interpolation:linear
wavelength,value
280.0,4.417e-23
280.5,1.489e-21
281.0,8.073e-21
281.5,2.63e-19
282.0,4.886e-19
282.5,1.126e-18
283.0,3.462e-18
283.5,5.616e-18
284.0,9.179e-17
284.5,2.695e-16
285.0,7.621e-16
285.5,3.059e-15
286.0,1.189e-14
286.5,5.093e-14
287.0,1.434e-13
287.5,5.45e-13
288.0,1.694e-12
288.5,4.815e-12
289.0,1.241e-11
289.5,3.676e-11
290.0,1.014e-10
290.5,2.068e-10
291.0,4.446e-10
291.5,1.281e-09
292.0,2.629e-09
292.5,3.654e-09
293.0,7.753e-09
293.5,1.862e-08
294.0,2.902e-08
294.5,3.517e-08
295.0,5.909e-08
295.5,9.975e-08
296.0,1.865e-07
296.5,2.522e-07
297.0,3.314e-07
297.5,8.481e-07
298.0,1.28e-06
298.5,1.242e-06
299.0,2.638e-06
299.5,4.087e-06
300.0,4.312e-06
300.5,5.974e-06
301.0,1.002e-05
301.5,1.486e-05
302.0,1.222e-05
302.5,2.332e-05
303.0,4.029e-05
303.5,4.996e-05
304.0,4.753e-05
304.5,7.37e-05
305.0,0.0001189
305.5,0.0001423
306.0,0.0001401
306.5,0.0001799
307.0,0.0002869
307.5,0.000411
308.0,0.0004393
308.5,0.0005391
309.0,0.0005778
309.5,0.0008107
310.0,0.0008949
310.5,0.001519
311.0,0.002059
311.5,0.002055
312.0,0.002433
312.5,0.003312
313.0,0.00381
313.5,0.003498
314.0,0.005008
314.5,0.005324
315.0,0.007222
315.5,0.005522
316.0,0.00559
316.5,0.009124
317.0,0.01129
317.5,0.01131
318.0,0.00963
318.5,0.01416
319.0,0.0183
319.5,0.01297
320.0,0.01533
320.5,0.02283
321.0,0.0238
321.5,0.02316
322.0,0.0208
322.5,0.01823
323.0,0.02026
323.5,0.02964
324.0,0.03529
324.5,0.03392
325.0,0.02589
325.5,0.03642
326.0,0.04922
326.5,0.05265
327.0,0.05114
327.5,0.0478
328.0,0.03881
328.5,0.04548
329.0,0.05925
329.5,0.06895
330.0,0.06804
330.5,0.05092
331.0,0.05066
331.5,0.05403
332.0,0.06258
332.5,0.06384
333.0,0.06243
333.5,0.05357
334.0,0.05435
334.5,0.06647
335.0,0.06457
335.5,0.07674
336.0,0.05305
336.5,0.05989
337.0,0.04787
337.5,0.05893
338.0,0.06036
338.5,0.07133
339.0,0.07073
339.5,0.06785
340.0,0.07782
340.5,0.07042
341.0,0.06998
341.5,0.06453
342.0,0.07716
342.5,0.07224
343.0,0.07908
343.5,0.07422
344.0,0.05371
344.5,0.05507
345.0,0.07324
345.5,0.0749
346.0,0.06371
346.5,0.07216
347.0,0.07714
347.5,0.06224
348.0,0.07114
348.5,0.0712
349.0,0.06605
349.5,0.0653
350.0,0.0807
350.5,0.08502
351.0,0.07572
351.5,0.07317
352.0,0.07872
352.5,0.06151
353.0,0.07752
353.5,0.08288
354.0,0.08602
354.5,0.08713
355.0,0.08667
355.5,0.07825
356.0,0.08183
356.5,0.06979
357.0,0.05759
357.5,0.07044
358.0,0.05578
358.5,0.04762
359.0,0.06649
359.5,0.0845
360.0,0.08951
360.5,0.0715
361.0,0.06514
361.5,0.07495
362.0,0.06476
362.5,0.08952
363.0,0.08031
363.5,0.07388
364.0,0.09025
364.5,0.07704
365.0,0.07835
365.5,0.09822
366.0,0.1039
366.5,0.09756
367.0,0.0949
367.5,0.09835
368.0,0.08595
368.5,0.0866
369.0,0.09341
369.5,0.09944
370.0,0.1059
370.5,0.08207
371.0,0.08758
371.5,0.1094
372.0,0.07253
372.5,0.08685
373.0,0.08823
373.5,0.05732
374.0,0.08318
374.5,0.06879
375.0,0.06678
375.5,0.09956
376.0,0.08242
376.5,0.08529
377.0,0.09018
377.5,0.1054
378.0,0.114
378.5,0.1076
379.0,0.08868
379.5,0.08088
380.0,0.08396
380.5,0.1015
381.0,0.1016
381.5,0.08042
382.0,0.07131
382.5,0.0607
383.0,0.05611
383.5,0.05396
384.0,0.05943
384.5,0.08729
385.0,0.08643
385.5,0.08037
386.0,0.06873
386.5,0.09013
387.0,0.07478
387.5,0.08385
388.0,0.07729
388.5,0.07628
389.0,0.08221
389.5,0.09941
390.0,0.0996
390.5,0.09151
391.0,0.1075
391.5,0.1095
392.0,0.09208
392.5,0.0823
393.0,0.04572
393.5,0.03318
394.0,0.0674
394.5,0.08556
395.0,0.1042
395.5,0.1057
396.0,0.09148
396.5,0.05339
397.0,0.04
397.5,0.0812
398.0,0.1135
398.5,0.1171
399.0,0.1266
399.5,0.126
400.0,0.1306
401.0,0.1286
402.0,0.1351
403.0,0.1279
404.0,0.1255
405.0,0.125
406.0,0.1225
407.0,0.12
408.0,0.1241
409.0,0.1323
410.0,0.1152
411.0,0.1243
412.0,0.133
413.0,0.1292
414.0,0.1302
415.0,0.13
416.0,0.1317
417.0,0.1279
418.0,0.125
419.0,0.1261
420.0,0.125
421.0,0.1302
422.0,0.1232
423.0,0.1197
424.0,0.1259
425.0,0.1251
426.0,0.1213
427.0,0.1186
428.0,0.1151
429.0,0.1086
430.0,0.09458
431.0,0.09326
432.0,0.1198
433.0,0.1198
434.0,0.1107
435.0,0.1151
436.0,0.1292
437.0,0.1268
438.0,0.1149
439.0,0.1181
440.0,0.1211
441.0,0.1247
442.0,0.133
443.0,0.1289
444.0,0.1311
445.0,0.1278
446.0,0.1215
447.0,0.1308
448.0,0.1321
449.0,0.1318
450.0,0.1347
451.0,0.1389
452.0,0.1332
453.0,0.1247
454.0,0.1296
455.0,0.1296
456.0,0.1318
457.0,0.133
458.0,0.1275
459.0,0.1259
460.0,0.1252
461.0,0.1273
462.0,0.1276
463.0,0.1263
464.0,0.1238
465.0,0.1219
466.0,0.1226
467.0,0.1196
468.0,0.1201
469.0,0.1199
470.0,0.1154
471.0,0.1146
472.0,0.1202
473.0,0.118
474.0,0.1174
475.0,0.1176
476.0,0.1131
477.0,0.1124
478.0,0.1144
479.0,0.1127
480.0,0.1118
481.0,0.1129
482.0,0.1128
483.0,0.1109
484.0,0.1082
485.0,0.1028
486.0,0.08962
487.0,0.09353
488.0,0.102
489.0,0.1016
490.0,0.1062
491.0,0.1036
492.0,0.09725
493.0,0.09986
494.0,0.1003
495.0,0.1006
496.0,0.1005
497.0,0.1012
498.0,0.09558
499.0,0.09581
500.0,0.09206
501.0,0.0894
502.0,0.08714
503.0,0.08971
504.0,0.08651
505.0,0.08905
506.0,0.0914
507.0,0.08657
508.0,0.0836
509.0,0.08568
510.0,0.08492
511.0,0.0868
512.0,0.08723
513.0,0.08195
514.0,0.08076
515.0,0.07932
516.0,0.07852
517.0,0.06926
518.0,0.07229
519.0,0.07526
520.0,0.07737
521.0,0.07744
522.0,0.0768
523.0,0.07481
524.0,0.0767
525.0,0.07678
526.0,0.0726
527.0,0.06765
528.0,0.07077
529.0,0.07387
530.0,0.07213
531.0,0.07253
532.0,0.06946
533.0,0.06694
534.0,0.06849
535.0,0.0696
536.0,0.06986
537.0,0.06672
538.0,0.06747
539.0,0.06644
540.0,0.06323
541.0,0.0631
542.0,0.06449
543.0,0.06329
544.0,0.06387
545.0,0.06323
546.0,0.06301
547.0,0.06254
548.0,0.06137
549.0,0.06114
550.0,0.06144
551.0,0.06026
552.0,0.06025
553.0,0.05873
554.0,0.05968
555.0,0.05932
556.0,0.05807
557.0,0.05576
558.0,0.0548
559.0,0.05323
560.0,0.05336
561.0,0.05352
562.0,0.05259
563.0,0.05349
564.0,0.05158
565.0,0.0507
566.0,0.04954
567.0,0.05003
568.0,0.04913
569.0,0.04747
570.0,0.0471
571.0,0.04648
572.0,0.04715
573.0,0.04732
574.0,0.04687
575.0,0.04572
576.0,0.04508
577.0,0.04538
578.0,0.04455
579.0,0.0446
580.0,0.04536
581.0,0.04548
582.0,0.0462
583.0,0.04617
584.0,0.04641
585.0,0.04508
586.0,0.04391
587.0,0.04459
588.0,0.04312
589.0,0.03772
590.0,0.03922
591.0,0.04137
592.0,0.04045
593.0,0.04082
594.0,0.04013
595.0,0.0387
596.0,0.0401
597.0,0.03927
598.0,0.03888
599.0,0.0386
600.0,0.03842
601.0,0.03789
602.0,0.03741
603.0,0.03785
604.0,0.03831
605.0,0.03797
606.0,0.03772
607.0,0.03802
608.0,0.03753
609.0,0.03752
610.0,0.0372
611.0,0.03733
612.0,0.03716
613.0,0.03662
614.0,0.03605
615.0,0.03677
616.0,0.03548
617.0,0.03532
618.0,0.03659
619.0,0.03611
620.0,0.03621
621.0,0.03611
622.0,0.03554
623.0,0.03486
624.0,0.03413
625.0,0.03394
626.0,0.03432
627.0,0.03453
628.0,0.03155
629.0,0.03327
630.0,0.03237
631.0,0.03318
632.0,0.03272
633.0,0.0337
634.0,0.03334
635.0,0.03379
636.0,0.03328
637.0,0.03376
638.0,0.03404
639.0,0.03359
640.0,0.03319
641.0,0.03309
642.0,0.03288
643.0,0.03324
644.0,0.03306
645.0,0.03298
646.0,0.03203
647.0,0.03137
648.0,0.03131
649.0,0.03056
650.0,0.03081
651.0,0.03206
652.0,0.03041
653.0,0.03143
654.0,0.03098
655.0,0.02961
656.0,0.02623
657.0,0.02686
658.0,0.03007
659.0,0.03021
660.0,0.03024
661.0,0.03035
662.0,0.03028
663.0,0.02959
664.0,0.0299
665.0,0.02986
666.0,0.0298
667.0,0.0297
668.0,0.02965
669.0,0.03001
670.0,0.02978
671.0,0.02969
672.0,0.02936
673.0,0.02973
674.0,0.02952
675.0,0.02915
676.0,0.02926
677.0,0.02888
678.0,0.02887
679.0,0.02831
680.0,0.02843
681.0,0.02814
682.0,0.02798
683.0,0.02782
684.0,0.02756
685.0,0.02768
686.0,0.0274
687.0,0.01646
688.0,0.01974
689.0,0.01976
690.0,0.0209
691.0,0.02224
692.0,0.02328
693.0,0.02299
694.0,0.02277
695.0,0.02388
696.0,0.02383
697.0,0.02554
698.0,0.02504
699.0,0.02412
700.0,0.02372
701.0,0.02331
702.0,0.02346
703.0,0.02344
704.0,0.02421
705.0,0.02414
706.0,0.02406
707.0,0.024
708.0,0.02394
709.0,0.02396
710.0,0.0238
711.0,0.02371
712.0,0.0236
713.0,0.02321
714.0,0.02319
715.0,0.02226
716.0,0.02216
717.0,0.01845
718.0,0.01679
719.0,0.01523
720.0,0.01586
721.0,0.01779
722.0,0.02076
723.0,0.019
724.0,0.01677
725.0,0.01638
726.0,0.01713
727.0,0.01742
728.0,0.01613
729.0,0.01686
730.0,0.01775
731.0,0.01685
732.0,0.0182
733.0,0.01941
734.0,0.01986
735.0,0.01932
736.0,0.01919
737.0,0.01918
738.0,0.01958
739.0,0.01911
740.0,0.01957
741.0,0.01932
742.0,0.01928
743.0,0.01967
744.0,0.01954
745.0,0.01946
746.0,0.01946
747.0,0.01942
748.0,0.01928
749.0,0.01898
750.0,0.0189
751.0,0.01864
752.0,0.01866
753.0,0.01868
754.0,0.01864
755.0,0.01847
756.0,0.01839
757.0,0.01834
758.0,0.01803
759.0,0.01745
760.0,0.002526
761.0,0.001344
762.0,0.007691
763.0,0.003773
764.0,0.005649
765.0,0.007581
766.0,0.00952
767.0,0.01245
768.0,0.01494
769.0,0.01536
770.0,0.01602
771.0,0.01617
772.0,0.01616
773.0,0.01619
774.0,0.01603
775.0,0.01582
776.0,0.01594
777.0,0.01564
778.0,0.01546
779.0,0.01539
780.0,0.01524
781.0,0.01519
782.0,0.01523
783.0,0.01492
784.0,0.01494
785.0,0.01477
786.0,0.01487
787.0,0.01446
788.0,0.01419
789.0,0.01412
790.0,0.01358
791.0,0.01375
792.0,0.01361
793.0,0.01332
794.0,0.0136
795.0,0.01374
796.0,0.01311
797.0,0.01306
798.0,0.01353
799.0,0.01336
800.0,0.01303
801.0,0.01289
802.0,0.01279
803.0,0.01262
804.0,0.0126
805.0,0.01254
806.0,0.01291
807.0,0.01267
808.0,0.01262
809.0,0.01226
810.0,0.01207
811.0,0.01197
812.0,0.01145
813.0,0.01112
814.0,0.0095
815.0,0.00941
816.0,0.008643
817.0,0.008774
818.0,0.00837
819.0,0.009511
820.0,0.008855
821.0,0.01065
822.0,0.01024
823.0,0.006504
824.0,0.009766
825.0,0.0103
826.0,0.009764
827.0,0.01039
828.0,0.00847
829.0,0.009616
830.0,0.009435
831.0,0.00943
832.0,0.009044
833.0,0.009743
834.0,0.009278
835.0,0.01037
836.0,0.009725
837.0,0.01031
838.0,0.009876
839.0,0.01006
840.0,0.01026
841.0,0.01003
842.0,0.01006
843.0,0.01006
844.0,0.009846
845.0,0.01017
846.0,0.01009
847.0,0.009866
848.0,0.009733
849.0,0.009408
850.0,0.00897
851.0,0.00942
852.0,0.009316
853.0,0.008941
854.0,0.00767
855.0,0.008417
856.0,0.009153
857.0,0.00934
858.0,0.00923
859.0,0.009212
860.0,0.0092
861.0,0.009114
862.0,0.00923
863.0,0.009417
864.0,0.008915
865.0,0.008806
866.0,0.007888
867.0,0.008201
868.0,0.00889
869.0,0.008672
870.0,0.008885
871.0,0.008728
872.0,0.008663
873.0,0.008611
874.0,0.008472
875.0,0.008263
876.0,0.008311
877.0,0.008361
878.0,0.008412
879.0,0.008248
880.0,0.008037
881.0,0.007872
882.0,0.008005
883.0,0.008007
884.0,0.00793
885.0,0.007952
886.0,0.007511
887.0,0.007587
888.0,0.007651
889.0,0.007734
890.0,0.007597
891.0,0.007573
892.0,0.00728
893.0,0.006974
894.0,0.0066
895.0,0.006093
896.0,0.005658
897.0,0.004712
898.0,0.005183
899.0,0.003779
900.0,0.005336
901.0,0.003957
902.0,0.004769
903.0,0.004751
904.0,0.006276
905.0,0.005996
906.0,0.005543
907.0,0.004281
908.0,0.004392
909.0,0.004814
910.0,0.004117
911.0,0.004467
912.0,0.004658
913.0,0.004124
914.0,0.004092
915.0,0.004431
916.0,0.003686
917.0,0.004823
918.0,0.003749
919.0,0.004905
920.0,0.005025
921.0,0.005224
922.0,0.004545
923.0,0.005015
924.0,0.004601
925.0,0.004479
926.0,0.004504
927.0,0.005116
928.0,0.003488
929.0,0.003122
930.0,0.002361
931.0,0.002219
932.0,0.001541
933.0,0.001231
934.0,0.0006527
935.0,0.001257
936.0,0.0007646
937.0,0.0007712
938.0,0.00095
939.0,0.002075
940.0,0.002539
941.0,0.001849
942.0,0.002158
943.0,0.001369
944.0,0.001463
945.0,0.001882
946.0,0.0009112
947.0,0.001867
948.0,0.001352
949.0,0.002552
950.0,0.0006494
951.0,0.002494
952.0,0.001268
953.0,0.001668
954.0,0.002087
955.0,0.001681
956.0,0.001664
957.0,0.001245
958.0,0.002411
959.0,0.001837
960.0,0.002063
961.0,0.00236
962.0,0.002218
963.0,0.002609
964.0,0.002357
965.0,0.002572
966.0,0.002565
967.0,0.002534
968.0,0.003661
969.0,0.003783
970.0,0.003423
971.0,0.00405
972.0,0.003815
973.0,0.003179
974.0,0.002993
975.0,0.003123
976.0,0.002893
977.0,0.003431
978.0,0.003183
979.0,0.003358
980.0,0.003117
981.0,0.003875
982.0,0.003641
983.0,0.003453
984.0,0.004014
985.0,0.003581
986.0,0.004095
987.0,0.003963
988.0,0.003942
989.0,0.004062
990.0,0.003884
991.0,0.004027
992.0,0.004041
993.0,0.0039
994.0,0.004018
995.0,0.004007
996.0,0.003967
997.0,0.003963
998.0,0.003928
999.0,0.003902
1000.0,0.003849
1001.0,0.003895
1002.0,0.003725
1003.0,0.003795
1004.0,0.003674
1005.0,0.003544
1006.0,0.003659
1007.0,0.003727
1008.0,0.003685
1009.0,0.003642
1010.0,0.003608
1011.0,0.003654
1012.0,0.003599
1013.0,0.00362
1014.0,0.003582
1015.0,0.003543
1016.0,0.003513
1017.0,0.003506
1018.0,0.003485
1019.0,0.00338
1020.0,0.003437
1021.0,0.003423
1022.0,0.003376
1023.0,0.003399
1024.0,0.003325
1025.0,0.003377
1026.0,0.003345
1027.0,0.003326
1028.0,0.003305
1029.0,0.003253
1030.0,0.003269
1031.0,0.003241
1032.0,0.003221
1033.0,0.00316
1034.0,0.003149
1035.0,0.003146
1036.0,0.003149
1037.0,0.003086
1038.0,0.003088
1039.0,0.003074
1040.0,0.00305
1041.0,0.003049
1042.0,0.003016
1043.0,0.002995
1044.0,0.002993
1045.0,0.00294
1046.0,0.002895
1047.0,0.002909
1048.0,0.002914
1049.0,0.002891
1050.0,0.002866
1051.0,0.00285
1052.0,0.002826
1053.0,0.002792
1054.0,0.002786
1055.0,0.002775
1056.0,0.002752
1057.0,0.002732
1058.0,0.002653
1059.0,0.002644
1060.0,0.002629
1061.0,0.002615
1062.0,0.002616
1063.0,0.002579
1064.0,0.002601
1065.0,0.002567
1066.0,0.002512
1067.0,0.002533
1068.0,0.002465
1069.0,0.002383
1070.0,0.002452
1071.0,0.002493
1072.0,0.002446
1073.0,0.002404
1074.0,0.002472
1075.0,0.002309
1076.0,0.00245
1077.0,0.00238
1078.0,0.002318
1079.0,0.002391
1080.0,0.002315
1081.0,0.00222
1082.0,0.002274
1083.0,0.002281
1084.0,0.002181
1085.0,0.002283
1086.0,0.002028
1087.0,0.00212
1088.0,0.002232
1089.0,0.002122
1090.0,0.002051
1091.0,0.002192
1092.0,0.002184
1093.0,0.001764
1094.0,0.001974
1095.0,0.001831
1096.0,0.001726
1097.0,0.002097
1098.0,0.001677
1099.0,0.001753
1100.0,0.001594
1101.0,0.00162
1102.0,0.001524
1103.0,0.00149
1104.0,0.00149
1105.0,0.001668
1106.0,0.001181
1107.0,0.001556
1108.0,0.001258
1109.0,0.001259
1110.0,0.001512
1111.0,0.000947
1112.0,0.001238
1113.0,0.0007279
1114.0,0.0008145
1115.0,0.0006647
1116.0,0.0005117
1117.0,0.0001774
1118.0,0.0005564
1119.0,0.0002639
1120.0,0.0003308
1121.0,0.0004425
1122.0,0.0001796
1123.0,0.0002957
1124.0,0.0002482
1125.0,0.0003254
1126.0,0.0001083
1127.0,0.0003654
1128.0,0.0002118
1129.0,0.0002245
1130.0,0.0001459
1131.0,0.0007138
1132.0,0.0005493
1133.0,0.0003346
1134.0,8.187e-05
1135.0,3.067e-05
1136.0,0.0002732
1137.0,0.0006822
1138.0,0.0004719
1139.0,0.0007409
1140.0,0.0006001
1141.0,0.0004438
1142.0,0.0005148
1143.0,0.0007514
1144.0,0.0002446
1145.0,0.0003092
1146.0,0.0003325
1147.0,0.0001124
1148.0,0.0006326
1149.0,0.0004924
1150.0,0.0002598
1151.0,0.0004477
1152.0,0.0005607
1153.0,0.0005518
1154.0,0.0002912
1155.0,0.0007329
1156.0,0.0006481
1157.0,0.0007458
1158.0,0.0007345
1159.0,0.0007995
1160.0,0.0006723
1161.0,0.0008583
1162.0,0.0008554
1163.0,0.001229
1164.0,0.00102
1165.0,0.0009385
1166.0,0.0009432
1167.0,0.001038
1168.0,0.001045
1169.0,0.001073
1170.0,0.001186
1171.0,0.001149
1172.0,0.00118
1173.0,0.001171
1174.0,0.0007822
1175.0,0.001149
1176.0,0.001294
1177.0,0.001215
1178.0,0.000863
1179.0,0.001291
1180.0,0.001109
1181.0,0.001145
1182.0,0.0007373
1183.0,0.001128
1184.0,0.001033
1185.0,0.0009805
1186.0,0.001211
1187.0,0.001132
1188.0,0.0007317
1189.0,0.001043
1190.0,0.001169
1191.0,0.001077
1192.0,0.001182
1193.0,0.001116
1194.0,0.001156
1195.0,0.00107
1196.0,0.001016
1197.0,0.001155
1198.0,0.001041
1199.0,0.0008423
1200.0,0.00108
1201.0,0.001022
1202.0,0.001025
1203.0,0.001008
1204.0,0.0008564
1205.0,0.00105
1206.0,0.001183
1207.0,0.001003
1208.0,0.0009966
1209.0,0.001014
1210.0,0.001065
1211.0,0.000996
1212.0,0.00096
1213.0,0.001107
1214.0,0.0009849
1215.0,0.0009608
1216.0,0.001096
1217.0,0.001055
1218.0,0.001079
1219.0,0.001057
1220.0,0.001074
1221.0,0.001088
1222.0,0.001051
1223.0,0.001034
1224.0,0.001016
1225.0,0.001065
1226.0,0.001076
1227.0,0.0009657
1228.0,0.001078
1229.0,0.001066
1230.0,0.00104
1231.0,0.00108
1232.0,0.001069
1233.0,0.001012
1234.0,0.001073
1235.0,0.00106
1236.0,0.001066
1237.0,0.001042
1238.0,0.001056
1239.0,0.001039
1240.0,0.001041
1241.0,0.001027
1242.0,0.001026
1243.0,0.001015
1244.0,0.001017
1245.0,0.001019
1246.0,0.00101
1247.0,0.001001
1248.0,0.0009949
1249.0,0.0009971
1250.0,0.0009863
1251.0,0.0009674
1252.0,0.0009685
1253.0,0.0009505
1254.0,0.0009328
1255.0,0.0009565
1256.0,0.0009138
1257.0,0.0009033
1258.0,0.0009274
1259.0,0.000872
1260.0,0.0008762
1261.0,0.0008031
1262.0,0.0007665
1263.0,0.0007652
1264.0,0.0006836
1265.0,0.0007561
1266.0,0.0007128
1267.0,0.0007317
1268.0,0.0006784
1269.0,0.0003737
1270.0,0.0007192
1271.0,0.0007804
1272.0,0.0007822
1273.0,0.0007692
1274.0,0.0007724
1275.0,0.0007848
1276.0,0.0007941
1277.0,0.0008023
1278.0,0.0008235
1279.0,0.0008138
1280.0,0.0008009
1281.0,0.000766
1282.0,0.0007427
1283.0,0.0007959
1284.0,0.0008112
1285.0,0.0008153
1286.0,0.0008274
1287.0,0.0008052
1288.0,0.0008048
1289.0,0.0007637
1290.0,0.0007931
1291.0,0.0008041
1292.0,0.0007304
1293.0,0.0007781
1294.0,0.0007692
1295.0,0.0007556
1296.0,0.0007064
1297.0,0.0006569
1298.0,0.0007245
1299.0,0.0007665
1300.0,0.0006137
1301.0,0.0006356
1302.0,0.000715
1303.0,0.0006018
1304.0,0.0004883
1305.0,0.0006909
1306.0,0.0006857
1307.0,0.0005005
1308.0,0.0005963
1309.0,0.0006696
1310.0,0.0004838
1311.0,0.0005604
1312.0,0.0005422
1313.0,0.0005227
1314.0,0.0004555
1315.0,0.0004462
1316.0,0.0005397
1317.0,0.000504
1318.0,0.000558
1319.0,0.0004078
1320.0,0.0003955
1321.0,0.0004716
1322.0,0.0004713
1323.0,0.0003345
1324.0,0.0003945
1325.0,0.0005133
1326.0,0.0004258
1327.0,0.0004008
1328.0,0.0003366
1329.0,0.0002403
1330.0,0.0003204
1331.0,0.0001823
1332.0,0.0001891
1333.0,0.0002663
1334.0,0.0002289
1335.0,0.0003198
1336.0,0.0002447
1337.0,0.0002145
1338.0,0.0002315
1339.0,0.0002304
1340.0,0.0002251
1341.0,0.0002141
1342.0,0.0002253
1343.0,0.0001461
1344.0,8.699e-05
1345.0,0.0001251
1346.0,6.065e-05
1347.0,6.136e-05
