interpolation:linear
wavelength,value
280.0,6.642999999999999e-22
280.5,2.156e-20
281.0,1.15e-19
281.5,5.079e-19
282.0,8.464e-19
282.5,2.094e-18
283.0,6.593e-18
283.5,1.071e-17
284.0,1.742e-16
284.5,5.054e-16
285.0,9.191e-16
285.5,4.496e-15
286.0,1.803e-14
286.5,8.036e-14
287.0,2.291e-13
287.5,8.765e-13
288.0,2.84e-12
288.5,8.729e-12
289.0,2.347e-11
289.5,7.128e-11
290.0,1.985e-10
290.5,4.053e-10
291.0,8.711e-10
291.5,2.502e-09
292.0,5.871e-09
292.5,8.178e-09
293.0,1.739e-08
293.5,4.186e-08
294.0,6.504e-08
294.5,8.616e-08
295.0,1.45e-07
295.5,2.826e-07
296.0,5.343e-07
296.5,7.633e-07
297.0,1.053e-06
297.5,2.925e-06
298.0,4.775e-06
298.5,4.954e-06
299.0,1.13e-05
299.5,2.014e-05
300.0,2.319e-05
300.5,3.542e-05
301.0,7.095e-05
301.5,0.0001265
302.0,0.0001155
302.5,0.0002293
303.0,0.0004211
303.5,0.0005403
304.0,0.0005196
304.5,0.000828
305.0,0.001382
305.5,0.001683
306.0,0.001666
306.5,0.002159
307.0,0.003516
307.5,0.005123
308.0,0.005482
308.5,0.006772
309.0,0.006973
309.5,0.008346
310.0,0.008554
310.5,0.01398
311.0,0.01783
311.5,0.0173
312.0,0.01799
312.5,0.02246
313.0,0.02466
313.5,0.02355
314.0,0.0304
314.5,0.02819
315.0,0.03726
315.5,0.03036
316.0,0.0275
316.5,0.04078
317.0,0.05046
317.5,0.05183
318.0,0.04131
318.5,0.05363
319.0,0.06504
319.5,0.05082
320.0,0.06088
320.5,0.07982
321.0,0.07422
321.5,0.0713
322.0,0.0721
322.5,0.0627
323.0,0.0643
323.5,0.08109
324.0,0.09483
324.5,0.0949
325.0,0.08044
325.5,0.106
326.0,0.1298
326.5,0.1317
327.0,0.1301
327.5,0.1244
328.0,0.1082
328.5,0.1162
329.0,0.1418
329.5,0.1617
330.0,0.1617
330.5,0.1268
331.0,0.1281
331.5,0.1315
332.0,0.1443
332.5,0.1437
333.0,0.1421
333.5,0.1264
334.0,0.1288
334.5,0.1506
335.0,0.1426
335.5,0.1677
336.0,0.1158
336.5,0.1331
337.0,0.1081
337.5,0.1337
338.0,0.132
338.5,0.1534
339.0,0.1511
339.5,0.1451
340.0,0.1686
340.5,0.1518
341.0,0.1485
341.5,0.1355
342.0,0.1614
342.5,0.1505
343.0,0.1653
343.5,0.1554
344.0,0.114
344.5,0.1157
345.0,0.1519
345.5,0.1545
346.0,0.1308
346.5,0.1476
347.0,0.1582
347.5,0.1276
348.0,0.1448
348.5,0.1442
349.0,0.1334
349.5,0.1317
350.0,0.1623
350.5,0.1707
351.0,0.1521
351.5,0.1477
352.0,0.1579
352.5,0.1228
353.0,0.1541
353.5,0.1643
354.0,0.17
354.5,0.1719
355.0,0.1708
355.5,0.1538
356.0,0.1604
356.5,0.1365
357.0,0.1125
357.5,0.1373
358.0,0.1084
358.5,0.09237
359.0,0.1288
359.5,0.1636
360.0,0.1729
360.5,0.1378
361.0,0.1252
361.5,0.1437
362.0,0.1239
362.5,0.1709
363.0,0.1531
363.5,0.1405
364.0,0.1713
364.5,0.146
365.0,0.1482
365.5,0.1854
366.0,0.1959
366.5,0.1835
367.0,0.1781
367.5,0.1842
368.0,0.1607
368.5,0.1617
369.0,0.174
369.5,0.1849
370.0,0.1965
370.5,0.152
371.0,0.1619
371.5,0.2019
372.0,0.1336
372.5,0.1597
373.0,0.1619
373.5,0.105
374.0,0.1521
374.5,0.1256
375.0,0.1217
375.5,0.181
376.0,0.1496
376.5,0.1545
377.0,0.1631
377.5,0.1902
378.0,0.2055
378.5,0.1935
379.0,0.1592
379.5,0.1449
380.0,0.1501
380.5,0.1812
381.0,0.181
381.5,0.143
382.0,0.1265
382.5,0.1075
383.0,0.09918
383.5,0.09522
384.0,0.1047
384.5,0.1535
385.0,0.1517
385.5,0.1408
386.0,0.1202
386.5,0.1574
387.0,0.1303
387.5,0.1459
388.0,0.1342
388.5,0.1322
389.0,0.1422
389.5,0.1717
390.0,0.1717
390.5,0.1575
391.0,0.1848
391.5,0.1878
392.0,0.1576
392.5,0.1406
393.0,0.07799
393.5,0.0565
394.0,0.1146
394.5,0.1452
395.0,0.1766
395.5,0.1788
396.0,0.1545
396.5,0.09
397.0,0.06731
397.5,0.1364
398.0,0.1904
398.5,0.1961
399.0,0.2117
399.5,0.2103
400.0,0.2176
401.0,0.2138
402.0,0.224
403.0,0.2113
404.0,0.2066
405.0,0.2052
406.0,0.2004
407.0,0.1958
408.0,0.2019
409.0,0.2147
410.0,0.1863
411.0,0.2004
412.0,0.2138
413.0,0.2071
414.0,0.2082
415.0,0.2072
416.0,0.2093
417.0,0.2027
418.0,0.1975
419.0,0.1987
420.0,0.1964
421.0,0.204
422.0,0.1924
423.0,0.1866
424.0,0.1958
425.0,0.194
426.0,0.1877
427.0,0.1829
428.0,0.177
429.0,0.1665
430.0,0.1447
431.0,0.1423
432.0,0.1824
433.0,0.182
434.0,0.1678
435.0,0.174
436.0,0.1948
437.0,0.1908
438.0,0.1725
439.0,0.1771
440.0,0.1814
441.0,0.1865
442.0,0.1984
443.0,0.1919
444.0,0.1947
445.0,0.1892
446.0,0.1794
447.0,0.1926
448.0,0.1941
449.0,0.1934
450.0,0.1973
451.0,0.203
452.0,0.1942
453.0,0.1814
454.0,0.1881
455.0,0.1878
456.0,0.1908
457.0,0.1924
458.0,0.1843
459.0,0.1818
460.0,0.1808
461.0,0.1835
462.0,0.1837
463.0,0.1813
464.0,0.1773
465.0,0.174
466.0,0.1745
467.0,0.17
468.0,0.1706
469.0,0.17
470.0,0.1634
471.0,0.1621
472.0,0.1696
473.0,0.1662
474.0,0.1652
475.0,0.1653
476.0,0.159
477.0,0.158
478.0,0.1609
479.0,0.1585
480.0,0.1574
481.0,0.1588
482.0,0.1585
483.0,0.1555
484.0,0.1513
485.0,0.1433
486.0,0.1245
487.0,0.1296
488.0,0.1412
489.0,0.1405
490.0,0.1466
491.0,0.143
492.0,0.134
493.0,0.1374
494.0,0.1378
495.0,0.1379
496.0,0.1377
497.0,0.1387
498.0,0.131
499.0,0.1315
500.0,0.1264
501.0,0.1229
502.0,0.12
503.0,0.1236
504.0,0.1193
505.0,0.1227
506.0,0.1258
507.0,0.1189
508.0,0.1145
509.0,0.117
510.0,0.1157
511.0,0.118
512.0,0.1185
513.0,0.1113
514.0,0.1096
515.0,0.1077
516.0,0.1067
517.0,0.09407
518.0,0.09818
519.0,0.1022
520.0,0.1051
521.0,0.1052
522.0,0.1045
523.0,0.1018
524.0,0.1045
525.0,0.1049
526.0,0.09931
527.0,0.09271
528.0,0.09715
529.0,0.1016
530.0,0.0993
531.0,0.09997
532.0,0.0958
533.0,0.09234
534.0,0.09443
535.0,0.09588
536.0,0.09614
537.0,0.09174
538.0,0.09272
539.0,0.09133
540.0,0.08696
541.0,0.08685
542.0,0.08884
543.0,0.08723
544.0,0.08813
545.0,0.08729
546.0,0.08703
547.0,0.08637
548.0,0.08474
549.0,0.08442
550.0,0.08484
551.0,0.08322
552.0,0.0832
553.0,0.08112
554.0,0.08247
555.0,0.08203
556.0,0.08034
557.0,0.07722
558.0,0.07599
559.0,0.07394
560.0,0.07423
561.0,0.07456
562.0,0.07339
563.0,0.07477
564.0,0.07218
565.0,0.07102
566.0,0.06944
567.0,0.0702
568.0,0.06902
569.0,0.0668
570.0,0.06633
571.0,0.06547
572.0,0.06649
573.0,0.06675
574.0,0.06613
575.0,0.0645
576.0,0.06354
577.0,0.06388
578.0,0.06261
579.0,0.06257
580.0,0.06349
581.0,0.06352
582.0,0.06441
583.0,0.06428
584.0,0.06454
585.0,0.06263
586.0,0.06095
587.0,0.06185
588.0,0.05988
589.0,0.0525
590.0,0.0546
591.0,0.05754
592.0,0.05634
593.0,0.05685
594.0,0.05598
595.0,0.05413
596.0,0.05604
597.0,0.05499
598.0,0.05448
599.0,0.05415
600.0,0.0539
601.0,0.05316
602.0,0.05248
603.0,0.05305
604.0,0.05364
605.0,0.0531
606.0,0.05266
607.0,0.05296
608.0,0.05215
609.0,0.05202
610.0,0.05145
611.0,0.05152
612.0,0.05117
613.0,0.05031
614.0,0.04941
615.0,0.05028
616.0,0.04843
617.0,0.04813
618.0,0.04977
619.0,0.04905
620.0,0.04912
621.0,0.04892
622.0,0.0481
623.0,0.04711
624.0,0.04608
625.0,0.04577
626.0,0.04624
627.0,0.0465
628.0,0.04275
629.0,0.0448
630.0,0.04354
631.0,0.04446
632.0,0.04376
633.0,0.04497
634.0,0.0444
635.0,0.0449
636.0,0.04413
637.0,0.04468
638.0,0.04495
639.0,0.04427
640.0,0.04366
641.0,0.04345
642.0,0.04309
643.0,0.0435
644.0,0.0432
645.0,0.04305
646.0,0.04178
647.0,0.04098
648.0,0.0408
649.0,0.03982
650.0,0.03998
651.0,0.04155
652.0,0.03944
653.0,0.04062
654.0,0.04001
655.0,0.03824
656.0,0.03379
657.0,0.03456
658.0,0.03862
659.0,0.03875
660.0,0.03873
661.0,0.03882
662.0,0.03871
663.0,0.03779
664.0,0.03811
665.0,0.038
666.0,0.03787
667.0,0.03769
668.0,0.03757
669.0,0.03798
670.0,0.03764
671.0,0.03748
672.0,0.03703
673.0,0.03746
674.0,0.03715
675.0,0.03665
676.0,0.03674
677.0,0.03623
678.0,0.03619
679.0,0.03546
680.0,0.03558
681.0,0.03518
682.0,0.03497
683.0,0.03474
684.0,0.0344
685.0,0.03453
686.0,0.03416
687.0,0.02109
688.0,0.02522
689.0,0.02521
690.0,0.02655
691.0,0.02811
692.0,0.02925
693.0,0.02885
694.0,0.02845
695.0,0.0297
696.0,0.02959
697.0,0.0316
698.0,0.03097
699.0,0.02989
700.0,0.02939
701.0,0.02891
702.0,0.02906
703.0,0.02898
704.0,0.02987
705.0,0.02977
706.0,0.02965
707.0,0.02955
708.0,0.02947
709.0,0.02943
710.0,0.02925
711.0,0.02913
712.0,0.02897
713.0,0.02851
714.0,0.02847
715.0,0.02736
716.0,0.02724
717.0,0.02289
718.0,0.02076
719.0,0.01877
720.0,0.01962
721.0,0.02193
722.0,0.02551
723.0,0.02335
724.0,0.02063
725.0,0.02016
726.0,0.02111
727.0,0.02138
728.0,0.01983
729.0,0.02067
730.0,0.02184
731.0,0.0207
732.0,0.02228
733.0,0.02371
734.0,0.02422
735.0,0.02357
736.0,0.02344
737.0,0.02341
738.0,0.0238
739.0,0.02321
740.0,0.02375
741.0,0.02343
742.0,0.02336
743.0,0.02383
744.0,0.02365
745.0,0.02355
746.0,0.02355
747.0,0.02349
748.0,0.02332
749.0,0.02294
750.0,0.02283
751.0,0.0225
752.0,0.02251
753.0,0.02251
754.0,0.02246
755.0,0.02223
756.0,0.02213
757.0,0.02206
758.0,0.02168
759.0,0.02106
760.0,0.002883
761.0,0.001491
762.0,0.009487
763.0,0.00442
764.0,0.006822
765.0,0.009343
766.0,0.01183
767.0,0.0154
768.0,0.0182
769.0,0.01862
770.0,0.01931
771.0,0.01944
772.0,0.0194
773.0,0.01944
774.0,0.01924
775.0,0.01901
776.0,0.01915
777.0,0.0188
778.0,0.01859
779.0,0.01851
780.0,0.01832
781.0,0.01825
782.0,0.01829
783.0,0.0179
784.0,0.01791
785.0,0.0177
786.0,0.01781
787.0,0.01737
788.0,0.01705
789.0,0.01695
790.0,0.01634
791.0,0.01649
792.0,0.0163
793.0,0.01595
794.0,0.01624
795.0,0.01642
796.0,0.01573
797.0,0.01568
798.0,0.01618
799.0,0.01598
800.0,0.0156
801.0,0.01545
802.0,0.01534
803.0,0.01514
804.0,0.0151
805.0,0.01501
806.0,0.01541
807.0,0.01514
808.0,0.01509
809.0,0.0147
810.0,0.01447
811.0,0.01438
812.0,0.01382
813.0,0.01342
814.0,0.0115
815.0,0.01137
816.0,0.01043
817.0,0.01061
818.0,0.01013
819.0,0.0115
820.0,0.01069
821.0,0.01279
822.0,0.01231
823.0,0.007827
824.0,0.01176
825.0,0.01233
826.0,0.01171
827.0,0.01243
828.0,0.01019
829.0,0.01151
830.0,0.01129
831.0,0.01129
832.0,0.01083
833.0,0.01167
834.0,0.01112
835.0,0.01235
836.0,0.01165
837.0,0.01229
838.0,0.0118
839.0,0.012
840.0,0.01223
841.0,0.01197
842.0,0.01198
843.0,0.01195
844.0,0.01171
845.0,0.01208
846.0,0.01198
847.0,0.01172
848.0,0.01157
849.0,0.01119
850.0,0.01067
851.0,0.01123
852.0,0.0111
853.0,0.01065
854.0,0.009141
855.0,0.01002
856.0,0.0109
857.0,0.01111
858.0,0.01098
859.0,0.01095
860.0,0.01093
861.0,0.01082
862.0,0.01095
863.0,0.01117
864.0,0.01057
865.0,0.01044
866.0,0.009347
867.0,0.009715
868.0,0.01053
869.0,0.01027
870.0,0.01052
871.0,0.01033
872.0,0.01025
873.0,0.01019
874.0,0.01002
875.0,0.009777
876.0,0.009834
877.0,0.009893
878.0,0.009955
879.0,0.009761
880.0,0.009512
881.0,0.009323
882.0,0.009485
883.0,0.009483
884.0,0.009394
885.0,0.009421
886.0,0.008916
887.0,0.008995
888.0,0.009075
889.0,0.009163
890.0,0.009017
891.0,0.008981
892.0,0.008655
893.0,0.008301
894.0,0.007893
895.0,0.007326
896.0,0.006789
897.0,0.005658
898.0,0.006239
899.0,0.004522
900.0,0.006408
901.0,0.004761
902.0,0.00574
903.0,0.00573
904.0,0.007514
905.0,0.007176
906.0,0.006637
907.0,0.00515
908.0,0.005269
909.0,0.005789
910.0,0.004951
911.0,0.005341
912.0,0.0056
913.0,0.004961
914.0,0.004911
915.0,0.005359
916.0,0.004414
917.0,0.005818
918.0,0.004505
919.0,0.005901
920.0,0.005993
921.0,0.006268
922.0,0.005456
923.0,0.006009
924.0,0.005553
925.0,0.005394
926.0,0.005445
927.0,0.006184
928.0,0.004226
929.0,0.003779
930.0,0.002841
931.0,0.002669
932.0,0.001825
933.0,0.00144
934.0,0.0007359
935.0,0.001476
936.0,0.0008742
937.0,0.0008814
938.0,0.001098
939.0,0.002497
940.0,0.003081
941.0,0.002222
942.0,0.002613
943.0,0.00162
944.0,0.001732
945.0,0.00226
946.0,0.001056
947.0,0.002242
948.0,0.001593
949.0,0.003107
950.0,0.0007374
951.0,0.003041
952.0,0.001492
953.0,0.00199
954.0,0.002522
955.0,0.002011
956.0,0.001958
957.0,0.001464
958.0,0.002898
959.0,0.002195
960.0,0.002482
961.0,0.002843
962.0,0.002662
963.0,0.003141
964.0,0.002827
965.0,0.003106
966.0,0.003091
967.0,0.003056
968.0,0.004375
969.0,0.004564
970.0,0.004111
971.0,0.004843
972.0,0.004569
973.0,0.003831
974.0,0.003596
975.0,0.003751
976.0,0.003495
977.0,0.0041
978.0,0.003824
979.0,0.004037
980.0,0.003735
981.0,0.004634
982.0,0.004364
983.0,0.004141
984.0,0.004778
985.0,0.004299
986.0,0.004858
987.0,0.00471
988.0,0.004682
989.0,0.004807
990.0,0.00462
991.0,0.004773
992.0,0.004787
993.0,0.004631
994.0,0.004756
995.0,0.004738
996.0,0.004693
997.0,0.004685
998.0,0.004644
999.0,0.004612
1000.0,0.004555
1001.0,0.004604
1002.0,0.004425
1003.0,0.004486
1004.0,0.004349
1005.0,0.004186
1006.0,0.004326
1007.0,0.004404
1008.0,0.004358
1009.0,0.004312
1010.0,0.004273
1011.0,0.004317
1012.0,0.004256
1013.0,0.004276
1014.0,0.004231
1015.0,0.004186
1016.0,0.00415
1017.0,0.004143
1018.0,0.004116
1019.0,0.003999
1020.0,0.00406
1021.0,0.004041
1022.0,0.003989
1023.0,0.004016
1024.0,0.003937
1025.0,0.003989
1026.0,0.003953
1027.0,0.003929
1028.0,0.003906
1029.0,0.003845
1030.0,0.003861
1031.0,0.003829
1032.0,0.003804
1033.0,0.003732
1034.0,0.003718
1035.0,0.003716
1036.0,0.003719
1037.0,0.003645
1038.0,0.003648
1039.0,0.003632
1040.0,0.003604
1041.0,0.003603
1042.0,0.003564
1043.0,0.00354
1044.0,0.003539
1045.0,0.003477
1046.0,0.003424
1047.0,0.003441
1048.0,0.003447
1049.0,0.003422
1050.0,0.003393
1051.0,0.003374
1052.0,0.003347
1053.0,0.003308
1054.0,0.003302
1055.0,0.00329
1056.0,0.003264
1057.0,0.003241
1058.0,0.003149
1059.0,0.003139
1060.0,0.003122
1061.0,0.003106
1062.0,0.003109
1063.0,0.003066
1064.0,0.003092
1065.0,0.003054
1066.0,0.002986
1067.0,0.003012
1068.0,0.002933
1069.0,0.002834
1070.0,0.002916
1071.0,0.00296
1072.0,0.002908
1073.0,0.002858
1074.0,0.002932
1075.0,0.002747
1076.0,0.002906
1077.0,0.002828
1078.0,0.002758
1079.0,0.002833
1080.0,0.00275
1081.0,0.002644
1082.0,0.0027
1083.0,0.002703
1084.0,0.002599
1085.0,0.002713
1086.0,0.002417
1087.0,0.002525
1088.0,0.002646
1089.0,0.00253
1090.0,0.002445
1091.0,0.002601
1092.0,0.002591
1093.0,0.002111
1094.0,0.002345
1095.0,0.002199
1096.0,0.002075
1097.0,0.002489
1098.0,0.002022
1099.0,0.002113
1100.0,0.001922
1101.0,0.00195
1102.0,0.001839
1103.0,0.001801
1104.0,0.001799
1105.0,0.002013
1106.0,0.001433
1107.0,0.001876
1108.0,0.001521
1109.0,0.001524
1110.0,0.001832
1111.0,0.001144
1112.0,0.001499
1113.0,0.0008706
1114.0,0.0009821
1115.0,0.0007945
1116.0,0.0006047
1117.0,0.0001973
1118.0,0.0006624
1119.0,0.0003013
1120.0,0.0003821
1121.0,0.000521
1122.0,0.0002004
1123.0,0.0003397
1124.0,0.0002829
1125.0,0.0003767
1126.0,0.0001181
1127.0,0.0004257
1128.0,0.0002383
1129.0,0.0002537
1130.0,0.0001613
1131.0,0.0008683
1132.0,0.0006576
1133.0,0.0003882
1134.0,8.859e-05
1135.0,3.261e-05
1136.0,0.0003127
1137.0,0.0008288
1138.0,0.0005613
1139.0,0.0008997
1140.0,0.000723
1141.0,0.000526
1142.0,0.0006158
1143.0,0.0009165
1144.0,0.0002801
1145.0,0.0003584
1146.0,0.0003868
1147.0,0.0001229
1148.0,0.0007664
1149.0,0.0005881
1150.0,0.000298
1151.0,0.000532
1152.0,0.0006757
1153.0,0.0006622
1154.0,0.0003359
1155.0,0.0008929
1156.0,0.0007858
1157.0,0.0009022
1158.0,0.0008881
1159.0,0.0009738
1160.0,0.0008068
1161.0,0.001037
1162.0,0.001034
1163.0,0.001485
1164.0,0.001231
1165.0,0.001136
1166.0,0.001133
1167.0,0.001249
1168.0,0.001258
1169.0,0.001295
1170.0,0.001426
1171.0,0.001379
1172.0,0.00141
1173.0,0.001408
1174.0,0.0009364
1175.0,0.001373
1176.0,0.001536
1177.0,0.001451
1178.0,0.001028
1179.0,0.001534
1180.0,0.001326
1181.0,0.001372
1182.0,0.0008811
1183.0,0.00135
1184.0,0.001237
1185.0,0.001177
1186.0,0.001445
1187.0,0.001356
1188.0,0.0008809
1189.0,0.001248
1190.0,0.001392
1191.0,0.001294
1192.0,0.001406
1193.0,0.001331
1194.0,0.001377
1195.0,0.001282
1196.0,0.00122
1197.0,0.001376
1198.0,0.001236
1199.0,0.001011
1200.0,0.001288
1201.0,0.001225
1202.0,0.001219
1203.0,0.001209
1204.0,0.001024
1205.0,0.001247
1206.0,0.001403
1207.0,0.001198
1208.0,0.001187
1209.0,0.001208
1210.0,0.001265
1211.0,0.001186
1212.0,0.001157
1213.0,0.001321
1214.0,0.001184
1215.0,0.001154
1216.0,0.001304
1217.0,0.001258
1218.0,0.001285
1219.0,0.001261
1220.0,0.001278
1221.0,0.001291
1222.0,0.001248
1223.0,0.00123
1224.0,0.001214
1225.0,0.001266
1226.0,0.001275
1227.0,0.001154
1228.0,0.001276
1229.0,0.001263
1230.0,0.001234
1231.0,0.001276
1232.0,0.001264
1233.0,0.001203
1234.0,0.001265
1235.0,0.001251
1236.0,0.001258
1237.0,0.001231
1238.0,0.001246
1239.0,0.001225
1240.0,0.001227
1241.0,0.001214
1242.0,0.00121
1243.0,0.001196
1244.0,0.0012
1245.0,0.001201
1246.0,0.001191
1247.0,0.001181
1248.0,0.001175
1249.0,0.001176
1250.0,0.001165
1251.0,0.001144
1252.0,0.001143
1253.0,0.001126
1254.0,0.001108
1255.0,0.00113
1256.0,0.001086
1257.0,0.001075
1258.0,0.001099
1259.0,0.001043
1260.0,0.001047
1261.0,0.0009703
1262.0,0.0009308
1263.0,0.0009295
1264.0,0.0008389
1265.0,0.0009185
1266.0,0.0008714
1267.0,0.0008908
1268.0,0.0008314
1269.0,0.0004597
1270.0,0.0008775
1271.0,0.000942
1272.0,0.0009438
1273.0,0.0009292
1274.0,0.0009314
1275.0,0.0009447
1276.0,0.0009537
1277.0,0.0009599
1278.0,0.0009814
1279.0,0.000969
1280.0,0.000954
1281.0,0.0009102
1282.0,0.0008789
1283.0,0.0009427
1284.0,0.0009612
1285.0,0.0009653
1286.0,0.0009779
1287.0,0.0009549
1288.0,0.0009529
1289.0,0.0009109
1290.0,0.0009391
1291.0,0.0009507
1292.0,0.0008735
1293.0,0.0009219
1294.0,0.0009115
1295.0,0.0009006
1296.0,0.0008464
1297.0,0.0007893
1298.0,0.0008638
1299.0,0.0009073
1300.0,0.0007353
1301.0,0.0007617
1302.0,0.0008515
1303.0,0.0007207
1304.0,0.0005895
1305.0,0.0008229
1306.0,0.0008196
1307.0,0.0006016
1308.0,0.0007121
1309.0,0.0008037
1310.0,0.0005829
1311.0,0.0006707
1312.0,0.000649
1313.0,0.0006297
1314.0,0.0005493
1315.0,0.0005398
1316.0,0.000648
1317.0,0.0006055
1318.0,0.0006686
1319.0,0.0004923
1320.0,0.0004758
1321.0,0.000568
1322.0,0.0005705
1323.0,0.0004046
1324.0,0.0004749
1325.0,0.000619
1326.0,0.0005135
1327.0,0.0004837
1328.0,0.0004057
1329.0,0.0002884
1330.0,0.0003879
1331.0,0.0002157
1332.0,0.0002246
1333.0,0.0003227
1334.0,0.0002716
1335.0,0.0003885
1336.0,0.0002945
1337.0,0.0002552
1338.0,0.0002773
1339.0,0.0002764
1340.0,0.0002687
1341.0,0.0002568
1342.0,0.0002707
1343.0,0.0001704
1344.0,9.886e-05
1345.0,0.0001454
1346.0,6.7e-05
1347.0,6.76e-05
1348.0,4.086e-06
1349.0,1.484e-05
1350.0,1.543e-05
1351.0,3.66e-06
1352.0,9.795e-07
1353.0,4.977e-08
1354.0,1.711e-07
1355.0,1.377e-09
1356.0,2.41e-08
1357.0,3.662e-08
1358.0,1.617e-09
1359.0,2.037e-10
1360.0,7.361e-10
