interpolation:linear
wavelength,value
280.0,4.291e-21
280.5,1.329e-19
281.0,6.986e-19
281.5,4.634e-19
282.0,1.25e-18
282.5,3.24e-18
283.0,1.037e-17
283.5,1.692e-17
284.0,2.707e-16
284.5,7.765e-16
285.0,1.683e-15
285.5,8.356e-15
286.0,3.357e-14
286.5,1.487e-13
287.0,4.214e-13
287.5,1.594e-12
288.0,4.121e-12
288.5,1.403e-11
289.0,4.061e-11
289.5,1.306e-10
290.0,3.77e-10
290.5,7.895e-10
291.0,1.738e-09
291.5,5.482e-09
292.0,1.184e-08
292.5,1.802e-08
293.0,4.281e-08
293.5,1.197e-07
294.0,2.063e-07
294.5,2.55e-07
295.0,4.705e-07
295.5,1.227e-06
296.0,2.396e-06
296.5,3.403e-06
297.0,4.675e-06
297.5,1.292e-05
298.0,2.101e-05
298.5,2.175e-05
299.0,4.955e-05
299.5,8.838e-05
300.0,0.0001019
300.5,0.0001562
301.0,0.000316
301.5,0.000572
302.0,0.0005285
302.5,0.001016
303.0,0.001786
303.5,0.002222
304.0,0.002083
304.5,0.003106
305.0,0.004717
305.5,0.005405
306.0,0.00522
306.5,0.006495
307.0,0.009669
307.5,0.0129
308.0,0.0136
308.5,0.01606
309.0,0.0162
309.5,0.0182
310.0,0.01811
310.5,0.02914
311.0,0.03629
311.5,0.03484
312.0,0.03445
312.5,0.04161
313.0,0.04488
313.5,0.04348
314.0,0.05397
314.5,0.04755
315.0,0.06223
315.5,0.05189
316.0,0.0451
316.5,0.06453
317.0,0.07981
317.5,0.08272
318.0,0.06432
318.5,0.07975
319.0,0.09447
319.5,0.07648
320.0,0.09203
320.5,0.1152
321.0,0.1027
321.5,0.09813
322.0,0.1036
322.5,0.0898
323.0,0.08941
323.5,0.1107
324.0,0.1288
324.5,0.1301
325.0,0.1109
325.5,0.1426
326.0,0.175
326.5,0.175
327.0,0.1736
327.5,0.1669
328.0,0.1478
328.5,0.1551
329.0,0.1856
329.5,0.2101
330.0,0.211
330.5,0.1677
331.0,0.1701
331.5,0.1725
332.0,0.1864
332.5,0.184
333.0,0.1826
333.5,0.1641
334.0,0.1674
334.5,0.1931
335.0,0.1812
335.5,0.2145
336.0,0.1479
336.5,0.1694
337.0,0.1382
337.5,0.1711
338.0,0.167
338.5,0.1948
339.0,0.1913
339.5,0.1838
340.0,0.2125
340.5,0.1909
341.0,0.1874
341.5,0.1703
342.0,0.2024
342.5,0.1884
343.0,0.2072
343.5,0.1949
344.0,0.1425
344.5,0.1454
345.0,0.1899
345.5,0.1926
346.0,0.1627
346.5,0.1834
347.0,0.1967
347.5,0.1586
348.0,0.1795
348.5,0.1784
349.0,0.1648
349.5,0.1626
350.0,0.2002
350.5,0.2104
351.0,0.1875
351.5,0.1824
352.0,0.1945
352.5,0.1509
353.0,0.1892
353.5,0.2014
354.0,0.2081
354.5,0.2103
355.0,0.2088
355.5,0.1879
356.0,0.1958
356.5,0.1665
357.0,0.137
357.5,0.1671
358.0,0.1319
358.5,0.1123
359.0,0.1564
359.5,0.1987
360.0,0.2098
360.5,0.167
361.0,0.1516
361.5,0.1739
362.0,0.1498
362.5,0.2065
363.0,0.1847
363.5,0.1695
364.0,0.2065
364.5,0.1758
365.0,0.1784
365.5,0.223
366.0,0.2354
366.5,0.2203
367.0,0.2137
367.5,0.2209
368.0,0.1926
368.5,0.1936
369.0,0.2082
369.5,0.2211
370.0,0.2348
370.5,0.1815
371.0,0.1932
371.5,0.2408
372.0,0.1592
372.5,0.1901
373.0,0.1926
373.5,0.1249
374.0,0.1807
374.5,0.1491
375.0,0.1444
375.5,0.2147
376.0,0.1773
376.5,0.183
377.0,0.193
377.5,0.225
378.0,0.2429
378.5,0.2286
379.0,0.1879
379.5,0.1709
380.0,0.177
380.5,0.2135
381.0,0.2131
381.5,0.1682
382.0,0.1488
382.5,0.1263
383.0,0.1164
383.5,0.1117
384.0,0.1228
384.5,0.1799
385.0,0.1777
385.5,0.1648
386.0,0.1406
386.5,0.1839
387.0,0.1522
387.5,0.1703
388.0,0.1566
388.5,0.1542
389.0,0.1658
389.5,0.2
390.0,0.1999
390.5,0.1832
391.0,0.2148
391.5,0.2182
392.0,0.183
392.5,0.1632
393.0,0.09045
393.5,0.06549
394.0,0.1328
394.5,0.1681
395.0,0.2044
395.5,0.2068
396.0,0.1786
396.5,0.104
397.0,0.07771
397.5,0.1574
398.0,0.2195
398.5,0.226
399.0,0.2438
399.5,0.2421
400.0,0.2504
401.0,0.2459
402.0,0.2574
403.0,0.2425
404.0,0.2369
405.0,0.235
406.0,0.2293
407.0,0.2238
408.0,0.2306
409.0,0.245
410.0,0.2125
411.0,0.2283
412.0,0.2433
413.0,0.2355
414.0,0.2365
415.0,0.2352
416.0,0.2374
417.0,0.2297
418.0,0.2236
419.0,0.2248
420.0,0.222
421.0,0.2303
422.0,0.2171
423.0,0.2103
424.0,0.2206
425.0,0.2184
426.0,0.2111
427.0,0.2056
428.0,0.1988
429.0,0.1868
430.0,0.1623
431.0,0.1595
432.0,0.2042
433.0,0.2037
434.0,0.1876
435.0,0.1944
436.0,0.2175
437.0,0.213
438.0,0.1925
439.0,0.1975
440.0,0.2022
441.0,0.2078
442.0,0.221
443.0,0.2136
444.0,0.2166
445.0,0.2103
446.0,0.1992
447.0,0.2137
448.0,0.2153
449.0,0.2144
450.0,0.2186
451.0,0.2249
452.0,0.215
453.0,0.2007
454.0,0.208
455.0,0.2075
456.0,0.2107
457.0,0.2125
458.0,0.2035
459.0,0.2008
460.0,0.1997
461.0,0.2027
462.0,0.2027
463.0,0.2
464.0,0.1954
465.0,0.1916
466.0,0.192
467.0,0.187
468.0,0.1876
469.0,0.1869
470.0,0.1796
471.0,0.1781
472.0,0.1863
473.0,0.1825
474.0,0.1813
475.0,0.1814
476.0,0.1745
477.0,0.1735
478.0,0.1768
479.0,0.1742
480.0,0.1731
481.0,0.1747
482.0,0.1742
483.0,0.1708
484.0,0.1661
485.0,0.1572
486.0,0.1364
487.0,0.142
488.0,0.1545
489.0,0.1538
490.0,0.1606
491.0,0.1566
492.0,0.1468
493.0,0.1504
494.0,0.1508
495.0,0.151
496.0,0.1507
497.0,0.1519
498.0,0.1436
499.0,0.1442
500.0,0.1388
501.0,0.135
502.0,0.1319
503.0,0.1361
504.0,0.1315
505.0,0.1352
506.0,0.1386
507.0,0.1309
508.0,0.126
509.0,0.1287
510.0,0.1272
511.0,0.1297
512.0,0.1301
513.0,0.1222
514.0,0.1205
515.0,0.1184
516.0,0.1173
517.0,0.1034
518.0,0.108
519.0,0.1124
520.0,0.1156
521.0,0.1158
522.0,0.115
523.0,0.1121
524.0,0.1153
525.0,0.1157
526.0,0.1097
527.0,0.1025
528.0,0.1075
529.0,0.1125
530.0,0.11
531.0,0.1109
532.0,0.1063
533.0,0.1025
534.0,0.1048
535.0,0.1064
536.0,0.1066
537.0,0.1017
538.0,0.1028
539.0,0.1013
540.0,0.09646
541.0,0.09638
542.0,0.09864
543.0,0.09689
544.0,0.09795
545.0,0.09705
546.0,0.09679
547.0,0.09606
548.0,0.09426
549.0,0.09392
550.0,0.0944
551.0,0.0926
552.0,0.09259
553.0,0.0903
554.0,0.09183
555.0,0.09138
556.0,0.08953
557.0,0.0861
558.0,0.08479
559.0,0.08256
560.0,0.08296
561.0,0.08339
562.0,0.08214
563.0,0.08376
564.0,0.0809
565.0,0.07964
566.0,0.07791
567.0,0.0788
568.0,0.07753
569.0,0.07511
570.0,0.0746
571.0,0.07365
572.0,0.07485
573.0,0.07516
574.0,0.07448
575.0,0.07264
576.0,0.07154
577.0,0.07188
578.0,0.07042
579.0,0.07033
580.0,0.0713
581.0,0.07127
582.0,0.07222
583.0,0.07203
584.0,0.07229
585.0,0.07013
586.0,0.06823
587.0,0.06924
588.0,0.06708
589.0,0.05892
590.0,0.06127
591.0,0.06453
592.0,0.06324
593.0,0.0638
594.0,0.06288
595.0,0.06087
596.0,0.06299
597.0,0.06187
598.0,0.06131
599.0,0.06096
600.0,0.06069
601.0,0.05985
602.0,0.05909
603.0,0.05972
604.0,0.06036
605.0,0.05972
606.0,0.05918
607.0,0.05948
608.0,0.05852
609.0,0.05832
610.0,0.05762
611.0,0.05765
612.0,0.0572
613.0,0.0562
614.0,0.05515
615.0,0.05608
616.0,0.05397
617.0,0.0536
618.0,0.05539
619.0,0.05456
620.0,0.05462
621.0,0.05438
622.0,0.05344
623.0,0.05233
624.0,0.05116
625.0,0.0508
626.0,0.05131
627.0,0.05159
628.0,0.04759
629.0,0.04971
630.0,0.0483
631.0,0.04923
632.0,0.04842
633.0,0.04971
634.0,0.04903
635.0,0.04955
636.0,0.04866
637.0,0.04923
638.0,0.04949
639.0,0.0487
640.0,0.048
641.0,0.04773
642.0,0.04731
643.0,0.04774
644.0,0.04737
645.0,0.04719
646.0,0.04581
647.0,0.04496
648.0,0.04474
649.0,0.04365
650.0,0.04375
651.0,0.04544
652.0,0.04318
653.0,0.04439
654.0,0.04369
655.0,0.04177
656.0,0.03688
657.0,0.03771
658.0,0.0421
659.0,0.04222
660.0,0.04218
661.0,0.04226
662.0,0.04214
663.0,0.04113
664.0,0.04144
665.0,0.04129
666.0,0.04113
667.0,0.04091
668.0,0.04075
669.0,0.04118
670.0,0.04079
671.0,0.0406
672.0,0.0401
673.0,0.04055
674.0,0.0402
675.0,0.03963
676.0,0.03972
677.0,0.03916
678.0,0.0391
679.0,0.0383
680.0,0.03842
681.0,0.03798
682.0,0.03775
683.0,0.03749
684.0,0.03711
685.0,0.03724
686.0,0.03684
687.0,0.02326
688.0,0.02761
689.0,0.02758
690.0,0.02896
691.0,0.03054
692.0,0.03169
693.0,0.03125
694.0,0.03079
695.0,0.03205
696.0,0.03193
697.0,0.03401
698.0,0.03332
699.0,0.03221
700.0,0.03166
701.0,0.03117
702.0,0.0313
703.0,0.0312
704.0,0.03213
705.0,0.03201
706.0,0.03187
707.0,0.03175
708.0,0.03167
709.0,0.0316
710.0,0.03141
711.0,0.03128
712.0,0.03109
713.0,0.03061
714.0,0.03056
715.0,0.02939
716.0,0.02926
717.0,0.02478
718.0,0.02245
719.0,0.02029
720.0,0.02124
721.0,0.02365
722.0,0.02742
723.0,0.02513
724.0,0.02225
725.0,0.02176
726.0,0.0228
727.0,0.02303
728.0,0.02141
729.0,0.02226
730.0,0.02355
731.0,0.02232
732.0,0.02396
733.0,0.02544
734.0,0.02596
735.0,0.02528
736.0,0.02514
737.0,0.02511
738.0,0.02548
739.0,0.02485
740.0,0.02541
741.0,0.02505
742.0,0.02497
743.0,0.02547
744.0,0.02527
745.0,0.02516
746.0,0.02516
747.0,0.0251
748.0,0.02491
749.0,0.0245
750.0,0.02438
751.0,0.02403
752.0,0.02402
753.0,0.02403
754.0,0.02396
755.0,0.02372
756.0,0.02361
757.0,0.02353
758.0,0.02313
759.0,0.02249
760.0,0.003169
761.0,0.001617
762.0,0.01046
763.0,0.004888
764.0,0.007552
765.0,0.0103
766.0,0.01294
767.0,0.01667
768.0,0.01952
769.0,0.01993
770.0,0.02061
771.0,0.02073
772.0,0.02069
773.0,0.02073
774.0,0.02052
775.0,0.02027
776.0,0.02042
777.0,0.02006
778.0,0.01983
779.0,0.01974
780.0,0.01954
781.0,0.01947
782.0,0.01951
783.0,0.01908
784.0,0.01909
785.0,0.01886
786.0,0.01898
787.0,0.01853
788.0,0.01819
789.0,0.01809
790.0,0.01746
791.0,0.01759
792.0,0.01739
793.0,0.01701
794.0,0.0173
795.0,0.01749
796.0,0.01679
797.0,0.01674
798.0,0.01723
799.0,0.01703
800.0,0.01663
801.0,0.01648
802.0,0.01636
803.0,0.01615
804.0,0.01611
805.0,0.01601
806.0,0.01641
807.0,0.01613
808.0,0.01608
809.0,0.01567
810.0,0.01545
811.0,0.01537
812.0,0.0148
813.0,0.01438
814.0,0.01236
815.0,0.01223
816.0,0.01121
817.0,0.0114
818.0,0.01089
819.0,0.01233
820.0,0.01147
821.0,0.01367
822.0,0.01316
823.0,0.008427
824.0,0.0126
825.0,0.01316
826.0,0.01252
827.0,0.01327
828.0,0.01093
829.0,0.0123
830.0,0.01206
831.0,0.01206
832.0,0.01158
833.0,0.01246
834.0,0.01189
835.0,0.01316
836.0,0.01245
837.0,0.01309
838.0,0.01259
839.0,0.01279
840.0,0.01302
841.0,0.01276
842.0,0.01275
843.0,0.01272
844.0,0.01247
845.0,0.01285
846.0,0.01274
847.0,0.01246
848.0,0.01231
849.0,0.01191
850.0,0.01136
851.0,0.01196
852.0,0.01182
853.0,0.01133
854.0,0.009735
855.0,0.01066
856.0,0.0116
857.0,0.01182
858.0,0.01169
859.0,0.01165
860.0,0.01162
861.0,0.01151
862.0,0.01165
863.0,0.01188
864.0,0.01124
865.0,0.0111
866.0,0.009935
867.0,0.01033
868.0,0.01119
869.0,0.01091
870.0,0.01118
871.0,0.01098
872.0,0.0109
873.0,0.01083
874.0,0.01065
875.0,0.01039
876.0,0.01045
877.0,0.01051
878.0,0.01058
879.0,0.01037
880.0,0.01011
881.0,0.00991
882.0,0.01008
883.0,0.01008
884.0,0.009986
885.0,0.01002
886.0,0.009488
887.0,0.009565
888.0,0.009655
889.0,0.009742
890.0,0.009595
891.0,0.009552
892.0,0.009217
893.0,0.00885
894.0,0.008438
895.0,0.007858
896.0,0.007279
897.0,0.006085
898.0,0.006704
899.0,0.004866
900.0,0.006869
901.0,0.005136
902.0,0.006161
903.0,0.006165
904.0,0.008033
905.0,0.007678
906.0,0.007105
907.0,0.005542
908.0,0.005665
909.0,0.006215
910.0,0.005338
911.0,0.005738
912.0,0.00602
913.0,0.005352
914.0,0.005289
915.0,0.005787
916.0,0.004752
917.0,0.006263
918.0,0.004858
919.0,0.006338
920.0,0.006409
921.0,0.006714
922.0,0.005862
923.0,0.006434
924.0,0.005977
925.0,0.005801
926.0,0.005864
927.0,0.006643
928.0,0.004585
929.0,0.004111
930.0,0.003095
931.0,0.002902
932.0,0.001988
933.0,0.001566
934.0,0.0007978
935.0,0.001601
936.0,0.0009441
937.0,0.0009525
938.0,0.001191
939.0,0.002717
940.0,0.003353
941.0,0.002423
942.0,0.002849
943.0,0.001759
944.0,0.001869
945.0,0.002461
946.0,0.001143
947.0,0.002447
948.0,0.001724
949.0,0.003397
950.0,0.0007964
951.0,0.003321
952.0,0.001622
953.0,0.002166
954.0,0.002744
955.0,0.002192
956.0,0.00211
957.0,0.001595
958.0,0.003128
959.0,0.002379
960.0,0.002701
961.0,0.003082
962.0,0.002883
963.0,0.003395
964.0,0.003055
965.0,0.003358
966.0,0.003345
967.0,0.00331
968.0,0.004685
969.0,0.004906
970.0,0.004418
971.0,0.005181
972.0,0.004891
973.0,0.004128
974.0,0.003873
975.0,0.00403
976.0,0.003772
977.0,0.004394
978.0,0.004112
979.0,0.004336
980.0,0.004011
981.0,0.004957
982.0,0.004678
983.0,0.004443
984.0,0.005097
985.0,0.00461
986.0,0.005173
987.0,0.005028
988.0,0.004997
989.0,0.005114
990.0,0.004933
991.0,0.005082
992.0,0.005094
993.0,0.004939
994.0,0.00506
995.0,0.005038
996.0,0.004992
997.0,0.004983
998.0,0.00494
999.0,0.004905
1000.0,0.004846
1001.0,0.004896
1002.0,0.004716
1003.0,0.004771
1004.0,0.004628
1005.0,0.004451
1006.0,0.004601
1007.0,0.004683
1008.0,0.004636
1009.0,0.004589
1010.0,0.004549
1011.0,0.004591
1012.0,0.004528
1013.0,0.004547
1014.0,0.004499
1015.0,0.004452
1016.0,0.004413
1017.0,0.004406
1018.0,0.004376
1019.0,0.004256
1020.0,0.004317
1021.0,0.004296
1022.0,0.004243
1023.0,0.004271
1024.0,0.004191
1025.0,0.004241
1026.0,0.004204
1027.0,0.004178
1028.0,0.004154
1029.0,0.004089
1030.0,0.004105
1031.0,0.004072
1032.0,0.004045
1033.0,0.003969
1034.0,0.003954
1035.0,0.003951
1036.0,0.003955
1037.0,0.003876
1038.0,0.003879
1039.0,0.003863
1040.0,0.003833
1041.0,0.003833
1042.0,0.003791
1043.0,0.003765
1044.0,0.003765
1045.0,0.003699
1046.0,0.003644
1047.0,0.003662
1048.0,0.003669
1049.0,0.003642
1050.0,0.003611
1051.0,0.003592
1052.0,0.003563
1053.0,0.003522
1054.0,0.003516
1055.0,0.003504
1056.0,0.003477
1057.0,0.003452
1058.0,0.003355
1059.0,0.003345
1060.0,0.003327
1061.0,0.00331
1062.0,0.003314
1063.0,0.003269
1064.0,0.003297
1065.0,0.003258
1066.0,0.003184
1067.0,0.003212
1068.0,0.003128
1069.0,0.003022
1070.0,0.00311
1071.0,0.003154
1072.0,0.003101
1073.0,0.003047
1074.0,0.003123
1075.0,0.002934
1076.0,0.003096
1077.0,0.003017
1078.0,0.002945
1079.0,0.003017
1080.0,0.002933
1081.0,0.002825
1082.0,0.002878
1083.0,0.00288
1084.0,0.002778
1085.0,0.002894
1086.0,0.002586
1087.0,0.002697
1088.0,0.00282
1089.0,0.002704
1090.0,0.002614
1091.0,0.002774
1092.0,0.002761
1093.0,0.002265
1094.0,0.002502
1095.0,0.00236
1096.0,0.002231
1097.0,0.002653
1098.0,0.002177
1099.0,0.002273
1100.0,0.002071
1101.0,0.0021
1102.0,0.001984
1103.0,0.001946
1104.0,0.001944
1105.0,0.002166
1106.0,0.00156
1107.0,0.002023
1108.0,0.00165
1109.0,0.00165
1110.0,0.001978
1111.0,0.001243
1112.0,0.001622
1113.0,0.000948
1114.0,0.001072
1115.0,0.0008638
1116.0,0.0006602
1117.0,0.0002129
1118.0,0.0007236
1119.0,0.0003265
1120.0,0.0004181
1121.0,0.0005732
1122.0,0.0002169
1123.0,0.0003701
1124.0,0.0003066
1125.0,0.0004112
1126.0,0.0001268
1127.0,0.0004659
1128.0,0.0002595
1129.0,0.0002768
1130.0,0.0001739
1131.0,0.0009585
1132.0,0.0007226
1133.0,0.0004262
1134.0,9.446e-05
1135.0,3.397e-05
1136.0,0.0003426
1137.0,0.0009183
1138.0,0.0006156
1139.0,0.0009814
1140.0,0.0007913
1141.0,0.0005757
1142.0,0.0006743
1143.0,0.001007
1144.0,0.0003032
1145.0,0.0003931
1146.0,0.0004254
1147.0,0.0001325
1148.0,0.0008394
1149.0,0.0006439
1150.0,0.0003222
1151.0,0.0005834
1152.0,0.000741
1153.0,0.0007211
1154.0,0.0003677
1155.0,0.0009759
1156.0,0.0008598
1157.0,0.0009828
1158.0,0.0009676
1159.0,0.00106
1160.0,0.0008773
1161.0,0.001123
1162.0,0.00112
1163.0,0.001598
1164.0,0.001329
1165.0,0.001232
1166.0,0.001223
1167.0,0.001347
1168.0,0.001358
1169.0,0.001398
1170.0,0.001534
1171.0,0.001482
1172.0,0.001511
1173.0,0.001514
1174.0,0.001013
1175.0,0.001472
1176.0,0.001639
1177.0,0.001554
1178.0,0.001106
1179.0,0.001637
1180.0,0.001422
1181.0,0.001472
1182.0,0.0009499
1183.0,0.001447
1184.0,0.001328
1185.0,0.001266
1186.0,0.001546
1187.0,0.001454
1188.0,0.000953
1189.0,0.001338
1190.0,0.001488
1191.0,0.001391
1192.0,0.001502
1193.0,0.001424
1194.0,0.001472
1195.0,0.001376
1196.0,0.001311
1197.0,0.00147
1198.0,0.001322
1199.0,0.00109
1200.0,0.001379
1201.0,0.001316
1202.0,0.001305
1203.0,0.001298
1204.0,0.0011
1205.0,0.001333
1206.0,0.001496
1207.0,0.001285
1208.0,0.00127
1209.0,0.001292
1210.0,0.001352
1211.0,0.00127
1212.0,0.001245
1213.0,0.001411
1214.0,0.001273
1215.0,0.00124
1216.0,0.001393
1217.0,0.001345
1218.0,0.001372
1219.0,0.001349
1220.0,0.001365
1221.0,0.001378
1222.0,0.001332
1223.0,0.001314
1224.0,0.001299
1225.0,0.001352
1226.0,0.001359
1227.0,0.001235
1228.0,0.00136
1229.0,0.001347
1230.0,0.001317
1231.0,0.001358
1232.0,0.001345
1233.0,0.001285
1234.0,0.001346
1235.0,0.001331
1236.0,0.001338
1237.0,0.001311
1238.0,0.001325
1239.0,0.001304
1240.0,0.001305
1241.0,0.001292
1242.0,0.001287
1243.0,0.001272
1244.0,0.001276
1245.0,0.001278
1246.0,0.001266
1247.0,0.001257
1248.0,0.001251
1249.0,0.001252
1250.0,0.001239
1251.0,0.001218
1252.0,0.001216
1253.0,0.001199
1254.0,0.001181
1255.0,0.001203
1256.0,0.001159
1257.0,0.001148
1258.0,0.00117
1259.0,0.001116
1260.0,0.001119
1261.0,0.001042
1262.0,0.001003
1263.0,0.001001
1264.0,0.0009092
1265.0,0.0009896
1266.0,0.0009421
1267.0,0.0009608
1268.0,0.0009002
1269.0,0.0005114
1270.0,0.0009476
1271.0,0.001012
1272.0,0.001013
1273.0,0.0009983
1274.0,0.0009998
1275.0,0.001013
1276.0,0.001022
1277.0,0.001027
1278.0,0.001048
1279.0,0.001035
1280.0,0.001019
1281.0,0.0009712
1282.0,0.0009361
1283.0,0.001004
1284.0,0.001024
1285.0,0.001028
1286.0,0.001041
1287.0,0.001018
1288.0,0.001015
1289.0,0.0009738
1290.0,0.001001
1291.0,0.001012
1292.0,0.0009355
1293.0,0.0009829
1294.0,0.000972
1295.0,0.0009623
1296.0,0.0009075
1297.0,0.0008481
1298.0,0.0009236
1299.0,0.0009668
1300.0,0.0007904
1301.0,0.0008178
1302.0,0.0009104
1303.0,0.0007738
1304.0,0.0006384
1305.0,0.0008799
1306.0,0.0008772
1307.0,0.000649
1308.0,0.0007631
1309.0,0.0008616
1310.0,0.0006292
1311.0,0.0007201
1312.0,0.0006979
1313.0,0.0006785
1314.0,0.0005928
1315.0,0.0005845
1316.0,0.0006971
1317.0,0.0006516
1318.0,0.0007175
1319.0,0.0005336
1320.0,0.0005136
1321.0,0.0006126
1322.0,0.0006171
1323.0,0.0004406
1324.0,0.0005142
1325.0,0.0006665
1326.0,0.0005552
1327.0,0.0005235
1328.0,0.0004396
1329.0,0.0003146
1330.0,0.0004239
1331.0,0.0002362
1332.0,0.0002451
1333.0,0.0003552
1334.0,0.0002942
1335.0,0.0004235
1336.0,0.0003215
1337.0,0.0002782
1338.0,0.0003034
1339.0,0.0003019
1340.0,0.0002918
1341.0,0.0002817
1342.0,0.000297
1343.0,0.0001885
1344.0,0.000107
1345.0,0.0001596
1346.0,7.303e-05
1347.0,7.39e-05
1348.0,4.211e-06
1349.0,1.564e-05
1350.0,1.628e-05
1351.0,3.769e-06
1352.0,9.955e-07
1353.0,5.008e-08
1354.0,1.726e-07
1355.0,1.383e-09
1356.0,2.423e-08
1357.0,3.683e-08
1358.0,1.623e-09
1359.0,2.044e-10
1360.0,7.388e-10
1361.0,8.262e-13
1362.0,2.26e-15
1363.0,9.934e-10
1364.0,4.101e-10
