interpolation:linear
wavelength,value
280.0,4.686e-23
280.5,1.578e-21
281.0,8.553e-21
281.5,2.784e-19
282.0,4.918e-19
282.5,1.138e-18
283.0,3.502e-18
283.5,5.682e-18
284.0,9.292e-17
284.5,2.727e-16
285.0,7.329e-16
285.5,3.009e-15
286.0,1.174e-14
286.5,5.054e-14
287.0,1.426e-13
287.5,5.429e-13
288.0,1.712e-12
288.5,4.873e-12
289.0,1.256e-11
289.5,3.723e-11
290.0,1.027e-10
290.5,2.093e-10
291.0,4.5e-10
291.5,1.296e-09
292.0,2.659e-09
292.5,3.697e-09
293.0,7.845e-09
293.5,1.885e-08
294.0,2.938e-08
294.5,3.584e-08
295.0,6.023e-08
295.5,1.018e-07
296.0,1.906e-07
296.5,2.581e-07
297.0,3.393e-07
297.5,8.697e-07
298.0,1.314e-06
298.5,1.276e-06
299.0,2.714e-06
299.5,4.212e-06
300.0,4.448e-06
300.5,6.168e-06
301.0,1.036e-05
301.5,1.538e-05
302.0,1.266e-05
302.5,2.419e-05
303.0,4.192e-05
303.5,5.209e-05
304.0,4.962e-05
304.5,7.717e-05
305.0,0.000125
305.5,0.0001499
306.0,0.0001477
306.5,0.0001899
307.0,0.0003036
307.5,0.0004358
308.0,0.0004659
308.5,0.0005722
309.0,0.0006221
309.5,0.0008706
310.0,0.0009599
310.5,0.001628
311.0,0.002205
311.5,0.002199
312.0,0.002597
312.5,0.003529
313.0,0.004055
313.5,0.003726
314.0,0.005323
314.5,0.005641
315.0,0.007647
315.5,0.005857
316.0,0.005913
316.5,0.009629
317.0,0.01192
317.5,0.01195
318.0,0.01015
318.5,0.01488
319.0,0.0192
319.5,0.01364
320.0,0.01613
320.5,0.02394
321.0,0.02489
321.5,0.02421
322.0,0.02181
322.5,0.01911
323.0,0.0212
323.5,0.03075
324.0,0.03659
324.5,0.03523
325.0,0.02707
325.5,0.03801
326.0,0.051
326.5,0.05445
327.0,0.05292
327.5,0.04951
328.0,0.04031
328.5,0.04708
329.0,0.06118
329.5,0.07114
330.0,0.07024
330.5,0.05266
331.0,0.05243
331.5,0.05583
332.0,0.06454
332.5,0.06579
333.0,0.06436
333.5,0.0553
334.0,0.05611
334.5,0.06852
335.0,0.0665
335.5,0.07898
336.0,0.05459
336.5,0.0617
337.0,0.04934
337.5,0.06075
338.0,0.06215
338.5,0.07338
339.0,0.07274
339.5,0.06978
340.0,0.08011
340.5,0.07248
341.0,0.07196
341.5,0.06634
342.0,0.07932
342.5,0.07425
343.0,0.08129
343.5,0.07629
344.0,0.05526
344.5,0.05662
345.0,0.07527
345.5,0.07696
346.0,0.06546
346.5,0.07413
347.0,0.07925
347.5,0.06395
348.0,0.07308
348.5,0.07313
349.0,0.06783
349.5,0.06705
350.0,0.08287
350.5,0.0873
351.0,0.07775
351.5,0.07514
352.0,0.08083
352.5,0.06315
353.0,0.07957
353.5,0.08508
354.0,0.08829
354.5,0.08942
355.0,0.08895
355.5,0.0803
356.0,0.08397
356.5,0.07161
357.0,0.05909
357.5,0.07227
358.0,0.05722
358.5,0.04885
359.0,0.06821
359.5,0.08668
360.0,0.09181
360.5,0.07334
361.0,0.06681
361.5,0.07686
362.0,0.0664
362.5,0.0918
363.0,0.08235
363.5,0.07575
364.0,0.09253
364.5,0.07898
365.0,0.08032
365.5,0.1007
366.0,0.1065
366.5,0.09999
367.0,0.09726
367.5,0.1008
368.0,0.08808
368.5,0.08874
369.0,0.09571
369.5,0.1019
370.0,0.1085
370.5,0.08408
371.0,0.08972
371.5,0.1121
372.0,0.07429
372.5,0.08896
373.0,0.09036
373.5,0.0587
374.0,0.08518
374.5,0.07044
375.0,0.06838
375.5,0.1019
376.0,0.08438
376.5,0.08732
377.0,0.09231
377.5,0.1078
378.0,0.1167
378.5,0.1102
379.0,0.09076
379.5,0.08277
380.0,0.08592
380.5,0.1039
381.0,0.104
381.5,0.08228
382.0,0.07296
382.5,0.06209
383.0,0.0574
383.5,0.0552
384.0,0.06079
384.5,0.08928
385.0,0.0884
385.5,0.08219
386.0,0.07028
386.5,0.09217
387.0,0.07646
387.5,0.08574
388.0,0.07903
388.5,0.07799
389.0,0.08404
389.5,0.1016
390.0,0.1018
390.5,0.09354
391.0,0.1099
391.5,0.1119
392.0,0.0941
392.5,0.0841
393.0,0.04672
393.5,0.0339
394.0,0.06886
394.5,0.08741
395.0,0.1065
395.5,0.108
396.0,0.09344
396.5,0.05453
397.0,0.04085
397.5,0.08293
398.0,0.1159
398.5,0.1196
399.0,0.1293
399.5,0.1286
400.0,0.1333
401.0,0.1313
402.0,0.1379
403.0,0.1305
404.0,0.128
405.0,0.1275
406.0,0.125
407.0,0.1224
408.0,0.1266
409.0,0.135
410.0,0.1175
411.0,0.1267
412.0,0.1356
413.0,0.1317
414.0,0.1328
415.0,0.1325
416.0,0.1342
417.0,0.1303
418.0,0.1274
419.0,0.1285
420.0,0.1274
421.0,0.1326
422.0,0.1255
423.0,0.1219
424.0,0.1283
425.0,0.1274
426.0,0.1235
427.0,0.1207
428.0,0.1171
429.0,0.1105
430.0,0.09627
431.0,0.09492
432.0,0.1219
433.0,0.1219
434.0,0.1127
435.0,0.1172
436.0,0.1314
437.0,0.129
438.0,0.1168
439.0,0.1201
440.0,0.1232
441.0,0.1269
442.0,0.1353
443.0,0.131
444.0,0.1333
445.0,0.1299
446.0,0.1235
447.0,0.133
448.0,0.1342
449.0,0.1339
450.0,0.1368
451.0,0.1411
452.0,0.1353
453.0,0.1267
454.0,0.1316
455.0,0.1316
456.0,0.1339
457.0,0.1351
458.0,0.1295
459.0,0.1278
460.0,0.1272
461.0,0.1292
462.0,0.1296
463.0,0.1282
464.0,0.1257
465.0,0.1237
466.0,0.1244
467.0,0.1214
468.0,0.1219
469.0,0.1217
470.0,0.1171
471.0,0.1163
472.0,0.1219
473.0,0.1197
474.0,0.1191
475.0,0.1193
476.0,0.1147
477.0,0.114
478.0,0.1161
479.0,0.1143
480.0,0.1135
481.0,0.1146
482.0,0.1144
483.0,0.1125
484.0,0.1097
485.0,0.1043
486.0,0.09086
487.0,0.09482
488.0,0.1034
489.0,0.103
490.0,0.1076
491.0,0.105
492.0,0.09857
493.0,0.1012
494.0,0.1016
495.0,0.1019
496.0,0.1018
497.0,0.1026
498.0,0.09686
499.0,0.0971
500.0,0.09329
501.0,0.0906
502.0,0.08831
503.0,0.09092
504.0,0.08768
505.0,0.09025
506.0,0.09262
507.0,0.08773
508.0,0.08471
509.0,0.08681
510.0,0.08604
511.0,0.08792
512.0,0.08829
513.0,0.08294
514.0,0.08173
515.0,0.08028
516.0,0.07947
517.0,0.07009
518.0,0.07316
519.0,0.07616
520.0,0.0783
521.0,0.07837
522.0,0.07773
523.0,0.07571
524.0,0.07762
525.0,0.0777
526.0,0.07348
527.0,0.06847
528.0,0.07163
529.0,0.07477
530.0,0.07302
531.0,0.07342
532.0,0.07031
533.0,0.06776
534.0,0.06933
535.0,0.07045
536.0,0.07071
537.0,0.06753
538.0,0.06828
539.0,0.06725
540.0,0.06399
541.0,0.06386
542.0,0.06527
543.0,0.06406
544.0,0.06465
545.0,0.064
546.0,0.06377
547.0,0.06329
548.0,0.06211
549.0,0.06188
550.0,0.06218
551.0,0.06099
552.0,0.06097
553.0,0.05944
554.0,0.0604
555.0,0.06004
556.0,0.05877
557.0,0.05644
558.0,0.05546
559.0,0.05388
560.0,0.05401
561.0,0.05417
562.0,0.05323
563.0,0.05415
564.0,0.05221
565.0,0.05132
566.0,0.05015
567.0,0.05065
568.0,0.04973
569.0,0.04806
570.0,0.04769
571.0,0.04705
572.0,0.04773
573.0,0.0479
574.0,0.04745
575.0,0.04629
576.0,0.04564
577.0,0.04594
578.0,0.04509
579.0,0.04515
580.0,0.04591
581.0,0.04602
582.0,0.04676
583.0,0.04672
584.0,0.04696
585.0,0.04561
586.0,0.04443
587.0,0.04511
588.0,0.04363
589.0,0.03816
590.0,0.03968
591.0,0.04186
592.0,0.04093
593.0,0.04131
594.0,0.04061
595.0,0.03916
596.0,0.04058
597.0,0.03974
598.0,0.03934
599.0,0.03907
600.0,0.03888
601.0,0.03834
602.0,0.03786
603.0,0.0383
604.0,0.03877
605.0,0.03843
606.0,0.03817
607.0,0.03847
608.0,0.03797
609.0,0.03796
610.0,0.03763
611.0,0.03776
612.0,0.03759
613.0,0.03704
614.0,0.03646
615.0,0.03718
616.0,0.03587
617.0,0.03571
618.0,0.03699
619.0,0.03651
620.0,0.03661
621.0,0.0365
622.0,0.03593
623.0,0.03523
624.0,0.0345
625.0,0.0343
626.0,0.03469
627.0,0.0349
628.0,0.03189
629.0,0.03362
630.0,0.03271
631.0,0.03353
632.0,0.03306
633.0,0.03405
634.0,0.03369
635.0,0.03414
636.0,0.03362
637.0,0.0341
638.0,0.03438
639.0,0.03392
640.0,0.03352
641.0,0.03342
642.0,0.0332
643.0,0.03356
644.0,0.03338
645.0,0.0333
646.0,0.03233
647.0,0.03168
648.0,0.03161
649.0,0.03086
650.0,0.0311
651.0,0.03237
652.0,0.0307
653.0,0.03172
654.0,0.03127
655.0,0.02989
656.0,0.02647
657.0,0.0271
658.0,0.03034
659.0,0.03048
660.0,0.03051
661.0,0.03063
662.0,0.03055
663.0,0.02986
664.0,0.03016
665.0,0.03012
666.0,0.03006
667.0,0.02996
668.0,0.0299
669.0,0.03027
670.0,0.03004
671.0,0.02994
672.0,0.02961
673.0,0.02998
674.0,0.02977
675.0,0.0294
676.0,0.0295
677.0,0.02912
678.0,0.02911
679.0,0.02855
680.0,0.02867
681.0,0.02837
682.0,0.02821
683.0,0.02804
684.0,0.02778
685.0,0.02791
686.0,0.02763
687.0,0.01659
688.0,0.01991
689.0,0.01993
690.0,0.02107
691.0,0.02243
692.0,0.02347
693.0,0.02318
694.0,0.02295
695.0,0.02407
696.0,0.02402
697.0,0.02574
698.0,0.02524
699.0,0.02431
700.0,0.02391
701.0,0.02349
702.0,0.02364
703.0,0.02362
704.0,0.0244
705.0,0.02432
706.0,0.02425
707.0,0.02418
708.0,0.02412
709.0,0.02414
710.0,0.02398
711.0,0.02389
712.0,0.02378
713.0,0.02338
714.0,0.02337
715.0,0.02243
716.0,0.02233
717.0,0.01859
718.0,0.01692
719.0,0.01534
720.0,0.01598
721.0,0.01793
722.0,0.02092
723.0,0.01914
724.0,0.01689
725.0,0.0165
726.0,0.01726
727.0,0.01754
728.0,0.01625
729.0,0.01699
730.0,0.01788
731.0,0.01698
732.0,0.01834
733.0,0.01955
734.0,0.02
735.0,0.01946
736.0,0.01933
737.0,0.01932
738.0,0.01972
739.0,0.01925
740.0,0.01971
741.0,0.01945
742.0,0.01941
743.0,0.01981
744.0,0.01968
745.0,0.0196
746.0,0.0196
747.0,0.01955
748.0,0.01942
749.0,0.01911
750.0,0.01903
751.0,0.01877
752.0,0.01878
753.0,0.01881
754.0,0.01877
755.0,0.01859
756.0,0.01851
757.0,0.01846
758.0,0.01815
759.0,0.01757
760.0,0.002536
761.0,0.001348
762.0,0.007738
763.0,0.003789
764.0,0.005677
765.0,0.007627
766.0,0.009585
767.0,0.01254
768.0,0.01504
769.0,0.01546
770.0,0.01613
771.0,0.01628
772.0,0.01627
773.0,0.0163
774.0,0.01613
775.0,0.01593
776.0,0.01604
777.0,0.01575
778.0,0.01556
779.0,0.0155
780.0,0.01534
781.0,0.0153
782.0,0.01534
783.0,0.01502
784.0,0.01504
785.0,0.01486
786.0,0.01496
787.0,0.01456
788.0,0.01428
789.0,0.01422
790.0,0.01367
791.0,0.01384
792.0,0.0137
793.0,0.01341
794.0,0.01369
795.0,0.01383
796.0,0.01319
797.0,0.01314
798.0,0.01362
799.0,0.01345
800.0,0.01312
801.0,0.01298
802.0,0.01288
803.0,0.0127
804.0,0.01268
805.0,0.01262
806.0,0.01299
807.0,0.01275
808.0,0.0127
809.0,0.01234
810.0,0.01215
811.0,0.01205
812.0,0.01153
813.0,0.0112
814.0,0.009563
815.0,0.009471
816.0,0.008699
817.0,0.008832
818.0,0.008425
819.0,0.009575
820.0,0.008913
821.0,0.01072
822.0,0.01031
823.0,0.006545
824.0,0.009831
825.0,0.01037
826.0,0.009827
827.0,0.01045
828.0,0.008525
829.0,0.009677
830.0,0.009495
831.0,0.00949
832.0,0.009102
833.0,0.009806
834.0,0.009337
835.0,0.01044
836.0,0.009788
837.0,0.01038
838.0,0.009938
839.0,0.01013
840.0,0.01032
841.0,0.0101
842.0,0.01012
843.0,0.01012
844.0,0.009908
845.0,0.01023
846.0,0.01015
847.0,0.009927
848.0,0.009794
849.0,0.009467
850.0,0.009026
851.0,0.00948
852.0,0.009375
853.0,0.008998
854.0,0.007719
855.0,0.00847
856.0,0.009211
857.0,0.009398
858.0,0.009288
859.0,0.00927
860.0,0.009257
861.0,0.009171
862.0,0.009287
863.0,0.009475
864.0,0.00897
865.0,0.00886
866.0,0.007936
867.0,0.008251
868.0,0.008944
869.0,0.008725
870.0,0.008939
871.0,0.008781
872.0,0.008716
873.0,0.008663
874.0,0.008523
875.0,0.008313
876.0,0.008361
877.0,0.008412
878.0,0.008463
879.0,0.008298
880.0,0.008086
881.0,0.00792
882.0,0.008053
883.0,0.008056
884.0,0.007978
885.0,0.008
886.0,0.007557
887.0,0.007634
888.0,0.007697
889.0,0.007781
890.0,0.007643
891.0,0.00762
892.0,0.007325
893.0,0.007017
894.0,0.006641
895.0,0.006132
896.0,0.005694
897.0,0.004741
898.0,0.005215
899.0,0.003802
900.0,0.00537
901.0,0.003981
902.0,0.004799
903.0,0.004782
904.0,0.006316
905.0,0.006033
906.0,0.005577
907.0,0.004307
908.0,0.004419
909.0,0.004845
910.0,0.004142
911.0,0.004494
912.0,0.004687
913.0,0.004149
914.0,0.004116
915.0,0.004459
916.0,0.003708
917.0,0.004853
918.0,0.003772
919.0,0.004936
920.0,0.005056
921.0,0.005257
922.0,0.004573
923.0,0.005046
924.0,0.00463
925.0,0.004508
926.0,0.004532
927.0,0.005149
928.0,0.003509
929.0,0.00314
930.0,0.002374
931.0,0.002231
932.0,0.001548
933.0,0.001236
934.0,0.0006547
935.0,0.001263
936.0,0.0007674
937.0,0.000774
938.0,0.0009537
939.0,0.002086
940.0,0.002554
941.0,0.001859
942.0,0.00217
943.0,0.001376
944.0,0.00147
945.0,0.001892
946.0,0.0009149
947.0,0.001877
948.0,0.001358
949.0,0.002567
950.0,0.0006516
951.0,0.002509
952.0,0.001274
953.0,0.001676
954.0,0.002099
955.0,0.00169
956.0,0.001673
957.0,0.001251
958.0,0.002425
959.0,0.001847
960.0,0.002075
961.0,0.002374
962.0,0.002231
963.0,0.002624
964.0,0.002371
965.0,0.002588
966.0,0.00258
967.0,0.002549
968.0,0.003683
969.0,0.003807
970.0,0.003444
971.0,0.004075
972.0,0.003839
973.0,0.003198
974.0,0.003011
975.0,0.003143
976.0,0.002911
977.0,0.003452
978.0,0.003202
979.0,0.003379
980.0,0.003136
981.0,0.003899
982.0,0.003663
983.0,0.003474
984.0,0.004038
985.0,0.003603
986.0,0.00412
987.0,0.003986
988.0,0.003966
989.0,0.004086
990.0,0.003907
991.0,0.004051
992.0,0.004066
993.0,0.003923
994.0,0.004042
995.0,0.004031
996.0,0.003991
997.0,0.003987
998.0,0.003951
999.0,0.003925
1000.0,0.003872
1001.0,0.003918
1002.0,0.003747
1003.0,0.003817
1004.0,0.003696
1005.0,0.003565
1006.0,0.003681
1007.0,0.003749
1008.0,0.003706
1009.0,0.003664
1010.0,0.00363
1011.0,0.003675
1012.0,0.003621
1013.0,0.003642
1014.0,0.003603
1015.0,0.003564
1016.0,0.003533
1017.0,0.003527
1018.0,0.003506
1019.0,0.0034
1020.0,0.003458
1021.0,0.003443
1022.0,0.003396
1023.0,0.003419
1024.0,0.003345
1025.0,0.003397
1026.0,0.003365
1027.0,0.003346
1028.0,0.003325
1029.0,0.003272
1030.0,0.003288
1031.0,0.00326
1032.0,0.00324
1033.0,0.003179
1034.0,0.003167
1035.0,0.003165
1036.0,0.003167
1037.0,0.003105
1038.0,0.003106
1039.0,0.003092
1040.0,0.003068
1041.0,0.003067
1042.0,0.003034
1043.0,0.003012
1044.0,0.003011
1045.0,0.002957
1046.0,0.002912
1047.0,0.002926
1048.0,0.002931
1049.0,0.002909
1050.0,0.002883
1051.0,0.002867
1052.0,0.002843
1053.0,0.002809
1054.0,0.002803
1055.0,0.002792
1056.0,0.002769
1057.0,0.002748
1058.0,0.002669
1059.0,0.00266
1060.0,0.002645
1061.0,0.00263
1062.0,0.002632
1063.0,0.002595
1064.0,0.002617
1065.0,0.002583
1066.0,0.002527
1067.0,0.002549
1068.0,0.00248
1069.0,0.002398
1070.0,0.002466
1071.0,0.002508
1072.0,0.002461
1073.0,0.002419
1074.0,0.002487
1075.0,0.002323
1076.0,0.002465
1077.0,0.002394
1078.0,0.002332
1079.0,0.002406
1080.0,0.002329
1081.0,0.002233
1082.0,0.002288
1083.0,0.002294
1084.0,0.002194
1085.0,0.002297
1086.0,0.00204
1087.0,0.002133
1088.0,0.002245
1089.0,0.002135
1090.0,0.002063
1091.0,0.002205
1092.0,0.002197
1093.0,0.001774
1094.0,0.001986
1095.0,0.001842
1096.0,0.001737
1097.0,0.00211
1098.0,0.001687
1099.0,0.001764
1100.0,0.001604
1101.0,0.00163
1102.0,0.001533
1103.0,0.001499
1104.0,0.001499
1105.0,0.001679
1106.0,0.001188
1107.0,0.001565
1108.0,0.001265
1109.0,0.001267
1110.0,0.001521
1111.0,0.0009525
1112.0,0.001246
1113.0,0.0007317
1114.0,0.000819
1115.0,0.0006681
1116.0,0.000514
1117.0,0.0001779
1118.0,0.000559
1119.0,0.0002648
1120.0,0.000332
1121.0,0.0004443
1122.0,0.00018
1123.0,0.0002967
1124.0,0.000249
1125.0,0.0003266
1126.0,0.0001085
1127.0,0.0003667
1128.0,0.0002124
1129.0,0.0002251
1130.0,0.0001463
1131.0,0.0007176
1132.0,0.0005519
1133.0,0.0003357
1134.0,8.204e-05
1135.0,3.073e-05
1136.0,0.000274
1137.0,0.0006857
1138.0,0.000474
1139.0,0.0007452
1140.0,0.0006033
1141.0,0.0004457
1142.0,0.0005173
1143.0,0.0007556
1144.0,0.0002454
1145.0,0.0003103
1146.0,0.0003337
1147.0,0.0001126
1148.0,0.000636
1149.0,0.0004948
1150.0,0.0002607
1151.0,0.0004497
1152.0,0.0005636
1153.0,0.0005547
1154.0,0.0002922
1155.0,0.0007372
1156.0,0.0006517
1157.0,0.0007501
1158.0,0.0007386
1159.0,0.0008044
1160.0,0.000676
1161.0,0.0008634
1162.0,0.0008605
1163.0,0.001237
1164.0,0.001026
1165.0,0.0009441
1166.0,0.0009489
1167.0,0.001044
1168.0,0.001051
1169.0,0.00108
1170.0,0.001193
1171.0,0.001156
1172.0,0.001187
1173.0,0.001178
1174.0,0.0007866
1175.0,0.001156
1176.0,0.001302
1177.0,0.001222
1178.0,0.0008679
1179.0,0.001299
1180.0,0.001116
1181.0,0.001152
1182.0,0.0007415
1183.0,0.001135
1184.0,0.001039
1185.0,0.0009864
1186.0,0.001218
1187.0,0.001139
1188.0,0.000736
1189.0,0.001049
1190.0,0.001176
1191.0,0.001084
1192.0,0.001189
1193.0,0.001123
1194.0,0.001163
1195.0,0.001076
1196.0,0.001022
1197.0,0.001162
1198.0,0.001047
1199.0,0.0008473
1200.0,0.001086
1201.0,0.001028
1202.0,0.001031
1203.0,0.001014
1204.0,0.0008615
1205.0,0.001056
1206.0,0.00119
1207.0,0.001009
1208.0,0.001002
1209.0,0.00102
1210.0,0.001071
1211.0,0.001002
1212.0,0.0009659
1213.0,0.001114
1214.0,0.000991
1215.0,0.0009667
1216.0,0.001103
1217.0,0.001062
1218.0,0.001086
1219.0,0.001064
1220.0,0.001081
1221.0,0.001095
1222.0,0.001057
1223.0,0.00104
1224.0,0.001022
1225.0,0.001072
1226.0,0.001082
1227.0,0.0009715
1228.0,0.001084
1229.0,0.001072
1230.0,0.001046
1231.0,0.001086
1232.0,0.001076
1233.0,0.001018
1234.0,0.001079
1235.0,0.001066
1236.0,0.001073
1237.0,0.001048
1238.0,0.001062
1239.0,0.001045
1240.0,0.001047
1241.0,0.001033
1242.0,0.001032
1243.0,0.001021
1244.0,0.001023
1245.0,0.001025
1246.0,0.001016
1247.0,0.001007
1248.0,0.001001
1249.0,0.001003
1250.0,0.0009921
1251.0,0.0009731
1252.0,0.0009741
1253.0,0.0009561
1254.0,0.0009383
1255.0,0.0009621
1256.0,0.0009193
1257.0,0.0009088
1258.0,0.0009329
1259.0,0.0008774
1260.0,0.0008816
1261.0,0.0008083
1262.0,0.0007715
1263.0,0.0007702
1264.0,0.0006882
1265.0,0.000761
1266.0,0.0007175
1267.0,0.0007365
1268.0,0.0006829
1269.0,0.0003757
1270.0,0.000724
1271.0,0.0007854
1272.0,0.0007872
1273.0,0.0007741
1274.0,0.0007773
1275.0,0.0007898
1276.0,0.0007991
1277.0,0.0008073
1278.0,0.0008285
1279.0,0.0008187
1280.0,0.0008057
1281.0,0.0007706
1282.0,0.000747
1283.0,0.0008006
1284.0,0.000816
1285.0,0.00082
1286.0,0.0008322
1287.0,0.0008099
1288.0,0.0008095
1289.0,0.0007683
1290.0,0.0007978
1291.0,0.0008088
1292.0,0.0007349
1293.0,0.0007827
1294.0,0.0007737
1295.0,0.0007602
1296.0,0.0007107
1297.0,0.000661
1298.0,0.0007289
1299.0,0.0007709
1300.0,0.0006174
1301.0,0.0006394
1302.0,0.0007192
1303.0,0.0006054
1304.0,0.0004912
1305.0,0.0006951
1306.0,0.0006898
1307.0,0.0005035
1308.0,0.0005999
1309.0,0.0006737
1310.0,0.0004868
1311.0,0.0005637
1312.0,0.0005455
1313.0,0.0005259
1314.0,0.0004583
1315.0,0.0004489
1316.0,0.0005429
1317.0,0.000507
1318.0,0.0005614
1319.0,0.0004102
1320.0,0.0003979
1321.0,0.0004745
1322.0,0.0004742
1323.0,0.0003364
1324.0,0.0003968
1325.0,0.0005165
1326.0,0.0004283
1327.0,0.0004032
1328.0,0.0003386
1329.0,0.0002415
1330.0,0.0003222
1331.0,0.0001831
1332.0,0.00019
1333.0,0.0002677
1334.0,0.0002301
1335.0,0.0003216
1336.0,0.000246
1337.0,0.0002155
1338.0,0.0002326
1339.0,0.0002316
1340.0,0.0002263
1341.0,0.0002151
1342.0,0.0002264
1343.0,0.0001466
1344.0,8.727e-05
1345.0,0.0001256
1346.0,6.078e-05
1347.0,6.149e-05
