interpolation:linear
wavelength,value
280.0,2.4179999999999998e-22
280.5,7.967e-21
281.0,4.2740000000000006e-20
281.5,3.93e-19
282.0,6.364e-19
282.5,1.578e-18
283.0,4.994e-18
283.5,8.133e-18
284.0,1.342e-16
284.5,3.917e-16
285.0,6.419e-16
285.5,3.208e-15
286.0,1.294e-14
286.5,5.836e-14
287.0,1.676e-13
287.5,6.471e-13
288.0,2.261e-12
288.5,6.779e-12
289.0,1.796e-11
289.5,5.403e-11
290.0,1.497e-10
290.5,3.05e-10
291.0,6.544e-10
291.5,1.878e-09
292.0,3.772e-09
292.5,5.3e-09
293.0,1.139e-08
293.5,2.778e-08
294.0,4.35e-08
294.5,5.96e-08
295.0,1.011e-07
295.5,1.685e-07
296.0,3.273e-07
296.5,4.613e-07
297.0,6.282e-07
297.5,1.705e-06
298.0,2.717e-06
298.5,2.757e-06
299.0,6.137e-06
299.5,1.038e-05
300.0,1.154e-05
300.5,1.691e-05
301.0,3.121e-05
301.5,5.064e-05
302.0,4.369e-05
302.5,8.744e-05
303.0,0.0001625
303.5,0.0002107
304.0,0.0002047
304.5,0.0003353
305.0,0.0005823
305.5,0.0007287
306.0,0.0007297
306.5,0.0009633
307.0,0.001635
307.5,0.002485
308.0,0.00268
308.5,0.003385
309.0,0.003412
309.5,0.004319
310.0,0.00454
310.5,0.007514
311.0,0.009783
311.5,0.009585
312.0,0.0104
312.5,0.01335
313.0,0.01487
313.5,0.01403
314.0,0.01871
314.5,0.01811
315.0,0.02413
315.5,0.01928
316.0,0.01807
316.5,0.02759
317.0,0.03414
317.5,0.03482
318.0,0.02831
318.5,0.03815
319.0,0.04715
319.5,0.03579
320.0,0.04271
320.5,0.05816
321.0,0.05594
321.5,0.05395
322.0,0.05269
322.5,0.04593
323.0,0.04824
323.5,0.06225
324.0,0.07313
324.5,0.0725
325.0,0.06075
325.5,0.08159
326.0,0.1006
326.5,0.1035
327.0,0.1018
327.5,0.09679
328.0,0.08288
328.5,0.09089
329.0,0.1128
329.5,0.1293
330.0,0.1289
330.5,0.0999
331.0,0.1006
331.5,0.1042
332.0,0.116
332.5,0.1163
333.0,0.1146
333.5,0.101
334.0,0.1029
334.5,0.1217
335.0,0.116
335.5,0.1365
336.0,0.09422
336.5,0.1082
337.0,0.08748
337.5,0.1081
338.0,0.1078
338.5,0.1255
339.0,0.1238
339.5,0.1189
340.0,0.1381
340.5,0.1245
341.0,0.122
341.5,0.1117
342.0,0.1332
342.5,0.1243
343.0,0.1364
343.5,0.1282
344.0,0.09398
344.5,0.09536
345.0,0.1257
345.5,0.1281
346.0,0.1086
346.5,0.1227
347.0,0.1314
347.5,0.106
348.0,0.1205
348.5,0.1202
349.0,0.1113
349.5,0.1099
350.0,0.1357
350.5,0.1427
351.0,0.1272
351.5,0.1233
352.0,0.1321
352.5,0.1028
353.0,0.1292
353.5,0.1379
354.0,0.1428
354.5,0.1445
355.0,0.1436
355.5,0.1294
356.0,0.1351
356.5,0.1151
357.0,0.09485
357.5,0.1158
358.0,0.09157
358.5,0.07806
359.0,0.1089
359.5,0.1384
360.0,0.1463
360.5,0.1167
361.0,0.1061
361.5,0.1219
362.0,0.1051
362.5,0.1452
363.0,0.13
363.5,0.1195
364.0,0.1458
364.5,0.1243
365.0,0.1262
365.5,0.158
366.0,0.167
366.5,0.1565
367.0,0.152
367.5,0.1573
368.0,0.1373
368.5,0.1382
369.0,0.1489
369.5,0.1583
370.0,0.1683
370.5,0.1303
371.0,0.1388
371.5,0.1732
372.0,0.1147
372.5,0.1371
373.0,0.1391
373.5,0.09027
374.0,0.1308
374.5,0.1081
375.0,0.1048
375.5,0.156
376.0,0.1289
376.5,0.1333
377.0,0.1407
377.5,0.1642
378.0,0.1775
378.5,0.1673
379.0,0.1376
379.5,0.1254
380.0,0.13
380.5,0.157
381.0,0.1568
381.5,0.124
382.0,0.1098
382.5,0.09332
383.0,0.08615
383.5,0.08275
384.0,0.09102
384.5,0.1335
385.0,0.132
385.5,0.1226
386.0,0.1047
386.5,0.1372
387.0,0.1136
387.5,0.1273
388.0,0.1172
388.5,0.1155
389.0,0.1243
389.5,0.1501
390.0,0.1502
390.5,0.1378
391.0,0.1618
391.5,0.1645
392.0,0.1382
392.5,0.1233
393.0,0.06843
393.5,0.0496
394.0,0.1006
394.5,0.1276
395.0,0.1552
395.5,0.1572
396.0,0.1359
396.5,0.07922
397.0,0.05928
397.5,0.1202
398.0,0.1678
398.5,0.1729
399.0,0.1867
399.5,0.1856
400.0,0.1921
401.0,0.1889
402.0,0.198
403.0,0.187
404.0,0.183
405.0,0.1819
406.0,0.1778
407.0,0.1738
408.0,0.1795
409.0,0.1909
410.0,0.1658
411.0,0.1785
412.0,0.1906
413.0,0.1848
414.0,0.1859
415.0,0.1852
416.0,0.1872
417.0,0.1814
418.0,0.1769
419.0,0.1781
420.0,0.1762
421.0,0.1831
422.0,0.1728
423.0,0.1677
424.0,0.1761
425.0,0.1746
426.0,0.169
427.0,0.1648
428.0,0.1596
429.0,0.1503
430.0,0.1307
431.0,0.1286
432.0,0.1649
433.0,0.1647
434.0,0.1519
435.0,0.1577
436.0,0.1766
437.0,0.1731
438.0,0.1565
439.0,0.1607
440.0,0.1647
441.0,0.1694
442.0,0.1803
443.0,0.1745
444.0,0.1772
445.0,0.1723
446.0,0.1635
447.0,0.1756
448.0,0.1771
449.0,0.1765
450.0,0.1801
451.0,0.1855
452.0,0.1775
453.0,0.1659
454.0,0.1721
455.0,0.1719
456.0,0.1747
457.0,0.1762
458.0,0.1688
459.0,0.1665
460.0,0.1656
461.0,0.1681
462.0,0.1683
463.0,0.1662
464.0,0.1627
465.0,0.1598
466.0,0.1604
467.0,0.1563
468.0,0.1569
469.0,0.1564
470.0,0.1503
471.0,0.1492
472.0,0.1562
473.0,0.1532
474.0,0.1523
475.0,0.1523
476.0,0.1465
477.0,0.1456
478.0,0.1483
479.0,0.146
480.0,0.1449
481.0,0.1463
482.0,0.146
483.0,0.1433
484.0,0.1396
485.0,0.1323
486.0,0.1151
487.0,0.1199
488.0,0.1306
489.0,0.13
490.0,0.1358
491.0,0.1324
492.0,0.1241
493.0,0.1272
494.0,0.1276
495.0,0.1278
496.0,0.1276
497.0,0.1285
498.0,0.1213
499.0,0.1217
500.0,0.1169
501.0,0.1136
502.0,0.1108
503.0,0.1141
504.0,0.1101
505.0,0.1132
506.0,0.116
507.0,0.1097
508.0,0.1057
509.0,0.1081
510.0,0.1069
511.0,0.1091
512.0,0.1095
513.0,0.1029
514.0,0.1014
515.0,0.09959
516.0,0.09859
517.0,0.08695
518.0,0.09074
519.0,0.09445
520.0,0.0971
521.0,0.09721
522.0,0.09647
523.0,0.09399
524.0,0.09647
525.0,0.09669
526.0,0.09152
527.0,0.08538
528.0,0.08942
529.0,0.09342
530.0,0.09131
531.0,0.09188
532.0,0.08802
533.0,0.08483
534.0,0.08676
535.0,0.08811
536.0,0.08837
537.0,0.08435
538.0,0.08525
539.0,0.08396
540.0,0.07992
541.0,0.0798
542.0,0.0816
543.0,0.08011
544.0,0.0809
545.0,0.08011
546.0,0.07985
547.0,0.07924
548.0,0.07775
549.0,0.07746
550.0,0.07783
551.0,0.07634
552.0,0.07631
553.0,0.0744
554.0,0.07562
555.0,0.0752
556.0,0.07363
557.0,0.07075
558.0,0.06959
559.0,0.06767
560.0,0.0679
561.0,0.06817
562.0,0.06706
563.0,0.06828
564.0,0.06589
565.0,0.0648
566.0,0.06335
567.0,0.06402
568.0,0.06291
569.0,0.06085
570.0,0.0604
571.0,0.05961
572.0,0.06051
573.0,0.06074
574.0,0.06017
575.0,0.05869
576.0,0.05783
577.0,0.05815
578.0,0.05702
579.0,0.05702
580.0,0.0579
581.0,0.05796
582.0,0.05881
583.0,0.05871
584.0,0.05897
585.0,0.05723
586.0,0.05572
587.0,0.05655
588.0,0.05472
589.0,0.04793
590.0,0.04983
591.0,0.05254
592.0,0.05142
593.0,0.05189
594.0,0.05107
595.0,0.04933
596.0,0.05109
597.0,0.0501
598.0,0.04962
599.0,0.04931
600.0,0.04908
601.0,0.0484
602.0,0.04779
603.0,0.04832
604.0,0.04886
605.0,0.04839
606.0,0.04801
607.0,0.04832
608.0,0.04762
609.0,0.04753
610.0,0.04704
611.0,0.04714
612.0,0.04684
613.0,0.04609
614.0,0.0453
615.0,0.04613
616.0,0.04445
617.0,0.0442
618.0,0.04572
619.0,0.04508
620.0,0.04517
621.0,0.045
622.0,0.04425
623.0,0.04335
624.0,0.04242
625.0,0.04215
626.0,0.0426
627.0,0.04284
628.0,0.03929
629.0,0.04126
630.0,0.04011
631.0,0.04102
632.0,0.04039
633.0,0.04154
634.0,0.04104
635.0,0.04153
636.0,0.04085
637.0,0.04137
638.0,0.04165
639.0,0.04105
640.0,0.04051
641.0,0.04033
642.0,0.04002
643.0,0.04042
644.0,0.04015
645.0,0.04003
646.0,0.03885
647.0,0.03809
648.0,0.03794
649.0,0.03704
650.0,0.03723
651.0,0.03871
652.0,0.03673
653.0,0.03787
654.0,0.03731
655.0,0.03565
656.0,0.03153
657.0,0.03226
658.0,0.03607
659.0,0.0362
660.0,0.0362
661.0,0.0363
662.0,0.03619
663.0,0.03535
664.0,0.03567
665.0,0.03559
666.0,0.03548
667.0,0.03533
668.0,0.03523
669.0,0.03563
670.0,0.03532
671.0,0.03518
672.0,0.03477
673.0,0.03518
674.0,0.0349
675.0,0.03444
676.0,0.03454
677.0,0.03407
678.0,0.03404
679.0,0.03336
680.0,0.03348
681.0,0.03312
682.0,0.03292
683.0,0.03271
684.0,0.03239
685.0,0.03252
686.0,0.03218
687.0,0.0196
688.0,0.02353
689.0,0.02353
690.0,0.02483
691.0,0.02635
692.0,0.02747
693.0,0.0271
694.0,0.02675
695.0,0.02797
696.0,0.02789
697.0,0.02983
698.0,0.02923
699.0,0.02819
700.0,0.02771
701.0,0.02726
702.0,0.02741
703.0,0.02734
704.0,0.02821
705.0,0.02811
706.0,0.02801
707.0,0.02792
708.0,0.02785
709.0,0.02783
710.0,0.02766
711.0,0.02755
712.0,0.0274
713.0,0.02696
714.0,0.02693
715.0,0.02586
716.0,0.02575
717.0,0.02155
718.0,0.01955
719.0,0.0177
720.0,0.01847
721.0,0.02069
722.0,0.02411
723.0,0.02205
724.0,0.01947
725.0,0.01902
726.0,0.01991
727.0,0.02019
728.0,0.01871
729.0,0.01953
730.0,0.02061
731.0,0.01954
732.0,0.02107
733.0,0.02244
734.0,0.02294
735.0,0.02232
736.0,0.02219
737.0,0.02217
738.0,0.02257
739.0,0.02201
740.0,0.02253
741.0,0.02223
742.0,0.02217
743.0,0.02262
744.0,0.02245
745.0,0.02236
746.0,0.02236
747.0,0.0223
748.0,0.02215
749.0,0.02179
750.0,0.02168
751.0,0.02138
752.0,0.02138
753.0,0.0214
754.0,0.02135
755.0,0.02114
756.0,0.02104
757.0,0.02098
758.0,0.02062
759.0,0.02001
760.0,0.002745
761.0,0.001437
762.0,0.008868
763.0,0.004171
764.0,0.006392
765.0,0.008734
766.0,0.01108
767.0,0.01449
768.0,0.01723
769.0,0.01766
770.0,0.01834
771.0,0.01849
772.0,0.01846
773.0,0.01849
774.0,0.01831
775.0,0.01808
776.0,0.01821
777.0,0.01788
778.0,0.01767
779.0,0.0176
780.0,0.01742
781.0,0.01736
782.0,0.0174
783.0,0.01703
784.0,0.01704
785.0,0.01684
786.0,0.01695
787.0,0.01652
788.0,0.01621
789.0,0.01612
790.0,0.01553
791.0,0.01569
792.0,0.01551
793.0,0.01518
794.0,0.01547
795.0,0.01564
796.0,0.01496
797.0,0.01491
798.0,0.0154
799.0,0.01521
800.0,0.01484
801.0,0.0147
802.0,0.01459
803.0,0.0144
804.0,0.01436
805.0,0.01429
806.0,0.01468
807.0,0.01442
808.0,0.01437
809.0,0.01398
810.0,0.01376
811.0,0.01367
812.0,0.01312
813.0,0.01273
814.0,0.01089
815.0,0.01077
816.0,0.009887
817.0,0.01005
818.0,0.00959
819.0,0.0109
820.0,0.01013
821.0,0.01216
822.0,0.0117
823.0,0.007416
824.0,0.01117
825.0,0.01173
826.0,0.01113
827.0,0.01182
828.0,0.009672
829.0,0.01095
830.0,0.01073
831.0,0.01073
832.0,0.0103
833.0,0.01109
834.0,0.01056
835.0,0.01176
836.0,0.01108
837.0,0.0117
838.0,0.01123
839.0,0.01143
840.0,0.01165
841.0,0.0114
842.0,0.01141
843.0,0.0114
844.0,0.01116
845.0,0.01152
846.0,0.01143
847.0,0.01117
848.0,0.01103
849.0,0.01067
850.0,0.01017
851.0,0.0107
852.0,0.01058
853.0,0.01014
854.0,0.008707
855.0,0.009546
856.0,0.01038
857.0,0.01059
858.0,0.01047
859.0,0.01044
860.0,0.01042
861.0,0.01032
862.0,0.01045
863.0,0.01066
864.0,0.01008
865.0,0.009958
866.0,0.008919
867.0,0.00927
868.0,0.01005
869.0,0.0098
870.0,0.01004
871.0,0.009861
872.0,0.009786
873.0,0.009727
874.0,0.009568
875.0,0.009332
876.0,0.009386
877.0,0.009443
878.0,0.009501
879.0,0.009316
880.0,0.009078
881.0,0.008896
882.0,0.009049
883.0,0.009048
884.0,0.008963
885.0,0.008988
886.0,0.0085
887.0,0.008579
888.0,0.008654
889.0,0.008742
890.0,0.008597
891.0,0.008565
892.0,0.008247
893.0,0.007906
894.0,0.007504
895.0,0.00695
896.0,0.006444
897.0,0.005365
898.0,0.005914
899.0,0.004289
900.0,0.006082
901.0,0.004507
902.0,0.005443
903.0,0.005427
904.0,0.007142
905.0,0.00682
906.0,0.006306
907.0,0.00488
908.0,0.004997
909.0,0.00549
910.0,0.004688
911.0,0.005069
912.0,0.005309
913.0,0.004697
914.0,0.004653
915.0,0.005066
916.0,0.004184
917.0,0.005509
918.0,0.004266
919.0,0.005595
920.0,0.005699
921.0,0.005951
922.0,0.005174
923.0,0.005708
924.0,0.005257
925.0,0.005111
926.0,0.005152
927.0,0.005858
928.0,0.003987
929.0,0.003562
930.0,0.002679
931.0,0.002518
932.0,0.001725
933.0,0.001365
934.0,0.0007036
935.0,0.001399
936.0,0.0008342
937.0,0.0008411
938.0,0.001044
939.0,0.002355
940.0,0.002903
941.0,0.002095
942.0,0.00246
943.0,0.001534
944.0,0.001643
945.0,0.002132
946.0,0.001004
947.0,0.002114
948.0,0.001511
949.0,0.00292
950.0,0.000705
951.0,0.002859
952.0,0.001413
953.0,0.00188
954.0,0.002378
955.0,0.001898
956.0,0.001862
957.0,0.001386
958.0,0.002743
959.0,0.002076
960.0,0.002342
961.0,0.002686
962.0,0.002517
963.0,0.002971
964.0,0.002676
965.0,0.002936
966.0,0.002921
967.0,0.002888
968.0,0.004157
969.0,0.004324
970.0,0.003898
971.0,0.004603
972.0,0.00434
973.0,0.003627
974.0,0.003407
975.0,0.003557
976.0,0.003305
977.0,0.003894
978.0,0.003625
979.0,0.003828
980.0,0.003544
981.0,0.004404
982.0,0.004142
983.0,0.003929
984.0,0.004549
985.0,0.004079
986.0,0.00463
987.0,0.004483
988.0,0.004457
989.0,0.004585
990.0,0.004397
991.0,0.004551
992.0,0.004565
993.0,0.00441
994.0,0.004536
995.0,0.00452
996.0,0.004477
997.0,0.00447
998.0,0.004431
999.0,0.004401
1000.0,0.004344
1001.0,0.004393
1002.0,0.004216
1003.0,0.00428
1004.0,0.004148
1005.0,0.003995
1006.0,0.004127
1007.0,0.004202
1008.0,0.004157
1009.0,0.004112
1010.0,0.004075
1011.0,0.00412
1012.0,0.00406
1013.0,0.004081
1014.0,0.004038
1015.0,0.003995
1016.0,0.00396
1017.0,0.003953
1018.0,0.003928
1019.0,0.003815
1020.0,0.003874
1021.0,0.003857
1022.0,0.003807
1023.0,0.003832
1024.0,0.003754
1025.0,0.003806
1026.0,0.003772
1027.0,0.003749
1028.0,0.003727
1029.0,0.003668
1030.0,0.003684
1031.0,0.003653
1032.0,0.00363
1033.0,0.003562
1034.0,0.003549
1035.0,0.003546
1036.0,0.003549
1037.0,0.003479
1038.0,0.003481
1039.0,0.003466
1040.0,0.003439
1041.0,0.003438
1042.0,0.003401
1043.0,0.003377
1044.0,0.003376
1045.0,0.003317
1046.0,0.003266
1047.0,0.003283
1048.0,0.003288
1049.0,0.003264
1050.0,0.003236
1051.0,0.003218
1052.0,0.003192
1053.0,0.003154
1054.0,0.003148
1055.0,0.003136
1056.0,0.003111
1057.0,0.003088
1058.0,0.003
1059.0,0.002991
1060.0,0.002974
1061.0,0.002959
1062.0,0.002961
1063.0,0.00292
1064.0,0.002945
1065.0,0.002908
1066.0,0.002844
1067.0,0.002869
1068.0,0.002792
1069.0,0.002699
1070.0,0.002776
1071.0,0.00282
1072.0,0.002769
1073.0,0.002722
1074.0,0.002794
1075.0,0.002614
1076.0,0.00277
1077.0,0.002692
1078.0,0.002625
1079.0,0.002701
1080.0,0.002619
1081.0,0.002515
1082.0,0.002572
1083.0,0.002577
1084.0,0.002472
1085.0,0.002584
1086.0,0.002299
1087.0,0.002402
1088.0,0.002522
1089.0,0.002407
1090.0,0.002325
1091.0,0.002478
1092.0,0.002469
1093.0,0.002003
1094.0,0.002233
1095.0,0.002085
1096.0,0.001966
1097.0,0.002371
1098.0,0.001914
1099.0,0.002001
1100.0,0.001819
1101.0,0.001847
1102.0,0.001739
1103.0,0.001702
1104.0,0.001701
1105.0,0.001906
1106.0,0.001349
1107.0,0.001775
1108.0,0.001435
1109.0,0.001439
1110.0,0.001731
1111.0,0.001079
1112.0,0.001416
1113.0,0.0008219
1114.0,0.000925
1115.0,0.0007503
1116.0,0.0005714
1117.0,0.0001895
1118.0,0.0006248
1119.0,0.0002872
1120.0,0.0003622
1121.0,0.000491
1122.0,0.0001919
1123.0,0.0003228
1124.0,0.0002697
1125.0,0.0003572
1126.0,0.0001141
1127.0,0.0004028
1128.0,0.0002275
1129.0,0.0002419
1130.0,0.0001552
1131.0,0.0008129
1132.0,0.0006183
1133.0,0.0003672
1134.0,8.588e-05
1135.0,3.193e-05
1136.0,0.0002968
1137.0,0.000775
1138.0,0.0005287
1139.0,0.0008463
1140.0,0.0006801
1141.0,0.0004961
1142.0,0.0005798
1143.0,0.0008591
1144.0,0.0002669
1145.0,0.0003392
1146.0,0.0003655
1147.0,0.0001185
1148.0,0.0007199
1149.0,0.0005539
1150.0,0.0002841
1151.0,0.0005012
1152.0,0.000635
1153.0,0.0006244
1154.0,0.0003186
1155.0,0.0008388
1156.0,0.0007384
1157.0,0.0008499
1158.0,0.0008366
1159.0,0.0009165
1160.0,0.0007617
1161.0,0.0009788
1162.0,0.0009756
1163.0,0.001406
1164.0,0.001164
1165.0,0.001071
1166.0,0.001073
1167.0,0.001183
1168.0,0.00119
1169.0,0.001225
1170.0,0.001351
1171.0,0.001307
1172.0,0.001339
1173.0,0.001334
1174.0,0.000886
1175.0,0.001304
1176.0,0.001462
1177.0,0.001378
1178.0,0.0009754
1179.0,0.00146
1180.0,0.001259
1181.0,0.001302
1182.0,0.0008351
1183.0,0.001281
1184.0,0.001174
1185.0,0.001115
1186.0,0.001373
1187.0,0.001287
1188.0,0.0008327
1189.0,0.001185
1190.0,0.001324
1191.0,0.001227
1192.0,0.001338
1193.0,0.001265
1194.0,0.001309
1195.0,0.001216
1196.0,0.001156
1197.0,0.001309
1198.0,0.001177
1199.0,0.000958
1200.0,0.001224
1201.0,0.001162
1202.0,0.001159
1203.0,0.001147
1204.0,0.0009715
1205.0,0.001187
1206.0,0.001337
1207.0,0.001137
1208.0,0.001128
1209.0,0.001149
1210.0,0.001204
1211.0,0.001128
1212.0,0.001095
1213.0,0.001256
1214.0,0.001123
1215.0,0.001094
1216.0,0.001241
1217.0,0.001196
1218.0,0.001222
1219.0,0.001199
1220.0,0.001216
1221.0,0.001229
1222.0,0.001188
1223.0,0.00117
1224.0,0.001153
1225.0,0.001205
1226.0,0.001214
1227.0,0.001096
1228.0,0.001217
1229.0,0.001203
1230.0,0.001175
1231.0,0.001217
1232.0,0.001205
1233.0,0.001144
1234.0,0.001208
1235.0,0.001194
1236.0,0.0012
1237.0,0.001174
1238.0,0.001189
1239.0,0.001169
1240.0,0.001171
1241.0,0.001158
1242.0,0.001155
1243.0,0.001142
1244.0,0.001145
1245.0,0.001147
1246.0,0.001136
1247.0,0.001127
1248.0,0.001121
1249.0,0.001123
1250.0,0.001111
1251.0,0.001091
1252.0,0.001091
1253.0,0.001073
1254.0,0.001055
1255.0,0.001078
1256.0,0.001034
1257.0,0.001023
1258.0,0.001047
1259.0,0.0009912
1260.0,0.0009952
1261.0,0.000919
1262.0,0.0008801
1263.0,0.0008787
1264.0,0.0007899
1265.0,0.0008684
1266.0,0.0008218
1267.0,0.0008414
1268.0,0.0007833
1269.0,0.000428
1270.0,0.0008283
1271.0,0.0008924
1272.0,0.0008944
1273.0,0.0008802
1274.0,0.0008827
1275.0,0.0008959
1276.0,0.0009051
1277.0,0.000912
1278.0,0.0009337
1279.0,0.0009218
1280.0,0.0009077
1281.0,0.0008667
1282.0,0.0008379
1283.0,0.0008985
1284.0,0.000916
1285.0,0.00092
1286.0,0.0009326
1287.0,0.0009097
1288.0,0.0009082
1289.0,0.0008661
1290.0,0.0008951
1291.0,0.0009065
1292.0,0.0008296
1293.0,0.0008784
1294.0,0.0008684
1295.0,0.0008565
1296.0,0.0008033
1297.0,0.0007481
1298.0,0.0008214
1299.0,0.0008648
1300.0,0.0006972
1301.0,0.0007226
1302.0,0.0008098
1303.0,0.0006837
1304.0,0.0005567
1305.0,0.0007827
1306.0,0.0007787
1307.0,0.0005695
1308.0,0.0006765
1309.0,0.0007661
1310.0,0.0005514
1311.0,0.0006365
1312.0,0.0006155
1313.0,0.0005961
1314.0,0.0005196
1315.0,0.0005097
1316.0,0.0006141
1317.0,0.0005737
1318.0,0.0006344
1319.0,0.0004648
1320.0,0.0004501
1321.0,0.0005375
1322.0,0.0005388
1323.0,0.0003812
1324.0,0.0004488
1325.0,0.000586
1326.0,0.0004853
1327.0,0.000457
1328.0,0.0003832
1329.0,0.0002719
1330.0,0.000365
1331.0,0.0002035
1332.0,0.000212
1333.0,0.0003026
1334.0,0.0002572
1335.0,0.0003656
1336.0,0.0002773
1337.0,0.000241
1338.0,0.0002612
1339.0,0.0002604
1340.0,0.000254
1341.0,0.0002415
1342.0,0.0002546
1343.0,0.0001607
1344.0,9.437e-05
1345.0,0.0001374
1346.0,6.424e-05
1347.0,6.482e-05
1348.0,4.041e-06
1349.0,1.456e-05
1350.0,1.512e-05
1351.0,3.626e-06
1352.0,9.74e-07
1353.0,4.956e-08
1354.0,1.703e-07
1355.0,1.371e-09
1356.0,2.4e-08
1357.0,3.646e-08
