interpolation:linear
wavelength,value
280.0,2.0089999999999997e-22
280.5,6.637e-21
281.0,3.5640000000000005e-20
281.5,3.87e-19
282.0,6.079e-19
282.5,1.505e-18
283.0,4.761e-18
283.5,7.756e-18
284.0,1.281e-16
284.5,3.744e-16
285.0,6.14e-16
285.5,3.063e-15
286.0,1.236e-14
286.5,5.575e-14
287.0,1.602e-13
287.5,6.19e-13
288.0,2.183e-12
288.5,6.509e-12
289.0,1.719e-11
289.5,5.162e-11
290.0,1.429e-10
290.5,2.911e-10
291.0,6.244e-10
291.5,1.792e-09
292.0,3.593e-09
292.5,5.042e-09
293.0,1.082e-08
293.5,2.635e-08
294.0,4.124e-08
294.5,5.633e-08
295.0,9.548e-08
295.5,1.579e-07
296.0,3.056e-07
296.5,4.29e-07
297.0,5.821e-07
297.5,1.57e-06
298.0,2.486e-06
298.5,2.51e-06
299.0,5.554e-06
299.5,9.286e-06
300.0,1.025e-05
300.5,1.489e-05
301.0,2.706e-05
301.5,4.322e-05
302.0,3.696e-05
302.5,7.375e-05
303.0,0.0001365
303.5,0.0001764
304.0,0.0001713
304.5,0.00028
305.0,0.0004851
305.5,0.0006057
306.0,0.0006061
306.5,0.000799
307.0,0.001351
307.5,0.002044
308.0,0.002202
308.5,0.002775
309.0,0.002917
309.5,0.003736
310.0,0.003949
310.5,0.006554
311.0,0.008571
311.5,0.008413
312.0,0.00921
312.5,0.01189
313.0,0.0133
313.5,0.01251
314.0,0.0168
314.5,0.01641
315.0,0.0219
315.5,0.01743
316.0,0.01646
316.5,0.02528
317.0,0.03129
317.5,0.03185
318.0,0.02601
318.5,0.03533
319.0,0.04385
319.5,0.03308
320.0,0.03944
320.5,0.05416
321.0,0.05247
321.5,0.05064
322.0,0.04908
322.5,0.04281
323.0,0.0452
323.5,0.0587
324.0,0.06903
324.5,0.06828
325.0,0.057
325.5,0.07687
326.0,0.09509
326.5,0.09809
327.0,0.0964
327.5,0.09154
328.0,0.07809
328.5,0.08606
329.0,0.1072
329.5,0.123
330.0,0.1225
330.5,0.09473
331.0,0.09528
331.5,0.09894
332.0,0.1105
332.5,0.1109
333.0,0.1093
333.5,0.09612
334.0,0.09783
334.5,0.1161
335.0,0.1108
335.5,0.1304
336.0,0.09003
336.5,0.1033
337.0,0.08344
337.5,0.1031
338.0,0.103
338.5,0.12
339.0,0.1185
339.5,0.1138
340.0,0.1321
340.5,0.1191
341.0,0.1168
341.5,0.107
342.0,0.1276
342.5,0.1192
343.0,0.1307
343.5,0.1228
344.0,0.08999
344.5,0.09134
345.0,0.1205
345.5,0.1228
346.0,0.1042
346.5,0.1177
347.0,0.126
347.5,0.1017
348.0,0.1157
348.5,0.1155
349.0,0.1069
349.5,0.1056
350.0,0.1303
350.5,0.1371
351.0,0.1222
351.5,0.1184
352.0,0.1269
352.5,0.09884
353.0,0.1243
353.5,0.1326
354.0,0.1374
354.5,0.139
355.0,0.1382
355.5,0.1245
356.0,0.13
356.5,0.1108
357.0,0.09129
357.5,0.1115
358.0,0.08816
358.5,0.07516
359.0,0.1049
359.5,0.1332
360.0,0.1409
360.5,0.1124
361.0,0.1022
361.5,0.1174
362.0,0.1013
362.5,0.1399
363.0,0.1254
363.5,0.1152
364.0,0.1405
364.5,0.1198
365.0,0.1217
365.5,0.1524
366.0,0.1611
366.5,0.151
367.0,0.1467
367.5,0.1518
368.0,0.1325
368.5,0.1334
369.0,0.1437
369.5,0.1528
370.0,0.1625
370.5,0.1258
371.0,0.1341
371.5,0.1673
372.0,0.1108
372.5,0.1325
373.0,0.1344
373.5,0.08723
374.0,0.1264
374.5,0.1044
375.0,0.1013
375.5,0.1508
376.0,0.1247
376.5,0.1289
377.0,0.1361
377.5,0.1588
378.0,0.1717
378.5,0.1618
379.0,0.1332
379.5,0.1213
380.0,0.1258
380.5,0.1519
381.0,0.1518
381.5,0.12
382.0,0.1063
382.5,0.09037
383.0,0.08344
383.5,0.08015
384.0,0.08818
384.5,0.1293
385.0,0.1279
385.5,0.1188
386.0,0.1015
386.5,0.1329
387.0,0.1102
387.5,0.1234
388.0,0.1136
388.5,0.112
389.0,0.1205
389.5,0.1456
390.0,0.1457
390.5,0.1337
391.0,0.157
391.5,0.1596
392.0,0.1341
392.5,0.1197
393.0,0.06641
393.5,0.04814
394.0,0.0977
394.5,0.1239
395.0,0.1507
395.5,0.1527
396.0,0.132
396.5,0.07695
397.0,0.05758
397.5,0.1168
398.0,0.163
398.5,0.1681
399.0,0.1815
399.5,0.1804
400.0,0.1868
401.0,0.1836
402.0,0.1926
403.0,0.1818
404.0,0.178
405.0,0.1769
406.0,0.173
407.0,0.1692
408.0,0.1747
409.0,0.1859
410.0,0.1615
411.0,0.1739
412.0,0.1857
413.0,0.18
414.0,0.1811
415.0,0.1805
416.0,0.1825
417.0,0.1768
418.0,0.1725
419.0,0.1737
420.0,0.1718
421.0,0.1786
422.0,0.1686
423.0,0.1636
424.0,0.1719
425.0,0.1704
426.0,0.165
427.0,0.161
428.0,0.1559
429.0,0.1468
430.0,0.1277
431.0,0.1257
432.0,0.1611
433.0,0.1609
434.0,0.1485
435.0,0.1541
436.0,0.1726
437.0,0.1692
438.0,0.1531
439.0,0.1572
440.0,0.1611
441.0,0.1657
442.0,0.1764
443.0,0.1707
444.0,0.1734
445.0,0.1686
446.0,0.16
447.0,0.172
448.0,0.1734
449.0,0.1728
450.0,0.1764
451.0,0.1816
452.0,0.1739
453.0,0.1626
454.0,0.1687
455.0,0.1684
456.0,0.1712
457.0,0.1726
458.0,0.1654
459.0,0.1632
460.0,0.1623
461.0,0.1648
462.0,0.165
463.0,0.163
464.0,0.1595
465.0,0.1567
466.0,0.1573
467.0,0.1533
468.0,0.1539
469.0,0.1534
470.0,0.1475
471.0,0.1464
472.0,0.1533
473.0,0.1503
474.0,0.1494
475.0,0.1495
476.0,0.1438
477.0,0.1429
478.0,0.1455
479.0,0.1433
480.0,0.1423
481.0,0.1436
482.0,0.1433
483.0,0.1407
484.0,0.137
485.0,0.1299
486.0,0.113
487.0,0.1178
488.0,0.1283
489.0,0.1277
490.0,0.1334
491.0,0.1301
492.0,0.122
493.0,0.1251
494.0,0.1255
495.0,0.1256
496.0,0.1254
497.0,0.1263
498.0,0.1192
499.0,0.1196
500.0,0.1149
501.0,0.1116
502.0,0.1088
503.0,0.1121
504.0,0.1081
505.0,0.1112
506.0,0.114
507.0,0.1078
508.0,0.1039
509.0,0.1062
510.0,0.1051
511.0,0.1073
512.0,0.1077
513.0,0.1011
514.0,0.09963
515.0,0.09787
516.0,0.09688
517.0,0.08545
518.0,0.08917
519.0,0.09282
520.0,0.09542
521.0,0.09553
522.0,0.09479
523.0,0.09235
524.0,0.09478
525.0,0.09498
526.0,0.08989
527.0,0.08385
528.0,0.0878
529.0,0.09173
530.0,0.08964
531.0,0.09019
532.0,0.0864
533.0,0.08327
534.0,0.08517
535.0,0.0865
536.0,0.08676
537.0,0.08281
538.0,0.0837
539.0,0.08243
540.0,0.07846
541.0,0.07833
542.0,0.0801
543.0,0.07863
544.0,0.0794
545.0,0.07863
546.0,0.07837
547.0,0.07777
548.0,0.0763
549.0,0.07602
550.0,0.07638
551.0,0.07491
552.0,0.07489
553.0,0.07301
554.0,0.07421
555.0,0.07379
556.0,0.07225
557.0,0.06942
558.0,0.06827
559.0,0.06638
560.0,0.0666
561.0,0.06685
562.0,0.06576
563.0,0.06695
564.0,0.0646
565.0,0.06353
566.0,0.0621
567.0,0.06275
568.0,0.06166
569.0,0.05963
570.0,0.05919
571.0,0.05842
572.0,0.0593
573.0,0.05952
574.0,0.05896
575.0,0.0575
576.0,0.05666
577.0,0.05699
578.0,0.05589
579.0,0.05589
580.0,0.05676
581.0,0.05683
582.0,0.05767
583.0,0.05758
584.0,0.05783
585.0,0.05613
586.0,0.05465
587.0,0.05546
588.0,0.05366
589.0,0.04699
590.0,0.04887
591.0,0.05153
592.0,0.05042
593.0,0.05088
594.0,0.05007
595.0,0.04835
596.0,0.05008
597.0,0.04911
598.0,0.04864
599.0,0.04833
600.0,0.0481
601.0,0.04744
602.0,0.04684
603.0,0.04735
604.0,0.0479
605.0,0.04744
606.0,0.04707
607.0,0.04738
608.0,0.04669
609.0,0.04662
610.0,0.04615
611.0,0.04624
612.0,0.04596
613.0,0.04523
614.0,0.04446
615.0,0.04528
616.0,0.04364
617.0,0.04339
618.0,0.0449
619.0,0.04427
620.0,0.04436
621.0,0.0442
622.0,0.04346
623.0,0.04259
624.0,0.04167
625.0,0.04141
626.0,0.04185
627.0,0.04209
628.0,0.03859
629.0,0.04054
630.0,0.03941
631.0,0.04031
632.0,0.0397
633.0,0.04084
634.0,0.04035
635.0,0.04084
636.0,0.04017
637.0,0.0407
638.0,0.04097
639.0,0.04038
640.0,0.03986
641.0,0.03969
642.0,0.03939
643.0,0.03978
644.0,0.03953
645.0,0.0394
646.0,0.03825
647.0,0.03749
648.0,0.03735
649.0,0.03646
650.0,0.03667
651.0,0.03812
652.0,0.03617
653.0,0.03731
654.0,0.03675
655.0,0.03512
656.0,0.03107
657.0,0.03179
658.0,0.03555
659.0,0.03568
660.0,0.03568
661.0,0.03578
662.0,0.03567
663.0,0.03485
664.0,0.03517
665.0,0.03509
666.0,0.03498
667.0,0.03484
668.0,0.03474
669.0,0.03514
670.0,0.03484
671.0,0.03471
672.0,0.0343
673.0,0.03471
674.0,0.03444
675.0,0.03398
676.0,0.03408
677.0,0.03362
678.0,0.03359
679.0,0.03292
680.0,0.03305
681.0,0.03268
682.0,0.0325
683.0,0.03229
684.0,0.03197
685.0,0.0321
686.0,0.03177
687.0,0.01931
688.0,0.02318
689.0,0.02319
690.0,0.02448
691.0,0.02598
692.0,0.02711
693.0,0.02674
694.0,0.0264
695.0,0.02762
696.0,0.02754
697.0,0.02946
698.0,0.02887
699.0,0.02784
700.0,0.02737
701.0,0.02691
702.0,0.02707
703.0,0.027
704.0,0.02786
705.0,0.02777
706.0,0.02767
707.0,0.02759
708.0,0.02751
709.0,0.0275
710.0,0.02732
711.0,0.02722
712.0,0.02707
713.0,0.02664
714.0,0.0266
715.0,0.02555
716.0,0.02544
717.0,0.02127
718.0,0.01931
719.0,0.01748
720.0,0.01824
721.0,0.02044
722.0,0.02382
723.0,0.02179
724.0,0.01923
725.0,0.01878
726.0,0.01966
727.0,0.01995
728.0,0.01848
729.0,0.0193
730.0,0.02036
731.0,0.01931
732.0,0.02082
733.0,0.02218
734.0,0.02267
735.0,0.02206
736.0,0.02193
737.0,0.02191
738.0,0.02231
739.0,0.02176
740.0,0.02228
741.0,0.02198
742.0,0.02192
743.0,0.02237
744.0,0.0222
745.0,0.02211
746.0,0.02211
747.0,0.02206
748.0,0.0219
749.0,0.02155
750.0,0.02144
751.0,0.02114
752.0,0.02115
753.0,0.02116
754.0,0.02112
755.0,0.02091
756.0,0.02081
757.0,0.02075
758.0,0.0204
759.0,0.01979
760.0,0.002721
761.0,0.001428
762.0,0.008749
763.0,0.004127
764.0,0.006313
765.0,0.008618
766.0,0.01093
767.0,0.01431
768.0,0.01703
769.0,0.01746
770.0,0.01814
771.0,0.01829
772.0,0.01826
773.0,0.01829
774.0,0.01811
775.0,0.01789
776.0,0.01802
777.0,0.01769
778.0,0.01748
779.0,0.01741
780.0,0.01723
781.0,0.01717
782.0,0.01721
783.0,0.01685
784.0,0.01686
785.0,0.01666
786.0,0.01677
787.0,0.01634
788.0,0.01604
789.0,0.01595
790.0,0.01536
791.0,0.01552
792.0,0.01535
793.0,0.01502
794.0,0.01531
795.0,0.01548
796.0,0.0148
797.0,0.01475
798.0,0.01524
799.0,0.01505
800.0,0.01469
801.0,0.01454
802.0,0.01444
803.0,0.01424
804.0,0.01421
805.0,0.01414
806.0,0.01453
807.0,0.01427
808.0,0.01421
809.0,0.01383
810.0,0.01362
811.0,0.01352
812.0,0.01297
813.0,0.01259
814.0,0.01076
815.0,0.01065
816.0,0.009776
817.0,0.009936
818.0,0.009481
819.0,0.01078
820.0,0.01002
821.0,0.01202
822.0,0.01157
823.0,0.007333
824.0,0.01104
825.0,0.0116
826.0,0.01101
827.0,0.0117
828.0,0.009565
829.0,0.01083
830.0,0.01062
831.0,0.01062
832.0,0.01019
833.0,0.01098
834.0,0.01045
835.0,0.01164
836.0,0.01096
837.0,0.01158
838.0,0.01111
839.0,0.01131
840.0,0.01153
841.0,0.01128
842.0,0.0113
843.0,0.01128
844.0,0.01105
845.0,0.0114
846.0,0.01131
847.0,0.01106
848.0,0.01092
849.0,0.01056
850.0,0.01007
851.0,0.01058
852.0,0.01047
853.0,0.01004
854.0,0.008618
855.0,0.009449
856.0,0.01028
857.0,0.01048
858.0,0.01036
859.0,0.01033
860.0,0.01031
861.0,0.01021
862.0,0.01034
863.0,0.01055
864.0,0.009984
865.0,0.009859
866.0,0.00883
867.0,0.009178
868.0,0.009947
869.0,0.009702
870.0,0.009939
871.0,0.009763
872.0,0.009689
873.0,0.00963
874.0,0.009474
875.0,0.009239
876.0,0.009294
877.0,0.009349
878.0,0.009407
879.0,0.009224
880.0,0.008988
881.0,0.008807
882.0,0.008958
883.0,0.008958
884.0,0.008873
885.0,0.008899
886.0,0.008414
887.0,0.008493
888.0,0.008567
889.0,0.008654
890.0,0.00851
891.0,0.008479
892.0,0.008162
893.0,0.007824
894.0,0.007424
895.0,0.006873
896.0,0.006374
897.0,0.005305
898.0,0.005848
899.0,0.004242
900.0,0.006016
901.0,0.004456
902.0,0.005383
903.0,0.005366
904.0,0.007066
905.0,0.006747
906.0,0.006238
907.0,0.004825
908.0,0.004942
909.0,0.00543
910.0,0.004635
911.0,0.005014
912.0,0.00525
913.0,0.004644
914.0,0.004602
915.0,0.005007
916.0,0.004139
917.0,0.005447
918.0,0.004218
919.0,0.005533
920.0,0.005639
921.0,0.005886
922.0,0.005117
923.0,0.005646
924.0,0.005197
925.0,0.005054
926.0,0.005093
927.0,0.005791
928.0,0.00394
929.0,0.00352
930.0,0.002648
931.0,0.002489
932.0,0.001706
933.0,0.001351
934.0,0.000698
935.0,0.001385
936.0,0.0008269
937.0,0.0008337
938.0,0.001034
939.0,0.002328
940.0,0.002868
941.0,0.00207
942.0,0.002431
943.0,0.001517
944.0,0.001625
945.0,0.002108
946.0,0.0009946
947.0,0.002089
948.0,0.001495
949.0,0.002884
950.0,0.0006991
951.0,0.002823
952.0,0.001398
953.0,0.001859
954.0,0.002349
955.0,0.001877
956.0,0.001843
957.0,0.001372
958.0,0.002712
959.0,0.002053
960.0,0.002315
961.0,0.002655
962.0,0.002489
963.0,0.002937
964.0,0.002646
965.0,0.002902
966.0,0.002888
967.0,0.002854
968.0,0.004113
969.0,0.004275
970.0,0.003855
971.0,0.004554
972.0,0.004294
973.0,0.003586
974.0,0.003369
975.0,0.003518
976.0,0.003267
977.0,0.003852
978.0,0.003585
979.0,0.003786
980.0,0.003505
981.0,0.004357
982.0,0.004097
983.0,0.003886
984.0,0.004501
985.0,0.004034
986.0,0.004584
987.0,0.004437
988.0,0.004411
989.0,0.00454
990.0,0.004351
991.0,0.004505
992.0,0.004519
993.0,0.004365
994.0,0.004491
995.0,0.004475
996.0,0.004432
997.0,0.004426
998.0,0.004387
999.0,0.004357
1000.0,0.004301
1001.0,0.004349
1002.0,0.004173
1003.0,0.004238
1004.0,0.004107
1005.0,0.003956
1006.0,0.004086
1007.0,0.004161
1008.0,0.004116
1009.0,0.004071
1010.0,0.004034
1011.0,0.004079
1012.0,0.00402
1013.0,0.004041
1014.0,0.003998
1015.0,0.003955
1016.0,0.003921
1017.0,0.003914
1018.0,0.003889
1019.0,0.003777
1020.0,0.003836
1021.0,0.003819
1022.0,0.003769
1023.0,0.003794
1024.0,0.003716
1025.0,0.003769
1026.0,0.003735
1027.0,0.003712
1028.0,0.00369
1029.0,0.003632
1030.0,0.003648
1031.0,0.003617
1032.0,0.003595
1033.0,0.003526
1034.0,0.003514
1035.0,0.003511
1036.0,0.003514
1037.0,0.003444
1038.0,0.003447
1039.0,0.003431
1040.0,0.003404
1041.0,0.003404
1042.0,0.003367
1043.0,0.003344
1044.0,0.003342
1045.0,0.003283
1046.0,0.003234
1047.0,0.00325
1048.0,0.003255
1049.0,0.003231
1050.0,0.003203
1051.0,0.003185
1052.0,0.003159
1053.0,0.003122
1054.0,0.003116
1055.0,0.003104
1056.0,0.003079
1057.0,0.003057
1058.0,0.00297
1059.0,0.00296
1060.0,0.002944
1061.0,0.002928
1062.0,0.002931
1063.0,0.00289
1064.0,0.002915
1065.0,0.002878
1066.0,0.002815
1067.0,0.002839
1068.0,0.002763
1069.0,0.002671
1070.0,0.002748
1071.0,0.002791
1072.0,0.002741
1073.0,0.002694
1074.0,0.002766
1075.0,0.002587
1076.0,0.002742
1077.0,0.002665
1078.0,0.002598
1079.0,0.002674
1080.0,0.002592
1081.0,0.002489
1082.0,0.002546
1083.0,0.002551
1084.0,0.002446
1085.0,0.002557
1086.0,0.002274
1087.0,0.002377
1088.0,0.002496
1089.0,0.002382
1090.0,0.002301
1091.0,0.002453
1092.0,0.002444
1093.0,0.001982
1094.0,0.00221
1095.0,0.002062
1096.0,0.001945
1097.0,0.002347
1098.0,0.001893
1099.0,0.001979
1100.0,0.001798
1101.0,0.001826
1102.0,0.001719
1103.0,0.001683
1104.0,0.001681
1105.0,0.001885
1106.0,0.001333
1107.0,0.001755
1108.0,0.001418
1109.0,0.001422
1110.0,0.001711
1111.0,0.001066
1112.0,0.001399
1113.0,0.0008126
1114.0,0.000914
1115.0,0.0007418
1116.0,0.0005652
1117.0,0.0001882
1118.0,0.0006177
1119.0,0.0002846
1120.0,0.0003587
1121.0,0.0004856
1122.0,0.0001905
1123.0,0.0003198
1124.0,0.0002673
1125.0,0.0003537
1126.0,0.0001134
1127.0,0.0003986
1128.0,0.0002257
1129.0,0.0002398
1130.0,0.0001541
1131.0,0.0008025
1132.0,0.000611
1133.0,0.0003635
1134.0,8.544e-05
1135.0,3.18e-05
1136.0,0.000294
1137.0,0.0007651
1138.0,0.0005227
1139.0,0.0008359
1140.0,0.000672
1141.0,0.0004906
1142.0,0.000573
1143.0,0.0008482
1144.0,0.0002645
1145.0,0.0003358
1146.0,0.0003617
1147.0,0.0001178
1148.0,0.0007111
1149.0,0.0005475
1150.0,0.0002815
1151.0,0.0004955
1152.0,0.0006273
1153.0,0.0006171
1154.0,0.0003155
1155.0,0.0008284
1156.0,0.0007294
1157.0,0.0008398
1158.0,0.0008266
1159.0,0.0009053
1160.0,0.000753
1161.0,0.0009674
1162.0,0.0009642
1163.0,0.00139
1164.0,0.001151
1165.0,0.001059
1166.0,0.001061
1167.0,0.001169
1168.0,0.001176
1169.0,0.001211
1170.0,0.001336
1171.0,0.001293
1172.0,0.001325
1173.0,0.001319
1174.0,0.0008761
1175.0,0.00129
1176.0,0.001447
1177.0,0.001363
1178.0,0.000965
1179.0,0.001445
1180.0,0.001245
1181.0,0.001288
1182.0,0.0008259
1183.0,0.001268
1184.0,0.001161
1185.0,0.001103
1186.0,0.001359
1187.0,0.001273
1188.0,0.0008232
1189.0,0.001172
1190.0,0.00131
1191.0,0.001213
1192.0,0.001324
1193.0,0.001252
1194.0,0.001295
1195.0,0.001203
1196.0,0.001143
1197.0,0.001295
1198.0,0.001164
1199.0,0.0009473
1200.0,0.001211
1201.0,0.00115
1202.0,0.001147
1203.0,0.001134
1204.0,0.000961
1205.0,0.001174
1206.0,0.001323
1207.0,0.001125
1208.0,0.001116
1209.0,0.001137
1210.0,0.001192
1211.0,0.001116
1212.0,0.001083
1213.0,0.001243
1214.0,0.00111
1215.0,0.001082
1216.0,0.001228
1217.0,0.001183
1218.0,0.001209
1219.0,0.001187
1220.0,0.001204
1221.0,0.001217
1222.0,0.001176
1223.0,0.001158
1224.0,0.001141
1225.0,0.001193
1226.0,0.001202
1227.0,0.001084
1228.0,0.001204
1229.0,0.001191
1230.0,0.001163
1231.0,0.001205
1232.0,0.001193
1233.0,0.001132
1234.0,0.001196
1235.0,0.001182
1236.0,0.001189
1237.0,0.001162
1238.0,0.001177
1239.0,0.001158
1240.0,0.001159
1241.0,0.001146
1242.0,0.001143
1243.0,0.00113
1244.0,0.001133
1245.0,0.001135
1246.0,0.001125
1247.0,0.001116
1248.0,0.00111
1249.0,0.001112
1250.0,0.0011
1251.0,0.00108
1252.0,0.00108
1253.0,0.001062
1254.0,0.001044
1255.0,0.001067
1256.0,0.001024
1257.0,0.001013
1258.0,0.001036
1259.0,0.0009806
1260.0,0.0009846
1261.0,0.0009086
1262.0,0.0008698
1263.0,0.0008684
1264.0,0.0007801
1265.0,0.0008582
1266.0,0.0008118
1267.0,0.0008314
1268.0,0.0007736
1269.0,0.0004222
1270.0,0.0008183
1271.0,0.0008823
1272.0,0.0008843
1273.0,0.0008702
1274.0,0.0008728
1275.0,0.000886
1276.0,0.0008952
1277.0,0.0009022
1278.0,0.0009239
1279.0,0.0009122
1280.0,0.0008982
1281.0,0.0008578
1282.0,0.0008295
1283.0,0.0008894
1284.0,0.0009067
1285.0,0.0009108
1286.0,0.0009233
1287.0,0.0009004
1288.0,0.000899
1289.0,0.000857
1290.0,0.000886
1291.0,0.0008975
1292.0,0.0008207
1293.0,0.0008694
1294.0,0.0008596
1295.0,0.0008475
1296.0,0.0007945
1297.0,0.0007398
1298.0,0.0008127
1299.0,0.0008561
1300.0,0.0006896
1301.0,0.0007147
1302.0,0.0008013
1303.0,0.0006763
1304.0,0.0005503
1305.0,0.0007744
1306.0,0.0007704
1307.0,0.0005631
1308.0,0.0006692
1309.0,0.0007542
1310.0,0.0005451
1311.0,0.0006295
1312.0,0.0006087
1313.0,0.0005893
1314.0,0.0005136
1315.0,0.0005037
1316.0,0.0006072
1317.0,0.0005673
1318.0,0.0006274
1319.0,0.0004594
1320.0,0.000445
1321.0,0.0005314
1322.0,0.0005325
1323.0,0.0003767
1324.0,0.0004436
1325.0,0.0005793
1326.0,0.0004798
1327.0,0.0004517
1328.0,0.0003788
1329.0,0.0002687
1330.0,0.0003605
1331.0,0.0002013
1332.0,0.0002096
1333.0,0.0002989
1334.0,0.0002544
1335.0,0.0003611
1336.0,0.000274
1337.0,0.0002383
1338.0,0.0002581
1339.0,0.0002574
1340.0,0.0002511
1341.0,0.0002387
1342.0,0.0002515
1343.0,0.000159
1344.0,9.357e-05
1345.0,0.000136
1346.0,6.38e-05
1347.0,6.438e-05
1348.0,4.033e-06
1349.0,1.452e-05
1350.0,1.507e-05
1351.0,3.62e-06
1352.0,9.728e-07
1353.0,4.95e-08
1354.0,1.701e-07
1355.0,1.37e-09
1356.0,2.397e-08
