interpolation:linear
wavelength,value
280.0,2.917e-22
280.5,9.588e-21
281.0,5.1390000000000004e-20
281.5,4.066e-19
282.0,6.69e-19
282.5,1.66e-18
283.0,5.25e-18
283.5,8.548e-18
284.0,1.407e-16
284.5,4.105e-16
285.0,6.775e-16
285.5,3.383e-15
286.0,1.364e-14
286.5,6.145e-14
287.0,1.763e-13
287.5,6.799e-13
288.0,2.348e-12
288.5,7.077e-12
289.0,1.88e-11
289.5,5.667e-11
290.0,1.572e-10
290.5,3.203e-10
291.0,6.873e-10
291.5,1.973e-09
292.0,3.986e-09
292.5,5.605e-09
293.0,1.205e-08
293.5,2.943e-08
294.0,4.611e-08
294.5,6.318e-08
295.0,1.072e-07
295.5,1.809e-07
296.0,3.524e-07
296.5,4.983e-07
297.0,6.808e-07
297.5,1.858e-06
298.0,2.977e-06
298.5,3.036e-06
299.0,6.794e-06
299.5,1.162e-05
300.0,1.301e-05
300.5,1.922e-05
301.0,3.601e-05
301.5,5.937e-05
302.0,5.169e-05
302.5,0.0001034
303.0,0.0001921
303.5,0.0002488
304.0,0.0002414
304.5,0.0003941
305.0,0.0006811
305.5,0.0008495
306.0,0.0008494
306.5,0.001119
307.0,0.001889
307.5,0.002857
308.0,0.003077
308.5,0.003877
309.0,0.003965
309.5,0.004962
310.0,0.005189
310.5,0.008565
311.0,0.0111
311.5,0.01086
312.0,0.01167
312.5,0.0149
313.0,0.01655
313.5,0.01565
314.0,0.02074
314.5,0.01989
315.0,0.02646
315.5,0.02123
316.0,0.01976
316.5,0.02998
317.0,0.0371
317.5,0.03789
318.0,0.03067
318.5,0.04102
319.0,0.0505
319.5,0.03857
320.0,0.04606
320.5,0.06223
321.0,0.05944
321.5,0.05727
322.0,0.05634
322.5,0.04909
323.0,0.05131
323.5,0.06583
324.0,0.07726
324.5,0.07675
325.0,0.06453
325.5,0.08631
326.0,0.1062
326.5,0.1089
327.0,0.1072
327.5,0.1021
328.0,0.08771
328.5,0.09575
329.0,0.1184
329.5,0.1355
330.0,0.1352
330.5,0.1051
331.0,0.1059
331.5,0.1095
332.0,0.1215
332.5,0.1216
333.0,0.12
333.5,0.1059
334.0,0.1079
334.5,0.1274
335.0,0.1212
335.5,0.1425
336.0,0.09841
336.5,0.113
337.0,0.09149
337.5,0.1131
338.0,0.1125
338.5,0.1309
339.0,0.1292
339.5,0.124
340.0,0.1441
340.5,0.1299
341.0,0.1272
341.5,0.1164
342.0,0.1387
342.5,0.1295
343.0,0.1421
343.5,0.1335
344.0,0.09793
344.5,0.09934
345.0,0.1309
345.5,0.1333
346.0,0.113
346.5,0.1276
347.0,0.1367
347.5,0.1102
348.0,0.1253
348.5,0.125
349.0,0.1157
349.5,0.1142
350.0,0.1409
350.5,0.1483
351.0,0.1321
351.5,0.1281
352.0,0.1372
352.5,0.1068
353.0,0.1342
353.5,0.1431
354.0,0.1482
354.5,0.1499
355.0,0.149
355.5,0.1343
356.0,0.1401
356.5,0.1194
357.0,0.09835
357.5,0.1201
358.0,0.09493
358.5,0.08091
359.0,0.1129
359.5,0.1434
360.0,0.1516
360.5,0.1209
361.0,0.1099
361.5,0.1262
362.0,0.1089
362.5,0.1503
363.0,0.1346
363.5,0.1237
364.0,0.1509
364.5,0.1286
365.0,0.1306
365.5,0.1635
366.0,0.1728
366.5,0.1619
367.0,0.1572
367.5,0.1627
368.0,0.142
368.5,0.1429
369.0,0.1539
369.5,0.1636
370.0,0.1739
370.5,0.1346
371.0,0.1435
371.5,0.179
372.0,0.1185
372.5,0.1417
373.0,0.1437
373.5,0.09324
374.0,0.1351
374.5,0.1116
375.0,0.1082
375.5,0.161
376.0,0.1331
376.5,0.1376
377.0,0.1452
377.5,0.1694
378.0,0.1831
378.5,0.1726
379.0,0.142
379.5,0.1293
380.0,0.134
380.5,0.1619
381.0,0.1617
381.5,0.1278
382.0,0.1132
382.5,0.0962
383.0,0.08879
383.5,0.08528
384.0,0.0938
384.5,0.1376
385.0,0.136
385.5,0.1263
386.0,0.1079
386.5,0.1413
387.0,0.117
387.5,0.1311
388.0,0.1206
388.5,0.1189
389.0,0.128
389.5,0.1545
390.0,0.1546
390.5,0.1418
391.0,0.1665
391.5,0.1693
392.0,0.1421
392.5,0.1269
393.0,0.07038
393.5,0.05101
394.0,0.1035
394.5,0.1312
395.0,0.1596
395.5,0.1616
396.0,0.1397
396.5,0.08142
397.0,0.06092
397.5,0.1235
398.0,0.1724
398.5,0.1777
399.0,0.1918
399.5,0.1906
400.0,0.1973
401.0,0.194
402.0,0.2034
403.0,0.192
404.0,0.1879
405.0,0.1867
406.0,0.1825
407.0,0.1783
408.0,0.1841
409.0,0.1958
410.0,0.17
411.0,0.183
412.0,0.1954
413.0,0.1894
414.0,0.1905
415.0,0.1897
416.0,0.1918
417.0,0.1858
418.0,0.1812
419.0,0.1824
420.0,0.1804
421.0,0.1874
422.0,0.1769
423.0,0.1716
424.0,0.1802
425.0,0.1786
426.0,0.1729
427.0,0.1686
428.0,0.1632
429.0,0.1536
430.0,0.1336
431.0,0.1315
432.0,0.1685
433.0,0.1683
434.0,0.1552
435.0,0.1611
436.0,0.1803
437.0,0.1768
438.0,0.1599
439.0,0.1641
440.0,0.1681
441.0,0.1729
442.0,0.1841
443.0,0.1781
444.0,0.1808
445.0,0.1758
446.0,0.1668
447.0,0.1792
448.0,0.1806
449.0,0.18
450.0,0.1837
451.0,0.1891
452.0,0.181
453.0,0.1692
454.0,0.1755
455.0,0.1752
456.0,0.178
457.0,0.1795
458.0,0.172
459.0,0.1697
460.0,0.1687
461.0,0.1713
462.0,0.1715
463.0,0.1694
464.0,0.1657
465.0,0.1628
466.0,0.1633
467.0,0.1592
468.0,0.1597
469.0,0.1592
470.0,0.1531
471.0,0.1519
472.0,0.159
473.0,0.1559
474.0,0.155
475.0,0.155
476.0,0.1491
477.0,0.1482
478.0,0.1509
479.0,0.1486
480.0,0.1475
481.0,0.1489
482.0,0.1486
483.0,0.1458
484.0,0.142
485.0,0.1346
486.0,0.1171
487.0,0.1219
488.0,0.1328
489.0,0.1322
490.0,0.138
491.0,0.1346
492.0,0.1261
493.0,0.1293
494.0,0.1297
495.0,0.1299
496.0,0.1297
497.0,0.1306
498.0,0.1233
499.0,0.1237
500.0,0.1189
501.0,0.1155
502.0,0.1127
503.0,0.1161
504.0,0.112
505.0,0.1151
506.0,0.118
507.0,0.1116
508.0,0.1075
509.0,0.1099
510.0,0.1087
511.0,0.111
512.0,0.1114
513.0,0.1046
514.0,0.1031
515.0,0.1013
516.0,0.1002
517.0,0.08841
518.0,0.09226
519.0,0.09604
520.0,0.09873
521.0,0.09885
522.0,0.0981
523.0,0.09558
524.0,0.09812
525.0,0.09835
526.0,0.09311
527.0,0.08687
528.0,0.09099
529.0,0.09507
530.0,0.09293
531.0,0.09352
532.0,0.0896
533.0,0.08635
534.0,0.08831
535.0,0.08969
536.0,0.08995
537.0,0.08584
538.0,0.08676
539.0,0.08546
540.0,0.08135
541.0,0.08122
542.0,0.08306
543.0,0.08155
544.0,0.08236
545.0,0.08156
546.0,0.0813
547.0,0.08068
548.0,0.07916
549.0,0.07886
550.0,0.07924
551.0,0.07772
552.0,0.0777
553.0,0.07575
554.0,0.077
555.0,0.07657
556.0,0.07498
557.0,0.07205
558.0,0.07088
559.0,0.06893
560.0,0.06918
561.0,0.06945
562.0,0.06833
563.0,0.06958
564.0,0.06715
565.0,0.06605
566.0,0.06457
567.0,0.06526
568.0,0.06413
569.0,0.06204
570.0,0.06159
571.0,0.06078
572.0,0.06171
573.0,0.06194
574.0,0.06136
575.0,0.05985
576.0,0.05897
577.0,0.0593
578.0,0.05814
579.0,0.05813
580.0,0.05902
581.0,0.05908
582.0,0.05993
583.0,0.05983
584.0,0.06008
585.0,0.05831
586.0,0.05676
587.0,0.05761
588.0,0.05575
589.0,0.04884
590.0,0.05079
591.0,0.05354
592.0,0.0524
593.0,0.05288
594.0,0.05205
595.0,0.05028
596.0,0.05208
597.0,0.05108
598.0,0.05059
599.0,0.05027
600.0,0.05004
601.0,0.04935
602.0,0.04872
603.0,0.04926
604.0,0.04982
605.0,0.04933
606.0,0.04894
607.0,0.04925
608.0,0.04852
609.0,0.04843
610.0,0.04792
611.0,0.04801
612.0,0.04771
613.0,0.04693
614.0,0.04612
615.0,0.04696
616.0,0.04525
617.0,0.04498
618.0,0.04653
619.0,0.04588
620.0,0.04596
621.0,0.04578
622.0,0.04502
623.0,0.04411
624.0,0.04315
625.0,0.04288
626.0,0.04333
627.0,0.04358
628.0,0.03998
629.0,0.04197
630.0,0.0408
631.0,0.04171
632.0,0.04107
633.0,0.04223
634.0,0.04171
635.0,0.04221
636.0,0.04151
637.0,0.04204
638.0,0.04232
639.0,0.04169
640.0,0.04114
641.0,0.04096
642.0,0.04064
643.0,0.04104
644.0,0.04077
645.0,0.04063
646.0,0.03944
647.0,0.03867
648.0,0.03852
649.0,0.0376
650.0,0.03779
651.0,0.03928
652.0,0.03727
653.0,0.03843
654.0,0.03785
655.0,0.03617
656.0,0.03199
657.0,0.03273
658.0,0.03659
659.0,0.03672
660.0,0.03671
661.0,0.03681
662.0,0.0367
663.0,0.03584
664.0,0.03617
665.0,0.03607
666.0,0.03596
667.0,0.03581
668.0,0.0357
669.0,0.03611
670.0,0.03579
671.0,0.03565
672.0,0.03523
673.0,0.03565
674.0,0.03536
675.0,0.03489
676.0,0.03498
677.0,0.03451
678.0,0.03448
679.0,0.03378
680.0,0.03391
681.0,0.03353
682.0,0.03334
683.0,0.03312
684.0,0.0328
685.0,0.03293
686.0,0.03258
687.0,0.01989
688.0,0.02387
689.0,0.02387
690.0,0.02518
691.0,0.0267
692.0,0.02783
693.0,0.02746
694.0,0.02709
695.0,0.02832
696.0,0.02823
697.0,0.03019
698.0,0.02958
699.0,0.02853
700.0,0.02805
701.0,0.02759
702.0,0.02774
703.0,0.02767
704.0,0.02854
705.0,0.02845
706.0,0.02834
707.0,0.02825
708.0,0.02818
709.0,0.02816
710.0,0.02798
711.0,0.02787
712.0,0.02772
713.0,0.02727
714.0,0.02724
715.0,0.02617
716.0,0.02605
717.0,0.02182
718.0,0.01979
719.0,0.01791
720.0,0.0187
721.0,0.02094
722.0,0.02439
723.0,0.02231
724.0,0.0197
725.0,0.01925
726.0,0.02015
727.0,0.02043
728.0,0.01893
729.0,0.01976
730.0,0.02086
731.0,0.01978
732.0,0.02131
733.0,0.0227
734.0,0.0232
735.0,0.02257
736.0,0.02244
737.0,0.02242
738.0,0.02282
739.0,0.02226
740.0,0.02278
741.0,0.02247
742.0,0.02241
743.0,0.02287
744.0,0.0227
745.0,0.0226
746.0,0.0226
747.0,0.02254
748.0,0.02238
749.0,0.02202
750.0,0.02191
751.0,0.02161
752.0,0.02161
753.0,0.02162
754.0,0.02157
755.0,0.02136
756.0,0.02126
757.0,0.0212
758.0,0.02084
759.0,0.02022
760.0,0.002769
761.0,0.001446
762.0,0.008986
763.0,0.004216
764.0,0.006472
765.0,0.008851
766.0,0.01123
767.0,0.01467
768.0,0.01743
769.0,0.01785
770.0,0.01854
771.0,0.01868
772.0,0.01865
773.0,0.01868
774.0,0.0185
775.0,0.01827
776.0,0.0184
777.0,0.01807
778.0,0.01786
779.0,0.01778
780.0,0.0176
781.0,0.01754
782.0,0.01758
783.0,0.0172
784.0,0.01722
785.0,0.01701
786.0,0.01713
787.0,0.01669
788.0,0.01638
789.0,0.01629
790.0,0.01569
791.0,0.01585
792.0,0.01567
793.0,0.01534
794.0,0.01563
795.0,0.0158
796.0,0.01511
797.0,0.01507
798.0,0.01556
799.0,0.01537
800.0,0.015
801.0,0.01485
802.0,0.01474
803.0,0.01455
804.0,0.01451
805.0,0.01443
806.0,0.01483
807.0,0.01456
808.0,0.01451
809.0,0.01413
810.0,0.01391
811.0,0.01381
812.0,0.01326
813.0,0.01287
814.0,0.01101
815.0,0.01089
816.0,0.009996
817.0,0.01016
818.0,0.009697
819.0,0.01102
820.0,0.01025
821.0,0.01229
822.0,0.01182
823.0,0.007497
824.0,0.01129
825.0,0.01185
826.0,0.01125
827.0,0.01195
828.0,0.009777
829.0,0.01106
830.0,0.01084
831.0,0.01084
832.0,0.0104
833.0,0.01121
834.0,0.01067
835.0,0.01188
836.0,0.01119
837.0,0.01182
838.0,0.01134
839.0,0.01155
840.0,0.01176
841.0,0.01152
842.0,0.01153
843.0,0.01151
844.0,0.01128
845.0,0.01164
846.0,0.01154
847.0,0.01128
848.0,0.01114
849.0,0.01077
850.0,0.01027
851.0,0.0108
852.0,0.01068
853.0,0.01025
854.0,0.008795
855.0,0.009642
856.0,0.01049
857.0,0.01069
858.0,0.01057
859.0,0.01054
860.0,0.01052
861.0,0.01042
862.0,0.01055
863.0,0.01076
864.0,0.01018
865.0,0.01006
866.0,0.009005
867.0,0.00936
868.0,0.01014
869.0,0.009894
870.0,0.01014
871.0,0.009956
872.0,0.009881
873.0,0.00982
874.0,0.00966
875.0,0.009422
876.0,0.009477
877.0,0.009534
878.0,0.009593
879.0,0.009406
880.0,0.009166
881.0,0.008982
882.0,0.009137
883.0,0.009136
884.0,0.00905
885.0,0.009076
886.0,0.008584
887.0,0.008663
888.0,0.008739
889.0,0.008827
890.0,0.008682
891.0,0.008649
892.0,0.008329
893.0,0.007985
894.0,0.007582
895.0,0.007025
896.0,0.006513
897.0,0.005423
898.0,0.005978
899.0,0.004335
900.0,0.006147
901.0,0.004557
902.0,0.005502
903.0,0.005487
904.0,0.007217
905.0,0.006891
906.0,0.006372
907.0,0.004933
908.0,0.005051
909.0,0.00555
910.0,0.004739
911.0,0.005123
912.0,0.005367
913.0,0.004749
914.0,0.004704
915.0,0.005123
916.0,0.004229
917.0,0.00557
918.0,0.004313
919.0,0.005656
920.0,0.005758
921.0,0.006014
922.0,0.00523
923.0,0.005768
924.0,0.005316
925.0,0.005167
926.0,0.00521
927.0,0.005923
928.0,0.004034
929.0,0.003605
930.0,0.00271
931.0,0.002547
932.0,0.001744
933.0,0.001379
934.0,0.0007094
935.0,0.001414
936.0,0.0008416
937.0,0.0008485
938.0,0.001054
939.0,0.002383
940.0,0.002938
941.0,0.002119
942.0,0.00249
943.0,0.00155
944.0,0.00166
945.0,0.002157
946.0,0.001014
947.0,0.002138
948.0,0.001527
949.0,0.002956
950.0,0.0007109
951.0,0.002894
952.0,0.001428
953.0,0.001901
954.0,0.002406
955.0,0.00192
956.0,0.00188
957.0,0.001401
958.0,0.002774
959.0,0.002099
960.0,0.002369
961.0,0.002717
962.0,0.002546
963.0,0.003004
964.0,0.002706
965.0,0.002969
966.0,0.002954
967.0,0.002921
968.0,0.004201
969.0,0.004372
970.0,0.00394
971.0,0.004651
972.0,0.004386
973.0,0.003668
974.0,0.003444
975.0,0.003596
976.0,0.003343
977.0,0.003935
978.0,0.003664
979.0,0.00387
980.0,0.003582
981.0,0.00445
982.0,0.004186
983.0,0.003971
984.0,0.004595
985.0,0.004123
986.0,0.004676
987.0,0.004529
988.0,0.004502
989.0,0.00463
990.0,0.004441
991.0,0.004596
992.0,0.00461
993.0,0.004454
994.0,0.00458
995.0,0.004564
996.0,0.00452
997.0,0.004514
998.0,0.004474
999.0,0.004443
1000.0,0.004387
1001.0,0.004435
1002.0,0.004258
1003.0,0.004321
1004.0,0.004189
1005.0,0.004034
1006.0,0.004167
1007.0,0.004243
1008.0,0.004197
1009.0,0.004152
1010.0,0.004115
1011.0,0.004159
1012.0,0.0041
1013.0,0.00412
1014.0,0.004077
1015.0,0.004033
1016.0,0.003998
1017.0,0.003992
1018.0,0.003966
1019.0,0.003852
1020.0,0.003912
1021.0,0.003894
1022.0,0.003843
1023.0,0.003869
1024.0,0.003791
1025.0,0.003843
1026.0,0.003808
1027.0,0.003785
1028.0,0.003763
1029.0,0.003704
1030.0,0.00372
1031.0,0.003689
1032.0,0.003665
1033.0,0.003596
1034.0,0.003583
1035.0,0.00358
1036.0,0.003583
1037.0,0.003512
1038.0,0.003515
1039.0,0.003499
1040.0,0.003472
1041.0,0.003471
1042.0,0.003434
1043.0,0.00341
1044.0,0.003409
1045.0,0.003349
1046.0,0.003298
1047.0,0.003315
1048.0,0.00332
1049.0,0.003295
1050.0,0.003267
1051.0,0.003249
1052.0,0.003223
1053.0,0.003185
1054.0,0.003179
1055.0,0.003167
1056.0,0.003142
1057.0,0.003119
1058.0,0.00303
1059.0,0.003021
1060.0,0.003004
1061.0,0.002988
1062.0,0.002991
1063.0,0.002949
1064.0,0.002974
1065.0,0.002938
1066.0,0.002872
1067.0,0.002898
1068.0,0.002821
1069.0,0.002726
1070.0,0.002804
1071.0,0.002848
1072.0,0.002797
1073.0,0.002749
1074.0,0.002822
1075.0,0.002641
1076.0,0.002797
1077.0,0.00272
1078.0,0.002652
1079.0,0.002727
1080.0,0.002645
1081.0,0.002541
1082.0,0.002598
1083.0,0.002602
1084.0,0.002498
1085.0,0.00261
1086.0,0.002322
1087.0,0.002427
1088.0,0.002547
1089.0,0.002432
1090.0,0.002349
1091.0,0.002503
1092.0,0.002493
1093.0,0.002025
1094.0,0.002256
1095.0,0.002108
1096.0,0.001988
1097.0,0.002395
1098.0,0.001936
1099.0,0.002023
1100.0,0.001839
1101.0,0.001867
1102.0,0.001759
1103.0,0.001722
1104.0,0.00172
1105.0,0.001928
1106.0,0.001365
1107.0,0.001795
1108.0,0.001452
1109.0,0.001455
1110.0,0.001751
1111.0,0.001092
1112.0,0.001432
1113.0,0.0008313
1114.0,0.000936
1115.0,0.0007589
1116.0,0.0005776
1117.0,0.0001909
1118.0,0.0006319
1119.0,0.0002897
1120.0,0.0003658
1121.0,0.0004965
1122.0,0.0001934
1123.0,0.0003259
1124.0,0.0002721
1125.0,0.0003608
1126.0,0.0001148
1127.0,0.000407
1128.0,0.0002294
1129.0,0.000244
1130.0,0.0001562
1131.0,0.0008234
1132.0,0.0006257
1133.0,0.000371
1134.0,8.635e-05
1135.0,3.205e-05
1136.0,0.0002996
1137.0,0.0007851
1138.0,0.0005348
1139.0,0.0008567
1140.0,0.0006883
1141.0,0.0005017
1142.0,0.0005866
1143.0,0.0008701
1144.0,0.0002693
1145.0,0.0003427
1146.0,0.0003694
1147.0,0.0001193
1148.0,0.0007288
1149.0,0.0005604
1150.0,0.0002866
1151.0,0.000507
1152.0,0.0006427
1153.0,0.0006317
1154.0,0.0003217
1155.0,0.0008493
1156.0,0.0007475
1157.0,0.00086
1158.0,0.0008465
1159.0,0.0009277
1160.0,0.0007704
1161.0,0.0009901
1162.0,0.000987
1163.0,0.001421
1164.0,0.001178
1165.0,0.001084
1166.0,0.001085
1167.0,0.001196
1168.0,0.001203
1169.0,0.001239
1170.0,0.001366
1171.0,0.001322
1172.0,0.001353
1173.0,0.001349
1174.0,0.0008958
1175.0,0.001318
1176.0,0.001477
1177.0,0.001393
1178.0,0.0009857
1179.0,0.001475
1180.0,0.001272
1181.0,0.001316
1182.0,0.0008441
1183.0,0.001295
1184.0,0.001186
1185.0,0.001127
1186.0,0.001388
1187.0,0.001301
1188.0,0.0008422
1189.0,0.001197
1190.0,0.001337
1191.0,0.00124
1192.0,0.001351
1193.0,0.001278
1194.0,0.001323
1195.0,0.001229
1196.0,0.001169
1197.0,0.001323
1198.0,0.001188
1199.0,0.0009685
1200.0,0.001237
1201.0,0.001175
1202.0,0.001171
1203.0,0.001159
1204.0,0.0009819
1205.0,0.001199
1206.0,0.00135
1207.0,0.001149
1208.0,0.00114
1209.0,0.001161
1210.0,0.001216
1211.0,0.001139
1212.0,0.001107
1213.0,0.001269
1214.0,0.001135
1215.0,0.001106
1216.0,0.001254
1217.0,0.001208
1218.0,0.001235
1219.0,0.001212
1220.0,0.001229
1221.0,0.001242
1222.0,0.0012
1223.0,0.001182
1224.0,0.001165
1225.0,0.001217
1226.0,0.001227
1227.0,0.001108
1228.0,0.001229
1229.0,0.001215
1230.0,0.001187
1231.0,0.001229
1232.0,0.001217
1233.0,0.001156
1234.0,0.001219
1235.0,0.001205
1236.0,0.001212
1237.0,0.001185
1238.0,0.0012
1239.0,0.001181
1240.0,0.001182
1241.0,0.001169
1242.0,0.001166
1243.0,0.001153
1244.0,0.001156
1245.0,0.001158
1246.0,0.001147
1247.0,0.001138
1248.0,0.001132
1249.0,0.001133
1250.0,0.001122
1251.0,0.001102
1252.0,0.001101
1253.0,0.001084
1254.0,0.001065
1255.0,0.001088
1256.0,0.001045
1257.0,0.001034
1258.0,0.001057
1259.0,0.001002
1260.0,0.001006
1261.0,0.0009293
1262.0,0.0008902
1263.0,0.0008888
1264.0,0.0007996
1265.0,0.0008784
1266.0,0.0008317
1267.0,0.0008513
1268.0,0.0007928
1269.0,0.000434
1270.0,0.0008381
1271.0,0.0009023
1272.0,0.0009043
1273.0,0.00089
1274.0,0.0008925
1275.0,0.0009057
1276.0,0.0009148
1277.0,0.0009216
1278.0,0.0009433
1279.0,0.0009313
1280.0,0.000917
1281.0,0.0008754
1282.0,0.0008461
1283.0,0.0009074
1284.0,0.000925
1285.0,0.0009291
1286.0,0.0009417
1287.0,0.0009187
1288.0,0.0009171
1289.0,0.0008751
1290.0,0.0009039
1291.0,0.0009154
1292.0,0.0008384
1293.0,0.0008871
1294.0,0.000877
1295.0,0.0008654
1296.0,0.0008119
1297.0,0.0007563
1298.0,0.0008299
1299.0,0.0008733
1300.0,0.0007048
1301.0,0.0007304
1302.0,0.0008181
1303.0,0.0006911
1304.0,0.0005631
1305.0,0.0007907
1306.0,0.0007869
1307.0,0.0005758
1308.0,0.0006836
1309.0,0.0007708
1310.0,0.0005576
1311.0,0.0006433
1312.0,0.0006221
1313.0,0.0006027
1314.0,0.0005254
1315.0,0.0005156
1316.0,0.0006208
1317.0,0.00058
1318.0,0.0006412
1319.0,0.0004702
1320.0,0.0004552
1321.0,0.0005435
1322.0,0.000545
1323.0,0.0003858
1324.0,0.0004539
1325.0,0.0005925
1326.0,0.0004909
1327.0,0.0004622
1328.0,0.0003876
1329.0,0.000275
1330.0,0.0003694
1331.0,0.0002058
1332.0,0.0002144
1333.0,0.0003064
1334.0,0.00026
1335.0,0.00037
1336.0,0.0002806
1337.0,0.0002437
1338.0,0.0002643
1339.0,0.0002635
1340.0,0.0002568
1341.0,0.0002444
1342.0,0.0002576
1343.0,0.0001625
1344.0,9.519e-05
1345.0,0.0001389
1346.0,6.471e-05
1347.0,6.528e-05
1348.0,4.048e-06
1349.0,1.461e-05
1350.0,1.517e-05
1351.0,3.632e-06
1352.0,9.751e-07
1353.0,4.961e-08
1354.0,1.705e-07
1355.0,1.373e-09
1356.0,2.402e-08
1357.0,3.65e-08
1358.0,1.612e-09
