interpolation:linear
wavelength,value
280.0,1.3649999999999999e-22
280.5,4.53e-21
281.0,2.4380000000000002e-20
281.5,4.071e-19
282.0,5.604e-19
282.5,1.376e-18
283.0,4.339e-18
283.5,7.067e-18
284.0,1.168e-16
284.5,3.419e-16
285.0,5.792e-16
285.5,2.852e-15
286.0,1.149e-14
286.5,5.169e-14
287.0,1.485e-13
287.5,5.738e-13
288.0,2.041e-12
288.5,6.009e-12
289.0,1.575e-11
289.5,4.711e-11
290.0,1.302e-10
290.5,2.65e-10
291.0,5.684e-10
291.5,1.632e-09
292.0,3.283e-09
292.5,4.594e-09
293.0,9.826e-09
293.5,2.384e-08
294.0,3.724e-08
294.5,5.007e-08
295.0,8.469e-08
295.5,1.408e-07
296.0,2.704e-07
296.5,3.76e-07
297.0,5.06e-07
297.5,1.346e-06
298.0,2.102e-06
298.5,2.099e-06
299.0,4.588e-06
299.5,7.493e-06
300.0,8.148e-06
300.5,1.165e-05
301.0,2.059e-05
301.5,3.2e-05
302.0,2.696e-05
302.5,5.331e-05
303.0,9.701e-05
303.5,0.0001242
304.0,0.0001201
304.5,0.0001943
305.0,0.0003313
305.5,0.0004095
306.0,0.0004081
306.5,0.0005341
307.0,0.0008879
307.5,0.00132
308.0,0.001418
308.5,0.00177
309.0,0.002043
309.5,0.002684
310.0,0.002871
310.5,0.004792
311.0,0.006327
311.5,0.006237
312.0,0.006967
312.5,0.009118
313.0,0.01027
313.5,0.009599
314.0,0.0131
314.5,0.01306
315.0,0.0175
315.5,0.01379
316.0,0.01324
316.5,0.02063
317.0,0.02553
317.5,0.0259
318.0,0.02135
318.5,0.02955
319.0,0.03701
319.5,0.02753
320.0,0.03276
320.5,0.04581
321.0,0.04513
321.5,0.04364
322.0,0.04157
322.5,0.0363
323.0,0.03878
323.5,0.05124
324.0,0.0604
324.5,0.05943
325.0,0.04905
325.5,0.06678
326.0,0.08342
326.5,0.08666
327.0,0.08498
327.5,0.08046
328.0,0.068
328.5,0.07582
329.0,0.09527
329.5,0.1096
330.0,0.109
330.5,0.08376
331.0,0.08407
331.5,0.08776
332.0,0.09873
332.5,0.09941
333.0,0.09782
333.5,0.08562
334.0,0.08709
334.5,0.104
335.0,0.0996
335.5,0.1173
336.0,0.08104
336.5,0.09275
337.0,0.07478
337.5,0.09231
338.0,0.09272
338.5,0.1082
339.0,0.107
339.5,0.1027
340.0,0.119
340.5,0.1074
341.0,0.1055
341.5,0.09684
342.0,0.1156
342.5,0.108
343.0,0.1184
343.5,0.1112
344.0,0.08135
344.5,0.08268
345.0,0.1093
345.5,0.1115
346.0,0.0946
346.5,0.107
347.0,0.1145
347.5,0.09235
348.0,0.1052
348.5,0.105
349.0,0.0973
349.5,0.09613
350.0,0.1187
350.5,0.1249
351.0,0.1113
351.5,0.1078
352.0,0.1156
352.5,0.09012
353.0,0.1134
353.5,0.121
354.0,0.1254
354.5,0.1269
355.0,0.1262
355.5,0.1138
356.0,0.1188
356.5,0.1013
357.0,0.08349
357.5,0.102
358.0,0.08069
358.5,0.06881
359.0,0.09601
359.5,0.122
360.0,0.1291
360.5,0.103
361.0,0.09371
361.5,0.1077
362.0,0.09294
362.5,0.1284
363.0,0.1151
363.5,0.1057
364.0,0.129
364.5,0.1101
365.0,0.1118
365.5,0.1401
366.0,0.1481
366.5,0.1388
367.0,0.1349
367.5,0.1397
368.0,0.122
368.5,0.1228
369.0,0.1323
369.5,0.1407
370.0,0.1497
370.5,0.1159
371.0,0.1236
371.5,0.1543
372.0,0.1022
372.5,0.1222
373.0,0.124
373.5,0.08051
374.0,0.1167
374.5,0.09644
375.0,0.09353
375.5,0.1393
376.0,0.1152
376.5,0.1191
377.0,0.1258
377.5,0.1469
378.0,0.1588
378.5,0.1497
379.0,0.1233
379.5,0.1123
380.0,0.1165
380.5,0.1407
381.0,0.1407
381.5,0.1112
382.0,0.09855
382.5,0.0838
383.0,0.07739
383.5,0.07436
384.0,0.08183
384.5,0.1201
385.0,0.1188
385.5,0.1103
386.0,0.09427
386.5,0.1235
387.0,0.1024
387.5,0.1147
388.0,0.1056
388.5,0.1042
389.0,0.1121
389.5,0.1355
390.0,0.1356
390.5,0.1245
391.0,0.1462
391.5,0.1487
392.0,0.1249
392.5,0.1115
393.0,0.06191
393.5,0.04489
394.0,0.09111
394.5,0.1155
395.0,0.1406
395.5,0.1425
396.0,0.1232
396.5,0.07184
397.0,0.05377
397.5,0.1091
398.0,0.1523
398.5,0.1571
399.0,0.1696
399.5,0.1686
400.0,0.1746
401.0,0.1718
402.0,0.1802
403.0,0.1703
404.0,0.1667
405.0,0.1658
406.0,0.1622
407.0,0.1587
408.0,0.1639
409.0,0.1744
410.0,0.1516
411.0,0.1633
412.0,0.1745
413.0,0.1692
414.0,0.1703
415.0,0.1698
416.0,0.1717
417.0,0.1665
418.0,0.1625
419.0,0.1637
420.0,0.162
421.0,0.1684
422.0,0.1591
423.0,0.1544
424.0,0.1622
425.0,0.1609
426.0,0.1559
427.0,0.1521
428.0,0.1474
429.0,0.1388
430.0,0.1208
431.0,0.1189
432.0,0.1525
433.0,0.1524
434.0,0.1407
435.0,0.146
436.0,0.1636
437.0,0.1605
438.0,0.1452
439.0,0.1491
440.0,0.1528
441.0,0.1572
442.0,0.1675
443.0,0.1621
444.0,0.1647
445.0,0.1602
446.0,0.1521
447.0,0.1635
448.0,0.1649
449.0,0.1644
450.0,0.1678
451.0,0.1729
452.0,0.1656
453.0,0.1548
454.0,0.1607
455.0,0.1605
456.0,0.1632
457.0,0.1646
458.0,0.1577
459.0,0.1556
460.0,0.1547
461.0,0.1571
462.0,0.1574
463.0,0.1555
464.0,0.1523
465.0,0.1497
466.0,0.1503
467.0,0.1465
468.0,0.1471
469.0,0.1466
470.0,0.141
471.0,0.14
472.0,0.1466
473.0,0.1438
474.0,0.143
475.0,0.1431
476.0,0.1376
477.0,0.1367
478.0,0.1392
479.0,0.1371
480.0,0.1361
481.0,0.1374
482.0,0.1371
483.0,0.1346
484.0,0.1312
485.0,0.1244
486.0,0.1083
487.0,0.1129
488.0,0.123
489.0,0.1225
490.0,0.1279
491.0,0.1248
492.0,0.117
493.0,0.1201
494.0,0.1205
495.0,0.1207
496.0,0.1205
497.0,0.1213
498.0,0.1145
499.0,0.1148
500.0,0.1103
501.0,0.1071
502.0,0.1044
503.0,0.1075
504.0,0.1037
505.0,0.1066
506.0,0.1093
507.0,0.1034
508.0,0.09968
509.0,0.102
510.0,0.1009
511.0,0.103
512.0,0.1034
513.0,0.09711
514.0,0.09569
515.0,0.09399
516.0,0.09304
517.0,0.08206
518.0,0.08563
519.0,0.08914
520.0,0.09163
521.0,0.09173
522.0,0.091
523.0,0.08866
524.0,0.09096
525.0,0.09113
526.0,0.08623
527.0,0.08041
528.0,0.08418
529.0,0.08792
530.0,0.0859
531.0,0.08642
532.0,0.08278
533.0,0.07978
534.0,0.0816
535.0,0.08288
536.0,0.08314
537.0,0.07936
538.0,0.08023
539.0,0.07901
540.0,0.0752
541.0,0.07506
542.0,0.07674
543.0,0.07534
544.0,0.07606
545.0,0.07531
546.0,0.07505
547.0,0.07448
548.0,0.07308
549.0,0.0728
550.0,0.07315
551.0,0.07175
552.0,0.07172
553.0,0.06992
554.0,0.07106
555.0,0.07065
556.0,0.06917
557.0,0.06645
558.0,0.06534
559.0,0.06351
560.0,0.06371
561.0,0.06394
562.0,0.06287
563.0,0.064
564.0,0.06174
565.0,0.06071
566.0,0.05934
567.0,0.05995
568.0,0.0589
569.0,0.05695
570.0,0.05652
571.0,0.05578
572.0,0.05661
573.0,0.05682
574.0,0.05628
575.0,0.05489
576.0,0.0541
577.0,0.05442
578.0,0.05337
579.0,0.05339
580.0,0.05424
581.0,0.05432
582.0,0.05514
583.0,0.05506
584.0,0.05531
585.0,0.0537
586.0,0.05228
587.0,0.05307
588.0,0.05134
589.0,0.04494
590.0,0.04673
591.0,0.04928
592.0,0.04821
593.0,0.04865
594.0,0.04786
595.0,0.0462
596.0,0.04787
597.0,0.04692
598.0,0.04647
599.0,0.04616
600.0,0.04595
601.0,0.04531
602.0,0.04474
603.0,0.04524
604.0,0.04576
605.0,0.04533
606.0,0.04499
607.0,0.0453
608.0,0.04466
609.0,0.0446
610.0,0.04416
611.0,0.04427
612.0,0.04402
613.0,0.04333
614.0,0.0426
615.0,0.0434
616.0,0.04184
617.0,0.04162
618.0,0.04307
619.0,0.04248
620.0,0.04257
621.0,0.04242
622.0,0.04172
623.0,0.04089
624.0,0.04002
625.0,0.03977
626.0,0.0402
627.0,0.04043
628.0,0.03703
629.0,0.03894
630.0,0.03786
631.0,0.03875
632.0,0.03818
633.0,0.03928
634.0,0.03882
635.0,0.0393
636.0,0.03867
637.0,0.03919
638.0,0.03947
639.0,0.03891
640.0,0.03841
641.0,0.03826
642.0,0.03798
643.0,0.03837
644.0,0.03813
645.0,0.03801
646.0,0.0369
647.0,0.03617
648.0,0.03604
649.0,0.03519
650.0,0.0354
651.0,0.03682
652.0,0.03492
653.0,0.03604
654.0,0.03551
655.0,0.03393
656.0,0.03002
657.0,0.03073
658.0,0.03437
659.0,0.0345
660.0,0.03451
661.0,0.03461
662.0,0.03451
663.0,0.03372
664.0,0.03404
665.0,0.03397
666.0,0.03387
667.0,0.03374
668.0,0.03365
669.0,0.03405
670.0,0.03376
671.0,0.03364
672.0,0.03325
673.0,0.03365
674.0,0.03339
675.0,0.03296
676.0,0.03306
677.0,0.03261
678.0,0.03259
679.0,0.03194
680.0,0.03207
681.0,0.03172
682.0,0.03154
683.0,0.03134
684.0,0.03104
685.0,0.03117
686.0,0.03084
687.0,0.01866
688.0,0.02242
689.0,0.02243
690.0,0.0237
691.0,0.02517
692.0,0.02628
693.0,0.02594
694.0,0.02562
695.0,0.02682
696.0,0.02675
697.0,0.02863
698.0,0.02806
699.0,0.02704
700.0,0.02659
701.0,0.02614
702.0,0.0263
703.0,0.02624
704.0,0.02709
705.0,0.027
706.0,0.02691
707.0,0.02683
708.0,0.02676
709.0,0.02675
710.0,0.02658
711.0,0.02648
712.0,0.02634
713.0,0.02591
714.0,0.02588
715.0,0.02486
716.0,0.02474
717.0,0.02066
718.0,0.01876
719.0,0.01699
720.0,0.01772
721.0,0.01987
722.0,0.02317
723.0,0.02119
724.0,0.0187
725.0,0.01826
726.0,0.01911
727.0,0.0194
728.0,0.01797
729.0,0.01878
730.0,0.0198
731.0,0.01878
732.0,0.02026
733.0,0.02159
734.0,0.02207
735.0,0.02148
736.0,0.02135
737.0,0.02133
738.0,0.02174
739.0,0.0212
740.0,0.0217
741.0,0.02142
742.0,0.02136
743.0,0.0218
744.0,0.02164
745.0,0.02156
746.0,0.02155
747.0,0.0215
748.0,0.02135
749.0,0.02101
750.0,0.02091
751.0,0.02062
752.0,0.02063
753.0,0.02064
754.0,0.0206
755.0,0.02039
756.0,0.0203
757.0,0.02025
758.0,0.0199
759.0,0.0193
760.0,0.002674
761.0,0.001409
762.0,0.008496
763.0,0.004038
764.0,0.006148
765.0,0.00837
766.0,0.01061
767.0,0.0139
768.0,0.01658
769.0,0.01701
770.0,0.0177
771.0,0.01784
772.0,0.01782
773.0,0.01785
774.0,0.01767
775.0,0.01745
776.0,0.01758
777.0,0.01725
778.0,0.01706
779.0,0.01698
780.0,0.01681
781.0,0.01676
782.0,0.01679
783.0,0.01644
784.0,0.01645
785.0,0.01626
786.0,0.01637
787.0,0.01595
788.0,0.01565
789.0,0.01556
790.0,0.01498
791.0,0.01515
792.0,0.01498
793.0,0.01466
794.0,0.01495
795.0,0.01511
796.0,0.01444
797.0,0.01439
798.0,0.01488
799.0,0.01469
800.0,0.01434
801.0,0.01419
802.0,0.01409
803.0,0.0139
804.0,0.01387
805.0,0.0138
806.0,0.01418
807.0,0.01393
808.0,0.01388
809.0,0.0135
810.0,0.01329
811.0,0.01319
812.0,0.01265
813.0,0.01228
814.0,0.01049
815.0,0.01038
816.0,0.00953
817.0,0.009684
818.0,0.009239
819.0,0.01051
820.0,0.009768
821.0,0.01173
822.0,0.01129
823.0,0.007151
824.0,0.01077
825.0,0.01133
826.0,0.01074
827.0,0.01142
828.0,0.009328
829.0,0.01057
830.0,0.01036
831.0,0.01036
832.0,0.009942
833.0,0.01071
834.0,0.0102
835.0,0.01137
836.0,0.01069
837.0,0.01131
838.0,0.01084
839.0,0.01105
840.0,0.01126
841.0,0.01102
842.0,0.01103
843.0,0.01102
844.0,0.0108
845.0,0.01114
846.0,0.01105
847.0,0.01081
848.0,0.01067
849.0,0.01031
850.0,0.009836
851.0,0.01034
852.0,0.01022
853.0,0.009808
854.0,0.008417
855.0,0.00923
856.0,0.01004
857.0,0.01024
858.0,0.01012
859.0,0.0101
860.0,0.01008
861.0,0.009982
862.0,0.01011
863.0,0.01031
864.0,0.009758
865.0,0.009636
866.0,0.00863
867.0,0.008971
868.0,0.009723
869.0,0.009484
870.0,0.009716
871.0,0.009544
872.0,0.009472
873.0,0.009414
874.0,0.009262
875.0,0.009033
876.0,0.009086
877.0,0.00914
878.0,0.009196
879.0,0.009017
880.0,0.008786
881.0,0.008609
882.0,0.008756
883.0,0.008756
884.0,0.008673
885.0,0.008698
886.0,0.008222
887.0,0.008301
888.0,0.008372
889.0,0.008459
890.0,0.008316
891.0,0.008287
892.0,0.007974
893.0,0.007642
894.0,0.007246
895.0,0.006703
896.0,0.006218
897.0,0.005175
898.0,0.005702
899.0,0.00414
900.0,0.005868
901.0,0.004345
902.0,0.005249
903.0,0.005231
904.0,0.006896
905.0,0.006584
906.0,0.006087
907.0,0.004705
908.0,0.004821
909.0,0.005295
910.0,0.00452
911.0,0.004894
912.0,0.00512
913.0,0.004528
914.0,0.004488
915.0,0.004878
916.0,0.004038
917.0,0.005309
918.0,0.004114
919.0,0.005395
920.0,0.005506
921.0,0.005742
922.0,0.004992
923.0,0.005509
924.0,0.005066
925.0,0.004928
926.0,0.004963
927.0,0.005644
928.0,0.003837
929.0,0.003429
930.0,0.002581
931.0,0.002426
932.0,0.001666
933.0,0.001322
934.0,0.0006865
935.0,0.001354
936.0,0.0008116
937.0,0.0008184
938.0,0.001014
939.0,0.002268
940.0,0.002792
941.0,0.002018
942.0,0.002367
943.0,0.001482
944.0,0.001588
945.0,0.002055
946.0,0.0009744
947.0,0.002037
948.0,0.001462
949.0,0.002806
950.0,0.000687
951.0,0.002746
952.0,0.001367
953.0,0.001813
954.0,0.002289
955.0,0.00183
956.0,0.001802
957.0,0.001341
958.0,0.002645
959.0,0.002003
960.0,0.002256
961.0,0.002588
962.0,0.002427
963.0,0.002863
964.0,0.002581
965.0,0.002828
966.0,0.002815
967.0,0.002782
968.0,0.004014
969.0,0.004167
970.0,0.00376
971.0,0.004445
972.0,0.00419
973.0,0.003496
974.0,0.003285
975.0,0.003431
976.0,0.003184
977.0,0.00376
978.0,0.003496
979.0,0.003692
980.0,0.00342
981.0,0.004253
982.0,0.003997
983.0,0.003791
984.0,0.004397
985.0,0.003935
986.0,0.004479
987.0,0.004335
988.0,0.00431
989.0,0.004438
990.0,0.004251
991.0,0.004403
992.0,0.004417
993.0,0.004264
994.0,0.00439
995.0,0.004375
996.0,0.004333
997.0,0.004327
998.0,0.004289
999.0,0.00426
1000.0,0.004204
1001.0,0.004252
1002.0,0.004077
1003.0,0.004143
1004.0,0.004014
1005.0,0.003868
1006.0,0.003995
1007.0,0.004068
1008.0,0.004023
1009.0,0.003979
1010.0,0.003943
1011.0,0.003988
1012.0,0.00393
1013.0,0.003951
1014.0,0.003909
1015.0,0.003867
1016.0,0.003834
1017.0,0.003827
1018.0,0.003803
1019.0,0.003692
1020.0,0.003751
1021.0,0.003734
1022.0,0.003685
1023.0,0.00371
1024.0,0.003632
1025.0,0.003685
1026.0,0.003651
1027.0,0.00363
1028.0,0.003608
1029.0,0.003551
1030.0,0.003567
1031.0,0.003537
1032.0,0.003515
1033.0,0.003448
1034.0,0.003435
1035.0,0.003433
1036.0,0.003436
1037.0,0.003368
1038.0,0.00337
1039.0,0.003355
1040.0,0.003329
1041.0,0.003328
1042.0,0.003292
1043.0,0.003269
1044.0,0.003267
1045.0,0.00321
1046.0,0.003161
1047.0,0.003177
1048.0,0.003182
1049.0,0.003158
1050.0,0.003131
1051.0,0.003113
1052.0,0.003088
1053.0,0.003051
1054.0,0.003045
1055.0,0.003034
1056.0,0.003009
1057.0,0.002987
1058.0,0.002902
1059.0,0.002892
1060.0,0.002876
1061.0,0.002861
1062.0,0.002863
1063.0,0.002823
1064.0,0.002847
1065.0,0.002811
1066.0,0.002749
1067.0,0.002773
1068.0,0.002699
1069.0,0.002609
1070.0,0.002684
1071.0,0.002727
1072.0,0.002677
1073.0,0.002632
1074.0,0.002703
1075.0,0.002526
1076.0,0.002679
1077.0,0.002603
1078.0,0.002537
1079.0,0.002613
1080.0,0.002532
1081.0,0.00243
1082.0,0.002487
1083.0,0.002493
1084.0,0.002389
1085.0,0.002498
1086.0,0.002221
1087.0,0.002321
1088.0,0.002439
1089.0,0.002325
1090.0,0.002246
1091.0,0.002396
1092.0,0.002388
1093.0,0.001934
1094.0,0.002159
1095.0,0.002011
1096.0,0.001896
1097.0,0.002293
1098.0,0.001845
1099.0,0.001929
1100.0,0.001753
1101.0,0.00178
1102.0,0.001675
1103.0,0.00164
1104.0,0.001638
1105.0,0.001837
1106.0,0.001298
1107.0,0.001711
1108.0,0.001382
1109.0,0.001385
1110.0,0.001667
1111.0,0.001039
1112.0,0.001363
1113.0,0.0007926
1114.0,0.0008905
1115.0,0.0007236
1116.0,0.0005521
1117.0,0.0001855
1118.0,0.0006027
1119.0,0.0002794
1120.0,0.0003515
1121.0,0.0004745
1122.0,0.0001876
1123.0,0.0003136
1124.0,0.0002625
1125.0,0.0003465
1126.0,0.0001121
1127.0,0.0003901
1128.0,0.000222
1129.0,0.0002358
1130.0,0.000152
1131.0,0.0007806
1132.0,0.0005956
1133.0,0.0003559
1134.0,8.455e-05
1135.0,3.155e-05
1136.0,0.0002885
1137.0,0.0007443
1138.0,0.00051
1139.0,0.0008136
1140.0,0.0006546
1141.0,0.0004789
1142.0,0.0005587
1143.0,0.0008248
1144.0,0.0002595
1145.0,0.0003288
1146.0,0.000354
1147.0,0.0001164
1148.0,0.0006921
1149.0,0.000534
1150.0,0.0002762
1151.0,0.0004836
1152.0,0.0006111
1153.0,0.0006016
1154.0,0.0003092
1155.0,0.0008058
1156.0,0.0007099
1157.0,0.0008178
1158.0,0.000805
1159.0,0.0008808
1160.0,0.0007342
1161.0,0.0009426
1162.0,0.0009394
1163.0,0.001354
1164.0,0.001122
1165.0,0.001031
1166.0,0.001034
1167.0,0.00114
1168.0,0.001147
1169.0,0.00118
1170.0,0.001303
1171.0,0.001261
1172.0,0.001293
1173.0,0.001286
1174.0,0.0008546
1175.0,0.001259
1176.0,0.001414
1177.0,0.001331
1178.0,0.0009422
1179.0,0.001412
1180.0,0.001215
1181.0,0.001256
1182.0,0.000806
1183.0,0.001237
1184.0,0.001133
1185.0,0.001076
1186.0,0.001326
1187.0,0.001242
1188.0,0.0008024
1189.0,0.001144
1190.0,0.001279
1191.0,0.001183
1192.0,0.001293
1193.0,0.001222
1194.0,0.001265
1195.0,0.001173
1196.0,0.001115
1197.0,0.001265
1198.0,0.001137
1199.0,0.0009238
1200.0,0.001182
1201.0,0.001122
1202.0,0.00112
1203.0,0.001107
1204.0,0.0009378
1205.0,0.001147
1206.0,0.001293
1207.0,0.001098
1208.0,0.00109
1209.0,0.00111
1210.0,0.001164
1211.0,0.001089
1212.0,0.001056
1213.0,0.001213
1214.0,0.001082
1215.0,0.001055
1216.0,0.001199
1217.0,0.001155
1218.0,0.001181
1219.0,0.001158
1220.0,0.001175
1221.0,0.001189
1222.0,0.001149
1223.0,0.001131
1224.0,0.001114
1225.0,0.001165
1226.0,0.001175
1227.0,0.001058
1228.0,0.001177
1229.0,0.001164
1230.0,0.001136
1231.0,0.001178
1232.0,0.001167
1233.0,0.001106
1234.0,0.001169
1235.0,0.001155
1236.0,0.001162
1237.0,0.001136
1238.0,0.001151
1239.0,0.001132
1240.0,0.001134
1241.0,0.001121
1242.0,0.001118
1243.0,0.001106
1244.0,0.001108
1245.0,0.00111
1246.0,0.0011
1247.0,0.001091
1248.0,0.001085
1249.0,0.001087
1250.0,0.001076
1251.0,0.001056
1252.0,0.001056
1253.0,0.001038
1254.0,0.00102
1255.0,0.001043
1256.0,0.0009999
1257.0,0.0009891
1258.0,0.001013
1259.0,0.000957
1260.0,0.0009611
1261.0,0.0008855
1262.0,0.000847
1263.0,0.0008456
1264.0,0.0007584
1265.0,0.0008357
1266.0,0.0007897
1267.0,0.0008094
1268.0,0.0007523
1269.0,0.0004098
1270.0,0.0007963
1271.0,0.00086
1272.0,0.000862
1273.0,0.0008481
1274.0,0.0008509
1275.0,0.0008639
1276.0,0.0008732
1277.0,0.0008805
1278.0,0.0009022
1279.0,0.0008908
1280.0,0.0008771
1281.0,0.0008379
1282.0,0.0008107
1283.0,0.0008692
1284.0,0.0008861
1285.0,0.0008901
1286.0,0.0009026
1287.0,0.0008798
1288.0,0.0008786
1289.0,0.0008367
1290.0,0.000866
1291.0,0.0008773
1292.0,0.0008009
1293.0,0.0008497
1294.0,0.00084
1295.0,0.0008275
1296.0,0.0007751
1297.0,0.0007215
1298.0,0.0007935
1299.0,0.0008367
1300.0,0.0006728
1301.0,0.0006973
1302.0,0.0007824
1303.0,0.0006598
1304.0,0.0005362
1305.0,0.0007563
1306.0,0.0007519
1307.0,0.0005491
1308.0,0.0006532
1309.0,0.0007357
1310.0,0.0005314
1311.0,0.0006143
1312.0,0.0005939
1313.0,0.0005745
1314.0,0.0005006
1315.0,0.0004907
1316.0,0.0005922
1317.0,0.0005532
1318.0,0.0006121
1319.0,0.0004476
1320.0,0.0004339
1321.0,0.000518
1322.0,0.0005187
1323.0,0.0003669
1324.0,0.0004325
1325.0,0.0005647
1326.0,0.0004676
1327.0,0.0004401
1328.0,0.0003691
1329.0,0.0002619
1330.0,0.000351
1331.0,0.0001966
1332.0,0.0002046
1333.0,0.0002909
1334.0,0.0002485
1335.0,0.0003514
1336.0,0.000267
1337.0,0.0002326
1338.0,0.0002517
1339.0,0.0002509
1340.0,0.000245
1341.0,0.0002326
1342.0,0.0002451
1343.0,0.0001556
1344.0,9.191e-05
1345.0,0.0001332
1346.0,6.294e-05
1347.0,6.355e-05
1348.0,4.017e-06
1349.0,1.444e-05
1350.0,1.498e-05
1351.0,3.607e-06
1352.0,9.699e-07
1353.0,4.936e-08
1354.0,1.696e-07
1355.0,1.366e-09
