interpolation:linear
wavelength,value
280.0,1.052e-21
280.5,3.3840000000000005e-20
281.0,1.801e-19
281.5,5.239e-19
282.0,9.468e-19
282.5,2.354e-18
283.0,7.421e-18
283.5,1.205e-17
284.0,1.951e-16
284.5,5.643e-16
285.0,1.109e-15
285.5,5.351e-15
286.0,2.138e-14
286.5,9.467e-14
287.0,2.688e-13
287.5,1.023e-12
288.0,3.156e-12
288.5,9.861e-12
289.0,2.679e-11
289.5,8.197e-11
290.0,2.292e-10
290.5,4.694e-10
291.0,1.011e-09
291.5,2.911e-09
292.0,6.038e-09
292.5,8.692e-09
293.0,1.921e-08
293.5,4.853e-08
294.0,7.772e-08
294.5,1.02e-07
295.0,1.758e-07
295.5,3.961e-07
296.0,7.079e-07
296.5,1.013e-06
297.0,1.401e-06
297.5,3.911e-06
298.0,6.419e-06
298.5,6.693e-06
299.0,1.536e-05
299.5,2.778e-05
300.0,3.232e-05
300.5,5.002e-05
301.0,0.0001031
301.5,0.0001908
302.0,0.0001788
302.5,0.0003524
303.0,0.0006407
303.5,0.0008162
304.0,0.0007798
304.5,0.001222
305.0,0.00199
305.5,0.002386
306.0,0.002347
306.5,0.003009
307.0,0.004782
307.5,0.006802
308.0,0.007247
308.5,0.008841
309.0,0.009015
309.5,0.01058
310.0,0.01074
310.5,0.01747
311.0,0.02212
311.5,0.0214
312.0,0.0219
312.5,0.02707
313.0,0.02957
313.5,0.02836
314.0,0.03618
314.5,0.03303
315.0,0.04353
315.5,0.03572
316.0,0.03195
316.5,0.04688
317.0,0.058
317.5,0.05974
318.0,0.04726
318.5,0.06052
319.0,0.07289
319.5,0.05756
320.0,0.06904
320.5,0.08928
321.0,0.08199
321.5,0.07863
322.0,0.08055
322.5,0.06998
323.0,0.07114
323.5,0.08915
324.0,0.1041
324.5,0.1045
325.0,0.08877
325.5,0.1161
326.0,0.1422
326.5,0.1436
327.0,0.142
327.5,0.136
328.0,0.119
328.5,0.1269
329.0,0.1539
329.5,0.1751
330.0,0.1753
330.5,0.1381
331.0,0.1397
331.5,0.1428
332.0,0.156
332.5,0.155
333.0,0.1534
333.5,0.1369
334.0,0.1395
334.5,0.1625
335.0,0.1534
335.5,0.1807
336.0,0.1247
336.5,0.1433
337.0,0.1165
337.5,0.1442
338.0,0.1418
338.5,0.1649
339.0,0.1623
339.5,0.1559
340.0,0.181
340.5,0.1628
341.0,0.1594
341.5,0.1453
342.0,0.1729
342.5,0.1611
343.0,0.177
343.5,0.1665
344.0,0.1221
344.5,0.124
345.0,0.1626
345.5,0.1652
346.0,0.1398
346.5,0.1577
347.0,0.169
347.5,0.1363
348.0,0.1546
348.5,0.1539
349.0,0.1422
349.5,0.1404
350.0,0.1731
350.5,0.182
351.0,0.1621
351.5,0.1575
352.0,0.1683
352.5,0.1307
353.0,0.1641
353.5,0.1748
354.0,0.1808
354.5,0.1828
355.0,0.1816
355.5,0.1635
356.0,0.1705
356.5,0.1451
357.0,0.1195
357.5,0.1458
358.0,0.1151
358.5,0.09805
359.0,0.1367
359.5,0.1737
360.0,0.1834
360.5,0.1461
361.0,0.1327
361.5,0.1523
362.0,0.1313
362.5,0.1811
363.0,0.1621
363.5,0.1488
364.0,0.1814
364.5,0.1545
365.0,0.1569
365.5,0.1962
366.0,0.2072
366.5,0.194
367.0,0.1883
367.5,0.1948
368.0,0.1699
368.5,0.1708
369.0,0.1839
369.5,0.1953
370.0,0.2075
370.5,0.1605
371.0,0.1709
371.5,0.2131
372.0,0.141
372.5,0.1685
373.0,0.1708
373.5,0.1107
374.0,0.1604
374.5,0.1324
375.0,0.1282
375.5,0.1908
376.0,0.1576
376.5,0.1628
377.0,0.1717
377.5,0.2002
378.0,0.2163
378.5,0.2037
379.0,0.1675
379.5,0.1524
380.0,0.1579
380.5,0.1906
381.0,0.1903
381.5,0.1503
382.0,0.133
382.5,0.113
383.0,0.1042
383.5,0.1
384.0,0.1099
384.5,0.1612
385.0,0.1593
385.5,0.1478
386.0,0.1261
386.5,0.1651
387.0,0.1367
387.5,0.153
388.0,0.1407
388.5,0.1386
389.0,0.1491
389.5,0.1799
390.0,0.18
390.5,0.165
391.0,0.1935
391.5,0.1967
392.0,0.1651
392.5,0.1472
393.0,0.08164
393.5,0.05914
394.0,0.1199
394.5,0.1519
395.0,0.1847
395.5,0.187
396.0,0.1615
396.5,0.09409
397.0,0.07036
397.5,0.1426
398.0,0.1989
398.5,0.2049
399.0,0.2211
399.5,0.2196
400.0,0.2272
401.0,0.2232
402.0,0.2338
403.0,0.2205
404.0,0.2155
405.0,0.2139
406.0,0.2089
407.0,0.204
408.0,0.2104
409.0,0.2236
410.0,0.194
411.0,0.2087
412.0,0.2225
413.0,0.2155
414.0,0.2165
415.0,0.2155
416.0,0.2176
417.0,0.2107
418.0,0.2052
419.0,0.2064
420.0,0.204
421.0,0.2118
422.0,0.1997
423.0,0.1936
424.0,0.2032
425.0,0.2013
426.0,0.1946
427.0,0.1896
428.0,0.1834
429.0,0.1725
430.0,0.1499
431.0,0.1474
432.0,0.1889
433.0,0.1885
434.0,0.1737
435.0,0.1801
436.0,0.2015
437.0,0.1974
438.0,0.1785
439.0,0.1832
440.0,0.1876
441.0,0.1928
442.0,0.2051
443.0,0.1983
444.0,0.2012
445.0,0.1955
446.0,0.1853
447.0,0.1989
448.0,0.2004
449.0,0.1996
450.0,0.2036
451.0,0.2095
452.0,0.2004
453.0,0.1872
454.0,0.194
455.0,0.1937
456.0,0.1967
457.0,0.1983
458.0,0.19
459.0,0.1874
460.0,0.1864
461.0,0.1892
462.0,0.1893
463.0,0.1868
464.0,0.1827
465.0,0.1792
466.0,0.1797
467.0,0.175
468.0,0.1756
469.0,0.175
470.0,0.1682
471.0,0.1668
472.0,0.1746
473.0,0.1711
474.0,0.17
475.0,0.1701
476.0,0.1636
477.0,0.1626
478.0,0.1656
479.0,0.1631
480.0,0.162
481.0,0.1635
482.0,0.1631
483.0,0.16
484.0,0.1557
485.0,0.1474
486.0,0.128
487.0,0.1333
488.0,0.1451
489.0,0.1444
490.0,0.1507
491.0,0.147
492.0,0.1378
493.0,0.1412
494.0,0.1416
495.0,0.1417
496.0,0.1415
497.0,0.1425
498.0,0.1347
499.0,0.1352
500.0,0.13
501.0,0.1264
502.0,0.1234
503.0,0.1272
504.0,0.1229
505.0,0.1263
506.0,0.1295
507.0,0.1224
508.0,0.1178
509.0,0.1204
510.0,0.119
511.0,0.1214
512.0,0.1219
513.0,0.1145
514.0,0.1128
515.0,0.1108
516.0,0.1097
517.0,0.0968
518.0,0.101
519.0,0.1052
520.0,0.1081
521.0,0.1083
522.0,0.1075
523.0,0.1048
524.0,0.1076
525.0,0.108
526.0,0.1023
527.0,0.09553
528.0,0.1001
529.0,0.1047
530.0,0.1024
531.0,0.1031
532.0,0.09882
533.0,0.09525
534.0,0.0974
535.0,0.0989
536.0,0.09916
537.0,0.09461
538.0,0.09562
539.0,0.09419
540.0,0.08969
541.0,0.08959
542.0,0.09165
543.0,0.09001
544.0,0.09095
545.0,0.09009
546.0,0.08983
547.0,0.08915
548.0,0.08746
549.0,0.08714
550.0,0.08758
551.0,0.0859
552.0,0.08589
553.0,0.08375
554.0,0.08515
555.0,0.0847
556.0,0.08297
557.0,0.07976
558.0,0.07851
559.0,0.0764
560.0,0.07672
561.0,0.07708
562.0,0.07588
563.0,0.07733
564.0,0.07466
565.0,0.07348
566.0,0.07185
567.0,0.07265
568.0,0.07144
569.0,0.06916
570.0,0.06867
571.0,0.06779
572.0,0.06886
573.0,0.06914
574.0,0.0685
575.0,0.06681
576.0,0.06581
577.0,0.06615
578.0,0.06482
579.0,0.06477
580.0,0.06571
581.0,0.06572
582.0,0.06663
583.0,0.06648
584.0,0.06674
585.0,0.06476
586.0,0.06302
587.0,0.06396
588.0,0.06193
589.0,0.05432
590.0,0.05649
591.0,0.05952
592.0,0.0583
593.0,0.05882
594.0,0.05794
595.0,0.05604
596.0,0.05801
597.0,0.05694
598.0,0.05642
599.0,0.05608
600.0,0.05583
601.0,0.05505
602.0,0.05436
603.0,0.05494
604.0,0.05554
605.0,0.05498
606.0,0.0545
607.0,0.05481
608.0,0.05396
609.0,0.05381
610.0,0.0532
611.0,0.05326
612.0,0.05288
613.0,0.05198
614.0,0.05104
615.0,0.05193
616.0,0.05
617.0,0.04968
618.0,0.05136
619.0,0.05061
620.0,0.05068
621.0,0.05048
622.0,0.04962
623.0,0.04859
624.0,0.04752
625.0,0.0472
626.0,0.04769
627.0,0.04795
628.0,0.04413
629.0,0.04619
630.0,0.04489
631.0,0.04582
632.0,0.04509
633.0,0.04632
634.0,0.04572
635.0,0.04623
636.0,0.04542
637.0,0.04598
638.0,0.04624
639.0,0.04554
640.0,0.0449
641.0,0.04467
642.0,0.0443
643.0,0.04471
644.0,0.04439
645.0,0.04423
646.0,0.04293
647.0,0.04212
648.0,0.04193
649.0,0.04092
650.0,0.04106
651.0,0.04266
652.0,0.04051
653.0,0.0417
654.0,0.04106
655.0,0.03925
656.0,0.03468
657.0,0.03546
658.0,0.03962
659.0,0.03974
660.0,0.03972
661.0,0.03981
662.0,0.03969
663.0,0.03875
664.0,0.03907
665.0,0.03894
666.0,0.0388
667.0,0.03862
668.0,0.03848
669.0,0.0389
670.0,0.03855
671.0,0.03838
672.0,0.03791
673.0,0.03835
674.0,0.03802
675.0,0.0375
676.0,0.03759
677.0,0.03707
678.0,0.03703
679.0,0.03627
680.0,0.0364
681.0,0.03599
682.0,0.03577
683.0,0.03553
684.0,0.03518
685.0,0.0353
686.0,0.03493
687.0,0.02169
688.0,0.0259
689.0,0.02588
690.0,0.02724
691.0,0.0288
692.0,0.02995
693.0,0.02953
694.0,0.02911
695.0,0.03037
696.0,0.03026
697.0,0.03229
698.0,0.03164
699.0,0.03055
700.0,0.03004
701.0,0.02956
702.0,0.0297
703.0,0.02961
704.0,0.03052
705.0,0.03041
706.0,0.03028
707.0,0.03018
708.0,0.0301
709.0,0.03005
710.0,0.02987
711.0,0.02975
712.0,0.02958
713.0,0.02911
714.0,0.02907
715.0,0.02794
716.0,0.02781
717.0,0.02343
718.0,0.02123
719.0,0.0192
720.0,0.02007
721.0,0.02242
722.0,0.02605
723.0,0.02385
724.0,0.02109
725.0,0.02061
726.0,0.02159
727.0,0.02184
728.0,0.02028
729.0,0.02112
730.0,0.02233
731.0,0.02116
732.0,0.02276
733.0,0.02421
734.0,0.02472
735.0,0.02406
736.0,0.02393
737.0,0.0239
738.0,0.02429
739.0,0.02368
740.0,0.02422
741.0,0.02389
742.0,0.02382
743.0,0.0243
744.0,0.02412
745.0,0.02401
746.0,0.02401
747.0,0.02395
748.0,0.02378
749.0,0.02339
750.0,0.02327
751.0,0.02294
752.0,0.02294
753.0,0.02295
754.0,0.02289
755.0,0.02266
756.0,0.02255
757.0,0.02248
758.0,0.0221
759.0,0.02147
760.0,0.002952
761.0,0.00152
762.0,0.00975
763.0,0.004537
764.0,0.007014
765.0,0.009601
766.0,0.01214
767.0,0.01575
768.0,0.01857
769.0,0.01899
770.0,0.01968
771.0,0.01981
772.0,0.01977
773.0,0.01981
774.0,0.01961
775.0,0.01937
776.0,0.01951
777.0,0.01916
778.0,0.01894
779.0,0.01886
780.0,0.01867
781.0,0.0186
782.0,0.01864
783.0,0.01824
784.0,0.01825
785.0,0.01803
786.0,0.01815
787.0,0.0177
788.0,0.01738
789.0,0.01728
790.0,0.01666
791.0,0.01681
792.0,0.01661
793.0,0.01626
794.0,0.01655
795.0,0.01673
796.0,0.01603
797.0,0.01599
798.0,0.01648
799.0,0.01628
800.0,0.01589
801.0,0.01575
802.0,0.01563
803.0,0.01543
804.0,0.01539
805.0,0.0153
806.0,0.0157
807.0,0.01542
808.0,0.01537
809.0,0.01497
810.0,0.01475
811.0,0.01466
812.0,0.0141
813.0,0.01369
814.0,0.01174
815.0,0.01161
816.0,0.01065
817.0,0.01083
818.0,0.01034
819.0,0.01173
820.0,0.01091
821.0,0.01304
822.0,0.01255
823.0,0.007993
824.0,0.012
825.0,0.01256
826.0,0.01194
827.0,0.01267
828.0,0.0104
829.0,0.01173
830.0,0.0115
831.0,0.01151
832.0,0.01105
833.0,0.01189
834.0,0.01133
835.0,0.01258
836.0,0.01188
837.0,0.01251
838.0,0.01203
839.0,0.01223
840.0,0.01245
841.0,0.0122
842.0,0.0122
843.0,0.01217
844.0,0.01193
845.0,0.0123
846.0,0.0122
847.0,0.01193
848.0,0.01178
849.0,0.0114
850.0,0.01087
851.0,0.01144
852.0,0.01131
853.0,0.01084
854.0,0.00931
855.0,0.0102
856.0,0.0111
857.0,0.01131
858.0,0.01118
859.0,0.01115
860.0,0.01112
861.0,0.01102
862.0,0.01115
863.0,0.01137
864.0,0.01076
865.0,0.01063
866.0,0.009515
867.0,0.009889
868.0,0.01072
869.0,0.01045
870.0,0.01071
871.0,0.01052
872.0,0.01044
873.0,0.01037
874.0,0.0102
875.0,0.009951
876.0,0.01001
877.0,0.01007
878.0,0.01013
879.0,0.009935
880.0,0.009682
881.0,0.00949
882.0,0.009655
883.0,0.009653
884.0,0.009563
885.0,0.009591
886.0,0.009079
887.0,0.009157
888.0,0.00924
889.0,0.009328
890.0,0.009182
891.0,0.009143
892.0,0.008815
893.0,0.008457
894.0,0.008048
895.0,0.007476
896.0,0.006927
897.0,0.005777
898.0,0.006369
899.0,0.004617
900.0,0.006538
901.0,0.004865
902.0,0.005858
903.0,0.005852
904.0,0.007661
905.0,0.007318
906.0,0.006769
907.0,0.005259
908.0,0.00538
909.0,0.005908
910.0,0.005058
911.0,0.005451
912.0,0.005718
913.0,0.005069
914.0,0.005016
915.0,0.005478
916.0,0.004507
917.0,0.005943
918.0,0.004603
919.0,0.006024
920.0,0.00611
921.0,0.006393
922.0,0.00557
923.0,0.006129
924.0,0.005671
925.0,0.005508
926.0,0.005562
927.0,0.006314
928.0,0.004324
929.0,0.00387
930.0,0.002909
931.0,0.002732
932.0,0.001868
933.0,0.001473
934.0,0.0007513
935.0,0.001509
936.0,0.0008923
937.0,0.0008996
938.0,0.001122
939.0,0.002557
940.0,0.003156
941.0,0.002276
942.0,0.002678
943.0,0.001657
944.0,0.001769
945.0,0.002314
946.0,0.001079
947.0,0.002297
948.0,0.001628
949.0,0.003186
950.0,0.0007524
951.0,0.003117
952.0,0.001526
953.0,0.002037
954.0,0.002583
955.0,0.00206
956.0,0.001999
957.0,0.001498
958.0,0.002962
959.0,0.002245
960.0,0.002542
961.0,0.002909
962.0,0.002722
963.0,0.003211
964.0,0.00289
965.0,0.003176
966.0,0.003161
967.0,0.003126
968.0,0.004462
969.0,0.00466
970.0,0.004197
971.0,0.004939
972.0,0.00466
973.0,0.003914
974.0,0.003673
975.0,0.003829
976.0,0.003572
977.0,0.004182
978.0,0.003905
979.0,0.004121
980.0,0.003812
981.0,0.004725
982.0,0.004452
983.0,0.004226
984.0,0.004868
985.0,0.004387
986.0,0.004947
987.0,0.0048
988.0,0.004771
989.0,0.004894
990.0,0.004708
991.0,0.004861
992.0,0.004874
993.0,0.004718
994.0,0.004842
995.0,0.004823
996.0,0.004778
997.0,0.00477
998.0,0.004728
999.0,0.004695
1000.0,0.004637
1001.0,0.004687
1002.0,0.004508
1003.0,0.004567
1004.0,0.004429
1005.0,0.004262
1006.0,0.004404
1007.0,0.004483
1008.0,0.004437
1009.0,0.00439
1010.0,0.004352
1011.0,0.004395
1012.0,0.004333
1013.0,0.004353
1014.0,0.004307
1015.0,0.004262
1016.0,0.004225
1017.0,0.004218
1018.0,0.00419
1019.0,0.004072
1020.0,0.004133
1021.0,0.004113
1022.0,0.004061
1023.0,0.004089
1024.0,0.004009
1025.0,0.00406
1026.0,0.004024
1027.0,0.004
1028.0,0.003976
1029.0,0.003914
1030.0,0.00393
1031.0,0.003898
1032.0,0.003873
1033.0,0.003799
1034.0,0.003785
1035.0,0.003782
1036.0,0.003786
1037.0,0.003711
1038.0,0.003714
1039.0,0.003698
1040.0,0.003669
1041.0,0.003668
1042.0,0.003629
1043.0,0.003604
1044.0,0.003603
1045.0,0.00354
1046.0,0.003487
1047.0,0.003504
1048.0,0.00351
1049.0,0.003485
1050.0,0.003455
1051.0,0.003436
1052.0,0.003408
1053.0,0.003368
1054.0,0.003363
1055.0,0.003351
1056.0,0.003324
1057.0,0.003301
1058.0,0.003207
1059.0,0.003198
1060.0,0.00318
1061.0,0.003164
1062.0,0.003167
1063.0,0.003124
1064.0,0.00315
1065.0,0.003112
1066.0,0.003042
1067.0,0.003069
1068.0,0.002988
1069.0,0.002887
1070.0,0.002971
1071.0,0.003015
1072.0,0.002962
1073.0,0.002912
1074.0,0.002986
1075.0,0.0028
1076.0,0.00296
1077.0,0.002881
1078.0,0.002811
1079.0,0.002885
1080.0,0.002802
1081.0,0.002695
1082.0,0.00275
1083.0,0.002753
1084.0,0.00265
1085.0,0.002764
1086.0,0.002465
1087.0,0.002574
1088.0,0.002695
1089.0,0.002579
1090.0,0.002493
1091.0,0.00265
1092.0,0.002639
1093.0,0.002154
1094.0,0.00239
1095.0,0.002244
1096.0,0.002119
1097.0,0.002535
1098.0,0.002065
1099.0,0.002158
1100.0,0.001963
1101.0,0.001992
1102.0,0.001879
1103.0,0.001841
1104.0,0.00184
1105.0,0.002056
1106.0,0.001467
1107.0,0.001917
1108.0,0.001556
1109.0,0.001559
1110.0,0.001873
1111.0,0.001171
1112.0,0.001533
1113.0,0.0008914
1114.0,0.001006
1115.0,0.0008133
1116.0,0.0006193
1117.0,0.0002011
1118.0,0.0006787
1119.0,0.0003077
1120.0,0.0003913
1121.0,0.0005345
1122.0,0.0002045
1123.0,0.0003475
1124.0,0.000289
1125.0,0.0003856
1126.0,0.0001202
1127.0,0.0004361
1128.0,0.0002435
1129.0,0.0002594
1130.0,0.0001643
1131.0,0.0008924
1132.0,0.0006748
1133.0,0.0003979
1134.0,8.997e-05
1135.0,3.294e-05
1136.0,0.0003202
1137.0,0.0008525
1138.0,0.0005756
1139.0,0.000922
1140.0,0.0007414
1141.0,0.0005391
1142.0,0.0006314
1143.0,0.0009409
1144.0,0.0002861
1145.0,0.0003673
1146.0,0.0003967
1147.0,0.0001252
1148.0,0.0007861
1149.0,0.000603
1150.0,0.0003042
1151.0,0.0005456
1152.0,0.0006932
1153.0,0.0006782
1154.0,0.0003439
1155.0,0.0009155
1156.0,0.0008059
1157.0,0.0009241
1158.0,0.0009097
1159.0,0.0009975
1160.0,0.0008259
1161.0,0.00106
1162.0,0.001057
1163.0,0.001517
1164.0,0.001258
1165.0,0.001162
1166.0,0.001158
1167.0,0.001276
1168.0,0.001285
1169.0,0.001324
1170.0,0.001456
1171.0,0.001408
1172.0,0.001438
1173.0,0.001438
1174.0,0.0009575
1175.0,0.001401
1176.0,0.001565
1177.0,0.00148
1178.0,0.001049
1179.0,0.001563
1180.0,0.001353
1181.0,0.0014
1182.0,0.0009
1183.0,0.001377
1184.0,0.001263
1185.0,0.001202
1186.0,0.001474
1187.0,0.001383
1188.0,0.0009008
1189.0,0.001273
1190.0,0.001419
1191.0,0.001322
1192.0,0.001433
1193.0,0.001357
1194.0,0.001403
1195.0,0.001308
1196.0,0.001245
1197.0,0.001403
1198.0,0.00126
1199.0,0.001033
1200.0,0.001313
1201.0,0.001251
1202.0,0.001243
1203.0,0.001234
1204.0,0.001045
1205.0,0.001271
1206.0,0.001429
1207.0,0.001222
1208.0,0.00121
1209.0,0.001232
1210.0,0.00129
1211.0,0.00121
1212.0,0.001181
1213.0,0.001346
1214.0,0.001209
1215.0,0.001178
1216.0,0.001329
1217.0,0.001283
1218.0,0.001309
1219.0,0.001286
1220.0,0.001303
1221.0,0.001316
1222.0,0.001272
1223.0,0.001253
1224.0,0.001238
1225.0,0.00129
1226.0,0.001299
1227.0,0.001177
1228.0,0.0013
1229.0,0.001287
1230.0,0.001257
1231.0,0.001299
1232.0,0.001287
1233.0,0.001226
1234.0,0.001288
1235.0,0.001274
1236.0,0.001281
1237.0,0.001254
1238.0,0.001268
1239.0,0.001248
1240.0,0.001249
1241.0,0.001236
1242.0,0.001232
1243.0,0.001218
1244.0,0.001221
1245.0,0.001223
1246.0,0.001212
1247.0,0.001203
1248.0,0.001197
1249.0,0.001198
1250.0,0.001186
1251.0,0.001165
1252.0,0.001164
1253.0,0.001147
1254.0,0.001128
1255.0,0.00115
1256.0,0.001107
1257.0,0.001096
1258.0,0.001119
1259.0,0.001064
1260.0,0.001067
1261.0,0.0009906
1262.0,0.0009511
1263.0,0.0009498
1264.0,0.0008586
1265.0,0.0009386
1266.0,0.0008912
1267.0,0.0009105
1268.0,0.0008507
1269.0,0.0004735
1270.0,0.0008972
1271.0,0.0009618
1272.0,0.0009635
1273.0,0.0009487
1274.0,0.0009507
1275.0,0.000964
1276.0,0.0009729
1277.0,0.0009789
1278.0,0.001
1279.0,0.0009877
1280.0,0.0009724
1281.0,0.0009275
1282.0,0.0008951
1283.0,0.0009602
1284.0,0.0009791
1285.0,0.0009831
1286.0,0.0009958
1287.0,0.0009728
1288.0,0.0009706
1289.0,0.0009287
1290.0,0.0009565
1291.0,0.0009681
1292.0,0.000891
1293.0,0.0009391
1294.0,0.0009286
1295.0,0.0009181
1296.0,0.0008637
1297.0,0.0008058
1298.0,0.0008807
1299.0,0.0009241
1300.0,0.0007507
1301.0,0.0007774
1302.0,0.0008681
1303.0,0.0007355
1304.0,0.0006029
1305.0,0.000839
1306.0,0.0008359
1307.0,0.0006147
1308.0,0.0007264
1309.0,0.0008201
1310.0,0.0005958
1311.0,0.0006846
1312.0,0.0006626
1313.0,0.0006433
1314.0,0.0005613
1315.0,0.0005521
1316.0,0.0006617
1317.0,0.0006184
1318.0,0.0006823
1319.0,0.0005036
1320.0,0.0004862
1321.0,0.0005804
1322.0,0.0005834
1323.0,0.0004144
1324.0,0.0004857
1325.0,0.0006323
1326.0,0.000525
1327.0,0.0004947
1328.0,0.000415
1329.0,0.0002955
1330.0,0.0003977
1331.0,0.0002211
1332.0,0.0002301
1333.0,0.0003314
1334.0,0.0002777
1335.0,0.0003981
1336.0,0.0003018
1337.0,0.0002614
1338.0,0.0002843
1339.0,0.0002832
1340.0,0.000275
1341.0,0.0002635
1342.0,0.0002777
1343.0,0.000175
1344.0,0.0001009
1345.0,0.000149
1346.0,6.842e-05
1347.0,6.907e-05
1348.0,4.111e-06
1349.0,1.5e-05
1350.0,1.561e-05
1351.0,3.68e-06
1352.0,9.822e-07
1353.0,4.985e-08
1354.0,1.715e-07
1355.0,1.379e-09
1356.0,2.414e-08
1357.0,3.668e-08
1358.0,1.619e-09
1359.0,2.039e-10
1360.0,7.37e-10
1361.0,8.244e-13
1362.0,2.255e-15
