interpolation:linear
wavelength,value
280.0,1.459e-21
280.5,4.659e-20
281.0,2.473e-19
281.5,4.852e-19
282.0,9.997e-19
282.5,2.516e-18
283.0,7.972e-18
283.5,1.297e-17
284.0,2.098e-16
284.5,6.061e-16
285.0,1.258e-15
285.5,6.035e-15
286.0,2.408e-14
286.5,1.062e-13
287.0,3.01e-13
287.5,1.142e-12
288.0,3.364e-12
288.5,1.069e-11
289.0,2.939e-11
289.5,9.071e-11
290.0,2.55e-10
290.5,5.241e-10
291.0,1.133e-09
291.5,3.269e-09
292.0,6.636e-09
292.5,9.707e-09
293.0,2.189e-08
293.5,5.678e-08
294.0,9.256e-08
294.5,1.2e-07
295.0,2.099e-07
295.5,4.974e-07
296.0,9.092e-07
296.5,1.302e-06
297.0,1.8e-06
297.5,5.026e-06
298.0,8.255e-06
298.5,8.615e-06
299.0,1.979e-05
299.5,3.59e-05
300.0,4.188e-05
300.5,6.502e-05
301.0,0.000135
301.5,0.0002525
302.0,0.0002386
302.5,0.0004675
303.0,0.0008435
303.5,0.001068
304.0,0.001016
304.5,0.001573
305.0,0.002518
305.5,0.002984
306.0,0.002921
306.5,0.003717
307.0,0.005808
307.5,0.008124
308.0,0.00863
308.5,0.01044
309.0,0.01059
309.5,0.01227
310.0,0.01239
310.5,0.02009
311.0,0.02532
311.5,0.02445
312.0,0.02479
312.5,0.03044
313.0,0.03314
313.5,0.03187
314.0,0.04035
314.5,0.03649
315.0,0.048
315.5,0.03956
316.0,0.03511
316.5,0.05116
317.0,0.06329
317.5,0.0653
318.0,0.05142
318.5,0.06528
319.0,0.07827
319.5,0.06223
320.0,0.0747
320.5,0.09575
321.0,0.08723
321.5,0.08358
322.0,0.08632
322.5,0.07495
323.0,0.07577
323.5,0.0946
324.0,0.1103
324.5,0.111
325.0,0.09438
325.5,0.1229
326.0,0.1505
326.5,0.1516
327.0,0.1501
327.5,0.1439
328.0,0.1263
328.5,0.1341
329.0,0.162
329.5,0.1841
330.0,0.1845
330.5,0.1457
331.0,0.1475
331.5,0.1504
332.0,0.1639
332.5,0.1625
333.0,0.1609
333.5,0.1439
334.0,0.1467
334.5,0.1704
335.0,0.1606
335.5,0.1894
336.0,0.1306
336.5,0.15
337.0,0.1221
337.5,0.1511
338.0,0.1484
338.5,0.1726
339.0,0.1698
339.5,0.1631
340.0,0.1892
340.5,0.1701
341.0,0.1666
341.5,0.1517
342.0,0.1805
342.5,0.1682
343.0,0.1848
343.5,0.1738
344.0,0.1274
344.5,0.1295
345.0,0.1697
345.5,0.1723
346.0,0.1457
346.5,0.1644
347.0,0.1762
347.5,0.1421
348.0,0.161
348.5,0.1602
349.0,0.1481
349.5,0.1462
350.0,0.1801
350.5,0.1894
351.0,0.1687
351.5,0.164
352.0,0.1751
352.5,0.136
353.0,0.1706
353.5,0.1817
354.0,0.188
354.5,0.19
355.0,0.1887
355.5,0.1699
356.0,0.1771
356.5,0.1507
357.0,0.1241
357.5,0.1513
358.0,0.1195
358.5,0.1018
359.0,0.1419
359.5,0.1802
360.0,0.1903
360.5,0.1516
361.0,0.1377
361.5,0.158
362.0,0.1361
362.5,0.1878
363.0,0.1681
363.5,0.1543
364.0,0.188
364.5,0.1601
365.0,0.1625
365.5,0.2033
366.0,0.2146
366.5,0.2009
367.0,0.195
367.5,0.2016
368.0,0.1758
368.5,0.1768
369.0,0.1903
369.5,0.2021
370.0,0.2147
370.5,0.166
371.0,0.1768
371.5,0.2204
372.0,0.1458
372.5,0.1742
373.0,0.1765
373.5,0.1145
374.0,0.1657
374.5,0.1368
375.0,0.1325
375.5,0.1971
376.0,0.1628
376.5,0.1681
377.0,0.1774
377.5,0.2068
378.0,0.2233
378.5,0.2103
379.0,0.1729
379.5,0.1573
380.0,0.163
380.5,0.1966
381.0,0.1963
381.5,0.155
382.0,0.1372
382.5,0.1165
383.0,0.1075
383.5,0.1031
384.0,0.1133
384.5,0.1661
385.0,0.1641
385.5,0.1523
386.0,0.13
386.5,0.1701
387.0,0.1408
387.5,0.1576
388.0,0.145
388.5,0.1428
389.0,0.1535
389.5,0.1853
390.0,0.1853
390.5,0.1699
391.0,0.1992
391.5,0.2024
392.0,0.1698
392.5,0.1515
393.0,0.08399
393.5,0.06083
394.0,0.1233
394.5,0.1563
395.0,0.19
395.5,0.1923
396.0,0.1661
396.5,0.09673
397.0,0.07232
397.5,0.1465
398.0,0.2044
398.5,0.2105
399.0,0.2272
399.5,0.2256
400.0,0.2334
401.0,0.2293
402.0,0.2401
403.0,0.2264
404.0,0.2212
405.0,0.2196
406.0,0.2144
407.0,0.2093
408.0,0.2158
409.0,0.2293
410.0,0.199
411.0,0.2139
412.0,0.2281
413.0,0.2208
414.0,0.2219
415.0,0.2208
416.0,0.2229
417.0,0.2158
418.0,0.2102
419.0,0.2113
420.0,0.2088
421.0,0.2168
422.0,0.2044
423.0,0.1981
424.0,0.2079
425.0,0.2059
426.0,0.1991
427.0,0.1939
428.0,0.1876
429.0,0.1764
430.0,0.1532
431.0,0.1507
432.0,0.193
433.0,0.1926
434.0,0.1774
435.0,0.1839
436.0,0.2058
437.0,0.2016
438.0,0.1822
439.0,0.187
440.0,0.1915
441.0,0.1968
442.0,0.2094
443.0,0.2024
444.0,0.2054
445.0,0.1995
446.0,0.1891
447.0,0.2029
448.0,0.2044
449.0,0.2036
450.0,0.2076
451.0,0.2137
452.0,0.2043
453.0,0.1908
454.0,0.1978
455.0,0.1974
456.0,0.2005
457.0,0.2021
458.0,0.1936
459.0,0.191
460.0,0.19
461.0,0.1928
462.0,0.1929
463.0,0.1904
464.0,0.1861
465.0,0.1825
466.0,0.183
467.0,0.1782
468.0,0.1788
469.0,0.1782
470.0,0.1713
471.0,0.1699
472.0,0.1777
473.0,0.1741
474.0,0.173
475.0,0.1731
476.0,0.1665
477.0,0.1655
478.0,0.1686
479.0,0.1661
480.0,0.165
481.0,0.1665
482.0,0.1661
483.0,0.1629
484.0,0.1585
485.0,0.15
486.0,0.1303
487.0,0.1356
488.0,0.1476
489.0,0.1469
490.0,0.1533
491.0,0.1495
492.0,0.1401
493.0,0.1437
494.0,0.144
495.0,0.1442
496.0,0.144
497.0,0.145
498.0,0.1371
499.0,0.1376
500.0,0.1323
501.0,0.1287
502.0,0.1257
503.0,0.1296
504.0,0.1251
505.0,0.1287
506.0,0.1319
507.0,0.1246
508.0,0.12
509.0,0.1226
510.0,0.1212
511.0,0.1236
512.0,0.1241
513.0,0.1165
514.0,0.1148
515.0,0.1128
516.0,0.1117
517.0,0.09856
518.0,0.1029
519.0,0.1071
520.0,0.1101
521.0,0.1103
522.0,0.1095
523.0,0.1067
524.0,0.1097
525.0,0.11
526.0,0.1043
527.0,0.09737
528.0,0.1021
529.0,0.1067
530.0,0.1044
531.0,0.1051
532.0,0.1008
533.0,0.09714
534.0,0.09934
535.0,0.1009
536.0,0.1011
537.0,0.09648
538.0,0.0975
539.0,0.09605
540.0,0.09147
541.0,0.09137
542.0,0.09349
543.0,0.09182
544.0,0.09279
545.0,0.09192
546.0,0.09165
547.0,0.09096
548.0,0.08925
549.0,0.08892
550.0,0.08936
551.0,0.08766
552.0,0.08764
553.0,0.08547
554.0,0.0869
555.0,0.08645
556.0,0.08469
557.0,0.08142
558.0,0.08015
559.0,0.07801
560.0,0.07835
561.0,0.07873
562.0,0.07752
563.0,0.07901
564.0,0.07629
565.0,0.07509
566.0,0.07343
567.0,0.07426
568.0,0.07303
569.0,0.07071
570.0,0.07022
571.0,0.06932
572.0,0.07042
573.0,0.07071
574.0,0.07006
575.0,0.06833
576.0,0.0673
577.0,0.06764
578.0,0.06628
579.0,0.06622
580.0,0.06717
581.0,0.06717
582.0,0.06809
583.0,0.06793
584.0,0.06819
585.0,0.06616
586.0,0.06438
587.0,0.06533
588.0,0.06327
589.0,0.05552
590.0,0.05773
591.0,0.06083
592.0,0.05959
593.0,0.06012
594.0,0.05923
595.0,0.05729
596.0,0.0593
597.0,0.05822
598.0,0.05769
599.0,0.05735
600.0,0.05709
601.0,0.0563
602.0,0.05559
603.0,0.05618
604.0,0.05679
605.0,0.05621
606.0,0.05572
607.0,0.05602
608.0,0.05514
609.0,0.05498
610.0,0.05435
611.0,0.0544
612.0,0.05401
613.0,0.05308
614.0,0.05211
615.0,0.05301
616.0,0.05104
617.0,0.0507
618.0,0.05241
619.0,0.05164
620.0,0.05171
621.0,0.05149
622.0,0.05062
623.0,0.04957
624.0,0.04847
625.0,0.04814
626.0,0.04863
627.0,0.0489
628.0,0.04503
629.0,0.04711
630.0,0.04578
631.0,0.04671
632.0,0.04596
633.0,0.04721
634.0,0.04658
635.0,0.0471
636.0,0.04627
637.0,0.04683
638.0,0.04709
639.0,0.04636
640.0,0.04571
641.0,0.04547
642.0,0.04509
643.0,0.04551
644.0,0.04517
645.0,0.04501
646.0,0.04369
647.0,0.04286
648.0,0.04266
649.0,0.04163
650.0,0.04176
651.0,0.04339
652.0,0.04121
653.0,0.0424
654.0,0.04175
655.0,0.03991
656.0,0.03525
657.0,0.03605
658.0,0.04027
659.0,0.04039
660.0,0.04036
661.0,0.04045
662.0,0.04033
663.0,0.03937
664.0,0.03969
665.0,0.03956
666.0,0.03941
667.0,0.03922
668.0,0.03907
669.0,0.0395
670.0,0.03914
671.0,0.03896
672.0,0.03848
673.0,0.03893
674.0,0.03859
675.0,0.03806
676.0,0.03815
677.0,0.03762
678.0,0.03757
679.0,0.0368
680.0,0.03693
681.0,0.03651
682.0,0.03629
683.0,0.03605
684.0,0.03568
685.0,0.03581
686.0,0.03543
687.0,0.02209
688.0,0.02634
689.0,0.02632
690.0,0.02768
691.0,0.02926
692.0,0.0304
693.0,0.02998
694.0,0.02955
695.0,0.03081
696.0,0.0307
697.0,0.03274
698.0,0.03208
699.0,0.03099
700.0,0.03046
701.0,0.02998
702.0,0.03012
703.0,0.03003
704.0,0.03094
705.0,0.03083
706.0,0.0307
707.0,0.03059
708.0,0.03051
709.0,0.03046
710.0,0.03028
711.0,0.03015
712.0,0.02997
713.0,0.0295
714.0,0.02946
715.0,0.02832
716.0,0.02819
717.0,0.02378
718.0,0.02155
719.0,0.01948
720.0,0.02038
721.0,0.02274
722.0,0.02641
723.0,0.02418
724.0,0.02139
725.0,0.02091
726.0,0.02191
727.0,0.02215
728.0,0.02057
729.0,0.02142
730.0,0.02265
731.0,0.02146
732.0,0.02307
733.0,0.02453
734.0,0.02504
735.0,0.02438
736.0,0.02425
737.0,0.02422
738.0,0.0246
739.0,0.02399
740.0,0.02453
741.0,0.02419
742.0,0.02412
743.0,0.02461
744.0,0.02442
745.0,0.02431
746.0,0.02431
747.0,0.02425
748.0,0.02408
749.0,0.02368
750.0,0.02356
751.0,0.02322
752.0,0.02322
753.0,0.02323
754.0,0.02317
755.0,0.02294
756.0,0.02283
757.0,0.02276
758.0,0.02237
759.0,0.02174
760.0,0.003002
761.0,0.001541
762.0,0.009929
763.0,0.004621
764.0,0.007146
765.0,0.009777
766.0,0.01234
767.0,0.01599
768.0,0.01882
769.0,0.01924
770.0,0.01992
771.0,0.02005
772.0,0.02001
773.0,0.02005
774.0,0.01985
775.0,0.0196
776.0,0.01975
777.0,0.01939
778.0,0.01917
779.0,0.01909
780.0,0.0189
781.0,0.01883
782.0,0.01887
783.0,0.01846
784.0,0.01847
785.0,0.01825
786.0,0.01837
787.0,0.01792
788.0,0.01759
789.0,0.01749
790.0,0.01687
791.0,0.01701
792.0,0.01681
793.0,0.01645
794.0,0.01674
795.0,0.01693
796.0,0.01623
797.0,0.01618
798.0,0.01668
799.0,0.01648
800.0,0.01609
801.0,0.01594
802.0,0.01582
803.0,0.01562
804.0,0.01558
805.0,0.01548
806.0,0.01589
807.0,0.01561
808.0,0.01555
809.0,0.01516
810.0,0.01493
811.0,0.01485
812.0,0.01428
813.0,0.01387
814.0,0.0119
815.0,0.01177
816.0,0.01079
817.0,0.01098
818.0,0.01048
819.0,0.01189
820.0,0.01106
821.0,0.01321
822.0,0.01271
823.0,0.008104
824.0,0.01216
825.0,0.01272
826.0,0.01209
827.0,0.01282
828.0,0.01054
829.0,0.01188
830.0,0.01165
831.0,0.01165
832.0,0.01119
833.0,0.01204
834.0,0.01148
835.0,0.01274
836.0,0.01203
837.0,0.01267
838.0,0.01217
839.0,0.01237
840.0,0.0126
841.0,0.01234
842.0,0.01235
843.0,0.01231
844.0,0.01207
845.0,0.01245
846.0,0.01234
847.0,0.01207
848.0,0.01192
849.0,0.01153
850.0,0.011
851.0,0.01157
852.0,0.01144
853.0,0.01097
854.0,0.009421
855.0,0.01032
856.0,0.01123
857.0,0.01144
858.0,0.01131
859.0,0.01128
860.0,0.01125
861.0,0.01115
862.0,0.01128
863.0,0.01151
864.0,0.01089
865.0,0.01075
866.0,0.009625
867.0,0.01
868.0,0.01084
869.0,0.01057
870.0,0.01083
871.0,0.01064
872.0,0.01056
873.0,0.01049
874.0,0.01032
875.0,0.01006
876.0,0.01012
877.0,0.01018
878.0,0.01025
879.0,0.01005
880.0,0.009793
881.0,0.0096
882.0,0.009767
883.0,0.009764
884.0,0.009673
885.0,0.009702
886.0,0.009185
887.0,0.009263
888.0,0.009348
889.0,0.009436
890.0,0.00929
891.0,0.00925
892.0,0.008919
893.0,0.008559
894.0,0.008149
895.0,0.007575
896.0,0.007018
897.0,0.005856
898.0,0.006455
899.0,0.004681
900.0,0.006623
901.0,0.004934
902.0,0.005936
903.0,0.005932
904.0,0.007758
905.0,0.007411
906.0,0.006856
907.0,0.005332
908.0,0.005453
909.0,0.005987
910.0,0.005129
911.0,0.005525
912.0,0.005795
913.0,0.005142
914.0,0.005086
915.0,0.005557
916.0,0.00457
917.0,0.006025
918.0,0.004668
919.0,0.006105
920.0,0.006187
921.0,0.006476
922.0,0.005645
923.0,0.006208
924.0,0.00575
925.0,0.005584
926.0,0.00564
927.0,0.006399
928.0,0.00439
929.0,0.003931
930.0,0.002956
931.0,0.002775
932.0,0.001898
933.0,0.001496
934.0,0.0007623
935.0,0.001532
936.0,0.0009048
937.0,0.0009124
938.0,0.001139
939.0,0.002597
940.0,0.003205
941.0,0.002313
942.0,0.002721
943.0,0.001683
944.0,0.001794
945.0,0.002351
946.0,0.001095
947.0,0.002335
948.0,0.001652
949.0,0.003239
950.0,0.0007629
951.0,0.003169
952.0,0.00155
953.0,0.002069
954.0,0.002624
955.0,0.002093
956.0,0.002027
957.0,0.001522
958.0,0.003004
959.0,0.002278
960.0,0.002582
961.0,0.002953
962.0,0.002763
963.0,0.003258
964.0,0.002931
965.0,0.003222
966.0,0.003208
967.0,0.003173
968.0,0.00452
969.0,0.004724
970.0,0.004254
971.0,0.005001
972.0,0.00472
973.0,0.003969
974.0,0.003724
975.0,0.003881
976.0,0.003623
977.0,0.004237
978.0,0.003958
979.0,0.004177
980.0,0.003864
981.0,0.004786
982.0,0.00451
983.0,0.004282
984.0,0.004927
985.0,0.004445
986.0,0.005006
987.0,0.004859
988.0,0.00483
989.0,0.004951
990.0,0.004767
991.0,0.004918
992.0,0.004932
993.0,0.004775
994.0,0.004899
995.0,0.004879
996.0,0.004834
997.0,0.004825
998.0,0.004783
999.0,0.00475
1000.0,0.004692
1001.0,0.004741
1002.0,0.004562
1003.0,0.00462
1004.0,0.004481
1005.0,0.004311
1006.0,0.004455
1007.0,0.004535
1008.0,0.004488
1009.0,0.004442
1010.0,0.004403
1011.0,0.004446
1012.0,0.004384
1013.0,0.004404
1014.0,0.004357
1015.0,0.004311
1016.0,0.004274
1017.0,0.004267
1018.0,0.004238
1019.0,0.00412
1020.0,0.004181
1021.0,0.004161
1022.0,0.004108
1023.0,0.004136
1024.0,0.004056
1025.0,0.004107
1026.0,0.004071
1027.0,0.004046
1028.0,0.004022
1029.0,0.00396
1030.0,0.003976
1031.0,0.003943
1032.0,0.003918
1033.0,0.003843
1034.0,0.003829
1035.0,0.003826
1036.0,0.00383
1037.0,0.003754
1038.0,0.003757
1039.0,0.003741
1040.0,0.003711
1041.0,0.003711
1042.0,0.003671
1043.0,0.003646
1044.0,0.003645
1045.0,0.003581
1046.0,0.003527
1047.0,0.003545
1048.0,0.003552
1049.0,0.003526
1050.0,0.003496
1051.0,0.003477
1052.0,0.003449
1053.0,0.003408
1054.0,0.003403
1055.0,0.00339
1056.0,0.003364
1057.0,0.00334
1058.0,0.003245
1059.0,0.003236
1060.0,0.003218
1061.0,0.003202
1062.0,0.003205
1063.0,0.003161
1064.0,0.003188
1065.0,0.00315
1066.0,0.003079
1067.0,0.003106
1068.0,0.003024
1069.0,0.002922
1070.0,0.003007
1071.0,0.003051
1072.0,0.002998
1073.0,0.002947
1074.0,0.003022
1075.0,0.002835
1076.0,0.002996
1077.0,0.002916
1078.0,0.002846
1079.0,0.002919
1080.0,0.002836
1081.0,0.002729
1082.0,0.002783
1083.0,0.002786
1084.0,0.002683
1085.0,0.002798
1086.0,0.002496
1087.0,0.002606
1088.0,0.002728
1089.0,0.002612
1090.0,0.002524
1091.0,0.002682
1092.0,0.002671
1093.0,0.002183
1094.0,0.002419
1095.0,0.002274
1096.0,0.002148
1097.0,0.002566
1098.0,0.002094
1099.0,0.002187
1100.0,0.001991
1101.0,0.00202
1102.0,0.001906
1103.0,0.001868
1104.0,0.001866
1105.0,0.002085
1106.0,0.001491
1107.0,0.001944
1108.0,0.00158
1109.0,0.001582
1110.0,0.0019
1111.0,0.00119
1112.0,0.001556
1113.0,0.0009055
1114.0,0.001023
1115.0,0.0008259
1116.0,0.0006294
1117.0,0.0002039
1118.0,0.0006899
1119.0,0.0003123
1120.0,0.0003978
1121.0,0.000544
1122.0,0.0002074
1123.0,0.000353
1124.0,0.0002932
1125.0,0.0003918
1126.0,0.0001217
1127.0,0.0004433
1128.0,0.0002473
1129.0,0.0002635
1130.0,0.0001665
1131.0,0.0009089
1132.0,0.0006867
1133.0,0.0004047
1134.0,9.099e-05
1135.0,3.318e-05
1136.0,0.0003255
1137.0,0.0008688
1138.0,0.0005855
1139.0,0.0009371
1140.0,0.0007539
1141.0,0.0005482
1142.0,0.0006421
1143.0,0.0009576
1144.0,0.0002902
1145.0,0.0003736
1146.0,0.0004036
1147.0,0.0001269
1148.0,0.0007995
1149.0,0.0006131
1150.0,0.0003086
1151.0,0.0005549
1152.0,0.0007051
1153.0,0.000689
1154.0,0.0003496
1155.0,0.0009308
1156.0,0.0008195
1157.0,0.0009389
1158.0,0.0009244
1159.0,0.001013
1160.0,0.0008388
1161.0,0.001076
1162.0,0.001073
1163.0,0.001538
1164.0,0.001276
1165.0,0.00118
1166.0,0.001174
1167.0,0.001294
1168.0,0.001304
1169.0,0.001343
1170.0,0.001476
1171.0,0.001427
1172.0,0.001457
1173.0,0.001457
1174.0,0.0009716
1175.0,0.001419
1176.0,0.001584
1177.0,0.001499
1178.0,0.001064
1179.0,0.001582
1180.0,0.001371
1181.0,0.001419
1182.0,0.0009127
1183.0,0.001395
1184.0,0.001279
1185.0,0.001218
1186.0,0.001492
1187.0,0.001402
1188.0,0.0009141
1189.0,0.00129
1190.0,0.001437
1191.0,0.00134
1192.0,0.001451
1193.0,0.001374
1194.0,0.001421
1195.0,0.001326
1196.0,0.001262
1197.0,0.00142
1198.0,0.001276
1199.0,0.001048
1200.0,0.00133
1201.0,0.001267
1202.0,0.001259
1203.0,0.001251
1204.0,0.001059
1205.0,0.001287
1206.0,0.001447
1207.0,0.001238
1208.0,0.001225
1209.0,0.001248
1210.0,0.001306
1211.0,0.001225
1212.0,0.001198
1213.0,0.001363
1214.0,0.001226
1215.0,0.001194
1216.0,0.001346
1217.0,0.001299
1218.0,0.001326
1219.0,0.001302
1220.0,0.001319
1221.0,0.001332
1222.0,0.001287
1223.0,0.001269
1224.0,0.001254
1225.0,0.001306
1226.0,0.001314
1227.0,0.001192
1228.0,0.001316
1229.0,0.001302
1230.0,0.001273
1231.0,0.001314
1232.0,0.001302
1233.0,0.001241
1234.0,0.001303
1235.0,0.001289
1236.0,0.001295
1237.0,0.001269
1238.0,0.001283
1239.0,0.001262
1240.0,0.001263
1241.0,0.00125
1242.0,0.001246
1243.0,0.001232
1244.0,0.001236
1245.0,0.001237
1246.0,0.001226
1247.0,0.001217
1248.0,0.001211
1249.0,0.001212
1250.0,0.0012
1251.0,0.001179
1252.0,0.001177
1253.0,0.00116
1254.0,0.001142
1255.0,0.001164
1256.0,0.001121
1257.0,0.00111
1258.0,0.001132
1259.0,0.001077
1260.0,0.001081
1261.0,0.001004
1262.0,0.0009645
1263.0,0.0009631
1264.0,0.0008717
1265.0,0.0009518
1266.0,0.0009044
1267.0,0.0009235
1268.0,0.0008635
1269.0,0.000483
1270.0,0.0009103
1271.0,0.0009748
1272.0,0.0009764
1273.0,0.0009616
1274.0,0.0009634
1275.0,0.0009768
1276.0,0.0009856
1277.0,0.0009914
1278.0,0.001013
1279.0,0.001
1280.0,0.0009844
1281.0,0.0009388
1282.0,0.0009058
1283.0,0.0009717
1284.0,0.0009909
1285.0,0.0009949
1286.0,0.001008
1287.0,0.0009846
1288.0,0.0009823
1289.0,0.0009404
1290.0,0.0009679
1291.0,0.0009796
1292.0,0.0009025
1293.0,0.0009505
1294.0,0.0009398
1295.0,0.0009296
1296.0,0.000875
1297.0,0.0008167
1298.0,0.0008918
1299.0,0.0009352
1300.0,0.0007609
1301.0,0.0007878
1302.0,0.0008791
1303.0,0.0007454
1304.0,0.000612
1305.0,0.0008496
1306.0,0.0008466
1307.0,0.0006235
1308.0,0.0007359
1309.0,0.0008308
1310.0,0.0006043
1311.0,0.0006937
1312.0,0.0006717
1313.0,0.0006523
1314.0,0.0005694
1315.0,0.0005604
1316.0,0.0006708
1317.0,0.0006269
1318.0,0.0006914
1319.0,0.0005113
1320.0,0.0004932
1321.0,0.0005886
1322.0,0.000592
1323.0,0.000421
1324.0,0.0004929
1325.0,0.0006411
1326.0,0.0005327
1327.0,0.000502
1328.0,0.0004213
1329.0,0.0003003
1330.0,0.0004043
1331.0,0.0002248
1332.0,0.0002338
1333.0,0.0003373
1334.0,0.0002818
1335.0,0.0004045
1336.0,0.0003067
1337.0,0.0002656
1338.0,0.0002891
1339.0,0.0002879
1340.0,0.0002792
1341.0,0.000268
1342.0,0.0002825
1343.0,0.0001782
1344.0,0.0001024
1345.0,0.0001516
1346.0,6.948e-05
1347.0,7.016e-05
1348.0,4.131e-06
1349.0,1.513e-05
1350.0,1.575e-05
1351.0,3.697e-06
1352.0,9.846e-07
1353.0,4.99e-08
1354.0,1.717e-07
1355.0,1.38e-09
1356.0,2.416e-08
1357.0,3.671e-08
1358.0,1.62e-09
1359.0,2.041e-10
1360.0,7.375e-10
1361.0,8.249e-13
1362.0,2.257e-15
