interpolation:linear
wavelength,value
280.0,2.406e-21
280.5,7.584000000000001e-20
281.0,4.009e-19
281.5,3.731e-19
282.0,1.024e-18
282.5,2.673e-18
283.0,8.623e-18
283.5,1.41e-17
284.0,2.299e-16
284.5,6.642e-16
285.0,1.48e-15
285.5,7.135e-15
286.0,2.849e-14
286.5,1.255e-13
287.0,3.549e-13
287.5,1.343e-12
288.0,3.658e-12
288.5,1.201e-11
289.0,3.381e-11
289.5,1.063e-10
290.0,3.023e-10
290.5,6.263e-10
291.0,1.364e-09
291.5,3.965e-09
292.0,8.312e-09
292.5,1.239e-08
293.0,2.866e-08
293.5,7.694e-08
294.0,1.286e-07
294.5,1.629e-07
295.0,2.914e-07
295.5,7.179e-07
296.0,1.409e-06
296.5,2.012e-06
297.0,2.776e-06
297.5,7.729e-06
298.0,1.266e-05
298.5,1.318e-05
299.0,3.022e-05
299.5,5.459e-05
300.0,6.351e-05
300.5,9.834e-05
301.0,0.0002032
301.5,0.0003777
302.0,0.0003554
302.5,0.0006901
303.0,0.00123
303.5,0.001545
304.0,0.001459
304.5,0.002218
305.0,0.00346
305.5,0.004033
306.0,0.003922
306.5,0.004935
307.0,0.007528
307.5,0.01028
308.0,0.01088
308.5,0.013
309.0,0.01313
309.5,0.01498
310.0,0.01501
310.5,0.02425
311.0,0.03037
311.5,0.02924
312.0,0.02928
312.5,0.03565
313.0,0.03863
313.5,0.03729
314.0,0.04674
314.5,0.04172
315.0,0.05473
315.5,0.04537
316.0,0.03985
316.5,0.05754
317.0,0.07117
317.5,0.0736
318.0,0.05759
318.5,0.07225
319.0,0.0861
319.5,0.06908
320.0,0.08303
320.5,0.1051
321.0,0.09476
321.5,0.09068
322.0,0.09469
322.5,0.08215
323.0,0.08241
323.5,0.1024
324.0,0.1193
324.5,0.1203
325.0,0.1024
325.5,0.1325
326.0,0.1625
326.5,0.163
327.0,0.1616
327.5,0.1551
328.0,0.1368
328.5,0.1443
329.0,0.1736
329.5,0.1969
330.0,0.1975
330.5,0.1565
331.0,0.1586
331.5,0.1613
332.0,0.1749
332.5,0.1731
333.0,0.1716
333.5,0.1538
334.0,0.1569
334.5,0.1816
335.0,0.1708
335.5,0.2017
336.0,0.1391
336.5,0.1595
337.0,0.13
337.5,0.161
338.0,0.1576
338.5,0.1835
339.0,0.1803
339.5,0.1733
340.0,0.2007
340.5,0.1804
341.0,0.1768
341.5,0.1609
342.0,0.1913
342.5,0.1781
343.0,0.1958
343.5,0.1842
344.0,0.1348
344.5,0.1373
345.0,0.1796
345.5,0.1823
346.0,0.1541
346.5,0.1737
347.0,0.1863
347.5,0.1502
348.0,0.1701
348.5,0.1692
349.0,0.1563
349.5,0.1543
350.0,0.1901
350.5,0.1998
351.0,0.178
351.5,0.1731
352.0,0.1847
352.5,0.1434
353.0,0.1798
353.5,0.1914
354.0,0.1979
354.5,0.2
355.0,0.1987
355.5,0.1788
356.0,0.1863
356.5,0.1585
357.0,0.1305
357.5,0.1591
358.0,0.1256
358.5,0.107
359.0,0.1491
359.5,0.1894
360.0,0.2
360.5,0.1592
361.0,0.1446
361.5,0.1658
362.0,0.1429
362.5,0.197
363.0,0.1763
363.5,0.1618
364.0,0.1972
364.5,0.1679
365.0,0.1704
365.5,0.2131
366.0,0.2249
366.5,0.2105
367.0,0.2043
367.5,0.2112
368.0,0.1841
368.5,0.1851
369.0,0.1992
369.5,0.2115
370.0,0.2247
370.5,0.1737
371.0,0.1849
371.5,0.2305
372.0,0.1524
372.5,0.1821
373.0,0.1845
373.5,0.1196
374.0,0.1732
374.5,0.1429
375.0,0.1384
375.5,0.2059
376.0,0.17
376.5,0.1755
377.0,0.1852
377.5,0.2158
378.0,0.2331
378.5,0.2194
379.0,0.1804
379.5,0.1641
380.0,0.1699
380.5,0.205
381.0,0.2047
381.5,0.1616
382.0,0.1429
382.5,0.1214
383.0,0.1119
383.5,0.1074
384.0,0.118
384.5,0.173
385.0,0.1709
385.5,0.1585
386.0,0.1353
386.5,0.177
387.0,0.1465
387.5,0.1639
388.0,0.1508
388.5,0.1485
389.0,0.1596
389.5,0.1926
390.0,0.1926
390.5,0.1765
391.0,0.207
391.5,0.2103
392.0,0.1764
392.5,0.1573
393.0,0.08721
393.5,0.06316
394.0,0.128
394.5,0.1622
395.0,0.1972
395.5,0.1995
396.0,0.1723
396.5,0.1003
397.0,0.07502
397.5,0.152
398.0,0.212
398.5,0.2183
399.0,0.2355
399.5,0.2339
400.0,0.2419
401.0,0.2376
402.0,0.2487
403.0,0.2344
404.0,0.2291
405.0,0.2273
406.0,0.2219
407.0,0.2166
408.0,0.2232
409.0,0.2372
410.0,0.2057
411.0,0.2211
412.0,0.2357
413.0,0.2282
414.0,0.2292
415.0,0.228
416.0,0.2302
417.0,0.2228
418.0,0.2169
419.0,0.2181
420.0,0.2154
421.0,0.2236
422.0,0.2108
423.0,0.2042
424.0,0.2143
425.0,0.2122
426.0,0.2051
427.0,0.1998
428.0,0.1932
429.0,0.1816
430.0,0.1578
431.0,0.1551
432.0,0.1986
433.0,0.1982
434.0,0.1826
435.0,0.1892
436.0,0.2117
437.0,0.2073
438.0,0.1874
439.0,0.1923
440.0,0.1969
441.0,0.2023
442.0,0.2152
443.0,0.208
444.0,0.211
445.0,0.2049
446.0,0.1942
447.0,0.2083
448.0,0.2099
449.0,0.209
450.0,0.2131
451.0,0.2193
452.0,0.2097
453.0,0.1958
454.0,0.2029
455.0,0.2025
456.0,0.2056
457.0,0.2073
458.0,0.1986
459.0,0.1959
460.0,0.1948
461.0,0.1978
462.0,0.1978
463.0,0.1952
464.0,0.1908
465.0,0.1871
466.0,0.1875
467.0,0.1826
468.0,0.1832
469.0,0.1826
470.0,0.1754
471.0,0.174
472.0,0.182
473.0,0.1783
474.0,0.1772
475.0,0.1773
476.0,0.1705
477.0,0.1695
478.0,0.1727
479.0,0.1701
480.0,0.169
481.0,0.1706
482.0,0.1701
483.0,0.1668
484.0,0.1623
485.0,0.1536
486.0,0.1334
487.0,0.1388
488.0,0.1511
489.0,0.1503
490.0,0.1569
491.0,0.1531
492.0,0.1434
493.0,0.147
494.0,0.1474
495.0,0.1476
496.0,0.1474
497.0,0.1484
498.0,0.1403
499.0,0.1409
500.0,0.1355
501.0,0.1318
502.0,0.1288
503.0,0.1328
504.0,0.1283
505.0,0.1319
506.0,0.1352
507.0,0.1278
508.0,0.123
509.0,0.1256
510.0,0.1242
511.0,0.1267
512.0,0.1271
513.0,0.1194
514.0,0.1177
515.0,0.1156
516.0,0.1145
517.0,0.101
518.0,0.1054
519.0,0.1097
520.0,0.1128
521.0,0.113
522.0,0.1122
523.0,0.1094
524.0,0.1124
525.0,0.1129
526.0,0.107
527.0,0.09991
528.0,0.1048
529.0,0.1096
530.0,0.1072
531.0,0.108
532.0,0.1035
533.0,0.09978
534.0,0.102
535.0,0.1036
536.0,0.1039
537.0,0.09908
538.0,0.1001
539.0,0.09864
540.0,0.09394
541.0,0.09386
542.0,0.09604
543.0,0.09433
544.0,0.09534
545.0,0.09446
546.0,0.0942
547.0,0.09349
548.0,0.09173
549.0,0.09139
550.0,0.09186
551.0,0.09011
552.0,0.09009
553.0,0.08786
554.0,0.08934
555.0,0.08889
556.0,0.08709
557.0,0.08374
558.0,0.08245
559.0,0.08026
560.0,0.08063
561.0,0.08103
562.0,0.07981
563.0,0.08136
564.0,0.07857
565.0,0.07734
566.0,0.07565
567.0,0.0765
568.0,0.07525
569.0,0.07288
570.0,0.07238
571.0,0.07146
572.0,0.07261
573.0,0.07291
574.0,0.07224
575.0,0.07046
576.0,0.06939
577.0,0.06974
578.0,0.06832
579.0,0.06825
580.0,0.06921
581.0,0.0692
582.0,0.07013
583.0,0.06995
584.0,0.07021
585.0,0.06812
586.0,0.06628
587.0,0.06727
588.0,0.06515
589.0,0.05719
590.0,0.05948
591.0,0.06266
592.0,0.06139
593.0,0.06194
594.0,0.06103
595.0,0.05906
596.0,0.06112
597.0,0.06002
598.0,0.05948
599.0,0.05913
600.0,0.05887
601.0,0.05805
602.0,0.05732
603.0,0.05793
604.0,0.05855
605.0,0.05794
606.0,0.05743
607.0,0.05773
608.0,0.05681
609.0,0.05663
610.0,0.05597
611.0,0.05601
612.0,0.05559
613.0,0.05462
614.0,0.05361
615.0,0.05453
616.0,0.05249
617.0,0.05213
618.0,0.05388
619.0,0.05308
620.0,0.05315
621.0,0.05292
622.0,0.05201
623.0,0.05093
624.0,0.0498
625.0,0.04946
626.0,0.04995
627.0,0.05023
628.0,0.04629
629.0,0.0484
630.0,0.04702
631.0,0.04796
632.0,0.04717
633.0,0.04845
634.0,0.0478
635.0,0.04831
636.0,0.04745
637.0,0.04801
638.0,0.04828
639.0,0.04752
640.0,0.04684
641.0,0.04659
642.0,0.04619
643.0,0.04661
644.0,0.04626
645.0,0.04609
646.0,0.04473
647.0,0.0439
648.0,0.04369
649.0,0.04263
650.0,0.04275
651.0,0.0444
652.0,0.04218
653.0,0.04339
654.0,0.04271
655.0,0.04083
656.0,0.03606
657.0,0.03687
658.0,0.04118
659.0,0.0413
660.0,0.04126
661.0,0.04135
662.0,0.04122
663.0,0.04024
664.0,0.04056
665.0,0.04042
666.0,0.04026
667.0,0.04005
668.0,0.0399
669.0,0.04033
670.0,0.03996
671.0,0.03977
672.0,0.03928
673.0,0.03973
674.0,0.03939
675.0,0.03884
676.0,0.03893
677.0,0.03838
678.0,0.03833
679.0,0.03754
680.0,0.03767
681.0,0.03724
682.0,0.03701
683.0,0.03676
684.0,0.03639
685.0,0.03652
686.0,0.03613
687.0,0.02266
688.0,0.02696
689.0,0.02694
690.0,0.02831
691.0,0.02989
692.0,0.03104
693.0,0.03061
694.0,0.03016
695.0,0.03142
696.0,0.0313
697.0,0.03337
698.0,0.0327
699.0,0.03159
700.0,0.03106
701.0,0.03057
702.0,0.03071
703.0,0.03061
704.0,0.03153
705.0,0.03141
706.0,0.03128
707.0,0.03117
708.0,0.03108
709.0,0.03102
710.0,0.03084
711.0,0.03071
712.0,0.03053
713.0,0.03005
714.0,0.03
715.0,0.02885
716.0,0.02872
717.0,0.02427
718.0,0.02199
719.0,0.01988
720.0,0.0208
721.0,0.02319
722.0,0.02691
723.0,0.02465
724.0,0.02182
725.0,0.02133
726.0,0.02235
727.0,0.02258
728.0,0.02099
729.0,0.02183
730.0,0.02309
731.0,0.02188
732.0,0.02351
733.0,0.02498
734.0,0.0255
735.0,0.02483
736.0,0.02469
737.0,0.02466
738.0,0.02504
739.0,0.02441
740.0,0.02497
741.0,0.02462
742.0,0.02454
743.0,0.02504
744.0,0.02484
745.0,0.02473
746.0,0.02473
747.0,0.02467
748.0,0.02449
749.0,0.02409
750.0,0.02397
751.0,0.02362
752.0,0.02362
753.0,0.02362
754.0,0.02356
755.0,0.02332
756.0,0.02321
757.0,0.02314
758.0,0.02274
759.0,0.02211
760.0,0.00308
761.0,0.001576
762.0,0.01019
763.0,0.004747
764.0,0.007341
765.0,0.01003
766.0,0.01263
767.0,0.01632
768.0,0.01917
769.0,0.01958
770.0,0.02026
771.0,0.02039
772.0,0.02035
773.0,0.02038
774.0,0.02018
775.0,0.01993
776.0,0.02008
777.0,0.01972
778.0,0.0195
779.0,0.01941
780.0,0.01922
781.0,0.01915
782.0,0.01918
783.0,0.01877
784.0,0.01877
785.0,0.01855
786.0,0.01867
787.0,0.01822
788.0,0.01789
789.0,0.01779
790.0,0.01716
791.0,0.0173
792.0,0.0171
793.0,0.01673
794.0,0.01702
795.0,0.01721
796.0,0.01651
797.0,0.01646
798.0,0.01695
799.0,0.01675
800.0,0.01635
801.0,0.01621
802.0,0.01609
803.0,0.01588
804.0,0.01584
805.0,0.01574
806.0,0.01615
807.0,0.01587
808.0,0.01581
809.0,0.01541
810.0,0.01519
811.0,0.01511
812.0,0.01454
813.0,0.01412
814.0,0.01213
815.0,0.01199
816.0,0.011
817.0,0.01118
818.0,0.01069
819.0,0.01211
820.0,0.01126
821.0,0.01344
822.0,0.01293
823.0,0.008262
824.0,0.01238
825.0,0.01294
826.0,0.0123
827.0,0.01304
828.0,0.01073
829.0,0.01208
830.0,0.01185
831.0,0.01185
832.0,0.01138
833.0,0.01224
834.0,0.01168
835.0,0.01295
836.0,0.01223
837.0,0.01288
838.0,0.01238
839.0,0.01258
840.0,0.01281
841.0,0.01255
842.0,0.01255
843.0,0.01251
844.0,0.01227
845.0,0.01265
846.0,0.01254
847.0,0.01226
848.0,0.01212
849.0,0.01172
850.0,0.01118
851.0,0.01176
852.0,0.01163
853.0,0.01115
854.0,0.009576
855.0,0.01049
856.0,0.01141
857.0,0.01163
858.0,0.0115
859.0,0.01146
860.0,0.01144
861.0,0.01132
862.0,0.01146
863.0,0.01169
864.0,0.01106
865.0,0.01092
866.0,0.009778
867.0,0.01016
868.0,0.01101
869.0,0.01074
870.0,0.011
871.0,0.01081
872.0,0.01072
873.0,0.01066
874.0,0.01048
875.0,0.01022
876.0,0.01028
877.0,0.01035
878.0,0.01041
879.0,0.01021
880.0,0.009948
881.0,0.009753
882.0,0.009923
883.0,0.00992
884.0,0.009828
885.0,0.009857
886.0,0.009335
887.0,0.009412
888.0,0.0095
889.0,0.009587
890.0,0.00944
891.0,0.009399
892.0,0.009066
893.0,0.008703
894.0,0.008291
895.0,0.007714
896.0,0.007146
897.0,0.005968
898.0,0.006577
899.0,0.004771
900.0,0.006744
901.0,0.005033
902.0,0.006047
903.0,0.006047
904.0,0.007893
905.0,0.007543
906.0,0.006978
907.0,0.005435
908.0,0.005557
909.0,0.006099
910.0,0.005231
911.0,0.005629
912.0,0.005905
913.0,0.005244
914.0,0.005185
915.0,0.00567
916.0,0.004659
917.0,0.006142
918.0,0.004761
919.0,0.006219
920.0,0.006296
921.0,0.006593
922.0,0.005751
923.0,0.006319
924.0,0.005861
925.0,0.00569
926.0,0.00575
927.0,0.006519
928.0,0.004485
929.0,0.004019
930.0,0.003023
931.0,0.002837
932.0,0.001941
933.0,0.001529
934.0,0.000779
935.0,0.001565
936.0,0.0009235
937.0,0.0009315
938.0,0.001164
939.0,0.002655
940.0,0.003277
941.0,0.002366
942.0,0.002783
943.0,0.00172
944.0,0.001831
945.0,0.002404
946.0,0.001118
947.0,0.002389
948.0,0.001687
949.0,0.003316
950.0,0.0007787
951.0,0.003243
952.0,0.001585
953.0,0.002116
954.0,0.002682
955.0,0.002141
956.0,0.002067
957.0,0.001557
958.0,0.003065
959.0,0.002327
960.0,0.00264
961.0,0.003016
962.0,0.002821
963.0,0.003325
964.0,0.002991
965.0,0.003289
966.0,0.003275
967.0,0.003239
968.0,0.004601
969.0,0.004813
970.0,0.004335
971.0,0.00509
972.0,0.004804
973.0,0.004047
974.0,0.003797
975.0,0.003954
976.0,0.003696
977.0,0.004314
978.0,0.004034
979.0,0.004255
980.0,0.003936
981.0,0.00487
982.0,0.004593
983.0,0.004361
984.0,0.005011
985.0,0.004526
986.0,0.005089
987.0,0.004942
988.0,0.004912
989.0,0.005031
990.0,0.004849
991.0,0.004999
992.0,0.005012
993.0,0.004856
994.0,0.004978
995.0,0.004958
996.0,0.004912
997.0,0.004903
998.0,0.00486
999.0,0.004826
1000.0,0.004768
1001.0,0.004817
1002.0,0.004638
1003.0,0.004694
1004.0,0.004554
1005.0,0.00438
1006.0,0.004527
1007.0,0.004608
1008.0,0.004561
1009.0,0.004514
1010.0,0.004475
1011.0,0.004518
1012.0,0.004455
1013.0,0.004474
1014.0,0.004427
1015.0,0.00438
1016.0,0.004343
1017.0,0.004336
1018.0,0.004306
1019.0,0.004187
1020.0,0.004248
1021.0,0.004228
1022.0,0.004175
1023.0,0.004203
1024.0,0.004123
1025.0,0.004173
1026.0,0.004137
1027.0,0.004111
1028.0,0.004087
1029.0,0.004024
1030.0,0.00404
1031.0,0.004006
1032.0,0.003981
1033.0,0.003905
1034.0,0.003891
1035.0,0.003888
1036.0,0.003892
1037.0,0.003814
1038.0,0.003817
1039.0,0.003801
1040.0,0.003771
1041.0,0.003771
1042.0,0.00373
1043.0,0.003705
1044.0,0.003704
1045.0,0.003639
1046.0,0.003585
1047.0,0.003603
1048.0,0.003609
1049.0,0.003583
1050.0,0.003553
1051.0,0.003533
1052.0,0.003505
1053.0,0.003464
1054.0,0.003459
1055.0,0.003446
1056.0,0.00342
1057.0,0.003395
1058.0,0.003299
1059.0,0.00329
1060.0,0.003272
1061.0,0.003255
1062.0,0.003259
1063.0,0.003214
1064.0,0.003242
1065.0,0.003203
1066.0,0.003131
1067.0,0.003158
1068.0,0.003076
1069.0,0.002971
1070.0,0.003058
1071.0,0.003102
1072.0,0.003049
1073.0,0.002996
1074.0,0.003072
1075.0,0.002884
1076.0,0.003045
1077.0,0.002966
1078.0,0.002895
1079.0,0.002967
1080.0,0.002884
1081.0,0.002776
1082.0,0.00283
1083.0,0.002832
1084.0,0.002729
1085.0,0.002845
1086.0,0.00254
1087.0,0.00265
1088.0,0.002773
1089.0,0.002657
1090.0,0.002569
1091.0,0.002727
1092.0,0.002715
1093.0,0.002223
1094.0,0.00246
1095.0,0.002317
1096.0,0.002188
1097.0,0.002609
1098.0,0.002135
1099.0,0.002229
1100.0,0.00203
1101.0,0.002059
1102.0,0.001944
1103.0,0.001906
1104.0,0.001904
1105.0,0.002125
1106.0,0.001524
1107.0,0.001983
1108.0,0.001614
1109.0,0.001615
1110.0,0.001939
1111.0,0.001216
1112.0,0.001588
1113.0,0.0009261
1114.0,0.001047
1115.0,0.0008443
1116.0,0.0006442
1117.0,0.0002081
1118.0,0.0007061
1119.0,0.0003191
1120.0,0.0004074
1121.0,0.0005579
1122.0,0.0002119
1123.0,0.0003611
1124.0,0.0002996
1125.0,0.0004011
1126.0,0.0001241
1127.0,0.0004541
1128.0,0.0002531
1129.0,0.0002698
1130.0,0.00017
1131.0,0.0009328
1132.0,0.000704
1133.0,0.0004149
1134.0,9.259e-05
1135.0,3.355e-05
1136.0,0.0003336
1137.0,0.0008927
1138.0,0.0006
1139.0,0.0009587
1140.0,0.000772
1141.0,0.0005614
1142.0,0.0006576
1143.0,0.0009816
1144.0,0.0002964
1145.0,0.0003829
1146.0,0.000414
1147.0,0.0001295
1148.0,0.0008189
1149.0,0.000628
1150.0,0.0003151
1151.0,0.0005686
1152.0,0.0007225
1153.0,0.0007046
1154.0,0.0003582
1155.0,0.0009527
1156.0,0.0008391
1157.0,0.0009603
1158.0,0.0009454
1159.0,0.001036
1160.0,0.0008575
1161.0,0.001099
1162.0,0.001096
1163.0,0.001568
1164.0,0.001302
1165.0,0.001205
1166.0,0.001198
1167.0,0.00132
1168.0,0.00133
1169.0,0.001369
1170.0,0.001504
1171.0,0.001454
1172.0,0.001484
1173.0,0.001485
1174.0,0.000992
1175.0,0.001445
1176.0,0.001611
1177.0,0.001526
1178.0,0.001084
1179.0,0.001609
1180.0,0.001396
1181.0,0.001445
1182.0,0.0009308
1183.0,0.001421
1184.0,0.001303
1185.0,0.001242
1186.0,0.001519
1187.0,0.001427
1188.0,0.0009331
1189.0,0.001313
1190.0,0.001462
1191.0,0.001365
1192.0,0.001476
1193.0,0.001399
1194.0,0.001446
1195.0,0.00135
1196.0,0.001286
1197.0,0.001445
1198.0,0.001299
1199.0,0.001068
1200.0,0.001354
1201.0,0.001291
1202.0,0.001282
1203.0,0.001274
1204.0,0.001079
1205.0,0.001309
1206.0,0.001471
1207.0,0.001261
1208.0,0.001247
1209.0,0.00127
1210.0,0.001328
1211.0,0.001248
1212.0,0.001221
1213.0,0.001387
1214.0,0.001249
1215.0,0.001217
1216.0,0.001369
1217.0,0.001322
1218.0,0.001349
1219.0,0.001325
1220.0,0.001342
1221.0,0.001355
1222.0,0.001309
1223.0,0.001291
1224.0,0.001276
1225.0,0.001329
1226.0,0.001337
1227.0,0.001213
1228.0,0.001337
1229.0,0.001324
1230.0,0.001294
1231.0,0.001336
1232.0,0.001323
1233.0,0.001263
1234.0,0.001324
1235.0,0.00131
1236.0,0.001316
1237.0,0.00129
1238.0,0.001304
1239.0,0.001283
1240.0,0.001284
1241.0,0.001271
1242.0,0.001266
1243.0,0.001252
1244.0,0.001256
1245.0,0.001257
1246.0,0.001246
1247.0,0.001236
1248.0,0.00123
1249.0,0.001231
1250.0,0.001219
1251.0,0.001198
1252.0,0.001197
1253.0,0.00118
1254.0,0.001161
1255.0,0.001183
1256.0,0.00114
1257.0,0.001129
1258.0,0.001151
1259.0,0.001096
1260.0,0.0011
1261.0,0.001023
1262.0,0.0009833
1263.0,0.000982
1264.0,0.0008901
1265.0,0.0009704
1266.0,0.0009229
1267.0,0.0009419
1268.0,0.0008815
1269.0,0.0004967
1270.0,0.0009286
1271.0,0.0009931
1272.0,0.0009946
1273.0,0.0009796
1274.0,0.0009813
1275.0,0.0009947
1276.0,0.001003
1277.0,0.001009
1278.0,0.00103
1279.0,0.001017
1280.0,0.001001
1281.0,0.0009548
1282.0,0.0009207
1283.0,0.0009878
1284.0,0.001007
1285.0,0.001011
1286.0,0.001024
1287.0,0.001001
1288.0,0.0009986
1289.0,0.0009569
1290.0,0.000984
1291.0,0.0009957
1292.0,0.0009187
1293.0,0.0009664
1294.0,0.0009557
1295.0,0.0009457
1296.0,0.000891
1297.0,0.0008321
1298.0,0.0009075
1299.0,0.0009508
1300.0,0.0007754
1301.0,0.0008025
1302.0,0.0008945
1303.0,0.0007593
1304.0,0.0006249
1305.0,0.0008645
1306.0,0.0008617
1307.0,0.0006359
1308.0,0.0007493
1309.0,0.000846
1310.0,0.0006165
1311.0,0.0007067
1312.0,0.0006845
1313.0,0.0006652
1314.0,0.0005808
1315.0,0.0005721
1316.0,0.0006837
1317.0,0.000639
1318.0,0.0007042
1319.0,0.0005222
1320.0,0.0005032
1321.0,0.0006003
1322.0,0.0006043
1323.0,0.0004305
1324.0,0.0005033
1325.0,0.0006536
1326.0,0.0005437
1327.0,0.0005125
1328.0,0.0004302
1329.0,0.0003072
1330.0,0.0004138
1331.0,0.0002303
1332.0,0.0002393
1333.0,0.0003459
1334.0,0.0002878
1335.0,0.0004138
1336.0,0.0003139
1337.0,0.0002717
1338.0,0.000296
1339.0,0.0002946
1340.0,0.0002853
1341.0,0.0002746
1342.0,0.0002895
1343.0,0.0001831
1344.0,0.0001046
1345.0,0.0001554
1346.0,7.112e-05
1347.0,7.189e-05
1348.0,4.165e-06
1349.0,1.536e-05
1350.0,1.599e-05
1351.0,3.728e-06
1352.0,9.89e-07
1353.0,4.997e-08
1354.0,1.721e-07
1355.0,1.381e-09
1356.0,2.419e-08
1357.0,3.676e-08
1358.0,1.622e-09
1359.0,2.042e-10
1360.0,7.382e-10
1361.0,8.256e-13
1362.0,2.258e-15
