interpolation:linear
wavelength,value
280.0,6.887e-23
280.5,2.306e-21
281.0,1.2470000000000001e-20
281.5,4.036e-19
282.0,5.104e-19
282.5,1.211e-18
283.0,3.767e-18
283.5,6.123e-18
284.0,1.006e-16
284.5,2.95e-16
285.0,6.155e-16
285.5,2.806e-15
286.0,1.114e-14
286.5,4.916e-14
287.0,1.402e-13
287.5,5.383e-13
288.0,1.828e-12
288.5,5.258e-12
289.0,1.362e-11
289.5,4.044e-11
290.0,1.116e-10
290.5,2.272e-10
291.0,4.877e-10
291.5,1.402e-09
292.0,2.86e-09
292.5,3.984e-09
293.0,8.473e-09
293.5,2.041e-08
294.0,3.182e-08
294.5,4.048e-08
295.0,6.817e-08
295.5,1.16e-07
296.0,2.189e-07
296.5,2.991e-07
297.0,3.962e-07
297.5,1.027e-06
298.0,1.568e-06
298.5,1.535e-06
299.0,3.291e-06
299.5,5.181e-06
300.0,5.516e-06
300.5,7.711e-06
301.0,1.313e-05
301.5,1.971e-05
302.0,1.632e-05
302.5,3.136e-05
303.0,5.539e-05
303.5,6.962e-05
304.0,6.678e-05
304.5,0.0001056
305.0,0.0001749
305.5,0.0002123
306.0,0.0002101
306.5,0.000272
307.0,0.0004412
307.5,0.0006413
308.0,0.0006867
308.5,0.000848
309.0,0.0009871
309.5,0.001354
310.0,0.001479
310.5,0.002495
311.0,0.00335
311.5,0.003328
312.0,0.003857
312.5,0.005175
313.0,0.005904
313.5,0.005459
314.0,0.007675
314.5,0.007958
315.0,0.01074
315.5,0.008313
316.0,0.008243
316.5,0.01321
317.0,0.01635
317.5,0.01646
318.0,0.01383
318.5,0.01985
319.0,0.02533
319.5,0.01831
320.0,0.0217
320.5,0.0315
321.0,0.03208
321.5,0.03114
322.0,0.02865
322.5,0.02508
323.0,0.02742
323.5,0.03806
324.0,0.04511
324.5,0.04385
325.0,0.03489
325.5,0.04843
326.0,0.06265
326.5,0.06612
327.0,0.06451
327.5,0.06066
328.0,0.05019
328.5,0.05747
329.0,0.07363
329.5,0.08525
330.0,0.08442
330.5,0.06395
331.0,0.0639
331.5,0.06747
332.0,0.07712
332.5,0.07821
333.0,0.0767
333.5,0.06642
334.0,0.06747
334.5,0.08161
335.0,0.07879
335.5,0.0932
336.0,0.0644
336.5,0.07322
337.0,0.05876
337.5,0.07243
338.0,0.07353
338.5,0.08636
339.0,0.08552
339.5,0.08206
340.0,0.09463
340.5,0.08553
341.0,0.08451
341.5,0.07777
342.0,0.09292
342.5,0.08692
343.0,0.09522
343.5,0.0894
344.0,0.06505
344.5,0.06639
345.0,0.08806
345.5,0.08996
346.0,0.07645
346.5,0.08653
347.0,0.09255
347.5,0.07467
348.0,0.08523
348.5,0.08521
349.0,0.079
349.5,0.07808
350.0,0.09646
350.5,0.1016
351.0,0.09047
351.5,0.08751
352.0,0.09404
352.5,0.07341
353.0,0.09243
353.5,0.09877
354.0,0.1024
354.5,0.1037
355.0,0.1032
355.5,0.09309
356.0,0.0973
356.5,0.08295
357.0,0.06842
357.5,0.08365
358.0,0.06621
358.5,0.0565
359.0,0.07887
359.5,0.1002
360.0,0.1061
360.5,0.08472
361.0,0.07714
361.5,0.08871
362.0,0.07661
362.5,0.1059
363.0,0.09494
363.5,0.08731
364.0,0.1066
364.5,0.09096
365.0,0.09248
365.5,0.1159
366.0,0.1226
366.5,0.115
367.0,0.1118
367.5,0.1158
368.0,0.1012
368.5,0.1019
369.0,0.1099
369.5,0.1169
370.0,0.1245
370.5,0.09644
371.0,0.1029
371.5,0.1285
372.0,0.08512
372.5,0.1019
373.0,0.1035
373.5,0.06719
374.0,0.09746
374.5,0.08057
375.0,0.07819
375.5,0.1165
376.0,0.09642
376.5,0.09973
377.0,0.1054
377.5,0.1231
378.0,0.1332
378.5,0.1256
379.0,0.1035
379.5,0.09434
380.0,0.09789
380.5,0.1183
381.0,0.1184
381.5,0.09364
382.0,0.083
382.5,0.07062
383.0,0.06525
383.5,0.06273
384.0,0.06907
384.5,0.1014
385.0,0.1004
385.5,0.09328
386.0,0.07974
386.5,0.1045
387.0,0.08669
387.5,0.09717
388.0,0.08953
388.5,0.08833
389.0,0.09515
389.5,0.115
390.0,0.1152
390.5,0.1058
391.0,0.1243
391.5,0.1265
392.0,0.1063
392.5,0.09498
393.0,0.05274
393.5,0.03826
394.0,0.0777
394.5,0.09858
395.0,0.12
395.5,0.1217
396.0,0.1053
396.5,0.06142
397.0,0.046
397.5,0.09335
398.0,0.1304
398.5,0.1345
399.0,0.1454
399.5,0.1446
400.0,0.1498
401.0,0.1474
402.0,0.1548
403.0,0.1464
404.0,0.1435
405.0,0.1429
406.0,0.1399
407.0,0.137
408.0,0.1416
409.0,0.1508
410.0,0.1312
411.0,0.1415
412.0,0.1512
413.0,0.1468
414.0,0.1479
415.0,0.1476
416.0,0.1494
417.0,0.145
418.0,0.1416
419.0,0.1427
420.0,0.1414
421.0,0.1472
422.0,0.1391
423.0,0.1351
424.0,0.1421
425.0,0.141
426.0,0.1367
427.0,0.1335
428.0,0.1294
429.0,0.122
430.0,0.1063
431.0,0.1047
432.0,0.1344
433.0,0.1344
434.0,0.1241
435.0,0.129
436.0,0.1446
437.0,0.1419
438.0,0.1285
439.0,0.132
440.0,0.1353
441.0,0.1393
442.0,0.1485
443.0,0.1438
444.0,0.1462
445.0,0.1424
446.0,0.1353
447.0,0.1455
448.0,0.1469
449.0,0.1465
450.0,0.1496
451.0,0.1542
452.0,0.1478
453.0,0.1383
454.0,0.1436
455.0,0.1435
456.0,0.146
457.0,0.1473
458.0,0.1411
459.0,0.1393
460.0,0.1386
461.0,0.1408
462.0,0.1411
463.0,0.1395
464.0,0.1367
465.0,0.1345
466.0,0.1351
467.0,0.1318
468.0,0.1323
469.0,0.132
470.0,0.127
471.0,0.1261
472.0,0.1322
473.0,0.1297
474.0,0.129
475.0,0.1291
476.0,0.1242
477.0,0.1234
478.0,0.1257
479.0,0.1237
480.0,0.1228
481.0,0.124
482.0,0.1238
483.0,0.1216
484.0,0.1186
485.0,0.1126
486.0,0.09811
487.0,0.1023
488.0,0.1116
489.0,0.1111
490.0,0.1161
491.0,0.1133
492.0,0.1062
493.0,0.1091
494.0,0.1095
495.0,0.1097
496.0,0.1096
497.0,0.1104
498.0,0.1043
499.0,0.1046
500.0,0.1005
501.0,0.09759
502.0,0.09514
503.0,0.09797
504.0,0.09445
505.0,0.09715
506.0,0.09962
507.0,0.09426
508.0,0.09092
509.0,0.09307
510.0,0.09215
511.0,0.09409
512.0,0.09447
513.0,0.08874
514.0,0.08743
515.0,0.08588
516.0,0.08501
517.0,0.07498
518.0,0.07825
519.0,0.08146
520.0,0.08374
521.0,0.08381
522.0,0.08313
523.0,0.08098
524.0,0.08305
525.0,0.08316
526.0,0.07865
527.0,0.07331
528.0,0.07671
529.0,0.08009
530.0,0.07823
531.0,0.07867
532.0,0.07535
533.0,0.07261
534.0,0.07428
535.0,0.07547
536.0,0.07573
537.0,0.07231
538.0,0.0731
539.0,0.07199
540.0,0.06851
541.0,0.06838
542.0,0.06989
543.0,0.0686
544.0,0.06924
545.0,0.06854
546.0,0.06831
547.0,0.06779
548.0,0.06651
549.0,0.06627
550.0,0.06658
551.0,0.0653
552.0,0.06528
553.0,0.06364
554.0,0.06467
555.0,0.06429
556.0,0.06293
557.0,0.06044
558.0,0.05941
559.0,0.05773
560.0,0.05789
561.0,0.05807
562.0,0.05708
563.0,0.05807
564.0,0.05601
565.0,0.05506
566.0,0.0538
567.0,0.05435
568.0,0.05337
569.0,0.05158
570.0,0.05119
571.0,0.05051
572.0,0.05125
573.0,0.05143
574.0,0.05095
575.0,0.04969
576.0,0.04899
577.0,0.0493
578.0,0.04837
579.0,0.04841
580.0,0.04921
581.0,0.04932
582.0,0.05008
583.0,0.05003
584.0,0.05028
585.0,0.04882
586.0,0.04755
587.0,0.04827
588.0,0.04668
589.0,0.04084
590.0,0.04247
591.0,0.0448
592.0,0.04381
593.0,0.04421
594.0,0.04348
595.0,0.04194
596.0,0.04346
597.0,0.04257
598.0,0.04215
599.0,0.04187
600.0,0.04167
601.0,0.04109
602.0,0.04057
603.0,0.04104
604.0,0.04153
605.0,0.04115
606.0,0.04086
607.0,0.04117
608.0,0.04061
609.0,0.04058
610.0,0.04021
611.0,0.04034
612.0,0.04013
613.0,0.03953
614.0,0.0389
615.0,0.03965
616.0,0.03824
617.0,0.03806
618.0,0.03941
619.0,0.03888
620.0,0.03898
621.0,0.03885
622.0,0.03823
623.0,0.03748
624.0,0.03669
625.0,0.03648
626.0,0.03688
627.0,0.0371
628.0,0.03393
629.0,0.03573
630.0,0.03476
631.0,0.03561
632.0,0.0351
633.0,0.03614
634.0,0.03574
635.0,0.0362
636.0,0.03564
637.0,0.03613
638.0,0.03642
639.0,0.03592
640.0,0.03548
641.0,0.03536
642.0,0.03512
643.0,0.03549
644.0,0.03529
645.0,0.03519
646.0,0.03417
647.0,0.03348
648.0,0.03339
649.0,0.03259
650.0,0.03283
651.0,0.03416
652.0,0.03239
653.0,0.03346
654.0,0.03298
655.0,0.03152
656.0,0.0279
657.0,0.02856
658.0,0.03197
659.0,0.0321
660.0,0.03213
661.0,0.03223
662.0,0.03215
663.0,0.03141
664.0,0.03172
665.0,0.03167
666.0,0.0316
667.0,0.03149
668.0,0.03142
669.0,0.0318
670.0,0.03155
671.0,0.03144
672.0,0.03108
673.0,0.03147
674.0,0.03124
675.0,0.03084
676.0,0.03094
677.0,0.03054
678.0,0.03053
679.0,0.02993
680.0,0.03005
681.0,0.02973
682.0,0.02957
683.0,0.02938
684.0,0.0291
685.0,0.02923
686.0,0.02893
687.0,0.0174
688.0,0.02091
689.0,0.02092
690.0,0.02212
691.0,0.02353
692.0,0.02461
693.0,0.02429
694.0,0.02403
695.0,0.02518
696.0,0.02513
697.0,0.02691
698.0,0.02638
699.0,0.02542
700.0,0.025
701.0,0.02456
702.0,0.02472
703.0,0.02468
704.0,0.02549
705.0,0.02541
706.0,0.02533
707.0,0.02526
708.0,0.02519
709.0,0.0252
710.0,0.02504
711.0,0.02495
712.0,0.02482
713.0,0.02441
714.0,0.02439
715.0,0.02342
716.0,0.02331
717.0,0.01942
718.0,0.01766
719.0,0.016
720.0,0.01668
721.0,0.01871
722.0,0.02183
723.0,0.01997
724.0,0.01762
725.0,0.01721
726.0,0.018
727.0,0.0183
728.0,0.01694
729.0,0.01771
730.0,0.01865
731.0,0.0177
732.0,0.01911
733.0,0.02038
734.0,0.02085
735.0,0.02028
736.0,0.02015
737.0,0.02014
738.0,0.02054
739.0,0.02004
740.0,0.02052
741.0,0.02025
742.0,0.02021
743.0,0.02062
744.0,0.02048
745.0,0.0204
746.0,0.02039
747.0,0.02035
748.0,0.02021
749.0,0.01989
750.0,0.0198
751.0,0.01952
752.0,0.01954
753.0,0.01956
754.0,0.01952
755.0,0.01933
756.0,0.01925
757.0,0.01919
758.0,0.01886
759.0,0.01828
760.0,0.00259
761.0,0.001373
762.0,0.008026
763.0,0.003883
764.0,0.005853
765.0,0.007909
766.0,0.009984
767.0,0.01308
768.0,0.01567
769.0,0.01609
770.0,0.01677
771.0,0.01692
772.0,0.0169
773.0,0.01693
774.0,0.01676
775.0,0.01655
776.0,0.01667
777.0,0.01636
778.0,0.01617
779.0,0.0161
780.0,0.01594
781.0,0.01589
782.0,0.01593
783.0,0.0156
784.0,0.01561
785.0,0.01543
786.0,0.01554
787.0,0.01513
788.0,0.01484
789.0,0.01476
790.0,0.01421
791.0,0.01437
792.0,0.01422
793.0,0.01392
794.0,0.0142
795.0,0.01435
796.0,0.0137
797.0,0.01365
798.0,0.01413
799.0,0.01396
800.0,0.01361
801.0,0.01347
802.0,0.01337
803.0,0.01319
804.0,0.01316
805.0,0.0131
806.0,0.01348
807.0,0.01323
808.0,0.01318
809.0,0.01281
810.0,0.01261
811.0,0.01251
812.0,0.01198
813.0,0.01163
814.0,0.009934
815.0,0.009836
816.0,0.009033
817.0,0.009174
818.0,0.008751
819.0,0.009951
820.0,0.009257
821.0,0.01113
822.0,0.01071
823.0,0.006787
824.0,0.01021
825.0,0.01076
826.0,0.0102
827.0,0.01085
828.0,0.008848
829.0,0.01004
830.0,0.009847
831.0,0.009844
832.0,0.009441
833.0,0.01017
834.0,0.009684
835.0,0.01082
836.0,0.01015
837.0,0.01075
838.0,0.0103
839.0,0.0105
840.0,0.0107
841.0,0.01047
842.0,0.01049
843.0,0.01049
844.0,0.01027
845.0,0.0106
846.0,0.01052
847.0,0.01029
848.0,0.01015
849.0,0.009812
850.0,0.009356
851.0,0.009829
852.0,0.00972
853.0,0.009327
854.0,0.008003
855.0,0.008779
856.0,0.009548
857.0,0.00974
858.0,0.009627
859.0,0.009606
860.0,0.009591
861.0,0.009501
862.0,0.009621
863.0,0.009815
864.0,0.009291
865.0,0.009176
866.0,0.008219
867.0,0.008544
868.0,0.009261
869.0,0.009034
870.0,0.009255
871.0,0.009092
872.0,0.009024
873.0,0.008969
874.0,0.008824
875.0,0.008606
876.0,0.008656
877.0,0.008708
878.0,0.008762
879.0,0.008591
880.0,0.008371
881.0,0.0082
882.0,0.008339
883.0,0.008341
884.0,0.008261
885.0,0.008284
886.0,0.007827
887.0,0.007905
888.0,0.007972
889.0,0.008057
890.0,0.007917
891.0,0.007891
892.0,0.007588
893.0,0.00727
894.0,0.006885
895.0,0.006361
896.0,0.005905
897.0,0.004914
898.0,0.00541
899.0,0.003936
900.0,0.00557
901.0,0.004125
902.0,0.004979
903.0,0.004961
904.0,0.00655
905.0,0.006255
906.0,0.005783
907.0,0.004466
908.0,0.004579
909.0,0.005025
910.0,0.004292
911.0,0.004653
912.0,0.004859
913.0,0.0043
914.0,0.004264
915.0,0.004625
916.0,0.003839
917.0,0.005034
918.0,0.003907
919.0,0.00512
920.0,0.005237
921.0,0.005452
922.0,0.00474
923.0,0.005233
924.0,0.004803
925.0,0.004675
926.0,0.004703
927.0,0.005347
928.0,0.003638
929.0,0.003252
930.0,0.002454
931.0,0.002306
932.0,0.001593
933.0,0.001269
934.0,0.0006667
935.0,0.001298
936.0,0.0007841
937.0,0.0007908
938.0,0.0009763
939.0,0.002156
940.0,0.002646
941.0,0.00192
942.0,0.002245
943.0,0.001416
944.0,0.001516
945.0,0.001955
946.0,0.0009374
947.0,0.001938
948.0,0.001398
949.0,0.002659
950.0,0.0006651
951.0,0.002601
952.0,0.001309
953.0,0.001729
954.0,0.002172
955.0,0.001744
956.0,0.001724
957.0,0.001285
958.0,0.002512
959.0,0.001907
960.0,0.002145
961.0,0.002457
962.0,0.002308
963.0,0.002718
964.0,0.002454
965.0,0.002682
966.0,0.002672
967.0,0.00264
968.0,0.003816
969.0,0.003951
970.0,0.00357
971.0,0.004224
972.0,0.00398
973.0,0.003317
974.0,0.00312
975.0,0.003258
976.0,0.003019
977.0,0.003575
978.0,0.003319
979.0,0.003504
980.0,0.003249
981.0,0.004041
982.0,0.003797
983.0,0.003601
984.0,0.004183
985.0,0.003736
986.0,0.004265
987.0,0.004127
988.0,0.004104
989.0,0.004229
990.0,0.004046
991.0,0.004193
992.0,0.004208
993.0,0.004061
994.0,0.004183
995.0,0.00417
996.0,0.004129
997.0,0.004125
998.0,0.004088
999.0,0.004061
1000.0,0.004007
1001.0,0.004053
1002.0,0.003881
1003.0,0.003949
1004.0,0.003825
1005.0,0.003687
1006.0,0.003808
1007.0,0.003878
1008.0,0.003835
1009.0,0.003791
1010.0,0.003756
1011.0,0.003802
1012.0,0.003746
1013.0,0.003767
1014.0,0.003727
1015.0,0.003687
1016.0,0.003655
1017.0,0.003648
1018.0,0.003626
1019.0,0.003518
1020.0,0.003576
1021.0,0.003561
1022.0,0.003513
1023.0,0.003537
1024.0,0.003461
1025.0,0.003514
1026.0,0.003481
1027.0,0.003461
1028.0,0.003439
1029.0,0.003385
1030.0,0.003401
1031.0,0.003372
1032.0,0.003351
1033.0,0.003288
1034.0,0.003276
1035.0,0.003273
1036.0,0.003276
1037.0,0.003211
1038.0,0.003213
1039.0,0.003199
1040.0,0.003173
1041.0,0.003172
1042.0,0.003138
1043.0,0.003116
1044.0,0.003115
1045.0,0.003059
1046.0,0.003013
1047.0,0.003028
1048.0,0.003032
1049.0,0.00301
1050.0,0.002983
1051.0,0.002967
1052.0,0.002942
1053.0,0.002907
1054.0,0.002901
1055.0,0.002889
1056.0,0.002866
1057.0,0.002845
1058.0,0.002763
1059.0,0.002754
1060.0,0.002738
1061.0,0.002723
1062.0,0.002725
1063.0,0.002687
1064.0,0.00271
1065.0,0.002675
1066.0,0.002617
1067.0,0.002639
1068.0,0.002568
1069.0,0.002483
1070.0,0.002554
1071.0,0.002597
1072.0,0.002548
1073.0,0.002505
1074.0,0.002574
1075.0,0.002404
1076.0,0.002551
1077.0,0.002478
1078.0,0.002414
1079.0,0.002489
1080.0,0.002411
1081.0,0.002312
1082.0,0.002368
1083.0,0.002374
1084.0,0.002272
1085.0,0.002378
1086.0,0.002113
1087.0,0.002209
1088.0,0.002324
1089.0,0.002212
1090.0,0.002137
1091.0,0.002282
1092.0,0.002274
1093.0,0.001838
1094.0,0.002056
1095.0,0.00191
1096.0,0.0018
1097.0,0.002184
1098.0,0.00175
1099.0,0.001829
1100.0,0.001663
1101.0,0.00169
1102.0,0.001589
1103.0,0.001555
1104.0,0.001554
1105.0,0.001742
1106.0,0.001231
1107.0,0.001623
1108.0,0.001311
1109.0,0.001313
1110.0,0.001579
1111.0,0.0009859
1112.0,0.001292
1113.0,0.0007551
1114.0,0.0008463
1115.0,0.0006893
1116.0,0.0005283
1117.0,0.0001807
1118.0,0.0005754
1119.0,0.0002702
1120.0,0.0003391
1121.0,0.0004552
1122.0,0.0001828
1123.0,0.0003029
1124.0,0.000254
1125.0,0.0003339
1126.0,0.0001099
1127.0,0.0003753
1128.0,0.0002159
1129.0,0.000229
1130.0,0.0001485
1131.0,0.0007409
1132.0,0.000568
1133.0,0.000343
1134.0,8.302e-05
1135.0,3.107e-05
1136.0,0.0002792
1137.0,0.0007072
1138.0,0.0004873
1139.0,0.0007713
1140.0,0.0006226
1141.0,0.000458
1142.0,0.0005327
1143.0,0.0007817
1144.0,0.0002507
1145.0,0.000317
1146.0,0.000341
1147.0,0.000114
1148.0,0.0006571
1149.0,0.0005094
1150.0,0.0002666
1151.0,0.0004622
1152.0,0.0005813
1153.0,0.0005725
1154.0,0.0002984
1155.0,0.0007633
1156.0,0.0006737
1157.0,0.0007762
1158.0,0.0007641
1159.0,0.0008339
1160.0,0.0006985
1161.0,0.0008943
1162.0,0.0008912
1163.0,0.001284
1164.0,0.001064
1165.0,0.0009781
1166.0,0.0009825
1167.0,0.001082
1168.0,0.001089
1169.0,0.001119
1170.0,0.001236
1171.0,0.001198
1172.0,0.00123
1173.0,0.001221
1174.0,0.0008131
1175.0,0.001197
1176.0,0.001347
1177.0,0.001266
1178.0,0.0008973
1179.0,0.001344
1180.0,0.001156
1181.0,0.001194
1182.0,0.0007669
1183.0,0.001175
1184.0,0.001077
1185.0,0.001022
1186.0,0.001261
1187.0,0.00118
1188.0,0.0007619
1189.0,0.001087
1190.0,0.001218
1191.0,0.001123
1192.0,0.001231
1193.0,0.001162
1194.0,0.001204
1195.0,0.001115
1196.0,0.001059
1197.0,0.001203
1198.0,0.001083
1199.0,0.0008775
1200.0,0.001125
1201.0,0.001066
1202.0,0.001067
1203.0,0.001051
1204.0,0.0008918
1205.0,0.001093
1206.0,0.001231
1207.0,0.001044
1208.0,0.001037
1209.0,0.001056
1210.0,0.001108
1211.0,0.001037
1212.0,0.001001
1213.0,0.001154
1214.0,0.001027
1215.0,0.001002
1216.0,0.001141
1217.0,0.001099
1218.0,0.001124
1219.0,0.001102
1220.0,0.001119
1221.0,0.001132
1222.0,0.001094
1223.0,0.001077
1224.0,0.001059
1225.0,0.001109
1226.0,0.001119
1227.0,0.001006
1228.0,0.001122
1229.0,0.001109
1230.0,0.001082
1231.0,0.001123
1232.0,0.001112
1233.0,0.001053
1234.0,0.001116
1235.0,0.001102
1236.0,0.001109
1237.0,0.001083
1238.0,0.001098
1239.0,0.00108
1240.0,0.001082
1241.0,0.001068
1242.0,0.001067
1243.0,0.001055
1244.0,0.001057
1245.0,0.001059
1246.0,0.00105
1247.0,0.001041
1248.0,0.001035
1249.0,0.001037
1250.0,0.001026
1251.0,0.001006
1252.0,0.001007
1253.0,0.0009891
1254.0,0.0009712
1255.0,0.0009948
1256.0,0.0009517
1257.0,0.0009411
1258.0,0.0009651
1259.0,0.0009093
1260.0,0.0009135
1261.0,0.0008391
1262.0,0.0008015
1263.0,0.0008001
1264.0,0.0007158
1265.0,0.0007907
1266.0,0.000746
1267.0,0.0007654
1268.0,0.0007102
1269.0,0.0003881
1270.0,0.0007526
1271.0,0.0008151
1272.0,0.0008171
1273.0,0.0008036
1274.0,0.0008067
1275.0,0.0008194
1276.0,0.0008287
1277.0,0.0008366
1278.0,0.0008581
1279.0,0.0008476
1280.0,0.0008344
1281.0,0.0007977
1282.0,0.0007727
1283.0,0.0008283
1284.0,0.0008442
1285.0,0.0008483
1286.0,0.0008606
1287.0,0.000838
1288.0,0.0008373
1289.0,0.0007957
1290.0,0.0008252
1291.0,0.0008364
1292.0,0.0007612
1293.0,0.0008096
1294.0,0.0008004
1295.0,0.0007872
1296.0,0.0007363
1297.0,0.000685
1298.0,0.0007548
1299.0,0.0007974
1300.0,0.0006394
1301.0,0.0006625
1302.0,0.0007445
1303.0,0.000627
1304.0,0.0005088
1305.0,0.0007196
1306.0,0.0007147
1307.0,0.0005214
1308.0,0.0006212
1309.0,0.0006984
1310.0,0.0005043
1311.0,0.0005838
1312.0,0.0005647
1313.0,0.0005451
1314.0,0.000475
1315.0,0.0004653
1316.0,0.0005625
1317.0,0.0005253
1318.0,0.0005816
1319.0,0.0004248
1320.0,0.000412
1321.0,0.0004916
1322.0,0.0004917
1323.0,0.0003482
1324.0,0.0004107
1325.0,0.0005356
1326.0,0.0004437
1327.0,0.0004176
1328.0,0.0003505
1329.0,0.0002493
1330.0,0.0003332
1331.0,0.0001881
1332.0,0.0001955
1333.0,0.0002763
1334.0,0.0002372
1335.0,0.0003331
1336.0,0.0002539
1337.0,0.000222
1338.0,0.0002398
1339.0,0.0002389
1340.0,0.0002335
1341.0,0.0002216
1342.0,0.0002334
1343.0,0.0001498
1344.0,8.899e-05
1345.0,0.0001283
1346.0,6.156e-05
1347.0,6.223e-05
1348.0,3.98e-06
1349.0,1.428e-05
