interpolation:linear
wavelength,value
280.0,3.949e-22
280.5,1.292e-20
281.0,6.916e-20
281.5,4.404e-19
282.0,7.29e-19
282.5,1.807e-18
283.0,5.707e-18
283.5,9.284e-18
284.0,1.522e-16
284.5,4.432e-16
285.0,7.502e-16
285.5,3.727e-15
286.0,1.501e-14
286.5,6.738e-14
287.0,1.93e-13
287.5,7.422e-13
288.0,2.509e-12
288.5,7.618e-12
289.0,2.032e-11
289.5,6.143e-11
290.0,1.706e-10
290.5,3.478e-10
291.0,7.467e-10
291.5,2.144e-09
292.0,4.436e-09
292.5,6.237e-09
293.0,1.341e-08
293.5,3.272e-08
294.0,5.125e-08
294.5,6.983e-08
295.0,1.184e-07
295.5,2.066e-07
296.0,4.043e-07
296.5,5.744e-07
297.0,7.882e-07
297.5,2.168e-06
298.0,3.502e-06
298.5,3.598e-06
299.0,8.115e-06
299.5,1.412e-05
300.0,1.599e-05
300.5,2.393e-05
301.0,4.6e-05
301.5,7.801e-05
302.0,6.907e-05
302.5,0.0001379
303.0,0.0002554
303.5,0.0003299
304.0,0.0003193
304.5,0.0005173
305.0,0.0008843
305.5,0.001095
306.0,0.001091
306.5,0.00143
307.0,0.002387
307.5,0.003568
308.0,0.003835
308.5,0.004802
309.0,0.004965
309.5,0.006104
310.0,0.006333
310.5,0.01041
311.0,0.01341
311.5,0.01308
312.0,0.01387
312.5,0.01755
313.0,0.01941
313.5,0.01842
314.0,0.02416
314.5,0.02286
315.0,0.03034
315.5,0.02449
316.0,0.02255
316.5,0.03391
317.0,0.04196
317.5,0.04295
318.0,0.03456
318.5,0.04567
319.0,0.05589
319.5,0.04308
320.0,0.05151
320.5,0.06877
321.0,0.06499
321.5,0.06255
322.0,0.06221
322.5,0.05416
323.0,0.05618
323.5,0.07155
324.0,0.08385
324.5,0.08355
325.0,0.07051
325.5,0.09376
326.0,0.115
326.5,0.1175
327.0,0.1158
327.5,0.1104
328.0,0.09541
328.5,0.1035
329.0,0.1272
329.5,0.1454
330.0,0.1452
330.5,0.1133
331.0,0.1143
331.5,0.1178
332.0,0.1302
332.5,0.13
333.0,0.1284
333.5,0.1137
334.0,0.1158
334.5,0.1362
335.0,0.1293
335.5,0.1521
336.0,0.105
336.5,0.1207
337.0,0.09779
337.5,0.1209
338.0,0.1199
338.5,0.1395
339.0,0.1375
339.5,0.1321
340.0,0.1535
340.5,0.1382
341.0,0.1353
341.5,0.1237
342.0,0.1474
342.5,0.1375
343.0,0.1509
343.5,0.1419
344.0,0.1041
344.5,0.1056
345.0,0.1389
345.5,0.1414
346.0,0.1198
346.5,0.1353
347.0,0.1449
347.5,0.1169
348.0,0.1328
348.5,0.1323
349.0,0.1224
349.5,0.1209
350.0,0.1491
350.5,0.1569
351.0,0.1398
351.5,0.1356
352.0,0.1451
352.5,0.1129
353.0,0.1418
353.5,0.1512
354.0,0.1566
354.5,0.1584
355.0,0.1574
355.5,0.1418
356.0,0.1479
356.5,0.126
357.0,0.1038
357.5,0.1267
358.0,0.1001
358.5,0.08532
359.0,0.119
359.5,0.1512
360.0,0.1598
360.5,0.1274
361.0,0.1158
361.5,0.133
362.0,0.1147
362.5,0.1583
363.0,0.1418
363.5,0.1302
364.0,0.1588
364.5,0.1353
365.0,0.1374
365.5,0.172
366.0,0.1817
366.5,0.1702
367.0,0.1653
367.5,0.1711
368.0,0.1493
368.5,0.1502
369.0,0.1617
369.5,0.1719
370.0,0.1827
370.5,0.1414
371.0,0.1506
371.5,0.1879
372.0,0.1243
372.5,0.1486
373.0,0.1508
373.5,0.0978
374.0,0.1417
374.5,0.117
375.0,0.1134
375.5,0.1688
376.0,0.1395
376.5,0.1441
377.0,0.1522
377.5,0.1775
378.0,0.1918
378.5,0.1807
379.0,0.1487
379.5,0.1354
380.0,0.1403
380.5,0.1694
381.0,0.1692
381.5,0.1337
382.0,0.1184
382.5,0.1006
383.0,0.09284
383.5,0.08915
384.0,0.09804
384.5,0.1438
385.0,0.1421
385.5,0.132
386.0,0.1127
386.5,0.1475
387.0,0.1222
387.5,0.1368
388.0,0.1259
388.5,0.1241
389.0,0.1335
389.5,0.1612
390.0,0.1613
390.5,0.148
391.0,0.1736
391.5,0.1765
392.0,0.1482
392.5,0.1322
393.0,0.07335
393.5,0.05316
394.0,0.1078
394.5,0.1367
395.0,0.1662
395.5,0.1683
396.0,0.1455
396.5,0.08478
397.0,0.06342
397.5,0.1286
398.0,0.1795
398.5,0.1849
399.0,0.1996
399.5,0.1983
400.0,0.2053
401.0,0.2017
402.0,0.2114
403.0,0.1995
404.0,0.1952
405.0,0.1939
406.0,0.1895
407.0,0.1852
408.0,0.1911
409.0,0.2032
410.0,0.1764
411.0,0.1899
412.0,0.2026
413.0,0.1963
414.0,0.1974
415.0,0.1966
416.0,0.1987
417.0,0.1924
418.0,0.1876
419.0,0.1888
420.0,0.1867
421.0,0.1939
422.0,0.183
423.0,0.1775
424.0,0.1863
425.0,0.1847
426.0,0.1787
427.0,0.1742
428.0,0.1686
429.0,0.1587
430.0,0.138
431.0,0.1358
432.0,0.174
433.0,0.1737
434.0,0.1602
435.0,0.1662
436.0,0.186
437.0,0.1823
438.0,0.1649
439.0,0.1693
440.0,0.1734
441.0,0.1783
442.0,0.1898
443.0,0.1835
444.0,0.1863
445.0,0.1811
446.0,0.1718
447.0,0.1845
448.0,0.186
449.0,0.1853
450.0,0.189
451.0,0.1946
452.0,0.1862
453.0,0.174
454.0,0.1805
455.0,0.1802
456.0,0.1831
457.0,0.1846
458.0,0.1768
459.0,0.1745
460.0,0.1735
461.0,0.1761
462.0,0.1763
463.0,0.1741
464.0,0.1703
465.0,0.1672
466.0,0.1677
467.0,0.1634
468.0,0.164
469.0,0.1635
470.0,0.1571
471.0,0.1559
472.0,0.1632
473.0,0.16
474.0,0.159
475.0,0.1591
476.0,0.153
477.0,0.1521
478.0,0.1549
479.0,0.1525
480.0,0.1514
481.0,0.1528
482.0,0.1525
483.0,0.1496
484.0,0.1457
485.0,0.1381
486.0,0.12
487.0,0.125
488.0,0.1361
489.0,0.1355
490.0,0.1414
491.0,0.1379
492.0,0.1292
493.0,0.1325
494.0,0.1329
495.0,0.133
496.0,0.1328
497.0,0.1338
498.0,0.1263
499.0,0.1267
500.0,0.1218
501.0,0.1184
502.0,0.1155
503.0,0.119
504.0,0.1148
505.0,0.1181
506.0,0.1211
507.0,0.1144
508.0,0.1102
509.0,0.1127
510.0,0.1115
511.0,0.1137
512.0,0.1141
513.0,0.1072
514.0,0.1056
515.0,0.1038
516.0,0.1027
517.0,0.09062
518.0,0.09457
519.0,0.09845
520.0,0.1012
521.0,0.1013
522.0,0.1006
523.0,0.09801
524.0,0.1006
525.0,0.1009
526.0,0.09552
527.0,0.08914
528.0,0.09339
529.0,0.0976
530.0,0.09541
531.0,0.09603
532.0,0.09201
533.0,0.08868
534.0,0.09069
535.0,0.09209
536.0,0.09236
537.0,0.08814
538.0,0.08908
539.0,0.08774
540.0,0.08353
541.0,0.08341
542.0,0.0853
543.0,0.08376
544.0,0.0846
545.0,0.08379
546.0,0.08352
547.0,0.08288
548.0,0.08132
549.0,0.08102
550.0,0.08141
551.0,0.07985
552.0,0.07983
553.0,0.07783
554.0,0.07912
555.0,0.07869
556.0,0.07706
557.0,0.07405
558.0,0.07286
559.0,0.07087
560.0,0.07113
561.0,0.07143
562.0,0.07028
563.0,0.07159
564.0,0.06909
565.0,0.06797
566.0,0.06645
567.0,0.06717
568.0,0.06602
569.0,0.06387
570.0,0.06341
571.0,0.06259
572.0,0.06355
573.0,0.0638
574.0,0.0632
575.0,0.06164
576.0,0.06073
577.0,0.06106
578.0,0.05986
579.0,0.05984
580.0,0.06074
581.0,0.06079
582.0,0.06166
583.0,0.06154
584.0,0.0618
585.0,0.05998
586.0,0.05838
587.0,0.05925
588.0,0.05734
589.0,0.05025
590.0,0.05225
591.0,0.05508
592.0,0.05392
593.0,0.05441
594.0,0.05356
595.0,0.05176
596.0,0.0536
597.0,0.05258
598.0,0.05209
599.0,0.05177
600.0,0.05153
601.0,0.05081
602.0,0.05017
603.0,0.05072
604.0,0.05129
605.0,0.05078
606.0,0.05037
607.0,0.05068
608.0,0.04992
609.0,0.04981
610.0,0.04928
611.0,0.04936
612.0,0.04904
613.0,0.04823
614.0,0.04739
615.0,0.04824
616.0,0.04647
617.0,0.0462
618.0,0.04778
619.0,0.0471
620.0,0.04718
621.0,0.047
622.0,0.04621
623.0,0.04527
624.0,0.04428
625.0,0.044
626.0,0.04445
627.0,0.04471
628.0,0.04105
629.0,0.04306
630.0,0.04186
631.0,0.04277
632.0,0.04211
633.0,0.04329
634.0,0.04275
635.0,0.04325
636.0,0.04252
637.0,0.04306
638.0,0.04333
639.0,0.04269
640.0,0.04212
641.0,0.04192
642.0,0.04159
643.0,0.042
644.0,0.04171
645.0,0.04157
646.0,0.04035
647.0,0.03957
648.0,0.0394
649.0,0.03846
650.0,0.03864
651.0,0.04016
652.0,0.03811
653.0,0.03928
654.0,0.03869
655.0,0.03697
656.0,0.03269
657.0,0.03344
658.0,0.03738
659.0,0.03751
660.0,0.0375
661.0,0.03759
662.0,0.03748
663.0,0.0366
664.0,0.03692
665.0,0.03682
666.0,0.0367
667.0,0.03654
668.0,0.03642
669.0,0.03683
670.0,0.03651
671.0,0.03636
672.0,0.03593
673.0,0.03635
674.0,0.03606
675.0,0.03557
676.0,0.03567
677.0,0.03518
678.0,0.03514
679.0,0.03443
680.0,0.03456
681.0,0.03418
682.0,0.03397
683.0,0.03375
684.0,0.03342
685.0,0.03355
686.0,0.03319
687.0,0.02035
688.0,0.02439
689.0,0.02439
690.0,0.02571
691.0,0.02725
692.0,0.02838
693.0,0.028
694.0,0.02762
695.0,0.02885
696.0,0.02876
697.0,0.03074
698.0,0.03012
699.0,0.02906
700.0,0.02857
701.0,0.0281
702.0,0.02825
703.0,0.02818
704.0,0.02906
705.0,0.02896
706.0,0.02885
707.0,0.02876
708.0,0.02868
709.0,0.02865
710.0,0.02847
711.0,0.02836
712.0,0.0282
713.0,0.02775
714.0,0.02772
715.0,0.02663
716.0,0.02651
717.0,0.02223
718.0,0.02016
719.0,0.01824
720.0,0.01906
721.0,0.02132
722.0,0.02483
723.0,0.02271
724.0,0.02006
725.0,0.0196
726.0,0.02052
727.0,0.0208
728.0,0.01928
729.0,0.02011
730.0,0.02124
731.0,0.02013
732.0,0.02169
733.0,0.02309
734.0,0.02359
735.0,0.02296
736.0,0.02283
737.0,0.0228
738.0,0.0232
739.0,0.02263
740.0,0.02315
741.0,0.02284
742.0,0.02278
743.0,0.02324
744.0,0.02307
745.0,0.02297
746.0,0.02297
747.0,0.02291
748.0,0.02275
749.0,0.02238
750.0,0.02227
751.0,0.02195
752.0,0.02196
753.0,0.02197
754.0,0.02192
755.0,0.0217
756.0,0.0216
757.0,0.02154
758.0,0.02117
759.0,0.02055
760.0,0.00281
761.0,0.001462
762.0,0.009174
763.0,0.004289
764.0,0.006601
765.0,0.009036
766.0,0.01146
767.0,0.01495
768.0,0.01772
769.0,0.01815
770.0,0.01884
771.0,0.01897
772.0,0.01894
773.0,0.01898
774.0,0.01879
775.0,0.01856
776.0,0.01869
777.0,0.01835
778.0,0.01814
779.0,0.01806
780.0,0.01788
781.0,0.01782
782.0,0.01786
783.0,0.01747
784.0,0.01749
785.0,0.01728
786.0,0.01739
787.0,0.01695
788.0,0.01664
789.0,0.01655
790.0,0.01594
791.0,0.0161
792.0,0.01592
793.0,0.01558
794.0,0.01587
795.0,0.01604
796.0,0.01535
797.0,0.01531
798.0,0.0158
799.0,0.01561
800.0,0.01523
801.0,0.01508
802.0,0.01497
803.0,0.01478
804.0,0.01474
805.0,0.01466
806.0,0.01505
807.0,0.01479
808.0,0.01474
809.0,0.01435
810.0,0.01413
811.0,0.01403
812.0,0.01348
813.0,0.01308
814.0,0.0112
815.0,0.01108
816.0,0.01016
817.0,0.01033
818.0,0.009863
819.0,0.01121
820.0,0.01042
821.0,0.01248
822.0,0.01201
823.0,0.007623
824.0,0.01147
825.0,0.01203
826.0,0.01142
827.0,0.01213
828.0,0.009938
829.0,0.01123
830.0,0.01101
831.0,0.01102
832.0,0.01057
833.0,0.01139
834.0,0.01084
835.0,0.01207
836.0,0.01137
837.0,0.012
838.0,0.01152
839.0,0.01172
840.0,0.01194
841.0,0.01169
842.0,0.0117
843.0,0.01168
844.0,0.01145
845.0,0.01181
846.0,0.01171
847.0,0.01145
848.0,0.01131
849.0,0.01093
850.0,0.01043
851.0,0.01097
852.0,0.01084
853.0,0.0104
854.0,0.008929
855.0,0.009787
856.0,0.01065
857.0,0.01085
858.0,0.01073
859.0,0.0107
860.0,0.01068
861.0,0.01058
862.0,0.01071
863.0,0.01092
864.0,0.01033
865.0,0.0102
866.0,0.009138
867.0,0.009498
868.0,0.01029
869.0,0.01004
870.0,0.01028
871.0,0.0101
872.0,0.01003
873.0,0.009964
874.0,0.009802
875.0,0.009559
876.0,0.009616
877.0,0.009673
878.0,0.009733
879.0,0.009544
880.0,0.0093
881.0,0.009114
882.0,0.009272
883.0,0.00927
884.0,0.009183
885.0,0.00921
886.0,0.008713
887.0,0.008792
888.0,0.008869
889.0,0.008957
890.0,0.008812
891.0,0.008778
892.0,0.008455
893.0,0.008107
894.0,0.007702
895.0,0.007141
896.0,0.006619
897.0,0.005513
898.0,0.006078
899.0,0.004406
900.0,0.006248
901.0,0.004635
902.0,0.005594
903.0,0.00558
904.0,0.007332
905.0,0.007001
906.0,0.006474
907.0,0.005016
908.0,0.005135
909.0,0.005642
910.0,0.00482
911.0,0.005206
912.0,0.005457
913.0,0.00483
914.0,0.004783
915.0,0.005213
916.0,0.0043
917.0,0.005666
918.0,0.004386
919.0,0.00575
920.0,0.005848
921.0,0.006112
922.0,0.005317
923.0,0.005861
924.0,0.005407
925.0,0.005254
926.0,0.0053
927.0,0.006024
928.0,0.004107
929.0,0.003671
930.0,0.002759
931.0,0.002593
932.0,0.001774
933.0,0.001401
934.0,0.000719
935.0,0.001437
936.0,0.0008536
937.0,0.0008606
938.0,0.00107
939.0,0.002426
940.0,0.002992
941.0,0.002158
942.0,0.002537
943.0,0.001576
944.0,0.001687
945.0,0.002196
946.0,0.001029
947.0,0.002177
948.0,0.001552
949.0,0.003013
950.0,0.0007206
951.0,0.00295
952.0,0.001452
953.0,0.001934
954.0,0.00245
955.0,0.001954
956.0,0.00191
957.0,0.001425
958.0,0.002821
959.0,0.002135
960.0,0.002412
961.0,0.002765
962.0,0.00259
963.0,0.003056
964.0,0.002752
965.0,0.003021
966.0,0.003006
967.0,0.002972
968.0,0.004268
969.0,0.004446
970.0,0.004006
971.0,0.004725
972.0,0.004457
973.0,0.00373
974.0,0.003502
975.0,0.003655
976.0,0.003401
977.0,0.003998
978.0,0.003726
979.0,0.003934
980.0,0.003641
981.0,0.004521
982.0,0.004254
983.0,0.004036
984.0,0.004665
985.0,0.004191
986.0,0.004746
987.0,0.004598
988.0,0.004572
989.0,0.004698
990.0,0.00451
991.0,0.004664
992.0,0.004678
993.0,0.004522
994.0,0.004648
995.0,0.004631
996.0,0.004587
997.0,0.00458
998.0,0.00454
999.0,0.004509
1000.0,0.004452
1001.0,0.0045
1002.0,0.004323
1003.0,0.004385
1004.0,0.004251
1005.0,0.004093
1006.0,0.004229
1007.0,0.004305
1008.0,0.004259
1009.0,0.004214
1010.0,0.004176
1011.0,0.004221
1012.0,0.00416
1013.0,0.004181
1014.0,0.004136
1015.0,0.004092
1016.0,0.004057
1017.0,0.00405
1018.0,0.004024
1019.0,0.003909
1020.0,0.003969
1021.0,0.003951
1022.0,0.0039
1023.0,0.003926
1024.0,0.003847
1025.0,0.003899
1026.0,0.003864
1027.0,0.003841
1028.0,0.003818
1029.0,0.003758
1030.0,0.003774
1031.0,0.003743
1032.0,0.003719
1033.0,0.003649
1034.0,0.003635
1035.0,0.003632
1036.0,0.003636
1037.0,0.003564
1038.0,0.003566
1039.0,0.003551
1040.0,0.003523
1041.0,0.003522
1042.0,0.003484
1043.0,0.00346
1044.0,0.003459
1045.0,0.003398
1046.0,0.003347
1047.0,0.003364
1048.0,0.003369
1049.0,0.003344
1050.0,0.003316
1051.0,0.003298
1052.0,0.003271
1053.0,0.003232
1054.0,0.003226
1055.0,0.003214
1056.0,0.003189
1057.0,0.003166
1058.0,0.003076
1059.0,0.003067
1060.0,0.00305
1061.0,0.003034
1062.0,0.003036
1063.0,0.002994
1064.0,0.00302
1065.0,0.002983
1066.0,0.002916
1067.0,0.002942
1068.0,0.002864
1069.0,0.002767
1070.0,0.002847
1071.0,0.002891
1072.0,0.00284
1073.0,0.002791
1074.0,0.002865
1075.0,0.002682
1076.0,0.002839
1077.0,0.002761
1078.0,0.002693
1079.0,0.002768
1080.0,0.002686
1081.0,0.002581
1082.0,0.002637
1083.0,0.002641
1084.0,0.002537
1085.0,0.00265
1086.0,0.002359
1087.0,0.002465
1088.0,0.002585
1089.0,0.00247
1090.0,0.002386
1091.0,0.002541
1092.0,0.002531
1093.0,0.002058
1094.0,0.00229
1095.0,0.002143
1096.0,0.002021
1097.0,0.002431
1098.0,0.001969
1099.0,0.002058
1100.0,0.001871
1101.0,0.001899
1102.0,0.001789
1103.0,0.001752
1104.0,0.001751
1105.0,0.00196
1106.0,0.001391
1107.0,0.001826
1108.0,0.001478
1109.0,0.001481
1110.0,0.001782
1111.0,0.001112
1112.0,0.001458
1113.0,0.0008461
1114.0,0.0009534
1115.0,0.0007723
1116.0,0.0005877
1117.0,0.0001932
1118.0,0.0006433
1119.0,0.000294
1120.0,0.0003717
1121.0,0.0005055
1122.0,0.0001959
1123.0,0.0003309
1124.0,0.0002761
1125.0,0.0003667
1126.0,0.000116
1127.0,0.0004138
1128.0,0.0002326
1129.0,0.0002475
1130.0,0.000158
1131.0,0.0008401
1132.0,0.0006376
1133.0,0.0003773
1134.0,8.714e-05
1135.0,3.225e-05
1136.0,0.0003043
1137.0,0.0008013
1138.0,0.0005447
1139.0,0.000873
1140.0,0.0007013
1141.0,0.0005107
1142.0,0.0005975
1143.0,0.0008875
1144.0,0.0002733
1145.0,0.0003484
1146.0,0.0003757
1147.0,0.0001205
1148.0,0.0007429
1149.0,0.0005707
1150.0,0.0002908
1151.0,0.0005163
1152.0,0.0006551
1153.0,0.0006432
1154.0,0.0003268
1155.0,0.0008658
1156.0,0.0007619
1157.0,0.000876
1158.0,0.0008623
1159.0,0.0009452
1160.0,0.0007842
1161.0,0.001008
1162.0,0.001005
1163.0,0.001446
1164.0,0.001198
1165.0,0.001104
1166.0,0.001103
1167.0,0.001216
1168.0,0.001224
1169.0,0.00126
1170.0,0.001389
1171.0,0.001344
1172.0,0.001375
1173.0,0.001371
1174.0,0.0009112
1175.0,0.001339
1176.0,0.0015
1177.0,0.001415
1178.0,0.001002
1179.0,0.001498
1180.0,0.001293
1181.0,0.001337
1182.0,0.0008582
1183.0,0.001316
1184.0,0.001206
1185.0,0.001146
1186.0,0.00141
1187.0,0.001322
1188.0,0.0008569
1189.0,0.001217
1190.0,0.001358
1191.0,0.001261
1192.0,0.001372
1193.0,0.001298
1194.0,0.001343
1195.0,0.001249
1196.0,0.001188
1197.0,0.001343
1198.0,0.001207
1199.0,0.0009849
1200.0,0.001256
1201.0,0.001194
1202.0,0.001189
1203.0,0.001179
1204.0,0.000998
1205.0,0.001217
1206.0,0.00137
1207.0,0.001168
1208.0,0.001158
1209.0,0.001179
1210.0,0.001235
1211.0,0.001157
1212.0,0.001126
1213.0,0.001289
1214.0,0.001154
1215.0,0.001124
1216.0,0.001273
1217.0,0.001227
1218.0,0.001254
1219.0,0.001231
1220.0,0.001248
1221.0,0.001261
1222.0,0.001218
1223.0,0.0012
1224.0,0.001184
1225.0,0.001236
1226.0,0.001245
1227.0,0.001125
1228.0,0.001247
1229.0,0.001234
1230.0,0.001205
1231.0,0.001247
1232.0,0.001235
1233.0,0.001174
1234.0,0.001237
1235.0,0.001223
1236.0,0.00123
1237.0,0.001203
1238.0,0.001218
1239.0,0.001198
1240.0,0.001199
1241.0,0.001186
1242.0,0.001183
1243.0,0.001169
1244.0,0.001173
1245.0,0.001175
1246.0,0.001164
1247.0,0.001155
1248.0,0.001149
1249.0,0.00115
1250.0,0.001138
1251.0,0.001118
1252.0,0.001117
1253.0,0.0011
1254.0,0.001082
1255.0,0.001104
1256.0,0.001061
1257.0,0.00105
1258.0,0.001073
1259.0,0.001018
1260.0,0.001022
1261.0,0.0009451
1262.0,0.0009058
1263.0,0.0009045
1264.0,0.0008147
1265.0,0.0008938
1266.0,0.0008469
1267.0,0.0008665
1268.0,0.0008076
1269.0,0.0004436
1270.0,0.0008533
1271.0,0.0009176
1272.0,0.0009195
1273.0,0.0009051
1274.0,0.0009074
1275.0,0.0009207
1276.0,0.0009298
1277.0,0.0009364
1278.0,0.000958
1279.0,0.0009458
1280.0,0.0009313
1281.0,0.0008889
1282.0,0.0008588
1283.0,0.000921
1284.0,0.000939
1285.0,0.0009431
1286.0,0.0009557
1287.0,0.0009327
1288.0,0.0009309
1289.0,0.0008889
1290.0,0.0009175
1291.0,0.000929
1292.0,0.0008519
1293.0,0.0009005
1294.0,0.0008903
1295.0,0.0008789
1296.0,0.0008252
1297.0,0.000769
1298.0,0.000843
1299.0,0.0008864
1300.0,0.0007165
1301.0,0.0007424
1302.0,0.000831
1303.0,0.0007024
1304.0,0.0005732
1305.0,0.0008031
1306.0,0.0007995
1307.0,0.0005857
1308.0,0.0006945
1309.0,0.0007835
1310.0,0.0005673
1311.0,0.0006538
1312.0,0.0006324
1313.0,0.0006131
1314.0,0.0005345
1315.0,0.0005248
1316.0,0.0006312
1317.0,0.0005898
1318.0,0.0006517
1319.0,0.0004786
1320.0,0.000463
1321.0,0.0005528
1322.0,0.0005548
1323.0,0.0003929
1324.0,0.0004619
1325.0,0.0006027
1326.0,0.0004995
1327.0,0.0004704
1328.0,0.0003945
1329.0,0.0002801
1330.0,0.0003764
1331.0,0.0002094
1332.0,0.0002182
1333.0,0.0003125
1334.0,0.0002644
1335.0,0.000377
1336.0,0.0002858
1337.0,0.000248
1338.0,0.0002692
1339.0,0.0002683
1340.0,0.0002613
1341.0,0.0002491
1342.0,0.0002625
1343.0,0.0001653
1344.0,9.653e-05
1345.0,0.0001413
1346.0,6.551e-05
1347.0,6.608e-05
1348.0,4.061e-06
1349.0,1.468e-05
1350.0,1.526e-05
1351.0,3.642e-06
1352.0,9.767e-07
1353.0,4.968e-08
1354.0,1.708e-07
1355.0,1.375e-09
1356.0,2.406e-08
1357.0,3.655e-08
1358.0,1.614e-09
1359.0,2.033e-10
1360.0,7.348e-10
