interpolation:linear
wavelength,value
280.0,2.436e-21
280.5,7.675000000000001e-20
281.0,4.057e-19
281.5,3.701e-19
282.0,1.023e-18
282.5,2.675e-18
283.0,8.634e-18
283.5,1.413e-17
284.0,2.303e-16
284.5,6.654e-16
285.0,1.485e-15
285.5,7.162e-15
286.0,2.86e-14
286.5,1.26e-13
287.0,3.563e-13
287.5,1.348e-12
288.0,3.666e-12
288.5,1.205e-11
289.0,3.393e-11
289.5,1.067e-10
290.0,3.036e-10
290.5,6.292e-10
291.0,1.371e-09
291.5,3.985e-09
292.0,8.368e-09
292.5,1.248e-08
293.0,2.888e-08
293.5,7.761e-08
294.0,1.298e-07
294.5,1.643e-07
295.0,2.94e-07
295.5,7.261e-07
296.0,1.425e-06
296.5,2.034e-06
297.0,2.807e-06
297.5,7.814e-06
298.0,1.28e-05
298.5,1.332e-05
299.0,3.054e-05
299.5,5.516e-05
300.0,6.417e-05
300.5,9.934e-05
301.0,0.0002052
301.5,0.0003813
302.0,0.0003587
302.5,0.0006963
303.0,0.001241
303.5,0.001558
304.0,0.001471
304.5,0.002235
305.0,0.003485
305.5,0.00406
306.0,0.003948
306.5,0.004967
307.0,0.007572
307.5,0.01034
308.0,0.01094
308.5,0.01307
309.0,0.0132
309.5,0.01505
310.0,0.01508
310.5,0.02435
311.0,0.0305
311.5,0.02936
312.0,0.02939
312.5,0.03578
313.0,0.03876
313.5,0.03742
314.0,0.0469
314.5,0.04185
315.0,0.0549
315.5,0.04551
316.0,0.03996
316.5,0.05769
317.0,0.07136
317.5,0.0738
318.0,0.05774
318.5,0.07242
319.0,0.08629
319.5,0.06925
320.0,0.08323
320.5,0.1054
321.0,0.09493
321.5,0.09085
322.0,0.09489
322.5,0.08232
323.0,0.08257
323.5,0.1026
324.0,0.1195
324.5,0.1205
325.0,0.1026
325.5,0.1328
326.0,0.1628
326.5,0.1633
327.0,0.1618
327.5,0.1554
328.0,0.1371
328.5,0.1446
329.0,0.1738
329.5,0.1972
330.0,0.1978
330.5,0.1567
331.0,0.1588
331.5,0.1615
332.0,0.1752
332.5,0.1733
333.0,0.1718
333.5,0.1541
334.0,0.1571
334.5,0.1819
335.0,0.171
335.5,0.202
336.0,0.1393
336.5,0.1598
337.0,0.1302
337.5,0.1612
338.0,0.1578
338.5,0.1837
339.0,0.1806
339.5,0.1735
340.0,0.201
340.5,0.1806
341.0,0.1771
341.5,0.1611
342.0,0.1916
342.5,0.1784
343.0,0.1961
343.5,0.1844
344.0,0.135
344.5,0.1375
345.0,0.1798
345.5,0.1825
346.0,0.1543
346.5,0.174
347.0,0.1865
347.5,0.1504
348.0,0.1703
348.5,0.1694
349.0,0.1565
349.5,0.1544
350.0,0.1903
350.5,0.2
351.0,0.1782
351.5,0.1733
352.0,0.1849
352.5,0.1435
353.0,0.18
353.5,0.1917
354.0,0.1982
354.5,0.2002
355.0,0.1989
355.5,0.179
356.0,0.1865
356.5,0.1587
357.0,0.1306
357.5,0.1593
358.0,0.1258
358.5,0.1071
359.0,0.1492
359.5,0.1896
360.0,0.2002
360.5,0.1594
361.0,0.1447
361.5,0.166
362.0,0.143
362.5,0.1972
363.0,0.1765
363.5,0.162
364.0,0.1974
364.5,0.1681
365.0,0.1706
365.5,0.2133
366.0,0.2251
366.5,0.2108
367.0,0.2045
367.5,0.2114
368.0,0.1843
368.5,0.1853
369.0,0.1994
369.5,0.2117
370.0,0.2249
370.5,0.1739
371.0,0.1851
371.5,0.2308
372.0,0.1526
372.5,0.1823
373.0,0.1847
373.5,0.1198
374.0,0.1734
374.5,0.1431
375.0,0.1385
375.5,0.2061
376.0,0.1702
376.5,0.1757
377.0,0.1853
377.5,0.216
378.0,0.2333
378.5,0.2196
379.0,0.1805
379.5,0.1643
380.0,0.1701
380.5,0.2052
381.0,0.2048
381.5,0.1617
382.0,0.1431
382.5,0.1215
383.0,0.112
383.5,0.1075
384.0,0.1181
384.5,0.1731
385.0,0.171
385.5,0.1587
386.0,0.1354
386.5,0.1772
387.0,0.1466
387.5,0.1641
388.0,0.1509
388.5,0.1486
389.0,0.1598
389.5,0.1928
390.0,0.1927
390.5,0.1767
391.0,0.2072
391.5,0.2105
392.0,0.1766
392.5,0.1575
393.0,0.08729
393.5,0.06321
394.0,0.1281
394.5,0.1623
395.0,0.1973
395.5,0.1997
396.0,0.1725
396.5,0.1004
397.0,0.07508
397.5,0.1521
398.0,0.2122
398.5,0.2185
399.0,0.2357
399.5,0.234
400.0,0.2421
401.0,0.2378
402.0,0.2489
403.0,0.2346
404.0,0.2293
405.0,0.2275
406.0,0.222
407.0,0.2167
408.0,0.2234
409.0,0.2373
410.0,0.2059
411.0,0.2213
412.0,0.2359
413.0,0.2283
414.0,0.2294
415.0,0.2282
416.0,0.2304
417.0,0.2229
418.0,0.2171
419.0,0.2182
420.0,0.2156
421.0,0.2237
422.0,0.2109
423.0,0.2044
424.0,0.2144
425.0,0.2123
426.0,0.2053
427.0,0.1999
428.0,0.1933
429.0,0.1818
430.0,0.1579
431.0,0.1552
432.0,0.1988
433.0,0.1983
434.0,0.1827
435.0,0.1893
436.0,0.2118
437.0,0.2074
438.0,0.1875
439.0,0.1924
440.0,0.197
441.0,0.2025
442.0,0.2154
443.0,0.2082
444.0,0.2111
445.0,0.2051
446.0,0.1943
447.0,0.2085
448.0,0.21
449.0,0.2091
450.0,0.2132
451.0,0.2194
452.0,0.2098
453.0,0.1959
454.0,0.203
455.0,0.2026
456.0,0.2058
457.0,0.2074
458.0,0.1987
459.0,0.1961
460.0,0.195
461.0,0.1979
462.0,0.198
463.0,0.1953
464.0,0.1909
465.0,0.1872
466.0,0.1876
467.0,0.1827
468.0,0.1833
469.0,0.1827
470.0,0.1755
471.0,0.1741
472.0,0.1821
473.0,0.1784
474.0,0.1773
475.0,0.1774
476.0,0.1706
477.0,0.1696
478.0,0.1728
479.0,0.1702
480.0,0.1691
481.0,0.1707
482.0,0.1702
483.0,0.1669
484.0,0.1624
485.0,0.1537
486.0,0.1334
487.0,0.1388
488.0,0.1511
489.0,0.1504
490.0,0.157
491.0,0.1531
492.0,0.1435
493.0,0.1471
494.0,0.1475
495.0,0.1476
496.0,0.1474
497.0,0.1485
498.0,0.1404
499.0,0.1409
500.0,0.1356
501.0,0.1319
502.0,0.1289
503.0,0.1329
504.0,0.1284
505.0,0.132
506.0,0.1353
507.0,0.1278
508.0,0.123
509.0,0.1257
510.0,0.1242
511.0,0.1267
512.0,0.1272
513.0,0.1194
514.0,0.1177
515.0,0.1157
516.0,0.1145
517.0,0.101
518.0,0.1055
519.0,0.1098
520.0,0.1129
521.0,0.1131
522.0,0.1123
523.0,0.1095
524.0,0.1125
525.0,0.1129
526.0,0.107
527.0,0.09997
528.0,0.1048
529.0,0.1096
530.0,0.1073
531.0,0.108
532.0,0.1036
533.0,0.09984
534.0,0.1021
535.0,0.1037
536.0,0.1039
537.0,0.09914
538.0,0.1002
539.0,0.0987
540.0,0.094
541.0,0.09391
542.0,0.0961
543.0,0.09439
544.0,0.0954
545.0,0.09452
546.0,0.09426
547.0,0.09355
548.0,0.09178
549.0,0.09145
550.0,0.09191
551.0,0.09017
552.0,0.09015
553.0,0.08792
554.0,0.0894
555.0,0.08895
556.0,0.08714
557.0,0.08379
558.0,0.0825
559.0,0.08032
560.0,0.08068
561.0,0.08109
562.0,0.07986
563.0,0.08141
564.0,0.07862
565.0,0.07739
566.0,0.0757
567.0,0.07656
568.0,0.0753
569.0,0.07293
570.0,0.07243
571.0,0.07151
572.0,0.07266
573.0,0.07296
574.0,0.07229
575.0,0.07051
576.0,0.06944
577.0,0.06979
578.0,0.06837
579.0,0.06829
580.0,0.06926
581.0,0.06924
582.0,0.07017
583.0,0.07
584.0,0.07026
585.0,0.06817
586.0,0.06633
587.0,0.06731
588.0,0.0652
589.0,0.05723
590.0,0.05952
591.0,0.0627
592.0,0.06143
593.0,0.06198
594.0,0.06107
595.0,0.0591
596.0,0.06116
597.0,0.06006
598.0,0.05952
599.0,0.05917
600.0,0.05891
601.0,0.05809
602.0,0.05736
603.0,0.05797
604.0,0.05859
605.0,0.05798
606.0,0.05747
607.0,0.05777
608.0,0.05685
609.0,0.05667
610.0,0.05601
611.0,0.05604
612.0,0.05562
613.0,0.05465
614.0,0.05365
615.0,0.05456
616.0,0.05252
617.0,0.05217
618.0,0.05392
619.0,0.05311
620.0,0.05318
621.0,0.05295
622.0,0.05205
623.0,0.05096
624.0,0.04983
625.0,0.04949
626.0,0.04998
627.0,0.05026
628.0,0.04632
629.0,0.04843
630.0,0.04705
631.0,0.04798
632.0,0.0472
633.0,0.04847
634.0,0.04782
635.0,0.04834
636.0,0.04748
637.0,0.04804
638.0,0.0483
639.0,0.04755
640.0,0.04687
641.0,0.04661
642.0,0.04621
643.0,0.04664
644.0,0.04628
645.0,0.04611
646.0,0.04476
647.0,0.04392
648.0,0.04371
649.0,0.04266
650.0,0.04277
651.0,0.04442
652.0,0.0422
653.0,0.04341
654.0,0.04273
655.0,0.04085
656.0,0.03608
657.0,0.03689
658.0,0.0412
659.0,0.04132
660.0,0.04128
661.0,0.04137
662.0,0.04124
663.0,0.04026
664.0,0.04058
665.0,0.04044
666.0,0.04028
667.0,0.04007
668.0,0.03992
669.0,0.04035
670.0,0.03998
671.0,0.03979
672.0,0.0393
673.0,0.03975
674.0,0.03941
675.0,0.03886
676.0,0.03895
677.0,0.0384
678.0,0.03835
679.0,0.03756
680.0,0.03768
681.0,0.03726
682.0,0.03703
683.0,0.03678
684.0,0.03641
685.0,0.03654
686.0,0.03615
687.0,0.02268
688.0,0.02698
689.0,0.02696
690.0,0.02833
691.0,0.02991
692.0,0.03105
693.0,0.03062
694.0,0.03018
695.0,0.03144
696.0,0.03132
697.0,0.03339
698.0,0.03271
699.0,0.03161
700.0,0.03107
701.0,0.03059
702.0,0.03072
703.0,0.03062
704.0,0.03154
705.0,0.03143
706.0,0.03129
707.0,0.03118
708.0,0.0311
709.0,0.03103
710.0,0.03085
711.0,0.03072
712.0,0.03054
713.0,0.03006
714.0,0.03001
715.0,0.02886
716.0,0.02873
717.0,0.02428
718.0,0.022
719.0,0.01989
720.0,0.02081
721.0,0.0232
722.0,0.02692
723.0,0.02466
724.0,0.02183
725.0,0.02134
726.0,0.02236
727.0,0.02259
728.0,0.021
729.0,0.02184
730.0,0.0231
731.0,0.02189
732.0,0.02352
733.0,0.02499
734.0,0.02551
735.0,0.02484
736.0,0.0247
737.0,0.02467
738.0,0.02505
739.0,0.02442
740.0,0.02498
741.0,0.02463
742.0,0.02455
743.0,0.02505
744.0,0.02485
745.0,0.02474
746.0,0.02474
747.0,0.02468
748.0,0.0245
749.0,0.0241
750.0,0.02397
751.0,0.02363
752.0,0.02363
753.0,0.02363
754.0,0.02357
755.0,0.02333
756.0,0.02322
757.0,0.02315
758.0,0.02275
759.0,0.02212
760.0,0.003082
761.0,0.001577
762.0,0.01019
763.0,0.00475
764.0,0.007346
765.0,0.01004
766.0,0.01264
767.0,0.01633
768.0,0.01918
769.0,0.01958
770.0,0.02027
771.0,0.02039
772.0,0.02035
773.0,0.02039
774.0,0.02019
775.0,0.01994
776.0,0.02009
777.0,0.01973
778.0,0.01951
779.0,0.01942
780.0,0.01922
781.0,0.01915
782.0,0.01919
783.0,0.01877
784.0,0.01878
785.0,0.01856
786.0,0.01868
787.0,0.01823
788.0,0.0179
789.0,0.01779
790.0,0.01717
791.0,0.0173
792.0,0.0171
793.0,0.01674
794.0,0.01702
795.0,0.01721
796.0,0.01651
797.0,0.01647
798.0,0.01696
799.0,0.01676
800.0,0.01636
801.0,0.01621
802.0,0.01609
803.0,0.01589
804.0,0.01585
805.0,0.01575
806.0,0.01615
807.0,0.01587
808.0,0.01582
809.0,0.01542
810.0,0.01519
811.0,0.01511
812.0,0.01454
813.0,0.01412
814.0,0.01213
815.0,0.012
816.0,0.011
817.0,0.01119
818.0,0.01069
819.0,0.01211
820.0,0.01127
821.0,0.01344
822.0,0.01294
823.0,0.008266
824.0,0.01238
825.0,0.01294
826.0,0.01231
827.0,0.01305
828.0,0.01074
829.0,0.01209
830.0,0.01186
831.0,0.01186
832.0,0.01139
833.0,0.01225
834.0,0.01168
835.0,0.01295
836.0,0.01224
837.0,0.01288
838.0,0.01239
839.0,0.01258
840.0,0.01281
841.0,0.01255
842.0,0.01255
843.0,0.01252
844.0,0.01227
845.0,0.01265
846.0,0.01254
847.0,0.01226
848.0,0.01212
849.0,0.01172
850.0,0.01118
851.0,0.01177
852.0,0.01163
853.0,0.01115
854.0,0.00958
855.0,0.01049
856.0,0.01142
857.0,0.01164
858.0,0.0115
859.0,0.01147
860.0,0.01144
861.0,0.01133
862.0,0.01147
863.0,0.01169
864.0,0.01106
865.0,0.01092
866.0,0.009782
867.0,0.01017
868.0,0.01102
869.0,0.01074
870.0,0.01101
871.0,0.01081
872.0,0.01073
873.0,0.01066
874.0,0.01049
875.0,0.01023
876.0,0.01029
877.0,0.01035
878.0,0.01042
879.0,0.01021
880.0,0.009952
881.0,0.009756
882.0,0.009927
883.0,0.009924
884.0,0.009832
885.0,0.00986
886.0,0.009338
887.0,0.009416
888.0,0.009503
889.0,0.00959
890.0,0.009444
891.0,0.009403
892.0,0.00907
893.0,0.008706
894.0,0.008294
895.0,0.007717
896.0,0.007149
897.0,0.005971
898.0,0.00658
899.0,0.004773
900.0,0.006747
901.0,0.005035
902.0,0.006049
903.0,0.006049
904.0,0.007896
905.0,0.007546
906.0,0.006981
907.0,0.005438
908.0,0.005559
909.0,0.006102
910.0,0.005234
911.0,0.005632
912.0,0.005908
913.0,0.005247
914.0,0.005187
915.0,0.005672
916.0,0.004661
917.0,0.006145
918.0,0.004763
919.0,0.006222
920.0,0.006299
921.0,0.006596
922.0,0.005754
923.0,0.006322
924.0,0.005864
925.0,0.005693
926.0,0.005753
927.0,0.006522
928.0,0.004487
929.0,0.004021
930.0,0.003025
931.0,0.002838
932.0,0.001942
933.0,0.00153
934.0,0.0007794
935.0,0.001566
936.0,0.000924
937.0,0.0009319
938.0,0.001165
939.0,0.002656
940.0,0.003279
941.0,0.002368
942.0,0.002785
943.0,0.001721
944.0,0.001832
945.0,0.002406
946.0,0.001118
947.0,0.00239
948.0,0.001688
949.0,0.003318
950.0,0.0007791
951.0,0.003245
952.0,0.001585
953.0,0.002117
954.0,0.002684
955.0,0.002142
956.0,0.002068
957.0,0.001558
958.0,0.003066
959.0,0.002328
960.0,0.002641
961.0,0.003017
962.0,0.002823
963.0,0.003327
964.0,0.002993
965.0,0.00329
966.0,0.003276
967.0,0.003241
968.0,0.004603
969.0,0.004815
970.0,0.004337
971.0,0.005092
972.0,0.004806
973.0,0.004048
974.0,0.003799
975.0,0.003956
976.0,0.003698
977.0,0.004316
978.0,0.004036
979.0,0.004257
980.0,0.003938
981.0,0.004872
982.0,0.004595
983.0,0.004363
984.0,0.005013
985.0,0.004528
986.0,0.00509
987.0,0.004944
988.0,0.004914
989.0,0.005033
990.0,0.004851
991.0,0.005001
992.0,0.005014
993.0,0.004858
994.0,0.00498
995.0,0.00496
996.0,0.004914
997.0,0.004905
998.0,0.004862
999.0,0.004828
1000.0,0.00477
1001.0,0.004819
1002.0,0.00464
1003.0,0.004696
1004.0,0.004555
1005.0,0.004382
1006.0,0.004529
1007.0,0.00461
1008.0,0.004563
1009.0,0.004516
1010.0,0.004477
1011.0,0.004519
1012.0,0.004456
1013.0,0.004476
1014.0,0.004429
1015.0,0.004382
1016.0,0.004344
1017.0,0.004337
1018.0,0.004308
1019.0,0.004189
1020.0,0.00425
1021.0,0.004229
1022.0,0.004176
1023.0,0.004204
1024.0,0.004124
1025.0,0.004175
1026.0,0.004138
1027.0,0.004113
1028.0,0.004089
1029.0,0.004025
1030.0,0.004041
1031.0,0.004008
1032.0,0.003982
1033.0,0.003907
1034.0,0.003892
1035.0,0.003889
1036.0,0.003893
1037.0,0.003816
1038.0,0.003819
1039.0,0.003802
1040.0,0.003773
1041.0,0.003772
1042.0,0.003732
1043.0,0.003706
1044.0,0.003705
1045.0,0.003641
1046.0,0.003586
1047.0,0.003604
1048.0,0.003611
1049.0,0.003584
1050.0,0.003554
1051.0,0.003535
1052.0,0.003507
1053.0,0.003466
1054.0,0.00346
1055.0,0.003448
1056.0,0.003421
1057.0,0.003397
1058.0,0.003301
1059.0,0.003291
1060.0,0.003273
1061.0,0.003256
1062.0,0.00326
1063.0,0.003216
1064.0,0.003243
1065.0,0.003204
1066.0,0.003132
1067.0,0.00316
1068.0,0.003077
1069.0,0.002972
1070.0,0.003059
1071.0,0.003103
1072.0,0.00305
1073.0,0.002998
1074.0,0.003073
1075.0,0.002885
1076.0,0.003047
1077.0,0.002967
1078.0,0.002896
1079.0,0.002968
1080.0,0.002885
1081.0,0.002777
1082.0,0.002831
1083.0,0.002833
1084.0,0.002731
1085.0,0.002846
1086.0,0.002541
1087.0,0.002651
1088.0,0.002774
1089.0,0.002658
1090.0,0.00257
1091.0,0.002728
1092.0,0.002717
1093.0,0.002224
1094.0,0.002461
1095.0,0.002318
1096.0,0.002189
1097.0,0.00261
1098.0,0.002136
1099.0,0.00223
1100.0,0.002031
1101.0,0.00206
1102.0,0.001945
1103.0,0.001907
1104.0,0.001905
1105.0,0.002126
1106.0,0.001525
1107.0,0.001984
1108.0,0.001615
1109.0,0.001616
1110.0,0.001939
1111.0,0.001216
1112.0,0.001589
1113.0,0.0009266
1114.0,0.001047
1115.0,0.0008447
1116.0,0.0006445
1117.0,0.0002082
1118.0,0.0007065
1119.0,0.0003192
1120.0,0.0004077
1121.0,0.0005583
1122.0,0.000212
1123.0,0.0003613
1124.0,0.0002997
1125.0,0.0004013
1126.0,0.0001241
1127.0,0.0004544
1128.0,0.0002532
1129.0,0.0002699
1130.0,0.00017
1131.0,0.0009334
1132.0,0.0007044
1133.0,0.0004152
1134.0,9.263e-05
1135.0,3.356e-05
1136.0,0.0003338
1137.0,0.0008932
1138.0,0.0006003
1139.0,0.0009592
1140.0,0.0007724
1141.0,0.0005618
1142.0,0.000658
1143.0,0.0009822
1144.0,0.0002966
1145.0,0.0003831
1146.0,0.0004142
1147.0,0.0001296
1148.0,0.0008193
1149.0,0.0006283
1150.0,0.0003152
1151.0,0.0005689
1152.0,0.0007229
1153.0,0.0007049
1154.0,0.0003584
1155.0,0.0009532
1156.0,0.0008395
1157.0,0.0009608
1158.0,0.0009459
1159.0,0.001037
1160.0,0.0008579
1161.0,0.0011
1162.0,0.001097
1163.0,0.001568
1164.0,0.001303
1165.0,0.001206
1166.0,0.001199
1167.0,0.001321
1168.0,0.001331
1169.0,0.00137
1170.0,0.001505
1171.0,0.001455
1172.0,0.001484
1173.0,0.001486
1174.0,0.0009925
1175.0,0.001446
1176.0,0.001612
1177.0,0.001527
1178.0,0.001085
1179.0,0.00161
1180.0,0.001397
1181.0,0.001446
1182.0,0.0009313
1183.0,0.001421
1184.0,0.001304
1185.0,0.001242
1186.0,0.00152
1187.0,0.001428
1188.0,0.0009335
1189.0,0.001314
1190.0,0.001462
1191.0,0.001366
1192.0,0.001477
1193.0,0.001399
1194.0,0.001447
1195.0,0.001351
1196.0,0.001287
1197.0,0.001445
1198.0,0.001299
1199.0,0.001069
1200.0,0.001355
1201.0,0.001292
1202.0,0.001282
1203.0,0.001274
1204.0,0.00108
1205.0,0.00131
1206.0,0.001472
1207.0,0.001262
1208.0,0.001248
1209.0,0.00127
1210.0,0.001329
1211.0,0.001248
1212.0,0.001221
1213.0,0.001387
1214.0,0.001249
1215.0,0.001217
1216.0,0.00137
1217.0,0.001322
1218.0,0.001349
1219.0,0.001326
1220.0,0.001342
1221.0,0.001355
1222.0,0.00131
1223.0,0.001292
1224.0,0.001276
1225.0,0.001329
1226.0,0.001337
1227.0,0.001214
1228.0,0.001338
1229.0,0.001325
1230.0,0.001295
1231.0,0.001336
1232.0,0.001324
1233.0,0.001264
1234.0,0.001325
1235.0,0.00131
1236.0,0.001317
1237.0,0.00129
1238.0,0.001304
1239.0,0.001283
1240.0,0.001284
1241.0,0.001271
1242.0,0.001267
1243.0,0.001252
1244.0,0.001256
1245.0,0.001258
1246.0,0.001246
1247.0,0.001237
1248.0,0.001231
1249.0,0.001232
1250.0,0.00122
1251.0,0.001199
1252.0,0.001197
1253.0,0.00118
1254.0,0.001162
1255.0,0.001183
1256.0,0.00114
1257.0,0.001129
1258.0,0.001152
1259.0,0.001097
1260.0,0.0011
1261.0,0.001023
1262.0,0.0009837
1263.0,0.0009824
1264.0,0.0008906
1265.0,0.0009708
1266.0,0.0009233
1267.0,0.0009423
1268.0,0.000882
1269.0,0.000497
1270.0,0.000929
1271.0,0.0009936
1272.0,0.0009951
1273.0,0.0009801
1274.0,0.0009817
1275.0,0.0009951
1276.0,0.001004
1277.0,0.001009
1278.0,0.001031
1279.0,0.001018
1280.0,0.001002
1281.0,0.0009551
1282.0,0.0009211
1283.0,0.0009882
1284.0,0.001008
1285.0,0.001012
1286.0,0.001024
1287.0,0.001001
1288.0,0.000999
1289.0,0.0009573
1290.0,0.0009844
1291.0,0.0009961
1292.0,0.0009191
1293.0,0.0009668
1294.0,0.000956
1295.0,0.0009461
1296.0,0.0008914
1297.0,0.0008325
1298.0,0.0009078
1299.0,0.0009512
1300.0,0.0007757
1301.0,0.0008029
1302.0,0.0008949
1303.0,0.0007597
1304.0,0.0006252
1305.0,0.0008648
1306.0,0.000862
1307.0,0.0006362
1308.0,0.0007496
1309.0,0.0008463
1310.0,0.0006168
1311.0,0.000707
1312.0,0.0006848
1313.0,0.0006655
1314.0,0.0005811
1315.0,0.0005724
1316.0,0.000684
1317.0,0.0006393
1318.0,0.0007045
1319.0,0.0005224
1320.0,0.0005034
1321.0,0.0006006
1322.0,0.0006045
1323.0,0.0004307
1324.0,0.0005035
1325.0,0.0006539
1326.0,0.0005439
1327.0,0.0005127
1328.0,0.0004304
1329.0,0.0003074
1330.0,0.000414
1331.0,0.0002304
1332.0,0.0002394
1333.0,0.0003461
1334.0,0.000288
1335.0,0.000414
1336.0,0.0003141
1337.0,0.0002718
1338.0,0.0002962
1339.0,0.0002948
1340.0,0.0002855
1341.0,0.0002748
1342.0,0.0002897
1343.0,0.0001832
1344.0,0.0001046
1345.0,0.0001555
1346.0,7.116e-05
1347.0,7.193e-05
1348.0,4.166e-06
1349.0,1.536e-05
1350.0,1.599e-05
1351.0,3.728e-06
1352.0,9.891e-07
1353.0,4.998e-08
1354.0,1.721e-07
1355.0,1.381e-09
1356.0,2.419e-08
1357.0,3.676e-08
1358.0,1.622e-09
1359.0,2.042e-10
1360.0,7.382e-10
1361.0,8.256e-13
1362.0,2.258e-15
1363.0,9.925e-10
