interpolation:linear
wavelength,value
280.0,7.459999999999999e-22
280.5,2.4160000000000003e-20
281.0,1.288e-19
281.5,5.185e-19
282.0,8.732e-19
282.5,2.161e-18
283.0,6.802e-18
283.5,1.105e-17
284.0,1.794e-16
284.5,5.201e-16
285.0,9.639e-16
285.5,4.697e-15
286.0,1.882e-14
286.5,8.373e-14
287.0,2.385e-13
287.5,9.111e-13
288.0,2.92e-12
288.5,9.006e-12
289.0,2.426e-11
289.5,7.38e-11
290.0,2.056e-10
290.5,4.202e-10
291.0,9.035e-10
291.5,2.596e-09
292.0,5.839e-09
292.5,8.214e-09
293.0,1.767e-08
293.5,4.311e-08
294.0,6.754e-08
294.5,8.937e-08
295.0,1.514e-07
295.5,3.083e-07
296.0,5.718e-07
296.5,8.176e-07
297.0,1.129e-06
297.5,3.141e-06
298.0,5.136e-06
298.5,5.336e-06
299.0,1.219e-05
299.5,2.183e-05
300.0,2.521e-05
300.5,3.866e-05
301.0,7.808e-05
301.5,0.0001406
302.0,0.0001294
302.5,0.0002563
303.0,0.0004695
303.5,0.0006015
304.0,0.0005775
304.5,0.0009164
305.0,0.00152
305.5,0.001844
306.0,0.001823
306.5,0.002356
307.0,0.003813
307.5,0.005523
308.0,0.005903
308.5,0.00727
309.0,0.007467
309.5,0.008889
310.0,0.009088
310.5,0.01483
311.0,0.01888
311.5,0.01831
312.0,0.01896
312.5,0.0236
313.0,0.02588
313.5,0.02474
314.0,0.03184
314.5,0.02941
315.0,0.03884
315.5,0.0317
316.0,0.02862
316.5,0.04232
317.0,0.05236
317.5,0.05383
318.0,0.04282
318.5,0.05538
319.0,0.06704
319.5,0.05254
320.0,0.06295
320.5,0.08224
321.0,0.07622
321.5,0.07319
322.0,0.07426
322.5,0.06456
323.0,0.06606
323.5,0.08317
324.0,0.09721
324.5,0.09737
325.0,0.08259
325.5,0.1086
326.0,0.133
326.5,0.1348
327.0,0.1332
327.5,0.1274
328.0,0.111
328.5,0.119
329.0,0.1449
329.5,0.1651
330.0,0.1652
330.5,0.1297
331.0,0.1311
331.5,0.1344
332.0,0.1474
332.5,0.1466
333.0,0.145
333.5,0.1291
334.0,0.1316
334.5,0.1537
335.0,0.1454
335.5,0.1711
336.0,0.1181
336.5,0.1357
337.0,0.1103
337.5,0.1364
338.0,0.1346
338.5,0.1564
339.0,0.154
339.5,0.1479
340.0,0.1718
340.5,0.1546
341.0,0.1513
341.5,0.1381
342.0,0.1644
342.5,0.1533
343.0,0.1683
343.5,0.1582
344.0,0.1161
344.5,0.1179
345.0,0.1547
345.5,0.1573
346.0,0.1331
346.5,0.1502
347.0,0.161
347.5,0.1299
348.0,0.1473
348.5,0.1467
349.0,0.1357
349.5,0.1339
350.0,0.1651
350.5,0.1737
351.0,0.1547
351.5,0.1502
352.0,0.1606
352.5,0.1248
353.0,0.1567
353.5,0.167
354.0,0.1728
354.5,0.1747
355.0,0.1736
355.5,0.1563
356.0,0.163
356.5,0.1388
357.0,0.1143
357.5,0.1395
358.0,0.1102
358.5,0.09385
359.0,0.1309
359.5,0.1662
360.0,0.1757
360.5,0.1399
361.0,0.1272
361.5,0.146
362.0,0.1258
362.5,0.1736
363.0,0.1554
363.5,0.1427
364.0,0.174
364.5,0.1482
365.0,0.1505
365.5,0.1883
366.0,0.1988
366.5,0.1862
367.0,0.1808
367.5,0.187
368.0,0.1631
368.5,0.1641
369.0,0.1766
369.5,0.1876
370.0,0.1994
370.5,0.1542
371.0,0.1643
371.5,0.2049
372.0,0.1355
372.5,0.162
373.0,0.1642
373.5,0.1065
374.0,0.1543
374.5,0.1273
375.0,0.1234
375.5,0.1836
376.0,0.1517
376.5,0.1567
377.0,0.1653
377.5,0.1928
378.0,0.2083
378.5,0.1962
379.0,0.1614
379.5,0.1469
380.0,0.1522
380.5,0.1837
381.0,0.1834
381.5,0.1449
382.0,0.1282
382.5,0.1089
383.0,0.1005
383.5,0.09648
384.0,0.1061
384.5,0.1555
385.0,0.1537
385.5,0.1426
386.0,0.1218
386.5,0.1594
387.0,0.132
387.5,0.1477
388.0,0.1359
388.5,0.1339
389.0,0.144
389.5,0.1739
390.0,0.1739
390.5,0.1595
391.0,0.1871
391.5,0.1901
392.0,0.1596
392.5,0.1424
393.0,0.07895
393.5,0.0572
394.0,0.116
394.5,0.147
395.0,0.1787
395.5,0.1809
396.0,0.1563
396.5,0.09108
397.0,0.06811
397.5,0.138
398.0,0.1926
398.5,0.1984
399.0,0.2142
399.5,0.2127
400.0,0.2201
401.0,0.2163
402.0,0.2266
403.0,0.2137
404.0,0.209
405.0,0.2075
406.0,0.2026
407.0,0.1979
408.0,0.2042
409.0,0.217
410.0,0.1883
411.0,0.2026
412.0,0.2161
413.0,0.2093
414.0,0.2104
415.0,0.2094
416.0,0.2115
417.0,0.2048
418.0,0.1996
419.0,0.2008
420.0,0.1984
421.0,0.206
422.0,0.1944
423.0,0.1884
424.0,0.1978
425.0,0.1959
426.0,0.1895
427.0,0.1847
428.0,0.1787
429.0,0.1681
430.0,0.1461
431.0,0.1437
432.0,0.1841
433.0,0.1837
434.0,0.1694
435.0,0.1756
436.0,0.1966
437.0,0.1926
438.0,0.1741
439.0,0.1787
440.0,0.183
441.0,0.1881
442.0,0.2002
443.0,0.1936
444.0,0.1964
445.0,0.1909
446.0,0.181
447.0,0.1943
448.0,0.1958
449.0,0.195
450.0,0.1989
451.0,0.2048
452.0,0.1959
453.0,0.183
454.0,0.1897
455.0,0.1894
456.0,0.1924
457.0,0.1939
458.0,0.1858
459.0,0.1833
460.0,0.1823
461.0,0.185
462.0,0.1851
463.0,0.1827
464.0,0.1787
465.0,0.1754
466.0,0.1759
467.0,0.1713
468.0,0.1719
469.0,0.1713
470.0,0.1647
471.0,0.1633
472.0,0.1709
473.0,0.1675
474.0,0.1665
475.0,0.1665
476.0,0.1602
477.0,0.1592
478.0,0.1622
479.0,0.1597
480.0,0.1586
481.0,0.1601
482.0,0.1597
483.0,0.1567
484.0,0.1525
485.0,0.1444
486.0,0.1255
487.0,0.1306
488.0,0.1422
489.0,0.1415
490.0,0.1477
491.0,0.1441
492.0,0.135
493.0,0.1384
494.0,0.1388
495.0,0.1389
496.0,0.1387
497.0,0.1397
498.0,0.132
499.0,0.1324
500.0,0.1274
501.0,0.1238
502.0,0.1209
503.0,0.1246
504.0,0.1202
505.0,0.1237
506.0,0.1268
507.0,0.1198
508.0,0.1154
509.0,0.1179
510.0,0.1166
511.0,0.1189
512.0,0.1194
513.0,0.1121
514.0,0.1105
515.0,0.1085
516.0,0.1075
517.0,0.09479
518.0,0.09893
519.0,0.103
520.0,0.1059
521.0,0.106
522.0,0.1053
523.0,0.1026
524.0,0.1054
525.0,0.1057
526.0,0.1001
527.0,0.09345
528.0,0.09793
529.0,0.1024
530.0,0.1001
531.0,0.1008
532.0,0.09659
533.0,0.0931
534.0,0.09521
535.0,0.09667
536.0,0.09693
537.0,0.09249
538.0,0.09348
539.0,0.09208
540.0,0.08767
541.0,0.08756
542.0,0.08957
543.0,0.08796
544.0,0.08887
545.0,0.08803
546.0,0.08776
547.0,0.08709
548.0,0.08545
549.0,0.08513
550.0,0.08555
551.0,0.08392
552.0,0.0839
553.0,0.08181
554.0,0.08317
555.0,0.08273
556.0,0.08103
557.0,0.07789
558.0,0.07665
559.0,0.07458
560.0,0.07488
561.0,0.07522
562.0,0.07404
563.0,0.07544
564.0,0.07283
565.0,0.07166
566.0,0.07007
567.0,0.07084
568.0,0.06965
569.0,0.06742
570.0,0.06694
571.0,0.06608
572.0,0.06711
573.0,0.06738
574.0,0.06675
575.0,0.0651
576.0,0.06413
577.0,0.06447
578.0,0.06318
579.0,0.06314
580.0,0.06407
581.0,0.0641
582.0,0.06499
583.0,0.06485
584.0,0.06511
585.0,0.06318
586.0,0.06149
587.0,0.0624
588.0,0.06041
589.0,0.05298
590.0,0.05509
591.0,0.05806
592.0,0.05685
593.0,0.05737
594.0,0.05649
595.0,0.05462
596.0,0.05655
597.0,0.0555
598.0,0.05499
599.0,0.05465
600.0,0.05441
601.0,0.05365
602.0,0.05297
603.0,0.05354
604.0,0.05413
605.0,0.05359
606.0,0.05314
607.0,0.05344
608.0,0.05262
609.0,0.05249
610.0,0.05191
611.0,0.05197
612.0,0.05161
613.0,0.05074
614.0,0.04984
615.0,0.05071
616.0,0.04884
617.0,0.04853
618.0,0.05018
619.0,0.04945
620.0,0.04953
621.0,0.04933
622.0,0.04849
623.0,0.0475
624.0,0.04645
625.0,0.04615
626.0,0.04662
627.0,0.04688
628.0,0.04311
629.0,0.04516
630.0,0.04389
631.0,0.04481
632.0,0.04411
633.0,0.04532
634.0,0.04474
635.0,0.04525
636.0,0.04447
637.0,0.04502
638.0,0.04529
639.0,0.0446
640.0,0.04399
641.0,0.04377
642.0,0.04341
643.0,0.04382
644.0,0.04351
645.0,0.04336
646.0,0.04208
647.0,0.04128
648.0,0.0411
649.0,0.04011
650.0,0.04026
651.0,0.04184
652.0,0.03972
653.0,0.0409
654.0,0.04028
655.0,0.0385
656.0,0.03402
657.0,0.0348
658.0,0.03888
659.0,0.03901
660.0,0.03899
661.0,0.03908
662.0,0.03896
663.0,0.03804
664.0,0.03836
665.0,0.03825
666.0,0.03812
667.0,0.03794
668.0,0.0378
669.0,0.03822
670.0,0.03788
671.0,0.03772
672.0,0.03726
673.0,0.03769
674.0,0.03738
675.0,0.03687
676.0,0.03696
677.0,0.03645
678.0,0.03641
679.0,0.03567
680.0,0.03579
681.0,0.03539
682.0,0.03518
683.0,0.03495
684.0,0.0346
685.0,0.03473
686.0,0.03436
687.0,0.02124
688.0,0.0254
689.0,0.02539
690.0,0.02673
691.0,0.02829
692.0,0.02943
693.0,0.02903
694.0,0.02862
695.0,0.02987
696.0,0.02977
697.0,0.03178
698.0,0.03115
699.0,0.03006
700.0,0.02956
701.0,0.02908
702.0,0.02923
703.0,0.02914
704.0,0.03004
705.0,0.02993
706.0,0.02981
707.0,0.02972
708.0,0.02963
709.0,0.02959
710.0,0.02941
711.0,0.02929
712.0,0.02913
713.0,0.02867
714.0,0.02862
715.0,0.02751
716.0,0.02739
717.0,0.02303
718.0,0.02088
719.0,0.01888
720.0,0.01974
721.0,0.02206
722.0,0.02565
723.0,0.02348
724.0,0.02075
725.0,0.02028
726.0,0.02124
727.0,0.0215
728.0,0.01995
729.0,0.02079
730.0,0.02197
731.0,0.02082
732.0,0.02241
733.0,0.02384
734.0,0.02435
735.0,0.0237
736.0,0.02357
737.0,0.02354
738.0,0.02393
739.0,0.02334
740.0,0.02387
741.0,0.02355
742.0,0.02348
743.0,0.02395
744.0,0.02377
745.0,0.02367
746.0,0.02367
747.0,0.02361
748.0,0.02344
749.0,0.02306
750.0,0.02294
751.0,0.02262
752.0,0.02262
753.0,0.02263
754.0,0.02257
755.0,0.02234
756.0,0.02224
757.0,0.02217
758.0,0.02179
759.0,0.02117
760.0,0.0029
761.0,0.001498
762.0,0.009555
763.0,0.004449
764.0,0.006871
765.0,0.009409
766.0,0.01191
767.0,0.01549
768.0,0.01829
769.0,0.01871
770.0,0.0194
771.0,0.01953
772.0,0.0195
773.0,0.01953
774.0,0.01934
775.0,0.0191
776.0,0.01924
777.0,0.01889
778.0,0.01868
779.0,0.0186
780.0,0.01841
781.0,0.01835
782.0,0.01838
783.0,0.01799
784.0,0.018
785.0,0.01778
786.0,0.0179
787.0,0.01746
788.0,0.01714
789.0,0.01704
790.0,0.01643
791.0,0.01657
792.0,0.01638
793.0,0.01603
794.0,0.01632
795.0,0.0165
796.0,0.01581
797.0,0.01576
798.0,0.01626
799.0,0.01606
800.0,0.01568
801.0,0.01553
802.0,0.01541
803.0,0.01522
804.0,0.01518
805.0,0.01509
806.0,0.01549
807.0,0.01521
808.0,0.01516
809.0,0.01477
810.0,0.01455
811.0,0.01446
812.0,0.0139
813.0,0.01349
814.0,0.01156
815.0,0.01143
816.0,0.01049
817.0,0.01066
818.0,0.01018
819.0,0.01156
820.0,0.01075
821.0,0.01286
822.0,0.01237
823.0,0.00787
824.0,0.01183
825.0,0.01239
826.0,0.01177
827.0,0.01249
828.0,0.01025
829.0,0.01157
830.0,0.01134
831.0,0.01134
832.0,0.01089
833.0,0.01172
834.0,0.01117
835.0,0.01241
836.0,0.01171
837.0,0.01235
838.0,0.01186
839.0,0.01206
840.0,0.01228
841.0,0.01203
842.0,0.01204
843.0,0.01201
844.0,0.01177
845.0,0.01214
846.0,0.01204
847.0,0.01177
848.0,0.01163
849.0,0.01124
850.0,0.01072
851.0,0.01128
852.0,0.01115
853.0,0.0107
854.0,0.009185
855.0,0.01007
856.0,0.01095
857.0,0.01116
858.0,0.01103
859.0,0.011
860.0,0.01098
861.0,0.01087
862.0,0.01101
863.0,0.01122
864.0,0.01062
865.0,0.01049
866.0,0.009391
867.0,0.009761
868.0,0.01058
869.0,0.01032
870.0,0.01057
871.0,0.01038
872.0,0.0103
873.0,0.01024
874.0,0.01007
875.0,0.009822
876.0,0.00988
877.0,0.009939
878.0,0.01
879.0,0.009807
880.0,0.009556
881.0,0.009367
882.0,0.009529
883.0,0.009527
884.0,0.009438
885.0,0.009466
886.0,0.008958
887.0,0.009037
888.0,0.009118
889.0,0.009206
890.0,0.00906
891.0,0.009023
892.0,0.008696
893.0,0.008342
894.0,0.007934
895.0,0.007365
896.0,0.006825
897.0,0.005689
898.0,0.006272
899.0,0.004547
900.0,0.006442
901.0,0.004788
902.0,0.005771
903.0,0.005762
904.0,0.007552
905.0,0.007213
906.0,0.006671
907.0,0.005179
908.0,0.005298
909.0,0.00582
910.0,0.004978
911.0,0.005369
912.0,0.005631
913.0,0.004989
914.0,0.004938
915.0,0.005389
916.0,0.004438
917.0,0.005851
918.0,0.00453
919.0,0.005933
920.0,0.006023
921.0,0.0063
922.0,0.005486
923.0,0.00604
924.0,0.005583
925.0,0.005424
926.0,0.005475
927.0,0.006218
928.0,0.004251
929.0,0.003803
930.0,0.002858
931.0,0.002685
932.0,0.001836
933.0,0.001448
934.0,0.0007398
935.0,0.001484
936.0,0.0008788
937.0,0.000886
938.0,0.001104
939.0,0.002512
940.0,0.0031
941.0,0.002236
942.0,0.00263
943.0,0.00163
944.0,0.001742
945.0,0.002274
946.0,0.001062
947.0,0.002256
948.0,0.001602
949.0,0.003127
950.0,0.0007412
951.0,0.003061
952.0,0.0015
953.0,0.002002
954.0,0.002538
955.0,0.002024
956.0,0.001969
957.0,0.001473
958.0,0.002915
959.0,0.002208
960.0,0.002498
961.0,0.00286
962.0,0.002678
963.0,0.003159
964.0,0.002843
965.0,0.003124
966.0,0.003109
967.0,0.003074
968.0,0.004398
969.0,0.004589
970.0,0.004134
971.0,0.004868
972.0,0.004593
973.0,0.003853
974.0,0.003616
975.0,0.003772
976.0,0.003515
977.0,0.004121
978.0,0.003845
979.0,0.004059
980.0,0.003755
981.0,0.004658
982.0,0.004387
983.0,0.004163
984.0,0.004801
985.0,0.004322
986.0,0.004881
987.0,0.004733
988.0,0.004705
989.0,0.00483
990.0,0.004643
991.0,0.004796
992.0,0.00481
993.0,0.004653
994.0,0.004778
995.0,0.00476
996.0,0.004715
997.0,0.004707
998.0,0.004666
999.0,0.004634
1000.0,0.004576
1001.0,0.004625
1002.0,0.004447
1003.0,0.004507
1004.0,0.00437
1005.0,0.004206
1006.0,0.004346
1007.0,0.004425
1008.0,0.004378
1009.0,0.004332
1010.0,0.004294
1011.0,0.004338
1012.0,0.004276
1013.0,0.004296
1014.0,0.004251
1015.0,0.004206
1016.0,0.00417
1017.0,0.004163
1018.0,0.004135
1019.0,0.004018
1020.0,0.004079
1021.0,0.00406
1022.0,0.004008
1023.0,0.004035
1024.0,0.003956
1025.0,0.004007
1026.0,0.003972
1027.0,0.003947
1028.0,0.003924
1029.0,0.003863
1030.0,0.003879
1031.0,0.003847
1032.0,0.003822
1033.0,0.00375
1034.0,0.003736
1035.0,0.003733
1036.0,0.003737
1037.0,0.003662
1038.0,0.003665
1039.0,0.003649
1040.0,0.003621
1041.0,0.00362
1042.0,0.003581
1043.0,0.003556
1044.0,0.003555
1045.0,0.003493
1046.0,0.003441
1047.0,0.003458
1048.0,0.003464
1049.0,0.003438
1050.0,0.003409
1051.0,0.00339
1052.0,0.003363
1053.0,0.003324
1054.0,0.003318
1055.0,0.003306
1056.0,0.00328
1057.0,0.003256
1058.0,0.003164
1059.0,0.003155
1060.0,0.003137
1061.0,0.003121
1062.0,0.003124
1063.0,0.003081
1064.0,0.003107
1065.0,0.003069
1066.0,0.003001
1067.0,0.003027
1068.0,0.002947
1069.0,0.002848
1070.0,0.00293
1071.0,0.002974
1072.0,0.002922
1073.0,0.002872
1074.0,0.002946
1075.0,0.002761
1076.0,0.00292
1077.0,0.002842
1078.0,0.002772
1079.0,0.002846
1080.0,0.002764
1081.0,0.002657
1082.0,0.002713
1083.0,0.002716
1084.0,0.002612
1085.0,0.002727
1086.0,0.00243
1087.0,0.002538
1088.0,0.002659
1089.0,0.002543
1090.0,0.002457
1091.0,0.002614
1092.0,0.002604
1093.0,0.002122
1094.0,0.002357
1095.0,0.002211
1096.0,0.002086
1097.0,0.002501
1098.0,0.002033
1099.0,0.002125
1100.0,0.001932
1101.0,0.001961
1102.0,0.001849
1103.0,0.001812
1104.0,0.00181
1105.0,0.002024
1106.0,0.001441
1107.0,0.001887
1108.0,0.00153
1109.0,0.001533
1110.0,0.001843
1111.0,0.001151
1112.0,0.001508
1113.0,0.000876
1114.0,0.0009884
1115.0,0.0007994
1116.0,0.0006084
1117.0,0.0001983
1118.0,0.0006666
1119.0,0.0003029
1120.0,0.0003844
1121.0,0.0005244
1122.0,0.0002014
1123.0,0.0003417
1124.0,0.0002844
1125.0,0.000379
1126.0,0.0001187
1127.0,0.0004283
1128.0,0.0002396
1129.0,0.0002552
1130.0,0.0001621
1131.0,0.0008745
1132.0,0.000662
1133.0,0.0003906
1134.0,8.893e-05
1135.0,3.27e-05
1136.0,0.0003146
1137.0,0.0008349
1138.0,0.000565
1139.0,0.0009055
1140.0,0.0007277
1141.0,0.0005294
1142.0,0.0006198
1143.0,0.0009227
1144.0,0.0002816
1145.0,0.0003607
1146.0,0.0003893
1147.0,0.0001235
1148.0,0.0007714
1149.0,0.0005919
1150.0,0.0002995
1151.0,0.0005355
1152.0,0.0006802
1153.0,0.0006663
1154.0,0.0003379
1155.0,0.0008987
1156.0,0.000791
1157.0,0.0009078
1158.0,0.0008937
1159.0,0.0009799
1160.0,0.0008117
1161.0,0.001043
1162.0,0.00104
1163.0,0.001493
1164.0,0.001238
1165.0,0.001142
1166.0,0.00114
1167.0,0.001256
1168.0,0.001265
1169.0,0.001302
1170.0,0.001434
1171.0,0.001387
1172.0,0.001417
1173.0,0.001416
1174.0,0.0009419
1175.0,0.00138
1176.0,0.001543
1177.0,0.001458
1178.0,0.001033
1179.0,0.001541
1180.0,0.001333
1181.0,0.001379
1182.0,0.000886
1183.0,0.001357
1184.0,0.001244
1185.0,0.001183
1186.0,0.001453
1187.0,0.001363
1188.0,0.0008861
1189.0,0.001254
1190.0,0.001399
1191.0,0.001301
1192.0,0.001413
1193.0,0.001337
1194.0,0.001384
1195.0,0.001289
1196.0,0.001226
1197.0,0.001383
1198.0,0.001243
1199.0,0.001017
1200.0,0.001295
1201.0,0.001232
1202.0,0.001225
1203.0,0.001216
1204.0,0.00103
1205.0,0.001253
1206.0,0.00141
1207.0,0.001204
1208.0,0.001193
1209.0,0.001214
1210.0,0.001272
1211.0,0.001192
1212.0,0.001163
1213.0,0.001327
1214.0,0.001191
1215.0,0.00116
1216.0,0.001311
1217.0,0.001264
1218.0,0.001291
1219.0,0.001268
1220.0,0.001285
1221.0,0.001298
1222.0,0.001254
1223.0,0.001236
1224.0,0.00122
1225.0,0.001272
1226.0,0.001281
1227.0,0.00116
1228.0,0.001282
1229.0,0.001269
1230.0,0.00124
1231.0,0.001282
1232.0,0.00127
1233.0,0.001209
1234.0,0.001271
1235.0,0.001257
1236.0,0.001264
1237.0,0.001237
1238.0,0.001251
1239.0,0.001231
1240.0,0.001233
1241.0,0.00122
1242.0,0.001216
1243.0,0.001202
1244.0,0.001205
1245.0,0.001207
1246.0,0.001196
1247.0,0.001187
1248.0,0.001181
1249.0,0.001182
1250.0,0.00117
1251.0,0.00115
1252.0,0.001149
1253.0,0.001131
1254.0,0.001113
1255.0,0.001135
1256.0,0.001092
1257.0,0.001081
1258.0,0.001104
1259.0,0.001048
1260.0,0.001052
1261.0,0.0009756
1262.0,0.0009361
1263.0,0.0009348
1264.0,0.000844
1265.0,0.0009238
1266.0,0.0008765
1267.0,0.0008959
1268.0,0.0008364
1269.0,0.0004632
1270.0,0.0008827
1271.0,0.0009472
1272.0,0.0009489
1273.0,0.0009343
1274.0,0.0009364
1275.0,0.0009497
1276.0,0.0009587
1277.0,0.0009649
1278.0,0.0009864
1279.0,0.0009739
1280.0,0.0009588
1281.0,0.0009147
1282.0,0.0008831
1283.0,0.0009472
1284.0,0.0009659
1285.0,0.0009699
1286.0,0.0009825
1287.0,0.0009596
1288.0,0.0009575
1289.0,0.0009156
1290.0,0.0009436
1291.0,0.0009552
1292.0,0.000878
1293.0,0.0009264
1294.0,0.0009159
1295.0,0.0009051
1296.0,0.0008509
1297.0,0.0007936
1298.0,0.0008682
1299.0,0.0009117
1300.0,0.0007393
1301.0,0.0007658
1302.0,0.0008559
1303.0,0.0007245
1304.0,0.0005929
1305.0,0.0008271
1306.0,0.0008238
1307.0,0.000605
1308.0,0.0007159
1309.0,0.000808
1310.0,0.0005862
1311.0,0.0006743
1312.0,0.0006526
1313.0,0.0006332
1314.0,0.0005524
1315.0,0.000543
1316.0,0.0006515
1317.0,0.0006088
1318.0,0.0006721
1319.0,0.0004952
1320.0,0.0004785
1321.0,0.0005712
1322.0,0.0005738
1323.0,0.0004071
1324.0,0.0004777
1325.0,0.0006224
1326.0,0.0005164
1327.0,0.0004865
1328.0,0.0004081
1329.0,0.0002902
1330.0,0.0003904
1331.0,0.000217
1332.0,0.000226
1333.0,0.0003249
1334.0,0.0002732
1335.0,0.000391
1336.0,0.0002964
1337.0,0.0002568
1338.0,0.0002791
1339.0,0.0002781
1340.0,0.0002704
1341.0,0.0002585
1342.0,0.0002725
1343.0,0.0001716
1344.0,9.938e-05
1345.0,0.0001463
1346.0,6.735e-05
1347.0,6.796e-05
1348.0,4.092e-06
1349.0,1.488e-05
1350.0,1.547e-05
1351.0,3.665e-06
1352.0,9.802e-07
1353.0,4.979e-08
1354.0,1.712e-07
1355.0,1.378e-09
1356.0,2.411e-08
1357.0,3.664e-08
1358.0,1.617e-09
1359.0,2.037e-10
