interpolation:linear
wavelength,value
280.0,1.0109999999999999e-22
280.5,3.369e-21
281.0,1.8170000000000002e-20
281.5,4.768e-19
282.0,5.339e-19
282.5,1.295e-18
283.0,4.065e-18
283.5,6.617e-18
284.0,1.092e-16
284.5,3.198e-16
285.0,5.767e-16
285.5,2.776e-15
286.0,1.114e-14
286.5,4.983e-14
287.0,1.429e-13
287.5,5.512e-13
288.0,1.944e-12
288.5,5.664e-12
289.0,1.477e-11
289.5,4.401e-11
290.0,1.215e-10
290.5,2.473e-10
291.0,5.305e-10
291.5,1.524e-09
292.0,3.083e-09
292.5,4.305e-09
293.0,9.183e-09
293.5,2.22e-08
294.0,3.464e-08
294.5,4.565e-08
295.0,7.706e-08
295.5,1.3e-07
296.0,2.477e-07
296.5,3.417e-07
297.0,4.567e-07
297.5,1.201e-06
298.0,1.857e-06
298.5,1.837e-06
299.0,3.98e-06
299.5,6.389e-06
300.0,6.878e-06
300.5,9.728e-06
301.0,1.688e-05
301.5,2.578e-05
302.0,2.153e-05
302.5,4.188e-05
303.0,7.524e-05
303.5,9.556e-05
304.0,9.214e-05
304.5,0.0001477
305.0,0.0002488
305.5,0.0003052
306.0,0.0003032
306.5,0.000395
307.0,0.0006494
307.5,0.0009552
308.0,0.001025
308.5,0.001272
309.0,0.001508
309.5,0.00202
310.0,0.002181
310.5,0.003658
311.0,0.004866
311.5,0.004814
312.0,0.005465
312.5,0.00723
313.0,0.008188
313.5,0.007618
314.0,0.01053
314.5,0.01068
315.0,0.01435
315.5,0.01122
316.0,0.01093
316.5,0.01723
317.0,0.02133
317.5,0.02156
318.0,0.01792
318.5,0.02519
319.0,0.03179
319.5,0.02336
320.0,0.02776
320.5,0.03944
321.0,0.03939
321.5,0.03815
322.0,0.03582
322.5,0.03131
323.0,0.03378
323.5,0.04544
324.0,0.05368
324.5,0.05257
325.0,0.04284
325.5,0.05879
326.0,0.07431
326.5,0.07769
327.0,0.07603
327.5,0.07179
328.0,0.06017
328.5,0.0678
329.0,0.08586
329.5,0.09905
330.0,0.09833
330.5,0.07512
331.0,0.07526
331.5,0.07893
332.0,0.08936
332.5,0.09025
333.0,0.08868
333.5,0.07729
334.0,0.07858
334.5,0.0943
335.0,0.09063
335.5,0.1069
336.0,0.07386
336.5,0.08432
337.0,0.06786
337.5,0.08372
338.0,0.08446
338.5,0.09882
339.0,0.09775
339.5,0.09382
340.0,0.1085
340.5,0.09801
341.0,0.0965
341.5,0.08866
342.0,0.1059
342.5,0.09896
343.0,0.1085
343.5,0.1019
344.0,0.07436
344.5,0.07569
345.0,0.1002
345.5,0.1023
346.0,0.08684
346.5,0.09823
347.0,0.1051
347.5,0.08479
348.0,0.09667
348.5,0.09658
349.0,0.08949
349.5,0.08843
350.0,0.1092
350.5,0.115
351.0,0.1024
351.5,0.09913
352.0,0.1064
352.5,0.083
353.0,0.1044
353.5,0.1116
354.0,0.1157
354.5,0.1171
355.0,0.1164
355.5,0.105
356.0,0.1097
356.5,0.09349
357.0,0.07709
357.5,0.09422
358.0,0.07454
358.5,0.06359
359.0,0.08874
359.5,0.1128
360.0,0.1193
360.5,0.09524
361.0,0.08669
361.5,0.09966
362.0,0.08603
362.5,0.1189
363.0,0.1065
363.5,0.09795
364.0,0.1196
364.5,0.102
365.0,0.1037
365.5,0.1298
366.0,0.1373
366.5,0.1288
367.0,0.1252
367.5,0.1296
368.0,0.1132
368.5,0.114
369.0,0.1229
369.5,0.1307
370.0,0.1391
370.5,0.1077
371.0,0.1149
371.5,0.1434
372.0,0.09499
372.5,0.1137
373.0,0.1154
373.5,0.07491
374.0,0.1086
374.5,0.08978
375.0,0.08709
375.5,0.1297
376.0,0.1073
376.5,0.111
377.0,0.1173
377.5,0.1369
378.0,0.1481
378.5,0.1396
379.0,0.115
379.5,0.1048
380.0,0.1087
380.5,0.1314
381.0,0.1313
381.5,0.1039
382.0,0.09204
382.5,0.07829
383.0,0.07232
383.5,0.0695
384.0,0.0765
384.5,0.1123
385.0,0.1111
385.5,0.1032
386.0,0.0882
386.5,0.1156
387.0,0.09583
387.5,0.1074
388.0,0.09892
388.5,0.09756
389.0,0.1051
389.5,0.1269
390.0,0.1271
390.5,0.1167
391.0,0.137
391.5,0.1395
392.0,0.1172
392.5,0.1047
393.0,0.0581
393.5,0.04213
394.0,0.08553
394.5,0.1085
395.0,0.1321
395.5,0.1338
396.0,0.1158
396.5,0.06751
397.0,0.05055
397.5,0.1025
398.0,0.1433
398.5,0.1477
399.0,0.1596
399.5,0.1587
400.0,0.1644
401.0,0.1617
402.0,0.1697
403.0,0.1604
404.0,0.1571
405.0,0.1563
406.0,0.153
407.0,0.1497
408.0,0.1547
409.0,0.1647
410.0,0.1432
411.0,0.1543
412.0,0.1649
413.0,0.16
414.0,0.1611
415.0,0.1606
416.0,0.1625
417.0,0.1576
418.0,0.1539
419.0,0.1551
420.0,0.1535
421.0,0.1597
422.0,0.1509
423.0,0.1465
424.0,0.154
425.0,0.1528
426.0,0.148
427.0,0.1445
428.0,0.14
429.0,0.1319
430.0,0.1148
431.0,0.1131
432.0,0.1451
433.0,0.145
434.0,0.1339
435.0,0.1391
436.0,0.1559
437.0,0.1529
438.0,0.1384
439.0,0.1421
440.0,0.1457
441.0,0.1499
442.0,0.1597
443.0,0.1546
444.0,0.1571
445.0,0.1529
446.0,0.1453
447.0,0.1562
448.0,0.1576
449.0,0.1571
450.0,0.1604
451.0,0.1653
452.0,0.1583
453.0,0.1481
454.0,0.1537
455.0,0.1536
456.0,0.1562
457.0,0.1575
458.0,0.1509
459.0,0.1489
460.0,0.1481
461.0,0.1505
462.0,0.1507
463.0,0.149
464.0,0.146
465.0,0.1435
466.0,0.1441
467.0,0.1405
468.0,0.1411
469.0,0.1407
470.0,0.1353
471.0,0.1343
472.0,0.1407
473.0,0.1381
474.0,0.1373
475.0,0.1374
476.0,0.1321
477.0,0.1313
478.0,0.1337
479.0,0.1316
480.0,0.1307
481.0,0.1319
482.0,0.1317
483.0,0.1293
484.0,0.1261
485.0,0.1197
486.0,0.1042
487.0,0.1086
488.0,0.1184
489.0,0.1179
490.0,0.1231
491.0,0.1201
492.0,0.1127
493.0,0.1156
494.0,0.116
495.0,0.1163
496.0,0.1161
497.0,0.117
498.0,0.1105
499.0,0.1107
500.0,0.1064
501.0,0.1033
502.0,0.1007
503.0,0.1036
504.0,0.0999
505.0,0.1027
506.0,0.1053
507.0,0.09965
508.0,0.09608
509.0,0.09832
510.0,0.09732
511.0,0.09935
512.0,0.09973
513.0,0.09367
514.0,0.0923
515.0,0.09066
516.0,0.08974
517.0,0.07915
518.0,0.0826
519.0,0.08598
520.0,0.08839
521.0,0.08847
522.0,0.08777
523.0,0.0855
524.0,0.08771
525.0,0.08785
526.0,0.08311
527.0,0.07748
528.0,0.0811
529.0,0.08469
530.0,0.08273
531.0,0.08322
532.0,0.07971
533.0,0.07682
534.0,0.07857
535.0,0.07981
536.0,0.08007
537.0,0.07645
538.0,0.07728
539.0,0.07611
540.0,0.07243
541.0,0.0723
542.0,0.07391
543.0,0.07255
544.0,0.07323
545.0,0.0725
546.0,0.07226
547.0,0.07171
548.0,0.07035
549.0,0.07009
550.0,0.07043
551.0,0.06907
552.0,0.06905
553.0,0.06731
554.0,0.06841
555.0,0.06801
556.0,0.06658
557.0,0.06395
558.0,0.06288
559.0,0.06111
560.0,0.06129
561.0,0.0615
562.0,0.06046
563.0,0.06153
564.0,0.05935
565.0,0.05835
566.0,0.05703
567.0,0.05761
568.0,0.05659
569.0,0.05471
570.0,0.05429
571.0,0.05358
572.0,0.05437
573.0,0.05456
574.0,0.05405
575.0,0.05271
576.0,0.05196
577.0,0.05228
578.0,0.05128
579.0,0.05131
580.0,0.05214
581.0,0.05223
582.0,0.05303
583.0,0.05296
584.0,0.05321
585.0,0.05166
586.0,0.05031
587.0,0.05106
588.0,0.04939
589.0,0.04322
590.0,0.04495
591.0,0.04741
592.0,0.04637
593.0,0.04679
594.0,0.04603
595.0,0.04442
596.0,0.04602
597.0,0.0451
598.0,0.04466
599.0,0.04436
600.0,0.04415
601.0,0.04354
602.0,0.04299
603.0,0.04348
604.0,0.04399
605.0,0.04358
606.0,0.04326
607.0,0.04357
608.0,0.04296
609.0,0.04292
610.0,0.04251
611.0,0.04263
612.0,0.04239
613.0,0.04174
614.0,0.04106
615.0,0.04183
616.0,0.04034
617.0,0.04013
618.0,0.04154
619.0,0.04098
620.0,0.04107
621.0,0.04093
622.0,0.04027
623.0,0.03947
624.0,0.03863
625.0,0.0384
626.0,0.03881
627.0,0.03904
628.0,0.03573
629.0,0.0376
630.0,0.03657
631.0,0.03744
632.0,0.03689
633.0,0.03797
634.0,0.03754
635.0,0.03801
636.0,0.03741
637.0,0.03792
638.0,0.0382
639.0,0.03767
640.0,0.0372
641.0,0.03706
642.0,0.03679
643.0,0.03717
644.0,0.03695
645.0,0.03684
646.0,0.03577
647.0,0.03505
648.0,0.03494
649.0,0.03411
650.0,0.03434
651.0,0.03571
652.0,0.03387
653.0,0.03497
654.0,0.03446
655.0,0.03293
656.0,0.02914
657.0,0.02983
658.0,0.03337
659.0,0.03351
660.0,0.03352
661.0,0.03363
662.0,0.03353
663.0,0.03276
664.0,0.03308
665.0,0.03302
666.0,0.03293
667.0,0.03281
668.0,0.03273
669.0,0.03312
670.0,0.03285
671.0,0.03273
672.0,0.03235
673.0,0.03275
674.0,0.0325
675.0,0.03208
676.0,0.03218
677.0,0.03176
678.0,0.03174
679.0,0.03111
680.0,0.03123
681.0,0.0309
682.0,0.03073
683.0,0.03053
684.0,0.03024
685.0,0.03037
686.0,0.03005
687.0,0.01813
688.0,0.02179
689.0,0.0218
690.0,0.02304
691.0,0.02449
692.0,0.02559
693.0,0.02525
694.0,0.02496
695.0,0.02614
696.0,0.02608
697.0,0.02792
698.0,0.02737
699.0,0.02637
700.0,0.02593
701.0,0.02549
702.0,0.02565
703.0,0.0256
704.0,0.02643
705.0,0.02634
706.0,0.02626
707.0,0.02618
708.0,0.02611
709.0,0.02611
710.0,0.02594
711.0,0.02585
712.0,0.02571
713.0,0.02529
714.0,0.02527
715.0,0.02426
716.0,0.02415
717.0,0.02015
718.0,0.0183
719.0,0.01658
720.0,0.01729
721.0,0.01939
722.0,0.02262
723.0,0.02069
724.0,0.01825
725.0,0.01783
726.0,0.01865
727.0,0.01895
728.0,0.01754
729.0,0.01833
730.0,0.01932
731.0,0.01833
732.0,0.01978
733.0,0.02109
734.0,0.02157
735.0,0.02098
736.0,0.02086
737.0,0.02084
738.0,0.02124
739.0,0.02072
740.0,0.02122
741.0,0.02094
742.0,0.02089
743.0,0.02132
744.0,0.02116
745.0,0.02108
746.0,0.02107
747.0,0.02103
748.0,0.02088
749.0,0.02055
750.0,0.02045
751.0,0.02017
752.0,0.02018
753.0,0.0202
754.0,0.02015
755.0,0.01996
756.0,0.01987
757.0,0.01981
758.0,0.01947
759.0,0.01888
760.0,0.002638
761.0,0.001394
762.0,0.008294
763.0,0.003971
764.0,0.00602
765.0,0.008172
766.0,0.01034
767.0,0.01356
768.0,0.01621
769.0,0.01663
770.0,0.01731
771.0,0.01746
772.0,0.01744
773.0,0.01747
774.0,0.0173
775.0,0.01708
776.0,0.0172
777.0,0.01689
778.0,0.01669
779.0,0.01662
780.0,0.01645
781.0,0.0164
782.0,0.01644
783.0,0.01609
784.0,0.01611
785.0,0.01592
786.0,0.01603
787.0,0.01561
788.0,0.01531
789.0,0.01523
790.0,0.01466
791.0,0.01483
792.0,0.01467
793.0,0.01435
794.0,0.01464
795.0,0.0148
796.0,0.01413
797.0,0.01409
798.0,0.01457
799.0,0.01439
800.0,0.01404
801.0,0.0139
802.0,0.01379
803.0,0.01361
804.0,0.01358
805.0,0.01351
806.0,0.01389
807.0,0.01364
808.0,0.01359
809.0,0.01322
810.0,0.01301
811.0,0.01291
812.0,0.01237
813.0,0.01201
814.0,0.01026
815.0,0.01015
816.0,0.009324
817.0,0.009472
818.0,0.009036
819.0,0.01028
820.0,0.009556
821.0,0.01148
822.0,0.01105
823.0,0.006999
824.0,0.01054
825.0,0.01109
826.0,0.01052
827.0,0.01118
828.0,0.009129
829.0,0.01035
830.0,0.01015
831.0,0.01015
832.0,0.009735
833.0,0.01049
834.0,0.009985
835.0,0.01114
836.0,0.01047
837.0,0.01108
838.0,0.01062
839.0,0.01082
840.0,0.01103
841.0,0.01079
842.0,0.01081
843.0,0.0108
844.0,0.01058
845.0,0.01092
846.0,0.01083
847.0,0.01059
848.0,0.01046
849.0,0.01011
850.0,0.009638
851.0,0.01013
852.0,0.01002
853.0,0.00961
854.0,0.008246
855.0,0.009044
856.0,0.009836
857.0,0.01003
858.0,0.009916
859.0,0.009894
860.0,0.009877
861.0,0.009784
862.0,0.009907
863.0,0.01011
864.0,0.009565
865.0,0.009447
866.0,0.008461
867.0,0.008795
868.0,0.009533
869.0,0.009299
870.0,0.009526
871.0,0.009358
872.0,0.009288
873.0,0.009231
874.0,0.009081
875.0,0.008857
876.0,0.008909
877.0,0.008962
878.0,0.009017
879.0,0.008841
880.0,0.008615
881.0,0.008441
882.0,0.008584
883.0,0.008585
884.0,0.008503
885.0,0.008527
886.0,0.008059
887.0,0.008138
888.0,0.008207
889.0,0.008293
890.0,0.008151
891.0,0.008124
892.0,0.007815
893.0,0.007489
894.0,0.007097
895.0,0.006561
896.0,0.006088
897.0,0.005066
898.0,0.00558
899.0,0.004055
900.0,0.005744
901.0,0.004253
902.0,0.005137
903.0,0.005118
904.0,0.006753
905.0,0.006448
906.0,0.005961
907.0,0.004605
908.0,0.00472
909.0,0.005183
910.0,0.004424
911.0,0.004793
912.0,0.005011
913.0,0.004432
914.0,0.004395
915.0,0.004772
916.0,0.003955
917.0,0.005194
918.0,0.004027
919.0,0.005281
920.0,0.005395
921.0,0.005621
922.0,0.004887
923.0,0.005395
924.0,0.004956
925.0,0.004822
926.0,0.004854
927.0,0.00552
928.0,0.003753
929.0,0.003354
930.0,0.002526
931.0,0.002375
932.0,0.001635
933.0,0.001299
934.0,0.0006778
935.0,0.00133
936.0,0.0007997
937.0,0.0008065
938.0,0.0009975
939.0,0.002221
940.0,0.00273
941.0,0.001976
942.0,0.002315
943.0,0.001454
944.0,0.001557
945.0,0.002012
946.0,0.0009584
947.0,0.001994
948.0,0.001435
949.0,0.002743
950.0,0.0006775
951.0,0.002684
952.0,0.001342
953.0,0.001777
954.0,0.002239
955.0,0.001793
956.0,0.001769
957.0,0.001317
958.0,0.002589
959.0,0.001962
960.0,0.002209
961.0,0.002533
962.0,0.002377
963.0,0.002802
964.0,0.002527
965.0,0.002766
966.0,0.002755
967.0,0.002722
968.0,0.003932
969.0,0.004077
970.0,0.00368
971.0,0.004353
972.0,0.004103
973.0,0.003421
974.0,0.003216
975.0,0.003359
976.0,0.003115
977.0,0.003683
978.0,0.003422
979.0,0.003613
980.0,0.003349
981.0,0.004165
982.0,0.003914
983.0,0.003712
984.0,0.004308
985.0,0.003852
986.0,0.004391
987.0,0.004248
988.0,0.004224
989.0,0.004351
990.0,0.004166
991.0,0.004316
992.0,0.004331
993.0,0.00418
994.0,0.004305
995.0,0.004291
996.0,0.004249
997.0,0.004244
998.0,0.004206
999.0,0.004178
1000.0,0.004123
1001.0,0.00417
1002.0,0.003995
1003.0,0.004063
1004.0,0.003936
1005.0,0.003793
1006.0,0.003918
1007.0,0.003989
1008.0,0.003945
1009.0,0.003901
1010.0,0.003866
1011.0,0.003911
1012.0,0.003854
1013.0,0.003875
1014.0,0.003834
1015.0,0.003793
1016.0,0.00376
1017.0,0.003753
1018.0,0.00373
1019.0,0.00362
1020.0,0.003679
1021.0,0.003662
1022.0,0.003614
1023.0,0.003638
1024.0,0.003562
1025.0,0.003614
1026.0,0.003581
1027.0,0.00356
1028.0,0.003538
1029.0,0.003482
1030.0,0.003498
1031.0,0.003469
1032.0,0.003447
1033.0,0.003382
1034.0,0.003369
1035.0,0.003367
1036.0,0.00337
1037.0,0.003303
1038.0,0.003305
1039.0,0.00329
1040.0,0.003264
1041.0,0.003264
1042.0,0.003228
1043.0,0.003206
1044.0,0.003204
1045.0,0.003148
1046.0,0.0031
1047.0,0.003115
1048.0,0.00312
1049.0,0.003097
1050.0,0.00307
1051.0,0.003053
1052.0,0.003028
1053.0,0.002991
1054.0,0.002985
1055.0,0.002974
1056.0,0.00295
1057.0,0.002928
1058.0,0.002844
1059.0,0.002835
1060.0,0.002819
1061.0,0.002804
1062.0,0.002806
1063.0,0.002767
1064.0,0.00279
1065.0,0.002755
1066.0,0.002695
1067.0,0.002718
1068.0,0.002645
1069.0,0.002557
1070.0,0.00263
1071.0,0.002673
1072.0,0.002624
1073.0,0.002579
1074.0,0.00265
1075.0,0.002476
1076.0,0.002626
1077.0,0.002551
1078.0,0.002486
1079.0,0.002562
1080.0,0.002482
1081.0,0.002381
1082.0,0.002438
1083.0,0.002444
1084.0,0.00234
1085.0,0.002448
1086.0,0.002176
1087.0,0.002275
1088.0,0.002391
1089.0,0.002278
1090.0,0.002201
1091.0,0.002349
1092.0,0.00234
1093.0,0.001894
1094.0,0.002116
1095.0,0.001969
1096.0,0.001856
1097.0,0.002248
1098.0,0.001805
1099.0,0.001887
1100.0,0.001715
1101.0,0.001742
1102.0,0.001639
1103.0,0.001604
1104.0,0.001603
1105.0,0.001797
1106.0,0.001269
1107.0,0.001674
1108.0,0.001352
1109.0,0.001355
1110.0,0.00163
1111.0,0.001016
1112.0,0.001333
1113.0,0.0007766
1114.0,0.0008716
1115.0,0.0007089
1116.0,0.0005418
1117.0,0.0001834
1118.0,0.0005909
1119.0,0.0002754
1120.0,0.000346
1121.0,0.000466
1122.0,0.0001855
1123.0,0.0003089
1124.0,0.0002587
1125.0,0.000341
1126.0,0.0001111
1127.0,0.0003836
1128.0,0.0002193
1129.0,0.0002327
1130.0,0.0001505
1131.0,0.0007634
1132.0,0.0005836
1133.0,0.0003502
1134.0,8.388e-05
1135.0,3.135e-05
1136.0,0.0002844
1137.0,0.0007281
1138.0,0.0005001
1139.0,0.0007955
1140.0,0.0006408
1141.0,0.0004698
1142.0,0.0005474
1143.0,0.0008063
1144.0,0.0002557
1145.0,0.0003236
1146.0,0.0003483
1147.0,0.0001153
1148.0,0.0006771
1149.0,0.0005233
1150.0,0.000272
1151.0,0.0004742
1152.0,0.0005982
1153.0,0.0005891
1154.0,0.0003045
1155.0,0.0007877
1156.0,0.0006944
1157.0,0.0008001
1158.0,0.0007876
1159.0,0.0008609
1160.0,0.000719
1161.0,0.0009222
1162.0,0.000919
1163.0,0.001325
1164.0,0.001097
1165.0,0.001009
1166.0,0.001013
1167.0,0.001116
1168.0,0.001122
1169.0,0.001154
1170.0,0.001275
1171.0,0.001235
1172.0,0.001267
1173.0,0.001259
1174.0,0.0008371
1175.0,0.001233
1176.0,0.001386
1177.0,0.001304
1178.0,0.0009233
1179.0,0.001384
1180.0,0.00119
1181.0,0.00123
1182.0,0.0007895
1183.0,0.001211
1184.0,0.001109
1185.0,0.001053
1186.0,0.001299
1187.0,0.001216
1188.0,0.0007853
1189.0,0.00112
1190.0,0.001254
1191.0,0.001158
1192.0,0.001267
1193.0,0.001197
1194.0,0.001239
1195.0,0.001149
1196.0,0.001091
1197.0,0.001239
1198.0,0.001115
1199.0,0.0009044
1200.0,0.001158
1201.0,0.001098
1202.0,0.001098
1203.0,0.001083
1204.0,0.0009185
1205.0,0.001125
1206.0,0.001267
1207.0,0.001076
1208.0,0.001068
1209.0,0.001088
1210.0,0.001141
1211.0,0.001068
1212.0,0.001033
1213.0,0.001189
1214.0,0.001059
1215.0,0.001033
1216.0,0.001175
1217.0,0.001132
1218.0,0.001157
1219.0,0.001135
1220.0,0.001152
1221.0,0.001165
1222.0,0.001126
1223.0,0.001108
1224.0,0.001091
1225.0,0.001142
1226.0,0.001152
1227.0,0.001037
1228.0,0.001154
1229.0,0.001141
1230.0,0.001114
1231.0,0.001155
1232.0,0.001144
1233.0,0.001084
1234.0,0.001147
1235.0,0.001133
1236.0,0.00114
1237.0,0.001114
1238.0,0.001129
1239.0,0.001111
1240.0,0.001112
1241.0,0.001099
1242.0,0.001097
1243.0,0.001085
1244.0,0.001087
1245.0,0.001089
1246.0,0.00108
1247.0,0.001071
1248.0,0.001064
1249.0,0.001066
1250.0,0.001055
1251.0,0.001035
1252.0,0.001036
1253.0,0.001018
1254.0,0.0009998
1255.0,0.001023
1256.0,0.0009799
1257.0,0.0009692
1258.0,0.0009931
1259.0,0.0009372
1260.0,0.0009413
1261.0,0.0008661
1262.0,0.000828
1263.0,0.0008266
1264.0,0.0007405
1265.0,0.0008169
1266.0,0.0007714
1267.0,0.000791
1268.0,0.0007346
1269.0,0.0004003
1270.0,0.000778
1271.0,0.0008413
1272.0,0.0008433
1273.0,0.0008296
1274.0,0.0008325
1275.0,0.0008454
1276.0,0.0008547
1277.0,0.0008623
1278.0,0.0008839
1279.0,0.0008729
1280.0,0.0008594
1281.0,0.0008212
1282.0,0.000795
1283.0,0.0008523
1284.0,0.0008687
1285.0,0.0008728
1286.0,0.0008852
1287.0,0.0008625
1288.0,0.0008615
1289.0,0.0008196
1290.0,0.0008491
1291.0,0.0008604
1292.0,0.0007843
1293.0,0.000833
1294.0,0.0008235
1295.0,0.0008107
1296.0,0.0007589
1297.0,0.0007062
1298.0,0.0007774
1299.0,0.0008204
1300.0,0.0006588
1301.0,0.0006827
1302.0,0.0007666
1303.0,0.0006461
1304.0,0.0005246
1305.0,0.000741
1306.0,0.0007364
1307.0,0.0005375
1308.0,0.0006399
1309.0,0.0007201
1310.0,0.00052
1311.0,0.0006016
1312.0,0.0005817
1313.0,0.0005622
1314.0,0.0004899
1315.0,0.00048
1316.0,0.0005798
1317.0,0.0005415
1318.0,0.0005994
1319.0,0.000438
1320.0,0.0004247
1321.0,0.0005069
1322.0,0.0005073
1323.0,0.0003589
1324.0,0.0004233
1325.0,0.0005525
1326.0,0.0004575
1327.0,0.0004306
1328.0,0.0003612
1329.0,0.0002565
1330.0,0.0003434
1331.0,0.0001929
1332.0,0.0002007
1333.0,0.0002846
1334.0,0.0002437
1335.0,0.0003436
1336.0,0.0002614
1337.0,0.0002281
1338.0,0.0002465
1339.0,0.0002457
1340.0,0.0002401
1341.0,0.0002278
1342.0,0.00024
1343.0,0.000153
1344.0,9.063e-05
1345.0,0.000131
1346.0,6.232e-05
1347.0,6.295e-05
1348.0,4.002e-06
1349.0,1.438e-05
1350.0,1.491e-05
1351.0,3.596e-06
