interpolation:linear
wavelength,value
280.0,1.098e-22
280.5,3.655e-21
281.0,1.97e-20
281.5,4.502e-19
282.0,5.404e-19
282.5,1.316e-18
283.0,4.136e-18
283.5,6.734e-18
284.0,1.112e-16
284.5,3.256e-16
285.0,5.75e-16
285.5,2.789e-15
286.0,1.121e-14
286.5,5.023e-14
287.0,1.441e-13
287.5,5.563e-13
288.0,1.97e-12
288.5,5.756e-12
289.0,1.503e-11
289.5,4.483e-11
290.0,1.238e-10
290.5,2.52e-10
291.0,5.405e-10
291.5,1.552e-09
292.0,3.135e-09
292.5,4.381e-09
293.0,9.351e-09
293.5,2.263e-08
294.0,3.532e-08
294.5,4.683e-08
295.0,7.91e-08
295.5,1.329e-07
296.0,2.538e-07
296.5,3.51e-07
297.0,4.7e-07
297.5,1.24e-06
298.0,1.922e-06
298.5,1.907e-06
299.0,4.142e-06
299.5,6.679e-06
300.0,7.209e-06
300.5,1.023e-05
301.0,1.783e-05
301.5,2.735e-05
302.0,2.289e-05
302.5,4.471e-05
303.0,8.061e-05
303.5,0.0001026
304.0,9.902e-05
304.5,0.0001591
305.0,0.000269
305.5,0.0003306
306.0,0.0003288
306.5,0.0004288
307.0,0.0007071
307.5,0.001043
308.0,0.001119
308.5,0.001392
309.0,0.001643
309.5,0.00219
310.0,0.002358
310.5,0.00395
311.0,0.005244
311.5,0.005183
312.0,0.005857
312.5,0.007726
313.0,0.008735
313.5,0.008139
314.0,0.01121
314.5,0.01131
315.0,0.01519
315.5,0.01191
316.0,0.01155
316.5,0.01815
317.0,0.02246
317.5,0.02273
318.0,0.01885
318.5,0.02637
319.0,0.03322
319.5,0.0245
320.0,0.02911
320.5,0.04118
321.0,0.04097
321.5,0.03967
322.0,0.0374
322.5,0.03268
323.0,0.03515
323.5,0.04704
324.0,0.05553
324.5,0.05445
325.0,0.04455
325.5,0.061
326.0,0.07682
326.5,0.08017
327.0,0.0785
327.5,0.07418
328.0,0.06232
328.5,0.07001
329.0,0.08846
329.5,0.102
330.0,0.1013
330.5,0.07751
331.0,0.0777
331.5,0.08138
332.0,0.09196
332.5,0.09279
333.0,0.09122
333.5,0.0796
334.0,0.08094
334.5,0.09699
335.0,0.09312
335.5,0.1098
336.0,0.07586
336.5,0.08667
337.0,0.06979
337.5,0.08611
338.0,0.08676
338.5,0.1014
339.0,0.1003
339.5,0.09629
340.0,0.1115
340.5,0.1006
341.0,0.09902
341.5,0.09094
342.0,0.1086
342.5,0.1015
343.0,0.1112
343.5,0.1045
344.0,0.07631
344.5,0.07764
345.0,0.1027
345.5,0.1048
346.0,0.08901
346.5,0.1007
347.0,0.1077
347.5,0.0869
348.0,0.09906
348.5,0.09895
349.0,0.09168
349.5,0.09058
350.0,0.1119
350.5,0.1178
351.0,0.1049
351.5,0.1015
352.0,0.109
352.5,0.08499
353.0,0.1069
353.5,0.1142
354.0,0.1184
354.5,0.1198
355.0,0.1191
355.5,0.1075
356.0,0.1123
356.5,0.09567
357.0,0.07889
357.5,0.0964
358.0,0.07627
358.5,0.06505
359.0,0.09078
359.5,0.1154
360.0,0.1221
360.5,0.09742
361.0,0.08866
361.5,0.1019
362.0,0.08798
362.5,0.1215
363.0,0.1089
363.5,0.1001
364.0,0.1222
364.5,0.1043
365.0,0.106
365.5,0.1327
366.0,0.1403
366.5,0.1316
367.0,0.1279
367.5,0.1325
368.0,0.1157
368.5,0.1165
369.0,0.1255
369.5,0.1335
370.0,0.1421
370.5,0.11
371.0,0.1173
371.5,0.1465
372.0,0.09701
372.5,0.1161
373.0,0.1178
373.5,0.07649
374.0,0.1109
374.5,0.09165
375.0,0.0889
375.5,0.1324
376.0,0.1096
376.5,0.1133
377.0,0.1197
377.5,0.1397
378.0,0.1511
378.5,0.1425
379.0,0.1173
379.5,0.1069
380.0,0.1109
380.5,0.134
381.0,0.134
381.5,0.106
382.0,0.09388
382.5,0.07985
383.0,0.07375
383.5,0.07087
384.0,0.078
384.5,0.1145
385.0,0.1133
385.5,0.1052
386.0,0.08992
386.5,0.1178
387.0,0.09769
387.5,0.1095
388.0,0.1008
388.5,0.09942
389.0,0.1071
389.5,0.1294
390.0,0.1295
390.5,0.1189
391.0,0.1396
391.5,0.1421
392.0,0.1194
392.5,0.1066
393.0,0.05918
393.5,0.04291
394.0,0.08711
394.5,0.1105
395.0,0.1345
395.5,0.1363
396.0,0.1179
396.5,0.06874
397.0,0.05146
397.5,0.1044
398.0,0.1458
398.5,0.1504
399.0,0.1624
399.5,0.1615
400.0,0.1673
401.0,0.1645
402.0,0.1727
403.0,0.1632
404.0,0.1599
405.0,0.159
406.0,0.1556
407.0,0.1522
408.0,0.1573
409.0,0.1675
410.0,0.1456
411.0,0.1569
412.0,0.1676
413.0,0.1626
414.0,0.1637
415.0,0.1632
416.0,0.1651
417.0,0.1602
418.0,0.1563
419.0,0.1575
420.0,0.1559
421.0,0.1622
422.0,0.1532
423.0,0.1487
424.0,0.1563
425.0,0.1551
426.0,0.1502
427.0,0.1467
428.0,0.1421
429.0,0.1339
430.0,0.1165
431.0,0.1148
432.0,0.1472
433.0,0.1471
434.0,0.1358
435.0,0.1411
436.0,0.1581
437.0,0.1551
438.0,0.1403
439.0,0.1441
440.0,0.1477
441.0,0.152
442.0,0.1619
443.0,0.1567
444.0,0.1593
445.0,0.155
446.0,0.1472
447.0,0.1583
448.0,0.1597
449.0,0.1592
450.0,0.1625
451.0,0.1675
452.0,0.1604
453.0,0.15
454.0,0.1557
455.0,0.1556
456.0,0.1582
457.0,0.1595
458.0,0.1529
459.0,0.1508
460.0,0.15
461.0,0.1524
462.0,0.1526
463.0,0.1508
464.0,0.1478
465.0,0.1453
466.0,0.1459
467.0,0.1422
468.0,0.1428
469.0,0.1424
470.0,0.1369
471.0,0.1359
472.0,0.1424
473.0,0.1397
474.0,0.1389
475.0,0.139
476.0,0.1337
477.0,0.1329
478.0,0.1353
479.0,0.1332
480.0,0.1322
481.0,0.1335
482.0,0.1332
483.0,0.1309
484.0,0.1276
485.0,0.121
486.0,0.1054
487.0,0.1098
488.0,0.1197
489.0,0.1192
490.0,0.1245
491.0,0.1215
492.0,0.1139
493.0,0.1169
494.0,0.1173
495.0,0.1175
496.0,0.1174
497.0,0.1183
498.0,0.1116
499.0,0.1119
500.0,0.1075
501.0,0.1044
502.0,0.1017
503.0,0.1047
504.0,0.101
505.0,0.1038
506.0,0.1065
507.0,0.1007
508.0,0.09711
509.0,0.09936
510.0,0.09834
511.0,0.1004
512.0,0.1008
513.0,0.09465
514.0,0.09327
515.0,0.09161
516.0,0.09068
517.0,0.07998
518.0,0.08347
519.0,0.08688
520.0,0.08931
521.0,0.0894
522.0,0.08869
523.0,0.0864
524.0,0.08863
525.0,0.08878
526.0,0.084
527.0,0.07832
528.0,0.08197
529.0,0.08561
530.0,0.08363
531.0,0.08413
532.0,0.08058
533.0,0.07766
534.0,0.07943
535.0,0.08068
536.0,0.08094
537.0,0.07727
538.0,0.07812
539.0,0.07693
540.0,0.07322
541.0,0.07308
542.0,0.07471
543.0,0.07334
544.0,0.07404
545.0,0.0733
546.0,0.07305
547.0,0.07249
548.0,0.07113
549.0,0.07086
550.0,0.0712
551.0,0.06983
552.0,0.06981
553.0,0.06805
554.0,0.06916
555.0,0.06876
556.0,0.06731
557.0,0.06466
558.0,0.06357
559.0,0.06179
560.0,0.06197
561.0,0.06219
562.0,0.06114
563.0,0.06223
564.0,0.06003
565.0,0.05902
566.0,0.05768
567.0,0.05827
568.0,0.05724
569.0,0.05534
570.0,0.05492
571.0,0.0542
572.0,0.055
573.0,0.0552
574.0,0.05468
575.0,0.05333
576.0,0.05256
577.0,0.05288
578.0,0.05187
579.0,0.0519
580.0,0.05273
581.0,0.05282
582.0,0.05362
583.0,0.05356
584.0,0.0538
585.0,0.05224
586.0,0.05087
587.0,0.05163
588.0,0.04994
589.0,0.04371
590.0,0.04545
591.0,0.04793
592.0,0.04689
593.0,0.04732
594.0,0.04654
595.0,0.04492
596.0,0.04654
597.0,0.04561
598.0,0.04517
599.0,0.04487
600.0,0.04466
601.0,0.04404
602.0,0.04348
603.0,0.04397
604.0,0.04449
605.0,0.04407
606.0,0.04375
607.0,0.04406
608.0,0.04344
609.0,0.04339
610.0,0.04298
611.0,0.04309
612.0,0.04285
613.0,0.04219
614.0,0.04149
615.0,0.04228
616.0,0.04076
617.0,0.04055
618.0,0.04197
619.0,0.0414
620.0,0.0415
621.0,0.04135
622.0,0.04068
623.0,0.03987
624.0,0.03902
625.0,0.03879
626.0,0.03921
627.0,0.03944
628.0,0.0361
629.0,0.03798
630.0,0.03693
631.0,0.03781
632.0,0.03726
633.0,0.03834
634.0,0.0379
635.0,0.03838
636.0,0.03777
637.0,0.03828
638.0,0.03856
639.0,0.03802
640.0,0.03754
641.0,0.0374
642.0,0.03713
643.0,0.03751
644.0,0.03728
645.0,0.03717
646.0,0.03609
647.0,0.03537
648.0,0.03525
649.0,0.03441
650.0,0.03464
651.0,0.03603
652.0,0.03417
653.0,0.03527
654.0,0.03476
655.0,0.03322
656.0,0.02939
657.0,0.03008
658.0,0.03366
659.0,0.03379
660.0,0.03381
661.0,0.03391
662.0,0.03381
663.0,0.03303
664.0,0.03335
665.0,0.03329
666.0,0.0332
667.0,0.03307
668.0,0.03299
669.0,0.03338
670.0,0.03311
671.0,0.03299
672.0,0.03261
673.0,0.03301
674.0,0.03275
675.0,0.03233
676.0,0.03243
677.0,0.032
678.0,0.03198
679.0,0.03135
680.0,0.03147
681.0,0.03113
682.0,0.03096
683.0,0.03076
684.0,0.03047
685.0,0.03059
686.0,0.03028
687.0,0.01828
688.0,0.02197
689.0,0.02198
690.0,0.02322
691.0,0.02469
692.0,0.02579
693.0,0.02545
694.0,0.02515
695.0,0.02633
696.0,0.02627
697.0,0.02812
698.0,0.02757
699.0,0.02656
700.0,0.02612
701.0,0.02568
702.0,0.02583
703.0,0.02578
704.0,0.02662
705.0,0.02653
706.0,0.02644
707.0,0.02636
708.0,0.0263
709.0,0.02629
710.0,0.02612
711.0,0.02603
712.0,0.02589
713.0,0.02547
714.0,0.02544
715.0,0.02443
716.0,0.02432
717.0,0.02029
718.0,0.01843
719.0,0.0167
720.0,0.01741
721.0,0.01953
722.0,0.02277
723.0,0.02083
724.0,0.01838
725.0,0.01795
726.0,0.01878
727.0,0.01908
728.0,0.01766
729.0,0.01846
730.0,0.01946
731.0,0.01846
732.0,0.01992
733.0,0.02124
734.0,0.02171
735.0,0.02112
736.0,0.021
737.0,0.02098
738.0,0.02138
739.0,0.02086
740.0,0.02136
741.0,0.02107
742.0,0.02102
743.0,0.02145
744.0,0.0213
745.0,0.02122
746.0,0.02121
747.0,0.02116
748.0,0.02101
749.0,0.02068
750.0,0.02058
751.0,0.02029
752.0,0.02031
753.0,0.02032
754.0,0.02028
755.0,0.02008
756.0,0.01999
757.0,0.01994
758.0,0.01959
759.0,0.019
760.0,0.002648
761.0,0.001398
762.0,0.00835
763.0,0.003989
764.0,0.006056
765.0,0.008227
766.0,0.01042
767.0,0.01366
768.0,0.01631
769.0,0.01674
770.0,0.01742
771.0,0.01757
772.0,0.01755
773.0,0.01758
774.0,0.0174
775.0,0.01719
776.0,0.01731
777.0,0.01699
778.0,0.0168
779.0,0.01672
780.0,0.01656
781.0,0.0165
782.0,0.01654
783.0,0.01619
784.0,0.01621
785.0,0.01602
786.0,0.01613
787.0,0.0157
788.0,0.01541
789.0,0.01533
790.0,0.01475
791.0,0.01492
792.0,0.01476
793.0,0.01444
794.0,0.01473
795.0,0.01489
796.0,0.01422
797.0,0.01417
798.0,0.01466
799.0,0.01448
800.0,0.01412
801.0,0.01398
802.0,0.01388
803.0,0.01369
804.0,0.01366
805.0,0.01359
806.0,0.01398
807.0,0.01372
808.0,0.01367
809.0,0.0133
810.0,0.01309
811.0,0.01299
812.0,0.01245
813.0,0.01209
814.0,0.01032
815.0,0.01022
816.0,0.009382
817.0,0.009532
818.0,0.009094
819.0,0.01034
820.0,0.009616
821.0,0.01155
822.0,0.01111
823.0,0.007042
824.0,0.0106
825.0,0.01116
826.0,0.01058
827.0,0.01125
828.0,0.009185
829.0,0.01041
830.0,0.01021
831.0,0.01021
832.0,0.009793
833.0,0.01055
834.0,0.01005
835.0,0.01121
836.0,0.01053
837.0,0.01115
838.0,0.01068
839.0,0.01089
840.0,0.01109
841.0,0.01086
842.0,0.01087
843.0,0.01087
844.0,0.01064
845.0,0.01098
846.0,0.01089
847.0,0.01065
848.0,0.01052
849.0,0.01017
850.0,0.009694
851.0,0.01019
852.0,0.01007
853.0,0.009666
854.0,0.008294
855.0,0.009097
856.0,0.009894
857.0,0.01009
858.0,0.009974
859.0,0.009951
860.0,0.009934
861.0,0.00984
862.0,0.009963
863.0,0.01016
864.0,0.00962
865.0,0.0095
866.0,0.008509
867.0,0.008845
868.0,0.009587
869.0,0.009352
870.0,0.00958
871.0,0.009411
872.0,0.00934
873.0,0.009283
874.0,0.009132
875.0,0.008907
876.0,0.008959
877.0,0.009013
878.0,0.009068
879.0,0.008891
880.0,0.008664
881.0,0.008488
882.0,0.008633
883.0,0.008634
884.0,0.008552
885.0,0.008576
886.0,0.008105
887.0,0.008184
888.0,0.008254
889.0,0.00834
890.0,0.008198
891.0,0.00817
892.0,0.00786
893.0,0.007532
894.0,0.007139
895.0,0.006601
896.0,0.006125
897.0,0.005097
898.0,0.005615
899.0,0.004079
900.0,0.005779
901.0,0.004279
902.0,0.005169
903.0,0.00515
904.0,0.006793
905.0,0.006487
906.0,0.005997
907.0,0.004633
908.0,0.004749
909.0,0.005215
910.0,0.004451
911.0,0.004822
912.0,0.005042
913.0,0.004459
914.0,0.004421
915.0,0.004802
916.0,0.003978
917.0,0.005227
918.0,0.004052
919.0,0.005313
920.0,0.005426
921.0,0.005656
922.0,0.004916
923.0,0.005427
924.0,0.004987
925.0,0.004852
926.0,0.004885
927.0,0.005555
928.0,0.003777
929.0,0.003375
930.0,0.002542
931.0,0.002389
932.0,0.001644
933.0,0.001305
934.0,0.0006802
935.0,0.001337
936.0,0.000803
937.0,0.0008098
938.0,0.001002
939.0,0.002234
940.0,0.002748
941.0,0.001988
942.0,0.002329
943.0,0.001461
944.0,0.001566
945.0,0.002024
946.0,0.0009629
947.0,0.002006
948.0,0.001442
949.0,0.002761
950.0,0.0006801
951.0,0.002702
952.0,0.001349
953.0,0.001787
954.0,0.002253
955.0,0.001804
956.0,0.001779
957.0,0.001324
958.0,0.002604
959.0,0.001974
960.0,0.002222
961.0,0.002548
962.0,0.002391
963.0,0.002819
964.0,0.002542
965.0,0.002784
966.0,0.002772
967.0,0.002739
968.0,0.003955
969.0,0.004102
970.0,0.003703
971.0,0.004379
972.0,0.004127
973.0,0.003442
974.0,0.003236
975.0,0.003379
976.0,0.003134
977.0,0.003705
978.0,0.003443
979.0,0.003636
980.0,0.003369
981.0,0.00419
982.0,0.003937
983.0,0.003734
984.0,0.004333
985.0,0.003876
986.0,0.004416
987.0,0.004273
988.0,0.004248
989.0,0.004376
990.0,0.00419
991.0,0.004341
992.0,0.004355
993.0,0.004204
994.0,0.004329
995.0,0.004315
996.0,0.004273
997.0,0.004267
998.0,0.004229
999.0,0.004201
1000.0,0.004146
1001.0,0.004193
1002.0,0.004019
1003.0,0.004085
1004.0,0.003958
1005.0,0.003814
1006.0,0.00394
1007.0,0.004012
1008.0,0.003968
1009.0,0.003923
1010.0,0.003887
1011.0,0.003933
1012.0,0.003875
1013.0,0.003896
1014.0,0.003855
1015.0,0.003814
1016.0,0.003781
1017.0,0.003774
1018.0,0.003751
1019.0,0.00364
1020.0,0.003699
1021.0,0.003683
1022.0,0.003634
1023.0,0.003658
1024.0,0.003582
1025.0,0.003635
1026.0,0.003601
1027.0,0.003579
1028.0,0.003558
1029.0,0.003501
1030.0,0.003518
1031.0,0.003488
1032.0,0.003466
1033.0,0.003401
1034.0,0.003388
1035.0,0.003386
1036.0,0.003388
1037.0,0.003321
1038.0,0.003323
1039.0,0.003309
1040.0,0.003283
1041.0,0.003282
1042.0,0.003246
1043.0,0.003224
1044.0,0.003222
1045.0,0.003165
1046.0,0.003117
1047.0,0.003133
1048.0,0.003138
1049.0,0.003114
1050.0,0.003087
1051.0,0.00307
1052.0,0.003045
1053.0,0.003008
1054.0,0.003002
1055.0,0.002991
1056.0,0.002967
1057.0,0.002945
1058.0,0.002861
1059.0,0.002851
1060.0,0.002835
1061.0,0.00282
1062.0,0.002822
1063.0,0.002783
1064.0,0.002807
1065.0,0.002771
1066.0,0.00271
1067.0,0.002734
1068.0,0.00266
1069.0,0.002572
1070.0,0.002645
1071.0,0.002689
1072.0,0.002639
1073.0,0.002594
1074.0,0.002665
1075.0,0.00249
1076.0,0.002641
1077.0,0.002566
1078.0,0.0025
1079.0,0.002576
1080.0,0.002496
1081.0,0.002395
1082.0,0.002452
1083.0,0.002458
1084.0,0.002354
1085.0,0.002463
1086.0,0.002188
1087.0,0.002288
1088.0,0.002405
1089.0,0.002292
1090.0,0.002214
1091.0,0.002363
1092.0,0.002354
1093.0,0.001905
1094.0,0.002129
1095.0,0.001981
1096.0,0.001867
1097.0,0.002261
1098.0,0.001816
1099.0,0.001899
1100.0,0.001726
1101.0,0.001753
1102.0,0.001649
1103.0,0.001614
1104.0,0.001613
1105.0,0.001808
1106.0,0.001277
1107.0,0.001684
1108.0,0.00136
1109.0,0.001363
1110.0,0.00164
1111.0,0.001023
1112.0,0.001341
1113.0,0.000781
1114.0,0.0008769
1115.0,0.000713
1116.0,0.0005446
1117.0,0.000184
1118.0,0.0005942
1119.0,0.0002765
1120.0,0.0003475
1121.0,0.0004683
1122.0,0.0001861
1123.0,0.0003102
1124.0,0.0002598
1125.0,0.0003425
1126.0,0.0001114
1127.0,0.0003854
1128.0,0.00022
1129.0,0.0002336
1130.0,0.0001509
1131.0,0.0007681
1132.0,0.0005869
1133.0,0.0003518
1134.0,8.406e-05
1135.0,3.14e-05
1136.0,0.0002855
1137.0,0.0007326
1138.0,0.0005028
1139.0,0.0008006
1140.0,0.0006446
1141.0,0.0004723
1142.0,0.0005505
1143.0,0.0008114
1144.0,0.0002567
1145.0,0.000325
1146.0,0.0003498
1147.0,0.0001156
1148.0,0.0006812
1149.0,0.0005263
1150.0,0.0002732
1151.0,0.0004768
1152.0,0.0006018
1153.0,0.0005926
1154.0,0.0003058
1155.0,0.0007927
1156.0,0.0006987
1157.0,0.0008051
1158.0,0.0007925
1159.0,0.0008665
1160.0,0.0007233
1161.0,0.0009279
1162.0,0.0009247
1163.0,0.001333
1164.0,0.001104
1165.0,0.001015
1166.0,0.001019
1167.0,0.001123
1168.0,0.001129
1169.0,0.001162
1170.0,0.001283
1171.0,0.001242
1172.0,0.001274
1173.0,0.001267
1174.0,0.000842
1175.0,0.00124
1176.0,0.001394
1177.0,0.001311
1178.0,0.0009287
1179.0,0.001392
1180.0,0.001197
1181.0,0.001237
1182.0,0.0007942
1183.0,0.001218
1184.0,0.001116
1185.0,0.001059
1186.0,0.001307
1187.0,0.001223
1188.0,0.0007901
1189.0,0.001127
1190.0,0.001261
1191.0,0.001165
1192.0,0.001274
1193.0,0.001204
1194.0,0.001247
1195.0,0.001156
1196.0,0.001098
1197.0,0.001247
1198.0,0.001121
1199.0,0.0009099
1200.0,0.001165
1201.0,0.001105
1202.0,0.001104
1203.0,0.00109
1204.0,0.000924
1205.0,0.001131
1206.0,0.001275
1207.0,0.001082
1208.0,0.001074
1209.0,0.001094
1210.0,0.001148
1211.0,0.001074
1212.0,0.001039
1213.0,0.001196
1214.0,0.001066
1215.0,0.001039
1216.0,0.001182
1217.0,0.001139
1218.0,0.001164
1219.0,0.001141
1220.0,0.001159
1221.0,0.001172
1222.0,0.001132
1223.0,0.001115
1224.0,0.001097
1225.0,0.001148
1226.0,0.001158
1227.0,0.001043
1228.0,0.001161
1229.0,0.001147
1230.0,0.00112
1231.0,0.001162
1232.0,0.001151
1233.0,0.00109
1234.0,0.001153
1235.0,0.00114
1236.0,0.001146
1237.0,0.00112
1238.0,0.001135
1239.0,0.001117
1240.0,0.001118
1241.0,0.001105
1242.0,0.001103
1243.0,0.001091
1244.0,0.001093
1245.0,0.001095
1246.0,0.001085
1247.0,0.001077
1248.0,0.00107
1249.0,0.001072
1250.0,0.001061
1251.0,0.001041
1252.0,0.001041
1253.0,0.001024
1254.0,0.001006
1255.0,0.001029
1256.0,0.0009856
1257.0,0.0009748
1258.0,0.0009987
1259.0,0.0009428
1260.0,0.0009469
1261.0,0.0008716
1262.0,0.0008334
1263.0,0.000832
1264.0,0.0007456
1265.0,0.0008222
1266.0,0.0007766
1267.0,0.0007962
1268.0,0.0007396
1269.0,0.0004029
1270.0,0.0007832
1271.0,0.0008465
1272.0,0.0008486
1273.0,0.0008348
1274.0,0.0008377
1275.0,0.0008506
1276.0,0.0008599
1277.0,0.0008674
1278.0,0.0008891
1279.0,0.000878
1280.0,0.0008644
1281.0,0.0008259
1282.0,0.0007994
1283.0,0.0008571
1284.0,0.0008736
1285.0,0.0008777
1286.0,0.0008902
1287.0,0.0008674
1288.0,0.0008663
1289.0,0.0008244
1290.0,0.0008539
1291.0,0.0008652
1292.0,0.000789
1293.0,0.0008378
1294.0,0.0008282
1295.0,0.0008155
1296.0,0.0007635
1297.0,0.0007105
1298.0,0.000782
1299.0,0.000825
1300.0,0.0006627
1301.0,0.0006868
1302.0,0.0007711
1303.0,0.00065
1304.0,0.0005279
1305.0,0.0007453
1306.0,0.0007408
1307.0,0.0005407
1308.0,0.0006437
1309.0,0.0007245
1310.0,0.0005232
1311.0,0.0006051
1312.0,0.0005851
1313.0,0.0005657
1314.0,0.0004929
1315.0,0.000483
1316.0,0.0005833
1317.0,0.0005448
1318.0,0.000603
1319.0,0.0004407
1320.0,0.0004272
1321.0,0.00051
1322.0,0.0005105
1323.0,0.0003611
1324.0,0.0004259
1325.0,0.0005559
1326.0,0.0004603
1327.0,0.0004333
1328.0,0.0003635
1329.0,0.000258
1330.0,0.0003456
1331.0,0.0001939
1332.0,0.0002018
1333.0,0.0002863
1334.0,0.000245
1335.0,0.0003458
1336.0,0.000263
1337.0,0.0002293
1338.0,0.000248
1339.0,0.0002472
1340.0,0.0002415
1341.0,0.0002292
1342.0,0.0002414
1343.0,0.0001537
1344.0,9.098e-05
1345.0,0.0001316
1346.0,6.248e-05
1347.0,6.311e-05
1348.0,4.007e-06
1349.0,1.439e-05
1350.0,1.493e-05
1351.0,3.599e-06
1352.0,9.679e-07
1353.0,4.925e-08
1354.0,1.693e-07
