interpolation:linear
wavelength,value
280.0,2.7419999999999996e-22
280.5,9.02e-21
281.0,4.8360000000000003e-20
281.5,4.014e-19
282.0,6.579e-19
282.5,1.632e-18
283.0,5.163e-18
283.5,8.407e-18
284.0,1.385e-16
284.5,4.041e-16
285.0,6.65e-16
285.5,3.322e-15
286.0,1.34e-14
286.5,6.038e-14
287.0,1.733e-13
287.5,6.686e-13
288.0,2.318e-12
288.5,6.976e-12
289.0,1.851e-11
289.5,5.578e-11
290.0,1.547e-10
290.5,3.151e-10
291.0,6.762e-10
291.5,1.941e-09
292.0,3.912e-09
292.5,5.499e-09
293.0,1.182e-08
293.5,2.886e-08
294.0,4.521e-08
294.5,6.197e-08
295.0,1.052e-07
295.5,1.765e-07
296.0,3.436e-07
296.5,4.853e-07
297.0,6.624e-07
297.5,1.804e-06
298.0,2.886e-06
298.5,2.939e-06
299.0,6.564e-06
299.5,1.119e-05
300.0,1.25e-05
300.5,1.841e-05
301.0,3.432e-05
301.5,5.628e-05
302.0,4.884e-05
302.5,9.774e-05
303.0,0.0001816
303.5,0.0002353
304.0,0.0002285
304.5,0.0003733
305.0,0.0006464
305.5,0.0008072
306.0,0.0008076
306.5,0.001065
307.0,0.001801
307.5,0.002729
308.0,0.002941
308.5,0.003709
309.0,0.003777
309.5,0.004744
310.0,0.00497
310.5,0.00821
311.0,0.01066
311.5,0.01043
312.0,0.01125
312.5,0.01438
313.0,0.01599
313.5,0.01511
314.0,0.02006
314.5,0.0193
315.0,0.02568
315.5,0.02058
316.0,0.0192
316.5,0.02919
317.0,0.03612
317.5,0.03687
318.0,0.02989
318.5,0.04007
319.0,0.04939
319.5,0.03765
320.0,0.04495
320.5,0.06089
321.0,0.05829
321.5,0.05618
322.0,0.05514
322.5,0.04805
323.0,0.0503
323.5,0.06465
324.0,0.0759
324.5,0.07535
325.0,0.06329
325.5,0.08477
326.0,0.1044
326.5,0.1071
327.0,0.1054
327.5,0.1003
328.0,0.08612
328.5,0.09416
329.0,0.1165
329.5,0.1335
330.0,0.1331
330.5,0.1034
331.0,0.1041
331.5,0.1077
332.0,0.1197
332.5,0.1198
333.0,0.1182
333.5,0.1043
334.0,0.1062
334.5,0.1255
335.0,0.1195
335.5,0.1405
336.0,0.09704
336.5,0.1114
337.0,0.09018
337.5,0.1114
338.0,0.111
338.5,0.1291
339.0,0.1274
339.5,0.1224
340.0,0.1421
340.5,0.1281
341.0,0.1255
341.5,0.1148
342.0,0.1369
342.5,0.1278
343.0,0.1402
343.5,0.1318
344.0,0.09664
344.5,0.09804
345.0,0.1292
345.5,0.1316
346.0,0.1115
346.5,0.126
347.0,0.1349
347.5,0.1088
348.0,0.1238
348.5,0.1234
349.0,0.1142
349.5,0.1128
350.0,0.1392
350.5,0.1465
351.0,0.1305
351.5,0.1265
352.0,0.1355
352.5,0.1055
353.0,0.1326
353.5,0.1414
354.0,0.1465
354.5,0.1482
355.0,0.1473
355.5,0.1327
356.0,0.1385
356.5,0.118
357.0,0.09721
357.5,0.1187
358.0,0.09384
358.5,0.07998
359.0,0.1116
359.5,0.1417
360.0,0.1499
360.5,0.1195
361.0,0.1087
361.5,0.1248
362.0,0.1077
362.5,0.1486
363.0,0.1331
363.5,0.1223
364.0,0.1492
364.5,0.1272
365.0,0.1292
365.5,0.1617
366.0,0.1709
366.5,0.1601
367.0,0.1555
367.5,0.161
368.0,0.1405
368.5,0.1414
369.0,0.1523
369.5,0.1619
370.0,0.1721
370.5,0.1332
371.0,0.142
371.5,0.1771
372.0,0.1172
372.5,0.1402
373.0,0.1422
373.5,0.09227
374.0,0.1337
374.5,0.1104
375.0,0.1071
375.5,0.1594
376.0,0.1318
376.5,0.1362
377.0,0.1438
377.5,0.1677
378.0,0.1813
378.5,0.1709
379.0,0.1406
379.5,0.128
380.0,0.1327
380.5,0.1603
381.0,0.1601
381.5,0.1266
382.0,0.1121
382.5,0.09526
383.0,0.08793
383.5,0.08445
384.0,0.0929
384.5,0.1362
385.0,0.1347
385.5,0.1251
386.0,0.1068
386.5,0.1399
387.0,0.1159
387.5,0.1298
388.0,0.1195
388.5,0.1178
389.0,0.1268
389.5,0.1531
390.0,0.1532
390.5,0.1405
391.0,0.1649
391.5,0.1677
392.0,0.1408
392.5,0.1257
393.0,0.06974
393.5,0.05055
394.0,0.1026
394.5,0.13
395.0,0.1582
395.5,0.1602
396.0,0.1385
396.5,0.08071
397.0,0.06039
397.5,0.1224
398.0,0.1709
398.5,0.1761
399.0,0.1902
399.5,0.189
400.0,0.1957
401.0,0.1923
402.0,0.2016
403.0,0.1904
404.0,0.1863
405.0,0.1851
406.0,0.181
407.0,0.1769
408.0,0.1826
409.0,0.1942
410.0,0.1687
411.0,0.1816
412.0,0.1938
413.0,0.1879
414.0,0.189
415.0,0.1883
416.0,0.1903
417.0,0.1844
418.0,0.1798
419.0,0.181
420.0,0.179
421.0,0.186
422.0,0.1756
423.0,0.1703
424.0,0.1789
425.0,0.1773
426.0,0.1716
427.0,0.1674
428.0,0.162
429.0,0.1526
430.0,0.1326
431.0,0.1306
432.0,0.1674
433.0,0.1671
434.0,0.1541
435.0,0.1599
436.0,0.1791
437.0,0.1756
438.0,0.1588
439.0,0.163
440.0,0.167
441.0,0.1718
442.0,0.1829
443.0,0.1769
444.0,0.1796
445.0,0.1747
446.0,0.1657
447.0,0.178
448.0,0.1795
449.0,0.1789
450.0,0.1825
451.0,0.1879
452.0,0.1799
453.0,0.1681
454.0,0.1744
455.0,0.1741
456.0,0.177
457.0,0.1784
458.0,0.1709
459.0,0.1687
460.0,0.1677
461.0,0.1703
462.0,0.1705
463.0,0.1684
464.0,0.1648
465.0,0.1618
466.0,0.1624
467.0,0.1582
468.0,0.1588
469.0,0.1583
470.0,0.1522
471.0,0.151
472.0,0.1581
473.0,0.155
474.0,0.1541
475.0,0.1542
476.0,0.1483
477.0,0.1473
478.0,0.15
479.0,0.1477
480.0,0.1467
481.0,0.1481
482.0,0.1477
483.0,0.145
484.0,0.1412
485.0,0.1339
486.0,0.1164
487.0,0.1213
488.0,0.1321
489.0,0.1315
490.0,0.1373
491.0,0.1339
492.0,0.1255
493.0,0.1287
494.0,0.129
495.0,0.1292
496.0,0.129
497.0,0.1299
498.0,0.1227
499.0,0.123
500.0,0.1182
501.0,0.1149
502.0,0.1121
503.0,0.1154
504.0,0.1113
505.0,0.1145
506.0,0.1174
507.0,0.111
508.0,0.1069
509.0,0.1093
510.0,0.1082
511.0,0.1104
512.0,0.1108
513.0,0.104
514.0,0.1025
515.0,0.1007
516.0,0.0997
517.0,0.08794
518.0,0.09177
519.0,0.09552
520.0,0.0982
521.0,0.09832
522.0,0.09757
523.0,0.09506
524.0,0.09758
525.0,0.09781
526.0,0.09259
527.0,0.08639
528.0,0.09048
529.0,0.09454
530.0,0.0924
531.0,0.09299
532.0,0.08909
533.0,0.08586
534.0,0.08781
535.0,0.08917
536.0,0.08944
537.0,0.08536
538.0,0.08627
539.0,0.08497
540.0,0.08089
541.0,0.08076
542.0,0.08259
543.0,0.08108
544.0,0.08189
545.0,0.08109
546.0,0.08083
547.0,0.08021
548.0,0.0787
549.0,0.0784
550.0,0.07878
551.0,0.07727
552.0,0.07725
553.0,0.07531
554.0,0.07655
555.0,0.07613
556.0,0.07454
557.0,0.07163
558.0,0.07046
559.0,0.06852
560.0,0.06876
561.0,0.06903
562.0,0.06791
563.0,0.06916
564.0,0.06674
565.0,0.06564
566.0,0.06417
567.0,0.06485
568.0,0.06373
569.0,0.06165
570.0,0.0612
571.0,0.0604
572.0,0.06132
573.0,0.06155
574.0,0.06098
575.0,0.05947
576.0,0.05859
577.0,0.05892
578.0,0.05777
579.0,0.05777
580.0,0.05865
581.0,0.05871
582.0,0.05956
583.0,0.05946
584.0,0.05972
585.0,0.05796
586.0,0.05642
587.0,0.05726
588.0,0.05541
589.0,0.04854
590.0,0.05048
591.0,0.05322
592.0,0.05208
593.0,0.05256
594.0,0.05173
595.0,0.04997
596.0,0.05175
597.0,0.05076
598.0,0.05028
599.0,0.04996
600.0,0.04973
601.0,0.04904
602.0,0.04842
603.0,0.04895
604.0,0.04951
605.0,0.04903
606.0,0.04864
607.0,0.04894
608.0,0.04823
609.0,0.04813
610.0,0.04764
611.0,0.04773
612.0,0.04743
613.0,0.04666
614.0,0.04585
615.0,0.04669
616.0,0.04499
617.0,0.04473
618.0,0.04627
619.0,0.04562
620.0,0.0457
621.0,0.04553
622.0,0.04477
623.0,0.04386
624.0,0.04291
625.0,0.04264
626.0,0.04309
627.0,0.04334
628.0,0.03976
629.0,0.04174
630.0,0.04058
631.0,0.04148
632.0,0.04085
633.0,0.042
634.0,0.04149
635.0,0.04199
636.0,0.04129
637.0,0.04182
638.0,0.0421
639.0,0.04148
640.0,0.04094
641.0,0.04075
642.0,0.04044
643.0,0.04084
644.0,0.04057
645.0,0.04044
646.0,0.03925
647.0,0.03848
648.0,0.03833
649.0,0.03742
650.0,0.03761
651.0,0.0391
652.0,0.0371
653.0,0.03825
654.0,0.03768
655.0,0.036
656.0,0.03184
657.0,0.03258
658.0,0.03642
659.0,0.03655
660.0,0.03655
661.0,0.03664
662.0,0.03654
663.0,0.03568
664.0,0.036
665.0,0.03592
666.0,0.03581
667.0,0.03565
668.0,0.03554
669.0,0.03595
670.0,0.03564
671.0,0.0355
672.0,0.03508
673.0,0.0355
674.0,0.03521
675.0,0.03474
676.0,0.03484
677.0,0.03437
678.0,0.03434
679.0,0.03364
680.0,0.03377
681.0,0.0334
682.0,0.0332
683.0,0.03299
684.0,0.03266
685.0,0.03279
686.0,0.03245
687.0,0.0198
688.0,0.02376
689.0,0.02376
690.0,0.02506
691.0,0.02659
692.0,0.02772
693.0,0.02734
694.0,0.02698
695.0,0.02821
696.0,0.02812
697.0,0.03007
698.0,0.02947
699.0,0.02842
700.0,0.02794
701.0,0.02748
702.0,0.02763
703.0,0.02756
704.0,0.02843
705.0,0.02834
706.0,0.02824
707.0,0.02815
708.0,0.02807
709.0,0.02805
710.0,0.02788
711.0,0.02777
712.0,0.02761
713.0,0.02717
714.0,0.02714
715.0,0.02607
716.0,0.02595
717.0,0.02173
718.0,0.01972
719.0,0.01784
720.0,0.01863
721.0,0.02086
722.0,0.0243
723.0,0.02223
724.0,0.01963
725.0,0.01917
726.0,0.02007
727.0,0.02035
728.0,0.01886
729.0,0.01969
730.0,0.02078
731.0,0.0197
732.0,0.02123
733.0,0.02262
734.0,0.02311
735.0,0.02249
736.0,0.02236
737.0,0.02234
738.0,0.02274
739.0,0.02218
740.0,0.0227
741.0,0.02239
742.0,0.02233
743.0,0.02279
744.0,0.02262
745.0,0.02252
746.0,0.02252
747.0,0.02247
748.0,0.02231
749.0,0.02194
750.0,0.02184
751.0,0.02153
752.0,0.02154
753.0,0.02155
754.0,0.0215
755.0,0.02129
756.0,0.02119
757.0,0.02113
758.0,0.02077
759.0,0.02015
760.0,0.002761
761.0,0.001443
762.0,0.008947
763.0,0.004201
764.0,0.006446
765.0,0.008812
766.0,0.01118
767.0,0.01461
768.0,0.01736
769.0,0.01779
770.0,0.01848
771.0,0.01862
772.0,0.01859
773.0,0.01862
774.0,0.01843
775.0,0.01821
776.0,0.01834
777.0,0.018
778.0,0.0178
779.0,0.01772
780.0,0.01754
781.0,0.01748
782.0,0.01752
783.0,0.01715
784.0,0.01716
785.0,0.01696
786.0,0.01707
787.0,0.01664
788.0,0.01633
789.0,0.01624
790.0,0.01564
791.0,0.0158
792.0,0.01562
793.0,0.01529
794.0,0.01558
795.0,0.01575
796.0,0.01506
797.0,0.01502
798.0,0.01551
799.0,0.01532
800.0,0.01495
801.0,0.0148
802.0,0.01469
803.0,0.0145
804.0,0.01446
805.0,0.01439
806.0,0.01478
807.0,0.01452
808.0,0.01446
809.0,0.01408
810.0,0.01386
811.0,0.01376
812.0,0.01321
813.0,0.01283
814.0,0.01097
815.0,0.01085
816.0,0.009961
817.0,0.01013
818.0,0.009662
819.0,0.01098
820.0,0.01021
821.0,0.01224
822.0,0.01178
823.0,0.00747
824.0,0.01125
825.0,0.01181
826.0,0.01121
827.0,0.01191
828.0,0.009742
829.0,0.01102
830.0,0.01081
831.0,0.01081
832.0,0.01037
833.0,0.01117
834.0,0.01064
835.0,0.01184
836.0,0.01115
837.0,0.01178
838.0,0.0113
839.0,0.01151
840.0,0.01172
841.0,0.01148
842.0,0.01149
843.0,0.01147
844.0,0.01124
845.0,0.0116
846.0,0.0115
847.0,0.01125
848.0,0.01111
849.0,0.01074
850.0,0.01024
851.0,0.01077
852.0,0.01065
853.0,0.01021
854.0,0.008767
855.0,0.009611
856.0,0.01045
857.0,0.01066
858.0,0.01054
859.0,0.01051
860.0,0.01049
861.0,0.01039
862.0,0.01052
863.0,0.01073
864.0,0.01015
865.0,0.01002
866.0,0.008977
867.0,0.009331
868.0,0.01011
869.0,0.009864
870.0,0.0101
871.0,0.009925
872.0,0.00985
873.0,0.00979
874.0,0.00963
875.0,0.009392
876.0,0.009448
877.0,0.009504
878.0,0.009563
879.0,0.009377
880.0,0.009137
881.0,0.008954
882.0,0.009108
883.0,0.009107
884.0,0.009021
885.0,0.009047
886.0,0.008557
887.0,0.008636
888.0,0.008712
889.0,0.008799
890.0,0.008655
891.0,0.008622
892.0,0.008302
893.0,0.007959
894.0,0.007557
895.0,0.007001
896.0,0.006491
897.0,0.005404
898.0,0.005957
899.0,0.00432
900.0,0.006126
901.0,0.004541
902.0,0.005483
903.0,0.005468
904.0,0.007193
905.0,0.006868
906.0,0.00635
907.0,0.004916
908.0,0.005033
909.0,0.00553
910.0,0.004723
911.0,0.005105
912.0,0.005348
913.0,0.004732
914.0,0.004687
915.0,0.005104
916.0,0.004215
917.0,0.00555
918.0,0.004298
919.0,0.005636
920.0,0.005739
921.0,0.005993
922.0,0.005212
923.0,0.005748
924.0,0.005297
925.0,0.005149
926.0,0.005191
927.0,0.005902
928.0,0.004018
929.0,0.003591
930.0,0.0027
931.0,0.002538
932.0,0.001738
933.0,0.001374
934.0,0.0007075
935.0,0.001409
936.0,0.0008391
937.0,0.0008461
938.0,0.001051
939.0,0.002374
940.0,0.002926
941.0,0.002111
942.0,0.00248
943.0,0.001545
944.0,0.001654
945.0,0.002149
946.0,0.001011
947.0,0.00213
948.0,0.001522
949.0,0.002944
950.0,0.000709
951.0,0.002882
952.0,0.001423
953.0,0.001894
954.0,0.002397
955.0,0.001913
956.0,0.001874
957.0,0.001396
958.0,0.002764
959.0,0.002091
960.0,0.00236
961.0,0.002707
962.0,0.002536
963.0,0.002993
964.0,0.002696
965.0,0.002958
966.0,0.002944
967.0,0.00291
968.0,0.004186
969.0,0.004356
970.0,0.003926
971.0,0.004636
972.0,0.004371
973.0,0.003655
974.0,0.003432
975.0,0.003583
976.0,0.00333
977.0,0.003922
978.0,0.003652
979.0,0.003856
980.0,0.00357
981.0,0.004435
982.0,0.004172
983.0,0.003957
984.0,0.00458
985.0,0.004109
986.0,0.004661
987.0,0.004514
988.0,0.004488
989.0,0.004615
990.0,0.004427
991.0,0.004581
992.0,0.004595
993.0,0.00444
994.0,0.004566
995.0,0.00455
996.0,0.004506
997.0,0.0045
998.0,0.00446
999.0,0.004429
1000.0,0.004373
1001.0,0.004421
1002.0,0.004244
1003.0,0.004308
1004.0,0.004175
1005.0,0.004021
1006.0,0.004154
1007.0,0.00423
1008.0,0.004184
1009.0,0.004139
1010.0,0.004102
1011.0,0.004147
1012.0,0.004087
1013.0,0.004108
1014.0,0.004064
1015.0,0.004021
1016.0,0.003986
1017.0,0.003979
1018.0,0.003953
1019.0,0.00384
1020.0,0.0039
1021.0,0.003882
1022.0,0.003831
1023.0,0.003857
1024.0,0.003779
1025.0,0.003831
1026.0,0.003796
1027.0,0.003774
1028.0,0.003751
1029.0,0.003692
1030.0,0.003708
1031.0,0.003677
1032.0,0.003654
1033.0,0.003585
1034.0,0.003572
1035.0,0.003569
1036.0,0.003572
1037.0,0.003501
1038.0,0.003504
1039.0,0.003488
1040.0,0.003461
1041.0,0.00346
1042.0,0.003423
1043.0,0.003399
1044.0,0.003398
1045.0,0.003338
1046.0,0.003288
1047.0,0.003304
1048.0,0.00331
1049.0,0.003285
1050.0,0.003257
1051.0,0.003239
1052.0,0.003213
1053.0,0.003175
1054.0,0.003169
1055.0,0.003157
1056.0,0.003132
1057.0,0.003109
1058.0,0.00302
1059.0,0.003011
1060.0,0.002994
1061.0,0.002979
1062.0,0.002981
1063.0,0.00294
1064.0,0.002965
1065.0,0.002928
1066.0,0.002863
1067.0,0.002888
1068.0,0.002811
1069.0,0.002717
1070.0,0.002795
1071.0,0.002839
1072.0,0.002788
1073.0,0.00274
1074.0,0.002813
1075.0,0.002632
1076.0,0.002788
1077.0,0.002711
1078.0,0.002643
1079.0,0.002719
1080.0,0.002637
1081.0,0.002533
1082.0,0.002589
1083.0,0.002594
1084.0,0.002489
1085.0,0.002601
1086.0,0.002315
1087.0,0.002419
1088.0,0.002539
1089.0,0.002424
1090.0,0.002341
1091.0,0.002495
1092.0,0.002485
1093.0,0.002018
1094.0,0.002249
1095.0,0.002101
1096.0,0.001981
1097.0,0.002387
1098.0,0.001929
1099.0,0.002016
1100.0,0.001833
1101.0,0.00186
1102.0,0.001752
1103.0,0.001716
1104.0,0.001714
1105.0,0.001921
1106.0,0.00136
1107.0,0.001789
1108.0,0.001446
1109.0,0.00145
1110.0,0.001745
1111.0,0.001088
1112.0,0.001427
1113.0,0.0008282
1114.0,0.0009324
1115.0,0.0007561
1116.0,0.0005756
1117.0,0.0001904
1118.0,0.0006296
1119.0,0.0002889
1120.0,0.0003646
1121.0,0.0004947
1122.0,0.0001929
1123.0,0.0003249
1124.0,0.0002713
1125.0,0.0003596
1126.0,0.0001145
1127.0,0.0004056
1128.0,0.0002288
1129.0,0.0002433
1130.0,0.0001559
1131.0,0.0008199
1132.0,0.0006233
1133.0,0.0003697
1134.0,8.619e-05
1135.0,3.201e-05
1136.0,0.0002987
1137.0,0.0007818
1138.0,0.0005328
1139.0,0.0008533
1140.0,0.0006856
1141.0,0.0004999
1142.0,0.0005843
1143.0,0.0008665
1144.0,0.0002685
1145.0,0.0003415
1146.0,0.0003681
1147.0,0.000119
1148.0,0.0007259
1149.0,0.0005583
1150.0,0.0002858
1151.0,0.0005051
1152.0,0.0006402
1153.0,0.0006293
1154.0,0.0003207
1155.0,0.0008459
1156.0,0.0007446
1157.0,0.0008567
1158.0,0.0008433
1159.0,0.000924
1160.0,0.0007676
1161.0,0.0009864
1162.0,0.0009833
1163.0,0.001416
1164.0,0.001173
1165.0,0.00108
1166.0,0.001081
1167.0,0.001192
1168.0,0.001199
1169.0,0.001234
1170.0,0.001361
1171.0,0.001317
1172.0,0.001349
1173.0,0.001344
1174.0,0.0008926
1175.0,0.001313
1176.0,0.001472
1177.0,0.001388
1178.0,0.0009823
1179.0,0.00147
1180.0,0.001268
1181.0,0.001311
1182.0,0.0008411
1183.0,0.001291
1184.0,0.001182
1185.0,0.001123
1186.0,0.001383
1187.0,0.001296
1188.0,0.0008391
1189.0,0.001193
1190.0,0.001333
1191.0,0.001236
1192.0,0.001347
1193.0,0.001274
1194.0,0.001318
1195.0,0.001225
1196.0,0.001164
1197.0,0.001318
1198.0,0.001185
1199.0,0.0009651
1200.0,0.001232
1201.0,0.001171
1202.0,0.001167
1203.0,0.001155
1204.0,0.0009785
1205.0,0.001195
1206.0,0.001346
1207.0,0.001145
1208.0,0.001136
1209.0,0.001157
1210.0,0.001212
1211.0,0.001135
1212.0,0.001103
1213.0,0.001265
1214.0,0.001131
1215.0,0.001102
1216.0,0.001249
1217.0,0.001204
1218.0,0.001231
1219.0,0.001208
1220.0,0.001225
1221.0,0.001238
1222.0,0.001196
1223.0,0.001178
1224.0,0.001161
1225.0,0.001213
1226.0,0.001223
1227.0,0.001104
1228.0,0.001225
1229.0,0.001211
1230.0,0.001183
1231.0,0.001225
1232.0,0.001213
1233.0,0.001152
1234.0,0.001215
1235.0,0.001201
1236.0,0.001208
1237.0,0.001181
1238.0,0.001196
1239.0,0.001177
1240.0,0.001178
1241.0,0.001165
1242.0,0.001162
1243.0,0.001149
1244.0,0.001152
1245.0,0.001154
1246.0,0.001144
1247.0,0.001135
1248.0,0.001128
1249.0,0.00113
1250.0,0.001118
1251.0,0.001098
1252.0,0.001098
1253.0,0.00108
1254.0,0.001062
1255.0,0.001085
1256.0,0.001041
1257.0,0.00103
1258.0,0.001054
1259.0,0.0009982
1260.0,0.001002
1261.0,0.0009259
1262.0,0.0008869
1263.0,0.0008855
1264.0,0.0007965
1265.0,0.0008751
1266.0,0.0008284
1267.0,0.0008481
1268.0,0.0007897
1269.0,0.000432
1270.0,0.0008349
1271.0,0.0008991
1272.0,0.0009011
1273.0,0.0008868
1274.0,0.0008893
1275.0,0.0009025
1276.0,0.0009117
1277.0,0.0009185
1278.0,0.0009402
1279.0,0.0009282
1280.0,0.0009139
1281.0,0.0008726
1282.0,0.0008434
1283.0,0.0009045
1284.0,0.0009221
1285.0,0.0009261
1286.0,0.0009387
1287.0,0.0009158
1288.0,0.0009142
1289.0,0.0008722
1290.0,0.000901
1291.0,0.0009125
1292.0,0.0008355
1293.0,0.0008842
1294.0,0.0008742
1295.0,0.0008625
1296.0,0.0008091
1297.0,0.0007536
1298.0,0.0008271
1299.0,0.0008705
1300.0,0.0007023
1301.0,0.0007278
1302.0,0.0008154
1303.0,0.0006887
1304.0,0.000561
1305.0,0.0007881
1306.0,0.0007842
1307.0,0.0005738
1308.0,0.0006813
1309.0,0.0007682
1310.0,0.0005556
1311.0,0.000641
1312.0,0.0006199
1313.0,0.0006006
1314.0,0.0005235
1315.0,0.0005137
1316.0,0.0006186
1317.0,0.0005779
1318.0,0.0006389
1319.0,0.0004684
1320.0,0.0004535
1321.0,0.0005415
1322.0,0.000543
1323.0,0.0003843
1324.0,0.0004522
1325.0,0.0005904
1326.0,0.0004891
1327.0,0.0004605
1328.0,0.0003862
1329.0,0.000274
1330.0,0.0003679
1331.0,0.000205
1332.0,0.0002136
1333.0,0.0003052
1334.0,0.0002591
1335.0,0.0003686
1336.0,0.0002795
1337.0,0.0002428
1338.0,0.0002633
1339.0,0.0002625
1340.0,0.0002559
1341.0,0.0002435
1342.0,0.0002566
1343.0,0.0001619
1344.0,9.492e-05
1345.0,0.0001384
1346.0,6.455e-05
1347.0,6.513e-05
1348.0,4.046e-06
1349.0,1.459e-05
1350.0,1.515e-05
1351.0,3.63e-06
1352.0,9.748e-07
1353.0,4.959e-08
1354.0,1.705e-07
1355.0,1.372e-09
1356.0,2.402e-08
1357.0,3.649e-08
