interpolation:linear
wavelength,value
280.0,9.254999999999999e-23
280.5,3.087e-21
281.0,1.666e-20
281.5,5.147e-19
282.0,5.276e-19
282.5,1.274e-18
283.0,3.992e-18
283.5,6.496e-18
284.0,1.071e-16
284.5,3.138e-16
285.0,5.809e-16
285.5,2.77e-15
286.0,1.109e-14
286.5,4.95e-14
287.0,1.418e-13
287.5,5.466e-13
288.0,1.917e-12
288.5,5.568e-12
289.0,1.449e-11
289.5,4.315e-11
290.0,1.191e-10
290.5,2.424e-10
291.0,5.201e-10
291.5,1.494e-09
292.0,3.029e-09
292.5,4.227e-09
293.0,9.009e-09
293.5,2.176e-08
294.0,3.395e-08
294.5,4.441e-08
295.0,7.492e-08
295.5,1.268e-07
296.0,2.411e-07
296.5,3.319e-07
297.0,4.426e-07
297.5,1.16e-06
298.0,1.788e-06
298.5,1.764e-06
299.0,3.813e-06
299.5,6.091e-06
300.0,6.539e-06
300.5,9.221e-06
301.0,1.592e-05
301.5,2.421e-05
302.0,2.017e-05
302.5,3.91e-05
303.0,6.997e-05
303.5,8.865e-05
304.0,8.539e-05
304.5,0.0001365
305.0,0.0002291
305.5,0.0002803
306.0,0.0002783
306.5,0.000362
307.0,0.0005933
307.5,0.0008703
308.0,0.0009331
308.5,0.001157
309.0,0.001372
309.5,0.001849
310.0,0.002002
310.5,0.003362
311.0,0.004483
311.5,0.004439
312.0,0.005063
312.5,0.00672
313.0,0.007624
313.5,0.007083
314.0,0.00983
314.5,0.01002
315.0,0.01348
315.5,0.01052
316.0,0.01028
316.5,0.01627
317.0,0.02014
317.5,0.02034
318.0,0.01695
318.5,0.02393
319.0,0.03028
319.5,0.02217
320.0,0.02632
320.5,0.03758
321.0,0.03771
321.5,0.03653
322.0,0.03415
322.5,0.02986
323.0,0.03231
323.5,0.04374
324.0,0.0517
324.5,0.05055
325.0,0.041
325.5,0.05641
326.0,0.07162
326.5,0.07503
327.0,0.07338
327.5,0.06923
328.0,0.05786
328.5,0.06542
329.0,0.08306
329.5,0.0959
330.0,0.09515
330.5,0.07256
331.0,0.07266
331.5,0.07631
332.0,0.08657
332.5,0.08751
333.0,0.08595
333.5,0.07481
334.0,0.07604
334.5,0.09141
335.0,0.08794
335.5,0.1038
336.0,0.07171
336.5,0.0818
337.0,0.06579
337.5,0.08115
338.0,0.08198
338.5,0.09599
339.0,0.09498
339.5,0.09115
340.0,0.1054
340.5,0.09518
341.0,0.09378
341.5,0.08619
342.0,0.1029
342.5,0.09624
343.0,0.1055
343.5,0.09904
344.0,0.07225
344.5,0.07358
345.0,0.09745
345.5,0.09948
346.0,0.08449
346.5,0.09559
347.0,0.1023
347.5,0.08251
348.0,0.09409
348.5,0.09402
349.0,0.08713
349.5,0.0861
350.0,0.1063
350.5,0.112
351.0,0.09972
351.5,0.09651
352.0,0.1036
352.5,0.08084
353.0,0.1017
353.5,0.1087
354.0,0.1127
354.5,0.1141
355.0,0.1134
355.5,0.1023
356.0,0.1069
356.5,0.09113
357.0,0.07515
357.5,0.09185
358.0,0.07267
358.5,0.062
359.0,0.08653
359.5,0.11
360.0,0.1164
360.5,0.09289
361.0,0.08455
361.5,0.09721
362.0,0.08393
362.5,0.1159
363.0,0.104
363.5,0.09557
364.0,0.1167
364.5,0.09952
365.0,0.1012
365.5,0.1267
366.0,0.134
366.5,0.1257
367.0,0.1222
367.5,0.1266
368.0,0.1105
368.5,0.1113
369.0,0.12
369.5,0.1276
370.0,0.1358
370.5,0.1052
371.0,0.1122
371.5,0.1401
372.0,0.09279
372.5,0.111
373.0,0.1127
373.5,0.07319
374.0,0.1061
374.5,0.08773
375.0,0.08511
375.5,0.1268
376.0,0.1049
376.5,0.1085
377.0,0.1146
377.5,0.1338
378.0,0.1448
378.5,0.1365
379.0,0.1124
379.5,0.1025
380.0,0.1063
380.5,0.1285
381.0,0.1285
381.5,0.1016
382.0,0.09004
382.5,0.07659
383.0,0.07075
383.5,0.068
384.0,0.07485
384.5,0.1099
385.0,0.1087
385.5,0.101
386.0,0.08633
386.5,0.1131
387.0,0.09381
387.5,0.1051
388.0,0.09684
388.5,0.09551
389.0,0.1029
389.5,0.1243
390.0,0.1245
390.5,0.1143
391.0,0.1342
391.5,0.1366
392.0,0.1148
392.5,0.1025
393.0,0.05691
393.5,0.04128
394.0,0.0838
394.5,0.1063
395.0,0.1294
395.5,0.1312
396.0,0.1135
396.5,0.06617
397.0,0.04954
397.5,0.1005
398.0,0.1404
398.5,0.1448
399.0,0.1565
399.5,0.1556
400.0,0.1612
401.0,0.1585
402.0,0.1664
403.0,0.1573
404.0,0.1541
405.0,0.1534
406.0,0.1501
407.0,0.1469
408.0,0.1518
409.0,0.1616
410.0,0.1405
411.0,0.1515
412.0,0.1619
413.0,0.1571
414.0,0.1582
415.0,0.1578
416.0,0.1596
417.0,0.1549
418.0,0.1512
419.0,0.1524
420.0,0.1509
421.0,0.157
422.0,0.1483
423.0,0.144
424.0,0.1514
425.0,0.1502
426.0,0.1455
427.0,0.1421
428.0,0.1377
429.0,0.1298
430.0,0.113
431.0,0.1113
432.0,0.1428
433.0,0.1427
434.0,0.1318
435.0,0.1369
436.0,0.1534
437.0,0.1505
438.0,0.1362
439.0,0.1399
440.0,0.1434
441.0,0.1476
442.0,0.1573
443.0,0.1522
444.0,0.1547
445.0,0.1506
446.0,0.1431
447.0,0.1539
448.0,0.1552
449.0,0.1548
450.0,0.1581
451.0,0.1629
452.0,0.156
453.0,0.146
454.0,0.1515
455.0,0.1514
456.0,0.1539
457.0,0.1553
458.0,0.1488
459.0,0.1468
460.0,0.1461
461.0,0.1484
462.0,0.1486
463.0,0.1469
464.0,0.144
465.0,0.1415
466.0,0.1422
467.0,0.1386
468.0,0.1392
469.0,0.1388
470.0,0.1335
471.0,0.1326
472.0,0.1389
473.0,0.1363
474.0,0.1355
475.0,0.1356
476.0,0.1304
477.0,0.1296
478.0,0.132
479.0,0.1299
480.0,0.129
481.0,0.1302
482.0,0.13
483.0,0.1277
484.0,0.1245
485.0,0.1181
486.0,0.1029
487.0,0.1073
488.0,0.1169
489.0,0.1164
490.0,0.1216
491.0,0.1186
492.0,0.1113
493.0,0.1142
494.0,0.1146
495.0,0.1149
496.0,0.1147
497.0,0.1156
498.0,0.1091
499.0,0.1094
500.0,0.1051
501.0,0.1021
502.0,0.09948
503.0,0.1024
504.0,0.09871
505.0,0.1015
506.0,0.1041
507.0,0.09847
508.0,0.09496
509.0,0.09718
510.0,0.09619
511.0,0.0982
512.0,0.09858
513.0,0.0926
514.0,0.09124
515.0,0.08962
516.0,0.08871
517.0,0.07824
518.0,0.08165
519.0,0.08499
520.0,0.08737
521.0,0.08746
522.0,0.08675
523.0,0.08451
524.0,0.08669
525.0,0.08682
526.0,0.08213
527.0,0.07657
528.0,0.08014
529.0,0.08368
530.0,0.08174
531.0,0.08222
532.0,0.07875
533.0,0.07589
534.0,0.07763
535.0,0.07886
536.0,0.07912
537.0,0.07554
538.0,0.07636
539.0,0.0752
540.0,0.07157
541.0,0.07143
542.0,0.07302
543.0,0.07168
544.0,0.07236
545.0,0.07163
546.0,0.07139
547.0,0.07084
548.0,0.06951
549.0,0.06925
550.0,0.06958
551.0,0.06824
552.0,0.06822
553.0,0.06651
554.0,0.06758
555.0,0.06719
556.0,0.06578
557.0,0.06318
558.0,0.06211
559.0,0.06036
560.0,0.06054
561.0,0.06074
562.0,0.05971
563.0,0.06077
564.0,0.05861
565.0,0.05762
566.0,0.05631
567.0,0.05689
568.0,0.05588
569.0,0.05401
570.0,0.05361
571.0,0.0529
572.0,0.05367
573.0,0.05387
574.0,0.05336
575.0,0.05204
576.0,0.0513
577.0,0.05161
578.0,0.05064
579.0,0.05067
580.0,0.05149
581.0,0.05159
582.0,0.05237
583.0,0.05231
584.0,0.05256
585.0,0.05103
586.0,0.0497
587.0,0.05045
588.0,0.04879
589.0,0.0427
590.0,0.0444
591.0,0.04683
592.0,0.0458
593.0,0.04622
594.0,0.04546
595.0,0.04387
596.0,0.04545
597.0,0.04454
598.0,0.0441
599.0,0.04381
600.0,0.0436
601.0,0.043
602.0,0.04246
603.0,0.04294
604.0,0.04344
605.0,0.04304
606.0,0.04273
607.0,0.04304
608.0,0.04244
609.0,0.0424
610.0,0.042
611.0,0.04212
612.0,0.04189
613.0,0.04125
614.0,0.04058
615.0,0.04135
616.0,0.03988
617.0,0.03967
618.0,0.04107
619.0,0.04051
620.0,0.04061
621.0,0.04047
622.0,0.03982
623.0,0.03903
624.0,0.0382
625.0,0.03797
626.0,0.03839
627.0,0.03861
628.0,0.03533
629.0,0.03719
630.0,0.03617
631.0,0.03704
632.0,0.0365
633.0,0.03756
634.0,0.03714
635.0,0.03761
636.0,0.03702
637.0,0.03752
638.0,0.03781
639.0,0.03728
640.0,0.03682
641.0,0.03668
642.0,0.03642
643.0,0.0368
644.0,0.03658
645.0,0.03648
646.0,0.03542
647.0,0.03471
648.0,0.0346
649.0,0.03378
650.0,0.034
651.0,0.03537
652.0,0.03355
653.0,0.03464
654.0,0.03413
655.0,0.03262
656.0,0.02887
657.0,0.02955
658.0,0.03306
659.0,0.0332
660.0,0.03322
661.0,0.03332
662.0,0.03323
663.0,0.03247
664.0,0.03278
665.0,0.03272
666.0,0.03264
667.0,0.03252
668.0,0.03244
669.0,0.03283
670.0,0.03256
671.0,0.03245
672.0,0.03208
673.0,0.03247
674.0,0.03222
675.0,0.03181
676.0,0.03191
677.0,0.03149
678.0,0.03147
679.0,0.03085
680.0,0.03097
681.0,0.03064
682.0,0.03047
683.0,0.03028
684.0,0.02999
685.0,0.03012
686.0,0.02981
687.0,0.01796
688.0,0.02159
689.0,0.02161
690.0,0.02284
691.0,0.02428
692.0,0.02537
693.0,0.02504
694.0,0.02476
695.0,0.02593
696.0,0.02587
697.0,0.0277
698.0,0.02715
699.0,0.02616
700.0,0.02573
701.0,0.02529
702.0,0.02545
703.0,0.0254
704.0,0.02622
705.0,0.02614
706.0,0.02605
707.0,0.02598
708.0,0.02591
709.0,0.02591
710.0,0.02575
711.0,0.02565
712.0,0.02552
713.0,0.0251
714.0,0.02508
715.0,0.02408
716.0,0.02397
717.0,0.01999
718.0,0.01816
719.0,0.01645
720.0,0.01716
721.0,0.01924
722.0,0.02245
723.0,0.02053
724.0,0.01812
725.0,0.01769
726.0,0.01851
727.0,0.0188
728.0,0.01741
729.0,0.0182
730.0,0.01918
731.0,0.01819
732.0,0.01964
733.0,0.02094
734.0,0.02141
735.0,0.02083
736.0,0.0207
737.0,0.02068
738.0,0.02109
739.0,0.02057
740.0,0.02107
741.0,0.02079
742.0,0.02074
743.0,0.02117
744.0,0.02101
745.0,0.02093
746.0,0.02093
747.0,0.02088
748.0,0.02073
749.0,0.0204
750.0,0.02031
751.0,0.02003
752.0,0.02004
753.0,0.02006
754.0,0.02002
755.0,0.01982
756.0,0.01973
757.0,0.01968
758.0,0.01934
759.0,0.01875
760.0,0.002627
761.0,0.00139
762.0,0.008234
763.0,0.003951
764.0,0.005982
765.0,0.008112
766.0,0.01026
767.0,0.01346
768.0,0.01609
769.0,0.01651
770.0,0.01719
771.0,0.01734
772.0,0.01732
773.0,0.01735
774.0,0.01718
775.0,0.01697
776.0,0.01709
777.0,0.01677
778.0,0.01658
779.0,0.01651
780.0,0.01634
781.0,0.01629
782.0,0.01633
783.0,0.01598
784.0,0.016
785.0,0.01582
786.0,0.01592
787.0,0.0155
788.0,0.01521
789.0,0.01513
790.0,0.01456
791.0,0.01473
792.0,0.01457
793.0,0.01426
794.0,0.01455
795.0,0.0147
796.0,0.01404
797.0,0.01399
798.0,0.01448
799.0,0.0143
800.0,0.01395
801.0,0.0138
802.0,0.0137
803.0,0.01352
804.0,0.01349
805.0,0.01342
806.0,0.0138
807.0,0.01355
808.0,0.0135
809.0,0.01313
810.0,0.01292
811.0,0.01282
812.0,0.01229
813.0,0.01193
814.0,0.01019
815.0,0.01008
816.0,0.00926
817.0,0.009407
818.0,0.008973
819.0,0.0102
820.0,0.00949
821.0,0.0114
822.0,0.01097
823.0,0.006952
824.0,0.01046
825.0,0.01102
826.0,0.01045
827.0,0.01111
828.0,0.009067
829.0,0.01028
830.0,0.01008
831.0,0.01008
832.0,0.00967
833.0,0.01042
834.0,0.009919
835.0,0.01107
836.0,0.0104
837.0,0.01101
838.0,0.01055
839.0,0.01075
840.0,0.01096
841.0,0.01072
842.0,0.01074
843.0,0.01074
844.0,0.01051
845.0,0.01085
846.0,0.01076
847.0,0.01053
848.0,0.01039
849.0,0.01004
850.0,0.009576
851.0,0.01006
852.0,0.009951
853.0,0.009548
854.0,0.008193
855.0,0.008986
856.0,0.009773
857.0,0.009969
858.0,0.009853
859.0,0.009831
860.0,0.009814
861.0,0.009722
862.0,0.009844
863.0,0.01004
864.0,0.009505
865.0,0.009387
866.0,0.008408
867.0,0.00874
868.0,0.009474
869.0,0.009241
870.0,0.009467
871.0,0.0093
872.0,0.00923
873.0,0.009174
874.0,0.009025
875.0,0.008802
876.0,0.008854
877.0,0.008907
878.0,0.008961
879.0,0.008787
880.0,0.008562
881.0,0.008388
882.0,0.008531
883.0,0.008532
884.0,0.00845
885.0,0.008474
886.0,0.008008
887.0,0.008087
888.0,0.008156
889.0,0.008242
890.0,0.0081
891.0,0.008073
892.0,0.007765
893.0,0.007441
894.0,0.00705
895.0,0.006517
896.0,0.006048
897.0,0.005032
898.0,0.005543
899.0,0.004028
900.0,0.005706
901.0,0.004225
902.0,0.005102
903.0,0.005083
904.0,0.006708
905.0,0.006406
906.0,0.005922
907.0,0.004574
908.0,0.004689
909.0,0.005148
910.0,0.004395
911.0,0.004762
912.0,0.004978
913.0,0.004403
914.0,0.004366
915.0,0.004739
916.0,0.003929
917.0,0.005159
918.0,0.004001
919.0,0.005245
920.0,0.00536
921.0,0.005584
922.0,0.004854
923.0,0.005359
924.0,0.004922
925.0,0.00479
926.0,0.004821
927.0,0.005482
928.0,0.003727
929.0,0.003331
930.0,0.00251
931.0,0.00236
932.0,0.001625
933.0,0.001292
934.0,0.0006753
935.0,0.001323
936.0,0.0007962
937.0,0.0008029
938.0,0.0009927
939.0,0.002206
940.0,0.002712
941.0,0.001963
942.0,0.002299
943.0,0.001445
944.0,0.001548
945.0,0.001999
946.0,0.0009537
947.0,0.001982
948.0,0.001426
949.0,0.002724
950.0,0.0006747
951.0,0.002666
952.0,0.001335
953.0,0.001766
954.0,0.002224
955.0,0.001782
956.0,0.001759
957.0,0.00131
958.0,0.002572
959.0,0.00195
960.0,0.002195
961.0,0.002516
962.0,0.002361
963.0,0.002783
964.0,0.002511
965.0,0.002748
966.0,0.002736
967.0,0.002704
968.0,0.003906
969.0,0.004049
970.0,0.003656
971.0,0.004325
972.0,0.004076
973.0,0.003398
974.0,0.003195
975.0,0.003336
976.0,0.003093
977.0,0.003659
978.0,0.0034
979.0,0.003589
980.0,0.003327
981.0,0.004138
982.0,0.003888
983.0,0.003687
984.0,0.004281
985.0,0.003827
986.0,0.004363
987.0,0.004222
988.0,0.004198
989.0,0.004324
990.0,0.004139
991.0,0.004289
992.0,0.004304
993.0,0.004154
994.0,0.004278
995.0,0.004264
996.0,0.004223
997.0,0.004218
998.0,0.00418
999.0,0.004152
1000.0,0.004097
1001.0,0.004144
1002.0,0.00397
1003.0,0.004038
1004.0,0.003912
1005.0,0.00377
1006.0,0.003894
1007.0,0.003965
1008.0,0.003921
1009.0,0.003877
1010.0,0.003842
1011.0,0.003887
1012.0,0.00383
1013.0,0.003851
1014.0,0.00381
1015.0,0.003769
1016.0,0.003737
1017.0,0.00373
1018.0,0.003707
1019.0,0.003597
1020.0,0.003656
1021.0,0.00364
1022.0,0.003592
1023.0,0.003616
1024.0,0.00354
1025.0,0.003592
1026.0,0.003559
1027.0,0.003538
1028.0,0.003516
1029.0,0.003461
1030.0,0.003477
1031.0,0.003447
1032.0,0.003426
1033.0,0.003361
1034.0,0.003349
1035.0,0.003346
1036.0,0.003349
1037.0,0.003283
1038.0,0.003285
1039.0,0.00327
1040.0,0.003244
1041.0,0.003244
1042.0,0.003208
1043.0,0.003186
1044.0,0.003185
1045.0,0.003128
1046.0,0.003081
1047.0,0.003096
1048.0,0.003101
1049.0,0.003078
1050.0,0.003051
1051.0,0.003034
1052.0,0.003009
1053.0,0.002973
1054.0,0.002967
1055.0,0.002955
1056.0,0.002932
1057.0,0.00291
1058.0,0.002826
1059.0,0.002817
1060.0,0.002801
1061.0,0.002786
1062.0,0.002788
1063.0,0.002749
1064.0,0.002773
1065.0,0.002737
1066.0,0.002677
1067.0,0.002701
1068.0,0.002628
1069.0,0.002541
1070.0,0.002614
1071.0,0.002656
1072.0,0.002607
1073.0,0.002563
1074.0,0.002633
1075.0,0.00246
1076.0,0.00261
1077.0,0.002535
1078.0,0.00247
1079.0,0.002546
1080.0,0.002466
1081.0,0.002366
1082.0,0.002423
1083.0,0.002428
1084.0,0.002326
1085.0,0.002433
1086.0,0.002162
1087.0,0.00226
1088.0,0.002376
1089.0,0.002264
1090.0,0.002187
1091.0,0.002334
1092.0,0.002326
1093.0,0.001881
1094.0,0.002103
1095.0,0.001956
1096.0,0.001844
1097.0,0.002234
1098.0,0.001793
1099.0,0.001874
1100.0,0.001704
1101.0,0.001731
1102.0,0.001628
1103.0,0.001593
1104.0,0.001592
1105.0,0.001785
1106.0,0.001261
1107.0,0.001663
1108.0,0.001343
1109.0,0.001345
1110.0,0.001619
1111.0,0.00101
1112.0,0.001324
1113.0,0.0007717
1114.0,0.0008659
1115.0,0.0007045
1116.0,0.0005387
1117.0,0.0001828
1118.0,0.0005874
1119.0,0.0002742
1120.0,0.0003444
1121.0,0.0004635
1122.0,0.0001849
1123.0,0.0003075
1124.0,0.0002576
1125.0,0.0003393
1126.0,0.0001108
1127.0,0.0003817
1128.0,0.0002185
1129.0,0.0002319
1130.0,0.00015
1131.0,0.0007582
1132.0,0.0005801
1133.0,0.0003486
1134.0,8.368e-05
1135.0,3.129e-05
1136.0,0.0002832
1137.0,0.0007233
1138.0,0.0004972
1139.0,0.0007901
1140.0,0.0006367
1141.0,0.0004671
1142.0,0.0005441
1143.0,0.0008007
1144.0,0.0002545
1145.0,0.0003221
1146.0,0.0003466
1147.0,0.000115
1148.0,0.0006725
1149.0,0.0005201
1150.0,0.0002708
1151.0,0.0004715
1152.0,0.0005944
1153.0,0.0005853
1154.0,0.0003031
1155.0,0.0007822
1156.0,0.0006897
1157.0,0.0007947
1158.0,0.0007823
1159.0,0.0008549
1160.0,0.0007144
1161.0,0.000916
1162.0,0.0009128
1163.0,0.001316
1164.0,0.00109
1165.0,0.001002
1166.0,0.001006
1167.0,0.001108
1168.0,0.001115
1169.0,0.001147
1170.0,0.001266
1171.0,0.001226
1172.0,0.001258
1173.0,0.001251
1174.0,0.0008318
1175.0,0.001225
1176.0,0.001377
1177.0,0.001295
1178.0,0.0009176
1179.0,0.001375
1180.0,0.001183
1181.0,0.001222
1182.0,0.0007845
1183.0,0.001203
1184.0,0.001102
1185.0,0.001046
1186.0,0.001291
1187.0,0.001208
1188.0,0.0007801
1189.0,0.001113
1190.0,0.001246
1191.0,0.00115
1192.0,0.001259
1193.0,0.001189
1194.0,0.001232
1195.0,0.001141
1196.0,0.001084
1197.0,0.001232
1198.0,0.001108
1199.0,0.0008985
1200.0,0.001151
1201.0,0.001091
1202.0,0.001091
1203.0,0.001076
1204.0,0.0009126
1205.0,0.001117
1206.0,0.001259
1207.0,0.001069
1208.0,0.001061
1209.0,0.001081
1210.0,0.001134
1211.0,0.001061
1212.0,0.001026
1213.0,0.001181
1214.0,0.001052
1215.0,0.001026
1216.0,0.001168
1217.0,0.001125
1218.0,0.00115
1219.0,0.001128
1220.0,0.001145
1221.0,0.001158
1222.0,0.001119
1223.0,0.001101
1224.0,0.001084
1225.0,0.001134
1226.0,0.001145
1227.0,0.00103
1228.0,0.001147
1229.0,0.001134
1230.0,0.001107
1231.0,0.001148
1232.0,0.001137
1233.0,0.001077
1234.0,0.00114
1235.0,0.001126
1236.0,0.001133
1237.0,0.001107
1238.0,0.001122
1239.0,0.001104
1240.0,0.001106
1241.0,0.001092
1242.0,0.00109
1243.0,0.001078
1244.0,0.001081
1245.0,0.001083
1246.0,0.001073
1247.0,0.001064
1248.0,0.001058
1249.0,0.00106
1250.0,0.001049
1251.0,0.001029
1252.0,0.001029
1253.0,0.001012
1254.0,0.0009935
1255.0,0.001017
1256.0,0.0009737
1257.0,0.000963
1258.0,0.0009869
1259.0,0.0009311
1260.0,0.0009352
1261.0,0.0008602
1262.0,0.0008221
1263.0,0.0008208
1264.0,0.000735
1265.0,0.0008111
1266.0,0.0007658
1267.0,0.0007853
1268.0,0.0007292
1269.0,0.0003975
1270.0,0.0007724
1271.0,0.0008355
1272.0,0.0008375
1273.0,0.0008238
1274.0,0.0008268
1275.0,0.0008396
1276.0,0.000849
1277.0,0.0008566
1278.0,0.0008782
1279.0,0.0008673
1280.0,0.0008539
1281.0,0.000816
1282.0,0.0007901
1283.0,0.000847
1284.0,0.0008633
1285.0,0.0008674
1286.0,0.0008798
1287.0,0.0008571
1288.0,0.0008562
1289.0,0.0008144
1290.0,0.0008438
1291.0,0.0008551
1292.0,0.0007792
1293.0,0.0008279
1294.0,0.0008184
1295.0,0.0008055
1296.0,0.0007539
1297.0,0.0007015
1298.0,0.0007724
1299.0,0.0008154
1300.0,0.0006545
1301.0,0.0006782
1302.0,0.0007617
1303.0,0.0006419
1304.0,0.0005211
1305.0,0.0007363
1306.0,0.0007316
1307.0,0.0005339
1308.0,0.0006358
1309.0,0.0007154
1310.0,0.0005165
1311.0,0.0005976
1312.0,0.0005779
1313.0,0.0005584
1314.0,0.0004866
1315.0,0.0004767
1316.0,0.0005759
1317.0,0.0005379
1318.0,0.0005955
1319.0,0.000435
1320.0,0.0004218
1321.0,0.0005035
1322.0,0.0005039
1323.0,0.0003565
1324.0,0.0004205
1325.0,0.0005487
1326.0,0.0004544
1327.0,0.0004277
1328.0,0.0003588
1329.0,0.0002548
1330.0,0.0003411
1331.0,0.0001918
1332.0,0.0001995
1333.0,0.0002827
1334.0,0.0002422
1335.0,0.0003412
1336.0,0.0002597
1337.0,0.0002267
1338.0,0.000245
1339.0,0.0002442
1340.0,0.0002386
1341.0,0.0002264
1342.0,0.0002385
1343.0,0.0001523
1344.0,9.025e-05
1345.0,0.0001304
1346.0,6.214e-05
1347.0,6.279e-05
1348.0,3.998e-06
1349.0,1.436e-05
1350.0,1.489e-05
1351.0,3.592e-06
1352.0,9.66e-07
