interpolation:linear
wavelength,value
280.0,1.221e-21
280.5,3.914e-20
281.0,2.08e-19
281.5,5.114e-19
282.0,9.737e-19
282.5,2.432e-18
283.0,7.679e-18
283.5,1.248e-17
284.0,2.018e-16
284.5,5.835e-16
285.0,1.176e-15
285.5,5.656e-15
286.0,2.258e-14
286.5,9.979e-14
287.0,2.83e-13
287.5,1.076e-12
288.0,3.254e-12
288.5,1.024e-11
289.0,2.795e-11
289.5,8.582e-11
290.0,2.405e-10
290.5,4.932e-10
291.0,1.064e-09
291.5,3.065e-09
292.0,6.26e-09
292.5,9.082e-09
293.0,2.027e-08
293.5,5.185e-08
294.0,8.373e-08
294.5,1.093e-07
295.0,1.897e-07
295.5,4.399e-07
296.0,7.887e-07
296.5,1.13e-06
297.0,1.562e-06
297.5,4.363e-06
298.0,7.166e-06
298.5,7.477e-06
299.0,1.717e-05
299.5,3.112e-05
300.0,3.627e-05
300.5,5.625e-05
301.0,0.0001165
301.5,0.000217
302.0,0.0002044
302.5,0.0004017
303.0,0.0007279
303.5,0.0009249
304.0,0.0008817
304.5,0.001374
305.0,0.002221
305.5,0.002648
306.0,0.002599
306.5,0.003321
307.0,0.005237
307.5,0.007391
308.0,0.007864
308.5,0.009556
309.0,0.009719
309.5,0.01134
310.0,0.01148
310.5,0.01865
311.0,0.02356
311.5,0.02277
312.0,0.02321
312.5,0.0286
313.0,0.03118
313.5,0.02995
314.0,0.03807
314.5,0.03461
315.0,0.04556
315.5,0.03746
316.0,0.03339
316.5,0.04883
317.0,0.06041
317.5,0.06228
318.0,0.04916
318.5,0.0627
319.0,0.07535
319.5,0.0597
320.0,0.07163
320.5,0.09225
321.0,0.0844
321.5,0.08091
322.0,0.0832
322.5,0.07226
323.0,0.07327
323.5,0.09166
324.0,0.107
324.5,0.1075
325.0,0.09135
325.5,0.1192
326.0,0.146
326.5,0.1473
327.0,0.1457
327.5,0.1396
328.0,0.1224
328.5,0.1302
329.0,0.1577
329.5,0.1793
330.0,0.1796
330.5,0.1416
331.0,0.1433
331.5,0.1463
332.0,0.1596
332.5,0.1584
333.0,0.1569
333.5,0.1401
334.0,0.1429
334.5,0.1662
335.0,0.1567
335.5,0.1847
336.0,0.1274
336.5,0.1464
337.0,0.1191
337.5,0.1474
338.0,0.1449
338.5,0.1685
339.0,0.1657
339.5,0.1592
340.0,0.1848
340.5,0.1662
341.0,0.1627
341.5,0.1482
342.0,0.1764
342.5,0.1644
343.0,0.1806
343.5,0.1699
344.0,0.1245
344.5,0.1265
345.0,0.1659
345.5,0.1685
346.0,0.1425
346.5,0.1608
347.0,0.1723
347.5,0.139
348.0,0.1576
348.5,0.1568
349.0,0.1449
349.5,0.1431
350.0,0.1763
350.5,0.1854
351.0,0.1652
351.5,0.1605
352.0,0.1714
352.5,0.1332
353.0,0.1671
353.5,0.178
354.0,0.1841
354.5,0.1861
355.0,0.1849
355.5,0.1664
356.0,0.1735
356.5,0.1477
357.0,0.1216
357.5,0.1483
358.0,0.1172
358.5,0.09977
359.0,0.1391
359.5,0.1767
360.0,0.1866
360.5,0.1486
361.0,0.135
361.5,0.1549
362.0,0.1335
362.5,0.1842
363.0,0.1649
363.5,0.1514
364.0,0.1845
364.5,0.1571
365.0,0.1595
365.5,0.1995
366.0,0.2106
366.5,0.1972
367.0,0.1914
367.5,0.198
368.0,0.1726
368.5,0.1736
369.0,0.1868
369.5,0.1985
370.0,0.2108
370.5,0.1631
371.0,0.1737
371.5,0.2165
372.0,0.1432
372.5,0.1711
373.0,0.1735
373.5,0.1125
374.0,0.1629
374.5,0.1344
375.0,0.1302
375.5,0.1937
376.0,0.16
376.5,0.1652
377.0,0.1744
377.5,0.2033
378.0,0.2196
378.5,0.2068
379.0,0.17
379.5,0.1547
380.0,0.1603
380.5,0.1934
381.0,0.1931
381.5,0.1525
382.0,0.1349
382.5,0.1146
383.0,0.1057
383.5,0.1015
384.0,0.1115
384.5,0.1635
385.0,0.1615
385.5,0.1499
386.0,0.1279
386.5,0.1674
387.0,0.1386
387.5,0.1551
388.0,0.1427
388.5,0.1406
389.0,0.1512
389.5,0.1824
390.0,0.1824
390.5,0.1673
391.0,0.1962
391.5,0.1993
392.0,0.1673
392.5,0.1492
393.0,0.08273
393.5,0.05992
394.0,0.1215
394.5,0.1539
395.0,0.1872
395.5,0.1894
396.0,0.1636
396.5,0.09532
397.0,0.07127
397.5,0.1444
398.0,0.2015
398.5,0.2075
399.0,0.2239
399.5,0.2224
400.0,0.2301
401.0,0.226
402.0,0.2367
403.0,0.2232
404.0,0.2182
405.0,0.2166
406.0,0.2115
407.0,0.2065
408.0,0.2129
409.0,0.2263
410.0,0.1963
411.0,0.2111
412.0,0.2251
413.0,0.218
414.0,0.219
415.0,0.218
416.0,0.2201
417.0,0.2131
418.0,0.2075
419.0,0.2087
420.0,0.2062
421.0,0.2141
422.0,0.2019
423.0,0.1957
424.0,0.2053
425.0,0.2034
426.0,0.1967
427.0,0.1916
428.0,0.1854
429.0,0.1743
430.0,0.1515
431.0,0.1489
432.0,0.1908
433.0,0.1904
434.0,0.1754
435.0,0.1819
436.0,0.2035
437.0,0.1994
438.0,0.1802
439.0,0.185
440.0,0.1894
441.0,0.1947
442.0,0.2071
443.0,0.2002
444.0,0.2032
445.0,0.1974
446.0,0.1871
447.0,0.2008
448.0,0.2023
449.0,0.2015
450.0,0.2055
451.0,0.2115
452.0,0.2022
453.0,0.1889
454.0,0.1958
455.0,0.1954
456.0,0.1985
457.0,0.2001
458.0,0.1917
459.0,0.1891
460.0,0.1881
461.0,0.1909
462.0,0.191
463.0,0.1885
464.0,0.1843
465.0,0.1808
466.0,0.1812
467.0,0.1765
468.0,0.1771
469.0,0.1765
470.0,0.1696
471.0,0.1682
472.0,0.176
473.0,0.1725
474.0,0.1714
475.0,0.1715
476.0,0.1649
477.0,0.164
478.0,0.167
479.0,0.1645
480.0,0.1634
481.0,0.1649
482.0,0.1645
483.0,0.1613
484.0,0.157
485.0,0.1486
486.0,0.1291
487.0,0.1343
488.0,0.1463
489.0,0.1455
490.0,0.1519
491.0,0.1482
492.0,0.1389
493.0,0.1423
494.0,0.1427
495.0,0.1429
496.0,0.1427
497.0,0.1437
498.0,0.1358
499.0,0.1363
500.0,0.1311
501.0,0.1275
502.0,0.1245
503.0,0.1283
504.0,0.1239
505.0,0.1274
506.0,0.1306
507.0,0.1234
508.0,0.1188
509.0,0.1214
510.0,0.12
511.0,0.1225
512.0,0.1229
513.0,0.1154
514.0,0.1137
515.0,0.1118
516.0,0.1107
517.0,0.09761
518.0,0.1019
519.0,0.1061
520.0,0.1091
521.0,0.1092
522.0,0.1084
523.0,0.1057
524.0,0.1086
525.0,0.1089
526.0,0.1032
527.0,0.09638
528.0,0.101
529.0,0.1056
530.0,0.1033
531.0,0.1041
532.0,0.09973
533.0,0.09613
534.0,0.0983
535.0,0.09981
536.0,0.1001
537.0,0.09548
538.0,0.09649
539.0,0.09505
540.0,0.09051
541.0,0.09041
542.0,0.0925
543.0,0.09084
544.0,0.0918
545.0,0.09094
546.0,0.09067
547.0,0.08999
548.0,0.08829
549.0,0.08797
550.0,0.0884
551.0,0.08672
552.0,0.0867
553.0,0.08454
554.0,0.08596
555.0,0.08551
556.0,0.08377
557.0,0.08053
558.0,0.07927
559.0,0.07715
560.0,0.07748
561.0,0.07784
562.0,0.07664
563.0,0.07811
564.0,0.07542
565.0,0.07422
566.0,0.07258
567.0,0.07339
568.0,0.07217
569.0,0.06988
570.0,0.06939
571.0,0.0685
572.0,0.06958
573.0,0.06987
574.0,0.06922
575.0,0.06751
576.0,0.0665
577.0,0.06684
578.0,0.0655
579.0,0.06544
580.0,0.06638
581.0,0.06639
582.0,0.0673
583.0,0.06715
584.0,0.06741
585.0,0.06541
586.0,0.06365
587.0,0.06459
588.0,0.06255
589.0,0.05487
590.0,0.05706
591.0,0.06013
592.0,0.05889
593.0,0.05942
594.0,0.05853
595.0,0.05662
596.0,0.05861
597.0,0.05753
598.0,0.057
599.0,0.05667
600.0,0.05641
601.0,0.05563
602.0,0.05493
603.0,0.05551
604.0,0.05612
605.0,0.05555
606.0,0.05507
607.0,0.05537
608.0,0.05451
609.0,0.05435
610.0,0.05374
611.0,0.05379
612.0,0.0534
613.0,0.05249
614.0,0.05154
615.0,0.05243
616.0,0.05048
617.0,0.05015
618.0,0.05185
619.0,0.05109
620.0,0.05116
621.0,0.05095
622.0,0.05008
623.0,0.04904
624.0,0.04796
625.0,0.04764
626.0,0.04812
627.0,0.04839
628.0,0.04454
629.0,0.04662
630.0,0.0453
631.0,0.04623
632.0,0.04549
633.0,0.04673
634.0,0.04612
635.0,0.04663
636.0,0.04582
637.0,0.04637
638.0,0.04664
639.0,0.04592
640.0,0.04528
641.0,0.04504
642.0,0.04466
643.0,0.04508
644.0,0.04475
645.0,0.04459
646.0,0.04328
647.0,0.04246
648.0,0.04227
649.0,0.04125
650.0,0.04139
651.0,0.043
652.0,0.04083
653.0,0.04203
654.0,0.04138
655.0,0.03955
656.0,0.03494
657.0,0.03573
658.0,0.03992
659.0,0.04004
660.0,0.04002
661.0,0.0401
662.0,0.03998
663.0,0.03904
664.0,0.03936
665.0,0.03923
666.0,0.03909
667.0,0.03889
668.0,0.03875
669.0,0.03918
670.0,0.03882
671.0,0.03865
672.0,0.03818
673.0,0.03862
674.0,0.03829
675.0,0.03776
676.0,0.03785
677.0,0.03733
678.0,0.03728
679.0,0.03652
680.0,0.03664
681.0,0.03623
682.0,0.03601
683.0,0.03577
684.0,0.03541
685.0,0.03554
686.0,0.03516
687.0,0.02188
688.0,0.0261
689.0,0.02609
690.0,0.02744
691.0,0.02901
692.0,0.03016
693.0,0.02974
694.0,0.02932
695.0,0.03057
696.0,0.03046
697.0,0.0325
698.0,0.03185
699.0,0.03075
700.0,0.03023
701.0,0.02976
702.0,0.02989
703.0,0.02981
704.0,0.03071
705.0,0.0306
706.0,0.03048
707.0,0.03037
708.0,0.03029
709.0,0.03024
710.0,0.03006
711.0,0.02993
712.0,0.02976
713.0,0.02929
714.0,0.02925
715.0,0.02812
716.0,0.02799
717.0,0.02359
718.0,0.02138
719.0,0.01933
720.0,0.02021
721.0,0.02257
722.0,0.02622
723.0,0.02401
724.0,0.02123
725.0,0.02075
726.0,0.02174
727.0,0.02199
728.0,0.02041
729.0,0.02126
730.0,0.02247
731.0,0.0213
732.0,0.02291
733.0,0.02436
734.0,0.02487
735.0,0.02421
736.0,0.02407
737.0,0.02405
738.0,0.02443
739.0,0.02382
740.0,0.02437
741.0,0.02403
742.0,0.02396
743.0,0.02444
744.0,0.02426
745.0,0.02415
746.0,0.02415
747.0,0.02409
748.0,0.02392
749.0,0.02352
750.0,0.02341
751.0,0.02307
752.0,0.02307
753.0,0.02308
754.0,0.02302
755.0,0.02279
756.0,0.02268
757.0,0.02261
758.0,0.02222
759.0,0.0216
760.0,0.002975
761.0,0.001529
762.0,0.009832
763.0,0.004575
764.0,0.007074
765.0,0.009682
766.0,0.01223
767.0,0.01586
768.0,0.01869
769.0,0.0191
770.0,0.01979
771.0,0.01992
772.0,0.01988
773.0,0.01992
774.0,0.01972
775.0,0.01948
776.0,0.01962
777.0,0.01927
778.0,0.01905
779.0,0.01897
780.0,0.01877
781.0,0.01871
782.0,0.01874
783.0,0.01834
784.0,0.01835
785.0,0.01813
786.0,0.01825
787.0,0.0178
788.0,0.01748
789.0,0.01738
790.0,0.01676
791.0,0.0169
792.0,0.01671
793.0,0.01635
794.0,0.01664
795.0,0.01682
796.0,0.01612
797.0,0.01608
798.0,0.01657
799.0,0.01637
800.0,0.01598
801.0,0.01584
802.0,0.01572
803.0,0.01552
804.0,0.01548
805.0,0.01538
806.0,0.01579
807.0,0.01551
808.0,0.01546
809.0,0.01506
810.0,0.01483
811.0,0.01475
812.0,0.01418
813.0,0.01377
814.0,0.01182
815.0,0.01168
816.0,0.01072
817.0,0.0109
818.0,0.01041
819.0,0.01181
820.0,0.01098
821.0,0.01312
822.0,0.01263
823.0,0.008045
824.0,0.01207
825.0,0.01264
826.0,0.01201
827.0,0.01274
828.0,0.01047
829.0,0.0118
830.0,0.01157
831.0,0.01157
832.0,0.01111
833.0,0.01196
834.0,0.0114
835.0,0.01265
836.0,0.01195
837.0,0.01258
838.0,0.0121
839.0,0.01229
840.0,0.01252
841.0,0.01227
842.0,0.01227
843.0,0.01224
844.0,0.01199
845.0,0.01237
846.0,0.01226
847.0,0.01199
848.0,0.01185
849.0,0.01146
850.0,0.01093
851.0,0.0115
852.0,0.01137
853.0,0.0109
854.0,0.009361
855.0,0.01026
856.0,0.01116
857.0,0.01137
858.0,0.01124
859.0,0.01121
860.0,0.01118
861.0,0.01108
862.0,0.01121
863.0,0.01143
864.0,0.01082
865.0,0.01068
866.0,0.009566
867.0,0.009942
868.0,0.01077
869.0,0.01051
870.0,0.01076
871.0,0.01057
872.0,0.01049
873.0,0.01043
874.0,0.01026
875.0,0.01
876.0,0.01006
877.0,0.01012
878.0,0.01019
879.0,0.009988
880.0,0.009733
881.0,0.009541
882.0,0.009707
883.0,0.009704
884.0,0.009614
885.0,0.009642
886.0,0.009128
887.0,0.009206
888.0,0.00929
889.0,0.009378
890.0,0.009232
891.0,0.009193
892.0,0.008863
893.0,0.008504
894.0,0.008094
895.0,0.007522
896.0,0.006969
897.0,0.005813
898.0,0.006409
899.0,0.004646
900.0,0.006577
901.0,0.004897
902.0,0.005894
903.0,0.005889
904.0,0.007706
905.0,0.007361
906.0,0.006809
907.0,0.005293
908.0,0.005413
909.0,0.005945
910.0,0.005091
911.0,0.005485
912.0,0.005753
913.0,0.005103
914.0,0.005048
915.0,0.005514
916.0,0.004536
917.0,0.005981
918.0,0.004633
919.0,0.006061
920.0,0.006145
921.0,0.006432
922.0,0.005604
923.0,0.006165
924.0,0.005708
925.0,0.005543
926.0,0.005598
927.0,0.006353
928.0,0.004355
929.0,0.003898
930.0,0.002931
931.0,0.002752
932.0,0.001882
933.0,0.001483
934.0,0.0007563
935.0,0.001519
936.0,0.000898
937.0,0.0009055
938.0,0.00113
939.0,0.002575
940.0,0.003179
941.0,0.002293
942.0,0.002698
943.0,0.001669
944.0,0.001781
945.0,0.002331
946.0,0.001086
947.0,0.002314
948.0,0.001639
949.0,0.00321
950.0,0.0007572
951.0,0.003141
952.0,0.001537
953.0,0.002052
954.0,0.002602
955.0,0.002075
956.0,0.002012
957.0,0.001509
958.0,0.002981
959.0,0.00226
960.0,0.00256
961.0,0.002929
962.0,0.002741
963.0,0.003233
964.0,0.002909
965.0,0.003197
966.0,0.003182
967.0,0.003148
968.0,0.004489
969.0,0.00469
970.0,0.004223
971.0,0.004968
972.0,0.004688
973.0,0.003939
974.0,0.003697
975.0,0.003853
976.0,0.003596
977.0,0.004207
978.0,0.003929
979.0,0.004147
980.0,0.003836
981.0,0.004753
982.0,0.004479
983.0,0.004251
984.0,0.004896
985.0,0.004413
986.0,0.004975
987.0,0.004827
988.0,0.004798
989.0,0.00492
990.0,0.004735
991.0,0.004887
992.0,0.004901
993.0,0.004744
994.0,0.004868
995.0,0.004849
996.0,0.004804
997.0,0.004795
998.0,0.004754
999.0,0.004721
1000.0,0.004663
1001.0,0.004712
1002.0,0.004533
1003.0,0.004591
1004.0,0.004453
1005.0,0.004284
1006.0,0.004428
1007.0,0.004507
1008.0,0.004461
1009.0,0.004414
1010.0,0.004375
1011.0,0.004419
1012.0,0.004357
1013.0,0.004376
1014.0,0.00433
1015.0,0.004284
1016.0,0.004248
1017.0,0.004241
1018.0,0.004212
1019.0,0.004094
1020.0,0.004155
1021.0,0.004135
1022.0,0.004083
1023.0,0.004111
1024.0,0.004031
1025.0,0.004082
1026.0,0.004046
1027.0,0.004021
1028.0,0.003998
1029.0,0.003935
1030.0,0.003951
1031.0,0.003919
1032.0,0.003893
1033.0,0.00382
1034.0,0.003806
1035.0,0.003803
1036.0,0.003806
1037.0,0.003731
1038.0,0.003734
1039.0,0.003718
1040.0,0.003688
1041.0,0.003688
1042.0,0.003648
1043.0,0.003623
1044.0,0.003622
1045.0,0.003559
1046.0,0.003505
1047.0,0.003523
1048.0,0.003529
1049.0,0.003504
1050.0,0.003474
1051.0,0.003455
1052.0,0.003427
1053.0,0.003387
1054.0,0.003381
1055.0,0.003369
1056.0,0.003343
1057.0,0.003319
1058.0,0.003225
1059.0,0.003215
1060.0,0.003198
1061.0,0.003181
1062.0,0.003184
1063.0,0.003141
1064.0,0.003168
1065.0,0.00313
1066.0,0.003059
1067.0,0.003086
1068.0,0.003005
1069.0,0.002903
1070.0,0.002988
1071.0,0.003032
1072.0,0.002979
1073.0,0.002928
1074.0,0.003003
1075.0,0.002816
1076.0,0.002977
1077.0,0.002897
1078.0,0.002827
1079.0,0.002901
1080.0,0.002818
1081.0,0.002711
1082.0,0.002766
1083.0,0.002768
1084.0,0.002665
1085.0,0.00278
1086.0,0.002479
1087.0,0.002588
1088.0,0.00271
1089.0,0.002594
1090.0,0.002507
1091.0,0.002665
1092.0,0.002654
1093.0,0.002167
1094.0,0.002403
1095.0,0.002258
1096.0,0.002132
1097.0,0.002549
1098.0,0.002079
1099.0,0.002171
1100.0,0.001976
1101.0,0.002005
1102.0,0.001892
1103.0,0.001854
1104.0,0.001852
1105.0,0.002069
1106.0,0.001478
1107.0,0.00193
1108.0,0.001567
1109.0,0.001569
1110.0,0.001886
1111.0,0.00118
1112.0,0.001544
1113.0,0.0008979
1114.0,0.001014
1115.0,0.0008191
1116.0,0.0006239
1117.0,0.0002024
1118.0,0.0006838
1119.0,0.0003098
1120.0,0.0003942
1121.0,0.0005388
1122.0,0.0002058
1123.0,0.00035
1124.0,0.0002909
1125.0,0.0003885
1126.0,0.0001209
1127.0,0.0004394
1128.0,0.0002453
1129.0,0.0002613
1130.0,0.0001653
1131.0,0.0008999
1132.0,0.0006803
1133.0,0.000401
1134.0,9.043e-05
1135.0,3.305e-05
1136.0,0.0003226
1137.0,0.00086
1138.0,0.0005802
1139.0,0.000929
1140.0,0.0007471
1141.0,0.0005433
1142.0,0.0006363
1143.0,0.0009486
1144.0,0.000288
1145.0,0.0003702
1146.0,0.0003998
1147.0,0.000126
1148.0,0.0007923
1149.0,0.0006076
1150.0,0.0003062
1151.0,0.0005499
1152.0,0.0006987
1153.0,0.0006832
1154.0,0.0003465
1155.0,0.0009225
1156.0,0.0008121
1157.0,0.0009309
1158.0,0.0009165
1159.0,0.001005
1160.0,0.0008318
1161.0,0.001068
1162.0,0.001065
1163.0,0.001527
1164.0,0.001267
1165.0,0.00117
1166.0,0.001166
1167.0,0.001285
1168.0,0.001294
1169.0,0.001332
1170.0,0.001465
1171.0,0.001417
1172.0,0.001447
1173.0,0.001447
1174.0,0.000964
1175.0,0.001409
1176.0,0.001574
1177.0,0.001488
1178.0,0.001056
1179.0,0.001572
1180.0,0.001361
1181.0,0.001409
1182.0,0.0009059
1183.0,0.001386
1184.0,0.00127
1185.0,0.001209
1186.0,0.001482
1187.0,0.001392
1188.0,0.0009069
1189.0,0.001281
1190.0,0.001427
1191.0,0.00133
1192.0,0.001441
1193.0,0.001365
1194.0,0.001412
1195.0,0.001316
1196.0,0.001253
1197.0,0.001411
1198.0,0.001268
1199.0,0.00104
1200.0,0.001321
1201.0,0.001258
1202.0,0.00125
1203.0,0.001242
1204.0,0.001052
1205.0,0.001278
1206.0,0.001437
1207.0,0.00123
1208.0,0.001217
1209.0,0.001239
1210.0,0.001297
1211.0,0.001217
1212.0,0.001189
1213.0,0.001354
1214.0,0.001217
1215.0,0.001186
1216.0,0.001337
1217.0,0.00129
1218.0,0.001317
1219.0,0.001294
1220.0,0.00131
1221.0,0.001323
1222.0,0.001279
1223.0,0.001261
1224.0,0.001245
1225.0,0.001298
1226.0,0.001306
1227.0,0.001184
1228.0,0.001307
1229.0,0.001294
1230.0,0.001264
1231.0,0.001306
1232.0,0.001294
1233.0,0.001233
1234.0,0.001295
1235.0,0.001281
1236.0,0.001287
1237.0,0.001261
1238.0,0.001275
1239.0,0.001254
1240.0,0.001256
1241.0,0.001243
1242.0,0.001238
1243.0,0.001224
1244.0,0.001228
1245.0,0.00123
1246.0,0.001219
1247.0,0.001209
1248.0,0.001203
1249.0,0.001204
1250.0,0.001192
1251.0,0.001171
1252.0,0.00117
1253.0,0.001153
1254.0,0.001135
1255.0,0.001157
1256.0,0.001113
1257.0,0.001102
1258.0,0.001125
1259.0,0.00107
1260.0,0.001074
1261.0,0.0009968
1262.0,0.0009573
1263.0,0.0009559
1264.0,0.0008647
1265.0,0.0009447
1266.0,0.0008973
1267.0,0.0009165
1268.0,0.0008566
1269.0,0.0004779
1270.0,0.0009033
1271.0,0.0009678
1272.0,0.0009695
1273.0,0.0009546
1274.0,0.0009566
1275.0,0.0009699
1276.0,0.0009788
1277.0,0.0009847
1278.0,0.001006
1279.0,0.0009934
1280.0,0.0009779
1281.0,0.0009327
1282.0,0.0009
1283.0,0.0009655
1284.0,0.0009845
1285.0,0.0009886
1286.0,0.001001
1287.0,0.0009782
1288.0,0.000976
1289.0,0.0009341
1290.0,0.0009618
1291.0,0.0009734
1292.0,0.0008963
1293.0,0.0009444
1294.0,0.0009338
1295.0,0.0009234
1296.0,0.0008689
1297.0,0.0008108
1298.0,0.0008858
1299.0,0.0009293
1300.0,0.0007554
1301.0,0.0007822
1302.0,0.0008732
1303.0,0.0007401
1304.0,0.0006071
1305.0,0.0008439
1306.0,0.0008408
1307.0,0.0006188
1308.0,0.0007308
1309.0,0.0008251
1310.0,0.0005997
1311.0,0.0006888
1312.0,0.0006668
1313.0,0.0006475
1314.0,0.000565
1315.0,0.0005559
1316.0,0.0006659
1317.0,0.0006223
1318.0,0.0006865
1319.0,0.0005072
1320.0,0.0004895
1321.0,0.0005842
1322.0,0.0005874
1323.0,0.0004174
1324.0,0.000489
1325.0,0.0006363
1326.0,0.0005285
1327.0,0.000498
1328.0,0.0004179
1329.0,0.0002977
1330.0,0.0004007
1331.0,0.0002228
1332.0,0.0002318
1333.0,0.0003341
1334.0,0.0002796
1335.0,0.000401
1336.0,0.0003041
1337.0,0.0002633
1338.0,0.0002865
1339.0,0.0002854
1340.0,0.0002769
1341.0,0.0002655
1342.0,0.0002799
1343.0,0.0001765
1344.0,0.0001016
1345.0,0.0001502
1346.0,6.89e-05
1347.0,6.956e-05
1348.0,4.12e-06
1349.0,1.506e-05
1350.0,1.567e-05
1351.0,3.688e-06
1352.0,9.833e-07
1353.0,4.987e-08
1354.0,1.716e-07
1355.0,1.379e-09
1356.0,2.415e-08
1357.0,3.669e-08
1358.0,1.619e-09
1359.0,2.04e-10
1360.0,7.373e-10
1361.0,8.246e-13
