interpolation:linear
wavelength,value
280.0,3.844e-23
280.5,1.298e-21
281.0,7.046e-21
281.5,2.3e-19
282.0,4.802e-19
282.5,1.098e-18
283.0,3.367e-18
283.5,5.46e-18
284.0,8.918e-17
284.5,2.619e-16
285.0,8.485e-16
285.5,3.196e-15
286.0,1.23e-14
286.5,5.202e-14
287.0,1.457e-13
287.5,5.512e-13
288.0,1.651e-12
288.5,4.681e-12
289.0,1.205e-11
289.5,3.569e-11
290.0,9.851e-11
290.5,2.009e-10
291.0,4.322e-10
291.5,1.246e-09
292.0,2.558e-09
292.5,3.554e-09
293.0,7.537e-09
293.5,1.809e-08
294.0,2.82e-08
294.5,3.363e-08
295.0,5.648e-08
295.5,9.505e-08
296.0,1.773e-07
296.5,2.393e-07
297.0,3.138e-07
297.5,8.007e-07
298.0,1.205e-06
298.5,1.167e-06
299.0,2.475e-06
299.5,3.821e-06
300.0,4.023e-06
300.5,5.563e-06
301.0,9.307e-06
301.5,1.376e-05
302.0,1.13e-05
302.5,2.147e-05
303.0,3.681e-05
303.5,4.542e-05
304.0,4.308e-05
304.5,6.627e-05
305.0,0.0001059
305.5,0.0001261
306.0,0.0001239
306.5,0.0001586
307.0,0.0002514
307.5,0.0003583
308.0,0.0003826
308.5,0.0004686
309.0,0.0004841
309.5,0.0006827
310.0,0.0007557
310.5,0.001284
311.0,0.001746
311.5,0.001744
312.0,0.002076
312.5,0.002837
313.0,0.003271
313.5,0.002998
314.0,0.004313
314.5,0.004617
315.0,0.006271
315.5,0.004779
316.0,0.004867
316.5,0.007984
317.0,0.009881
317.5,0.009886
318.0,0.008446
318.5,0.01251
319.0,0.01623
319.5,0.01144
320.0,0.01351
320.5,0.02026
321.0,0.02128
321.5,0.02072
322.0,0.01847
322.5,0.0162
323.0,0.01809
323.5,0.02702
324.0,0.03223
324.5,0.03086
325.0,0.02315
325.5,0.03269
326.0,0.04502
326.5,0.0484
327.0,0.04693
327.5,0.04377
328.0,0.03529
328.5,0.04171
329.0,0.05467
329.5,0.06374
330.0,0.06281
330.5,0.0468
331.0,0.04649
331.5,0.04976
332.0,0.05791
332.5,0.05921
333.0,0.05784
333.5,0.04947
334.0,0.05016
334.5,0.06159
335.0,0.05997
335.5,0.07141
336.0,0.04937
336.5,0.05558
337.0,0.04436
337.5,0.05458
338.0,0.05608
338.5,0.06644
339.0,0.06591
339.5,0.06321
340.0,0.07235
340.5,0.06549
341.0,0.06523
341.5,0.0602
342.0,0.072
342.5,0.06742
343.0,0.07379
343.5,0.06924
344.0,0.05
344.5,0.05137
345.0,0.06837
345.5,0.06995
346.0,0.05952
346.5,0.06742
347.0,0.07207
347.5,0.05815
348.0,0.0665
348.5,0.06657
349.0,0.06177
349.5,0.06107
350.0,0.07549
350.5,0.07954
351.0,0.07083
351.5,0.06842
352.0,0.07365
352.5,0.05757
353.0,0.07256
353.5,0.0776
354.0,0.08055
354.5,0.0816
355.0,0.08118
355.5,0.07331
356.0,0.07667
356.5,0.0654
357.0,0.05397
357.5,0.06602
358.0,0.05229
358.5,0.04465
359.0,0.06235
359.5,0.07924
360.0,0.08395
360.5,0.06707
361.0,0.06112
361.5,0.07033
362.0,0.06077
362.5,0.08403
363.0,0.0754
363.5,0.06937
364.0,0.08475
364.5,0.07235
365.0,0.07359
365.5,0.09227
366.0,0.09766
366.5,0.09167
367.0,0.08918
367.5,0.09244
368.0,0.0808
368.5,0.08142
369.0,0.08783
369.5,0.09351
370.0,0.09958
370.5,0.0772
371.0,0.0824
371.5,0.103
372.0,0.06826
372.5,0.08174
373.0,0.08305
373.5,0.05397
374.0,0.07832
374.5,0.06478
375.0,0.06289
375.5,0.09378
376.0,0.07765
376.5,0.08036
377.0,0.08498
377.5,0.09929
378.0,0.1075
378.5,0.1015
379.0,0.08361
379.5,0.07627
380.0,0.07918
380.5,0.09578
381.0,0.09585
381.5,0.07588
382.0,0.06729
382.5,0.05729
383.0,0.05296
383.5,0.05094
384.0,0.05612
384.5,0.08243
385.0,0.08163
385.5,0.07592
386.0,0.06493
386.5,0.08517
387.0,0.07067
387.5,0.07925
388.0,0.07307
388.5,0.07212
389.0,0.07774
389.5,0.09401
390.0,0.09421
390.5,0.08657
391.0,0.1017
391.5,0.1036
392.0,0.08714
392.5,0.0779
393.0,0.04328
393.5,0.03141
394.0,0.06382
394.5,0.08102
395.0,0.09871
395.5,0.1001
396.0,0.08667
396.5,0.05059
397.0,0.03791
397.5,0.07697
398.0,0.1076
398.5,0.1111
399.0,0.1201
399.5,0.1195
400.0,0.1239
401.0,0.122
402.0,0.1282
403.0,0.1214
404.0,0.1191
405.0,0.1187
406.0,0.1163
407.0,0.114
408.0,0.118
409.0,0.1258
410.0,0.1095
411.0,0.1182
412.0,0.1265
413.0,0.1229
414.0,0.124
415.0,0.1238
416.0,0.1254
417.0,0.1218
418.0,0.1191
419.0,0.1202
420.0,0.1192
421.0,0.1242
422.0,0.1175
423.0,0.1142
424.0,0.1202
425.0,0.1194
426.0,0.1158
427.0,0.1132
428.0,0.1099
429.0,0.1037
430.0,0.09039
431.0,0.08915
432.0,0.1145
433.0,0.1146
434.0,0.1059
435.0,0.1102
436.0,0.1236
437.0,0.1214
438.0,0.11
439.0,0.1131
440.0,0.116
441.0,0.1195
442.0,0.1274
443.0,0.1235
444.0,0.1257
445.0,0.1225
446.0,0.1166
447.0,0.1255
448.0,0.1267
449.0,0.1265
450.0,0.1293
451.0,0.1333
452.0,0.1279
453.0,0.1198
454.0,0.1245
455.0,0.1245
456.0,0.1267
457.0,0.1279
458.0,0.1226
459.0,0.121
460.0,0.1204
461.0,0.1224
462.0,0.1227
463.0,0.1214
464.0,0.1192
465.0,0.1173
466.0,0.118
467.0,0.1151
468.0,0.1157
469.0,0.1155
470.0,0.1111
471.0,0.1104
472.0,0.1158
473.0,0.1137
474.0,0.1132
475.0,0.1133
476.0,0.109
477.0,0.1083
478.0,0.1103
479.0,0.1086
480.0,0.1078
481.0,0.1089
482.0,0.1087
483.0,0.1069
484.0,0.1044
485.0,0.09921
486.0,0.0865
487.0,0.09029
488.0,0.09849
489.0,0.09813
490.0,0.1025
491.0,0.1001
492.0,0.09394
493.0,0.09647
494.0,0.09691
495.0,0.09717
496.0,0.09711
497.0,0.09781
498.0,0.09238
499.0,0.0926
500.0,0.08896
501.0,0.08639
502.0,0.0842
503.0,0.08668
504.0,0.0836
505.0,0.08605
506.0,0.08833
507.0,0.08368
508.0,0.08082
509.0,0.08285
510.0,0.08213
511.0,0.08395
512.0,0.08438
513.0,0.07933
514.0,0.07823
515.0,0.07691
516.0,0.07617
517.0,0.06719
518.0,0.07013
519.0,0.07301
520.0,0.07506
521.0,0.07513
522.0,0.07451
523.0,0.07258
524.0,0.07441
525.0,0.07447
526.0,0.07042
527.0,0.06561
528.0,0.06863
529.0,0.07163
530.0,0.06994
531.0,0.07033
532.0,0.06735
533.0,0.06491
534.0,0.06641
535.0,0.0675
536.0,0.06775
537.0,0.06472
538.0,0.06545
539.0,0.06445
540.0,0.06134
541.0,0.06121
542.0,0.06256
543.0,0.0614
544.0,0.06196
545.0,0.06133
546.0,0.06112
547.0,0.06066
548.0,0.05953
549.0,0.05931
550.0,0.0596
551.0,0.05846
552.0,0.05845
553.0,0.05698
554.0,0.0579
555.0,0.05755
556.0,0.05633
557.0,0.0541
558.0,0.05316
559.0,0.05163
560.0,0.05176
561.0,0.0519
562.0,0.051
563.0,0.05187
564.0,0.05001
565.0,0.04916
566.0,0.04803
567.0,0.04851
568.0,0.04763
569.0,0.04602
570.0,0.04567
571.0,0.04506
572.0,0.0457
573.0,0.04587
574.0,0.04544
575.0,0.04432
576.0,0.04371
577.0,0.04401
578.0,0.0432
579.0,0.04326
580.0,0.044
581.0,0.04412
582.0,0.04483
583.0,0.04481
584.0,0.04504
585.0,0.04375
586.0,0.04263
587.0,0.04328
588.0,0.04186
589.0,0.03661
590.0,0.03807
591.0,0.04017
592.0,0.03927
593.0,0.03963
594.0,0.03896
595.0,0.03756
596.0,0.03892
597.0,0.03811
598.0,0.03773
599.0,0.03746
600.0,0.03728
601.0,0.03676
602.0,0.0363
603.0,0.03673
604.0,0.03718
605.0,0.03686
606.0,0.03662
607.0,0.03691
608.0,0.03644
609.0,0.03644
610.0,0.03613
611.0,0.03627
612.0,0.03611
613.0,0.03559
614.0,0.03505
615.0,0.03575
616.0,0.0345
617.0,0.03435
618.0,0.03559
619.0,0.03513
620.0,0.03524
621.0,0.03513
622.0,0.03459
623.0,0.03393
624.0,0.03323
625.0,0.03304
626.0,0.03341
627.0,0.03362
628.0,0.03071
629.0,0.03239
630.0,0.03152
631.0,0.03232
632.0,0.03188
633.0,0.03283
634.0,0.03249
635.0,0.03293
636.0,0.03244
637.0,0.03291
638.0,0.03319
639.0,0.03275
640.0,0.03238
641.0,0.03228
642.0,0.03208
643.0,0.03243
644.0,0.03226
645.0,0.03219
646.0,0.03126
647.0,0.03062
648.0,0.03056
649.0,0.02984
650.0,0.03009
651.0,0.03131
652.0,0.0297
653.0,0.0307
654.0,0.03027
655.0,0.02893
656.0,0.02563
657.0,0.02625
658.0,0.02939
659.0,0.02953
660.0,0.02956
661.0,0.02968
662.0,0.02961
663.0,0.02894
664.0,0.02924
665.0,0.0292
666.0,0.02915
667.0,0.02906
668.0,0.029
669.0,0.02937
670.0,0.02914
671.0,0.02906
672.0,0.02873
673.0,0.0291
674.0,0.0289
675.0,0.02854
676.0,0.02865
677.0,0.02828
678.0,0.02827
679.0,0.02773
680.0,0.02785
681.0,0.02756
682.0,0.02741
683.0,0.02725
684.0,0.02699
685.0,0.02712
686.0,0.02685
687.0,0.01613
688.0,0.01933
689.0,0.01935
690.0,0.02046
691.0,0.02178
692.0,0.0228
693.0,0.02252
694.0,0.02231
695.0,0.02341
696.0,0.02336
697.0,0.02504
698.0,0.02455
699.0,0.02365
700.0,0.02326
701.0,0.02285
702.0,0.023
703.0,0.02298
704.0,0.02375
705.0,0.02367
706.0,0.0236
707.0,0.02354
708.0,0.02348
709.0,0.0235
710.0,0.02335
711.0,0.02326
712.0,0.02315
713.0,0.02277
714.0,0.02276
715.0,0.02184
716.0,0.02174
717.0,0.0181
718.0,0.01648
719.0,0.01495
720.0,0.01557
721.0,0.01746
722.0,0.02037
723.0,0.01865
724.0,0.01646
725.0,0.01608
726.0,0.01681
727.0,0.0171
728.0,0.01584
729.0,0.01656
730.0,0.01742
731.0,0.01655
732.0,0.01787
733.0,0.01906
734.0,0.0195
735.0,0.01897
736.0,0.01884
737.0,0.01884
738.0,0.01923
739.0,0.01877
740.0,0.01922
741.0,0.01897
742.0,0.01894
743.0,0.01933
744.0,0.0192
745.0,0.01912
746.0,0.01912
747.0,0.01908
748.0,0.01895
749.0,0.01865
750.0,0.01857
751.0,0.01832
752.0,0.01833
753.0,0.01836
754.0,0.01833
755.0,0.01815
756.0,0.01807
757.0,0.01803
758.0,0.01772
759.0,0.01715
760.0,0.002503
761.0,0.001332
762.0,0.007576
763.0,0.003734
764.0,0.005578
765.0,0.007469
766.0,0.009359
767.0,0.01223
768.0,0.01467
769.0,0.01509
770.0,0.01575
771.0,0.0159
772.0,0.01589
773.0,0.01592
774.0,0.01576
775.0,0.01556
776.0,0.01567
777.0,0.01538
778.0,0.0152
779.0,0.01514
780.0,0.01499
781.0,0.01494
782.0,0.01498
783.0,0.01467
784.0,0.01469
785.0,0.01452
786.0,0.01462
787.0,0.01422
788.0,0.01395
789.0,0.01389
790.0,0.01336
791.0,0.01352
792.0,0.01338
793.0,0.0131
794.0,0.01338
795.0,0.01352
796.0,0.01289
797.0,0.01284
798.0,0.01331
799.0,0.01314
800.0,0.01282
801.0,0.01268
802.0,0.01258
803.0,0.01241
804.0,0.01239
805.0,0.01234
806.0,0.0127
807.0,0.01247
808.0,0.01242
809.0,0.01206
810.0,0.01187
811.0,0.01178
812.0,0.01126
813.0,0.01094
814.0,0.009344
815.0,0.009256
816.0,0.008502
817.0,0.008629
818.0,0.008233
819.0,0.009353
820.0,0.00871
821.0,0.01047
822.0,0.01008
823.0,0.006403
824.0,0.009606
825.0,0.01014
826.0,0.009606
827.0,0.01022
828.0,0.008334
829.0,0.009462
830.0,0.009286
831.0,0.009279
832.0,0.0089
833.0,0.009587
834.0,0.009131
835.0,0.01021
836.0,0.00957
837.0,0.01015
838.0,0.009721
839.0,0.009903
840.0,0.01009
841.0,0.009873
842.0,0.009899
843.0,0.009903
844.0,0.009692
845.0,0.01001
846.0,0.009929
847.0,0.009712
848.0,0.009581
849.0,0.009261
850.0,0.008829
851.0,0.009271
852.0,0.00917
853.0,0.008801
854.0,0.007549
855.0,0.008285
856.0,0.00901
857.0,0.009194
858.0,0.009086
859.0,0.009069
860.0,0.009057
861.0,0.008973
862.0,0.009088
863.0,0.009272
864.0,0.008778
865.0,0.008671
866.0,0.007767
867.0,0.008075
868.0,0.008754
869.0,0.00854
870.0,0.008749
871.0,0.008595
872.0,0.008532
873.0,0.00848
874.0,0.008343
875.0,0.008138
876.0,0.008185
877.0,0.008234
878.0,0.008284
879.0,0.008123
880.0,0.007915
881.0,0.007752
882.0,0.007883
883.0,0.007885
884.0,0.007809
885.0,0.007831
886.0,0.007396
887.0,0.007471
888.0,0.007534
889.0,0.007616
890.0,0.00748
891.0,0.007458
892.0,0.007169
893.0,0.006867
894.0,0.006497
895.0,0.005997
896.0,0.00557
897.0,0.00464
898.0,0.005101
899.0,0.003724
900.0,0.005252
901.0,0.003897
902.0,0.004693
903.0,0.004677
904.0,0.006177
905.0,0.005902
906.0,0.005456
907.0,0.004215
908.0,0.004326
909.0,0.004739
910.0,0.004054
911.0,0.0044
912.0,0.004585
913.0,0.004062
914.0,0.00403
915.0,0.004363
916.0,0.003632
917.0,0.004747
918.0,0.003693
919.0,0.004828
920.0,0.004948
921.0,0.005142
922.0,0.004475
923.0,0.004937
924.0,0.004529
925.0,0.004409
926.0,0.004432
927.0,0.005034
928.0,0.003436
929.0,0.003076
930.0,0.002329
931.0,0.002189
932.0,0.001523
933.0,0.001218
934.0,0.0006478
935.0,0.001244
936.0,0.0007578
937.0,0.0007644
938.0,0.0009409
939.0,0.002046
940.0,0.002502
941.0,0.001825
942.0,0.002127
943.0,0.001353
944.0,0.001444
945.0,0.001857
946.0,0.0009021
947.0,0.001842
948.0,0.001335
949.0,0.002515
950.0,0.0006439
951.0,0.002458
952.0,0.001254
953.0,0.001646
954.0,0.002058
955.0,0.001659
956.0,0.001643
957.0,0.001231
958.0,0.002376
959.0,0.001812
960.0,0.002035
961.0,0.002326
962.0,0.002187
963.0,0.00257
964.0,0.002323
965.0,0.002534
966.0,0.002527
967.0,0.002496
968.0,0.003605
969.0,0.003723
970.0,0.00337
971.0,0.003987
972.0,0.003756
973.0,0.00313
974.0,0.002948
975.0,0.003075
976.0,0.002849
977.0,0.003379
978.0,0.003134
979.0,0.003306
980.0,0.00307
981.0,0.003815
982.0,0.003585
983.0,0.0034
984.0,0.003953
985.0,0.003525
986.0,0.004034
987.0,0.003903
988.0,0.003884
989.0,0.004002
990.0,0.003825
991.0,0.003966
992.0,0.003981
993.0,0.003842
994.0,0.003959
995.0,0.003948
996.0,0.003909
997.0,0.003905
998.0,0.00387
999.0,0.003844
1000.0,0.003792
1001.0,0.003838
1002.0,0.003669
1003.0,0.003739
1004.0,0.00362
1005.0,0.003492
1006.0,0.003605
1007.0,0.003672
1008.0,0.00363
1009.0,0.003588
1010.0,0.003555
1011.0,0.0036
1012.0,0.003546
1013.0,0.003567
1014.0,0.003529
1015.0,0.003491
1016.0,0.003461
1017.0,0.003454
1018.0,0.003434
1019.0,0.00333
1020.0,0.003387
1021.0,0.003373
1022.0,0.003327
1023.0,0.003349
1024.0,0.003276
1025.0,0.003328
1026.0,0.003296
1027.0,0.003277
1028.0,0.003257
1029.0,0.003205
1030.0,0.003221
1031.0,0.003193
1032.0,0.003174
1033.0,0.003114
1034.0,0.003103
1035.0,0.0031
1036.0,0.003103
1037.0,0.003041
1038.0,0.003043
1039.0,0.003029
1040.0,0.003005
1041.0,0.003004
1042.0,0.002972
1043.0,0.002951
1044.0,0.002949
1045.0,0.002897
1046.0,0.002852
1047.0,0.002866
1048.0,0.002871
1049.0,0.002849
1050.0,0.002824
1051.0,0.002808
1052.0,0.002784
1053.0,0.002751
1054.0,0.002745
1055.0,0.002734
1056.0,0.002711
1057.0,0.002691
1058.0,0.002613
1059.0,0.002604
1060.0,0.002589
1061.0,0.002575
1062.0,0.002577
1063.0,0.00254
1064.0,0.002562
1065.0,0.002528
1066.0,0.002474
1067.0,0.002495
1068.0,0.002428
1069.0,0.002347
1070.0,0.002415
1071.0,0.002456
1072.0,0.002409
1073.0,0.002368
1074.0,0.002436
1075.0,0.002274
1076.0,0.002414
1077.0,0.002345
1078.0,0.002283
1079.0,0.002356
1080.0,0.00228
1081.0,0.002186
1082.0,0.00224
1083.0,0.002247
1084.0,0.002148
1085.0,0.002249
1086.0,0.001998
1087.0,0.002089
1088.0,0.002199
1089.0,0.00209
1090.0,0.00202
1091.0,0.002159
1092.0,0.002151
1093.0,0.001737
1094.0,0.001944
1095.0,0.001802
1096.0,0.0017
1097.0,0.002066
1098.0,0.001651
1099.0,0.001726
1100.0,0.00157
1101.0,0.001596
1102.0,0.0015
1103.0,0.001468
1104.0,0.001467
1105.0,0.001642
1106.0,0.001164
1107.0,0.001532
1108.0,0.001239
1109.0,0.00124
1110.0,0.001488
1111.0,0.0009335
1112.0,0.00122
1113.0,0.0007186
1114.0,0.0008036
1115.0,0.0006562
1116.0,0.0005061
1117.0,0.0001763
1118.0,0.00055
1119.0,0.0002618
1120.0,0.0003281
1121.0,0.0004383
1122.0,0.0001784
1123.0,0.0002933
1124.0,0.0002463
1125.0,0.0003226
1126.0,0.0001077
1127.0,0.000362
1128.0,0.0002104
1129.0,0.000223
1130.0,0.000145
1131.0,0.0007048
1132.0,0.000543
1133.0,0.0003317
1134.0,8.144e-05
1135.0,3.051e-05
1136.0,0.0002711
1137.0,0.000674
1138.0,0.0004667
1139.0,0.0007305
1140.0,0.0005926
1141.0,0.000439
1142.0,0.0005088
1143.0,0.0007412
1144.0,0.0002425
1145.0,0.0003067
1146.0,0.0003297
1147.0,0.0001118
1148.0,0.0006244
1149.0,0.0004867
1150.0,0.0002574
1151.0,0.0004428
1152.0,0.0005538
1153.0,0.0005448
1154.0,0.0002887
1155.0,0.0007226
1156.0,0.0006395
1157.0,0.0007353
1158.0,0.0007242
1159.0,0.0007877
1160.0,0.0006633
1161.0,0.0008457
1162.0,0.0008429
1163.0,0.00121
1164.0,0.001005
1165.0,0.0009246
1166.0,0.0009294
1167.0,0.001023
1168.0,0.001029
1169.0,0.001057
1170.0,0.001168
1171.0,0.001132
1172.0,0.001163
1173.0,0.001153
1174.0,0.0007713
1175.0,0.001132
1176.0,0.001275
1177.0,0.001197
1178.0,0.0008508
1179.0,0.001272
1180.0,0.001093
1181.0,0.001128
1182.0,0.0007269
1183.0,0.001111
1184.0,0.001018
1185.0,0.0009659
1186.0,0.001192
1187.0,0.001115
1188.0,0.0007211
1189.0,0.001028
1190.0,0.001152
1191.0,0.001061
1192.0,0.001165
1193.0,0.001099
1194.0,0.001139
1195.0,0.001054
1196.0,0.001
1197.0,0.001138
1198.0,0.001026
1199.0,0.0008298
1200.0,0.001064
1201.0,0.001007
1202.0,0.00101
1203.0,0.0009925
1204.0,0.0008439
1205.0,0.001035
1206.0,0.001166
1207.0,0.0009879
1208.0,0.0009819
1209.0,0.0009991
1210.0,0.001049
1211.0,0.0009814
1212.0,0.0009453
1213.0,0.001091
1214.0,0.0009699
1215.0,0.0009463
1216.0,0.00108
1217.0,0.00104
1218.0,0.001063
1219.0,0.001042
1220.0,0.001058
1221.0,0.001073
1222.0,0.001036
1223.0,0.001019
1224.0,0.001001
1225.0,0.00105
1226.0,0.00106
1227.0,0.0009512
1228.0,0.001062
1229.0,0.001051
1230.0,0.001025
1231.0,0.001064
1232.0,0.001054
1233.0,0.0009968
1234.0,0.001058
1235.0,0.001044
1236.0,0.001051
1237.0,0.001027
1238.0,0.001041
1239.0,0.001024
1240.0,0.001026
1241.0,0.001012
1242.0,0.001012
1243.0,0.001
1244.0,0.001002
1245.0,0.001004
1246.0,0.0009955
1247.0,0.000987
1248.0,0.0009805
1249.0,0.0009828
1250.0,0.0009721
1251.0,0.0009533
1252.0,0.0009546
1253.0,0.0009366
1254.0,0.000919
1255.0,0.0009427
1256.0,0.0009001
1257.0,0.0008897
1258.0,0.0009138
1259.0,0.0008586
1260.0,0.0008628
1261.0,0.0007903
1262.0,0.0007541
1263.0,0.0007528
1264.0,0.0006724
1265.0,0.0007438
1266.0,0.0007011
1267.0,0.0007198
1268.0,0.0006672
1269.0,0.0003691
1270.0,0.0007075
1271.0,0.000768
1272.0,0.0007698
1273.0,0.0007569
1274.0,0.0007602
1275.0,0.0007724
1276.0,0.0007817
1277.0,0.00079
1278.0,0.0008111
1279.0,0.0008017
1280.0,0.0007888
1281.0,0.0007547
1282.0,0.0007319
1283.0,0.0007843
1284.0,0.0007993
1285.0,0.0008034
1286.0,0.0008155
1287.0,0.0007933
1288.0,0.0007931
1289.0,0.0007523
1290.0,0.0007816
1291.0,0.0007925
1292.0,0.0007195
1293.0,0.0007668
1294.0,0.000758
1295.0,0.0007443
1296.0,0.0006958
1297.0,0.000647
1298.0,0.0007137
1299.0,0.0007553
1300.0,0.0006046
1301.0,0.000626
1302.0,0.0007044
1303.0,0.0005928
1304.0,0.0004812
1305.0,0.0006807
1306.0,0.0006753
1307.0,0.0004931
1308.0,0.0005874
1309.0,0.0006593
1310.0,0.0004766
1311.0,0.000552
1312.0,0.0005343
1313.0,0.0005147
1314.0,0.0004487
1315.0,0.0004396
1316.0,0.0005316
1317.0,0.0004964
1318.0,0.0005496
1319.0,0.0004019
1320.0,0.0003897
1321.0,0.0004646
1322.0,0.0004642
1323.0,0.0003298
1324.0,0.0003889
1325.0,0.0005054
1326.0,0.0004195
1327.0,0.0003949
1328.0,0.0003318
1329.0,0.0002372
1330.0,0.000316
1331.0,0.0001804
1332.0,0.000187
1333.0,0.0002629
1334.0,0.0002261
1335.0,0.0003152
1336.0,0.0002416
1337.0,0.0002119
1338.0,0.0002287
1339.0,0.0002275
1340.0,0.0002223
1341.0,0.0002115
1342.0,0.0002226
1343.0,0.0001449
1344.0,8.631e-05
1345.0,0.0001241
1346.0,6.032e-05
