interpolation:linear
wavelength,value
280.0,5.773e-22
280.5,1.8780000000000003e-20
281.0,1.003e-19
281.5,4.914e-19
282.0,8.138e-19
282.5,2.013e-18
283.0,6.344e-18
283.5,1.031e-17
284.0,1.681e-16
284.5,4.88e-16
285.0,8.682e-16
285.5,4.266e-15
286.0,1.713e-14
286.5,7.651e-14
287.0,2.184e-13
287.5,8.369e-13
288.0,2.745e-12
288.5,8.407e-12
289.0,2.255e-11
289.5,6.839e-11
290.0,1.903e-10
290.5,3.883e-10
291.0,8.343e-10
291.5,2.396e-09
292.0,5.4e-09
292.5,7.543e-09
293.0,1.609e-08
293.5,3.89e-08
294.0,6.059e-08
294.5,8.1e-08
295.0,1.366e-07
295.5,2.54e-07
296.0,4.933e-07
296.5,7.04e-07
297.0,9.701e-07
297.5,2.689e-06
298.0,4.379e-06
298.5,4.532e-06
299.0,1.031e-05
299.5,1.827e-05
300.0,2.096e-05
300.5,3.185e-05
301.0,6.313e-05
301.5,0.0001111
302.0,0.0001006
302.5,0.0002
303.0,0.0003683
303.5,0.0004736
304.0,0.0004563
304.5,0.0007306
305.0,0.001228
305.5,0.001502
306.0,0.00149
306.5,0.001938
307.0,0.003177
307.5,0.004663
308.0,0.004997
308.5,0.006196
309.0,0.006397
309.5,0.007709
310.0,0.007925
310.5,0.01297
311.0,0.01658
311.5,0.01612
312.0,0.01684
312.5,0.0211
313.0,0.02321
313.5,0.02213
314.0,0.02868
314.5,0.02673
315.0,0.03537
315.5,0.02875
316.0,0.02615
316.5,0.03892
317.0,0.04815
317.5,0.04942
318.0,0.03948
318.5,0.05149
319.0,0.06259
319.5,0.04874
320.0,0.05835
320.5,0.07687
321.0,0.07178
321.5,0.06898
322.0,0.06946
322.5,0.06042
323.0,0.06215
323.5,0.07856
324.0,0.09192
324.5,0.09188
325.0,0.07781
325.5,0.1027
326.0,0.1259
326.5,0.1279
327.0,0.1263
327.5,0.1207
328.0,0.1048
328.5,0.1128
329.0,0.138
329.5,0.1574
330.0,0.1573
330.5,0.1232
331.0,0.1245
331.5,0.1278
332.0,0.1406
332.5,0.1401
333.0,0.1385
333.5,0.123
334.0,0.1254
334.5,0.1468
335.0,0.1391
335.5,0.1636
336.0,0.1129
336.5,0.1298
337.0,0.1054
337.5,0.1303
338.0,0.1288
338.5,0.1497
339.0,0.1475
339.5,0.1417
340.0,0.1646
340.5,0.1482
341.0,0.145
341.5,0.1324
342.0,0.1577
342.5,0.1471
343.0,0.1615
343.5,0.1518
344.0,0.1114
344.5,0.113
345.0,0.1485
345.5,0.151
346.0,0.1279
346.5,0.1444
347.0,0.1547
347.5,0.1248
348.0,0.1417
348.5,0.1411
349.0,0.1305
349.5,0.1289
350.0,0.1589
350.5,0.1671
351.0,0.1489
351.5,0.1445
352.0,0.1546
352.5,0.1202
353.0,0.1509
353.5,0.1609
354.0,0.1665
354.5,0.1683
355.0,0.1673
355.5,0.1507
356.0,0.1572
356.5,0.1338
357.0,0.1102
357.5,0.1345
358.0,0.1063
358.5,0.09053
359.0,0.1262
359.5,0.1604
360.0,0.1695
360.5,0.1351
361.0,0.1227
361.5,0.1409
362.0,0.1215
362.5,0.1676
363.0,0.1501
363.5,0.1379
364.0,0.1681
364.5,0.1432
365.0,0.1454
365.5,0.1819
366.0,0.1922
366.5,0.18
367.0,0.1748
367.5,0.1808
368.0,0.1577
368.5,0.1587
369.0,0.1708
369.5,0.1815
370.0,0.1929
370.5,0.1493
371.0,0.159
371.5,0.1983
372.0,0.1312
372.5,0.1568
373.0,0.159
373.5,0.1031
374.0,0.1494
374.5,0.1233
375.0,0.1195
375.5,0.1779
376.0,0.147
376.5,0.1518
377.0,0.1602
377.5,0.1869
378.0,0.2019
378.5,0.1902
379.0,0.1564
379.5,0.1424
380.0,0.1476
380.5,0.1781
381.0,0.1779
381.5,0.1406
382.0,0.1244
382.5,0.1057
383.0,0.09754
383.5,0.09365
384.0,0.103
384.5,0.151
385.0,0.1492
385.5,0.1385
386.0,0.1183
386.5,0.1548
387.0,0.1282
387.5,0.1435
388.0,0.1321
388.5,0.1301
389.0,0.14
389.5,0.169
390.0,0.169
390.5,0.155
391.0,0.1819
391.5,0.1849
392.0,0.1552
392.5,0.1385
393.0,0.0768
393.5,0.05564
394.0,0.1129
394.5,0.143
395.0,0.1739
395.5,0.1761
396.0,0.1522
396.5,0.08865
397.0,0.06631
397.5,0.1344
398.0,0.1876
398.5,0.1932
399.0,0.2086
399.5,0.2072
400.0,0.2144
401.0,0.2107
402.0,0.2207
403.0,0.2083
404.0,0.2037
405.0,0.2023
406.0,0.1976
407.0,0.193
408.0,0.1991
409.0,0.2117
410.0,0.1838
411.0,0.1977
412.0,0.2109
413.0,0.2043
414.0,0.2054
415.0,0.2045
416.0,0.2066
417.0,0.2001
418.0,0.195
419.0,0.1962
420.0,0.1939
421.0,0.2014
422.0,0.19
423.0,0.1842
424.0,0.1934
425.0,0.1916
426.0,0.1854
427.0,0.1807
428.0,0.1748
429.0,0.1645
430.0,0.143
431.0,0.1407
432.0,0.1802
433.0,0.1799
434.0,0.1658
435.0,0.172
436.0,0.1925
437.0,0.1887
438.0,0.1706
439.0,0.1751
440.0,0.1793
441.0,0.1844
442.0,0.1962
443.0,0.1897
444.0,0.1926
445.0,0.1872
446.0,0.1775
447.0,0.1905
448.0,0.192
449.0,0.1913
450.0,0.1951
451.0,0.2009
452.0,0.1922
453.0,0.1795
454.0,0.1862
455.0,0.1859
456.0,0.1888
457.0,0.1904
458.0,0.1824
459.0,0.1799
460.0,0.1789
461.0,0.1816
462.0,0.1818
463.0,0.1794
464.0,0.1755
465.0,0.1722
466.0,0.1728
467.0,0.1683
468.0,0.1689
469.0,0.1683
470.0,0.1618
471.0,0.1605
472.0,0.168
473.0,0.1646
474.0,0.1636
475.0,0.1637
476.0,0.1574
477.0,0.1565
478.0,0.1594
479.0,0.1569
480.0,0.1559
481.0,0.1573
482.0,0.1569
483.0,0.154
484.0,0.1499
485.0,0.142
486.0,0.1234
487.0,0.1285
488.0,0.1399
489.0,0.1392
490.0,0.1453
491.0,0.1417
492.0,0.1328
493.0,0.1361
494.0,0.1365
495.0,0.1367
496.0,0.1365
497.0,0.1374
498.0,0.1298
499.0,0.1303
500.0,0.1252
501.0,0.1217
502.0,0.1188
503.0,0.1224
504.0,0.1182
505.0,0.1215
506.0,0.1246
507.0,0.1177
508.0,0.1134
509.0,0.1159
510.0,0.1146
511.0,0.1169
512.0,0.1173
513.0,0.1102
514.0,0.1086
515.0,0.1067
516.0,0.1056
517.0,0.09318
518.0,0.09725
519.0,0.1012
520.0,0.1041
521.0,0.1042
522.0,0.1035
523.0,0.1008
524.0,0.1035
525.0,0.1038
526.0,0.09833
527.0,0.09178
528.0,0.09617
529.0,0.1005
530.0,0.09829
531.0,0.09895
532.0,0.09482
533.0,0.09139
534.0,0.09346
535.0,0.0949
536.0,0.09516
537.0,0.09081
538.0,0.09178
539.0,0.0904
540.0,0.08607
541.0,0.08595
542.0,0.08792
543.0,0.08633
544.0,0.08722
545.0,0.08638
546.0,0.08612
547.0,0.08546
548.0,0.08385
549.0,0.08354
550.0,0.08395
551.0,0.08234
552.0,0.08232
553.0,0.08027
554.0,0.0816
555.0,0.08116
556.0,0.07949
557.0,0.0764
558.0,0.07518
559.0,0.07314
560.0,0.07343
561.0,0.07375
562.0,0.07258
563.0,0.07394
564.0,0.07138
565.0,0.07023
566.0,0.06866
567.0,0.06941
568.0,0.06824
569.0,0.06604
570.0,0.06557
571.0,0.06472
572.0,0.06572
573.0,0.06598
574.0,0.06537
575.0,0.06376
576.0,0.06281
577.0,0.06314
578.0,0.06189
579.0,0.06186
580.0,0.06278
581.0,0.06281
582.0,0.06369
583.0,0.06357
584.0,0.06382
585.0,0.06194
586.0,0.06028
587.0,0.06118
588.0,0.05922
589.0,0.05192
590.0,0.05398
591.0,0.0569
592.0,0.05571
593.0,0.05621
594.0,0.05535
595.0,0.05351
596.0,0.0554
597.0,0.05436
598.0,0.05386
599.0,0.05353
600.0,0.05328
601.0,0.05255
602.0,0.05188
603.0,0.05244
604.0,0.05303
605.0,0.0525
606.0,0.05206
607.0,0.05237
608.0,0.05157
609.0,0.05145
610.0,0.05089
611.0,0.05096
612.0,0.05061
613.0,0.04977
614.0,0.04889
615.0,0.04975
616.0,0.04792
617.0,0.04762
618.0,0.04925
619.0,0.04854
620.0,0.04862
621.0,0.04842
622.0,0.04761
623.0,0.04663
624.0,0.04561
625.0,0.04531
626.0,0.04578
627.0,0.04604
628.0,0.04231
629.0,0.04434
630.0,0.0431
631.0,0.04402
632.0,0.04333
633.0,0.04453
634.0,0.04397
635.0,0.04447
636.0,0.04371
637.0,0.04426
638.0,0.04453
639.0,0.04386
640.0,0.04326
641.0,0.04305
642.0,0.0427
643.0,0.04311
644.0,0.04281
645.0,0.04266
646.0,0.04141
647.0,0.04061
648.0,0.04044
649.0,0.03947
650.0,0.03963
651.0,0.04119
652.0,0.0391
653.0,0.04027
654.0,0.03966
655.0,0.03791
656.0,0.03351
657.0,0.03427
658.0,0.0383
659.0,0.03843
660.0,0.03841
661.0,0.0385
662.0,0.03839
663.0,0.03748
664.0,0.0378
665.0,0.0377
666.0,0.03757
667.0,0.03739
668.0,0.03727
669.0,0.03769
670.0,0.03735
671.0,0.03719
672.0,0.03674
673.0,0.03717
674.0,0.03687
675.0,0.03637
676.0,0.03646
677.0,0.03596
678.0,0.03592
679.0,0.03519
680.0,0.03532
681.0,0.03492
682.0,0.03472
683.0,0.03449
684.0,0.03414
685.0,0.03427
686.0,0.03391
687.0,0.02089
688.0,0.025
689.0,0.025
690.0,0.02633
691.0,0.02789
692.0,0.02903
693.0,0.02863
694.0,0.02823
695.0,0.02948
696.0,0.02938
697.0,0.03138
698.0,0.03075
699.0,0.02967
700.0,0.02917
701.0,0.0287
702.0,0.02885
703.0,0.02877
704.0,0.02966
705.0,0.02956
706.0,0.02944
707.0,0.02934
708.0,0.02926
709.0,0.02923
710.0,0.02905
711.0,0.02893
712.0,0.02877
713.0,0.02831
714.0,0.02827
715.0,0.02717
716.0,0.02705
717.0,0.02272
718.0,0.0206
719.0,0.01863
720.0,0.01947
721.0,0.02177
722.0,0.02533
723.0,0.02318
724.0,0.02048
725.0,0.02001
726.0,0.02096
727.0,0.02123
728.0,0.01969
729.0,0.02053
730.0,0.02169
731.0,0.02055
732.0,0.02213
733.0,0.02355
734.0,0.02406
735.0,0.02341
736.0,0.02328
737.0,0.02325
738.0,0.02365
739.0,0.02306
740.0,0.0236
741.0,0.02327
742.0,0.02321
743.0,0.02368
744.0,0.0235
745.0,0.0234
746.0,0.0234
747.0,0.02334
748.0,0.02317
749.0,0.02279
750.0,0.02268
751.0,0.02236
752.0,0.02236
753.0,0.02237
754.0,0.02232
755.0,0.02209
756.0,0.02199
757.0,0.02193
758.0,0.02155
759.0,0.02093
760.0,0.002863
761.0,0.001483
762.0,0.009404
763.0,0.004384
764.0,0.006763
765.0,0.009261
766.0,0.01173
767.0,0.01528
768.0,0.01807
769.0,0.01849
770.0,0.01918
771.0,0.01932
772.0,0.01928
773.0,0.01932
774.0,0.01912
775.0,0.01889
776.0,0.01903
777.0,0.01868
778.0,0.01847
779.0,0.01839
780.0,0.0182
781.0,0.01814
782.0,0.01818
783.0,0.01779
784.0,0.0178
785.0,0.01759
786.0,0.0177
787.0,0.01726
788.0,0.01694
789.0,0.01685
790.0,0.01624
791.0,0.01639
792.0,0.0162
793.0,0.01586
794.0,0.01615
795.0,0.01632
796.0,0.01563
797.0,0.01559
798.0,0.01608
799.0,0.01588
800.0,0.0155
801.0,0.01536
802.0,0.01524
803.0,0.01505
804.0,0.01501
805.0,0.01492
806.0,0.01532
807.0,0.01505
808.0,0.015
809.0,0.01461
810.0,0.01438
811.0,0.01429
812.0,0.01373
813.0,0.01333
814.0,0.01142
815.0,0.01129
816.0,0.01036
817.0,0.01054
818.0,0.01006
819.0,0.01142
820.0,0.01062
821.0,0.01271
822.0,0.01223
823.0,0.007773
824.0,0.01169
825.0,0.01225
826.0,0.01164
827.0,0.01235
828.0,0.01013
829.0,0.01144
830.0,0.01121
831.0,0.01122
832.0,0.01076
833.0,0.01159
834.0,0.01104
835.0,0.01228
836.0,0.01158
837.0,0.01221
838.0,0.01173
839.0,0.01193
840.0,0.01215
841.0,0.0119
842.0,0.01191
843.0,0.01188
844.0,0.01164
845.0,0.01201
846.0,0.01191
847.0,0.01165
848.0,0.0115
849.0,0.01112
850.0,0.01061
851.0,0.01116
852.0,0.01103
853.0,0.01058
854.0,0.009086
855.0,0.009958
856.0,0.01083
857.0,0.01104
858.0,0.01092
859.0,0.01088
860.0,0.01086
861.0,0.01076
862.0,0.01089
863.0,0.01111
864.0,0.01051
865.0,0.01038
866.0,0.009293
867.0,0.009659
868.0,0.01047
869.0,0.01021
870.0,0.01046
871.0,0.01027
872.0,0.01019
873.0,0.01013
874.0,0.009967
875.0,0.00972
876.0,0.009778
877.0,0.009836
878.0,0.009898
879.0,0.009705
880.0,0.009457
881.0,0.009269
882.0,0.009429
883.0,0.009427
884.0,0.009339
885.0,0.009366
886.0,0.008863
887.0,0.008942
888.0,0.009022
889.0,0.009109
890.0,0.008964
891.0,0.008928
892.0,0.008603
893.0,0.008251
894.0,0.007844
895.0,0.007278
896.0,0.006745
897.0,0.00562
898.0,0.006197
899.0,0.004492
900.0,0.006366
901.0,0.004728
902.0,0.005702
903.0,0.005691
904.0,0.007467
905.0,0.007131
906.0,0.006595
907.0,0.005115
908.0,0.005234
909.0,0.00575
910.0,0.004916
911.0,0.005306
912.0,0.005563
913.0,0.004927
914.0,0.004877
915.0,0.00532
916.0,0.004384
917.0,0.005778
918.0,0.004474
919.0,0.005861
920.0,0.005955
921.0,0.006227
922.0,0.00542
923.0,0.005971
924.0,0.005514
925.0,0.005358
926.0,0.005407
927.0,0.006143
928.0,0.004194
929.0,0.003751
930.0,0.002819
931.0,0.002649
932.0,0.001812
933.0,0.001429
934.0,0.0007313
935.0,0.001465
936.0,0.0008687
937.0,0.0008758
938.0,0.001091
939.0,0.002478
940.0,0.003058
941.0,0.002205
942.0,0.002593
943.0,0.001609
944.0,0.00172
945.0,0.002243
946.0,0.001049
947.0,0.002225
948.0,0.001582
949.0,0.003082
950.0,0.0007329
951.0,0.003017
952.0,0.001481
953.0,0.001975
954.0,0.002503
955.0,0.001996
956.0,0.001945
957.0,0.001454
958.0,0.002878
959.0,0.002179
960.0,0.002464
961.0,0.002823
962.0,0.002643
963.0,0.003119
964.0,0.002807
965.0,0.003084
966.0,0.003069
967.0,0.003034
968.0,0.004347
969.0,0.004533
970.0,0.004084
971.0,0.004813
972.0,0.00454
973.0,0.003805
974.0,0.003571
975.0,0.003726
976.0,0.00347
977.0,0.004073
978.0,0.003798
979.0,0.00401
980.0,0.003711
981.0,0.004605
982.0,0.004335
983.0,0.004113
984.0,0.004748
985.0,0.004271
986.0,0.004829
987.0,0.004681
988.0,0.004653
989.0,0.004779
990.0,0.004591
991.0,0.004745
992.0,0.004759
993.0,0.004602
994.0,0.004728
995.0,0.00471
996.0,0.004666
997.0,0.004658
998.0,0.004617
999.0,0.004585
1000.0,0.004528
1001.0,0.004577
1002.0,0.004399
1003.0,0.004459
1004.0,0.004324
1005.0,0.004162
1006.0,0.004301
1007.0,0.004378
1008.0,0.004332
1009.0,0.004286
1010.0,0.004248
1011.0,0.004292
1012.0,0.004231
1013.0,0.004251
1014.0,0.004206
1015.0,0.004162
1016.0,0.004126
1017.0,0.004119
1018.0,0.004092
1019.0,0.003976
1020.0,0.004036
1021.0,0.004017
1022.0,0.003966
1023.0,0.003993
1024.0,0.003914
1025.0,0.003965
1026.0,0.00393
1027.0,0.003906
1028.0,0.003883
1029.0,0.003822
1030.0,0.003838
1031.0,0.003806
1032.0,0.003782
1033.0,0.00371
1034.0,0.003697
1035.0,0.003694
1036.0,0.003698
1037.0,0.003624
1038.0,0.003627
1039.0,0.003611
1040.0,0.003583
1041.0,0.003582
1042.0,0.003543
1043.0,0.003519
1044.0,0.003518
1045.0,0.003456
1046.0,0.003404
1047.0,0.003421
1048.0,0.003427
1049.0,0.003402
1050.0,0.003373
1051.0,0.003354
1052.0,0.003327
1053.0,0.003288
1054.0,0.003282
1055.0,0.00327
1056.0,0.003245
1057.0,0.003221
1058.0,0.00313
1059.0,0.00312
1060.0,0.003103
1061.0,0.003087
1062.0,0.00309
1063.0,0.003047
1064.0,0.003073
1065.0,0.003036
1066.0,0.002968
1067.0,0.002994
1068.0,0.002915
1069.0,0.002816
1070.0,0.002898
1071.0,0.002942
1072.0,0.00289
1073.0,0.002841
1074.0,0.002915
1075.0,0.00273
1076.0,0.002889
1077.0,0.00281
1078.0,0.002741
1079.0,0.002816
1080.0,0.002734
1081.0,0.002628
1082.0,0.002683
1083.0,0.002687
1084.0,0.002583
1085.0,0.002697
1086.0,0.002402
1087.0,0.002509
1088.0,0.00263
1089.0,0.002515
1090.0,0.00243
1091.0,0.002586
1092.0,0.002575
1093.0,0.002097
1094.0,0.002331
1095.0,0.002184
1096.0,0.002061
1097.0,0.002474
1098.0,0.002008
1099.0,0.002098
1100.0,0.001908
1101.0,0.001937
1102.0,0.001826
1103.0,0.001788
1104.0,0.001787
1105.0,0.001999
1106.0,0.001422
1107.0,0.001863
1108.0,0.00151
1109.0,0.001513
1110.0,0.001819
1111.0,0.001136
1112.0,0.001488
1113.0,0.0008641
1114.0,0.0009745
1115.0,0.0007886
1116.0,0.0006001
1117.0,0.0001962
1118.0,0.0006573
1119.0,0.0002993
1120.0,0.0003793
1121.0,0.0005168
1122.0,0.0001992
1123.0,0.0003374
1124.0,0.0002811
1125.0,0.000374
1126.0,0.0001175
1127.0,0.0004225
1128.0,0.0002367
1129.0,0.000252
1130.0,0.0001604
1131.0,0.0008608
1132.0,0.0006522
1133.0,0.0003852
1134.0,8.819e-05
1135.0,3.252e-05
1136.0,0.0003104
1137.0,0.0008215
1138.0,0.0005568
1139.0,0.0008926
1140.0,0.0007172
1141.0,0.0005219
1142.0,0.0006109
1143.0,0.0009088
1144.0,0.0002783
1145.0,0.0003557
1146.0,0.0003838
1147.0,0.0001223
1148.0,0.0007601
1149.0,0.0005835
1150.0,0.000296
1151.0,0.0005278
1152.0,0.0006702
1153.0,0.0006572
1154.0,0.0003334
1155.0,0.0008857
1156.0,0.0007795
1157.0,0.0008953
1158.0,0.0008813
1159.0,0.0009663
1160.0,0.0008008
1161.0,0.001029
1162.0,0.001026
1163.0,0.001475
1164.0,0.001222
1165.0,0.001127
1166.0,0.001125
1167.0,0.001241
1168.0,0.001249
1169.0,0.001286
1170.0,0.001416
1171.0,0.00137
1172.0,0.001401
1173.0,0.001398
1174.0,0.0009298
1175.0,0.001364
1176.0,0.001526
1177.0,0.001441
1178.0,0.001021
1179.0,0.001524
1180.0,0.001317
1181.0,0.001363
1182.0,0.0008751
1183.0,0.001341
1184.0,0.001229
1185.0,0.001169
1186.0,0.001436
1187.0,0.001347
1188.0,0.0008746
1189.0,0.001239
1190.0,0.001383
1191.0,0.001286
1192.0,0.001397
1193.0,0.001322
1194.0,0.001368
1195.0,0.001273
1196.0,0.001211
1197.0,0.001368
1198.0,0.001229
1199.0,0.001004
1200.0,0.00128
1201.0,0.001217
1202.0,0.001211
1203.0,0.001201
1204.0,0.001017
1205.0,0.001239
1206.0,0.001394
1207.0,0.00119
1208.0,0.001179
1209.0,0.001201
1210.0,0.001257
1211.0,0.001179
1212.0,0.001149
1213.0,0.001312
1214.0,0.001176
1215.0,0.001146
1216.0,0.001296
1217.0,0.00125
1218.0,0.001277
1219.0,0.001253
1220.0,0.00127
1221.0,0.001283
1222.0,0.00124
1223.0,0.001222
1224.0,0.001206
1225.0,0.001258
1226.0,0.001267
1227.0,0.001146
1228.0,0.001269
1229.0,0.001255
1230.0,0.001226
1231.0,0.001268
1232.0,0.001256
1233.0,0.001195
1234.0,0.001258
1235.0,0.001244
1236.0,0.00125
1237.0,0.001224
1238.0,0.001238
1239.0,0.001218
1240.0,0.00122
1241.0,0.001207
1242.0,0.001203
1243.0,0.001189
1244.0,0.001193
1245.0,0.001194
1246.0,0.001184
1247.0,0.001174
1248.0,0.001168
1249.0,0.00117
1250.0,0.001158
1251.0,0.001137
1252.0,0.001136
1253.0,0.001119
1254.0,0.001101
1255.0,0.001123
1256.0,0.00108
1257.0,0.001069
1258.0,0.001092
1259.0,0.001036
1260.0,0.00104
1261.0,0.0009637
1262.0,0.0009243
1263.0,0.000923
1264.0,0.0008326
1265.0,0.0009121
1266.0,0.000865
1267.0,0.0008844
1268.0,0.0008252
1269.0,0.0004554
1270.0,0.0008712
1271.0,0.0009357
1272.0,0.0009375
1273.0,0.0009229
1274.0,0.0009251
1275.0,0.0009384
1276.0,0.0009474
1277.0,0.0009538
1278.0,0.0009753
1279.0,0.0009629
1280.0,0.0009481
1281.0,0.0009047
1282.0,0.0008736
1283.0,0.000937
1284.0,0.0009554
1285.0,0.0009595
1286.0,0.0009721
1287.0,0.0009491
1288.0,0.0009472
1289.0,0.0009052
1290.0,0.0009334
1291.0,0.000945
1292.0,0.0008679
1293.0,0.0009163
1294.0,0.000906
1295.0,0.000895
1296.0,0.0008409
1297.0,0.000784
1298.0,0.0008584
1299.0,0.0009019
1300.0,0.0007304
1301.0,0.0007567
1302.0,0.0008462
1303.0,0.0007159
1304.0,0.0005852
1305.0,0.0008178
1306.0,0.0008143
1307.0,0.0005974
1308.0,0.0007075
1309.0,0.0007985
1310.0,0.0005788
1311.0,0.0006663
1312.0,0.0006447
1313.0,0.0006253
1314.0,0.0005454
1315.0,0.0005358
1316.0,0.0006436
1317.0,0.0006014
1318.0,0.0006642
1319.0,0.0004887
1320.0,0.0004724
1321.0,0.000564
1322.0,0.0005663
1323.0,0.0004015
1324.0,0.0004715
1325.0,0.0006147
1326.0,0.0005098
1327.0,0.0004802
1328.0,0.0004028
1329.0,0.0002862
1330.0,0.0003849
1331.0,0.000214
1332.0,0.0002229
1333.0,0.00032
1334.0,0.0002697
1335.0,0.0003855
1336.0,0.0002922
1337.0,0.0002533
1338.0,0.0002752
1339.0,0.0002743
1340.0,0.0002668
1341.0,0.0002548
1342.0,0.0002685
1343.0,0.000169
1344.0,9.823e-05
1345.0,0.0001443
1346.0,6.658e-05
1347.0,6.717e-05
1348.0,4.079e-06
1349.0,1.479e-05
1350.0,1.538e-05
1351.0,3.655e-06
1352.0,9.787e-07
1353.0,4.975e-08
1354.0,1.71e-07
1355.0,1.377e-09
1356.0,2.409e-08
1357.0,3.661e-08
1358.0,1.616e-09
1359.0,2.036e-10
