interpolation:linear
wavelength,value
280.0,6.995999999999999e-23
280.5,2.342e-21
281.0,1.2660000000000001e-20
281.5,4.098e-19
282.0,5.112e-19
282.5,1.214e-18
283.0,3.779e-18
283.5,6.142e-18
284.0,1.009e-16
284.5,2.959e-16
285.0,6.127e-16
285.5,2.801e-15
286.0,1.113e-14
286.5,4.915e-14
287.0,1.402e-13
287.5,5.385e-13
288.0,1.833e-12
288.5,5.274e-12
289.0,1.366e-11
289.5,4.058e-11
290.0,1.12e-10
290.5,2.28e-10
291.0,4.893e-10
291.5,1.407e-09
292.0,2.869e-09
292.5,3.997e-09
293.0,8.5e-09
293.5,2.048e-08
294.0,3.192e-08
294.5,4.068e-08
295.0,6.851e-08
295.5,1.166e-07
296.0,2.201e-07
296.5,3.008e-07
297.0,3.986e-07
297.5,1.034e-06
298.0,1.579e-06
298.5,1.547e-06
299.0,3.317e-06
299.5,5.227e-06
300.0,5.566e-06
300.5,7.785e-06
301.0,1.326e-05
301.5,1.992e-05
302.0,1.65e-05
302.5,3.172e-05
303.0,5.607e-05
303.5,7.05e-05
304.0,6.764e-05
304.5,0.0001071
305.0,0.0001774
305.5,0.0002154
306.0,0.0002132
306.5,0.0002761
307.0,0.0004482
307.5,0.0006517
308.0,0.0006979
308.5,0.000862
309.0,0.001005
309.5,0.001378
310.0,0.001504
310.5,0.002536
311.0,0.003405
311.5,0.003382
312.0,0.003917
312.5,0.005251
313.0,0.00599
313.5,0.005539
314.0,0.007782
314.5,0.008062
315.0,0.01088
315.5,0.008424
316.0,0.008347
316.5,0.01337
317.0,0.01654
317.5,0.01666
318.0,0.01399
318.5,0.02006
319.0,0.02559
319.5,0.01851
320.0,0.02194
320.5,0.03182
321.0,0.03238
321.5,0.03143
322.0,0.02894
322.5,0.02533
323.0,0.02768
323.5,0.03837
324.0,0.04546
324.5,0.0442
325.0,0.03522
325.5,0.04885
326.0,0.06313
326.5,0.0666
327.0,0.06498
327.5,0.06112
328.0,0.0506
328.5,0.05789
329.0,0.07414
329.5,0.08583
330.0,0.085
330.5,0.06442
331.0,0.06437
331.5,0.06795
332.0,0.07763
332.5,0.07872
333.0,0.0772
333.5,0.06687
334.0,0.06793
334.5,0.08214
335.0,0.07928
335.5,0.09377
336.0,0.0648
336.5,0.07368
337.0,0.05914
337.5,0.0729
338.0,0.07399
338.5,0.08688
339.0,0.08603
339.5,0.08256
340.0,0.09522
340.5,0.08606
341.0,0.08502
341.5,0.07823
342.0,0.09347
342.5,0.08743
343.0,0.09577
343.5,0.08992
344.0,0.06544
344.5,0.06678
345.0,0.08858
345.5,0.09048
346.0,0.07689
346.5,0.08702
347.0,0.09308
347.5,0.0751
348.0,0.08571
348.5,0.08569
349.0,0.07944
349.5,0.07851
350.0,0.097
350.5,0.1021
351.0,0.09098
351.5,0.088
352.0,0.09456
352.5,0.07381
353.0,0.09294
353.5,0.09931
354.0,0.103
354.5,0.1043
355.0,0.1037
355.5,0.0936
356.0,0.09782
356.5,0.0834
357.0,0.06879
357.5,0.0841
358.0,0.06656
358.5,0.0568
359.0,0.07929
359.5,0.1008
360.0,0.1067
360.5,0.08517
361.0,0.07755
361.5,0.08918
362.0,0.07701
362.5,0.1064
363.0,0.09544
363.5,0.08776
364.0,0.1072
364.5,0.09143
365.0,0.09296
365.5,0.1165
366.0,0.1232
366.5,0.1156
367.0,0.1124
367.5,0.1164
368.0,0.1017
368.5,0.1024
369.0,0.1104
369.5,0.1175
370.0,0.1251
370.5,0.09692
371.0,0.1034
371.5,0.1291
372.0,0.08554
372.5,0.1024
373.0,0.104
373.5,0.06752
374.0,0.09794
374.5,0.08097
375.0,0.07857
375.5,0.1171
376.0,0.09689
376.5,0.1002
377.0,0.1059
377.5,0.1237
378.0,0.1338
378.5,0.1262
379.0,0.104
379.5,0.09479
380.0,0.09836
380.5,0.1189
381.0,0.1189
381.5,0.09409
382.0,0.08339
382.5,0.07095
383.0,0.06556
383.5,0.06303
384.0,0.06939
384.5,0.1019
385.0,0.1008
385.5,0.09371
386.0,0.0801
386.5,0.105
387.0,0.08708
387.5,0.09761
388.0,0.08994
388.5,0.08873
389.0,0.09558
389.5,0.1155
390.0,0.1157
390.5,0.1063
391.0,0.1248
391.5,0.127
392.0,0.1068
392.5,0.0954
393.0,0.05298
393.5,0.03843
394.0,0.07804
394.5,0.09901
395.0,0.1206
395.5,0.1222
396.0,0.1057
396.5,0.06168
397.0,0.04619
397.5,0.09375
398.0,0.131
398.5,0.1351
399.0,0.146
399.5,0.1452
400.0,0.1505
401.0,0.148
402.0,0.1555
403.0,0.147
404.0,0.1441
405.0,0.1434
406.0,0.1405
407.0,0.1375
408.0,0.1422
409.0,0.1514
410.0,0.1317
411.0,0.142
412.0,0.1518
413.0,0.1474
414.0,0.1485
415.0,0.1481
416.0,0.15
417.0,0.1455
418.0,0.1421
419.0,0.1433
420.0,0.1419
421.0,0.1477
422.0,0.1396
423.0,0.1356
424.0,0.1426
425.0,0.1415
426.0,0.1372
427.0,0.134
428.0,0.1299
429.0,0.1225
430.0,0.1066
431.0,0.1051
432.0,0.1349
433.0,0.1348
434.0,0.1245
435.0,0.1294
436.0,0.1451
437.0,0.1424
438.0,0.1289
439.0,0.1324
440.0,0.1358
441.0,0.1398
442.0,0.149
443.0,0.1442
444.0,0.1467
445.0,0.1428
446.0,0.1357
447.0,0.146
448.0,0.1473
449.0,0.147
450.0,0.1501
451.0,0.1547
452.0,0.1483
453.0,0.1387
454.0,0.1441
455.0,0.144
456.0,0.1464
457.0,0.1477
458.0,0.1416
459.0,0.1397
460.0,0.139
461.0,0.1412
462.0,0.1415
463.0,0.1399
464.0,0.1371
465.0,0.1349
466.0,0.1355
467.0,0.1322
468.0,0.1327
469.0,0.1324
470.0,0.1273
471.0,0.1265
472.0,0.1325
473.0,0.1301
474.0,0.1294
475.0,0.1295
476.0,0.1245
477.0,0.1238
478.0,0.126
479.0,0.1241
480.0,0.1232
481.0,0.1243
482.0,0.1241
483.0,0.122
484.0,0.119
485.0,0.113
486.0,0.09838
487.0,0.1026
488.0,0.1119
489.0,0.1114
490.0,0.1164
491.0,0.1136
492.0,0.1065
493.0,0.1093
494.0,0.1098
495.0,0.11
496.0,0.1099
497.0,0.1107
498.0,0.1046
499.0,0.1048
500.0,0.1007
501.0,0.09785
502.0,0.0954
503.0,0.09824
504.0,0.09469
505.0,0.09739
506.0,0.09987
507.0,0.0945
508.0,0.09115
509.0,0.0933
510.0,0.09237
511.0,0.09432
512.0,0.0947
513.0,0.08895
514.0,0.08765
515.0,0.08609
516.0,0.08522
517.0,0.07516
518.0,0.07844
519.0,0.08166
520.0,0.08394
521.0,0.08402
522.0,0.08334
523.0,0.08118
524.0,0.08325
525.0,0.08336
526.0,0.07885
527.0,0.07349
528.0,0.07691
529.0,0.08029
530.0,0.07842
531.0,0.07887
532.0,0.07554
533.0,0.0728
534.0,0.07447
535.0,0.07566
536.0,0.07592
537.0,0.07249
538.0,0.07329
539.0,0.07217
540.0,0.06868
541.0,0.06855
542.0,0.07007
543.0,0.06877
544.0,0.06941
545.0,0.06872
546.0,0.06848
547.0,0.06796
548.0,0.06668
549.0,0.06644
550.0,0.06675
551.0,0.06547
552.0,0.06545
553.0,0.0638
554.0,0.06483
555.0,0.06445
556.0,0.06309
557.0,0.0606
558.0,0.05956
559.0,0.05787
560.0,0.05803
561.0,0.05822
562.0,0.05722
563.0,0.05822
564.0,0.05615
565.0,0.0552
566.0,0.05394
567.0,0.05449
568.0,0.05351
569.0,0.05172
570.0,0.05132
571.0,0.05064
572.0,0.05138
573.0,0.05157
574.0,0.05108
575.0,0.04982
576.0,0.04911
577.0,0.04942
578.0,0.0485
579.0,0.04854
580.0,0.04934
581.0,0.04944
582.0,0.05021
583.0,0.05016
584.0,0.0504
585.0,0.04895
586.0,0.04767
587.0,0.04839
588.0,0.0468
589.0,0.04095
590.0,0.04258
591.0,0.04491
592.0,0.04392
593.0,0.04432
594.0,0.04359
595.0,0.04205
596.0,0.04357
597.0,0.04268
598.0,0.04226
599.0,0.04198
600.0,0.04177
601.0,0.0412
602.0,0.04068
603.0,0.04114
604.0,0.04163
605.0,0.04126
606.0,0.04096
607.0,0.04127
608.0,0.04071
609.0,0.04069
610.0,0.04031
611.0,0.04044
612.0,0.04023
613.0,0.03962
614.0,0.03899
615.0,0.03974
616.0,0.03833
617.0,0.03815
618.0,0.0395
619.0,0.03897
620.0,0.03907
621.0,0.03894
622.0,0.03832
623.0,0.03757
624.0,0.03678
625.0,0.03656
626.0,0.03696
627.0,0.03719
628.0,0.03401
629.0,0.03582
630.0,0.03484
631.0,0.03569
632.0,0.03518
633.0,0.03621
634.0,0.03582
635.0,0.03628
636.0,0.03572
637.0,0.03621
638.0,0.03649
639.0,0.03599
640.0,0.03556
641.0,0.03544
642.0,0.03519
643.0,0.03557
644.0,0.03536
645.0,0.03526
646.0,0.03424
647.0,0.03355
648.0,0.03345
649.0,0.03266
650.0,0.0329
651.0,0.03422
652.0,0.03246
653.0,0.03352
654.0,0.03304
655.0,0.03158
656.0,0.02795
657.0,0.02862
658.0,0.03203
659.0,0.03217
660.0,0.03219
661.0,0.03229
662.0,0.03221
663.0,0.03147
664.0,0.03178
665.0,0.03173
666.0,0.03166
667.0,0.03155
668.0,0.03148
669.0,0.03186
670.0,0.0316
671.0,0.0315
672.0,0.03114
673.0,0.03153
674.0,0.03129
675.0,0.0309
676.0,0.031
677.0,0.03059
678.0,0.03058
679.0,0.02998
680.0,0.0301
681.0,0.02978
682.0,0.02962
683.0,0.02943
684.0,0.02915
685.0,0.02928
686.0,0.02898
687.0,0.01743
688.0,0.02095
689.0,0.02096
690.0,0.02216
691.0,0.02357
692.0,0.02465
693.0,0.02433
694.0,0.02407
695.0,0.02522
696.0,0.02517
697.0,0.02696
698.0,0.02643
699.0,0.02546
700.0,0.02504
701.0,0.02461
702.0,0.02476
703.0,0.02472
704.0,0.02553
705.0,0.02545
706.0,0.02537
707.0,0.0253
708.0,0.02523
709.0,0.02524
710.0,0.02508
711.0,0.02498
712.0,0.02486
713.0,0.02445
714.0,0.02443
715.0,0.02345
716.0,0.02335
717.0,0.01945
718.0,0.01769
719.0,0.01603
720.0,0.01671
721.0,0.01874
722.0,0.02187
723.0,0.02
724.0,0.01765
725.0,0.01724
726.0,0.01803
727.0,0.01832
728.0,0.01697
729.0,0.01774
730.0,0.01868
731.0,0.01773
732.0,0.01914
733.0,0.02041
734.0,0.02088
735.0,0.02031
736.0,0.02018
737.0,0.02017
738.0,0.02057
739.0,0.02007
740.0,0.02055
741.0,0.02028
742.0,0.02024
743.0,0.02065
744.0,0.02051
745.0,0.02043
746.0,0.02042
747.0,0.02038
748.0,0.02024
749.0,0.01991
750.0,0.01982
751.0,0.01955
752.0,0.01956
753.0,0.01958
754.0,0.01955
755.0,0.01936
756.0,0.01927
757.0,0.01922
758.0,0.01889
759.0,0.0183
760.0,0.002592
761.0,0.001374
762.0,0.008037
763.0,0.003887
764.0,0.00586
765.0,0.00792
766.0,0.009999
767.0,0.01311
768.0,0.01569
769.0,0.01612
770.0,0.01679
771.0,0.01694
772.0,0.01692
773.0,0.01695
774.0,0.01678
775.0,0.01657
776.0,0.01669
777.0,0.01639
778.0,0.0162
779.0,0.01613
780.0,0.01597
781.0,0.01591
782.0,0.01595
783.0,0.01562
784.0,0.01564
785.0,0.01546
786.0,0.01556
787.0,0.01515
788.0,0.01486
789.0,0.01478
790.0,0.01423
791.0,0.01439
792.0,0.01424
793.0,0.01394
794.0,0.01422
795.0,0.01437
796.0,0.01372
797.0,0.01367
798.0,0.01415
799.0,0.01397
800.0,0.01363
801.0,0.01349
802.0,0.01339
803.0,0.01321
804.0,0.01318
805.0,0.01312
806.0,0.01349
807.0,0.01325
808.0,0.0132
809.0,0.01283
810.0,0.01263
811.0,0.01253
812.0,0.012
813.0,0.01165
814.0,0.009948
815.0,0.00985
816.0,0.009046
817.0,0.009187
818.0,0.008764
819.0,0.009965
820.0,0.00927
821.0,0.01114
822.0,0.01072
823.0,0.006796
824.0,0.01022
825.0,0.01077
826.0,0.01021
827.0,0.01086
828.0,0.00886
829.0,0.01005
830.0,0.00986
831.0,0.009857
832.0,0.009454
833.0,0.01019
834.0,0.009698
835.0,0.01083
836.0,0.01017
837.0,0.01077
838.0,0.01032
839.0,0.01052
840.0,0.01072
841.0,0.01048
842.0,0.01051
843.0,0.0105
844.0,0.01028
845.0,0.01062
846.0,0.01053
847.0,0.0103
848.0,0.01016
849.0,0.009825
850.0,0.009368
851.0,0.009842
852.0,0.009733
853.0,0.00934
854.0,0.008013
855.0,0.008791
856.0,0.00956
857.0,0.009753
858.0,0.009639
859.0,0.009618
860.0,0.009603
861.0,0.009513
862.0,0.009634
863.0,0.009828
864.0,0.009303
865.0,0.009188
866.0,0.00823
867.0,0.008555
868.0,0.009273
869.0,0.009046
870.0,0.009267
871.0,0.009104
872.0,0.009036
873.0,0.008981
874.0,0.008835
875.0,0.008617
876.0,0.008667
877.0,0.00872
878.0,0.008773
879.0,0.008602
880.0,0.008382
881.0,0.008211
882.0,0.00835
883.0,0.008352
884.0,0.008272
885.0,0.008295
886.0,0.007837
887.0,0.007915
888.0,0.007982
889.0,0.008067
890.0,0.007927
891.0,0.007901
892.0,0.007598
893.0,0.00728
894.0,0.006894
895.0,0.00637
896.0,0.005913
897.0,0.004921
898.0,0.005417
899.0,0.003941
900.0,0.005578
901.0,0.004131
902.0,0.004986
903.0,0.004967
904.0,0.006559
905.0,0.006264
906.0,0.00579
907.0,0.004472
908.0,0.004586
909.0,0.005032
910.0,0.004297
911.0,0.004659
912.0,0.004866
913.0,0.004305
914.0,0.00427
915.0,0.004631
916.0,0.003844
917.0,0.005041
918.0,0.003912
919.0,0.005127
920.0,0.005244
921.0,0.005459
922.0,0.004747
923.0,0.00524
924.0,0.00481
925.0,0.004682
926.0,0.00471
927.0,0.005354
928.0,0.003643
929.0,0.003257
930.0,0.002457
931.0,0.002309
932.0,0.001595
933.0,0.00127
934.0,0.0006671
935.0,0.001299
936.0,0.0007848
937.0,0.0007915
938.0,0.0009772
939.0,0.002159
940.0,0.00265
941.0,0.001922
942.0,0.002248
943.0,0.001418
944.0,0.001518
945.0,0.001957
946.0,0.0009383
947.0,0.00194
948.0,0.0014
949.0,0.002662
950.0,0.0006656
951.0,0.002604
952.0,0.001311
953.0,0.001731
954.0,0.002175
955.0,0.001746
956.0,0.001726
957.0,0.001286
958.0,0.002515
959.0,0.00191
960.0,0.002148
961.0,0.002461
962.0,0.002311
963.0,0.002722
964.0,0.002457
965.0,0.002686
966.0,0.002676
967.0,0.002644
968.0,0.003821
969.0,0.003956
970.0,0.003575
971.0,0.00423
972.0,0.003985
973.0,0.003321
974.0,0.003124
975.0,0.003262
976.0,0.003023
977.0,0.00358
978.0,0.003324
979.0,0.003508
980.0,0.003254
981.0,0.004047
982.0,0.003802
983.0,0.003605
984.0,0.004188
985.0,0.003741
986.0,0.004271
987.0,0.004132
988.0,0.004109
989.0,0.004234
990.0,0.004051
991.0,0.004199
992.0,0.004213
993.0,0.004066
994.0,0.004189
995.0,0.004176
996.0,0.004135
997.0,0.00413
998.0,0.004093
999.0,0.004066
1000.0,0.004012
1001.0,0.004059
1002.0,0.003886
1003.0,0.003954
1004.0,0.00383
1005.0,0.003692
1006.0,0.003813
1007.0,0.003883
1008.0,0.00384
1009.0,0.003796
1010.0,0.003761
1011.0,0.003807
1012.0,0.003751
1013.0,0.003772
1014.0,0.003732
1015.0,0.003692
1016.0,0.00366
1017.0,0.003653
1018.0,0.003631
1019.0,0.003522
1020.0,0.003581
1021.0,0.003565
1022.0,0.003518
1023.0,0.003541
1024.0,0.003465
1025.0,0.003518
1026.0,0.003485
1027.0,0.003465
1028.0,0.003444
1029.0,0.003389
1030.0,0.003405
1031.0,0.003376
1032.0,0.003355
1033.0,0.003292
1034.0,0.00328
1035.0,0.003278
1036.0,0.00328
1037.0,0.003215
1038.0,0.003217
1039.0,0.003203
1040.0,0.003177
1041.0,0.003176
1042.0,0.003142
1043.0,0.00312
1044.0,0.003118
1045.0,0.003063
1046.0,0.003017
1047.0,0.003031
1048.0,0.003036
1049.0,0.003013
1050.0,0.002987
1051.0,0.00297
1052.0,0.002946
1053.0,0.00291
1054.0,0.002905
1055.0,0.002893
1056.0,0.00287
1057.0,0.002848
1058.0,0.002766
1059.0,0.002757
1060.0,0.002742
1061.0,0.002727
1062.0,0.002729
1063.0,0.002691
1064.0,0.002714
1065.0,0.002679
1066.0,0.00262
1067.0,0.002643
1068.0,0.002572
1069.0,0.002486
1070.0,0.002558
1071.0,0.0026
1072.0,0.002551
1073.0,0.002508
1074.0,0.002578
1075.0,0.002407
1076.0,0.002555
1077.0,0.002481
1078.0,0.002417
1079.0,0.002493
1080.0,0.002414
1081.0,0.002315
1082.0,0.002371
1083.0,0.002377
1084.0,0.002275
1085.0,0.002381
1086.0,0.002115
1087.0,0.002212
1088.0,0.002327
1089.0,0.002215
1090.0,0.00214
1091.0,0.002285
1092.0,0.002277
1093.0,0.00184
1094.0,0.002058
1095.0,0.001912
1096.0,0.001802
1097.0,0.002187
1098.0,0.001752
1099.0,0.001832
1100.0,0.001665
1101.0,0.001692
1102.0,0.001591
1103.0,0.001557
1104.0,0.001556
1105.0,0.001744
1106.0,0.001232
1107.0,0.001625
1108.0,0.001312
1109.0,0.001315
1110.0,0.001581
1111.0,0.0009872
1112.0,0.001294
1113.0,0.000756
1114.0,0.0008473
1115.0,0.0006901
1116.0,0.0005289
1117.0,0.0001809
1118.0,0.000576
1119.0,0.0002704
1120.0,0.0003393
1121.0,0.0004557
1122.0,0.0001829
1123.0,0.0003031
1124.0,0.0002542
1125.0,0.0003342
1126.0,0.0001099
1127.0,0.0003756
1128.0,0.000216
1129.0,0.0002291
1130.0,0.0001485
1131.0,0.0007419
1132.0,0.0005687
1133.0,0.0003433
1134.0,8.305e-05
1135.0,3.108e-05
1136.0,0.0002794
1137.0,0.0007081
1138.0,0.0004878
1139.0,0.0007723
1140.0,0.0006233
1141.0,0.0004585
1142.0,0.0005333
1143.0,0.0007827
1144.0,0.0002509
1145.0,0.0003173
1146.0,0.0003413
1147.0,0.0001141
1148.0,0.000658
1149.0,0.00051
1150.0,0.0002668
1151.0,0.0004627
1152.0,0.000582
1153.0,0.0005732
1154.0,0.0002987
1155.0,0.0007644
1156.0,0.0006746
1157.0,0.0007772
1158.0,0.0007651
1159.0,0.000835
1160.0,0.0006994
1161.0,0.0008955
1162.0,0.0008924
1163.0,0.001285
1164.0,0.001065
1165.0,0.0009794
1166.0,0.0009838
1167.0,0.001084
1168.0,0.00109
1169.0,0.001121
1170.0,0.001238
1171.0,0.001199
1172.0,0.001231
1173.0,0.001223
1174.0,0.0008142
1175.0,0.001199
1176.0,0.001348
1177.0,0.001267
1178.0,0.0008984
1179.0,0.001346
1180.0,0.001157
1181.0,0.001195
1182.0,0.0007679
1183.0,0.001177
1184.0,0.001078
1185.0,0.001023
1186.0,0.001263
1187.0,0.001182
1188.0,0.0007629
1189.0,0.001088
1190.0,0.001219
1191.0,0.001125
1192.0,0.001232
1193.0,0.001164
1194.0,0.001205
1195.0,0.001116
1196.0,0.00106
1197.0,0.001205
1198.0,0.001085
1199.0,0.0008787
1200.0,0.001126
1201.0,0.001067
1202.0,0.001068
1203.0,0.001052
1204.0,0.0008929
1205.0,0.001094
1206.0,0.001233
1207.0,0.001046
1208.0,0.001039
1209.0,0.001058
1210.0,0.00111
1211.0,0.001038
1212.0,0.001003
1213.0,0.001155
1214.0,0.001029
1215.0,0.001003
1216.0,0.001143
1217.0,0.001101
1218.0,0.001126
1219.0,0.001103
1220.0,0.00112
1221.0,0.001134
1222.0,0.001095
1223.0,0.001078
1224.0,0.00106
1225.0,0.00111
1226.0,0.001121
1227.0,0.001008
1228.0,0.001123
1229.0,0.00111
1230.0,0.001083
1231.0,0.001125
1232.0,0.001114
1233.0,0.001054
1234.0,0.001117
1235.0,0.001103
1236.0,0.00111
1237.0,0.001085
1238.0,0.001099
1239.0,0.001082
1240.0,0.001083
1241.0,0.00107
1242.0,0.001068
1243.0,0.001056
1244.0,0.001059
1245.0,0.001061
1246.0,0.001051
1247.0,0.001042
1248.0,0.001036
1249.0,0.001038
1250.0,0.001027
1251.0,0.001008
1252.0,0.001008
1253.0,0.0009904
1254.0,0.0009725
1255.0,0.000996
1256.0,0.0009529
1257.0,0.0009423
1258.0,0.0009663
1259.0,0.0009106
1260.0,0.0009147
1261.0,0.0008402
1262.0,0.0008026
1263.0,0.0008013
1264.0,0.0007169
1265.0,0.0007918
1266.0,0.0007471
1267.0,0.0007665
1268.0,0.0007113
1269.0,0.0003886
1270.0,0.0007537
1271.0,0.0008162
1272.0,0.0008182
1273.0,0.0008048
1274.0,0.0008078
1275.0,0.0008205
1276.0,0.0008299
1277.0,0.0008378
1278.0,0.0008592
1279.0,0.0008487
1280.0,0.0008355
1281.0,0.0007987
1282.0,0.0007737
1283.0,0.0008293
1284.0,0.0008453
1285.0,0.0008493
1286.0,0.0008617
1287.0,0.0008391
1288.0,0.0008384
1289.0,0.0007967
1290.0,0.0008263
1291.0,0.0008375
1292.0,0.0007622
1293.0,0.0008106
1294.0,0.0008014
1295.0,0.0007882
1296.0,0.0007373
1297.0,0.0006859
1298.0,0.0007558
1299.0,0.0007984
1300.0,0.0006402
1301.0,0.0006633
1302.0,0.0007455
1303.0,0.0006279
1304.0,0.0005095
1305.0,0.0007205
1306.0,0.0007156
1307.0,0.0005221
1308.0,0.000622
1309.0,0.0006994
1310.0,0.000505
1311.0,0.0005846
1312.0,0.0005654
1313.0,0.0005459
1314.0,0.0004756
1315.0,0.0004659
1316.0,0.0005632
1317.0,0.000526
1318.0,0.0005824
1319.0,0.0004254
1320.0,0.0004125
1321.0,0.0004923
1322.0,0.0004924
1323.0,0.0003486
1324.0,0.0004113
1325.0,0.0005363
1326.0,0.0004443
1327.0,0.0004182
1328.0,0.0003509
1329.0,0.0002496
1330.0,0.0003336
1331.0,0.0001883
1332.0,0.0001957
1333.0,0.0002767
1334.0,0.0002375
1335.0,0.0003335
1336.0,0.0002542
1337.0,0.0002223
1338.0,0.0002401
1339.0,0.0002392
1340.0,0.0002337
1341.0,0.0002219
1342.0,0.0002337
1343.0,0.0001499
1344.0,8.906e-05
1345.0,0.0001284
1346.0,6.159e-05
1347.0,6.226e-05
1348.0,3.981e-06
1349.0,1.429e-05
1350.0,1.481e-05
