interpolation:linear
wavelength,value
280.0,1.585e-22
280.5,5.252e-21
281.0,2.824e-20
281.5,3.928e-19
282.0,5.769e-19
282.5,1.422e-18
283.0,4.492e-18
283.5,7.319e-18
284.0,1.21e-16
284.5,3.539e-16
285.0,5.887e-16
285.5,2.919e-15
286.0,1.177e-14
286.5,5.304e-14
287.0,1.524e-13
287.5,5.891e-13
288.0,2.093e-12
288.5,6.194e-12
289.0,1.629e-11
289.5,4.878e-11
290.0,1.349e-10
290.5,2.747e-10
291.0,5.891e-10
291.5,1.691e-09
292.0,3.394e-09
292.5,4.756e-09
293.0,1.019e-08
293.5,2.475e-08
294.0,3.869e-08
294.5,5.241e-08
295.0,8.874e-08
295.5,1.471e-07
296.0,2.833e-07
296.5,3.956e-07
297.0,5.341e-07
297.5,1.429e-06
298.0,2.244e-06
298.5,2.251e-06
299.0,4.944e-06
299.5,8.15e-06
300.0,8.913e-06
300.5,1.282e-05
301.0,2.291e-05
301.5,3.596e-05
302.0,3.047e-05
302.5,6.036e-05
303.0,0.0001105
303.5,0.000142
304.0,0.0001376
304.5,0.0002235
305.0,0.0003835
305.5,0.0004758
306.0,0.0004748
306.5,0.0006231
307.0,0.001042
307.5,0.001559
308.0,0.001676
308.5,0.002099
309.0,0.002356
309.5,0.003065
310.0,0.003263
310.5,0.005435
311.0,0.007148
311.5,0.007035
312.0,0.007796
312.5,0.01015
313.0,0.01139
313.5,0.01068
314.0,0.01448
314.5,0.01432
315.0,0.01916
315.5,0.01516
316.0,0.01446
316.5,0.0224
317.0,0.02772
317.5,0.02816
318.0,0.02313
318.5,0.03177
319.0,0.03965
319.5,0.02966
320.0,0.03532
320.5,0.04903
321.0,0.04798
321.5,0.04636
322.0,0.04447
322.5,0.03882
323.0,0.04127
323.5,0.05413
324.0,0.06374
324.5,0.06286
325.0,0.05214
325.5,0.07072
326.0,0.08795
326.5,0.09111
327.0,0.08942
327.5,0.08477
328.0,0.07191
328.5,0.0798
329.0,0.09992
329.5,0.1149
330.0,0.1143
330.5,0.08803
331.0,0.08843
331.5,0.09212
332.0,0.1033
332.5,0.1039
333.0,0.1023
333.5,0.08972
334.0,0.09128
334.5,0.1087
335.0,0.104
335.5,0.1224
336.0,0.08456
336.5,0.09687
337.0,0.07817
337.5,0.09652
338.0,0.09675
338.5,0.1128
339.0,0.1115
339.5,0.107
340.0,0.1241
340.5,0.112
341.0,0.1099
341.5,0.1008
342.0,0.1203
342.5,0.1124
343.0,0.1232
343.5,0.1158
344.0,0.08474
344.5,0.08608
345.0,0.1137
345.5,0.1159
346.0,0.09837
346.5,0.1112
347.0,0.119
347.5,0.09602
348.0,0.1093
348.5,0.1091
349.0,0.1011
349.5,0.09985
350.0,0.1233
350.5,0.1297
351.0,0.1156
351.5,0.112
352.0,0.1201
352.5,0.09355
353.0,0.1176
353.5,0.1256
354.0,0.1301
354.5,0.1317
355.0,0.1309
355.5,0.118
356.0,0.1233
356.5,0.105
357.0,0.08657
357.5,0.1058
358.0,0.08364
358.5,0.07132
359.0,0.09951
359.5,0.1264
360.0,0.1338
360.5,0.1067
361.0,0.09707
361.5,0.1115
362.0,0.09626
362.5,0.1329
363.0,0.1191
363.5,0.1095
364.0,0.1336
364.5,0.1139
365.0,0.1157
365.5,0.1449
366.0,0.1532
366.5,0.1436
367.0,0.1396
367.5,0.1445
368.0,0.1262
368.5,0.127
369.0,0.1368
369.5,0.1455
370.0,0.1548
370.5,0.1198
371.0,0.1277
371.5,0.1594
372.0,0.1056
372.5,0.1263
373.0,0.1281
373.5,0.08318
374.0,0.1206
374.5,0.09961
375.0,0.0966
375.5,0.1439
376.0,0.119
376.5,0.123
377.0,0.1299
377.5,0.1516
378.0,0.1639
378.5,0.1545
379.0,0.1272
379.5,0.1159
380.0,0.1202
380.5,0.1452
381.0,0.1451
381.5,0.1147
382.0,0.1016
382.5,0.08641
383.0,0.07979
383.5,0.07666
384.0,0.08435
384.5,0.1238
385.0,0.1224
385.5,0.1137
386.0,0.09714
386.5,0.1273
387.0,0.1055
387.5,0.1182
388.0,0.1088
388.5,0.1073
389.0,0.1155
389.5,0.1395
390.0,0.1396
390.5,0.1282
391.0,0.1505
391.5,0.1531
392.0,0.1286
392.5,0.1148
393.0,0.0637
393.5,0.04619
394.0,0.09373
394.5,0.1189
395.0,0.1447
395.5,0.1465
396.0,0.1267
396.5,0.07388
397.0,0.05529
397.5,0.1121
398.0,0.1566
398.5,0.1614
399.0,0.1744
399.5,0.1733
400.0,0.1795
401.0,0.1765
402.0,0.1851
403.0,0.1749
404.0,0.1712
405.0,0.1703
406.0,0.1665
407.0,0.1629
408.0,0.1682
409.0,0.179
410.0,0.1555
411.0,0.1675
412.0,0.1789
413.0,0.1735
414.0,0.1746
415.0,0.1741
416.0,0.176
417.0,0.1706
418.0,0.1665
419.0,0.1677
420.0,0.1659
421.0,0.1725
422.0,0.1629
423.0,0.1581
424.0,0.1661
425.0,0.1647
426.0,0.1595
427.0,0.1557
428.0,0.1508
429.0,0.142
430.0,0.1235
431.0,0.1216
432.0,0.156
433.0,0.1558
434.0,0.1438
435.0,0.1493
436.0,0.1672
437.0,0.164
438.0,0.1484
439.0,0.1524
440.0,0.1561
441.0,0.1606
442.0,0.1711
443.0,0.1655
444.0,0.1682
445.0,0.1636
446.0,0.1553
447.0,0.1669
448.0,0.1683
449.0,0.1678
450.0,0.1713
451.0,0.1764
452.0,0.1689
453.0,0.1579
454.0,0.1639
455.0,0.1637
456.0,0.1664
457.0,0.1678
458.0,0.1608
459.0,0.1586
460.0,0.1578
461.0,0.1602
462.0,0.1604
463.0,0.1585
464.0,0.1552
465.0,0.1525
466.0,0.1531
467.0,0.1492
468.0,0.1498
469.0,0.1494
470.0,0.1436
471.0,0.1426
472.0,0.1493
473.0,0.1464
474.0,0.1456
475.0,0.1457
476.0,0.1401
477.0,0.1392
478.0,0.1418
479.0,0.1396
480.0,0.1386
481.0,0.1399
482.0,0.1396
483.0,0.1371
484.0,0.1335
485.0,0.1267
486.0,0.1102
487.0,0.1149
488.0,0.1252
489.0,0.1246
490.0,0.1301
491.0,0.1269
492.0,0.119
493.0,0.1221
494.0,0.1225
495.0,0.1227
496.0,0.1225
497.0,0.1233
498.0,0.1164
499.0,0.1167
500.0,0.1121
501.0,0.1089
502.0,0.1062
503.0,0.1094
504.0,0.1055
505.0,0.1085
506.0,0.1112
507.0,0.1052
508.0,0.1014
509.0,0.1037
510.0,0.1026
511.0,0.1047
512.0,0.1051
513.0,0.09871
514.0,0.09727
515.0,0.09554
516.0,0.09458
517.0,0.08341
518.0,0.08705
519.0,0.09061
520.0,0.09315
521.0,0.09324
522.0,0.09252
523.0,0.09013
524.0,0.09248
525.0,0.09267
526.0,0.08769
527.0,0.08178
528.0,0.08563
529.0,0.08944
530.0,0.08739
531.0,0.08793
532.0,0.08423
533.0,0.08117
534.0,0.08302
535.0,0.08432
536.0,0.08458
537.0,0.08074
538.0,0.08161
539.0,0.08037
540.0,0.0765
541.0,0.07637
542.0,0.07808
543.0,0.07665
544.0,0.07739
545.0,0.07663
546.0,0.07637
547.0,0.07579
548.0,0.07436
549.0,0.07408
550.0,0.07444
551.0,0.07301
552.0,0.07298
553.0,0.07115
554.0,0.07231
555.0,0.0719
556.0,0.07039
557.0,0.06763
558.0,0.06651
559.0,0.06465
560.0,0.06486
561.0,0.0651
562.0,0.06402
563.0,0.06517
564.0,0.06287
565.0,0.06183
566.0,0.06043
567.0,0.06106
568.0,0.05999
569.0,0.05801
570.0,0.05758
571.0,0.05683
572.0,0.05767
573.0,0.05789
574.0,0.05734
575.0,0.05593
576.0,0.05511
577.0,0.05544
578.0,0.05437
579.0,0.05438
580.0,0.05524
581.0,0.05532
582.0,0.05614
583.0,0.05606
584.0,0.05631
585.0,0.05466
586.0,0.05322
587.0,0.05402
588.0,0.05226
589.0,0.04575
590.0,0.04757
591.0,0.05017
592.0,0.04908
593.0,0.04953
594.0,0.04873
595.0,0.04706
596.0,0.04874
597.0,0.04779
598.0,0.04733
599.0,0.04702
600.0,0.0468
601.0,0.04615
602.0,0.04557
603.0,0.04608
604.0,0.04661
605.0,0.04617
606.0,0.04581
607.0,0.04612
608.0,0.04546
609.0,0.0454
610.0,0.04495
611.0,0.04505
612.0,0.04479
613.0,0.04408
614.0,0.04334
615.0,0.04415
616.0,0.04255
617.0,0.04232
618.0,0.0438
619.0,0.04319
620.0,0.04328
621.0,0.04312
622.0,0.04241
623.0,0.04156
624.0,0.04067
625.0,0.04042
626.0,0.04085
627.0,0.04109
628.0,0.03765
629.0,0.03957
630.0,0.03848
631.0,0.03937
632.0,0.03878
633.0,0.0399
634.0,0.03943
635.0,0.03991
636.0,0.03927
637.0,0.03979
638.0,0.04007
639.0,0.03949
640.0,0.03899
641.0,0.03883
642.0,0.03854
643.0,0.03893
644.0,0.03868
645.0,0.03857
646.0,0.03744
647.0,0.0367
648.0,0.03656
649.0,0.03569
650.0,0.03591
651.0,0.03734
652.0,0.03542
653.0,0.03654
654.0,0.036
655.0,0.03441
656.0,0.03044
657.0,0.03115
658.0,0.03484
659.0,0.03497
660.0,0.03498
661.0,0.03508
662.0,0.03498
663.0,0.03417
664.0,0.03449
665.0,0.03441
666.0,0.03432
667.0,0.03418
668.0,0.03409
669.0,0.03448
670.0,0.03419
671.0,0.03406
672.0,0.03367
673.0,0.03407
674.0,0.03381
675.0,0.03337
676.0,0.03346
677.0,0.03302
678.0,0.03299
679.0,0.03233
680.0,0.03246
681.0,0.0321
682.0,0.03192
683.0,0.03172
684.0,0.03141
685.0,0.03154
686.0,0.03121
687.0,0.01891
688.0,0.02273
689.0,0.02273
690.0,0.02401
691.0,0.0255
692.0,0.02661
693.0,0.02626
694.0,0.02593
695.0,0.02714
696.0,0.02706
697.0,0.02896
698.0,0.02838
699.0,0.02736
700.0,0.0269
701.0,0.02645
702.0,0.02661
703.0,0.02655
704.0,0.0274
705.0,0.02731
706.0,0.02721
707.0,0.02713
708.0,0.02706
709.0,0.02705
710.0,0.02688
711.0,0.02677
712.0,0.02663
713.0,0.0262
714.0,0.02617
715.0,0.02513
716.0,0.02502
717.0,0.0209
718.0,0.01898
719.0,0.01718
720.0,0.01793
721.0,0.02009
722.0,0.02343
723.0,0.02143
724.0,0.01891
725.0,0.01847
726.0,0.01933
727.0,0.01962
728.0,0.01817
729.0,0.01898
730.0,0.02002
731.0,0.01899
732.0,0.02048
733.0,0.02183
734.0,0.02231
735.0,0.02171
736.0,0.02158
737.0,0.02156
738.0,0.02197
739.0,0.02142
740.0,0.02193
741.0,0.02164
742.0,0.02159
743.0,0.02203
744.0,0.02187
745.0,0.02178
746.0,0.02177
747.0,0.02172
748.0,0.02157
749.0,0.02122
750.0,0.02112
751.0,0.02083
752.0,0.02084
753.0,0.02085
754.0,0.02081
755.0,0.0206
756.0,0.02051
757.0,0.02045
758.0,0.0201
759.0,0.01949
760.0,0.002692
761.0,0.001416
762.0,0.008595
763.0,0.004072
764.0,0.006212
765.0,0.008467
766.0,0.01074
767.0,0.01406
768.0,0.01676
769.0,0.01719
770.0,0.01787
771.0,0.01802
772.0,0.01799
773.0,0.01803
774.0,0.01785
775.0,0.01762
776.0,0.01775
777.0,0.01743
778.0,0.01723
779.0,0.01715
780.0,0.01698
781.0,0.01692
782.0,0.01696
783.0,0.0166
784.0,0.01662
785.0,0.01642
786.0,0.01653
787.0,0.0161
788.0,0.0158
789.0,0.01572
790.0,0.01513
791.0,0.01529
792.0,0.01513
793.0,0.0148
794.0,0.01509
795.0,0.01526
796.0,0.01458
797.0,0.01453
798.0,0.01503
799.0,0.01484
800.0,0.01448
801.0,0.01433
802.0,0.01423
803.0,0.01404
804.0,0.01401
805.0,0.01393
806.0,0.01432
807.0,0.01406
808.0,0.01401
809.0,0.01363
810.0,0.01342
811.0,0.01332
812.0,0.01278
813.0,0.0124
814.0,0.0106
815.0,0.01049
816.0,0.009628
817.0,0.009784
818.0,0.009335
819.0,0.01061
820.0,0.009868
821.0,0.01185
822.0,0.0114
823.0,0.007223
824.0,0.01088
825.0,0.01144
826.0,0.01085
827.0,0.01153
828.0,0.009422
829.0,0.01067
830.0,0.01047
831.0,0.01046
832.0,0.01004
833.0,0.01082
834.0,0.0103
835.0,0.01148
836.0,0.0108
837.0,0.01142
838.0,0.01095
839.0,0.01115
840.0,0.01136
841.0,0.01112
842.0,0.01114
843.0,0.01113
844.0,0.0109
845.0,0.01125
846.0,0.01115
847.0,0.01091
848.0,0.01077
849.0,0.01041
850.0,0.009929
851.0,0.01044
852.0,0.01032
853.0,0.009901
854.0,0.008497
855.0,0.009317
856.0,0.01013
857.0,0.01033
858.0,0.01021
859.0,0.01019
860.0,0.01017
861.0,0.01007
862.0,0.0102
863.0,0.0104
864.0,0.009848
865.0,0.009725
866.0,0.00871
867.0,0.009053
868.0,0.009813
869.0,0.009571
870.0,0.009805
871.0,0.009631
872.0,0.009559
873.0,0.0095
874.0,0.009346
875.0,0.009115
876.0,0.009169
877.0,0.009223
878.0,0.00928
879.0,0.0091
880.0,0.008867
881.0,0.008688
882.0,0.008837
883.0,0.008837
884.0,0.008753
885.0,0.008778
886.0,0.008299
887.0,0.008378
888.0,0.00845
889.0,0.008537
890.0,0.008394
891.0,0.008364
892.0,0.008049
893.0,0.007715
894.0,0.007317
895.0,0.006771
896.0,0.00628
897.0,0.005226
898.0,0.00576
899.0,0.00418
900.0,0.005927
901.0,0.004389
902.0,0.005302
903.0,0.005284
904.0,0.006964
905.0,0.006649
906.0,0.006147
907.0,0.004752
908.0,0.004869
909.0,0.005349
910.0,0.004565
911.0,0.004941
912.0,0.005171
913.0,0.004574
914.0,0.004533
915.0,0.004929
916.0,0.004078
917.0,0.005363
918.0,0.004155
919.0,0.00545
920.0,0.005559
921.0,0.005799
922.0,0.005041
923.0,0.005564
924.0,0.005118
925.0,0.004978
926.0,0.005014
927.0,0.005702
928.0,0.003878
929.0,0.003465
930.0,0.002607
931.0,0.002451
932.0,0.001682
933.0,0.001333
934.0,0.0006909
935.0,0.001366
936.0,0.0008175
937.0,0.0008244
938.0,0.001022
939.0,0.002292
940.0,0.002822
941.0,0.002038
942.0,0.002392
943.0,0.001496
944.0,0.001603
945.0,0.002076
946.0,0.0009822
947.0,0.002057
948.0,0.001475
949.0,0.002837
950.0,0.0006917
951.0,0.002776
952.0,0.001379
953.0,0.001831
954.0,0.002312
955.0,0.001849
956.0,0.001818
957.0,0.001353
958.0,0.002671
959.0,0.002022
960.0,0.002279
961.0,0.002614
962.0,0.002452
963.0,0.002892
964.0,0.002607
965.0,0.002857
966.0,0.002844
967.0,0.00281
968.0,0.004053
969.0,0.00421
970.0,0.003797
971.0,0.004488
972.0,0.004231
973.0,0.003532
974.0,0.003318
975.0,0.003465
976.0,0.003217
977.0,0.003797
978.0,0.003531
979.0,0.003729
980.0,0.003454
981.0,0.004294
982.0,0.004037
983.0,0.003828
984.0,0.004438
985.0,0.003975
986.0,0.004521
987.0,0.004375
988.0,0.00435
989.0,0.004478
990.0,0.004291
991.0,0.004443
992.0,0.004458
993.0,0.004304
994.0,0.00443
995.0,0.004415
996.0,0.004373
997.0,0.004367
998.0,0.004328
999.0,0.004299
1000.0,0.004243
1001.0,0.004291
1002.0,0.004115
1003.0,0.004181
1004.0,0.004051
1005.0,0.003903
1006.0,0.004031
1007.0,0.004105
1008.0,0.00406
1009.0,0.004015
1010.0,0.003979
1011.0,0.004024
1012.0,0.003966
1013.0,0.003987
1014.0,0.003944
1015.0,0.003902
1016.0,0.003869
1017.0,0.003862
1018.0,0.003837
1019.0,0.003725
1020.0,0.003785
1021.0,0.003768
1022.0,0.003718
1023.0,0.003743
1024.0,0.003666
1025.0,0.003719
1026.0,0.003684
1027.0,0.003662
1028.0,0.00364
1029.0,0.003583
1030.0,0.003599
1031.0,0.003569
1032.0,0.003546
1033.0,0.003479
1034.0,0.003467
1035.0,0.003464
1036.0,0.003467
1037.0,0.003398
1038.0,0.0034
1039.0,0.003385
1040.0,0.003359
1041.0,0.003358
1042.0,0.003322
1043.0,0.003299
1044.0,0.003297
1045.0,0.003239
1046.0,0.00319
1047.0,0.003206
1048.0,0.003211
1049.0,0.003187
1050.0,0.00316
1051.0,0.003142
1052.0,0.003116
1053.0,0.003079
1054.0,0.003073
1055.0,0.003062
1056.0,0.003037
1057.0,0.003015
1058.0,0.002929
1059.0,0.002919
1060.0,0.002903
1061.0,0.002888
1062.0,0.00289
1063.0,0.00285
1064.0,0.002874
1065.0,0.002838
1066.0,0.002775
1067.0,0.0028
1068.0,0.002725
1069.0,0.002634
1070.0,0.002709
1071.0,0.002753
1072.0,0.002702
1073.0,0.002656
1074.0,0.002728
1075.0,0.00255
1076.0,0.002704
1077.0,0.002628
1078.0,0.002561
1079.0,0.002637
1080.0,0.002556
1081.0,0.002454
1082.0,0.002511
1083.0,0.002516
1084.0,0.002412
1085.0,0.002522
1086.0,0.002242
1087.0,0.002344
1088.0,0.002462
1089.0,0.002348
1090.0,0.002268
1091.0,0.002419
1092.0,0.00241
1093.0,0.001953
1094.0,0.00218
1095.0,0.002032
1096.0,0.001915
1097.0,0.002315
1098.0,0.001864
1099.0,0.001948
1100.0,0.001771
1101.0,0.001798
1102.0,0.001693
1103.0,0.001657
1104.0,0.001655
1105.0,0.001856
1106.0,0.001312
1107.0,0.001728
1108.0,0.001396
1109.0,0.0014
1110.0,0.001684
1111.0,0.00105
1112.0,0.001377
1113.0,0.0008004
1114.0,0.0008997
1115.0,0.0007307
1116.0,0.0005572
1117.0,0.0001865
1118.0,0.0006085
1119.0,0.0002814
1120.0,0.0003542
1121.0,0.0004788
1122.0,0.0001887
1123.0,0.000316
1124.0,0.0002643
1125.0,0.0003493
1126.0,0.0001126
1127.0,0.0003934
1128.0,0.0002234
1129.0,0.0002373
1130.0,0.0001528
1131.0,0.0007891
1132.0,0.0006016
1133.0,0.0003588
1134.0,8.489e-05
1135.0,3.165e-05
1136.0,0.0002906
1137.0,0.0007523
1138.0,0.0005149
1139.0,0.0008224
1140.0,0.0006614
1141.0,0.0004834
1142.0,0.0005642
1143.0,0.0008339
1144.0,0.0002614
1145.0,0.0003315
1146.0,0.000357
1147.0,0.0001169
1148.0,0.0006995
1149.0,0.0005392
1150.0,0.0002783
1151.0,0.0004882
1152.0,0.0006174
1153.0,0.0006077
1154.0,0.0003116
1155.0,0.0008147
1156.0,0.0007175
1157.0,0.0008264
1158.0,0.0008135
1159.0,0.0008904
1160.0,0.0007416
1161.0,0.0009524
1162.0,0.0009492
1163.0,0.001368
1164.0,0.001133
1165.0,0.001042
1166.0,0.001045
1167.0,0.001152
1168.0,0.001158
1169.0,0.001192
1170.0,0.001316
1171.0,0.001274
1172.0,0.001306
1173.0,0.001299
1174.0,0.0008631
1175.0,0.001271
1176.0,0.001427
1177.0,0.001344
1178.0,0.0009512
1179.0,0.001425
1180.0,0.001227
1181.0,0.001269
1182.0,0.0008138
1183.0,0.001249
1184.0,0.001144
1185.0,0.001086
1186.0,0.001339
1187.0,0.001254
1188.0,0.0008106
1189.0,0.001155
1190.0,0.001292
1191.0,0.001195
1192.0,0.001305
1193.0,0.001234
1194.0,0.001277
1195.0,0.001185
1196.0,0.001126
1197.0,0.001277
1198.0,0.001148
1199.0,0.0009331
1200.0,0.001194
1201.0,0.001133
1202.0,0.001131
1203.0,0.001118
1204.0,0.000947
1205.0,0.001158
1206.0,0.001305
1207.0,0.001109
1208.0,0.0011
1209.0,0.001121
1210.0,0.001175
1211.0,0.0011
1212.0,0.001066
1213.0,0.001225
1214.0,0.001093
1215.0,0.001065
1216.0,0.001211
1217.0,0.001167
1218.0,0.001192
1219.0,0.00117
1220.0,0.001187
1221.0,0.0012
1222.0,0.001159
1223.0,0.001142
1224.0,0.001125
1225.0,0.001176
1226.0,0.001186
1227.0,0.001069
1228.0,0.001188
1229.0,0.001175
1230.0,0.001147
1231.0,0.001189
1232.0,0.001177
1233.0,0.001117
1234.0,0.00118
1235.0,0.001166
1236.0,0.001173
1237.0,0.001146
1238.0,0.001161
1239.0,0.001143
1240.0,0.001144
1241.0,0.001131
1242.0,0.001128
1243.0,0.001115
1244.0,0.001118
1245.0,0.00112
1246.0,0.00111
1247.0,0.001101
1248.0,0.001095
1249.0,0.001097
1250.0,0.001085
1251.0,0.001065
1252.0,0.001065
1253.0,0.001048
1254.0,0.00103
1255.0,0.001053
1256.0,0.001009
1257.0,0.0009985
1258.0,0.001022
1259.0,0.0009664
1260.0,0.0009704
1261.0,0.0008946
1262.0,0.000856
1263.0,0.0008547
1264.0,0.000767
1265.0,0.0008446
1266.0,0.0007985
1267.0,0.0008181
1268.0,0.0007607
1269.0,0.0004146
1270.0,0.0008051
1271.0,0.0008688
1272.0,0.0008708
1273.0,0.0008569
1274.0,0.0008596
1275.0,0.0008726
1276.0,0.0008819
1277.0,0.0008891
1278.0,0.0009108
1279.0,0.0008993
1280.0,0.0008855
1281.0,0.0008458
1282.0,0.0008182
1283.0,0.0008773
1284.0,0.0008943
1285.0,0.0008983
1286.0,0.0009109
1287.0,0.000888
1288.0,0.0008867
1289.0,0.0008447
1290.0,0.000874
1291.0,0.0008853
1292.0,0.0008087
1293.0,0.0008575
1294.0,0.0008478
1295.0,0.0008355
1296.0,0.0007828
1297.0,0.0007287
1298.0,0.0008012
1299.0,0.0008444
1300.0,0.0006794
1301.0,0.0007042
1302.0,0.0007899
1303.0,0.0006663
1304.0,0.0005417
1305.0,0.0007635
1306.0,0.0007592
1307.0,0.0005546
1308.0,0.0006596
1309.0,0.000743
1310.0,0.0005368
1311.0,0.0006203
1312.0,0.0005998
1313.0,0.0005804
1314.0,0.0005058
1315.0,0.0004958
1316.0,0.0005982
1317.0,0.0005588
1318.0,0.0006182
1319.0,0.0004522
1320.0,0.0004383
1321.0,0.0005233
1322.0,0.0005242
1323.0,0.0003707
1324.0,0.0004369
1325.0,0.0005705
1326.0,0.0004724
1327.0,0.0004447
1328.0,0.0003729
1329.0,0.0002645
1330.0,0.0003548
1331.0,0.0001984
1332.0,0.0002066
1333.0,0.000294
1334.0,0.0002508
1335.0,0.0003552
1336.0,0.0002698
1337.0,0.0002349
1338.0,0.0002542
1339.0,0.0002534
1340.0,0.0002474
1341.0,0.000235
1342.0,0.0002476
1343.0,0.0001569
1344.0,9.255e-05
1345.0,0.0001343
1346.0,6.326e-05
1347.0,6.386e-05
1348.0,4.023e-06
1349.0,1.447e-05
1350.0,1.501e-05
1351.0,3.613e-06
1352.0,9.711e-07
1353.0,4.942e-08
1354.0,1.698e-07
1355.0,1.368e-09
