interpolation:linear
wavelength,value
280.0,1.4340000000000001e-21
280.5,4.582e-20
281.0,2.432e-19
281.5,4.881e-19
282.0,9.975e-19
282.5,2.509e-18
283.0,7.945e-18
283.5,1.292e-17
284.0,2.09e-16
284.5,6.04e-16
285.0,1.25e-15
285.5,5.998e-15
286.0,2.394e-14
286.5,1.056e-13
287.0,2.992e-13
287.5,1.136e-12
288.0,3.354e-12
288.5,1.065e-11
289.0,2.925e-11
289.5,9.023e-11
290.0,2.535e-10
290.5,5.21e-10
291.0,1.126e-09
291.5,3.249e-09
292.0,6.595e-09
292.5,9.64e-09
293.0,2.172e-08
293.5,5.626e-08
294.0,9.163e-08
294.5,1.189e-07
295.0,2.078e-07
295.5,4.917e-07
296.0,8.965e-07
296.5,1.283e-06
297.0,1.775e-06
297.5,4.957e-06
298.0,8.142e-06
298.5,8.497e-06
299.0,1.952e-05
299.5,3.541e-05
300.0,4.13e-05
300.5,6.412e-05
301.0,0.0001331
301.5,0.0002489
302.0,0.0002352
302.5,0.0004609
303.0,0.0008319
303.5,0.001054
304.0,0.001003
304.5,0.001553
305.0,0.002488
305.5,0.002951
306.0,0.00289
306.5,0.003678
307.0,0.005752
307.5,0.008053
308.0,0.008556
308.5,0.01035
309.0,0.0105
309.5,0.01218
310.0,0.0123
310.5,0.01995
311.0,0.02515
311.5,0.02428
312.0,0.02464
312.5,0.03027
313.0,0.03295
313.5,0.03169
314.0,0.04014
314.5,0.03631
315.0,0.04777
315.5,0.03936
316.0,0.03495
316.5,0.05094
317.0,0.06302
317.5,0.06502
318.0,0.05121
318.5,0.06504
319.0,0.07799
319.5,0.06199
320.0,0.07441
320.5,0.09542
321.0,0.08696
321.5,0.08333
322.0,0.08603
322.5,0.07469
323.0,0.07553
323.5,0.09433
324.0,0.11
324.5,0.1106
325.0,0.0941
325.5,0.1225
326.0,0.1501
326.5,0.1512
327.0,0.1497
327.5,0.1435
328.0,0.126
328.5,0.1337
329.0,0.1616
329.5,0.1837
330.0,0.184
330.5,0.1453
331.0,0.1471
331.5,0.1501
332.0,0.1635
332.5,0.1621
333.0,0.1605
333.5,0.1435
334.0,0.1464
334.5,0.17
335.0,0.1603
335.5,0.1889
336.0,0.1303
336.5,0.1497
337.0,0.1218
337.5,0.1508
338.0,0.148
338.5,0.1722
339.0,0.1694
339.5,0.1627
340.0,0.1888
340.5,0.1698
341.0,0.1662
341.5,0.1514
342.0,0.1802
342.5,0.1678
343.0,0.1844
343.5,0.1734
344.0,0.1271
344.5,0.1292
345.0,0.1693
345.5,0.1719
346.0,0.1454
346.5,0.164
347.0,0.1758
347.5,0.1418
348.0,0.1607
348.5,0.1599
349.0,0.1478
349.5,0.1459
350.0,0.1798
350.5,0.189
351.0,0.1684
351.5,0.1636
352.0,0.1748
352.5,0.1357
353.0,0.1703
353.5,0.1814
354.0,0.1876
354.5,0.1896
355.0,0.1883
355.5,0.1695
356.0,0.1767
356.5,0.1504
357.0,0.1238
357.5,0.1511
358.0,0.1193
358.5,0.1016
359.0,0.1416
359.5,0.1799
360.0,0.19
360.5,0.1513
361.0,0.1374
361.5,0.1577
362.0,0.1359
362.5,0.1874
363.0,0.1678
363.5,0.154
364.0,0.1877
364.5,0.1599
365.0,0.1622
365.5,0.2029
366.0,0.2142
366.5,0.2006
367.0,0.1947
367.5,0.2013
368.0,0.1755
368.5,0.1765
369.0,0.19
369.5,0.2018
370.0,0.2143
370.5,0.1658
371.0,0.1765
371.5,0.22
372.0,0.1455
372.5,0.1739
373.0,0.1763
373.5,0.1143
374.0,0.1655
374.5,0.1366
375.0,0.1323
375.5,0.1968
376.0,0.1625
376.5,0.1679
377.0,0.1771
377.5,0.2065
378.0,0.223
378.5,0.21
379.0,0.1726
379.5,0.1571
380.0,0.1627
380.5,0.1963
381.0,0.196
381.5,0.1548
382.0,0.137
382.5,0.1163
383.0,0.1073
383.5,0.103
384.0,0.1132
384.5,0.1659
385.0,0.1639
385.5,0.1521
386.0,0.1298
386.5,0.1699
387.0,0.1406
387.5,0.1574
388.0,0.1447
388.5,0.1426
389.0,0.1533
389.5,0.185
390.0,0.185
390.5,0.1696
391.0,0.1989
391.5,0.2021
392.0,0.1696
392.5,0.1513
393.0,0.08387
393.5,0.06075
394.0,0.1232
394.5,0.156
395.0,0.1897
395.5,0.192
396.0,0.1659
396.5,0.0966
397.0,0.07222
397.5,0.1463
398.0,0.2042
398.5,0.2103
399.0,0.2269
399.5,0.2253
400.0,0.2331
401.0,0.229
402.0,0.2398
403.0,0.2261
404.0,0.2209
405.0,0.2193
406.0,0.2141
407.0,0.209
408.0,0.2155
409.0,0.229
410.0,0.1987
411.0,0.2137
412.0,0.2278
413.0,0.2206
414.0,0.2216
415.0,0.2205
416.0,0.2227
417.0,0.2155
418.0,0.2099
419.0,0.2111
420.0,0.2086
421.0,0.2165
422.0,0.2042
423.0,0.1979
424.0,0.2076
425.0,0.2056
426.0,0.1989
427.0,0.1937
428.0,0.1874
429.0,0.1762
430.0,0.1531
431.0,0.1505
432.0,0.1928
433.0,0.1924
434.0,0.1773
435.0,0.1838
436.0,0.2056
437.0,0.2014
438.0,0.1821
439.0,0.1868
440.0,0.1913
441.0,0.1966
442.0,0.2092
443.0,0.2022
444.0,0.2052
445.0,0.1993
446.0,0.1889
447.0,0.2027
448.0,0.2042
449.0,0.2034
450.0,0.2074
451.0,0.2135
452.0,0.2041
453.0,0.1906
454.0,0.1976
455.0,0.1972
456.0,0.2003
457.0,0.202
458.0,0.1935
459.0,0.1909
460.0,0.1898
461.0,0.1926
462.0,0.1927
463.0,0.1902
464.0,0.1859
465.0,0.1824
466.0,0.1828
467.0,0.1781
468.0,0.1787
469.0,0.1781
470.0,0.1711
471.0,0.1697
472.0,0.1776
473.0,0.174
474.0,0.1729
475.0,0.173
476.0,0.1664
477.0,0.1654
478.0,0.1685
479.0,0.1659
480.0,0.1648
481.0,0.1663
482.0,0.1659
483.0,0.1628
484.0,0.1583
485.0,0.1499
486.0,0.1302
487.0,0.1355
488.0,0.1475
489.0,0.1468
490.0,0.1532
491.0,0.1494
492.0,0.14
493.0,0.1435
494.0,0.1439
495.0,0.1441
496.0,0.1439
497.0,0.1449
498.0,0.137
499.0,0.1375
500.0,0.1322
501.0,0.1286
502.0,0.1256
503.0,0.1295
504.0,0.125
505.0,0.1286
506.0,0.1318
507.0,0.1245
508.0,0.1199
509.0,0.1225
510.0,0.1211
511.0,0.1235
512.0,0.1239
513.0,0.1164
514.0,0.1147
515.0,0.1127
516.0,0.1116
517.0,0.09847
518.0,0.1028
519.0,0.107
520.0,0.11
521.0,0.1102
522.0,0.1094
523.0,0.1066
524.0,0.1096
525.0,0.1099
526.0,0.1042
527.0,0.09727
528.0,0.102
529.0,0.1066
530.0,0.1043
531.0,0.105
532.0,0.1007
533.0,0.09705
534.0,0.09924
535.0,0.1008
536.0,0.101
537.0,0.09639
538.0,0.09741
539.0,0.09596
540.0,0.09138
541.0,0.09128
542.0,0.09339
543.0,0.09172
544.0,0.09269
545.0,0.09183
546.0,0.09156
547.0,0.09087
548.0,0.08916
549.0,0.08883
550.0,0.08927
551.0,0.08757
552.0,0.08756
553.0,0.08538
554.0,0.08681
555.0,0.08637
556.0,0.0846
557.0,0.08134
558.0,0.08007
559.0,0.07793
560.0,0.07827
561.0,0.07864
562.0,0.07744
563.0,0.07893
564.0,0.07621
565.0,0.075
566.0,0.07335
567.0,0.07418
568.0,0.07295
569.0,0.07063
570.0,0.07014
571.0,0.06924
572.0,0.07034
573.0,0.07063
574.0,0.06998
575.0,0.06825
576.0,0.06722
577.0,0.06757
578.0,0.06621
579.0,0.06615
580.0,0.06709
581.0,0.0671
582.0,0.06801
583.0,0.06785
584.0,0.06811
585.0,0.06609
586.0,0.06431
587.0,0.06526
588.0,0.0632
589.0,0.05546
590.0,0.05767
591.0,0.06076
592.0,0.05952
593.0,0.06005
594.0,0.05916
595.0,0.05723
596.0,0.05924
597.0,0.05816
598.0,0.05763
599.0,0.05728
600.0,0.05703
601.0,0.05624
602.0,0.05553
603.0,0.05612
604.0,0.05673
605.0,0.05615
606.0,0.05566
607.0,0.05596
608.0,0.05508
609.0,0.05492
610.0,0.0543
611.0,0.05434
612.0,0.05395
613.0,0.05302
614.0,0.05206
615.0,0.05296
616.0,0.05099
617.0,0.05065
618.0,0.05236
619.0,0.05159
620.0,0.05166
621.0,0.05144
622.0,0.05057
623.0,0.04952
624.0,0.04842
625.0,0.0481
626.0,0.04858
627.0,0.04885
628.0,0.04498
629.0,0.04707
630.0,0.04573
631.0,0.04666
632.0,0.04591
633.0,0.04716
634.0,0.04654
635.0,0.04705
636.0,0.04623
637.0,0.04678
638.0,0.04705
639.0,0.04632
640.0,0.04567
641.0,0.04543
642.0,0.04505
643.0,0.04547
644.0,0.04513
645.0,0.04497
646.0,0.04365
647.0,0.04282
648.0,0.04262
649.0,0.0416
650.0,0.04173
651.0,0.04335
652.0,0.04117
653.0,0.04237
654.0,0.04171
655.0,0.03987
656.0,0.03522
657.0,0.03602
658.0,0.04024
659.0,0.04036
660.0,0.04033
661.0,0.04042
662.0,0.0403
663.0,0.03934
664.0,0.03966
665.0,0.03953
666.0,0.03938
667.0,0.03919
668.0,0.03904
669.0,0.03947
670.0,0.03911
671.0,0.03893
672.0,0.03845
673.0,0.0389
674.0,0.03857
675.0,0.03803
676.0,0.03812
677.0,0.03759
678.0,0.03754
679.0,0.03677
680.0,0.0369
681.0,0.03649
682.0,0.03626
683.0,0.03602
684.0,0.03566
685.0,0.03579
686.0,0.03541
687.0,0.02207
688.0,0.02632
689.0,0.0263
690.0,0.02766
691.0,0.02923
692.0,0.03038
693.0,0.02996
694.0,0.02953
695.0,0.03079
696.0,0.03067
697.0,0.03272
698.0,0.03206
699.0,0.03097
700.0,0.03044
701.0,0.02996
702.0,0.0301
703.0,0.03001
704.0,0.03092
705.0,0.03081
706.0,0.03068
707.0,0.03057
708.0,0.03049
709.0,0.03044
710.0,0.03026
711.0,0.03013
712.0,0.02995
713.0,0.02948
714.0,0.02944
715.0,0.0283
716.0,0.02817
717.0,0.02376
718.0,0.02153
719.0,0.01947
720.0,0.02036
721.0,0.02272
722.0,0.02639
723.0,0.02417
724.0,0.02138
725.0,0.0209
726.0,0.02189
727.0,0.02214
728.0,0.02056
729.0,0.0214
730.0,0.02263
731.0,0.02145
732.0,0.02306
733.0,0.02451
734.0,0.02503
735.0,0.02436
736.0,0.02423
737.0,0.0242
738.0,0.02458
739.0,0.02397
740.0,0.02452
741.0,0.02418
742.0,0.0241
743.0,0.02459
744.0,0.0244
745.0,0.0243
746.0,0.02429
747.0,0.02424
748.0,0.02406
749.0,0.02367
750.0,0.02355
751.0,0.02321
752.0,0.02321
753.0,0.02322
754.0,0.02316
755.0,0.02292
756.0,0.02281
757.0,0.02275
758.0,0.02235
759.0,0.02173
760.0,0.003
761.0,0.00154
762.0,0.009919
763.0,0.004617
764.0,0.007139
765.0,0.009768
766.0,0.01233
767.0,0.01598
768.0,0.01881
769.0,0.01922
770.0,0.01991
771.0,0.02004
772.0,0.02
773.0,0.02004
774.0,0.01983
775.0,0.01959
776.0,0.01974
777.0,0.01938
778.0,0.01916
779.0,0.01908
780.0,0.01889
781.0,0.01882
782.0,0.01885
783.0,0.01845
784.0,0.01846
785.0,0.01824
786.0,0.01835
787.0,0.01791
788.0,0.01758
789.0,0.01748
790.0,0.01686
791.0,0.017
792.0,0.0168
793.0,0.01644
794.0,0.01673
795.0,0.01692
796.0,0.01622
797.0,0.01617
798.0,0.01667
799.0,0.01647
800.0,0.01608
801.0,0.01593
802.0,0.01581
803.0,0.01561
804.0,0.01557
805.0,0.01547
806.0,0.01588
807.0,0.0156
808.0,0.01555
809.0,0.01515
810.0,0.01492
811.0,0.01484
812.0,0.01427
813.0,0.01386
814.0,0.01189
815.0,0.01176
816.0,0.01079
817.0,0.01097
818.0,0.01048
819.0,0.01188
820.0,0.01105
821.0,0.0132
822.0,0.0127
823.0,0.008099
824.0,0.01215
825.0,0.01271
826.0,0.01208
827.0,0.01282
828.0,0.01053
829.0,0.01187
830.0,0.01164
831.0,0.01164
832.0,0.01118
833.0,0.01203
834.0,0.01147
835.0,0.01273
836.0,0.01202
837.0,0.01266
838.0,0.01217
839.0,0.01236
840.0,0.01259
841.0,0.01234
842.0,0.01234
843.0,0.01231
844.0,0.01206
845.0,0.01244
846.0,0.01233
847.0,0.01206
848.0,0.01192
849.0,0.01152
850.0,0.01099
851.0,0.01157
852.0,0.01143
853.0,0.01096
854.0,0.009415
855.0,0.01032
856.0,0.01122
857.0,0.01144
858.0,0.01131
859.0,0.01127
860.0,0.01125
861.0,0.01114
862.0,0.01127
863.0,0.0115
864.0,0.01088
865.0,0.01074
866.0,0.009619
867.0,0.009997
868.0,0.01083
869.0,0.01057
870.0,0.01082
871.0,0.01063
872.0,0.01055
873.0,0.01049
874.0,0.01031
875.0,0.01006
876.0,0.01012
877.0,0.01018
878.0,0.01024
879.0,0.01004
880.0,0.009787
881.0,0.009594
882.0,0.009761
883.0,0.009758
884.0,0.009668
885.0,0.009696
886.0,0.00918
887.0,0.009258
888.0,0.009343
889.0,0.00943
890.0,0.009284
891.0,0.009245
892.0,0.008914
893.0,0.008554
894.0,0.008144
895.0,0.00757
896.0,0.007013
897.0,0.005852
898.0,0.006451
899.0,0.004677
900.0,0.006619
901.0,0.004931
902.0,0.005932
903.0,0.005928
904.0,0.007753
905.0,0.007407
906.0,0.006851
907.0,0.005328
908.0,0.005449
909.0,0.005983
910.0,0.005126
911.0,0.005521
912.0,0.005791
913.0,0.005138
914.0,0.005082
915.0,0.005553
916.0,0.004566
917.0,0.006021
918.0,0.004664
919.0,0.006101
920.0,0.006183
921.0,0.006472
922.0,0.005641
923.0,0.006204
924.0,0.005746
925.0,0.00558
926.0,0.005636
927.0,0.006395
928.0,0.004387
929.0,0.003928
930.0,0.002953
931.0,0.002773
932.0,0.001896
933.0,0.001494
934.0,0.0007617
935.0,0.001531
936.0,0.0009042
937.0,0.0009118
938.0,0.001138
939.0,0.002595
940.0,0.003203
941.0,0.002311
942.0,0.002719
943.0,0.001681
944.0,0.001793
945.0,0.002349
946.0,0.001094
947.0,0.002333
948.0,0.001651
949.0,0.003236
950.0,0.0007624
951.0,0.003166
952.0,0.001549
953.0,0.002068
954.0,0.002622
955.0,0.002091
956.0,0.002025
957.0,0.001521
958.0,0.003002
959.0,0.002277
960.0,0.00258
961.0,0.00295
962.0,0.002761
963.0,0.003256
964.0,0.002929
965.0,0.00322
966.0,0.003205
967.0,0.00317
968.0,0.004517
969.0,0.004721
970.0,0.004251
971.0,0.004998
972.0,0.004717
973.0,0.003966
974.0,0.003722
975.0,0.003879
976.0,0.003621
977.0,0.004234
978.0,0.003955
979.0,0.004174
980.0,0.003861
981.0,0.004782
982.0,0.004507
983.0,0.004279
984.0,0.004924
985.0,0.004442
986.0,0.005003
987.0,0.004856
988.0,0.004827
989.0,0.004948
990.0,0.004764
991.0,0.004915
992.0,0.004929
993.0,0.004772
994.0,0.004896
995.0,0.004876
996.0,0.004831
997.0,0.004822
998.0,0.00478
999.0,0.004747
1000.0,0.004689
1001.0,0.004738
1002.0,0.004559
1003.0,0.004617
1004.0,0.004478
1005.0,0.004308
1006.0,0.004453
1007.0,0.004533
1008.0,0.004486
1009.0,0.004439
1010.0,0.004401
1011.0,0.004443
1012.0,0.004381
1013.0,0.004401
1014.0,0.004355
1015.0,0.004308
1016.0,0.004271
1017.0,0.004265
1018.0,0.004236
1019.0,0.004118
1020.0,0.004178
1021.0,0.004159
1022.0,0.004106
1023.0,0.004134
1024.0,0.004054
1025.0,0.004105
1026.0,0.004069
1027.0,0.004044
1028.0,0.00402
1029.0,0.003957
1030.0,0.003974
1031.0,0.003941
1032.0,0.003915
1033.0,0.003841
1034.0,0.003827
1035.0,0.003824
1036.0,0.003828
1037.0,0.003752
1038.0,0.003755
1039.0,0.003739
1040.0,0.003709
1041.0,0.003709
1042.0,0.003669
1043.0,0.003644
1044.0,0.003643
1045.0,0.003579
1046.0,0.003525
1047.0,0.003543
1048.0,0.003549
1049.0,0.003524
1050.0,0.003494
1051.0,0.003475
1052.0,0.003447
1053.0,0.003406
1054.0,0.003401
1055.0,0.003388
1056.0,0.003362
1057.0,0.003338
1058.0,0.003243
1059.0,0.003234
1060.0,0.003217
1061.0,0.0032
1062.0,0.003203
1063.0,0.003159
1064.0,0.003186
1065.0,0.003148
1066.0,0.003077
1067.0,0.003104
1068.0,0.003023
1069.0,0.00292
1070.0,0.003005
1071.0,0.003049
1072.0,0.002997
1073.0,0.002945
1074.0,0.00302
1075.0,0.002833
1076.0,0.002994
1077.0,0.002915
1078.0,0.002844
1079.0,0.002918
1080.0,0.002834
1081.0,0.002727
1082.0,0.002782
1083.0,0.002784
1084.0,0.002681
1085.0,0.002796
1086.0,0.002494
1087.0,0.002604
1088.0,0.002726
1089.0,0.00261
1090.0,0.002523
1091.0,0.00268
1092.0,0.002669
1093.0,0.002181
1094.0,0.002417
1095.0,0.002273
1096.0,0.002146
1097.0,0.002564
1098.0,0.002093
1099.0,0.002186
1100.0,0.001989
1101.0,0.002018
1102.0,0.001905
1103.0,0.001867
1104.0,0.001865
1105.0,0.002083
1106.0,0.00149
1107.0,0.001943
1108.0,0.001579
1109.0,0.001581
1110.0,0.001899
1111.0,0.001189
1112.0,0.001555
1113.0,0.0009048
1114.0,0.001022
1115.0,0.0008253
1116.0,0.0006289
1117.0,0.0002037
1118.0,0.0006893
1119.0,0.000312
1120.0,0.0003974
1121.0,0.0005435
1122.0,0.0002072
1123.0,0.0003527
1124.0,0.000293
1125.0,0.0003915
1126.0,0.0001216
1127.0,0.0004429
1128.0,0.0002471
1129.0,0.0002633
1130.0,0.0001664
1131.0,0.000908
1132.0,0.0006861
1133.0,0.0004043
1134.0,9.094e-05
1135.0,3.317e-05
1136.0,0.0003253
1137.0,0.000868
1138.0,0.000585
1139.0,0.0009363
1140.0,0.0007532
1141.0,0.0005477
1142.0,0.0006415
1143.0,0.0009567
1144.0,0.00029
1145.0,0.0003732
1146.0,0.0004033
1147.0,0.0001268
1148.0,0.0007988
1149.0,0.0006126
1150.0,0.0003083
1151.0,0.0005544
1152.0,0.0007045
1153.0,0.0006884
1154.0,0.0003493
1155.0,0.00093
1156.0,0.0008188
1157.0,0.0009382
1158.0,0.0009236
1159.0,0.001013
1160.0,0.0008381
1161.0,0.001076
1162.0,0.001073
1163.0,0.001537
1164.0,0.001275
1165.0,0.001179
1166.0,0.001174
1167.0,0.001293
1168.0,0.001303
1169.0,0.001342
1170.0,0.001475
1171.0,0.001426
1172.0,0.001456
1173.0,0.001456
1174.0,0.0009709
1175.0,0.001418
1176.0,0.001583
1177.0,0.001498
1178.0,0.001063
1179.0,0.001581
1180.0,0.00137
1181.0,0.001418
1182.0,0.0009121
1183.0,0.001394
1184.0,0.001279
1185.0,0.001217
1186.0,0.001491
1187.0,0.001401
1188.0,0.0009134
1189.0,0.001289
1190.0,0.001436
1191.0,0.001339
1192.0,0.00145
1193.0,0.001373
1194.0,0.00142
1195.0,0.001325
1196.0,0.001261
1197.0,0.001419
1198.0,0.001276
1199.0,0.001047
1200.0,0.00133
1201.0,0.001267
1202.0,0.001258
1203.0,0.00125
1204.0,0.001059
1205.0,0.001286
1206.0,0.001446
1207.0,0.001238
1208.0,0.001225
1209.0,0.001247
1210.0,0.001305
1211.0,0.001225
1212.0,0.001197
1213.0,0.001362
1214.0,0.001225
1215.0,0.001193
1216.0,0.001345
1217.0,0.001298
1218.0,0.001325
1219.0,0.001301
1220.0,0.001318
1221.0,0.001331
1222.0,0.001287
1223.0,0.001268
1224.0,0.001253
1225.0,0.001305
1226.0,0.001314
1227.0,0.001191
1228.0,0.001315
1229.0,0.001302
1230.0,0.001272
1231.0,0.001314
1232.0,0.001301
1233.0,0.001241
1234.0,0.001302
1235.0,0.001288
1236.0,0.001295
1237.0,0.001268
1238.0,0.001282
1239.0,0.001261
1240.0,0.001263
1241.0,0.00125
1242.0,0.001245
1243.0,0.001231
1244.0,0.001235
1245.0,0.001237
1246.0,0.001226
1247.0,0.001216
1248.0,0.00121
1249.0,0.001211
1250.0,0.001199
1251.0,0.001178
1252.0,0.001177
1253.0,0.00116
1254.0,0.001141
1255.0,0.001163
1256.0,0.00112
1257.0,0.001109
1258.0,0.001132
1259.0,0.001076
1260.0,0.00108
1261.0,0.001003
1262.0,0.0009638
1263.0,0.0009625
1264.0,0.000871
1265.0,0.0009511
1266.0,0.0009037
1267.0,0.0009228
1268.0,0.0008628
1269.0,0.0004825
1270.0,0.0009096
1271.0,0.0009741
1272.0,0.0009758
1273.0,0.0009609
1274.0,0.0009628
1275.0,0.0009761
1276.0,0.000985
1277.0,0.0009908
1278.0,0.001012
1279.0,0.0009994
1280.0,0.0009838
1281.0,0.0009383
1282.0,0.0009052
1283.0,0.0009711
1284.0,0.0009903
1285.0,0.0009943
1286.0,0.001007
1287.0,0.000984
1288.0,0.0009817
1289.0,0.0009398
1290.0,0.0009674
1291.0,0.000979
1292.0,0.0009019
1293.0,0.0009499
1294.0,0.0009393
1295.0,0.000929
1296.0,0.0008744
1297.0,0.0008161
1298.0,0.0008913
1299.0,0.0009347
1300.0,0.0007604
1301.0,0.0007873
1302.0,0.0008785
1303.0,0.0007449
1304.0,0.0006115
1305.0,0.000849
1306.0,0.000846
1307.0,0.000623
1308.0,0.0007354
1309.0,0.0008303
1310.0,0.0006039
1311.0,0.0006932
1312.0,0.0006712
1313.0,0.0006519
1314.0,0.000569
1315.0,0.00056
1316.0,0.0006703
1317.0,0.0006265
1318.0,0.0006909
1319.0,0.0005109
1320.0,0.0004929
1321.0,0.0005882
1322.0,0.0005916
1323.0,0.0004207
1324.0,0.0004926
1325.0,0.0006406
1326.0,0.0005323
1327.0,0.0005016
1328.0,0.0004209
1329.0,0.0003
1330.0,0.0004039
1331.0,0.0002246
1332.0,0.0002336
1333.0,0.000337
1334.0,0.0002816
1335.0,0.0004042
1336.0,0.0003065
1337.0,0.0002653
1338.0,0.0002888
1339.0,0.0002877
1340.0,0.000279
1341.0,0.0002678
1342.0,0.0002823
1343.0,0.0001781
1344.0,0.0001023
1345.0,0.0001514
1346.0,6.942e-05
1347.0,7.01e-05
1348.0,4.13e-06
1349.0,1.513e-05
1350.0,1.575e-05
1351.0,3.696e-06
1352.0,9.844e-07
1353.0,4.989e-08
1354.0,1.717e-07
1355.0,1.38e-09
1356.0,2.416e-08
1357.0,3.671e-08
1358.0,1.62e-09
1359.0,2.041e-10
1360.0,7.375e-10
1361.0,8.249e-13
1362.0,2.256e-15
