interpolation:linear
wavelength,value
280.0,1.594e-21
280.5,5.078e-20
281.0,2.694e-19
281.5,4.684e-19
282.0,1.01e-18
282.5,2.554e-18
283.0,8.108e-18
283.5,1.32e-17
284.0,2.136e-16
284.5,6.17e-16
285.0,1.298e-15
285.5,6.227e-15
286.0,2.484e-14
286.5,1.095e-13
287.0,3.101e-13
287.5,1.176e-12
288.0,3.417e-12
288.5,1.092e-11
289.0,3.012e-11
289.5,9.324e-11
290.0,2.625e-10
290.5,5.403e-10
291.0,1.169e-09
291.5,3.378e-09
292.0,6.867e-09
292.5,1.008e-08
293.0,2.285e-08
293.5,5.964e-08
294.0,9.766e-08
294.5,1.262e-07
295.0,2.215e-07
295.5,5.28e-07
296.0,9.789e-07
296.5,1.401e-06
297.0,1.937e-06
297.5,5.407e-06
298.0,8.879e-06
298.5,9.265e-06
299.0,2.128e-05
299.5,3.86e-05
300.0,4.503e-05
300.5,6.992e-05
301.0,0.0001453
301.5,0.0002718
302.0,0.000257
302.5,0.0005027
303.0,0.0009051
303.5,0.001145
304.0,0.001087
304.5,0.001678
305.0,0.002673
305.5,0.003158
306.0,0.003088
306.5,0.003921
307.0,0.0061
307.5,0.008495
308.0,0.009017
308.5,0.01088
309.0,0.01103
309.5,0.01274
310.0,0.01285
310.5,0.02081
311.0,0.0262
311.5,0.02528
312.0,0.02558
312.5,0.03136
313.0,0.03411
313.5,0.03283
314.0,0.04149
314.5,0.03742
315.0,0.0492
315.5,0.04059
316.0,0.03596
316.5,0.05231
317.0,0.06471
317.5,0.06679
318.0,0.05253
318.5,0.06654
319.0,0.07969
319.5,0.06346
320.0,0.07621
320.5,0.09745
321.0,0.0886
321.5,0.08488
322.0,0.08784
322.5,0.07626
323.0,0.07698
323.5,0.09603
324.0,0.112
324.5,0.1127
325.0,0.09585
325.5,0.1247
326.0,0.1527
326.5,0.1537
327.0,0.1522
327.5,0.1459
328.0,0.1283
328.5,0.136
329.0,0.1642
329.5,0.1865
330.0,0.1869
330.5,0.1477
331.0,0.1495
331.5,0.1524
332.0,0.1659
332.5,0.1644
333.0,0.1629
333.5,0.1457
334.0,0.1486
334.5,0.1725
335.0,0.1625
335.5,0.1916
336.0,0.1322
336.5,0.1518
337.0,0.1236
337.5,0.1529
338.0,0.1501
338.5,0.1746
339.0,0.1717
339.5,0.165
340.0,0.1913
340.5,0.172
341.0,0.1685
341.5,0.1534
342.0,0.1825
342.5,0.17
343.0,0.1868
343.5,0.1757
344.0,0.1288
344.5,0.131
345.0,0.1715
345.5,0.1741
346.0,0.1473
346.5,0.1661
347.0,0.1781
347.5,0.1436
348.0,0.1627
348.5,0.1619
349.0,0.1496
349.5,0.1477
350.0,0.182
350.5,0.1913
351.0,0.1704
351.5,0.1656
352.0,0.1769
352.5,0.1374
353.0,0.1723
353.5,0.1835
354.0,0.1898
354.5,0.1918
355.0,0.1905
355.5,0.1715
356.0,0.1788
356.5,0.1521
357.0,0.1253
357.5,0.1528
358.0,0.1206
358.5,0.1027
359.0,0.1432
359.5,0.1819
360.0,0.1921
360.5,0.153
361.0,0.139
361.5,0.1594
362.0,0.1374
362.5,0.1895
363.0,0.1696
363.5,0.1557
364.0,0.1897
364.5,0.1616
365.0,0.164
365.5,0.2051
366.0,0.2165
366.5,0.2027
367.0,0.1967
367.5,0.2034
368.0,0.1774
368.5,0.1784
369.0,0.1919
369.5,0.2039
370.0,0.2165
370.5,0.1675
371.0,0.1783
371.5,0.2223
372.0,0.147
372.5,0.1756
373.0,0.178
373.5,0.1154
374.0,0.1671
374.5,0.1379
375.0,0.1336
375.5,0.1987
376.0,0.1641
376.5,0.1695
377.0,0.1788
377.5,0.2085
378.0,0.2252
378.5,0.212
379.0,0.1743
379.5,0.1586
380.0,0.1643
380.5,0.1982
381.0,0.1979
381.5,0.1563
382.0,0.1382
382.5,0.1174
383.0,0.1083
383.5,0.1039
384.0,0.1142
384.5,0.1674
385.0,0.1654
385.5,0.1535
386.0,0.131
386.5,0.1714
387.0,0.1419
387.5,0.1588
388.0,0.146
388.5,0.1438
389.0,0.1547
389.5,0.1866
390.0,0.1866
390.5,0.1711
391.0,0.2006
391.5,0.2039
392.0,0.1711
392.5,0.1526
393.0,0.08459
393.5,0.06126
394.0,0.1242
394.5,0.1574
395.0,0.1913
395.5,0.1936
396.0,0.1672
396.5,0.0974
397.0,0.07282
397.5,0.1475
398.0,0.2058
398.5,0.212
399.0,0.2287
399.5,0.2271
400.0,0.235
401.0,0.2308
402.0,0.2417
403.0,0.2279
404.0,0.2227
405.0,0.221
406.0,0.2158
407.0,0.2107
408.0,0.2172
409.0,0.2308
410.0,0.2002
411.0,0.2153
412.0,0.2295
413.0,0.2222
414.0,0.2233
415.0,0.2222
416.0,0.2243
417.0,0.2171
418.0,0.2114
419.0,0.2126
420.0,0.21
421.0,0.218
422.0,0.2056
423.0,0.1992
424.0,0.2091
425.0,0.207
426.0,0.2002
427.0,0.195
428.0,0.1886
429.0,0.1774
430.0,0.1541
431.0,0.1515
432.0,0.1941
433.0,0.1936
434.0,0.1784
435.0,0.1849
436.0,0.2069
437.0,0.2027
438.0,0.1832
439.0,0.188
440.0,0.1925
441.0,0.1979
442.0,0.2105
443.0,0.2035
444.0,0.2064
445.0,0.2005
446.0,0.19
447.0,0.2039
448.0,0.2054
449.0,0.2046
450.0,0.2087
451.0,0.2147
452.0,0.2053
453.0,0.1917
454.0,0.1987
455.0,0.1984
456.0,0.2015
457.0,0.2031
458.0,0.1946
459.0,0.192
460.0,0.1909
461.0,0.1937
462.0,0.1938
463.0,0.1913
464.0,0.187
465.0,0.1834
466.0,0.1838
467.0,0.1791
468.0,0.1796
469.0,0.179
470.0,0.172
471.0,0.1706
472.0,0.1785
473.0,0.1749
474.0,0.1738
475.0,0.1739
476.0,0.1673
477.0,0.1663
478.0,0.1694
479.0,0.1668
480.0,0.1657
481.0,0.1673
482.0,0.1668
483.0,0.1636
484.0,0.1592
485.0,0.1507
486.0,0.1308
487.0,0.1362
488.0,0.1483
489.0,0.1475
490.0,0.154
491.0,0.1502
492.0,0.1408
493.0,0.1443
494.0,0.1447
495.0,0.1448
496.0,0.1446
497.0,0.1457
498.0,0.1377
499.0,0.1382
500.0,0.1329
501.0,0.1293
502.0,0.1263
503.0,0.1302
504.0,0.1257
505.0,0.1293
506.0,0.1325
507.0,0.1252
508.0,0.1205
509.0,0.1232
510.0,0.1217
511.0,0.1242
512.0,0.1246
513.0,0.117
514.0,0.1154
515.0,0.1134
516.0,0.1122
517.0,0.09901
518.0,0.1033
519.0,0.1076
520.0,0.1106
521.0,0.1108
522.0,0.11
523.0,0.1072
524.0,0.1102
525.0,0.1106
526.0,0.1048
527.0,0.09784
528.0,0.1026
529.0,0.1073
530.0,0.1049
531.0,0.1057
532.0,0.1013
533.0,0.09763
534.0,0.09984
535.0,0.1014
536.0,0.1016
537.0,0.09696
538.0,0.09799
539.0,0.09653
540.0,0.09192
541.0,0.09183
542.0,0.09396
543.0,0.09228
544.0,0.09326
545.0,0.09239
546.0,0.09212
547.0,0.09143
548.0,0.0897
549.0,0.08938
550.0,0.08983
551.0,0.08811
552.0,0.0881
553.0,0.08591
554.0,0.08735
555.0,0.0869
556.0,0.08513
557.0,0.08185
558.0,0.08058
559.0,0.07843
560.0,0.07877
561.0,0.07915
562.0,0.07794
563.0,0.07944
564.0,0.07671
565.0,0.0755
566.0,0.07384
567.0,0.07467
568.0,0.07344
569.0,0.07111
570.0,0.07062
571.0,0.06971
572.0,0.07083
573.0,0.07112
574.0,0.07046
575.0,0.06872
576.0,0.06769
577.0,0.06803
578.0,0.06666
579.0,0.06659
580.0,0.06754
581.0,0.06755
582.0,0.06846
583.0,0.0683
584.0,0.06856
585.0,0.06652
586.0,0.06473
587.0,0.06569
588.0,0.06362
589.0,0.05583
590.0,0.05805
591.0,0.06117
592.0,0.05992
593.0,0.06045
594.0,0.05956
595.0,0.05762
596.0,0.05964
597.0,0.05856
598.0,0.05802
599.0,0.05768
600.0,0.05742
601.0,0.05662
602.0,0.05591
603.0,0.0565
604.0,0.05712
605.0,0.05653
606.0,0.05604
607.0,0.05634
608.0,0.05545
609.0,0.05528
610.0,0.05465
611.0,0.0547
612.0,0.0543
613.0,0.05336
614.0,0.05239
615.0,0.05329
616.0,0.05131
617.0,0.05097
618.0,0.05268
619.0,0.05191
620.0,0.05198
621.0,0.05176
622.0,0.05087
623.0,0.04982
624.0,0.04871
625.0,0.04839
626.0,0.04887
627.0,0.04915
628.0,0.04526
629.0,0.04735
630.0,0.04601
631.0,0.04694
632.0,0.04618
633.0,0.04744
634.0,0.04681
635.0,0.04732
636.0,0.04649
637.0,0.04705
638.0,0.04731
639.0,0.04658
640.0,0.04592
641.0,0.04568
642.0,0.04529
643.0,0.04571
644.0,0.04537
645.0,0.04521
646.0,0.04388
647.0,0.04305
648.0,0.04285
649.0,0.04182
650.0,0.04195
651.0,0.04357
652.0,0.04139
653.0,0.04258
654.0,0.04193
655.0,0.04008
656.0,0.0354
657.0,0.0362
658.0,0.04044
659.0,0.04056
660.0,0.04053
661.0,0.04062
662.0,0.04049
663.0,0.03953
664.0,0.03985
665.0,0.03972
666.0,0.03957
667.0,0.03937
668.0,0.03923
669.0,0.03965
670.0,0.03929
671.0,0.03911
672.0,0.03863
673.0,0.03908
674.0,0.03874
675.0,0.03821
676.0,0.03829
677.0,0.03776
678.0,0.03771
679.0,0.03694
680.0,0.03706
681.0,0.03665
682.0,0.03642
683.0,0.03618
684.0,0.03582
685.0,0.03594
686.0,0.03556
687.0,0.0222
688.0,0.02645
689.0,0.02644
690.0,0.0278
691.0,0.02937
692.0,0.03052
693.0,0.0301
694.0,0.02966
695.0,0.03092
696.0,0.03081
697.0,0.03286
698.0,0.0322
699.0,0.0311
700.0,0.03057
701.0,0.03009
702.0,0.03023
703.0,0.03014
704.0,0.03105
705.0,0.03094
706.0,0.03081
707.0,0.0307
708.0,0.03062
709.0,0.03056
710.0,0.03038
711.0,0.03025
712.0,0.03008
713.0,0.02961
714.0,0.02956
715.0,0.02842
716.0,0.02829
717.0,0.02387
718.0,0.02163
719.0,0.01956
720.0,0.02045
721.0,0.02282
722.0,0.0265
723.0,0.02427
724.0,0.02147
725.0,0.02099
726.0,0.02199
727.0,0.02223
728.0,0.02065
729.0,0.0215
730.0,0.02273
731.0,0.02154
732.0,0.02316
733.0,0.02461
734.0,0.02513
735.0,0.02446
736.0,0.02433
737.0,0.0243
738.0,0.02468
739.0,0.02406
740.0,0.02461
741.0,0.02427
742.0,0.0242
743.0,0.02469
744.0,0.0245
745.0,0.02439
746.0,0.02439
747.0,0.02433
748.0,0.02415
749.0,0.02376
750.0,0.02364
751.0,0.0233
752.0,0.0233
753.0,0.0233
754.0,0.02324
755.0,0.02301
756.0,0.0229
757.0,0.02283
758.0,0.02244
759.0,0.02181
760.0,0.003016
761.0,0.001547
762.0,0.009975
763.0,0.004644
764.0,0.007181
765.0,0.009823
766.0,0.0124
767.0,0.01605
768.0,0.01889
769.0,0.0193
770.0,0.01999
771.0,0.02011
772.0,0.02007
773.0,0.02011
774.0,0.01991
775.0,0.01967
776.0,0.01981
777.0,0.01945
778.0,0.01923
779.0,0.01915
780.0,0.01896
781.0,0.01889
782.0,0.01892
783.0,0.01852
784.0,0.01852
785.0,0.0183
786.0,0.01842
787.0,0.01797
788.0,0.01765
789.0,0.01754
790.0,0.01692
791.0,0.01706
792.0,0.01687
793.0,0.0165
794.0,0.01679
795.0,0.01698
796.0,0.01628
797.0,0.01623
798.0,0.01673
799.0,0.01653
800.0,0.01614
801.0,0.01599
802.0,0.01587
803.0,0.01567
804.0,0.01563
805.0,0.01553
806.0,0.01593
807.0,0.01566
808.0,0.0156
809.0,0.0152
810.0,0.01498
811.0,0.0149
812.0,0.01433
813.0,0.01392
814.0,0.01194
815.0,0.01181
816.0,0.01083
817.0,0.01101
818.0,0.01052
819.0,0.01193
820.0,0.01109
821.0,0.01325
822.0,0.01275
823.0,0.008133
824.0,0.0122
825.0,0.01276
826.0,0.01213
827.0,0.01286
828.0,0.01058
829.0,0.01192
830.0,0.01169
831.0,0.01169
832.0,0.01122
833.0,0.01207
834.0,0.01151
835.0,0.01277
836.0,0.01206
837.0,0.0127
838.0,0.01221
839.0,0.01241
840.0,0.01264
841.0,0.01238
842.0,0.01238
843.0,0.01235
844.0,0.01211
845.0,0.01248
846.0,0.01238
847.0,0.0121
848.0,0.01196
849.0,0.01156
850.0,0.01103
851.0,0.01161
852.0,0.01148
853.0,0.011
854.0,0.00945
855.0,0.01035
856.0,0.01126
857.0,0.01148
858.0,0.01135
859.0,0.01131
860.0,0.01129
861.0,0.01118
862.0,0.01131
863.0,0.01154
864.0,0.01092
865.0,0.01078
866.0,0.009653
867.0,0.01003
868.0,0.01087
869.0,0.0106
870.0,0.01086
871.0,0.01067
872.0,0.01059
873.0,0.01052
874.0,0.01035
875.0,0.01009
876.0,0.01015
877.0,0.01021
878.0,0.01028
879.0,0.01008
880.0,0.009821
881.0,0.009628
882.0,0.009796
883.0,0.009793
884.0,0.009702
885.0,0.00973
886.0,0.009213
887.0,0.009291
888.0,0.009376
889.0,0.009464
890.0,0.009317
891.0,0.009277
892.0,0.008947
893.0,0.008586
894.0,0.008175
895.0,0.0076
896.0,0.007041
897.0,0.005877
898.0,0.006477
899.0,0.004697
900.0,0.006646
901.0,0.004952
902.0,0.005957
903.0,0.005953
904.0,0.007783
905.0,0.007436
906.0,0.006878
907.0,0.005351
908.0,0.005472
909.0,0.006008
910.0,0.005148
911.0,0.005544
912.0,0.005816
913.0,0.00516
914.0,0.005104
915.0,0.005578
916.0,0.004586
917.0,0.006047
918.0,0.004685
919.0,0.006126
920.0,0.006207
921.0,0.006498
922.0,0.005664
923.0,0.006228
924.0,0.005771
925.0,0.005603
926.0,0.00566
927.0,0.006421
928.0,0.004408
929.0,0.003947
930.0,0.002968
931.0,0.002786
932.0,0.001906
933.0,0.001502
934.0,0.0007653
935.0,0.001538
936.0,0.0009082
937.0,0.0009158
938.0,0.001144
939.0,0.002608
940.0,0.003219
941.0,0.002323
942.0,0.002732
943.0,0.001689
944.0,0.001801
945.0,0.002361
946.0,0.001099
947.0,0.002345
948.0,0.001658
949.0,0.003253
950.0,0.0007657
951.0,0.003182
952.0,0.001556
953.0,0.002078
954.0,0.002634
955.0,0.002101
956.0,0.002034
957.0,0.001528
958.0,0.003015
959.0,0.002287
960.0,0.002592
961.0,0.002964
962.0,0.002774
963.0,0.00327
964.0,0.002942
965.0,0.003234
966.0,0.00322
967.0,0.003185
968.0,0.004535
969.0,0.00474
970.0,0.004269
971.0,0.005018
972.0,0.004735
973.0,0.003983
974.0,0.003738
975.0,0.003895
976.0,0.003636
977.0,0.004251
978.0,0.003972
979.0,0.004191
980.0,0.003877
981.0,0.004801
982.0,0.004526
983.0,0.004296
984.0,0.004943
985.0,0.00446
986.0,0.005021
987.0,0.004874
988.0,0.004845
989.0,0.004966
990.0,0.004782
991.0,0.004933
992.0,0.004946
993.0,0.00479
994.0,0.004913
995.0,0.004894
996.0,0.004848
997.0,0.004839
998.0,0.004797
999.0,0.004764
1000.0,0.004706
1001.0,0.004755
1002.0,0.004576
1003.0,0.004633
1004.0,0.004494
1005.0,0.004324
1006.0,0.004469
1007.0,0.004549
1008.0,0.004502
1009.0,0.004455
1010.0,0.004416
1011.0,0.004459
1012.0,0.004397
1013.0,0.004417
1014.0,0.00437
1015.0,0.004324
1016.0,0.004287
1017.0,0.00428
1018.0,0.004251
1019.0,0.004132
1020.0,0.004193
1021.0,0.004173
1022.0,0.004121
1023.0,0.004149
1024.0,0.004069
1025.0,0.004119
1026.0,0.004083
1027.0,0.004058
1028.0,0.004034
1029.0,0.003972
1030.0,0.003988
1031.0,0.003955
1032.0,0.003929
1033.0,0.003855
1034.0,0.00384
1035.0,0.003838
1036.0,0.003841
1037.0,0.003765
1038.0,0.003768
1039.0,0.003752
1040.0,0.003722
1041.0,0.003722
1042.0,0.003682
1043.0,0.003657
1044.0,0.003656
1045.0,0.003592
1046.0,0.003538
1047.0,0.003556
1048.0,0.003562
1049.0,0.003536
1050.0,0.003506
1051.0,0.003487
1052.0,0.003459
1053.0,0.003419
1054.0,0.003413
1055.0,0.003401
1056.0,0.003374
1057.0,0.00335
1058.0,0.003255
1059.0,0.003246
1060.0,0.003228
1061.0,0.003212
1062.0,0.003215
1063.0,0.003171
1064.0,0.003198
1065.0,0.00316
1066.0,0.003089
1067.0,0.003116
1068.0,0.003034
1069.0,0.002931
1070.0,0.003016
1071.0,0.003061
1072.0,0.003008
1073.0,0.002956
1074.0,0.003031
1075.0,0.002844
1076.0,0.003005
1077.0,0.002925
1078.0,0.002855
1079.0,0.002928
1080.0,0.002845
1081.0,0.002738
1082.0,0.002792
1083.0,0.002795
1084.0,0.002691
1085.0,0.002807
1086.0,0.002504
1087.0,0.002614
1088.0,0.002736
1089.0,0.00262
1090.0,0.002532
1091.0,0.00269
1092.0,0.002679
1093.0,0.00219
1094.0,0.002426
1095.0,0.002282
1096.0,0.002155
1097.0,0.002574
1098.0,0.002102
1099.0,0.002195
1100.0,0.001998
1101.0,0.002027
1102.0,0.001913
1103.0,0.001875
1104.0,0.001873
1105.0,0.002092
1106.0,0.001497
1107.0,0.001951
1108.0,0.001586
1109.0,0.001588
1110.0,0.001907
1111.0,0.001194
1112.0,0.001562
1113.0,0.0009093
1114.0,0.001027
1115.0,0.0008293
1116.0,0.000632
1117.0,0.0002046
1118.0,0.0006928
1119.0,0.0003135
1120.0,0.0003995
1121.0,0.0005465
1122.0,0.0002082
1123.0,0.0003544
1124.0,0.0002944
1125.0,0.0003935
1126.0,0.0001221
1127.0,0.0004453
1128.0,0.0002483
1129.0,0.0002646
1130.0,0.0001671
1131.0,0.0009132
1132.0,0.0006898
1133.0,0.0004065
1134.0,9.127e-05
1135.0,3.325e-05
1136.0,0.000327
1137.0,0.0008731
1138.0,0.0005881
1139.0,0.000941
1140.0,0.0007572
1141.0,0.0005506
1142.0,0.0006449
1143.0,0.0009619
1144.0,0.0002914
1145.0,0.0003752
1146.0,0.0004055
1147.0,0.0001273
1148.0,0.000803
1149.0,0.0006158
1150.0,0.0003097
1151.0,0.0005574
1152.0,0.0007083
1153.0,0.0006918
1154.0,0.0003511
1155.0,0.0009348
1156.0,0.000823
1157.0,0.0009428
1158.0,0.0009282
1159.0,0.001017
1160.0,0.0008422
1161.0,0.001081
1162.0,0.001078
1163.0,0.001543
1164.0,0.001281
1165.0,0.001185
1166.0,0.001179
1167.0,0.001299
1168.0,0.001309
1169.0,0.001348
1170.0,0.001481
1171.0,0.001432
1172.0,0.001462
1173.0,0.001462
1174.0,0.0009753
1175.0,0.001424
1176.0,0.001589
1177.0,0.001504
1178.0,0.001067
1179.0,0.001587
1180.0,0.001375
1181.0,0.001424
1182.0,0.000916
1183.0,0.0014
1184.0,0.001284
1185.0,0.001223
1186.0,0.001497
1187.0,0.001406
1188.0,0.0009176
1189.0,0.001294
1190.0,0.001441
1191.0,0.001344
1192.0,0.001456
1193.0,0.001379
1194.0,0.001426
1195.0,0.00133
1196.0,0.001267
1197.0,0.001425
1198.0,0.00128
1199.0,0.001051
1200.0,0.001335
1201.0,0.001272
1202.0,0.001263
1203.0,0.001255
1204.0,0.001063
1205.0,0.001291
1206.0,0.001451
1207.0,0.001243
1208.0,0.001229
1209.0,0.001252
1210.0,0.00131
1211.0,0.00123
1212.0,0.001202
1213.0,0.001368
1214.0,0.00123
1215.0,0.001198
1216.0,0.00135
1217.0,0.001303
1218.0,0.00133
1219.0,0.001306
1220.0,0.001323
1221.0,0.001336
1222.0,0.001291
1223.0,0.001273
1224.0,0.001258
1225.0,0.00131
1226.0,0.001319
1227.0,0.001196
1228.0,0.00132
1229.0,0.001306
1230.0,0.001277
1231.0,0.001318
1232.0,0.001306
1233.0,0.001245
1234.0,0.001307
1235.0,0.001293
1236.0,0.001299
1237.0,0.001273
1238.0,0.001287
1239.0,0.001266
1240.0,0.001267
1241.0,0.001254
1242.0,0.00125
1243.0,0.001235
1244.0,0.001239
1245.0,0.001241
1246.0,0.00123
1247.0,0.00122
1248.0,0.001214
1249.0,0.001215
1250.0,0.001203
1251.0,0.001182
1252.0,0.001181
1253.0,0.001164
1254.0,0.001146
1255.0,0.001168
1256.0,0.001124
1257.0,0.001113
1258.0,0.001136
1259.0,0.001081
1260.0,0.001084
1261.0,0.001008
1262.0,0.0009679
1263.0,0.0009666
1264.0,0.0008751
1265.0,0.0009552
1266.0,0.0009078
1267.0,0.0009269
1268.0,0.0008668
1269.0,0.0004855
1270.0,0.0009136
1271.0,0.0009782
1272.0,0.0009798
1273.0,0.0009649
1274.0,0.0009667
1275.0,0.0009801
1276.0,0.0009889
1277.0,0.0009947
1278.0,0.001016
1279.0,0.001003
1280.0,0.0009876
1281.0,0.0009418
1282.0,0.0009085
1283.0,0.0009746
1284.0,0.0009939
1285.0,0.000998
1286.0,0.001011
1287.0,0.0009876
1288.0,0.0009853
1289.0,0.0009434
1290.0,0.0009709
1291.0,0.0009826
1292.0,0.0009055
1293.0,0.0009534
1294.0,0.0009428
1295.0,0.0009325
1296.0,0.000878
1297.0,0.0008195
1298.0,0.0008947
1299.0,0.0009381
1300.0,0.0007635
1301.0,0.0007905
1302.0,0.0008819
1303.0,0.0007479
1304.0,0.0006143
1305.0,0.0008523
1306.0,0.0008494
1307.0,0.0006258
1308.0,0.0007384
1309.0,0.0008336
1310.0,0.0006066
1311.0,0.0006961
1312.0,0.000674
1313.0,0.0006547
1314.0,0.0005715
1315.0,0.0005625
1316.0,0.0006732
1317.0,0.0006291
1318.0,0.0006937
1319.0,0.0005133
1320.0,0.0004951
1321.0,0.0005908
1322.0,0.0005942
1323.0,0.0004227
1324.0,0.0004948
1325.0,0.0006434
1326.0,0.0005347
1327.0,0.0005039
1328.0,0.0004229
1329.0,0.0003015
1330.0,0.000406
1331.0,0.0002258
1332.0,0.0002348
1333.0,0.0003389
1334.0,0.0002829
1335.0,0.0004062
1336.0,0.000308
1337.0,0.0002667
1338.0,0.0002903
1339.0,0.0002891
1340.0,0.0002803
1341.0,0.0002692
1342.0,0.0002838
1343.0,0.0001791
1344.0,0.0001028
1345.0,0.0001523
1346.0,6.976e-05
1347.0,7.046e-05
1348.0,4.137e-06
1349.0,1.517e-05
1350.0,1.579e-05
1351.0,3.702e-06
1352.0,9.853e-07
1353.0,4.991e-08
1354.0,1.717e-07
1355.0,1.38e-09
1356.0,2.417e-08
1357.0,3.672e-08
1358.0,1.62e-09
1359.0,2.041e-10
1360.0,7.377e-10
1361.0,8.251e-13
1362.0,2.257e-15
