interpolation:linear
wavelength,value
280.0,3.2660000000000002e-21
280.5,1.02e-19
281.0,5.379e-19
281.5,3.339e-19
282.0,1.041e-18
282.5,2.775e-18
283.0,9.045e-18
283.5,1.484e-17
284.0,2.429e-16
284.5,7.016e-16
285.0,1.597e-15
285.5,7.796e-15
286.0,3.121e-14
286.5,1.377e-13
287.0,3.898e-13
287.5,1.473e-12
288.0,3.87e-12
288.5,1.297e-11
289.0,3.706e-11
289.5,1.18e-10
290.0,3.382e-10
290.5,7.047e-10
291.0,1.544e-09
291.5,4.528e-09
292.0,9.952e-09
292.5,1.5e-08
293.0,3.518e-08
293.5,9.643e-08
294.0,1.637e-07
294.5,2.046e-07
295.0,3.714e-07
295.5,9.528e-07
296.0,1.865e-06
296.5,2.657e-06
297.0,3.658e-06
297.5,1.015e-05
298.0,1.657e-05
298.5,1.72e-05
299.0,3.932e-05
299.5,7.062e-05
300.0,8.183e-05
300.5,0.0001261
301.0,0.000258
301.5,0.0004737
302.0,0.000442
302.5,0.0008534
303.0,0.00151
303.5,0.001887
304.0,0.001775
304.5,0.00267
305.0,0.004105
305.5,0.00474
306.0,0.004592
306.5,0.005743
307.0,0.008644
307.5,0.01166
308.0,0.01231
308.5,0.01461
309.0,0.01475
309.5,0.01667
310.0,0.01664
310.5,0.02683
311.0,0.0335
311.5,0.0322
312.0,0.03202
312.5,0.03882
313.0,0.04196
313.5,0.04058
314.0,0.05059
314.5,0.04484
315.0,0.05874
315.5,0.04885
316.0,0.04266
316.5,0.06129
317.0,0.07581
317.5,0.07849
318.0,0.06121
318.5,0.07629
319.0,0.09062
319.5,0.07307
320.0,0.08788
320.5,0.1106
321.0,0.09905
321.5,0.09472
322.0,0.09951
322.5,0.08629
323.0,0.08621
323.5,0.1069
324.0,0.1244
324.5,0.1256
325.0,0.107
325.5,0.138
326.0,0.1693
326.5,0.1695
327.0,0.1681
327.5,0.1615
328.0,0.1428
328.5,0.1502
329.0,0.1801
329.5,0.2041
330.0,0.2048
330.5,0.1626
331.0,0.1648
331.5,0.1674
332.0,0.1811
332.5,0.179
333.0,0.1776
333.5,0.1594
334.0,0.1626
334.5,0.1879
335.0,0.1765
335.5,0.2087
336.0,0.1439
336.5,0.1649
337.0,0.1345
337.5,0.1665
338.0,0.1627
338.5,0.1896
339.0,0.1863
339.5,0.179
340.0,0.2071
340.5,0.1861
341.0,0.1826
341.5,0.166
342.0,0.1974
342.5,0.1837
343.0,0.202
343.5,0.19
344.0,0.139
344.5,0.1417
345.0,0.1852
345.5,0.1879
346.0,0.1588
346.5,0.179
347.0,0.1919
347.5,0.1548
348.0,0.1752
348.5,0.1742
349.0,0.1609
349.5,0.1588
350.0,0.1956
350.5,0.2056
351.0,0.1832
351.5,0.1781
352.0,0.1901
352.5,0.1475
353.0,0.1849
353.5,0.1968
354.0,0.2035
354.5,0.2056
355.0,0.2042
355.5,0.1837
356.0,0.1915
356.5,0.1629
357.0,0.1341
357.5,0.1635
358.0,0.1291
358.5,0.1099
359.0,0.1531
359.5,0.1945
360.0,0.2053
360.5,0.1634
361.0,0.1484
361.5,0.1702
362.0,0.1466
362.5,0.2022
363.0,0.1809
363.5,0.166
364.0,0.2023
364.5,0.1722
365.0,0.1747
365.5,0.2185
366.0,0.2306
366.5,0.2159
367.0,0.2094
367.5,0.2165
368.0,0.1887
368.5,0.1897
369.0,0.2041
369.5,0.2167
370.0,0.2302
370.5,0.178
371.0,0.1894
371.5,0.2361
372.0,0.1561
372.5,0.1865
373.0,0.189
373.5,0.1225
374.0,0.1773
374.5,0.1463
375.0,0.1417
375.5,0.2107
376.0,0.174
376.5,0.1796
377.0,0.1895
377.5,0.2208
378.0,0.2384
378.5,0.2245
379.0,0.1845
379.5,0.1678
380.0,0.1738
380.5,0.2097
381.0,0.2093
381.5,0.1652
382.0,0.1461
382.5,0.1241
383.0,0.1144
383.5,0.1098
384.0,0.1206
384.5,0.1767
385.0,0.1746
385.5,0.162
386.0,0.1382
386.5,0.1808
387.0,0.1496
387.5,0.1674
388.0,0.154
388.5,0.1516
389.0,0.163
389.5,0.1966
390.0,0.1966
390.5,0.1802
391.0,0.2113
391.5,0.2146
392.0,0.18
392.5,0.1606
393.0,0.08899
393.5,0.06444
394.0,0.1306
394.5,0.1654
395.0,0.2011
395.5,0.2035
396.0,0.1757
396.5,0.1023
397.0,0.07649
397.5,0.1549
398.0,0.2161
398.5,0.2225
399.0,0.2401
399.5,0.2384
400.0,0.2466
401.0,0.2422
402.0,0.2535
403.0,0.2389
404.0,0.2334
405.0,0.2315
406.0,0.226
407.0,0.2205
408.0,0.2273
409.0,0.2414
410.0,0.2094
411.0,0.2251
412.0,0.2399
413.0,0.2322
414.0,0.2332
415.0,0.232
416.0,0.2342
417.0,0.2266
418.0,0.2206
419.0,0.2217
420.0,0.219
421.0,0.2273
422.0,0.2143
423.0,0.2076
424.0,0.2178
425.0,0.2156
426.0,0.2084
427.0,0.203
428.0,0.1962
429.0,0.1845
430.0,0.1602
431.0,0.1575
432.0,0.2017
433.0,0.2012
434.0,0.1853
435.0,0.1921
436.0,0.2149
437.0,0.2104
438.0,0.1902
439.0,0.1952
440.0,0.1998
441.0,0.2053
442.0,0.2184
443.0,0.2111
444.0,0.2141
445.0,0.2079
446.0,0.1969
447.0,0.2113
448.0,0.2128
449.0,0.212
450.0,0.2161
451.0,0.2223
452.0,0.2126
453.0,0.1985
454.0,0.2057
455.0,0.2053
456.0,0.2084
457.0,0.2101
458.0,0.2013
459.0,0.1986
460.0,0.1975
461.0,0.2005
462.0,0.2005
463.0,0.1978
464.0,0.1933
465.0,0.1895
466.0,0.19
467.0,0.185
468.0,0.1856
469.0,0.185
470.0,0.1777
471.0,0.1763
472.0,0.1844
473.0,0.1806
474.0,0.1794
475.0,0.1795
476.0,0.1727
477.0,0.1717
478.0,0.1749
479.0,0.1723
480.0,0.1712
481.0,0.1728
482.0,0.1724
483.0,0.169
484.0,0.1644
485.0,0.1555
486.0,0.135
487.0,0.1405
488.0,0.153
489.0,0.1522
490.0,0.1589
491.0,0.155
492.0,0.1453
493.0,0.1489
494.0,0.1493
495.0,0.1494
496.0,0.1492
497.0,0.1503
498.0,0.1421
499.0,0.1427
500.0,0.1373
501.0,0.1336
502.0,0.1305
503.0,0.1346
504.0,0.13
505.0,0.1337
506.0,0.1371
507.0,0.1295
508.0,0.1246
509.0,0.1273
510.0,0.1258
511.0,0.1283
512.0,0.1288
513.0,0.1209
514.0,0.1192
515.0,0.1171
516.0,0.116
517.0,0.1023
518.0,0.1068
519.0,0.1112
520.0,0.1144
521.0,0.1145
522.0,0.1138
523.0,0.1109
524.0,0.114
525.0,0.1144
526.0,0.1084
527.0,0.1013
528.0,0.1063
529.0,0.1112
530.0,0.1088
531.0,0.1096
532.0,0.105
533.0,0.1012
534.0,0.1035
535.0,0.1051
536.0,0.1054
537.0,0.1005
538.0,0.1016
539.0,0.1001
540.0,0.09532
541.0,0.09524
542.0,0.09746
543.0,0.09573
544.0,0.09677
545.0,0.09588
546.0,0.09561
547.0,0.09489
548.0,0.09311
549.0,0.09277
550.0,0.09324
551.0,0.09147
552.0,0.09146
553.0,0.08919
554.0,0.0907
555.0,0.09025
556.0,0.08842
557.0,0.08503
558.0,0.08373
559.0,0.08152
560.0,0.0819
561.0,0.08232
562.0,0.08108
563.0,0.08266
564.0,0.07984
565.0,0.0786
566.0,0.07688
567.0,0.07776
568.0,0.07649
569.0,0.0741
570.0,0.07359
571.0,0.07265
572.0,0.07383
573.0,0.07414
574.0,0.07346
575.0,0.07165
576.0,0.07056
577.0,0.07091
578.0,0.06946
579.0,0.06938
580.0,0.07035
581.0,0.07033
582.0,0.07127
583.0,0.07108
584.0,0.07135
585.0,0.06921
586.0,0.06735
587.0,0.06834
588.0,0.06621
589.0,0.05813
590.0,0.06045
591.0,0.06368
592.0,0.0624
593.0,0.06295
594.0,0.06204
595.0,0.06005
596.0,0.06214
597.0,0.06103
598.0,0.06048
599.0,0.06013
600.0,0.05986
601.0,0.05903
602.0,0.05829
603.0,0.0589
604.0,0.05953
605.0,0.05891
606.0,0.05838
607.0,0.05868
608.0,0.05774
609.0,0.05755
610.0,0.05687
611.0,0.0569
612.0,0.05647
613.0,0.05548
614.0,0.05445
615.0,0.05537
616.0,0.05329
617.0,0.05293
618.0,0.0547
619.0,0.05388
620.0,0.05395
621.0,0.05371
622.0,0.05279
623.0,0.05169
624.0,0.05054
625.0,0.05019
626.0,0.05069
627.0,0.05097
628.0,0.047
629.0,0.04911
630.0,0.04772
631.0,0.04865
632.0,0.04785
633.0,0.04914
634.0,0.04847
635.0,0.04899
636.0,0.04811
637.0,0.04868
638.0,0.04894
639.0,0.04817
640.0,0.04747
641.0,0.04721
642.0,0.0468
643.0,0.04722
644.0,0.04687
645.0,0.04669
646.0,0.04532
647.0,0.04448
648.0,0.04426
649.0,0.04319
650.0,0.04329
651.0,0.04497
652.0,0.04272
653.0,0.04393
654.0,0.04324
655.0,0.04134
656.0,0.03651
657.0,0.03733
658.0,0.04168
659.0,0.0418
660.0,0.04176
661.0,0.04185
662.0,0.04172
663.0,0.04072
664.0,0.04104
665.0,0.04089
666.0,0.04073
667.0,0.04052
668.0,0.04036
669.0,0.04079
670.0,0.04041
671.0,0.04022
672.0,0.03973
673.0,0.04018
674.0,0.03983
675.0,0.03927
676.0,0.03936
677.0,0.03881
678.0,0.03875
679.0,0.03795
680.0,0.03808
681.0,0.03765
682.0,0.03742
683.0,0.03716
684.0,0.03679
685.0,0.03691
686.0,0.03652
687.0,0.02299
688.0,0.02731
689.0,0.02729
690.0,0.02866
691.0,0.03025
692.0,0.03139
693.0,0.03096
694.0,0.0305
695.0,0.03177
696.0,0.03164
697.0,0.03372
698.0,0.03304
699.0,0.03193
700.0,0.03139
701.0,0.0309
702.0,0.03103
703.0,0.03093
704.0,0.03185
705.0,0.03174
706.0,0.0316
707.0,0.03149
708.0,0.0314
709.0,0.03133
710.0,0.03115
711.0,0.03102
712.0,0.03084
713.0,0.03036
714.0,0.0303
715.0,0.02914
716.0,0.02901
717.0,0.02454
718.0,0.02224
719.0,0.0201
720.0,0.02104
721.0,0.02344
722.0,0.02719
723.0,0.02491
724.0,0.02205
725.0,0.02157
726.0,0.0226
727.0,0.02283
728.0,0.02122
729.0,0.02207
730.0,0.02334
731.0,0.02212
732.0,0.02376
733.0,0.02523
734.0,0.02575
735.0,0.02508
736.0,0.02494
737.0,0.02491
738.0,0.02528
739.0,0.02465
740.0,0.02521
741.0,0.02485
742.0,0.02477
743.0,0.02527
744.0,0.02508
745.0,0.02497
746.0,0.02496
747.0,0.0249
748.0,0.02472
749.0,0.02431
750.0,0.02419
751.0,0.02384
752.0,0.02384
753.0,0.02384
754.0,0.02378
755.0,0.02354
756.0,0.02343
757.0,0.02335
758.0,0.02295
759.0,0.02232
760.0,0.003128
761.0,0.001597
762.0,0.01033
763.0,0.004823
764.0,0.007454
765.0,0.01017
766.0,0.0128
767.0,0.01651
768.0,0.01936
769.0,0.01977
770.0,0.02045
771.0,0.02057
772.0,0.02053
773.0,0.02057
774.0,0.02036
775.0,0.02012
776.0,0.02027
777.0,0.0199
778.0,0.01968
779.0,0.01959
780.0,0.01939
781.0,0.01932
782.0,0.01936
783.0,0.01894
784.0,0.01895
785.0,0.01872
786.0,0.01884
787.0,0.01839
788.0,0.01806
789.0,0.01795
790.0,0.01733
791.0,0.01746
792.0,0.01725
793.0,0.01688
794.0,0.01717
795.0,0.01736
796.0,0.01666
797.0,0.01661
798.0,0.01711
799.0,0.0169
800.0,0.0165
801.0,0.01636
802.0,0.01624
803.0,0.01603
804.0,0.01599
805.0,0.01589
806.0,0.01629
807.0,0.01601
808.0,0.01596
809.0,0.01555
810.0,0.01533
811.0,0.01525
812.0,0.01468
813.0,0.01426
814.0,0.01226
815.0,0.01212
816.0,0.01111
817.0,0.0113
818.0,0.0108
819.0,0.01223
820.0,0.01138
821.0,0.01357
822.0,0.01306
823.0,0.008352
824.0,0.0125
825.0,0.01306
826.0,0.01242
827.0,0.01317
828.0,0.01084
829.0,0.0122
830.0,0.01196
831.0,0.01197
832.0,0.01149
833.0,0.01236
834.0,0.01179
835.0,0.01307
836.0,0.01235
837.0,0.01299
838.0,0.0125
839.0,0.01269
840.0,0.01292
841.0,0.01266
842.0,0.01266
843.0,0.01262
844.0,0.01238
845.0,0.01276
846.0,0.01265
847.0,0.01237
848.0,0.01222
849.0,0.01182
850.0,0.01128
851.0,0.01187
852.0,0.01173
853.0,0.01125
854.0,0.009662
855.0,0.01058
856.0,0.01151
857.0,0.01173
858.0,0.0116
859.0,0.01156
860.0,0.01154
861.0,0.01142
862.0,0.01156
863.0,0.01179
864.0,0.01116
865.0,0.01102
866.0,0.009864
867.0,0.01025
868.0,0.01111
869.0,0.01083
870.0,0.0111
871.0,0.0109
872.0,0.01082
873.0,0.01075
874.0,0.01057
875.0,0.01031
876.0,0.01037
877.0,0.01044
878.0,0.0105
879.0,0.0103
880.0,0.01003
881.0,0.009838
882.0,0.01001
883.0,0.01001
884.0,0.009914
885.0,0.009944
886.0,0.009418
887.0,0.009496
888.0,0.009584
889.0,0.009671
890.0,0.009525
891.0,0.009482
892.0,0.009148
893.0,0.008783
894.0,0.008371
895.0,0.007792
896.0,0.007218
897.0,0.006031
898.0,0.006646
899.0,0.004822
900.0,0.006812
901.0,0.005089
902.0,0.006109
903.0,0.006111
904.0,0.007969
905.0,0.007616
906.0,0.007047
907.0,0.005493
908.0,0.005615
909.0,0.006162
910.0,0.005289
911.0,0.005688
912.0,0.005967
913.0,0.005303
914.0,0.005242
915.0,0.005733
916.0,0.004709
917.0,0.006208
918.0,0.004813
919.0,0.006284
920.0,0.006357
921.0,0.006659
922.0,0.005812
923.0,0.006381
924.0,0.005924
925.0,0.005751
926.0,0.005812
927.0,0.006586
928.0,0.004539
929.0,0.004069
930.0,0.003062
931.0,0.002872
932.0,0.001966
933.0,0.001549
934.0,0.000789
935.0,0.001584
936.0,0.0009345
937.0,0.0009427
938.0,0.001179
939.0,0.002688
940.0,0.003318
941.0,0.002397
942.0,0.002819
943.0,0.001741
944.0,0.001852
945.0,0.002435
946.0,0.001131
947.0,0.00242
948.0,0.001707
949.0,0.00336
950.0,0.0007881
951.0,0.003285
952.0,0.001605
953.0,0.002143
954.0,0.002716
955.0,0.002168
956.0,0.00209
957.0,0.001577
958.0,0.003099
959.0,0.002355
960.0,0.002673
961.0,0.003052
962.0,0.002855
963.0,0.003363
964.0,0.003026
965.0,0.003326
966.0,0.003313
967.0,0.003278
968.0,0.004647
969.0,0.004864
970.0,0.00438
971.0,0.005139
972.0,0.004852
973.0,0.004091
974.0,0.003838
975.0,0.003996
976.0,0.003737
977.0,0.004357
978.0,0.004076
979.0,0.004299
980.0,0.003977
981.0,0.004917
982.0,0.004639
983.0,0.004406
984.0,0.005058
985.0,0.004572
986.0,0.005135
987.0,0.004989
988.0,0.004958
989.0,0.005076
990.0,0.004895
991.0,0.005044
992.0,0.005057
993.0,0.004901
994.0,0.005022
995.0,0.005002
996.0,0.004956
997.0,0.004946
998.0,0.004903
999.0,0.004869
1000.0,0.00481
1001.0,0.00486
1002.0,0.004681
1003.0,0.004736
1004.0,0.004594
1005.0,0.004419
1006.0,0.004568
1007.0,0.004649
1008.0,0.004602
1009.0,0.004555
1010.0,0.004516
1011.0,0.004558
1012.0,0.004494
1013.0,0.004514
1014.0,0.004466
1015.0,0.004419
1016.0,0.004381
1017.0,0.004374
1018.0,0.004344
1019.0,0.004225
1020.0,0.004286
1021.0,0.004265
1022.0,0.004212
1023.0,0.00424
1024.0,0.00416
1025.0,0.00421
1026.0,0.004173
1027.0,0.004148
1028.0,0.004124
1029.0,0.004059
1030.0,0.004076
1031.0,0.004042
1032.0,0.004016
1033.0,0.00394
1034.0,0.003925
1035.0,0.003922
1036.0,0.003926
1037.0,0.003848
1038.0,0.003851
1039.0,0.003835
1040.0,0.003805
1041.0,0.003804
1042.0,0.003763
1043.0,0.003738
1044.0,0.003737
1045.0,0.003672
1046.0,0.003617
1047.0,0.003635
1048.0,0.003642
1049.0,0.003615
1050.0,0.003585
1051.0,0.003565
1052.0,0.003537
1053.0,0.003496
1054.0,0.00349
1055.0,0.003478
1056.0,0.003451
1057.0,0.003426
1058.0,0.003329
1059.0,0.00332
1060.0,0.003302
1061.0,0.003285
1062.0,0.003289
1063.0,0.003244
1064.0,0.003272
1065.0,0.003233
1066.0,0.00316
1067.0,0.003188
1068.0,0.003104
1069.0,0.002999
1070.0,0.003086
1071.0,0.00313
1072.0,0.003077
1073.0,0.003024
1074.0,0.0031
1075.0,0.002911
1076.0,0.003073
1077.0,0.002993
1078.0,0.002922
1079.0,0.002994
1080.0,0.002911
1081.0,0.002803
1082.0,0.002856
1083.0,0.002858
1084.0,0.002756
1085.0,0.002872
1086.0,0.002565
1087.0,0.002676
1088.0,0.002799
1089.0,0.002682
1090.0,0.002594
1091.0,0.002752
1092.0,0.00274
1093.0,0.002246
1094.0,0.002483
1095.0,0.00234
1096.0,0.002212
1097.0,0.002633
1098.0,0.002158
1099.0,0.002253
1100.0,0.002052
1101.0,0.002081
1102.0,0.001966
1103.0,0.001928
1104.0,0.001926
1105.0,0.002147
1106.0,0.001543
1107.0,0.002004
1108.0,0.001633
1109.0,0.001634
1110.0,0.00196
1111.0,0.001231
1112.0,0.001607
1113.0,0.0009379
1114.0,0.00106
1115.0,0.0008548
1116.0,0.0006528
1117.0,0.0002107
1118.0,0.0007156
1119.0,0.0003231
1120.0,0.0004131
1121.0,0.0005661
1122.0,0.0002146
1123.0,0.0003659
1124.0,0.0003033
1125.0,0.0004065
1126.0,0.0001255
1127.0,0.0004605
1128.0,0.0002565
1129.0,0.0002735
1130.0,0.000172
1131.0,0.0009467
1132.0,0.000714
1133.0,0.0004209
1134.0,9.358e-05
1135.0,3.377e-05
1136.0,0.0003384
1137.0,0.0009065
1138.0,0.0006084
1139.0,0.000971
1140.0,0.0007824
1141.0,0.0005691
1142.0,0.0006666
1143.0,0.0009955
1144.0,0.0003001
1145.0,0.0003884
1146.0,0.0004201
1147.0,0.0001311
1148.0,0.0008299
1149.0,0.0006365
1150.0,0.0003189
1151.0,0.0005766
1152.0,0.0007325
1153.0,0.0007135
1154.0,0.0003633
1155.0,0.0009652
1156.0,0.0008503
1157.0,0.0009725
1158.0,0.0009574
1159.0,0.001049
1160.0,0.0008682
1161.0,0.001112
1162.0,0.001109
1163.0,0.001584
1164.0,0.001317
1165.0,0.00122
1166.0,0.001211
1167.0,0.001334
1168.0,0.001345
1169.0,0.001385
1170.0,0.00152
1171.0,0.001469
1172.0,0.001499
1173.0,0.001501
1174.0,0.001004
1175.0,0.00146
1176.0,0.001626
1177.0,0.001541
1178.0,0.001096
1179.0,0.001624
1180.0,0.00141
1181.0,0.00146
1182.0,0.0009412
1183.0,0.001435
1184.0,0.001317
1185.0,0.001255
1186.0,0.001534
1187.0,0.001442
1188.0,0.0009439
1189.0,0.001326
1190.0,0.001476
1191.0,0.001379
1192.0,0.00149
1193.0,0.001412
1194.0,0.00146
1195.0,0.001364
1196.0,0.0013
1197.0,0.001459
1198.0,0.001311
1199.0,0.00108
1200.0,0.001368
1201.0,0.001304
1202.0,0.001294
1203.0,0.001287
1204.0,0.001091
1205.0,0.001322
1206.0,0.001485
1207.0,0.001274
1208.0,0.00126
1209.0,0.001282
1210.0,0.001341
1211.0,0.00126
1212.0,0.001234
1213.0,0.0014
1214.0,0.001262
1215.0,0.00123
1216.0,0.001382
1217.0,0.001335
1218.0,0.001362
1219.0,0.001338
1220.0,0.001355
1221.0,0.001367
1222.0,0.001322
1223.0,0.001303
1224.0,0.001288
1225.0,0.001341
1226.0,0.001349
1227.0,0.001225
1228.0,0.00135
1229.0,0.001337
1230.0,0.001306
1231.0,0.001348
1232.0,0.001335
1233.0,0.001275
1234.0,0.001336
1235.0,0.001322
1236.0,0.001328
1237.0,0.001302
1238.0,0.001315
1239.0,0.001294
1240.0,0.001295
1241.0,0.001282
1242.0,0.001277
1243.0,0.001263
1244.0,0.001267
1245.0,0.001268
1246.0,0.001257
1247.0,0.001248
1248.0,0.001241
1249.0,0.001242
1250.0,0.00123
1251.0,0.001209
1252.0,0.001207
1253.0,0.00119
1254.0,0.001172
1255.0,0.001194
1256.0,0.00115
1257.0,0.001139
1258.0,0.001162
1259.0,0.001107
1260.0,0.00111
1261.0,0.001034
1262.0,0.0009939
1263.0,0.0009926
1264.0,0.0009005
1265.0,0.0009809
1266.0,0.0009333
1267.0,0.0009522
1268.0,0.0008917
1269.0,0.0005046
1270.0,0.0009389
1271.0,0.001003
1272.0,0.001005
1273.0,0.0009898
1274.0,0.0009914
1275.0,0.001005
1276.0,0.001013
1277.0,0.001019
1278.0,0.00104
1279.0,0.001027
1280.0,0.001011
1281.0,0.0009637
1282.0,0.0009291
1283.0,0.0009968
1284.0,0.001017
1285.0,0.001021
1286.0,0.001033
1287.0,0.00101
1288.0,0.001008
1289.0,0.0009661
1290.0,0.000993
1291.0,0.001005
1292.0,0.0009278
1293.0,0.0009754
1294.0,0.0009645
1295.0,0.0009548
1296.0,0.0009
1297.0,0.0008408
1298.0,0.0009162
1299.0,0.0009595
1300.0,0.0007835
1301.0,0.0008108
1302.0,0.0009031
1303.0,0.0007672
1304.0,0.0006322
1305.0,0.0008729
1306.0,0.0008701
1307.0,0.000643
1308.0,0.0007568
1309.0,0.0008545
1310.0,0.0006234
1311.0,0.000714
1312.0,0.0006918
1313.0,0.0006724
1314.0,0.0005873
1315.0,0.0005788
1316.0,0.000691
1317.0,0.0006458
1318.0,0.0007114
1319.0,0.0005284
1320.0,0.0005089
1321.0,0.000607
1322.0,0.0006112
1323.0,0.0004359
1324.0,0.0005092
1325.0,0.0006606
1326.0,0.0005499
1327.0,0.0005184
1328.0,0.0004353
1329.0,0.0003112
1330.0,0.0004192
1331.0,0.0002335
1332.0,0.0002424
1333.0,0.0003509
1334.0,0.0002913
1335.0,0.000419
1336.0,0.000318
1337.0,0.0002752
1338.0,0.0003
1339.0,0.0002985
1340.0,0.0002888
1341.0,0.0002784
1342.0,0.0002936
1343.0,0.000186
1344.0,0.0001059
1345.0,0.0001577
1346.0,7.213e-05
1347.0,7.295e-05
1348.0,4.189e-06
1349.0,1.551e-05
1350.0,1.614e-05
1351.0,3.749e-06
1352.0,9.922e-07
1353.0,5.003e-08
1354.0,1.724e-07
1355.0,1.382e-09
1356.0,2.421e-08
1357.0,3.68e-08
1358.0,1.622e-09
1359.0,2.043e-10
1360.0,7.385e-10
1361.0,8.26e-13
1362.0,2.259e-15
1363.0,9.93e-10
1364.0,4.099e-10
