interpolation:linear
wavelength,value
280.0,9.713e-23
280.5,3.238e-21
281.0,1.746e-20
281.5,4.926e-19
282.0,5.309e-19
282.5,1.286e-18
283.0,4.031e-18
283.5,6.562e-18
284.0,1.082e-16
284.5,3.171e-16
285.0,5.783e-16
285.5,2.773e-15
286.0,1.111e-14
286.5,4.967e-14
287.0,1.423e-13
287.5,5.49e-13
288.0,1.932e-12
288.5,5.62e-12
289.0,1.464e-11
289.5,4.362e-11
290.0,1.204e-10
290.5,2.451e-10
291.0,5.257e-10
291.5,1.51e-09
292.0,3.058e-09
292.5,4.269e-09
293.0,9.103e-09
293.5,2.2e-08
294.0,3.432e-08
294.5,4.508e-08
295.0,7.608e-08
295.5,1.285e-07
296.0,2.447e-07
296.5,3.372e-07
297.0,4.503e-07
297.5,1.182e-06
298.0,1.825e-06
298.5,1.804e-06
299.0,3.904e-06
299.5,6.253e-06
300.0,6.722e-06
300.5,9.495e-06
301.0,1.644e-05
301.5,2.505e-05
302.0,2.09e-05
302.5,4.059e-05
303.0,7.279e-05
303.5,9.235e-05
304.0,8.9e-05
304.5,0.0001425
305.0,0.0002396
305.5,0.0002936
306.0,0.0002916
306.5,0.0003796
307.0,0.0006233
307.5,0.0009156
308.0,0.000982
308.5,0.001219
309.0,0.001445
309.5,0.001941
310.0,0.002098
310.5,0.003522
311.0,0.00469
311.5,0.004641
312.0,0.00528
312.5,0.006996
313.0,0.007929
313.5,0.007373
314.0,0.01021
314.5,0.01038
315.0,0.01395
315.5,0.0109
316.0,0.01063
316.5,0.01679
317.0,0.02078
317.5,0.021
318.0,0.01748
318.5,0.02461
319.0,0.03111
319.5,0.02282
320.0,0.0271
320.5,0.03859
321.0,0.03863
321.5,0.03742
322.0,0.03506
322.5,0.03065
323.0,0.03311
323.5,0.04467
324.0,0.05278
324.5,0.05165
325.0,0.042
325.5,0.05771
326.0,0.07309
326.5,0.07648
327.0,0.07483
327.5,0.07063
328.0,0.05912
328.5,0.06672
329.0,0.08459
329.5,0.09762
330.0,0.09689
330.5,0.07396
331.0,0.07408
331.5,0.07774
332.0,0.0881
332.5,0.08901
333.0,0.08745
333.5,0.07616
334.0,0.07743
334.5,0.09299
335.0,0.08941
335.5,0.1055
336.0,0.07289
336.5,0.08318
337.0,0.06692
337.5,0.08256
338.0,0.08334
338.5,0.09754
339.0,0.0965
339.5,0.09261
340.0,0.1071
340.5,0.09673
341.0,0.09527
341.5,0.08754
342.0,0.1045
342.5,0.09773
343.0,0.1071
343.5,0.1006
344.0,0.07341
344.5,0.07473
345.0,0.09896
345.5,0.101
346.0,0.08578
346.5,0.09703
347.0,0.1038
347.5,0.08376
348.0,0.0955
348.5,0.09542
349.0,0.08842
349.5,0.08737
350.0,0.1079
350.5,0.1136
351.0,0.1012
351.5,0.09795
352.0,0.1052
352.5,0.08203
353.0,0.1032
353.5,0.1103
354.0,0.1143
354.5,0.1157
355.0,0.1151
355.5,0.1038
356.0,0.1084
356.5,0.09242
357.0,0.07621
357.5,0.09315
358.0,0.0737
358.5,0.06287
359.0,0.08774
359.5,0.1115
360.0,0.118
360.5,0.09418
361.0,0.08573
361.5,0.09855
362.0,0.08508
362.5,0.1175
363.0,0.1054
363.5,0.09688
364.0,0.1183
364.5,0.1009
365.0,0.1025
365.5,0.1284
366.0,0.1358
366.5,0.1274
367.0,0.1238
367.5,0.1282
368.0,0.112
368.5,0.1128
369.0,0.1216
369.5,0.1293
370.0,0.1376
370.5,0.1066
371.0,0.1137
371.5,0.1419
372.0,0.09399
372.5,0.1125
373.0,0.1142
373.5,0.07414
374.0,0.1075
374.5,0.08885
375.0,0.08619
375.5,0.1284
376.0,0.1062
376.5,0.1099
377.0,0.1161
377.5,0.1355
378.0,0.1466
378.5,0.1382
379.0,0.1138
379.5,0.1037
380.0,0.1076
380.5,0.1301
381.0,0.13
381.5,0.1029
382.0,0.09114
382.5,0.07752
383.0,0.07161
383.5,0.06882
384.0,0.07575
384.5,0.1112
385.0,0.11
385.5,0.1022
386.0,0.08736
386.5,0.1145
387.0,0.09492
387.5,0.1064
388.0,0.09798
388.5,0.09664
389.0,0.1041
389.5,0.1258
390.0,0.1259
390.5,0.1156
391.0,0.1358
391.5,0.1382
392.0,0.1161
392.5,0.1037
393.0,0.05756
393.5,0.04175
394.0,0.08475
394.5,0.1075
395.0,0.1309
395.5,0.1326
396.0,0.1147
396.5,0.06691
397.0,0.05009
397.5,0.1016
398.0,0.142
398.5,0.1464
399.0,0.1582
399.5,0.1573
400.0,0.1629
401.0,0.1603
402.0,0.1682
403.0,0.159
404.0,0.1558
405.0,0.155
406.0,0.1517
407.0,0.1484
408.0,0.1534
409.0,0.1633
410.0,0.142
411.0,0.153
412.0,0.1635
413.0,0.1587
414.0,0.1598
415.0,0.1593
416.0,0.1612
417.0,0.1564
418.0,0.1527
419.0,0.1539
420.0,0.1523
421.0,0.1585
422.0,0.1497
423.0,0.1454
424.0,0.1528
425.0,0.1516
426.0,0.1469
427.0,0.1434
428.0,0.139
429.0,0.131
430.0,0.114
431.0,0.1123
432.0,0.1441
433.0,0.144
434.0,0.1329
435.0,0.1381
436.0,0.1548
437.0,0.1518
438.0,0.1374
439.0,0.1411
440.0,0.1447
441.0,0.1489
442.0,0.1586
443.0,0.1535
444.0,0.1561
445.0,0.1519
446.0,0.1443
447.0,0.1551
448.0,0.1565
449.0,0.1561
450.0,0.1593
451.0,0.1642
452.0,0.1573
453.0,0.1471
454.0,0.1528
455.0,0.1526
456.0,0.1552
457.0,0.1565
458.0,0.15
459.0,0.148
460.0,0.1472
461.0,0.1495
462.0,0.1498
463.0,0.1481
464.0,0.1451
465.0,0.1426
466.0,0.1432
467.0,0.1397
468.0,0.1402
469.0,0.1399
470.0,0.1345
471.0,0.1335
472.0,0.1399
473.0,0.1372
474.0,0.1365
475.0,0.1366
476.0,0.1314
477.0,0.1305
478.0,0.1329
479.0,0.1309
480.0,0.1299
481.0,0.1312
482.0,0.1309
483.0,0.1286
484.0,0.1254
485.0,0.119
486.0,0.1036
487.0,0.108
488.0,0.1177
489.0,0.1172
490.0,0.1224
491.0,0.1194
492.0,0.112
493.0,0.115
494.0,0.1154
495.0,0.1156
496.0,0.1155
497.0,0.1163
498.0,0.1099
499.0,0.1102
500.0,0.1058
501.0,0.1027
502.0,0.1001
503.0,0.1031
504.0,0.09936
505.0,0.1022
506.0,0.1048
507.0,0.09912
508.0,0.09558
509.0,0.09781
510.0,0.09681
511.0,0.09883
512.0,0.09921
513.0,0.09319
514.0,0.09182
515.0,0.09019
516.0,0.08928
517.0,0.07874
518.0,0.08217
519.0,0.08554
520.0,0.08793
521.0,0.08802
522.0,0.08731
523.0,0.08505
524.0,0.08725
525.0,0.08738
526.0,0.08267
527.0,0.07707
528.0,0.08067
529.0,0.08424
530.0,0.08229
531.0,0.08277
532.0,0.07928
533.0,0.0764
534.0,0.07815
535.0,0.07938
536.0,0.07964
537.0,0.07604
538.0,0.07687
539.0,0.0757
540.0,0.07204
541.0,0.07191
542.0,0.07351
543.0,0.07215
544.0,0.07284
545.0,0.07211
546.0,0.07186
547.0,0.07132
548.0,0.06997
549.0,0.06971
550.0,0.07005
551.0,0.0687
552.0,0.06868
553.0,0.06695
554.0,0.06804
555.0,0.06764
556.0,0.06622
557.0,0.06361
558.0,0.06253
559.0,0.06077
560.0,0.06095
561.0,0.06115
562.0,0.06012
563.0,0.06119
564.0,0.05902
565.0,0.05802
566.0,0.0567
567.0,0.05729
568.0,0.05627
569.0,0.05439
570.0,0.05398
571.0,0.05327
572.0,0.05405
573.0,0.05425
574.0,0.05374
575.0,0.05241
576.0,0.05166
577.0,0.05198
578.0,0.05099
579.0,0.05102
580.0,0.05185
581.0,0.05194
582.0,0.05273
583.0,0.05267
584.0,0.05292
585.0,0.05138
586.0,0.05003
587.0,0.05079
588.0,0.04912
589.0,0.04299
590.0,0.0447
591.0,0.04715
592.0,0.04611
593.0,0.04654
594.0,0.04577
595.0,0.04417
596.0,0.04576
597.0,0.04484
598.0,0.04441
599.0,0.04411
600.0,0.0439
601.0,0.0433
602.0,0.04275
603.0,0.04323
604.0,0.04374
605.0,0.04334
606.0,0.04302
607.0,0.04333
608.0,0.04273
609.0,0.04269
610.0,0.04228
611.0,0.0424
612.0,0.04217
613.0,0.04152
614.0,0.04084
615.0,0.04162
616.0,0.04013
617.0,0.03992
618.0,0.04133
619.0,0.04077
620.0,0.04086
621.0,0.04072
622.0,0.04006
623.0,0.03927
624.0,0.03844
625.0,0.03821
626.0,0.03862
627.0,0.03885
628.0,0.03555
629.0,0.03742
630.0,0.03639
631.0,0.03726
632.0,0.03672
633.0,0.03779
634.0,0.03736
635.0,0.03783
636.0,0.03723
637.0,0.03774
638.0,0.03802
639.0,0.03749
640.0,0.03703
641.0,0.03689
642.0,0.03663
643.0,0.03701
644.0,0.03678
645.0,0.03668
646.0,0.03561
647.0,0.0349
648.0,0.03479
649.0,0.03396
650.0,0.03419
651.0,0.03556
652.0,0.03373
653.0,0.03482
654.0,0.03431
655.0,0.03279
656.0,0.02902
657.0,0.0297
658.0,0.03323
659.0,0.03337
660.0,0.03339
661.0,0.03349
662.0,0.0334
663.0,0.03263
664.0,0.03295
665.0,0.03289
666.0,0.0328
667.0,0.03268
668.0,0.0326
669.0,0.03299
670.0,0.03272
671.0,0.0326
672.0,0.03223
673.0,0.03262
674.0,0.03238
675.0,0.03196
676.0,0.03206
677.0,0.03164
678.0,0.03162
679.0,0.03099
680.0,0.03112
681.0,0.03078
682.0,0.03061
683.0,0.03042
684.0,0.03013
685.0,0.03026
686.0,0.02994
687.0,0.01805
688.0,0.0217
689.0,0.02171
690.0,0.02295
691.0,0.0244
692.0,0.02549
693.0,0.02516
694.0,0.02487
695.0,0.02605
696.0,0.02598
697.0,0.02782
698.0,0.02727
699.0,0.02628
700.0,0.02584
701.0,0.0254
702.0,0.02556
703.0,0.02551
704.0,0.02634
705.0,0.02625
706.0,0.02616
707.0,0.02609
708.0,0.02602
709.0,0.02602
710.0,0.02585
711.0,0.02576
712.0,0.02562
713.0,0.02521
714.0,0.02518
715.0,0.02418
716.0,0.02407
717.0,0.02007
718.0,0.01824
719.0,0.01652
720.0,0.01723
721.0,0.01932
722.0,0.02254
723.0,0.02062
724.0,0.01819
725.0,0.01777
726.0,0.01859
727.0,0.01888
728.0,0.01748
729.0,0.01827
730.0,0.01926
731.0,0.01827
732.0,0.01972
733.0,0.02102
734.0,0.0215
735.0,0.02091
736.0,0.02079
737.0,0.02077
738.0,0.02118
739.0,0.02066
740.0,0.02115
741.0,0.02087
742.0,0.02082
743.0,0.02125
744.0,0.0211
745.0,0.02101
746.0,0.02101
747.0,0.02096
748.0,0.02081
749.0,0.02048
750.0,0.02039
751.0,0.0201
752.0,0.02011
753.0,0.02013
754.0,0.02009
755.0,0.01989
756.0,0.01981
757.0,0.01975
758.0,0.01941
759.0,0.01882
760.0,0.002633
761.0,0.001392
762.0,0.008267
763.0,0.003962
764.0,0.006003
765.0,0.008145
766.0,0.01031
767.0,0.01351
768.0,0.01615
769.0,0.01658
770.0,0.01726
771.0,0.01741
772.0,0.01739
773.0,0.01742
774.0,0.01724
775.0,0.01703
776.0,0.01715
777.0,0.01684
778.0,0.01664
779.0,0.01657
780.0,0.0164
781.0,0.01635
782.0,0.01639
783.0,0.01604
784.0,0.01606
785.0,0.01587
786.0,0.01598
787.0,0.01556
788.0,0.01527
789.0,0.01519
790.0,0.01462
791.0,0.01478
792.0,0.01462
793.0,0.01431
794.0,0.0146
795.0,0.01475
796.0,0.01409
797.0,0.01404
798.0,0.01453
799.0,0.01435
800.0,0.014
801.0,0.01386
802.0,0.01375
803.0,0.01357
804.0,0.01354
805.0,0.01347
806.0,0.01385
807.0,0.0136
808.0,0.01355
809.0,0.01318
810.0,0.01297
811.0,0.01287
812.0,0.01233
813.0,0.01197
814.0,0.01023
815.0,0.01012
816.0,0.009295
817.0,0.009443
818.0,0.009008
819.0,0.01024
820.0,0.009526
821.0,0.01145
822.0,0.01101
823.0,0.006978
824.0,0.0105
825.0,0.01106
826.0,0.01049
827.0,0.01115
828.0,0.009101
829.0,0.01032
830.0,0.01012
831.0,0.01012
832.0,0.009706
833.0,0.01046
834.0,0.009955
835.0,0.01111
836.0,0.01044
837.0,0.01105
838.0,0.01059
839.0,0.01079
840.0,0.011
841.0,0.01076
842.0,0.01078
843.0,0.01077
844.0,0.01055
845.0,0.01089
846.0,0.0108
847.0,0.01056
848.0,0.01043
849.0,0.01008
850.0,0.00961
851.0,0.0101
852.0,0.009986
853.0,0.009582
854.0,0.008222
855.0,0.009018
856.0,0.009808
857.0,0.01
858.0,0.009888
859.0,0.009865
860.0,0.009849
861.0,0.009756
862.0,0.009878
863.0,0.01008
864.0,0.009538
865.0,0.00942
866.0,0.008437
867.0,0.00877
868.0,0.009506
869.0,0.009273
870.0,0.009499
871.0,0.009332
872.0,0.009262
873.0,0.009205
874.0,0.009056
875.0,0.008832
876.0,0.008884
877.0,0.008937
878.0,0.008992
879.0,0.008817
880.0,0.008591
881.0,0.008417
882.0,0.00856
883.0,0.008561
884.0,0.00848
885.0,0.008504
886.0,0.008036
887.0,0.008115
888.0,0.008184
889.0,0.00827
890.0,0.008128
891.0,0.008101
892.0,0.007792
893.0,0.007467
894.0,0.007076
895.0,0.006541
896.0,0.00607
897.0,0.005051
898.0,0.005564
899.0,0.004043
900.0,0.005727
901.0,0.00424
902.0,0.005121
903.0,0.005102
904.0,0.006733
905.0,0.006429
906.0,0.005943
907.0,0.004591
908.0,0.004706
909.0,0.005167
910.0,0.004411
911.0,0.004779
912.0,0.004996
913.0,0.004419
914.0,0.004381
915.0,0.004757
916.0,0.003943
917.0,0.005178
918.0,0.004015
919.0,0.005265
920.0,0.005379
921.0,0.005605
922.0,0.004872
923.0,0.005378
924.0,0.004941
925.0,0.004808
926.0,0.004839
927.0,0.005503
928.0,0.003741
929.0,0.003344
930.0,0.002519
931.0,0.002368
932.0,0.00163
933.0,0.001296
934.0,0.0006767
935.0,0.001327
936.0,0.0007981
937.0,0.0008049
938.0,0.0009953
939.0,0.002214
940.0,0.002722
941.0,0.00197
942.0,0.002308
943.0,0.00145
944.0,0.001553
945.0,0.002006
946.0,0.0009563
947.0,0.001989
948.0,0.001431
949.0,0.002735
950.0,0.0006762
951.0,0.002676
952.0,0.001339
953.0,0.001772
954.0,0.002232
955.0,0.001788
956.0,0.001765
957.0,0.001314
958.0,0.002581
959.0,0.001957
960.0,0.002202
961.0,0.002525
962.0,0.00237
963.0,0.002794
964.0,0.00252
965.0,0.002758
966.0,0.002746
967.0,0.002714
968.0,0.00392
969.0,0.004064
970.0,0.003669
971.0,0.004341
972.0,0.00409
973.0,0.00341
974.0,0.003207
975.0,0.003349
976.0,0.003105
977.0,0.003673
978.0,0.003412
979.0,0.003602
980.0,0.003339
981.0,0.004153
982.0,0.003902
983.0,0.003701
984.0,0.004296
985.0,0.003841
986.0,0.004378
987.0,0.004236
988.0,0.004212
989.0,0.004339
990.0,0.004154
991.0,0.004304
992.0,0.004319
993.0,0.004168
994.0,0.004293
995.0,0.004279
996.0,0.004237
997.0,0.004232
998.0,0.004194
999.0,0.004166
1000.0,0.004111
1001.0,0.004159
1002.0,0.003984
1003.0,0.004052
1004.0,0.003925
1005.0,0.003783
1006.0,0.003907
1007.0,0.003978
1008.0,0.003934
1009.0,0.00389
1010.0,0.003855
1011.0,0.0039
1012.0,0.003843
1013.0,0.003864
1014.0,0.003823
1015.0,0.003782
1016.0,0.003749
1017.0,0.003743
1018.0,0.00372
1019.0,0.00361
1020.0,0.003669
1021.0,0.003652
1022.0,0.003604
1023.0,0.003628
1024.0,0.003552
1025.0,0.003604
1026.0,0.003571
1027.0,0.00355
1028.0,0.003528
1029.0,0.003472
1030.0,0.003489
1031.0,0.003459
1032.0,0.003438
1033.0,0.003372
1034.0,0.00336
1035.0,0.003358
1036.0,0.00336
1037.0,0.003294
1038.0,0.003296
1039.0,0.003281
1040.0,0.003255
1041.0,0.003255
1042.0,0.003219
1043.0,0.003197
1044.0,0.003195
1045.0,0.003139
1046.0,0.003091
1047.0,0.003106
1048.0,0.003111
1049.0,0.003088
1050.0,0.003061
1051.0,0.003044
1052.0,0.003019
1053.0,0.002983
1054.0,0.002977
1055.0,0.002966
1056.0,0.002942
1057.0,0.00292
1058.0,0.002836
1059.0,0.002827
1060.0,0.002811
1061.0,0.002796
1062.0,0.002798
1063.0,0.002759
1064.0,0.002782
1065.0,0.002747
1066.0,0.002687
1067.0,0.00271
1068.0,0.002637
1069.0,0.002549
1070.0,0.002623
1071.0,0.002666
1072.0,0.002616
1073.0,0.002572
1074.0,0.002642
1075.0,0.002469
1076.0,0.002619
1077.0,0.002544
1078.0,0.002479
1079.0,0.002555
1080.0,0.002475
1081.0,0.002374
1082.0,0.002431
1083.0,0.002437
1084.0,0.002334
1085.0,0.002441
1086.0,0.002169
1087.0,0.002268
1088.0,0.002385
1089.0,0.002272
1090.0,0.002194
1091.0,0.002342
1092.0,0.002334
1093.0,0.001888
1094.0,0.00211
1095.0,0.001963
1096.0,0.00185
1097.0,0.002242
1098.0,0.001799
1099.0,0.001881
1100.0,0.00171
1101.0,0.001737
1102.0,0.001634
1103.0,0.001599
1104.0,0.001598
1105.0,0.001792
1106.0,0.001265
1107.0,0.001669
1108.0,0.001348
1109.0,0.001351
1110.0,0.001625
1111.0,0.001013
1112.0,0.001329
1113.0,0.0007744
1114.0,0.000869
1115.0,0.0007069
1116.0,0.0005404
1117.0,0.0001831
1118.0,0.0005893
1119.0,0.0002748
1120.0,0.0003453
1121.0,0.0004649
1122.0,0.0001852
1123.0,0.0003082
1124.0,0.0002582
1125.0,0.0003402
1126.0,0.000111
1127.0,0.0003827
1128.0,0.0002189
1129.0,0.0002323
1130.0,0.0001503
1131.0,0.000761
1132.0,0.000582
1133.0,0.0003495
1134.0,8.379e-05
1135.0,3.132e-05
1136.0,0.0002838
1137.0,0.0007259
1138.0,0.0004988
1139.0,0.0007931
1140.0,0.0006389
1141.0,0.0004686
1142.0,0.0005459
1143.0,0.0008038
1144.0,0.0002552
1145.0,0.0003229
1146.0,0.0003475
1147.0,0.0001152
1148.0,0.000675
1149.0,0.0005219
1150.0,0.0002715
1151.0,0.000473
1152.0,0.0005965
1153.0,0.0005874
1154.0,0.0003038
1155.0,0.0007852
1156.0,0.0006923
1157.0,0.0007977
1158.0,0.0007852
1159.0,0.0008582
1160.0,0.0007169
1161.0,0.0009194
1162.0,0.0009162
1163.0,0.001321
1164.0,0.001094
1165.0,0.001006
1166.0,0.00101
1167.0,0.001112
1168.0,0.001119
1169.0,0.001151
1170.0,0.001271
1171.0,0.001231
1172.0,0.001263
1173.0,0.001255
1174.0,0.0008347
1175.0,0.00123
1176.0,0.001382
1177.0,0.0013
1178.0,0.0009207
1179.0,0.00138
1180.0,0.001187
1181.0,0.001226
1182.0,0.0007873
1183.0,0.001208
1184.0,0.001106
1185.0,0.00105
1186.0,0.001296
1187.0,0.001213
1188.0,0.000783
1189.0,0.001117
1190.0,0.00125
1191.0,0.001155
1192.0,0.001263
1193.0,0.001194
1194.0,0.001236
1195.0,0.001146
1196.0,0.001088
1197.0,0.001236
1198.0,0.001112
1199.0,0.0009017
1200.0,0.001155
1201.0,0.001095
1202.0,0.001095
1203.0,0.00108
1204.0,0.0009159
1205.0,0.001121
1206.0,0.001264
1207.0,0.001073
1208.0,0.001065
1209.0,0.001085
1210.0,0.001138
1211.0,0.001064
1212.0,0.00103
1213.0,0.001185
1214.0,0.001056
1215.0,0.00103
1216.0,0.001172
1217.0,0.001129
1218.0,0.001154
1219.0,0.001132
1220.0,0.001149
1221.0,0.001162
1222.0,0.001123
1223.0,0.001105
1224.0,0.001088
1225.0,0.001138
1226.0,0.001148
1227.0,0.001034
1228.0,0.001151
1229.0,0.001138
1230.0,0.00111
1231.0,0.001152
1232.0,0.001141
1233.0,0.001081
1234.0,0.001144
1235.0,0.00113
1236.0,0.001137
1237.0,0.001111
1238.0,0.001126
1239.0,0.001108
1240.0,0.001109
1241.0,0.001096
1242.0,0.001094
1243.0,0.001082
1244.0,0.001084
1245.0,0.001086
1246.0,0.001077
1247.0,0.001068
1248.0,0.001061
1249.0,0.001063
1250.0,0.001052
1251.0,0.001032
1252.0,0.001033
1253.0,0.001015
1254.0,0.0009969
1255.0,0.00102
1256.0,0.0009771
1257.0,0.0009664
1258.0,0.0009903
1259.0,0.0009344
1260.0,0.0009386
1261.0,0.0008634
1262.0,0.0008253
1263.0,0.000824
1264.0,0.000738
1265.0,0.0008143
1266.0,0.0007689
1267.0,0.0007884
1268.0,0.0007322
1269.0,0.000399
1270.0,0.0007755
1271.0,0.0008387
1272.0,0.0008407
1273.0,0.000827
1274.0,0.0008299
1275.0,0.0008428
1276.0,0.0008521
1277.0,0.0008597
1278.0,0.0008813
1279.0,0.0008704
1280.0,0.0008569
1281.0,0.0008189
1282.0,0.0007928
1283.0,0.0008499
1284.0,0.0008663
1285.0,0.0008703
1286.0,0.0008828
1287.0,0.0008601
1288.0,0.0008591
1289.0,0.0008173
1290.0,0.0008467
1291.0,0.000858
1292.0,0.000782
1293.0,0.0008307
1294.0,0.0008212
1295.0,0.0008084
1296.0,0.0007567
1297.0,0.0007041
1298.0,0.0007752
1299.0,0.0008181
1300.0,0.0006568
1301.0,0.0006807
1302.0,0.0007644
1303.0,0.0006442
1304.0,0.000523
1305.0,0.0007389
1306.0,0.0007343
1307.0,0.0005359
1308.0,0.000638
1309.0,0.000718
1310.0,0.0005184
1311.0,0.0005998
1312.0,0.00058
1313.0,0.0005605
1314.0,0.0004884
1315.0,0.0004785
1316.0,0.0005781
1317.0,0.0005399
1318.0,0.0005976
1319.0,0.0004366
1320.0,0.0004234
1321.0,0.0005054
1322.0,0.0005058
1323.0,0.0003578
1324.0,0.000422
1325.0,0.0005508
1326.0,0.0004561
1327.0,0.0004293
1328.0,0.0003602
1329.0,0.0002557
1330.0,0.0003424
1331.0,0.0001924
1332.0,0.0002001
1333.0,0.0002837
1334.0,0.000243
1335.0,0.0003425
1336.0,0.0002606
1337.0,0.0002274
1338.0,0.0002459
1339.0,0.000245
1340.0,0.0002394
1341.0,0.0002272
1342.0,0.0002394
1343.0,0.0001527
1344.0,9.046e-05
1345.0,0.0001307
1346.0,6.224e-05
1347.0,6.288e-05
1348.0,4e-06
1349.0,1.437e-05
1350.0,1.49e-05
1351.0,3.594e-06
1352.0,9.665e-07
1353.0,4.919e-08
1354.0,1.691e-07
