interpolation:linear
wavelength,value
280.0,7.968e-23
280.5,2.663e-21
281.0,1.438e-20
281.5,4.647e-19
282.0,5.182e-19
282.5,1.241e-18
283.0,3.875e-18
283.5,6.302e-18
284.0,1.037e-16
284.5,3.04e-16
285.0,5.94e-16
285.5,2.776e-15
286.0,1.108e-14
286.5,4.918e-14
287.0,1.406e-13
287.5,5.411e-13
288.0,1.872e-12
288.5,5.409e-12
289.0,1.404e-11
289.5,4.175e-11
290.0,1.152e-10
290.5,2.345e-10
291.0,5.032e-10
291.5,1.446e-09
292.0,2.942e-09
292.5,4.101e-09
293.0,8.73e-09
293.5,2.106e-08
294.0,3.283e-08
294.5,4.238e-08
295.0,7.143e-08
295.5,1.214e-07
296.0,2.299e-07
296.5,3.152e-07
297.0,4.189e-07
297.5,1.092e-06
298.0,1.674e-06
298.5,1.645e-06
299.0,3.541e-06
299.5,5.613e-06
300.0,5.999e-06
300.5,8.421e-06
301.0,1.443e-05
301.5,2.179e-05
302.0,1.809e-05
302.5,3.49e-05
303.0,6.204e-05
303.5,7.83e-05
304.0,7.526e-05
304.5,0.0001197
305.0,0.0001995
305.5,0.0002432
306.0,0.0002411
306.5,0.0003128
307.0,0.0005101
307.5,0.0007447
308.0,0.000798
308.5,0.0009874
309.0,0.001165
309.5,0.001584
310.0,0.001722
310.5,0.0029
311.0,0.00388
311.5,0.003849
312.0,0.004426
312.5,0.005907
313.0,0.006721
313.5,0.006228
314.0,0.008701
314.5,0.008945
315.0,0.01206
315.5,0.009367
316.0,0.009223
316.5,0.01469
317.0,0.01818
317.5,0.01833
318.0,0.01534
318.5,0.02184
319.0,0.02775
319.5,0.02019
320.0,0.02395
320.5,0.03448
321.0,0.03485
321.5,0.0338
322.0,0.03134
322.5,0.02742
323.0,0.02982
323.5,0.04086
324.0,0.04836
324.5,0.04715
325.0,0.0379
325.5,0.05237
326.0,0.06708
326.5,0.07052
327.0,0.06889
327.5,0.06489
328.0,0.05397
328.5,0.0614
329.0,0.0783
329.5,0.09053
330.0,0.08974
330.5,0.06821
331.0,0.06822
331.5,0.07185
332.0,0.0818
332.5,0.08283
333.0,0.08129
333.5,0.07058
334.0,0.07172
334.5,0.08648
335.0,0.08333
335.5,0.09845
336.0,0.06803
336.5,0.07748
337.0,0.06225
337.5,0.07676
338.0,0.07773
338.5,0.09115
339.0,0.09022
339.5,0.08658
340.0,0.09998
340.5,0.09033
341.0,0.08912
341.5,0.08196
342.0,0.09791
342.5,0.09156
343.0,0.1003
343.5,0.0942
344.0,0.06864
344.5,0.06997
345.0,0.09274
345.5,0.0947
346.0,0.08046
346.5,0.09104
347.0,0.09739
347.5,0.07858
348.0,0.08965
348.5,0.0896
349.0,0.08306
349.5,0.08208
350.0,0.1014
350.5,0.1068
351.0,0.09509
351.5,0.092
352.0,0.09883
352.5,0.07712
353.0,0.09708
353.5,0.1037
354.0,0.1076
354.5,0.1089
355.0,0.1083
355.5,0.09771
356.0,0.1021
356.5,0.08704
357.0,0.07178
357.5,0.08775
358.0,0.06944
358.5,0.05925
359.0,0.0827
359.5,0.1051
360.0,0.1112
360.5,0.08881
361.0,0.08085
361.5,0.09297
362.0,0.08027
362.5,0.1109
363.0,0.09945
363.5,0.09145
364.0,0.1116
364.5,0.09525
365.0,0.09683
365.5,0.1213
366.0,0.1283
366.5,0.1204
367.0,0.117
367.5,0.1212
368.0,0.1059
368.5,0.1066
369.0,0.1149
369.5,0.1223
370.0,0.1301
370.5,0.1008
371.0,0.1075
371.5,0.1343
372.0,0.08897
372.5,0.1065
373.0,0.1081
373.5,0.07021
374.0,0.1018
374.5,0.08416
375.0,0.08166
375.5,0.1217
376.0,0.1007
376.5,0.1041
377.0,0.11
377.5,0.1285
378.0,0.139
378.5,0.1311
379.0,0.108
379.5,0.09842
380.0,0.1021
380.5,0.1234
381.0,0.1234
381.5,0.09765
382.0,0.08654
382.5,0.07362
383.0,0.06802
383.5,0.06538
384.0,0.07198
384.5,0.1057
385.0,0.1046
385.5,0.09718
386.0,0.08305
386.5,0.1089
387.0,0.09027
387.5,0.1012
388.0,0.09321
388.5,0.09195
389.0,0.09904
389.5,0.1197
390.0,0.1199
390.5,0.1101
391.0,0.1293
391.5,0.1316
392.0,0.1106
392.5,0.09878
393.0,0.05485
393.5,0.03978
394.0,0.08078
394.5,0.1025
395.0,0.1248
395.5,0.1265
396.0,0.1094
396.5,0.06382
397.0,0.04779
397.5,0.09696
398.0,0.1355
398.5,0.1397
399.0,0.151
399.5,0.1501
400.0,0.1555
401.0,0.153
402.0,0.1607
403.0,0.1519
404.0,0.1489
405.0,0.1482
406.0,0.1451
407.0,0.142
408.0,0.1468
409.0,0.1563
410.0,0.1359
411.0,0.1465
412.0,0.1566
413.0,0.152
414.0,0.1531
415.0,0.1527
416.0,0.1546
417.0,0.15
418.0,0.1464
419.0,0.1476
420.0,0.1462
421.0,0.1521
422.0,0.1438
423.0,0.1396
424.0,0.1468
425.0,0.1457
426.0,0.1412
427.0,0.1378
428.0,0.1336
429.0,0.126
430.0,0.1097
431.0,0.108
432.0,0.1386
433.0,0.1386
434.0,0.128
435.0,0.133
436.0,0.1491
437.0,0.1463
438.0,0.1324
439.0,0.136
440.0,0.1394
441.0,0.1435
442.0,0.1529
443.0,0.1481
444.0,0.1505
445.0,0.1466
446.0,0.1393
447.0,0.1498
448.0,0.1511
449.0,0.1507
450.0,0.1539
451.0,0.1586
452.0,0.152
453.0,0.1422
454.0,0.1477
455.0,0.1475
456.0,0.15
457.0,0.1514
458.0,0.145
459.0,0.1431
460.0,0.1424
461.0,0.1446
462.0,0.1449
463.0,0.1433
464.0,0.1404
465.0,0.1381
466.0,0.1387
467.0,0.1353
468.0,0.1358
469.0,0.1355
470.0,0.1303
471.0,0.1294
472.0,0.1356
473.0,0.133
474.0,0.1323
475.0,0.1324
476.0,0.1274
477.0,0.1266
478.0,0.1289
479.0,0.1269
480.0,0.126
481.0,0.1272
482.0,0.1269
483.0,0.1247
484.0,0.1216
485.0,0.1154
486.0,0.1005
487.0,0.1048
488.0,0.1143
489.0,0.1138
490.0,0.1189
491.0,0.116
492.0,0.1088
493.0,0.1117
494.0,0.1121
495.0,0.1123
496.0,0.1122
497.0,0.113
498.0,0.1068
499.0,0.107
500.0,0.1029
501.0,0.09992
502.0,0.09738
503.0,0.1002
504.0,0.09661
505.0,0.09936
506.0,0.1019
507.0,0.0964
508.0,0.09297
509.0,0.09515
510.0,0.0942
511.0,0.09617
512.0,0.09655
513.0,0.09069
514.0,0.08936
515.0,0.08778
516.0,0.08689
517.0,0.07663
518.0,0.07998
519.0,0.08325
520.0,0.08558
521.0,0.08566
522.0,0.08497
523.0,0.08277
524.0,0.08489
525.0,0.08501
526.0,0.08042
527.0,0.07496
528.0,0.07845
529.0,0.08191
530.0,0.08001
531.0,0.08047
532.0,0.07707
533.0,0.07427
534.0,0.07597
535.0,0.07718
536.0,0.07744
537.0,0.07394
538.0,0.07475
539.0,0.07361
540.0,0.07006
541.0,0.06992
542.0,0.07148
543.0,0.07016
544.0,0.07081
545.0,0.07011
546.0,0.06986
547.0,0.06933
548.0,0.06803
549.0,0.06778
550.0,0.0681
551.0,0.06679
552.0,0.06677
553.0,0.06509
554.0,0.06614
555.0,0.06575
556.0,0.06437
557.0,0.06183
558.0,0.06078
559.0,0.05906
560.0,0.05922
561.0,0.05942
562.0,0.0584
563.0,0.05943
564.0,0.05732
565.0,0.05635
566.0,0.05507
567.0,0.05563
568.0,0.05463
569.0,0.05281
570.0,0.05241
571.0,0.05171
572.0,0.05247
573.0,0.05266
574.0,0.05216
575.0,0.05088
576.0,0.05015
577.0,0.05046
578.0,0.04951
579.0,0.04955
580.0,0.05036
581.0,0.05046
582.0,0.05124
583.0,0.05118
584.0,0.05143
585.0,0.04994
586.0,0.04863
587.0,0.04937
588.0,0.04775
589.0,0.04178
590.0,0.04344
591.0,0.04582
592.0,0.04481
593.0,0.04522
594.0,0.04447
595.0,0.04291
596.0,0.04446
597.0,0.04356
598.0,0.04313
599.0,0.04284
600.0,0.04264
601.0,0.04205
602.0,0.04152
603.0,0.04199
604.0,0.04249
605.0,0.0421
606.0,0.0418
607.0,0.04211
608.0,0.04153
609.0,0.0415
610.0,0.04111
611.0,0.04124
612.0,0.04102
613.0,0.0404
614.0,0.03974
615.0,0.04051
616.0,0.03907
617.0,0.03887
618.0,0.04024
619.0,0.03971
620.0,0.0398
621.0,0.03967
622.0,0.03903
623.0,0.03826
624.0,0.03746
625.0,0.03723
626.0,0.03764
627.0,0.03786
628.0,0.03464
629.0,0.03647
630.0,0.03547
631.0,0.03633
632.0,0.03581
633.0,0.03686
634.0,0.03645
635.0,0.03691
636.0,0.03634
637.0,0.03684
638.0,0.03712
639.0,0.03661
640.0,0.03616
641.0,0.03603
642.0,0.03578
643.0,0.03615
644.0,0.03594
645.0,0.03584
646.0,0.0348
647.0,0.0341
648.0,0.034
649.0,0.03319
650.0,0.03342
651.0,0.03477
652.0,0.03298
653.0,0.03405
654.0,0.03356
655.0,0.03207
656.0,0.02839
657.0,0.02906
658.0,0.03252
659.0,0.03266
660.0,0.03268
661.0,0.03278
662.0,0.03269
663.0,0.03195
664.0,0.03226
665.0,0.0322
666.0,0.03213
667.0,0.03201
668.0,0.03194
669.0,0.03232
670.0,0.03206
671.0,0.03195
672.0,0.03159
673.0,0.03198
674.0,0.03174
675.0,0.03133
676.0,0.03143
677.0,0.03102
678.0,0.03101
679.0,0.03039
680.0,0.03052
681.0,0.03019
682.0,0.03002
683.0,0.02984
684.0,0.02955
685.0,0.02968
686.0,0.02938
687.0,0.01768
688.0,0.02125
689.0,0.02127
690.0,0.02248
691.0,0.02391
692.0,0.02499
693.0,0.02467
694.0,0.0244
695.0,0.02556
696.0,0.0255
697.0,0.02731
698.0,0.02677
699.0,0.0258
700.0,0.02537
701.0,0.02493
702.0,0.02509
703.0,0.02505
704.0,0.02586
705.0,0.02578
706.0,0.0257
707.0,0.02562
708.0,0.02556
709.0,0.02556
710.0,0.0254
711.0,0.0253
712.0,0.02517
713.0,0.02476
714.0,0.02474
715.0,0.02375
716.0,0.02364
717.0,0.01971
718.0,0.01791
719.0,0.01623
720.0,0.01692
721.0,0.01898
722.0,0.02214
723.0,0.02025
724.0,0.01787
725.0,0.01745
726.0,0.01826
727.0,0.01855
728.0,0.01718
729.0,0.01796
730.0,0.01892
731.0,0.01795
732.0,0.01938
733.0,0.02066
734.0,0.02113
735.0,0.02056
736.0,0.02043
737.0,0.02041
738.0,0.02082
739.0,0.02031
740.0,0.0208
741.0,0.02053
742.0,0.02048
743.0,0.0209
744.0,0.02075
745.0,0.02067
746.0,0.02066
747.0,0.02062
748.0,0.02047
749.0,0.02015
750.0,0.02006
751.0,0.01978
752.0,0.01979
753.0,0.01981
754.0,0.01977
755.0,0.01958
756.0,0.01949
757.0,0.01944
758.0,0.01911
759.0,0.01852
760.0,0.002608
761.0,0.001382
762.0,0.008129
763.0,0.003917
764.0,0.005917
765.0,0.00801
766.0,0.01012
767.0,0.01327
768.0,0.01588
769.0,0.01631
770.0,0.01698
771.0,0.01713
772.0,0.01711
773.0,0.01715
774.0,0.01697
775.0,0.01676
776.0,0.01688
777.0,0.01657
778.0,0.01638
779.0,0.01631
780.0,0.01615
781.0,0.01609
782.0,0.01613
783.0,0.01579
784.0,0.01581
785.0,0.01563
786.0,0.01573
787.0,0.01532
788.0,0.01503
789.0,0.01495
790.0,0.01439
791.0,0.01455
792.0,0.0144
793.0,0.01409
794.0,0.01438
795.0,0.01453
796.0,0.01387
797.0,0.01382
798.0,0.01431
799.0,0.01413
800.0,0.01378
801.0,0.01364
802.0,0.01354
803.0,0.01335
804.0,0.01333
805.0,0.01326
806.0,0.01364
807.0,0.01339
808.0,0.01334
809.0,0.01297
810.0,0.01277
811.0,0.01267
812.0,0.01213
813.0,0.01178
814.0,0.01006
815.0,0.009961
816.0,0.009148
817.0,0.009292
818.0,0.008863
819.0,0.01008
820.0,0.009375
821.0,0.01127
822.0,0.01084
823.0,0.00687
824.0,0.01034
825.0,0.01089
826.0,0.01032
827.0,0.01098
828.0,0.008959
829.0,0.01016
830.0,0.009967
831.0,0.009964
832.0,0.009557
833.0,0.0103
834.0,0.009803
835.0,0.01095
836.0,0.01028
837.0,0.01088
838.0,0.01043
839.0,0.01063
840.0,0.01083
841.0,0.0106
842.0,0.01062
843.0,0.01061
844.0,0.01039
845.0,0.01073
846.0,0.01064
847.0,0.01041
848.0,0.01027
849.0,0.009929
850.0,0.009468
851.0,0.009947
852.0,0.009837
853.0,0.009439
854.0,0.008099
855.0,0.008884
856.0,0.009662
857.0,0.009856
858.0,0.009741
859.0,0.00972
860.0,0.009704
861.0,0.009613
862.0,0.009734
863.0,0.00993
864.0,0.0094
865.0,0.009283
866.0,0.008315
867.0,0.008643
868.0,0.009369
869.0,0.009139
870.0,0.009362
871.0,0.009197
872.0,0.009128
873.0,0.009073
874.0,0.008926
875.0,0.008705
876.0,0.008756
877.0,0.008809
878.0,0.008863
879.0,0.00869
880.0,0.008468
881.0,0.008295
882.0,0.008436
883.0,0.008437
884.0,0.008357
885.0,0.008381
886.0,0.007919
887.0,0.007997
888.0,0.008065
889.0,0.00815
890.0,0.00801
891.0,0.007983
892.0,0.007678
893.0,0.007357
894.0,0.006969
895.0,0.00644
896.0,0.005977
897.0,0.004974
898.0,0.005477
899.0,0.003983
900.0,0.005639
901.0,0.004175
902.0,0.005041
903.0,0.005022
904.0,0.00663
905.0,0.006331
906.0,0.005853
907.0,0.00452
908.0,0.004635
909.0,0.005087
910.0,0.004344
911.0,0.004708
912.0,0.004919
913.0,0.004352
914.0,0.004315
915.0,0.004682
916.0,0.003884
917.0,0.005097
918.0,0.003954
919.0,0.005183
920.0,0.005299
921.0,0.005518
922.0,0.004798
923.0,0.005296
924.0,0.004863
925.0,0.004733
926.0,0.004763
927.0,0.005415
928.0,0.003683
929.0,0.003292
930.0,0.002482
931.0,0.002333
932.0,0.001609
933.0,0.00128
934.0,0.0006709
935.0,0.00131
936.0,0.0007901
937.0,0.0007969
938.0,0.0009845
939.0,0.002181
940.0,0.002679
941.0,0.001942
942.0,0.002272
943.0,0.001431
944.0,0.001532
945.0,0.001977
946.0,0.0009455
947.0,0.00196
948.0,0.001412
949.0,0.002692
950.0,0.0006699
951.0,0.002633
952.0,0.001322
953.0,0.001747
954.0,0.002198
955.0,0.001763
956.0,0.001742
957.0,0.001298
958.0,0.002542
959.0,0.001929
960.0,0.00217
961.0,0.002487
962.0,0.002335
963.0,0.002751
964.0,0.002482
965.0,0.002715
966.0,0.002704
967.0,0.002672
968.0,0.003862
969.0,0.004
970.0,0.003613
971.0,0.004275
972.0,0.004028
973.0,0.003357
974.0,0.003158
975.0,0.003297
976.0,0.003056
977.0,0.003618
978.0,0.00336
979.0,0.003547
980.0,0.003288
981.0,0.00409
982.0,0.003843
983.0,0.003644
984.0,0.004232
985.0,0.003782
986.0,0.004315
987.0,0.004175
988.0,0.004151
989.0,0.004277
990.0,0.004093
991.0,0.004242
992.0,0.004256
993.0,0.004108
994.0,0.004231
995.0,0.004218
996.0,0.004177
997.0,0.004172
998.0,0.004135
999.0,0.004107
1000.0,0.004052
1001.0,0.0041
1002.0,0.003926
1003.0,0.003994
1004.0,0.003869
1005.0,0.003729
1006.0,0.003851
1007.0,0.003922
1008.0,0.003878
1009.0,0.003835
1010.0,0.003799
1011.0,0.003845
1012.0,0.003788
1013.0,0.00381
1014.0,0.003769
1015.0,0.003729
1016.0,0.003696
1017.0,0.00369
1018.0,0.003667
1019.0,0.003558
1020.0,0.003617
1021.0,0.003601
1022.0,0.003553
1023.0,0.003577
1024.0,0.003501
1025.0,0.003554
1026.0,0.00352
1027.0,0.0035
1028.0,0.003478
1029.0,0.003423
1030.0,0.00344
1031.0,0.00341
1032.0,0.003389
1033.0,0.003325
1034.0,0.003313
1035.0,0.00331
1036.0,0.003313
1037.0,0.003247
1038.0,0.003249
1039.0,0.003235
1040.0,0.003209
1041.0,0.003208
1042.0,0.003174
1043.0,0.003151
1044.0,0.00315
1045.0,0.003094
1046.0,0.003047
1047.0,0.003062
1048.0,0.003067
1049.0,0.003044
1050.0,0.003017
1051.0,0.003001
1052.0,0.002976
1053.0,0.00294
1054.0,0.002934
1055.0,0.002923
1056.0,0.002899
1057.0,0.002878
1058.0,0.002795
1059.0,0.002786
1060.0,0.00277
1061.0,0.002755
1062.0,0.002757
1063.0,0.002719
1064.0,0.002742
1065.0,0.002707
1066.0,0.002647
1067.0,0.00267
1068.0,0.002599
1069.0,0.002512
1070.0,0.002584
1071.0,0.002627
1072.0,0.002578
1073.0,0.002534
1074.0,0.002604
1075.0,0.002432
1076.0,0.002581
1077.0,0.002507
1078.0,0.002443
1079.0,0.002518
1080.0,0.002439
1081.0,0.002339
1082.0,0.002396
1083.0,0.002402
1084.0,0.002299
1085.0,0.002406
1086.0,0.002137
1087.0,0.002235
1088.0,0.00235
1089.0,0.002238
1090.0,0.002162
1091.0,0.002309
1092.0,0.0023
1093.0,0.00186
1094.0,0.00208
1095.0,0.001933
1096.0,0.001822
1097.0,0.002209
1098.0,0.001771
1099.0,0.001852
1100.0,0.001684
1101.0,0.00171
1102.0,0.001609
1103.0,0.001574
1104.0,0.001573
1105.0,0.001764
1106.0,0.001246
1107.0,0.001643
1108.0,0.001327
1109.0,0.001329
1110.0,0.001599
1111.0,0.0009977
1112.0,0.001308
1113.0,0.0007634
1114.0,0.0008561
1115.0,0.0006969
1116.0,0.0005335
1117.0,0.0001818
1118.0,0.0005814
1119.0,0.0002722
1120.0,0.0003417
1121.0,0.0004593
1122.0,0.0001838
1123.0,0.0003051
1124.0,0.0002558
1125.0,0.0003366
1126.0,0.0001104
1127.0,0.0003784
1128.0,0.0002172
1129.0,0.0002304
1130.0,0.0001492
1131.0,0.0007495
1132.0,0.000574
1133.0,0.0003458
1134.0,8.335e-05
1135.0,3.118e-05
1136.0,0.0002812
1137.0,0.0007152
1138.0,0.0004922
1139.0,0.0007807
1140.0,0.0006296
1141.0,0.0004625
1142.0,0.0005383
1143.0,0.0007912
1144.0,0.0002526
1145.0,0.0003195
1146.0,0.0003437
1147.0,0.0001145
1148.0,0.0006648
1149.0,0.0005147
1150.0,0.0002687
1151.0,0.0004668
1152.0,0.0005878
1153.0,0.0005789
1154.0,0.0003007
1155.0,0.0007728
1156.0,0.0006817
1157.0,0.0007855
1158.0,0.0007732
1159.0,0.0008444
1160.0,0.0007065
1161.0,0.0009052
1162.0,0.0009021
1163.0,0.0013
1164.0,0.001077
1165.0,0.00099
1166.0,0.0009943
1167.0,0.001095
1168.0,0.001102
1169.0,0.001133
1170.0,0.001251
1171.0,0.001212
1172.0,0.001244
1173.0,0.001236
1174.0,0.0008225
1175.0,0.001211
1176.0,0.001362
1177.0,0.001281
1178.0,0.0009075
1179.0,0.00136
1180.0,0.001169
1181.0,0.001208
1182.0,0.0007758
1183.0,0.001189
1184.0,0.001089
1185.0,0.001034
1186.0,0.001276
1187.0,0.001194
1188.0,0.0007711
1189.0,0.0011
1190.0,0.001232
1191.0,0.001137
1192.0,0.001245
1193.0,0.001176
1194.0,0.001218
1195.0,0.001128
1196.0,0.001072
1197.0,0.001218
1198.0,0.001096
1199.0,0.0008881
1200.0,0.001138
1201.0,0.001078
1202.0,0.001079
1203.0,0.001064
1204.0,0.0009023
1205.0,0.001105
1206.0,0.001246
1207.0,0.001057
1208.0,0.00105
1209.0,0.001069
1210.0,0.001121
1211.0,0.001049
1212.0,0.001014
1213.0,0.001168
1214.0,0.00104
1215.0,0.001014
1216.0,0.001155
1217.0,0.001112
1218.0,0.001137
1219.0,0.001115
1220.0,0.001132
1221.0,0.001145
1222.0,0.001107
1223.0,0.001089
1224.0,0.001071
1225.0,0.001122
1226.0,0.001132
1227.0,0.001018
1228.0,0.001135
1229.0,0.001122
1230.0,0.001094
1231.0,0.001136
1232.0,0.001125
1233.0,0.001065
1234.0,0.001128
1235.0,0.001114
1236.0,0.001121
1237.0,0.001095
1238.0,0.00111
1239.0,0.001092
1240.0,0.001094
1241.0,0.00108
1242.0,0.001079
1243.0,0.001067
1244.0,0.001069
1245.0,0.001071
1246.0,0.001062
1247.0,0.001053
1248.0,0.001046
1249.0,0.001048
1250.0,0.001037
1251.0,0.001018
1252.0,0.001018
1253.0,0.001
1254.0,0.0009825
1255.0,0.001006
1256.0,0.0009628
1257.0,0.0009521
1258.0,0.0009761
1259.0,0.0009203
1260.0,0.0009245
1261.0,0.0008497
1262.0,0.0008119
1263.0,0.0008105
1264.0,0.0007255
1265.0,0.0008009
1266.0,0.000756
1267.0,0.0007754
1268.0,0.0007198
1269.0,0.0003927
1270.0,0.0007626
1271.0,0.0008254
1272.0,0.0008274
1273.0,0.0008138
1274.0,0.0008168
1275.0,0.0008296
1276.0,0.000839
1277.0,0.0008467
1278.0,0.0008683
1279.0,0.0008576
1280.0,0.0008442
1281.0,0.0008069
1282.0,0.0007815
1283.0,0.0008377
1284.0,0.0008539
1285.0,0.0008579
1286.0,0.0008703
1287.0,0.0008477
1288.0,0.0008468
1289.0,0.0008051
1290.0,0.0008346
1291.0,0.0008459
1292.0,0.0007703
1293.0,0.0008188
1294.0,0.0008095
1295.0,0.0007964
1296.0,0.0007452
1297.0,0.0006933
1298.0,0.0007637
1299.0,0.0008065
1300.0,0.000647
1301.0,0.0006704
1302.0,0.0007532
1303.0,0.0006345
1304.0,0.000515
1305.0,0.000728
1306.0,0.0007232
1307.0,0.0005277
1308.0,0.0006285
1309.0,0.000707
1310.0,0.0005105
1311.0,0.0005908
1312.0,0.0005713
1313.0,0.0005518
1314.0,0.0004808
1315.0,0.000471
1316.0,0.0005693
1317.0,0.0005316
1318.0,0.0005886
1319.0,0.0004299
1320.0,0.0004169
1321.0,0.0004976
1322.0,0.0004978
1323.0,0.0003523
1324.0,0.0004156
1325.0,0.0005422
1326.0,0.0004491
1327.0,0.0004227
1328.0,0.0003547
1329.0,0.000252
1330.0,0.0003372
1331.0,0.0001899
1332.0,0.0001975
1333.0,0.0002795
1334.0,0.0002397
1335.0,0.0003372
1336.0,0.0002568
1337.0,0.0002243
1338.0,0.0002424
1339.0,0.0002415
1340.0,0.000236
1341.0,0.000224
1342.0,0.0002359
1343.0,0.000151
1344.0,8.962e-05
1345.0,0.0001293
1346.0,6.185e-05
1347.0,6.25e-05
1348.0,3.989e-06
1349.0,1.432e-05
1350.0,1.485e-05
1351.0,3.584e-06
1352.0,9.641e-07
