interpolation:linear
wavelength,value
280.0,5.391e-22
280.5,1.756e-20
281.0,9.380000000000001e-20
281.5,4.825e-19
282.0,7.981e-19
282.5,1.975e-18
283.0,6.225e-18
283.5,1.012e-17
284.0,1.651e-16
284.5,4.796e-16
285.0,8.448e-16
285.5,4.161e-15
286.0,1.671e-14
286.5,7.473e-14
287.0,2.135e-13
287.5,8.185e-13
288.0,2.7e-12
288.5,8.256e-12
289.0,2.212e-11
289.5,6.705e-11
290.0,1.865e-10
290.5,3.805e-10
291.0,8.173e-10
291.5,2.347e-09
292.0,5.167e-09
292.5,7.233e-09
293.0,1.547e-08
293.5,3.752e-08
294.0,5.854e-08
294.5,7.862e-08
295.0,1.328e-07
295.5,2.421e-07
296.0,4.751e-07
296.5,6.775e-07
297.0,9.33e-07
297.5,2.583e-06
298.0,4.201e-06
298.5,4.343e-06
299.0,9.866e-06
299.5,1.743e-05
300.0,1.995e-05
300.5,3.024e-05
301.0,5.963e-05
301.5,0.0001042
302.0,9.403e-05
302.5,0.0001871
303.0,0.0003449
303.5,0.0004439
304.0,0.000428
304.5,0.0006869
305.0,0.001158
305.5,0.00142
306.0,0.00141
306.5,0.001836
307.0,0.003021
307.5,0.00445
308.0,0.004771
308.5,0.005927
309.0,0.006126
309.5,0.007407
310.0,0.007626
310.5,0.01249
311.0,0.01599
311.5,0.01555
312.0,0.01629
312.5,0.02044
313.0,0.02251
313.5,0.02144
314.0,0.02785
314.5,0.02603
315.0,0.03445
315.5,0.02797
316.0,0.0255
316.5,0.03801
317.0,0.04703
317.5,0.04825
318.0,0.03859
318.5,0.05045
319.0,0.06139
319.5,0.04772
320.0,0.05712
320.5,0.07543
321.0,0.07057
321.5,0.06784
322.0,0.06816
322.5,0.0593
323.0,0.06109
323.5,0.07731
324.0,0.09048
324.5,0.0904
325.0,0.07652
325.5,0.1012
326.0,0.124
326.5,0.1261
327.0,0.1245
327.5,0.1189
328.0,0.1032
328.5,0.1112
329.0,0.1361
329.5,0.1553
330.0,0.1552
330.5,0.1215
331.0,0.1227
331.5,0.1261
332.0,0.1388
332.5,0.1383
333.0,0.1367
333.5,0.1214
334.0,0.1237
334.5,0.145
335.0,0.1374
335.5,0.1616
336.0,0.1115
336.5,0.1282
337.0,0.104
337.5,0.1286
338.0,0.1273
338.5,0.1479
339.0,0.1458
339.5,0.14
340.0,0.1627
340.5,0.1465
341.0,0.1433
341.5,0.1309
342.0,0.1559
342.5,0.1454
343.0,0.1596
343.5,0.1501
344.0,0.1101
344.5,0.1117
345.0,0.1468
345.5,0.1493
346.0,0.1265
346.5,0.1428
347.0,0.153
347.5,0.1234
348.0,0.1401
348.5,0.1396
349.0,0.1291
349.5,0.1275
350.0,0.1572
350.5,0.1653
351.0,0.1473
351.5,0.1429
352.0,0.1529
352.5,0.1189
353.0,0.1493
353.5,0.1592
354.0,0.1648
354.5,0.1666
355.0,0.1655
355.5,0.1491
356.0,0.1555
356.5,0.1324
357.0,0.1091
357.5,0.1331
358.0,0.1052
358.5,0.08962
359.0,0.125
359.5,0.1588
360.0,0.1678
360.5,0.1337
361.0,0.1215
361.5,0.1395
362.0,0.1203
362.5,0.166
363.0,0.1487
363.5,0.1365
364.0,0.1665
364.5,0.1418
365.0,0.144
365.5,0.1802
366.0,0.1903
366.5,0.1783
367.0,0.1731
367.5,0.1791
368.0,0.1563
368.5,0.1572
369.0,0.1692
369.5,0.1798
370.0,0.1911
370.5,0.1479
371.0,0.1575
371.5,0.1965
372.0,0.13
372.5,0.1554
373.0,0.1576
373.5,0.1022
374.0,0.1481
374.5,0.1222
375.0,0.1184
375.5,0.1763
376.0,0.1457
376.5,0.1505
377.0,0.1588
377.5,0.1852
378.0,0.2002
378.5,0.1886
379.0,0.1551
379.5,0.1412
380.0,0.1463
380.5,0.1766
381.0,0.1764
381.5,0.1394
382.0,0.1234
382.5,0.1048
383.0,0.09673
383.5,0.09287
384.0,0.1021
384.5,0.1497
385.0,0.148
385.5,0.1374
386.0,0.1173
386.5,0.1536
387.0,0.1272
387.5,0.1424
388.0,0.131
388.5,0.1291
389.0,0.1389
389.5,0.1676
390.0,0.1677
390.5,0.1538
391.0,0.1804
391.5,0.1834
392.0,0.154
392.5,0.1374
393.0,0.0762
393.5,0.05521
394.0,0.112
394.5,0.1419
395.0,0.1726
395.5,0.1748
396.0,0.151
396.5,0.08798
397.0,0.06581
397.5,0.1334
398.0,0.1862
398.5,0.1918
399.0,0.207
399.5,0.2057
400.0,0.2128
401.0,0.2091
402.0,0.2191
403.0,0.2068
404.0,0.2022
405.0,0.2008
406.0,0.1962
407.0,0.1917
408.0,0.1977
409.0,0.2102
410.0,0.1825
411.0,0.1964
412.0,0.2095
413.0,0.2029
414.0,0.204
415.0,0.2032
416.0,0.2052
417.0,0.1988
418.0,0.1937
419.0,0.1949
420.0,0.1927
421.0,0.2001
422.0,0.1888
423.0,0.1831
424.0,0.1922
425.0,0.1904
426.0,0.1842
427.0,0.1796
428.0,0.1738
429.0,0.1635
430.0,0.1421
431.0,0.1398
432.0,0.1792
433.0,0.1788
434.0,0.1649
435.0,0.171
436.0,0.1914
437.0,0.1876
438.0,0.1696
439.0,0.1741
440.0,0.1783
441.0,0.1833
442.0,0.1951
443.0,0.1887
444.0,0.1915
445.0,0.1861
446.0,0.1765
447.0,0.1895
448.0,0.191
449.0,0.1903
450.0,0.1941
451.0,0.1998
452.0,0.1912
453.0,0.1786
454.0,0.1852
455.0,0.1849
456.0,0.1878
457.0,0.1894
458.0,0.1814
459.0,0.179
460.0,0.178
461.0,0.1807
462.0,0.1808
463.0,0.1785
464.0,0.1746
465.0,0.1714
466.0,0.1719
467.0,0.1675
468.0,0.168
469.0,0.1675
470.0,0.161
471.0,0.1597
472.0,0.1672
473.0,0.1638
474.0,0.1628
475.0,0.1629
476.0,0.1567
477.0,0.1557
478.0,0.1586
479.0,0.1562
480.0,0.1551
481.0,0.1565
482.0,0.1562
483.0,0.1532
484.0,0.1492
485.0,0.1413
486.0,0.1228
487.0,0.1279
488.0,0.1392
489.0,0.1385
490.0,0.1446
491.0,0.141
492.0,0.1322
493.0,0.1355
494.0,0.1359
495.0,0.136
496.0,0.1358
497.0,0.1368
498.0,0.1292
499.0,0.1296
500.0,0.1246
501.0,0.1212
502.0,0.1182
503.0,0.1218
504.0,0.1176
505.0,0.1209
506.0,0.124
507.0,0.1172
508.0,0.1128
509.0,0.1153
510.0,0.1141
511.0,0.1164
512.0,0.1168
513.0,0.1097
514.0,0.1081
515.0,0.1062
516.0,0.1051
517.0,0.09274
518.0,0.09679
519.0,0.1007
520.0,0.1036
521.0,0.1037
522.0,0.103
523.0,0.1003
524.0,0.103
525.0,0.1033
526.0,0.09784
527.0,0.09132
528.0,0.09569
529.0,0.1
530.0,0.09779
531.0,0.09844
532.0,0.09433
533.0,0.09092
534.0,0.09298
535.0,0.09441
536.0,0.09467
537.0,0.09034
538.0,0.09131
539.0,0.08993
540.0,0.08562
541.0,0.08551
542.0,0.08746
543.0,0.08588
544.0,0.08676
545.0,0.08593
546.0,0.08566
547.0,0.08501
548.0,0.08341
549.0,0.0831
550.0,0.08351
551.0,0.08191
552.0,0.08189
553.0,0.07984
554.0,0.08117
555.0,0.08073
556.0,0.07906
557.0,0.07599
558.0,0.07477
559.0,0.07274
560.0,0.07303
561.0,0.07334
562.0,0.07218
563.0,0.07353
564.0,0.07098
565.0,0.06983
566.0,0.06828
567.0,0.06902
568.0,0.06785
569.0,0.06566
570.0,0.06519
571.0,0.06435
572.0,0.06534
573.0,0.0656
574.0,0.06499
575.0,0.06339
576.0,0.06244
577.0,0.06278
578.0,0.06153
579.0,0.06151
580.0,0.06242
581.0,0.06246
582.0,0.06334
583.0,0.06321
584.0,0.06347
585.0,0.06159
586.0,0.05995
587.0,0.06084
588.0,0.05889
589.0,0.05162
590.0,0.05368
591.0,0.05658
592.0,0.0554
593.0,0.0559
594.0,0.05504
595.0,0.0532
596.0,0.05509
597.0,0.05405
598.0,0.05355
599.0,0.05322
600.0,0.05298
601.0,0.05224
602.0,0.05158
603.0,0.05214
604.0,0.05272
605.0,0.0522
606.0,0.05176
607.0,0.05207
608.0,0.05128
609.0,0.05116
610.0,0.05061
611.0,0.05068
612.0,0.05034
613.0,0.0495
614.0,0.04862
615.0,0.04949
616.0,0.04767
617.0,0.04737
618.0,0.04899
619.0,0.04829
620.0,0.04837
621.0,0.04817
622.0,0.04736
623.0,0.04639
624.0,0.04538
625.0,0.04508
626.0,0.04555
627.0,0.0458
628.0,0.04209
629.0,0.04412
630.0,0.04288
631.0,0.0438
632.0,0.04312
633.0,0.04431
634.0,0.04376
635.0,0.04426
636.0,0.04351
637.0,0.04405
638.0,0.04432
639.0,0.04366
640.0,0.04306
641.0,0.04286
642.0,0.04251
643.0,0.04292
644.0,0.04262
645.0,0.04247
646.0,0.04123
647.0,0.04043
648.0,0.04026
649.0,0.03929
650.0,0.03946
651.0,0.04101
652.0,0.03893
653.0,0.0401
654.0,0.03949
655.0,0.03774
656.0,0.03336
657.0,0.03413
658.0,0.03814
659.0,0.03826
660.0,0.03825
661.0,0.03834
662.0,0.03823
663.0,0.03733
664.0,0.03765
665.0,0.03754
666.0,0.03742
667.0,0.03725
668.0,0.03712
669.0,0.03754
670.0,0.0372
671.0,0.03705
672.0,0.0366
673.0,0.03703
674.0,0.03673
675.0,0.03623
676.0,0.03632
677.0,0.03582
678.0,0.03579
679.0,0.03506
680.0,0.03518
681.0,0.03479
682.0,0.03459
683.0,0.03436
684.0,0.03402
685.0,0.03415
686.0,0.03379
687.0,0.0208
688.0,0.0249
689.0,0.02489
690.0,0.02622
691.0,0.02777
692.0,0.02891
693.0,0.02852
694.0,0.02813
695.0,0.02937
696.0,0.02927
697.0,0.03127
698.0,0.03064
699.0,0.02957
700.0,0.02907
701.0,0.0286
702.0,0.02874
703.0,0.02867
704.0,0.02955
705.0,0.02945
706.0,0.02934
707.0,0.02924
708.0,0.02916
709.0,0.02913
710.0,0.02895
711.0,0.02883
712.0,0.02867
713.0,0.02822
714.0,0.02818
715.0,0.02708
716.0,0.02695
717.0,0.02264
718.0,0.02053
719.0,0.01857
720.0,0.0194
721.0,0.02169
722.0,0.02524
723.0,0.0231
724.0,0.02041
725.0,0.01994
726.0,0.02088
727.0,0.02115
728.0,0.01962
729.0,0.02045
730.0,0.02161
731.0,0.02048
732.0,0.02205
733.0,0.02347
734.0,0.02397
735.0,0.02333
736.0,0.0232
737.0,0.02318
738.0,0.02357
739.0,0.02299
740.0,0.02352
741.0,0.0232
742.0,0.02313
743.0,0.0236
744.0,0.02343
745.0,0.02333
746.0,0.02332
747.0,0.02326
748.0,0.0231
749.0,0.02272
750.0,0.02261
751.0,0.02229
752.0,0.02229
753.0,0.0223
754.0,0.02225
755.0,0.02203
756.0,0.02192
757.0,0.02186
758.0,0.02148
759.0,0.02086
760.0,0.002853
761.0,0.001479
762.0,0.009363
763.0,0.004367
764.0,0.006734
765.0,0.009221
766.0,0.01169
767.0,0.01522
768.0,0.01801
769.0,0.01843
770.0,0.01912
771.0,0.01926
772.0,0.01922
773.0,0.01926
774.0,0.01907
775.0,0.01883
776.0,0.01897
777.0,0.01863
778.0,0.01841
779.0,0.01833
780.0,0.01815
781.0,0.01809
782.0,0.01812
783.0,0.01773
784.0,0.01774
785.0,0.01753
786.0,0.01765
787.0,0.01721
788.0,0.01689
789.0,0.0168
790.0,0.01619
791.0,0.01634
792.0,0.01615
793.0,0.01581
794.0,0.0161
795.0,0.01627
796.0,0.01558
797.0,0.01554
798.0,0.01603
799.0,0.01583
800.0,0.01546
801.0,0.01531
802.0,0.0152
803.0,0.015
804.0,0.01496
805.0,0.01488
806.0,0.01527
807.0,0.015
808.0,0.01495
809.0,0.01456
810.0,0.01434
811.0,0.01425
812.0,0.01369
813.0,0.01329
814.0,0.01138
815.0,0.01126
816.0,0.01033
817.0,0.0105
818.0,0.01002
819.0,0.01138
820.0,0.01058
821.0,0.01267
822.0,0.01219
823.0,0.007747
824.0,0.01165
825.0,0.01221
826.0,0.0116
827.0,0.01231
828.0,0.01009
829.0,0.0114
830.0,0.01118
831.0,0.01118
832.0,0.01073
833.0,0.01156
834.0,0.01101
835.0,0.01224
836.0,0.01154
837.0,0.01217
838.0,0.01169
839.0,0.01189
840.0,0.01212
841.0,0.01186
842.0,0.01187
843.0,0.01185
844.0,0.01161
845.0,0.01198
846.0,0.01188
847.0,0.01161
848.0,0.01147
849.0,0.01109
850.0,0.01058
851.0,0.01113
852.0,0.011
853.0,0.01055
854.0,0.009058
855.0,0.009928
856.0,0.0108
857.0,0.01101
858.0,0.01088
859.0,0.01085
860.0,0.01083
861.0,0.01073
862.0,0.01086
863.0,0.01107
864.0,0.01048
865.0,0.01035
866.0,0.009266
867.0,0.009631
868.0,0.01044
869.0,0.01018
870.0,0.01043
871.0,0.01024
872.0,0.01017
873.0,0.0101
874.0,0.009938
875.0,0.009692
876.0,0.009749
877.0,0.009808
878.0,0.009869
879.0,0.009677
880.0,0.009429
881.0,0.009242
882.0,0.009402
883.0,0.0094
884.0,0.009312
885.0,0.009339
886.0,0.008837
887.0,0.008916
888.0,0.008995
889.0,0.009083
890.0,0.008937
891.0,0.008902
892.0,0.008577
893.0,0.008226
894.0,0.007819
895.0,0.007254
896.0,0.006723
897.0,0.005602
898.0,0.006176
899.0,0.004477
900.0,0.006345
901.0,0.004712
902.0,0.005683
903.0,0.005671
904.0,0.007443
905.0,0.007108
906.0,0.006573
907.0,0.005098
908.0,0.005217
909.0,0.005731
910.0,0.004899
911.0,0.005288
912.0,0.005544
913.0,0.00491
914.0,0.004861
915.0,0.005302
916.0,0.004369
917.0,0.005759
918.0,0.004458
919.0,0.005842
920.0,0.005936
921.0,0.006207
922.0,0.005402
923.0,0.005951
924.0,0.005496
925.0,0.00534
926.0,0.005388
927.0,0.006122
928.0,0.004179
929.0,0.003736
930.0,0.002808
931.0,0.002639
932.0,0.001805
933.0,0.001424
934.0,0.000729
935.0,0.00146
936.0,0.0008659
937.0,0.000873
938.0,0.001087
939.0,0.002469
940.0,0.003046
941.0,0.002197
942.0,0.002583
943.0,0.001603
944.0,0.001714
945.0,0.002235
946.0,0.001045
947.0,0.002217
948.0,0.001577
949.0,0.00307
950.0,0.0007307
951.0,0.003005
952.0,0.001476
953.0,0.001968
954.0,0.002494
955.0,0.001989
956.0,0.001939
957.0,0.001448
958.0,0.002868
959.0,0.002171
960.0,0.002455
961.0,0.002812
962.0,0.002634
963.0,0.003108
964.0,0.002797
965.0,0.003073
966.0,0.003058
967.0,0.003023
968.0,0.004333
969.0,0.004518
970.0,0.00407
971.0,0.004797
972.0,0.004525
973.0,0.003792
974.0,0.003559
975.0,0.003714
976.0,0.003458
977.0,0.00406
978.0,0.003786
979.0,0.003997
980.0,0.003698
981.0,0.00459
982.0,0.004321
983.0,0.0041
984.0,0.004734
985.0,0.004257
986.0,0.004814
987.0,0.004666
988.0,0.004639
989.0,0.004765
990.0,0.004577
991.0,0.004731
992.0,0.004745
993.0,0.004588
994.0,0.004714
995.0,0.004696
996.0,0.004652
997.0,0.004644
998.0,0.004604
999.0,0.004572
1000.0,0.004515
1001.0,0.004563
1002.0,0.004385
1003.0,0.004446
1004.0,0.004311
1005.0,0.00415
1006.0,0.004288
1007.0,0.004365
1008.0,0.004319
1009.0,0.004274
1010.0,0.004236
1011.0,0.00428
1012.0,0.004219
1013.0,0.004239
1014.0,0.004194
1015.0,0.00415
1016.0,0.004114
1017.0,0.004107
1018.0,0.00408
1019.0,0.003964
1020.0,0.004025
1021.0,0.004006
1022.0,0.003954
1023.0,0.003981
1024.0,0.003902
1025.0,0.003954
1026.0,0.003918
1027.0,0.003895
1028.0,0.003872
1029.0,0.003811
1030.0,0.003827
1031.0,0.003795
1032.0,0.003771
1033.0,0.0037
1034.0,0.003686
1035.0,0.003683
1036.0,0.003687
1037.0,0.003614
1038.0,0.003616
1039.0,0.0036
1040.0,0.003572
1041.0,0.003572
1042.0,0.003533
1043.0,0.003509
1044.0,0.003508
1045.0,0.003446
1046.0,0.003394
1047.0,0.003411
1048.0,0.003417
1049.0,0.003392
1050.0,0.003363
1051.0,0.003344
1052.0,0.003317
1053.0,0.003278
1054.0,0.003272
1055.0,0.00326
1056.0,0.003235
1057.0,0.003211
1058.0,0.00312
1059.0,0.003111
1060.0,0.003094
1061.0,0.003078
1062.0,0.00308
1063.0,0.003038
1064.0,0.003064
1065.0,0.003027
1066.0,0.002959
1067.0,0.002985
1068.0,0.002906
1069.0,0.002808
1070.0,0.002889
1071.0,0.002933
1072.0,0.002881
1073.0,0.002832
1074.0,0.002906
1075.0,0.002722
1076.0,0.00288
1077.0,0.002802
1078.0,0.002733
1079.0,0.002808
1080.0,0.002725
1081.0,0.002619
1082.0,0.002675
1083.0,0.002679
1084.0,0.002575
1085.0,0.002688
1086.0,0.002394
1087.0,0.002501
1088.0,0.002622
1089.0,0.002507
1090.0,0.002422
1091.0,0.002578
1092.0,0.002568
1093.0,0.00209
1094.0,0.002324
1095.0,0.002177
1096.0,0.002054
1097.0,0.002466
1098.0,0.002001
1099.0,0.002091
1100.0,0.001902
1101.0,0.00193
1102.0,0.001819
1103.0,0.001782
1104.0,0.00178
1105.0,0.001993
1106.0,0.001416
1107.0,0.001857
1108.0,0.001504
1109.0,0.001507
1110.0,0.001813
1111.0,0.001131
1112.0,0.001483
1113.0,0.0008609
1114.0,0.0009708
1115.0,0.0007857
1116.0,0.0005979
1117.0,0.0001957
1118.0,0.0006548
1119.0,0.0002983
1120.0,0.0003779
1121.0,0.0005148
1122.0,0.0001986
1123.0,0.0003362
1124.0,0.0002802
1125.0,0.0003727
1126.0,0.0001172
1127.0,0.0004209
1128.0,0.000236
1129.0,0.0002512
1130.0,0.00016
1131.0,0.0008571
1132.0,0.0006496
1133.0,0.0003838
1134.0,8.799e-05
1135.0,3.247e-05
1136.0,0.0003093
1137.0,0.0008179
1138.0,0.0005547
1139.0,0.0008892
1140.0,0.0007144
1141.0,0.0005199
1142.0,0.0006085
1143.0,0.000905
1144.0,0.0002774
1145.0,0.0003544
1146.0,0.0003823
1147.0,0.000122
1148.0,0.0007571
1149.0,0.0005812
1150.0,0.0002951
1151.0,0.0005257
1152.0,0.0006675
1153.0,0.0006547
1154.0,0.0003322
1155.0,0.0008822
1156.0,0.0007764
1157.0,0.0008919
1158.0,0.0008779
1159.0,0.0009626
1160.0,0.0007979
1161.0,0.001025
1162.0,0.001022
1163.0,0.00147
1164.0,0.001218
1165.0,0.001123
1166.0,0.001121
1167.0,0.001236
1168.0,0.001244
1169.0,0.001281
1170.0,0.001412
1171.0,0.001365
1172.0,0.001396
1173.0,0.001394
1174.0,0.0009265
1175.0,0.00136
1176.0,0.001522
1177.0,0.001437
1178.0,0.001018
1179.0,0.00152
1180.0,0.001313
1181.0,0.001358
1182.0,0.0008721
1183.0,0.001337
1184.0,0.001225
1185.0,0.001165
1186.0,0.001431
1187.0,0.001343
1188.0,0.0008715
1189.0,0.001235
1190.0,0.001379
1191.0,0.001281
1192.0,0.001393
1193.0,0.001318
1194.0,0.001364
1195.0,0.001269
1196.0,0.001207
1197.0,0.001363
1198.0,0.001225
1199.0,0.001001
1200.0,0.001276
1201.0,0.001213
1202.0,0.001207
1203.0,0.001197
1204.0,0.001014
1205.0,0.001235
1206.0,0.00139
1207.0,0.001186
1208.0,0.001175
1209.0,0.001197
1210.0,0.001254
1211.0,0.001175
1212.0,0.001145
1213.0,0.001308
1214.0,0.001172
1215.0,0.001142
1216.0,0.001292
1217.0,0.001246
1218.0,0.001273
1219.0,0.001249
1220.0,0.001266
1221.0,0.001279
1222.0,0.001236
1223.0,0.001218
1224.0,0.001202
1225.0,0.001254
1226.0,0.001263
1227.0,0.001143
1228.0,0.001265
1229.0,0.001251
1230.0,0.001222
1231.0,0.001265
1232.0,0.001253
1233.0,0.001192
1234.0,0.001254
1235.0,0.00124
1236.0,0.001247
1237.0,0.00122
1238.0,0.001235
1239.0,0.001215
1240.0,0.001216
1241.0,0.001203
1242.0,0.001199
1243.0,0.001186
1244.0,0.001189
1245.0,0.001191
1246.0,0.00118
1247.0,0.001171
1248.0,0.001165
1249.0,0.001166
1250.0,0.001154
1251.0,0.001134
1252.0,0.001133
1253.0,0.001116
1254.0,0.001097
1255.0,0.00112
1256.0,0.001077
1257.0,0.001065
1258.0,0.001089
1259.0,0.001033
1260.0,0.001037
1261.0,0.0009604
1262.0,0.0009211
1263.0,0.0009197
1264.0,0.0008294
1265.0,0.0009089
1266.0,0.0008618
1267.0,0.0008813
1268.0,0.0008221
1269.0,0.0004533
1270.0,0.0008681
1271.0,0.0009325
1272.0,0.0009343
1273.0,0.0009198
1274.0,0.000922
1275.0,0.0009353
1276.0,0.0009444
1277.0,0.0009507
1278.0,0.0009723
1279.0,0.00096
1280.0,0.0009452
1281.0,0.0009019
1282.0,0.000871
1283.0,0.0009342
1284.0,0.0009525
1285.0,0.0009566
1286.0,0.0009692
1287.0,0.0009462
1288.0,0.0009443
1289.0,0.0009023
1290.0,0.0009307
1291.0,0.0009422
1292.0,0.0008651
1293.0,0.0009135
1294.0,0.0009032
1295.0,0.0008922
1296.0,0.0008381
1297.0,0.0007813
1298.0,0.0008557
1299.0,0.0008992
1300.0,0.0007279
1301.0,0.0007542
1302.0,0.0008435
1303.0,0.0007135
1304.0,0.000583
1305.0,0.0008152
1306.0,0.0008117
1307.0,0.0005954
1308.0,0.0007053
1309.0,0.0007958
1310.0,0.0005768
1311.0,0.0006641
1312.0,0.0006425
1313.0,0.0006232
1314.0,0.0005435
1315.0,0.0005339
1316.0,0.0006414
1317.0,0.0005993
1318.0,0.000662
1319.0,0.0004869
1320.0,0.0004708
1321.0,0.000562
1322.0,0.0005643
1323.0,0.0004
1324.0,0.0004698
1325.0,0.0006126
1326.0,0.000508
1327.0,0.0004785
1328.0,0.0004013
1329.0,0.0002851
1330.0,0.0003834
1331.0,0.0002132
1332.0,0.000222
1333.0,0.0003186
1334.0,0.0002687
1335.0,0.000384
1336.0,0.0002911
1337.0,0.0002524
1338.0,0.0002741
1339.0,0.0002732
1340.0,0.0002658
1341.0,0.0002537
1342.0,0.0002674
1343.0,0.0001684
1344.0,9.792e-05
1345.0,0.0001437
1346.0,6.638e-05
1347.0,6.697e-05
1348.0,4.075e-06
1349.0,1.477e-05
1350.0,1.536e-05
1351.0,3.652e-06
1352.0,9.784e-07
1353.0,4.974e-08
1354.0,1.71e-07
1355.0,1.376e-09
1356.0,2.409e-08
1357.0,3.66e-08
1358.0,1.616e-09
1359.0,2.035e-10
1360.0,7.356e-10
