interpolation:linear
wavelength,value
280.0,1.152e-21
280.5,3.699e-20
281.0,1.966e-19
281.5,5.174e-19
282.0,9.637e-19
282.5,2.402e-18
283.0,7.579e-18
283.5,1.231e-17
284.0,1.992e-16
284.5,5.76e-16
285.0,1.15e-15
285.5,5.536e-15
286.0,2.211e-14
286.5,9.777e-14
287.0,2.774e-13
287.5,1.055e-12
288.0,3.216e-12
288.5,1.009e-11
289.0,2.749e-11
289.5,8.43e-11
290.0,2.36e-10
290.5,4.838e-10
291.0,1.043e-09
291.5,3.004e-09
292.0,6.164e-09
292.5,8.916e-09
293.0,1.983e-08
293.5,5.048e-08
294.0,8.125e-08
294.5,1.063e-07
295.0,1.84e-07
295.5,4.224e-07
296.0,7.552e-07
296.5,1.081e-06
297.0,1.496e-06
297.5,4.177e-06
298.0,6.859e-06
298.5,7.156e-06
299.0,1.643e-05
299.5,2.975e-05
300.0,3.466e-05
300.5,5.372e-05
301.0,0.0001111
301.5,0.0002064
302.0,0.0001941
302.5,0.0003819
303.0,0.000693
303.5,0.0008814
304.0,0.000841
304.5,0.001314
305.0,0.002129
305.5,0.002544
306.0,0.002499
306.5,0.003197
307.0,0.005057
307.5,0.007159
308.0,0.007621
308.5,0.009275
309.0,0.009443
309.5,0.01104
310.0,0.01119
310.5,0.01819
311.0,0.02299
311.5,0.02223
312.0,0.0227
312.5,0.028
313.0,0.03055
313.5,0.02933
314.0,0.03733
314.5,0.03399
315.0,0.04477
315.5,0.03678
316.0,0.03283
316.5,0.04808
317.0,0.05947
317.5,0.06129
318.0,0.04842
318.5,0.06186
319.0,0.0744
319.5,0.05887
320.0,0.07063
320.5,0.0911
321.0,0.08346
321.5,0.08003
322.0,0.08217
322.5,0.07138
323.0,0.07245
323.5,0.09069
324.0,0.1059
324.5,0.1063
325.0,0.09035
325.5,0.118
326.0,0.1445
326.5,0.1459
327.0,0.1443
327.5,0.1382
328.0,0.1211
328.5,0.1289
329.0,0.1562
329.5,0.1777
330.0,0.1779
330.5,0.1403
331.0,0.1419
331.5,0.145
332.0,0.1583
332.5,0.1571
333.0,0.1555
333.5,0.1389
334.0,0.1416
334.5,0.1648
335.0,0.1555
335.5,0.1832
336.0,0.1264
336.5,0.1452
337.0,0.1181
337.5,0.1461
338.0,0.1437
338.5,0.1671
339.0,0.1644
339.5,0.158
340.0,0.1833
340.5,0.1649
341.0,0.1614
341.5,0.1471
342.0,0.1751
342.5,0.1631
343.0,0.1792
343.5,0.1685
344.0,0.1236
344.5,0.1256
345.0,0.1646
345.5,0.1672
346.0,0.1415
346.5,0.1596
347.0,0.1711
347.5,0.138
348.0,0.1564
348.5,0.1557
349.0,0.1439
349.5,0.142
350.0,0.1751
350.5,0.1841
351.0,0.164
351.5,0.1593
352.0,0.1702
352.5,0.1322
353.0,0.1659
353.5,0.1768
354.0,0.1829
354.5,0.1848
355.0,0.1836
355.5,0.1653
356.0,0.1724
356.5,0.1467
357.0,0.1208
357.5,0.1473
358.0,0.1164
358.5,0.09911
359.0,0.1382
359.5,0.1755
360.0,0.1854
360.5,0.1477
361.0,0.1342
361.5,0.1539
362.0,0.1327
362.5,0.183
363.0,0.1638
363.5,0.1504
364.0,0.1833
364.5,0.1561
365.0,0.1585
365.5,0.1982
366.0,0.2093
366.5,0.196
367.0,0.1902
367.5,0.1967
368.0,0.1716
368.5,0.1725
369.0,0.1857
369.5,0.1973
370.0,0.2096
370.5,0.1621
371.0,0.1726
371.5,0.2152
372.0,0.1423
372.5,0.1701
373.0,0.1724
373.5,0.1118
374.0,0.1619
374.5,0.1336
375.0,0.1294
375.5,0.1926
376.0,0.1591
376.5,0.1643
377.0,0.1733
377.5,0.2021
378.0,0.2183
378.5,0.2056
379.0,0.169
379.5,0.1538
380.0,0.1594
380.5,0.1923
381.0,0.192
381.5,0.1517
382.0,0.1342
382.5,0.114
383.0,0.1051
383.5,0.1009
384.0,0.1109
384.5,0.1626
385.0,0.1607
385.5,0.1491
386.0,0.1272
386.5,0.1665
387.0,0.1379
387.5,0.1543
388.0,0.1419
388.5,0.1398
389.0,0.1504
389.5,0.1815
390.0,0.1815
390.5,0.1664
391.0,0.1952
391.5,0.1983
392.0,0.1664
392.5,0.1485
393.0,0.08231
393.5,0.05962
394.0,0.1209
394.5,0.1532
395.0,0.1862
395.5,0.1885
396.0,0.1628
396.5,0.09485
397.0,0.07092
397.5,0.1437
398.0,0.2005
398.5,0.2065
399.0,0.2228
399.5,0.2213
400.0,0.229
401.0,0.225
402.0,0.2356
403.0,0.2222
404.0,0.2172
405.0,0.2155
406.0,0.2105
407.0,0.2055
408.0,0.2119
409.0,0.2252
410.0,0.1954
411.0,0.2102
412.0,0.2241
413.0,0.217
414.0,0.2181
415.0,0.217
416.0,0.2192
417.0,0.2121
418.0,0.2067
419.0,0.2078
420.0,0.2054
421.0,0.2132
422.0,0.2011
423.0,0.1949
424.0,0.2045
425.0,0.2026
426.0,0.1959
427.0,0.1909
428.0,0.1846
429.0,0.1736
430.0,0.1509
431.0,0.1484
432.0,0.1901
433.0,0.1896
434.0,0.1748
435.0,0.1812
436.0,0.2028
437.0,0.1986
438.0,0.1795
439.0,0.1843
440.0,0.1887
441.0,0.194
442.0,0.2064
443.0,0.1995
444.0,0.2024
445.0,0.1967
446.0,0.1864
447.0,0.2
448.0,0.2016
449.0,0.2008
450.0,0.2047
451.0,0.2107
452.0,0.2015
453.0,0.1882
454.0,0.1951
455.0,0.1948
456.0,0.1978
457.0,0.1994
458.0,0.191
459.0,0.1885
460.0,0.1874
461.0,0.1902
462.0,0.1903
463.0,0.1878
464.0,0.1836
465.0,0.1802
466.0,0.1806
467.0,0.1759
468.0,0.1765
469.0,0.1759
470.0,0.1691
471.0,0.1677
472.0,0.1755
473.0,0.1719
474.0,0.1709
475.0,0.1709
476.0,0.1644
477.0,0.1634
478.0,0.1665
479.0,0.164
480.0,0.1629
481.0,0.1644
482.0,0.164
483.0,0.1608
484.0,0.1565
485.0,0.1481
486.0,0.1287
487.0,0.1339
488.0,0.1458
489.0,0.1451
490.0,0.1515
491.0,0.1477
492.0,0.1384
493.0,0.1419
494.0,0.1423
495.0,0.1424
496.0,0.1422
497.0,0.1433
498.0,0.1354
499.0,0.1359
500.0,0.1307
501.0,0.1271
502.0,0.1241
503.0,0.1279
504.0,0.1235
505.0,0.127
506.0,0.1302
507.0,0.123
508.0,0.1185
509.0,0.121
510.0,0.1197
511.0,0.1221
512.0,0.1225
513.0,0.115
514.0,0.1134
515.0,0.1114
516.0,0.1103
517.0,0.0973
518.0,0.1015
519.0,0.1057
520.0,0.1087
521.0,0.1089
522.0,0.1081
523.0,0.1053
524.0,0.1082
525.0,0.1086
526.0,0.1029
527.0,0.09605
528.0,0.1007
529.0,0.1053
530.0,0.103
531.0,0.1037
532.0,0.09938
533.0,0.09579
534.0,0.09796
535.0,0.09945
536.0,0.09972
537.0,0.09515
538.0,0.09615
539.0,0.09472
540.0,0.09019
541.0,0.09009
542.0,0.09217
543.0,0.09052
544.0,0.09147
545.0,0.09061
546.0,0.09035
547.0,0.08966
548.0,0.08797
549.0,0.08765
550.0,0.08809
551.0,0.0864
552.0,0.08639
553.0,0.08424
554.0,0.08565
555.0,0.0852
556.0,0.08346
557.0,0.08023
558.0,0.07898
559.0,0.07686
560.0,0.07719
561.0,0.07755
562.0,0.07635
563.0,0.07781
564.0,0.07513
565.0,0.07393
566.0,0.0723
567.0,0.07311
568.0,0.07189
569.0,0.0696
570.0,0.06911
571.0,0.06823
572.0,0.06931
573.0,0.06959
574.0,0.06894
575.0,0.06724
576.0,0.06623
577.0,0.06657
578.0,0.06524
579.0,0.06518
580.0,0.06612
581.0,0.06614
582.0,0.06704
583.0,0.06689
584.0,0.06715
585.0,0.06516
586.0,0.06341
587.0,0.06435
588.0,0.06231
589.0,0.05466
590.0,0.05684
591.0,0.05989
592.0,0.05866
593.0,0.05919
594.0,0.0583
595.0,0.05639
596.0,0.05837
597.0,0.05731
598.0,0.05678
599.0,0.05644
600.0,0.05619
601.0,0.05541
602.0,0.05471
603.0,0.05529
604.0,0.0559
605.0,0.05533
606.0,0.05485
607.0,0.05515
608.0,0.05429
609.0,0.05414
610.0,0.05353
611.0,0.05358
612.0,0.0532
613.0,0.05229
614.0,0.05135
615.0,0.05224
616.0,0.0503
617.0,0.04997
618.0,0.05166
619.0,0.05091
620.0,0.05098
621.0,0.05077
622.0,0.0499
623.0,0.04887
624.0,0.04779
625.0,0.04747
626.0,0.04795
627.0,0.04822
628.0,0.04438
629.0,0.04645
630.0,0.04514
631.0,0.04607
632.0,0.04533
633.0,0.04657
634.0,0.04596
635.0,0.04648
636.0,0.04567
637.0,0.04622
638.0,0.04649
639.0,0.04577
640.0,0.04513
641.0,0.0449
642.0,0.04452
643.0,0.04494
644.0,0.04461
645.0,0.04445
646.0,0.04315
647.0,0.04233
648.0,0.04213
649.0,0.04112
650.0,0.04126
651.0,0.04287
652.0,0.04071
653.0,0.0419
654.0,0.04126
655.0,0.03943
656.0,0.03484
657.0,0.03563
658.0,0.0398
659.0,0.03993
660.0,0.0399
661.0,0.03999
662.0,0.03987
663.0,0.03893
664.0,0.03924
665.0,0.03912
666.0,0.03898
667.0,0.03879
668.0,0.03865
669.0,0.03907
670.0,0.03872
671.0,0.03854
672.0,0.03807
673.0,0.03851
674.0,0.03819
675.0,0.03766
676.0,0.03775
677.0,0.03723
678.0,0.03718
679.0,0.03642
680.0,0.03655
681.0,0.03614
682.0,0.03592
683.0,0.03568
684.0,0.03532
685.0,0.03545
686.0,0.03507
687.0,0.02181
688.0,0.02602
689.0,0.02601
690.0,0.02736
691.0,0.02893
692.0,0.03008
693.0,0.02966
694.0,0.02924
695.0,0.03049
696.0,0.03038
697.0,0.03242
698.0,0.03177
699.0,0.03068
700.0,0.03016
701.0,0.02968
702.0,0.02982
703.0,0.02973
704.0,0.03064
705.0,0.03053
706.0,0.0304
707.0,0.0303
708.0,0.03022
709.0,0.03017
710.0,0.02999
711.0,0.02986
712.0,0.02969
713.0,0.02922
714.0,0.02918
715.0,0.02805
716.0,0.02792
717.0,0.02353
718.0,0.02132
719.0,0.01928
720.0,0.02016
721.0,0.02251
722.0,0.02616
723.0,0.02395
724.0,0.02118
725.0,0.0207
726.0,0.02168
727.0,0.02193
728.0,0.02036
729.0,0.02121
730.0,0.02242
731.0,0.02125
732.0,0.02285
733.0,0.0243
734.0,0.02481
735.0,0.02415
736.0,0.02402
737.0,0.02399
738.0,0.02437
739.0,0.02377
740.0,0.02431
741.0,0.02398
742.0,0.0239
743.0,0.02439
744.0,0.0242
745.0,0.0241
746.0,0.02409
747.0,0.02404
748.0,0.02386
749.0,0.02347
750.0,0.02335
751.0,0.02302
752.0,0.02302
753.0,0.02303
754.0,0.02297
755.0,0.02274
756.0,0.02263
757.0,0.02256
758.0,0.02217
759.0,0.02155
760.0,0.002966
761.0,0.001526
762.0,0.0098
763.0,0.004561
764.0,0.007051
765.0,0.009651
766.0,0.0122
767.0,0.01582
768.0,0.01864
769.0,0.01906
770.0,0.01975
771.0,0.01988
772.0,0.01984
773.0,0.01988
774.0,0.01968
775.0,0.01944
776.0,0.01958
777.0,0.01923
778.0,0.01901
779.0,0.01893
780.0,0.01873
781.0,0.01867
782.0,0.0187
783.0,0.0183
784.0,0.01831
785.0,0.01809
786.0,0.01821
787.0,0.01776
788.0,0.01744
789.0,0.01734
790.0,0.01672
791.0,0.01686
792.0,0.01667
793.0,0.01631
794.0,0.0166
795.0,0.01678
796.0,0.01609
797.0,0.01604
798.0,0.01654
799.0,0.01634
800.0,0.01595
801.0,0.0158
802.0,0.01568
803.0,0.01548
804.0,0.01544
805.0,0.01535
806.0,0.01575
807.0,0.01548
808.0,0.01542
809.0,0.01503
810.0,0.0148
811.0,0.01472
812.0,0.01415
813.0,0.01374
814.0,0.01179
815.0,0.01166
816.0,0.01069
817.0,0.01087
818.0,0.01038
819.0,0.01178
820.0,0.01095
821.0,0.01309
822.0,0.0126
823.0,0.008025
824.0,0.01205
825.0,0.01261
826.0,0.01198
827.0,0.01271
828.0,0.01044
829.0,0.01177
830.0,0.01154
831.0,0.01155
832.0,0.01109
833.0,0.01193
834.0,0.01137
835.0,0.01263
836.0,0.01192
837.0,0.01256
838.0,0.01207
839.0,0.01227
840.0,0.01249
841.0,0.01224
842.0,0.01224
843.0,0.01221
844.0,0.01197
845.0,0.01234
846.0,0.01224
847.0,0.01197
848.0,0.01182
849.0,0.01143
850.0,0.01091
851.0,0.01147
852.0,0.01134
853.0,0.01088
854.0,0.009342
855.0,0.01024
856.0,0.01113
857.0,0.01135
858.0,0.01122
859.0,0.01119
860.0,0.01116
861.0,0.01105
862.0,0.01119
863.0,0.01141
864.0,0.0108
865.0,0.01066
866.0,0.009546
867.0,0.009922
868.0,0.01075
869.0,0.01049
870.0,0.01074
871.0,0.01055
872.0,0.01047
873.0,0.01041
874.0,0.01024
875.0,0.009983
876.0,0.01004
877.0,0.0101
878.0,0.01017
879.0,0.009968
880.0,0.009713
881.0,0.009521
882.0,0.009687
883.0,0.009684
884.0,0.009594
885.0,0.009622
886.0,0.009109
887.0,0.009187
888.0,0.009271
889.0,0.009359
890.0,0.009212
891.0,0.009174
892.0,0.008844
893.0,0.008486
894.0,0.008076
895.0,0.007504
896.0,0.006952
897.0,0.005799
898.0,0.006393
899.0,0.004635
900.0,0.006562
901.0,0.004885
902.0,0.00588
903.0,0.005875
904.0,0.007688
905.0,0.007345
906.0,0.006794
907.0,0.00528
908.0,0.0054
909.0,0.005931
910.0,0.005078
911.0,0.005472
912.0,0.00574
913.0,0.00509
914.0,0.005035
915.0,0.0055
916.0,0.004525
917.0,0.005966
918.0,0.004621
919.0,0.006047
920.0,0.006132
921.0,0.006417
922.0,0.005591
923.0,0.006151
924.0,0.005694
925.0,0.00553
926.0,0.005584
927.0,0.006338
928.0,0.004343
929.0,0.003887
930.0,0.002922
931.0,0.002744
932.0,0.001877
933.0,0.001479
934.0,0.0007543
935.0,0.001515
936.0,0.0008958
937.0,0.0009032
938.0,0.001127
939.0,0.002568
940.0,0.00317
941.0,0.002287
942.0,0.00269
943.0,0.001665
944.0,0.001776
945.0,0.002325
946.0,0.001083
947.0,0.002308
948.0,0.001635
949.0,0.003201
950.0,0.0007553
951.0,0.003132
952.0,0.001533
953.0,0.002046
954.0,0.002594
955.0,0.002069
956.0,0.002007
957.0,0.001505
958.0,0.002974
959.0,0.002254
960.0,0.002553
961.0,0.002921
962.0,0.002734
963.0,0.003224
964.0,0.002901
965.0,0.003189
966.0,0.003174
967.0,0.003139
968.0,0.004478
969.0,0.004678
970.0,0.004213
971.0,0.004956
972.0,0.004677
973.0,0.00393
974.0,0.003687
975.0,0.003844
976.0,0.003586
977.0,0.004198
978.0,0.00392
979.0,0.004137
980.0,0.003827
981.0,0.004743
982.0,0.004469
983.0,0.004241
984.0,0.004885
985.0,0.004403
986.0,0.004964
987.0,0.004817
988.0,0.004788
989.0,0.00491
990.0,0.004725
991.0,0.004877
992.0,0.004891
993.0,0.004734
994.0,0.004858
995.0,0.004839
996.0,0.004794
997.0,0.004785
998.0,0.004744
999.0,0.004711
1000.0,0.004653
1001.0,0.004702
1002.0,0.004523
1003.0,0.004582
1004.0,0.004443
1005.0,0.004276
1006.0,0.004419
1007.0,0.004498
1008.0,0.004451
1009.0,0.004405
1010.0,0.004366
1011.0,0.00441
1012.0,0.004348
1013.0,0.004367
1014.0,0.004321
1015.0,0.004276
1016.0,0.004239
1017.0,0.004232
1018.0,0.004203
1019.0,0.004086
1020.0,0.004147
1021.0,0.004127
1022.0,0.004075
1023.0,0.004102
1024.0,0.004022
1025.0,0.004074
1026.0,0.004038
1027.0,0.004013
1028.0,0.003989
1029.0,0.003927
1030.0,0.003943
1031.0,0.003911
1032.0,0.003885
1033.0,0.003812
1034.0,0.003798
1035.0,0.003795
1036.0,0.003799
1037.0,0.003723
1038.0,0.003726
1039.0,0.00371
1040.0,0.003681
1041.0,0.00368
1042.0,0.003641
1043.0,0.003616
1044.0,0.003615
1045.0,0.003552
1046.0,0.003498
1047.0,0.003516
1048.0,0.003522
1049.0,0.003496
1050.0,0.003466
1051.0,0.003448
1052.0,0.00342
1053.0,0.00338
1054.0,0.003374
1055.0,0.003362
1056.0,0.003336
1057.0,0.003312
1058.0,0.003218
1059.0,0.003209
1060.0,0.003191
1061.0,0.003174
1062.0,0.003178
1063.0,0.003134
1064.0,0.003161
1065.0,0.003123
1066.0,0.003053
1067.0,0.00308
1068.0,0.002998
1069.0,0.002897
1070.0,0.002981
1071.0,0.003025
1072.0,0.002973
1073.0,0.002922
1074.0,0.002997
1075.0,0.00281
1076.0,0.00297
1077.0,0.002891
1078.0,0.002821
1079.0,0.002895
1080.0,0.002812
1081.0,0.002705
1082.0,0.00276
1083.0,0.002763
1084.0,0.002659
1085.0,0.002774
1086.0,0.002474
1087.0,0.002583
1088.0,0.002705
1089.0,0.002589
1090.0,0.002502
1091.0,0.002659
1092.0,0.002648
1093.0,0.002162
1094.0,0.002398
1095.0,0.002253
1096.0,0.002127
1097.0,0.002544
1098.0,0.002074
1099.0,0.002166
1100.0,0.001971
1101.0,0.002
1102.0,0.001887
1103.0,0.001849
1104.0,0.001847
1105.0,0.002064
1106.0,0.001474
1107.0,0.001925
1108.0,0.001563
1109.0,0.001565
1110.0,0.001881
1111.0,0.001176
1112.0,0.001539
1113.0,0.0008954
1114.0,0.001011
1115.0,0.0008168
1116.0,0.0006221
1117.0,0.0002019
1118.0,0.0006818
1119.0,0.000309
1120.0,0.0003931
1121.0,0.0005372
1122.0,0.0002053
1123.0,0.000349
1124.0,0.0002902
1125.0,0.0003874
1126.0,0.0001206
1127.0,0.0004381
1128.0,0.0002446
1129.0,0.0002606
1130.0,0.0001649
1131.0,0.000897
1132.0,0.0006782
1133.0,0.0003998
1134.0,9.025e-05
1135.0,3.301e-05
1136.0,0.0003217
1137.0,0.0008571
1138.0,0.0005784
1139.0,0.0009263
1140.0,0.0007449
1141.0,0.0005417
1142.0,0.0006344
1143.0,0.0009456
1144.0,0.0002872
1145.0,0.000369
1146.0,0.0003986
1147.0,0.0001257
1148.0,0.0007899
1149.0,0.0006058
1150.0,0.0003054
1151.0,0.0005482
1152.0,0.0006965
1153.0,0.0006812
1154.0,0.0003455
1155.0,0.0009198
1156.0,0.0008097
1157.0,0.0009283
1158.0,0.0009139
1159.0,0.001002
1160.0,0.0008295
1161.0,0.001065
1162.0,0.001062
1163.0,0.001523
1164.0,0.001263
1165.0,0.001167
1166.0,0.001163
1167.0,0.001281
1168.0,0.001291
1169.0,0.001329
1170.0,0.001462
1171.0,0.001413
1172.0,0.001444
1173.0,0.001443
1174.0,0.0009615
1175.0,0.001406
1176.0,0.00157
1177.0,0.001485
1178.0,0.001053
1179.0,0.001568
1180.0,0.001358
1181.0,0.001405
1182.0,0.0009036
1183.0,0.001382
1184.0,0.001267
1185.0,0.001206
1186.0,0.001479
1187.0,0.001389
1188.0,0.0009045
1189.0,0.001278
1190.0,0.001424
1191.0,0.001327
1192.0,0.001438
1193.0,0.001362
1194.0,0.001408
1195.0,0.001313
1196.0,0.00125
1197.0,0.001408
1198.0,0.001265
1199.0,0.001037
1200.0,0.001318
1201.0,0.001255
1202.0,0.001248
1203.0,0.001239
1204.0,0.001049
1205.0,0.001276
1206.0,0.001434
1207.0,0.001227
1208.0,0.001214
1209.0,0.001236
1210.0,0.001294
1211.0,0.001214
1212.0,0.001186
1213.0,0.001351
1214.0,0.001214
1215.0,0.001183
1216.0,0.001334
1217.0,0.001287
1218.0,0.001314
1219.0,0.001291
1220.0,0.001307
1221.0,0.00132
1222.0,0.001276
1223.0,0.001258
1224.0,0.001242
1225.0,0.001295
1226.0,0.001303
1227.0,0.001181
1228.0,0.001304
1229.0,0.001291
1230.0,0.001262
1231.0,0.001304
1232.0,0.001291
1233.0,0.00123
1234.0,0.001292
1235.0,0.001278
1236.0,0.001285
1237.0,0.001258
1238.0,0.001272
1239.0,0.001252
1240.0,0.001253
1241.0,0.00124
1242.0,0.001236
1243.0,0.001222
1244.0,0.001225
1245.0,0.001227
1246.0,0.001216
1247.0,0.001207
1248.0,0.001201
1249.0,0.001202
1250.0,0.00119
1251.0,0.001169
1252.0,0.001168
1253.0,0.001151
1254.0,0.001132
1255.0,0.001154
1256.0,0.001111
1257.0,0.0011
1258.0,0.001123
1259.0,0.001067
1260.0,0.001071
1261.0,0.0009945
1262.0,0.0009549
1263.0,0.0009536
1264.0,0.0008623
1265.0,0.0009423
1266.0,0.000895
1267.0,0.0009142
1268.0,0.0008543
1269.0,0.0004762
1270.0,0.0009009
1271.0,0.0009655
1272.0,0.0009672
1273.0,0.0009524
1274.0,0.0009543
1275.0,0.0009677
1276.0,0.0009765
1277.0,0.0009825
1278.0,0.001004
1279.0,0.0009912
1280.0,0.0009758
1281.0,0.0009307
1282.0,0.0008981
1283.0,0.0009634
1284.0,0.0009824
1285.0,0.0009865
1286.0,0.0009991
1287.0,0.0009761
1288.0,0.0009739
1289.0,0.000932
1290.0,0.0009597
1291.0,0.0009714
1292.0,0.0008942
1293.0,0.0009423
1294.0,0.0009318
1295.0,0.0009213
1296.0,0.0008669
1297.0,0.0008089
1298.0,0.0008839
1299.0,0.0009273
1300.0,0.0007536
1301.0,0.0007804
1302.0,0.0008712
1303.0,0.0007383
1304.0,0.0006055
1305.0,0.000842
1306.0,0.0008389
1307.0,0.0006172
1308.0,0.0007291
1309.0,0.0008231
1310.0,0.0005982
1311.0,0.0006871
1312.0,0.0006652
1313.0,0.0006459
1314.0,0.0005636
1315.0,0.0005545
1316.0,0.0006643
1317.0,0.0006208
1318.0,0.0006849
1319.0,0.0005058
1320.0,0.0004882
1321.0,0.0005827
1322.0,0.0005858
1323.0,0.0004163
1324.0,0.0004877
1325.0,0.0006348
1326.0,0.0005272
1327.0,0.0004967
1328.0,0.0004168
1329.0,0.0002968
1330.0,0.0003995
1331.0,0.0002221
1332.0,0.0002311
1333.0,0.000333
1334.0,0.0002789
1335.0,0.0003999
1336.0,0.0003032
1337.0,0.0002625
1338.0,0.0002857
1339.0,0.0002845
1340.0,0.0002762
1341.0,0.0002647
1342.0,0.0002791
1343.0,0.0001759
1344.0,0.0001013
1345.0,0.0001497
1346.0,6.871e-05
1347.0,6.937e-05
1348.0,4.116e-06
1349.0,1.504e-05
1350.0,1.565e-05
1351.0,3.685e-06
1352.0,9.829e-07
1353.0,4.986e-08
1354.0,1.715e-07
1355.0,1.379e-09
1356.0,2.414e-08
1357.0,3.669e-08
1358.0,1.619e-09
1359.0,2.04e-10
1360.0,7.372e-10
1361.0,8.245e-13
