interpolation:linear
wavelength,value
280.0,3.8719999999999996e-22
280.5,1.268e-20
281.0,6.784000000000001e-20
281.5,4.378e-19
282.0,7.249e-19
282.5,1.797e-18
283.0,5.676e-18
283.5,9.233e-18
284.0,1.515e-16
284.5,4.409e-16
285.0,7.449e-16
285.5,3.702e-15
286.0,1.491e-14
286.5,6.696e-14
287.0,1.918e-13
287.5,7.378e-13
288.0,2.498e-12
288.5,7.58e-12
289.0,2.022e-11
289.5,6.11e-11
290.0,1.697e-10
290.5,3.459e-10
291.0,7.426e-10
291.5,2.132e-09
292.0,4.402e-09
292.5,6.189e-09
293.0,1.331e-08
293.5,3.248e-08
294.0,5.087e-08
294.5,6.935e-08
295.0,1.176e-07
295.5,2.047e-07
296.0,4.004e-07
296.5,5.687e-07
297.0,7.803e-07
297.5,2.145e-06
298.0,3.463e-06
298.5,3.557e-06
299.0,8.019e-06
299.5,1.394e-05
300.0,1.577e-05
300.5,2.358e-05
301.0,4.525e-05
301.5,7.661e-05
302.0,6.775e-05
302.5,0.0001353
303.0,0.0002506
303.5,0.0003238
304.0,0.0003134
304.5,0.0005081
305.0,0.0008693
305.5,0.001077
306.0,0.001074
306.5,0.001407
307.0,0.002351
307.5,0.003517
308.0,0.003781
308.5,0.004737
309.0,0.004896
309.5,0.006026
310.0,0.006255
310.5,0.01029
311.0,0.01325
311.5,0.01292
312.0,0.01372
312.5,0.01737
313.0,0.01922
313.5,0.01824
314.0,0.02393
314.5,0.02267
315.0,0.03008
315.5,0.02427
316.0,0.02237
316.5,0.03365
317.0,0.04164
317.5,0.04262
318.0,0.0343
318.5,0.04537
319.0,0.05554
319.5,0.04279
320.0,0.05115
320.5,0.06835
321.0,0.06463
321.5,0.06221
322.0,0.06183
322.5,0.05383
323.0,0.05587
323.5,0.07118
324.0,0.08342
324.5,0.08311
325.0,0.07013
325.5,0.09328
326.0,0.1145
326.5,0.1169
327.0,0.1153
327.5,0.1099
328.0,0.09491
328.5,0.103
329.0,0.1267
329.5,0.1448
330.0,0.1446
330.5,0.1128
331.0,0.1137
331.5,0.1172
332.0,0.1296
332.5,0.1294
333.0,0.1278
333.5,0.1132
334.0,0.1153
334.5,0.1356
335.0,0.1288
335.5,0.1515
336.0,0.1046
336.5,0.1202
337.0,0.09739
337.5,0.1204
338.0,0.1195
338.5,0.1389
339.0,0.137
339.5,0.1315
340.0,0.1529
340.5,0.1377
341.0,0.1348
341.5,0.1232
342.0,0.1468
342.5,0.137
343.0,0.1503
343.5,0.1413
344.0,0.1037
344.5,0.1052
345.0,0.1384
345.5,0.1408
346.0,0.1194
346.5,0.1348
347.0,0.1444
347.5,0.1164
348.0,0.1323
348.5,0.1319
349.0,0.122
349.5,0.1205
350.0,0.1486
350.5,0.1563
351.0,0.1393
351.5,0.1351
352.0,0.1446
352.5,0.1125
353.0,0.1413
353.5,0.1507
354.0,0.1561
354.5,0.1578
355.0,0.1568
355.5,0.1413
356.0,0.1474
356.5,0.1255
357.0,0.1034
357.5,0.1263
358.0,0.0998
358.5,0.08504
359.0,0.1186
359.5,0.1507
360.0,0.1593
360.5,0.127
361.0,0.1154
361.5,0.1325
362.0,0.1143
362.5,0.1578
363.0,0.1413
363.5,0.1298
364.0,0.1583
364.5,0.1349
365.0,0.137
365.5,0.1714
366.0,0.1811
366.5,0.1697
367.0,0.1648
367.5,0.1705
368.0,0.1488
368.5,0.1497
369.0,0.1612
369.5,0.1713
370.0,0.1821
370.5,0.1409
371.0,0.1502
371.5,0.1873
372.0,0.124
372.5,0.1482
373.0,0.1503
373.5,0.09751
374.0,0.1413
374.5,0.1167
375.0,0.1131
375.5,0.1683
376.0,0.1391
376.5,0.1437
377.0,0.1517
377.5,0.177
378.0,0.1913
378.5,0.1802
379.0,0.1482
379.5,0.135
380.0,0.1399
380.5,0.1689
381.0,0.1687
381.5,0.1333
382.0,0.118
382.5,0.1003
383.0,0.09258
383.5,0.0889
384.0,0.09777
384.5,0.1434
385.0,0.1417
385.5,0.1316
386.0,0.1124
386.5,0.1471
387.0,0.1219
387.5,0.1365
388.0,0.1256
388.5,0.1238
389.0,0.1332
389.5,0.1608
390.0,0.1609
390.5,0.1476
391.0,0.1732
391.5,0.176
392.0,0.1478
392.5,0.1319
393.0,0.07317
393.5,0.05302
394.0,0.1076
394.5,0.1363
395.0,0.1658
395.5,0.1679
396.0,0.1451
396.5,0.08457
397.0,0.06326
397.5,0.1282
398.0,0.179
398.5,0.1844
399.0,0.1991
399.5,0.1978
400.0,0.2048
401.0,0.2013
402.0,0.2109
403.0,0.1991
404.0,0.1947
405.0,0.1935
406.0,0.1891
407.0,0.1847
408.0,0.1906
409.0,0.2027
410.0,0.176
411.0,0.1894
412.0,0.2022
413.0,0.1959
414.0,0.197
415.0,0.1962
416.0,0.1982
417.0,0.192
418.0,0.1872
419.0,0.1884
420.0,0.1863
421.0,0.1935
422.0,0.1826
423.0,0.1771
424.0,0.186
425.0,0.1843
426.0,0.1784
427.0,0.1739
428.0,0.1683
429.0,0.1584
430.0,0.1377
431.0,0.1355
432.0,0.1737
433.0,0.1734
434.0,0.1599
435.0,0.1659
436.0,0.1857
437.0,0.182
438.0,0.1646
439.0,0.1689
440.0,0.173
441.0,0.1779
442.0,0.1894
443.0,0.1832
444.0,0.186
445.0,0.1808
446.0,0.1715
447.0,0.1842
448.0,0.1856
449.0,0.185
450.0,0.1887
451.0,0.1943
452.0,0.1859
453.0,0.1737
454.0,0.1802
455.0,0.1799
456.0,0.1828
457.0,0.1843
458.0,0.1765
459.0,0.1742
460.0,0.1732
461.0,0.1758
462.0,0.176
463.0,0.1738
464.0,0.17
465.0,0.1669
466.0,0.1675
467.0,0.1632
468.0,0.1637
469.0,0.1632
470.0,0.1569
471.0,0.1557
472.0,0.1629
473.0,0.1597
474.0,0.1588
475.0,0.1588
476.0,0.1528
477.0,0.1518
478.0,0.1546
479.0,0.1522
480.0,0.1512
481.0,0.1526
482.0,0.1522
483.0,0.1494
484.0,0.1455
485.0,0.1378
486.0,0.1198
487.0,0.1248
488.0,0.1359
489.0,0.1353
490.0,0.1412
491.0,0.1377
492.0,0.129
493.0,0.1323
494.0,0.1327
495.0,0.1328
496.0,0.1326
497.0,0.1336
498.0,0.1262
499.0,0.1265
500.0,0.1216
501.0,0.1182
502.0,0.1153
503.0,0.1188
504.0,0.1147
505.0,0.1179
506.0,0.1209
507.0,0.1143
508.0,0.1101
509.0,0.1125
510.0,0.1113
511.0,0.1136
512.0,0.114
513.0,0.107
514.0,0.1055
515.0,0.1036
516.0,0.1026
517.0,0.09048
518.0,0.09443
519.0,0.09829
520.0,0.1011
521.0,0.1012
522.0,0.1004
523.0,0.09785
524.0,0.1005
525.0,0.1007
526.0,0.09537
527.0,0.089
528.0,0.09323
529.0,0.09744
530.0,0.09525
531.0,0.09587
532.0,0.09186
533.0,0.08853
534.0,0.09054
535.0,0.09194
536.0,0.0922
537.0,0.08799
538.0,0.08893
539.0,0.08759
540.0,0.08339
541.0,0.08327
542.0,0.08516
543.0,0.08362
544.0,0.08446
545.0,0.08365
546.0,0.08338
547.0,0.08274
548.0,0.08118
549.0,0.08088
550.0,0.08128
551.0,0.07972
552.0,0.0797
553.0,0.0777
554.0,0.07898
555.0,0.07855
556.0,0.07693
557.0,0.07393
558.0,0.07273
559.0,0.07074
560.0,0.07101
561.0,0.0713
562.0,0.07016
563.0,0.07146
564.0,0.06897
565.0,0.06785
566.0,0.06633
567.0,0.06704
568.0,0.0659
569.0,0.06376
570.0,0.0633
571.0,0.06248
572.0,0.06343
573.0,0.06368
574.0,0.06308
575.0,0.06153
576.0,0.06062
577.0,0.06095
578.0,0.05975
579.0,0.05973
580.0,0.06063
581.0,0.06068
582.0,0.06155
583.0,0.06143
584.0,0.06169
585.0,0.05987
586.0,0.05828
587.0,0.05914
588.0,0.05724
589.0,0.05016
590.0,0.05216
591.0,0.05498
592.0,0.05382
593.0,0.05431
594.0,0.05347
595.0,0.05167
596.0,0.0535
597.0,0.05249
598.0,0.05199
599.0,0.05167
600.0,0.05143
601.0,0.05072
602.0,0.05008
603.0,0.05063
604.0,0.05119
605.0,0.05069
606.0,0.05028
607.0,0.05059
608.0,0.04983
609.0,0.04972
610.0,0.0492
611.0,0.04928
612.0,0.04896
613.0,0.04815
614.0,0.04731
615.0,0.04816
616.0,0.0464
617.0,0.04612
618.0,0.0477
619.0,0.04702
620.0,0.0471
621.0,0.04692
622.0,0.04613
623.0,0.04519
624.0,0.04421
625.0,0.04393
626.0,0.04438
627.0,0.04463
628.0,0.04098
629.0,0.04299
630.0,0.04179
631.0,0.0427
632.0,0.04204
633.0,0.04322
634.0,0.04269
635.0,0.04318
636.0,0.04246
637.0,0.04299
638.0,0.04327
639.0,0.04263
640.0,0.04206
641.0,0.04186
642.0,0.04153
643.0,0.04193
644.0,0.04165
645.0,0.04151
646.0,0.04029
647.0,0.03951
648.0,0.03935
649.0,0.0384
650.0,0.03858
651.0,0.0401
652.0,0.03806
653.0,0.03922
654.0,0.03863
655.0,0.03692
656.0,0.03264
657.0,0.03339
658.0,0.03733
659.0,0.03746
660.0,0.03745
661.0,0.03754
662.0,0.03743
663.0,0.03655
664.0,0.03687
665.0,0.03677
666.0,0.03666
667.0,0.03649
668.0,0.03638
669.0,0.03679
670.0,0.03647
671.0,0.03632
672.0,0.03588
673.0,0.03631
674.0,0.03601
675.0,0.03553
676.0,0.03562
677.0,0.03514
678.0,0.0351
679.0,0.03439
680.0,0.03452
681.0,0.03414
682.0,0.03393
683.0,0.03371
684.0,0.03338
685.0,0.03351
686.0,0.03316
687.0,0.02032
688.0,0.02435
689.0,0.02435
690.0,0.02567
691.0,0.02721
692.0,0.02835
693.0,0.02796
694.0,0.02759
695.0,0.02882
696.0,0.02873
697.0,0.0307
698.0,0.03009
699.0,0.02903
700.0,0.02854
701.0,0.02807
702.0,0.02822
703.0,0.02815
704.0,0.02903
705.0,0.02893
706.0,0.02882
707.0,0.02873
708.0,0.02865
709.0,0.02862
710.0,0.02844
711.0,0.02833
712.0,0.02817
713.0,0.02772
714.0,0.02769
715.0,0.0266
716.0,0.02648
717.0,0.02221
718.0,0.02014
719.0,0.01822
720.0,0.01903
721.0,0.0213
722.0,0.0248
723.0,0.02269
724.0,0.02004
725.0,0.01958
726.0,0.0205
727.0,0.02077
728.0,0.01926
729.0,0.02009
730.0,0.02122
731.0,0.02011
732.0,0.02166
733.0,0.02307
734.0,0.02357
735.0,0.02294
736.0,0.02281
737.0,0.02278
738.0,0.02318
739.0,0.0226
740.0,0.02313
741.0,0.02282
742.0,0.02275
743.0,0.02322
744.0,0.02304
745.0,0.02295
746.0,0.02294
747.0,0.02289
748.0,0.02272
749.0,0.02236
750.0,0.02225
751.0,0.02193
752.0,0.02194
753.0,0.02195
754.0,0.0219
755.0,0.02168
756.0,0.02158
757.0,0.02151
758.0,0.02114
759.0,0.02053
760.0,0.002807
761.0,0.001461
762.0,0.009162
763.0,0.004285
764.0,0.006593
765.0,0.009024
766.0,0.01144
767.0,0.01493
768.0,0.01771
769.0,0.01813
770.0,0.01882
771.0,0.01895
772.0,0.01892
773.0,0.01896
774.0,0.01877
775.0,0.01854
776.0,0.01867
777.0,0.01833
778.0,0.01812
779.0,0.01804
780.0,0.01786
781.0,0.0178
782.0,0.01784
783.0,0.01746
784.0,0.01747
785.0,0.01726
786.0,0.01738
787.0,0.01694
788.0,0.01662
789.0,0.01653
790.0,0.01593
791.0,0.01608
792.0,0.0159
793.0,0.01556
794.0,0.01585
795.0,0.01602
796.0,0.01534
797.0,0.01529
798.0,0.01579
799.0,0.01559
800.0,0.01522
801.0,0.01507
802.0,0.01496
803.0,0.01476
804.0,0.01473
805.0,0.01465
806.0,0.01504
807.0,0.01477
808.0,0.01472
809.0,0.01433
810.0,0.01411
811.0,0.01402
812.0,0.01346
813.0,0.01307
814.0,0.01118
815.0,0.01106
816.0,0.01015
817.0,0.01032
818.0,0.009852
819.0,0.01119
820.0,0.01041
821.0,0.01247
822.0,0.012
823.0,0.007615
824.0,0.01146
825.0,0.01202
826.0,0.01141
827.0,0.01212
828.0,0.009927
829.0,0.01122
830.0,0.011
831.0,0.011
832.0,0.01056
833.0,0.01137
834.0,0.01083
835.0,0.01205
836.0,0.01136
837.0,0.01199
838.0,0.01151
839.0,0.01171
840.0,0.01193
841.0,0.01168
842.0,0.01169
843.0,0.01167
844.0,0.01144
845.0,0.0118
846.0,0.0117
847.0,0.01144
848.0,0.0113
849.0,0.01092
850.0,0.01042
851.0,0.01096
852.0,0.01083
853.0,0.01039
854.0,0.008921
855.0,0.009778
856.0,0.01064
857.0,0.01084
858.0,0.01072
859.0,0.01069
860.0,0.01067
861.0,0.01057
862.0,0.0107
863.0,0.01091
864.0,0.01032
865.0,0.01019
866.0,0.00913
867.0,0.009489
868.0,0.01028
869.0,0.01003
870.0,0.01027
871.0,0.01009
872.0,0.01002
873.0,0.009955
874.0,0.009793
875.0,0.009551
876.0,0.009607
877.0,0.009664
878.0,0.009725
879.0,0.009535
880.0,0.009291
881.0,0.009106
882.0,0.009263
883.0,0.009262
884.0,0.009175
885.0,0.009201
886.0,0.008704
887.0,0.008783
888.0,0.008861
889.0,0.008949
890.0,0.008804
891.0,0.008769
892.0,0.008447
893.0,0.0081
894.0,0.007695
895.0,0.007134
896.0,0.006612
897.0,0.005507
898.0,0.006072
899.0,0.004402
900.0,0.006241
901.0,0.00463
902.0,0.005588
903.0,0.005575
904.0,0.007324
905.0,0.006994
906.0,0.006468
907.0,0.005011
908.0,0.005129
909.0,0.005636
910.0,0.004815
911.0,0.005201
912.0,0.005451
913.0,0.004825
914.0,0.004778
915.0,0.005208
916.0,0.004295
917.0,0.00566
918.0,0.004382
919.0,0.005744
920.0,0.005843
921.0,0.006106
922.0,0.005311
923.0,0.005855
924.0,0.005401
925.0,0.005249
926.0,0.005294
927.0,0.006018
928.0,0.004102
929.0,0.003666
930.0,0.002756
931.0,0.00259
932.0,0.001772
933.0,0.0014
934.0,0.0007183
935.0,0.001435
936.0,0.0008528
937.0,0.0008598
938.0,0.001069
939.0,0.002423
940.0,0.002989
941.0,0.002155
942.0,0.002534
943.0,0.001575
944.0,0.001685
945.0,0.002193
946.0,0.001028
947.0,0.002175
948.0,0.00155
949.0,0.003009
950.0,0.00072
951.0,0.002946
952.0,0.00145
953.0,0.001932
954.0,0.002447
955.0,0.001952
956.0,0.001908
957.0,0.001423
958.0,0.002818
959.0,0.002133
960.0,0.002409
961.0,0.002762
962.0,0.002587
963.0,0.003053
964.0,0.002749
965.0,0.003018
966.0,0.003003
967.0,0.002969
968.0,0.004263
969.0,0.004441
970.0,0.004002
971.0,0.004721
972.0,0.004452
973.0,0.003726
974.0,0.003498
975.0,0.003652
976.0,0.003397
977.0,0.003994
978.0,0.003722
979.0,0.00393
980.0,0.003637
981.0,0.004517
982.0,0.00425
983.0,0.004032
984.0,0.004661
985.0,0.004187
986.0,0.004742
987.0,0.004594
988.0,0.004567
989.0,0.004694
990.0,0.004506
991.0,0.00466
992.0,0.004674
993.0,0.004518
994.0,0.004644
995.0,0.004627
996.0,0.004583
997.0,0.004576
998.0,0.004536
999.0,0.004505
1000.0,0.004448
1001.0,0.004496
1002.0,0.004319
1003.0,0.004381
1004.0,0.004247
1005.0,0.004089
1006.0,0.004225
1007.0,0.004301
1008.0,0.004255
1009.0,0.00421
1010.0,0.004172
1011.0,0.004217
1012.0,0.004156
1013.0,0.004177
1014.0,0.004133
1015.0,0.004089
1016.0,0.004053
1017.0,0.004047
1018.0,0.00402
1019.0,0.003905
1020.0,0.003966
1021.0,0.003947
1022.0,0.003896
1023.0,0.003923
1024.0,0.003844
1025.0,0.003896
1026.0,0.003861
1027.0,0.003837
1028.0,0.003814
1029.0,0.003755
1030.0,0.003771
1031.0,0.003739
1032.0,0.003716
1033.0,0.003645
1034.0,0.003632
1035.0,0.003629
1036.0,0.003633
1037.0,0.00356
1038.0,0.003563
1039.0,0.003547
1040.0,0.00352
1041.0,0.003519
1042.0,0.003481
1043.0,0.003457
1044.0,0.003456
1045.0,0.003395
1046.0,0.003344
1047.0,0.003361
1048.0,0.003366
1049.0,0.003341
1050.0,0.003313
1051.0,0.003294
1052.0,0.003268
1053.0,0.003229
1054.0,0.003223
1055.0,0.003211
1056.0,0.003186
1057.0,0.003163
1058.0,0.003073
1059.0,0.003064
1060.0,0.003047
1061.0,0.003031
1062.0,0.003033
1063.0,0.002992
1064.0,0.003017
1065.0,0.00298
1066.0,0.002914
1067.0,0.002939
1068.0,0.002861
1069.0,0.002765
1070.0,0.002845
1071.0,0.002889
1072.0,0.002837
1073.0,0.002789
1074.0,0.002862
1075.0,0.002679
1076.0,0.002837
1077.0,0.002759
1078.0,0.00269
1079.0,0.002766
1080.0,0.002683
1081.0,0.002578
1082.0,0.002635
1083.0,0.002639
1084.0,0.002534
1085.0,0.002647
1086.0,0.002357
1087.0,0.002462
1088.0,0.002583
1089.0,0.002467
1090.0,0.002384
1091.0,0.002538
1092.0,0.002529
1093.0,0.002056
1094.0,0.002288
1095.0,0.002141
1096.0,0.002019
1097.0,0.002429
1098.0,0.001967
1099.0,0.002056
1100.0,0.001869
1101.0,0.001897
1102.0,0.001787
1103.0,0.00175
1104.0,0.001749
1105.0,0.001958
1106.0,0.001389
1107.0,0.001824
1108.0,0.001476
1109.0,0.00148
1110.0,0.00178
1111.0,0.00111
1112.0,0.001456
1113.0,0.0008451
1114.0,0.0009522
1115.0,0.0007714
1116.0,0.000587
1117.0,0.0001931
1118.0,0.0006425
1119.0,0.0002937
1120.0,0.0003714
1121.0,0.0005049
1122.0,0.0001958
1123.0,0.0003306
1124.0,0.0002758
1125.0,0.0003663
1126.0,0.0001159
1127.0,0.0004134
1128.0,0.0002324
1129.0,0.0002472
1130.0,0.0001579
1131.0,0.000839
1132.0,0.0006368
1133.0,0.0003768
1134.0,8.708e-05
1135.0,3.224e-05
1136.0,0.000304
1137.0,0.0008003
1138.0,0.000544
1139.0,0.0008719
1140.0,0.0007005
1141.0,0.0005102
1142.0,0.0005968
1143.0,0.0008864
1144.0,0.000273
1145.0,0.000348
1146.0,0.0003753
1147.0,0.0001205
1148.0,0.000742
1149.0,0.0005701
1150.0,0.0002905
1151.0,0.0005157
1152.0,0.0006543
1153.0,0.0006425
1154.0,0.0003265
1155.0,0.0008647
1156.0,0.000761
1157.0,0.000875
1158.0,0.0008612
1159.0,0.0009441
1160.0,0.0007833
1161.0,0.001007
1162.0,0.001004
1163.0,0.001444
1164.0,0.001197
1165.0,0.001102
1166.0,0.001102
1167.0,0.001215
1168.0,0.001223
1169.0,0.001259
1170.0,0.001388
1171.0,0.001342
1172.0,0.001374
1173.0,0.00137
1174.0,0.0009102
1175.0,0.001338
1176.0,0.001498
1177.0,0.001413
1178.0,0.001001
1179.0,0.001496
1180.0,0.001292
1181.0,0.001336
1182.0,0.0008573
1183.0,0.001315
1184.0,0.001205
1185.0,0.001145
1186.0,0.001408
1187.0,0.00132
1188.0,0.000856
1189.0,0.001215
1190.0,0.001357
1191.0,0.00126
1192.0,0.001371
1193.0,0.001297
1194.0,0.001342
1195.0,0.001248
1196.0,0.001187
1197.0,0.001342
1198.0,0.001206
1199.0,0.0009839
1200.0,0.001255
1201.0,0.001193
1202.0,0.001188
1203.0,0.001177
1204.0,0.000997
1205.0,0.001216
1206.0,0.001369
1207.0,0.001167
1208.0,0.001157
1209.0,0.001178
1210.0,0.001234
1211.0,0.001156
1212.0,0.001125
1213.0,0.001288
1214.0,0.001153
1215.0,0.001123
1216.0,0.001272
1217.0,0.001226
1218.0,0.001253
1219.0,0.00123
1220.0,0.001246
1221.0,0.00126
1222.0,0.001217
1223.0,0.001199
1224.0,0.001183
1225.0,0.001235
1226.0,0.001244
1227.0,0.001124
1228.0,0.001246
1229.0,0.001232
1230.0,0.001204
1231.0,0.001246
1232.0,0.001234
1233.0,0.001173
1234.0,0.001236
1235.0,0.001222
1236.0,0.001228
1237.0,0.001202
1238.0,0.001217
1239.0,0.001197
1240.0,0.001198
1241.0,0.001185
1242.0,0.001182
1243.0,0.001168
1244.0,0.001172
1245.0,0.001173
1246.0,0.001163
1247.0,0.001154
1248.0,0.001147
1249.0,0.001149
1250.0,0.001137
1251.0,0.001117
1252.0,0.001116
1253.0,0.001099
1254.0,0.001081
1255.0,0.001103
1256.0,0.00106
1257.0,0.001049
1258.0,0.001072
1259.0,0.001017
1260.0,0.001021
1261.0,0.000944
1262.0,0.0009049
1263.0,0.0009035
1264.0,0.0008137
1265.0,0.0008929
1266.0,0.0008459
1267.0,0.0008655
1268.0,0.0008067
1269.0,0.0004429
1270.0,0.0008523
1271.0,0.0009166
1272.0,0.0009186
1273.0,0.0009041
1274.0,0.0009065
1275.0,0.0009197
1276.0,0.0009288
1277.0,0.0009354
1278.0,0.0009571
1279.0,0.0009449
1280.0,0.0009304
1281.0,0.000888
1282.0,0.000858
1283.0,0.0009201
1284.0,0.0009381
1285.0,0.0009422
1286.0,0.0009548
1287.0,0.0009318
1288.0,0.0009301
1289.0,0.000888
1290.0,0.0009166
1291.0,0.0009281
1292.0,0.000851
1293.0,0.0008996
1294.0,0.0008895
1295.0,0.0008781
1296.0,0.0008243
1297.0,0.0007682
1298.0,0.0008421
1299.0,0.0008856
1300.0,0.0007157
1301.0,0.0007416
1302.0,0.0008302
1303.0,0.0007017
1304.0,0.0005725
1305.0,0.0008023
1306.0,0.0007987
1307.0,0.0005851
1308.0,0.0006939
1309.0,0.0007827
1310.0,0.0005667
1311.0,0.0006531
1312.0,0.0006317
1313.0,0.0006124
1314.0,0.000534
1315.0,0.0005242
1316.0,0.0006305
1317.0,0.0005891
1318.0,0.000651
1319.0,0.000478
1320.0,0.0004625
1321.0,0.0005522
1322.0,0.0005541
1323.0,0.0003924
1324.0,0.0004614
1325.0,0.000602
1326.0,0.0004989
1327.0,0.0004699
1328.0,0.0003941
1329.0,0.0002797
1330.0,0.0003759
1331.0,0.0002092
1332.0,0.0002179
1333.0,0.0003121
1334.0,0.0002641
1335.0,0.0003766
1336.0,0.0002855
1337.0,0.0002478
1338.0,0.0002688
1339.0,0.000268
1340.0,0.000261
1341.0,0.0002488
1342.0,0.0002622
1343.0,0.0001652
1344.0,9.644e-05
1345.0,0.0001411
1346.0,6.545e-05
1347.0,6.603e-05
1348.0,4.06e-06
1349.0,1.468e-05
1350.0,1.525e-05
1351.0,3.641e-06
1352.0,9.766e-07
1353.0,4.967e-08
1354.0,1.708e-07
1355.0,1.375e-09
1356.0,2.406e-08
1357.0,3.655e-08
1358.0,1.614e-09
