interpolation:linear
wavelength,value
280.0,2.2260000000000002e-21
280.5,7.032000000000001e-20
281.0,3.72e-19
281.5,3.92e-19
282.0,1.025e-18
282.5,2.658e-18
283.0,8.543e-18
283.5,1.396e-17
284.0,2.271e-16
284.5,6.559e-16
285.0,1.447e-15
285.5,6.964e-15
286.0,2.78e-14
286.5,1.224e-13
287.0,3.463e-13
287.5,1.31e-12
288.0,3.611e-12
288.5,1.18e-11
289.0,3.307e-11
289.5,1.037e-10
290.0,2.941e-10
290.5,6.086e-10
291.0,1.324e-09
291.5,3.843e-09
292.0,7.976e-09
292.5,1.186e-08
293.0,2.732e-08
293.5,7.298e-08
294.0,1.215e-07
294.5,1.545e-07
295.0,2.753e-07
295.5,6.687e-07
296.0,1.313e-06
296.5,1.876e-06
297.0,2.59e-06
297.5,7.215e-06
298.0,1.183e-05
298.5,1.232e-05
299.0,2.826e-05
299.5,5.111e-05
300.0,5.951e-05
300.5,9.223e-05
301.0,0.0001909
301.5,0.0003557
302.0,0.0003352
302.5,0.0006518
303.0,0.001164
303.5,0.001464
304.0,0.001384
304.5,0.002109
305.0,0.003304
305.5,0.00386
306.0,0.003758
306.5,0.004737
307.0,0.007251
307.5,0.009941
308.0,0.01052
308.5,0.0126
309.0,0.01273
309.5,0.01455
310.0,0.0146
310.5,0.02359
311.0,0.02958
311.5,0.02849
312.0,0.02858
312.5,0.03484
313.0,0.03778
313.5,0.03645
314.0,0.04575
314.5,0.04091
315.0,0.0537
315.5,0.04448
316.0,0.03912
316.5,0.05656
317.0,0.06997
317.5,0.07233
318.0,0.05665
318.5,0.07119
319.0,0.08492
319.5,0.06804
320.0,0.08176
320.5,0.1037
321.0,0.09363
321.5,0.08962
322.0,0.09343
322.5,0.08106
323.0,0.08142
323.5,0.1013
324.0,0.118
324.5,0.1189
325.0,0.1012
325.5,0.1311
326.0,0.1607
326.5,0.1613
327.0,0.1598
327.5,0.1534
328.0,0.1352
328.5,0.1428
329.0,0.1719
329.5,0.195
330.0,0.1955
330.5,0.1549
331.0,0.1569
331.5,0.1597
332.0,0.1733
332.5,0.1715
333.0,0.17
333.5,0.1523
334.0,0.1554
334.5,0.1799
335.0,0.1693
335.5,0.1999
336.0,0.1379
336.5,0.1581
337.0,0.1288
337.5,0.1595
338.0,0.1562
338.5,0.1819
339.0,0.1787
339.5,0.1718
340.0,0.199
340.5,0.1789
341.0,0.1753
341.5,0.1595
342.0,0.1897
342.5,0.1767
343.0,0.1942
343.5,0.1827
344.0,0.1337
344.5,0.1361
345.0,0.1781
345.5,0.1808
346.0,0.1529
346.5,0.1723
347.0,0.1848
347.5,0.149
348.0,0.1688
348.5,0.1679
349.0,0.1551
349.5,0.1531
350.0,0.1886
350.5,0.1982
351.0,0.1766
351.5,0.1717
352.0,0.1833
352.5,0.1423
353.0,0.1784
353.5,0.19
354.0,0.1965
354.5,0.1985
355.0,0.1972
355.5,0.1775
356.0,0.185
356.5,0.1573
357.0,0.1295
357.5,0.158
358.0,0.1247
358.5,0.1062
359.0,0.148
359.5,0.188
360.0,0.1986
360.5,0.1581
361.0,0.1436
361.5,0.1647
362.0,0.1419
362.5,0.1957
363.0,0.1751
363.5,0.1607
364.0,0.1958
364.5,0.1668
365.0,0.1692
365.5,0.2116
366.0,0.2234
366.5,0.2091
367.0,0.2029
367.5,0.2098
368.0,0.1829
368.5,0.1839
369.0,0.1979
369.5,0.2101
370.0,0.2232
370.5,0.1726
371.0,0.1837
371.5,0.229
372.0,0.1514
372.5,0.1809
373.0,0.1834
373.5,0.1189
374.0,0.1721
374.5,0.142
375.0,0.1375
375.5,0.2046
376.0,0.169
376.5,0.1744
377.0,0.184
377.5,0.2145
378.0,0.2316
378.5,0.2181
379.0,0.1793
379.5,0.1631
380.0,0.1689
380.5,0.2038
381.0,0.2034
381.5,0.1606
382.0,0.1421
382.5,0.1207
383.0,0.1113
383.5,0.1068
384.0,0.1173
384.5,0.172
385.0,0.1699
385.5,0.1576
386.0,0.1345
386.5,0.176
387.0,0.1457
387.5,0.163
388.0,0.1499
388.5,0.1476
389.0,0.1587
389.5,0.1915
390.0,0.1915
390.5,0.1755
391.0,0.2058
391.5,0.2091
392.0,0.1755
392.5,0.1565
393.0,0.08674
393.5,0.06282
394.0,0.1274
394.5,0.1613
395.0,0.1961
395.5,0.1985
396.0,0.1714
396.5,0.09982
397.0,0.07462
397.5,0.1512
398.0,0.2109
398.5,0.2172
399.0,0.2343
399.5,0.2326
400.0,0.2407
401.0,0.2364
402.0,0.2475
403.0,0.2333
404.0,0.2279
405.0,0.2262
406.0,0.2208
407.0,0.2155
408.0,0.2222
409.0,0.236
410.0,0.2047
411.0,0.2201
412.0,0.2346
413.0,0.2271
414.0,0.2281
415.0,0.227
416.0,0.2291
417.0,0.2217
418.0,0.2159
419.0,0.2171
420.0,0.2144
421.0,0.2226
422.0,0.2099
423.0,0.2033
424.0,0.2133
425.0,0.2112
426.0,0.2042
427.0,0.1989
428.0,0.1924
429.0,0.1809
430.0,0.1571
431.0,0.1545
432.0,0.1978
433.0,0.1973
434.0,0.1818
435.0,0.1884
436.0,0.2108
437.0,0.2065
438.0,0.1866
439.0,0.1915
440.0,0.1961
441.0,0.2015
442.0,0.2144
443.0,0.2072
444.0,0.2102
445.0,0.2041
446.0,0.1934
447.0,0.2075
448.0,0.2091
449.0,0.2082
450.0,0.2123
451.0,0.2185
452.0,0.2089
453.0,0.195
454.0,0.2021
455.0,0.2018
456.0,0.2049
457.0,0.2066
458.0,0.1979
459.0,0.1952
460.0,0.1941
461.0,0.197
462.0,0.1971
463.0,0.1945
464.0,0.1901
465.0,0.1864
466.0,0.1868
467.0,0.182
468.0,0.1826
469.0,0.1819
470.0,0.1748
471.0,0.1734
472.0,0.1814
473.0,0.1777
474.0,0.1766
475.0,0.1767
476.0,0.1699
477.0,0.1689
478.0,0.1721
479.0,0.1695
480.0,0.1684
481.0,0.17
482.0,0.1695
483.0,0.1663
484.0,0.1617
485.0,0.1531
486.0,0.1329
487.0,0.1383
488.0,0.1506
489.0,0.1498
490.0,0.1564
491.0,0.1526
492.0,0.143
493.0,0.1465
494.0,0.1469
495.0,0.1471
496.0,0.1469
497.0,0.1479
498.0,0.1398
499.0,0.1404
500.0,0.1351
501.0,0.1314
502.0,0.1283
503.0,0.1323
504.0,0.1278
505.0,0.1315
506.0,0.1347
507.0,0.1273
508.0,0.1225
509.0,0.1252
510.0,0.1237
511.0,0.1262
512.0,0.1266
513.0,0.1189
514.0,0.1172
515.0,0.1152
516.0,0.1141
517.0,0.1006
518.0,0.105
519.0,0.1093
520.0,0.1124
521.0,0.1126
522.0,0.1118
523.0,0.109
524.0,0.112
525.0,0.1124
526.0,0.1066
527.0,0.09954
528.0,0.1044
529.0,0.1092
530.0,0.1068
531.0,0.1076
532.0,0.1031
533.0,0.09939
534.0,0.1016
535.0,0.1032
536.0,0.1034
537.0,0.0987
538.0,0.09974
539.0,0.09826
540.0,0.09358
541.0,0.09349
542.0,0.09566
543.0,0.09396
544.0,0.09497
545.0,0.09409
546.0,0.09382
547.0,0.09311
548.0,0.09136
549.0,0.09103
550.0,0.09149
551.0,0.08975
552.0,0.08973
553.0,0.08751
554.0,0.08898
555.0,0.08853
556.0,0.08673
557.0,0.08339
558.0,0.08211
559.0,0.07993
560.0,0.08029
561.0,0.08069
562.0,0.07947
563.0,0.08101
564.0,0.07823
565.0,0.07701
566.0,0.07532
567.0,0.07617
568.0,0.07492
569.0,0.07256
570.0,0.07206
571.0,0.07114
572.0,0.07228
573.0,0.07258
574.0,0.07192
575.0,0.07014
576.0,0.06908
577.0,0.06943
578.0,0.06802
579.0,0.06795
580.0,0.06891
581.0,0.0689
582.0,0.06982
583.0,0.06965
584.0,0.06991
585.0,0.06783
586.0,0.066
587.0,0.06698
588.0,0.06487
589.0,0.05695
590.0,0.05922
591.0,0.06238
592.0,0.06112
593.0,0.06167
594.0,0.06076
595.0,0.0588
596.0,0.06085
597.0,0.05976
598.0,0.05921
599.0,0.05887
600.0,0.0586
601.0,0.05779
602.0,0.05706
603.0,0.05767
604.0,0.05829
605.0,0.05769
606.0,0.05718
607.0,0.05747
608.0,0.05656
609.0,0.05638
610.0,0.05573
611.0,0.05577
612.0,0.05535
613.0,0.05439
614.0,0.05339
615.0,0.0543
616.0,0.05227
617.0,0.05192
618.0,0.05366
619.0,0.05287
620.0,0.05293
621.0,0.05271
622.0,0.05181
623.0,0.05073
624.0,0.0496
625.0,0.04926
626.0,0.04976
627.0,0.05003
628.0,0.04611
629.0,0.04821
630.0,0.04684
631.0,0.04777
632.0,0.04699
633.0,0.04826
634.0,0.04762
635.0,0.04813
636.0,0.04728
637.0,0.04784
638.0,0.0481
639.0,0.04735
640.0,0.04667
641.0,0.04642
642.0,0.04602
643.0,0.04645
644.0,0.0461
645.0,0.04593
646.0,0.04458
647.0,0.04374
648.0,0.04354
649.0,0.04248
650.0,0.0426
651.0,0.04425
652.0,0.04204
653.0,0.04324
654.0,0.04257
655.0,0.04069
656.0,0.03594
657.0,0.03675
658.0,0.04104
659.0,0.04116
660.0,0.04113
661.0,0.04121
662.0,0.04109
663.0,0.04011
664.0,0.04043
665.0,0.04029
666.0,0.04014
667.0,0.03993
668.0,0.03978
669.0,0.04021
670.0,0.03984
671.0,0.03965
672.0,0.03916
673.0,0.03961
674.0,0.03927
675.0,0.03873
676.0,0.03881
677.0,0.03827
678.0,0.03822
679.0,0.03743
680.0,0.03756
681.0,0.03713
682.0,0.03691
683.0,0.03666
684.0,0.03629
685.0,0.03642
686.0,0.03603
687.0,0.02258
688.0,0.02687
689.0,0.02685
690.0,0.02822
691.0,0.0298
692.0,0.03094
693.0,0.03052
694.0,0.03007
695.0,0.03133
696.0,0.03121
697.0,0.03328
698.0,0.03261
699.0,0.0315
700.0,0.03097
701.0,0.03049
702.0,0.03062
703.0,0.03052
704.0,0.03144
705.0,0.03133
706.0,0.03119
707.0,0.03108
708.0,0.031
709.0,0.03094
710.0,0.03076
711.0,0.03063
712.0,0.03045
713.0,0.02997
714.0,0.02992
715.0,0.02877
716.0,0.02864
717.0,0.0242
718.0,0.02193
719.0,0.01982
720.0,0.02074
721.0,0.02312
722.0,0.02683
723.0,0.02458
724.0,0.02175
725.0,0.02127
726.0,0.02228
727.0,0.02252
728.0,0.02093
729.0,0.02177
730.0,0.02303
731.0,0.02182
732.0,0.02345
733.0,0.02492
734.0,0.02543
735.0,0.02476
736.0,0.02462
737.0,0.02459
738.0,0.02497
739.0,0.02435
740.0,0.0249
741.0,0.02456
742.0,0.02448
743.0,0.02497
744.0,0.02478
745.0,0.02467
746.0,0.02467
747.0,0.02461
748.0,0.02443
749.0,0.02403
750.0,0.02391
751.0,0.02356
752.0,0.02356
753.0,0.02357
754.0,0.0235
755.0,0.02326
756.0,0.02316
757.0,0.02309
758.0,0.02269
759.0,0.02206
760.0,0.003068
761.0,0.00157
762.0,0.01015
763.0,0.004728
764.0,0.007311
765.0,0.009992
766.0,0.01259
767.0,0.01628
768.0,0.01912
769.0,0.01953
770.0,0.02021
771.0,0.02034
772.0,0.0203
773.0,0.02033
774.0,0.02013
775.0,0.01989
776.0,0.02004
777.0,0.01967
778.0,0.01945
779.0,0.01937
780.0,0.01917
781.0,0.0191
782.0,0.01914
783.0,0.01872
784.0,0.01873
785.0,0.01851
786.0,0.01863
787.0,0.01818
788.0,0.01785
789.0,0.01774
790.0,0.01712
791.0,0.01726
792.0,0.01705
793.0,0.01669
794.0,0.01697
795.0,0.01717
796.0,0.01646
797.0,0.01642
798.0,0.01691
799.0,0.01671
800.0,0.01631
801.0,0.01617
802.0,0.01605
803.0,0.01584
804.0,0.0158
805.0,0.0157
806.0,0.01611
807.0,0.01583
808.0,0.01577
809.0,0.01537
810.0,0.01515
811.0,0.01507
812.0,0.0145
813.0,0.01408
814.0,0.0121
815.0,0.01196
816.0,0.01097
817.0,0.01115
818.0,0.01066
819.0,0.01207
820.0,0.01123
821.0,0.0134
822.0,0.0129
823.0,0.008239
824.0,0.01234
825.0,0.0129
826.0,0.01227
827.0,0.01301
828.0,0.0107
829.0,0.01205
830.0,0.01182
831.0,0.01182
832.0,0.01135
833.0,0.01221
834.0,0.01165
835.0,0.01292
836.0,0.0122
837.0,0.01284
838.0,0.01235
839.0,0.01255
840.0,0.01278
841.0,0.01252
842.0,0.01252
843.0,0.01248
844.0,0.01224
845.0,0.01262
846.0,0.01251
847.0,0.01223
848.0,0.01209
849.0,0.01169
850.0,0.01115
851.0,0.01173
852.0,0.0116
853.0,0.01112
854.0,0.009553
855.0,0.01047
856.0,0.01138
857.0,0.0116
858.0,0.01147
859.0,0.01144
860.0,0.01141
861.0,0.0113
862.0,0.01144
863.0,0.01166
864.0,0.01103
865.0,0.01089
866.0,0.009755
867.0,0.01014
868.0,0.01099
869.0,0.01072
870.0,0.01098
871.0,0.01078
872.0,0.0107
873.0,0.01063
874.0,0.01046
875.0,0.0102
876.0,0.01026
877.0,0.01032
878.0,0.01039
879.0,0.01019
880.0,0.009925
881.0,0.00973
882.0,0.0099
883.0,0.009897
884.0,0.009805
885.0,0.009834
886.0,0.009313
887.0,0.00939
888.0,0.009477
889.0,0.009565
890.0,0.009418
891.0,0.009377
892.0,0.009044
893.0,0.008681
894.0,0.00827
895.0,0.007693
896.0,0.007127
897.0,0.005951
898.0,0.006559
899.0,0.004757
900.0,0.006726
901.0,0.005018
902.0,0.00603
903.0,0.00603
904.0,0.007873
905.0,0.007523
906.0,0.00696
907.0,0.00542
908.0,0.005541
909.0,0.006083
910.0,0.005216
911.0,0.005614
912.0,0.005889
913.0,0.005229
914.0,0.00517
915.0,0.005653
916.0,0.004645
917.0,0.006124
918.0,0.004747
919.0,0.006202
920.0,0.00628
921.0,0.006576
922.0,0.005736
923.0,0.006302
924.0,0.005845
925.0,0.005674
926.0,0.005734
927.0,0.006501
928.0,0.004471
929.0,0.004005
930.0,0.003013
931.0,0.002828
932.0,0.001935
933.0,0.001524
934.0,0.0007764
935.0,0.00156
936.0,0.0009207
937.0,0.0009286
938.0,0.00116
939.0,0.002646
940.0,0.003266
941.0,0.002358
942.0,0.002774
943.0,0.001714
944.0,0.001825
945.0,0.002396
946.0,0.001114
947.0,0.002381
948.0,0.001681
949.0,0.003304
950.0,0.0007763
951.0,0.003232
952.0,0.001579
953.0,0.002109
954.0,0.002674
955.0,0.002133
956.0,0.002061
957.0,0.001552
958.0,0.003056
959.0,0.00232
960.0,0.002631
961.0,0.003006
962.0,0.002812
963.0,0.003315
964.0,0.002982
965.0,0.003279
966.0,0.003265
967.0,0.003229
968.0,0.004589
969.0,0.0048
970.0,0.004323
971.0,0.005077
972.0,0.004792
973.0,0.004035
974.0,0.003786
975.0,0.003943
976.0,0.003685
977.0,0.004302
978.0,0.004022
979.0,0.004243
980.0,0.003925
981.0,0.004857
982.0,0.00458
983.0,0.004349
984.0,0.004998
985.0,0.004514
986.0,0.005076
987.0,0.00493
988.0,0.0049
989.0,0.005019
990.0,0.004837
991.0,0.004987
992.0,0.005
993.0,0.004844
994.0,0.004966
995.0,0.004946
996.0,0.0049
997.0,0.004891
998.0,0.004849
999.0,0.004815
1000.0,0.004757
1001.0,0.004806
1002.0,0.004627
1003.0,0.004683
1004.0,0.004543
1005.0,0.00437
1006.0,0.004517
1007.0,0.004597
1008.0,0.00455
1009.0,0.004504
1010.0,0.004465
1011.0,0.004507
1012.0,0.004444
1013.0,0.004464
1014.0,0.004417
1015.0,0.00437
1016.0,0.004333
1017.0,0.004326
1018.0,0.004296
1019.0,0.004177
1020.0,0.004238
1021.0,0.004218
1022.0,0.004165
1023.0,0.004193
1024.0,0.004113
1025.0,0.004163
1026.0,0.004127
1027.0,0.004102
1028.0,0.004078
1029.0,0.004014
1030.0,0.00403
1031.0,0.003997
1032.0,0.003971
1033.0,0.003896
1034.0,0.003881
1035.0,0.003879
1036.0,0.003883
1037.0,0.003805
1038.0,0.003808
1039.0,0.003792
1040.0,0.003762
1041.0,0.003762
1042.0,0.003721
1043.0,0.003696
1044.0,0.003695
1045.0,0.003631
1046.0,0.003576
1047.0,0.003594
1048.0,0.003601
1049.0,0.003575
1050.0,0.003544
1051.0,0.003525
1052.0,0.003497
1053.0,0.003456
1054.0,0.00345
1055.0,0.003438
1056.0,0.003411
1057.0,0.003387
1058.0,0.003291
1059.0,0.003282
1060.0,0.003264
1061.0,0.003247
1062.0,0.003251
1063.0,0.003206
1064.0,0.003234
1065.0,0.003195
1066.0,0.003123
1067.0,0.003151
1068.0,0.003068
1069.0,0.002964
1070.0,0.00305
1071.0,0.003094
1072.0,0.003041
1073.0,0.002989
1074.0,0.003065
1075.0,0.002876
1076.0,0.003038
1077.0,0.002958
1078.0,0.002887
1079.0,0.00296
1080.0,0.002877
1081.0,0.002769
1082.0,0.002823
1083.0,0.002825
1084.0,0.002722
1085.0,0.002838
1086.0,0.002534
1087.0,0.002644
1088.0,0.002766
1089.0,0.00265
1090.0,0.002562
1091.0,0.00272
1092.0,0.002709
1093.0,0.002217
1094.0,0.002454
1095.0,0.00231
1096.0,0.002182
1097.0,0.002602
1098.0,0.002129
1099.0,0.002223
1100.0,0.002024
1101.0,0.002053
1102.0,0.001939
1103.0,0.001901
1104.0,0.001899
1105.0,0.002119
1106.0,0.001519
1107.0,0.001977
1108.0,0.001609
1109.0,0.00161
1110.0,0.001933
1111.0,0.001212
1112.0,0.001583
1113.0,0.000923
1114.0,0.001043
1115.0,0.0008415
1116.0,0.0006419
1117.0,0.0002074
1118.0,0.0007037
1119.0,0.000318
1120.0,0.0004059
1121.0,0.0005558
1122.0,0.0002112
1123.0,0.0003599
1124.0,0.0002986
1125.0,0.0003997
1126.0,0.0001237
1127.0,0.0004525
1128.0,0.0002522
1129.0,0.0002688
1130.0,0.0001694
1131.0,0.0009292
1132.0,0.0007014
1133.0,0.0004133
1134.0,9.234e-05
1135.0,3.349e-05
1136.0,0.0003324
1137.0,0.000889
1138.0,0.0005978
1139.0,0.0009554
1140.0,0.0007692
1141.0,0.0005594
1142.0,0.0006553
1143.0,0.000978
1144.0,0.0002955
1145.0,0.0003814
1146.0,0.0004124
1147.0,0.0001291
1148.0,0.0008159
1149.0,0.0006257
1150.0,0.0003141
1151.0,0.0005665
1152.0,0.0007199
1153.0,0.0007022
1154.0,0.0003569
1155.0,0.0009494
1156.0,0.0008361
1157.0,0.000957
1158.0,0.0009422
1159.0,0.001033
1160.0,0.0008547
1161.0,0.001096
1162.0,0.001093
1163.0,0.001563
1164.0,0.001298
1165.0,0.001201
1166.0,0.001194
1167.0,0.001316
1168.0,0.001326
1169.0,0.001365
1170.0,0.0015
1171.0,0.00145
1172.0,0.00148
1173.0,0.001481
1174.0,0.0009889
1175.0,0.001442
1176.0,0.001607
1177.0,0.001522
1178.0,0.001081
1179.0,0.001605
1180.0,0.001392
1181.0,0.001441
1182.0,0.0009281
1183.0,0.001417
1184.0,0.0013
1185.0,0.001238
1186.0,0.001515
1187.0,0.001424
1188.0,0.0009302
1189.0,0.00131
1190.0,0.001458
1191.0,0.001361
1192.0,0.001473
1193.0,0.001395
1194.0,0.001442
1195.0,0.001347
1196.0,0.001283
1197.0,0.001441
1198.0,0.001295
1199.0,0.001065
1200.0,0.001351
1201.0,0.001288
1202.0,0.001278
1203.0,0.00127
1204.0,0.001076
1205.0,0.001306
1206.0,0.001467
1207.0,0.001258
1208.0,0.001244
1209.0,0.001266
1210.0,0.001325
1211.0,0.001244
1212.0,0.001217
1213.0,0.001383
1214.0,0.001245
1215.0,0.001213
1216.0,0.001366
1217.0,0.001318
1218.0,0.001345
1219.0,0.001322
1220.0,0.001338
1221.0,0.001351
1222.0,0.001306
1223.0,0.001288
1224.0,0.001273
1225.0,0.001325
1226.0,0.001333
1227.0,0.00121
1228.0,0.001334
1229.0,0.001321
1230.0,0.001291
1231.0,0.001333
1232.0,0.00132
1233.0,0.00126
1234.0,0.001321
1235.0,0.001307
1236.0,0.001313
1237.0,0.001287
1238.0,0.0013
1239.0,0.00128
1240.0,0.001281
1241.0,0.001268
1242.0,0.001263
1243.0,0.001249
1244.0,0.001253
1245.0,0.001254
1246.0,0.001243
1247.0,0.001234
1248.0,0.001227
1249.0,0.001229
1250.0,0.001216
1251.0,0.001195
1252.0,0.001194
1253.0,0.001177
1254.0,0.001159
1255.0,0.00118
1256.0,0.001137
1257.0,0.001126
1258.0,0.001148
1259.0,0.001093
1260.0,0.001097
1261.0,0.00102
1262.0,0.0009805
1263.0,0.0009792
1264.0,0.0008874
1265.0,0.0009676
1266.0,0.0009202
1267.0,0.0009391
1268.0,0.0008788
1269.0,0.0004946
1270.0,0.0009259
1271.0,0.0009904
1272.0,0.0009919
1273.0,0.0009769
1274.0,0.0009787
1275.0,0.0009921
1276.0,0.001001
1277.0,0.001006
1278.0,0.001028
1279.0,0.001015
1280.0,0.0009989
1281.0,0.0009524
1282.0,0.0009185
1283.0,0.0009854
1284.0,0.001005
1285.0,0.001009
1286.0,0.001022
1287.0,0.0009987
1288.0,0.0009962
1289.0,0.0009544
1290.0,0.0009816
1291.0,0.0009933
1292.0,0.0009163
1293.0,0.0009641
1294.0,0.0009533
1295.0,0.0009433
1296.0,0.0008886
1297.0,0.0008298
1298.0,0.0009051
1299.0,0.0009485
1300.0,0.0007732
1301.0,0.0008003
1302.0,0.0008922
1303.0,0.0007573
1304.0,0.0006229
1305.0,0.0008623
1306.0,0.0008594
1307.0,0.0006341
1308.0,0.0007473
1309.0,0.0008437
1310.0,0.0006147
1311.0,0.0007047
1312.0,0.0006826
1313.0,0.0006632
1314.0,0.0005791
1315.0,0.0005704
1316.0,0.0006818
1317.0,0.0006372
1318.0,0.0007023
1319.0,0.0005205
1320.0,0.0005017
1321.0,0.0005986
1322.0,0.0006024
1323.0,0.0004291
1324.0,0.0005017
1325.0,0.0006517
1326.0,0.000542
1327.0,0.0005109
1328.0,0.0004288
1329.0,0.0003062
1330.0,0.0004123
1331.0,0.0002294
1332.0,0.0002384
1333.0,0.0003446
1334.0,0.0002869
1335.0,0.0004124
1336.0,0.0003128
1337.0,0.0002707
1338.0,0.000295
1339.0,0.0002936
1340.0,0.0002844
1341.0,0.0002736
1342.0,0.0002885
1343.0,0.0001824
1344.0,0.0001042
1345.0,0.0001548
1346.0,7.086e-05
1347.0,7.162e-05
1348.0,4.16e-06
1349.0,1.532e-05
1350.0,1.595e-05
1351.0,3.722e-06
1352.0,9.882e-07
1353.0,4.996e-08
1354.0,1.72e-07
1355.0,1.381e-09
1356.0,2.419e-08
1357.0,3.675e-08
1358.0,1.621e-09
1359.0,2.042e-10
1360.0,7.381e-10
1361.0,8.255e-13
1362.0,2.258e-15
