interpolation:linear
wavelength,value
280.0,2.9939999999999995e-22
280.5,9.837e-21
281.0,5.272e-20
281.5,4.09e-19
282.0,6.738e-19
282.5,1.672e-18
283.0,5.287e-18
283.5,8.607e-18
284.0,1.417e-16
284.5,4.131e-16
285.0,6.83e-16
285.5,3.409e-15
286.0,1.375e-14
286.5,6.191e-14
287.0,1.776e-13
287.5,6.848e-13
288.0,2.361e-12
288.5,7.12e-12
289.0,1.892e-11
289.5,5.706e-11
290.0,1.583e-10
290.5,3.225e-10
291.0,6.921e-10
291.5,1.987e-09
292.0,4.019e-09
292.5,5.652e-09
293.0,1.215e-08
293.5,2.968e-08
294.0,4.65e-08
294.5,6.371e-08
295.0,1.081e-07
295.5,1.828e-07
296.0,3.563e-07
296.5,5.04e-07
297.0,6.889e-07
297.5,1.881e-06
298.0,3.016e-06
298.5,3.079e-06
299.0,6.894e-06
299.5,1.181e-05
300.0,1.324e-05
300.5,1.957e-05
301.0,3.675e-05
301.5,6.074e-05
302.0,5.295e-05
302.5,0.0001059
303.0,0.0001967
303.5,0.0002547
304.0,0.0002472
304.5,0.0004032
305.0,0.0006963
305.5,0.0008679
306.0,0.0008677
306.5,0.001142
307.0,0.001927
307.5,0.002912
308.0,0.003137
308.5,0.00395
309.0,0.004046
309.5,0.005054
310.0,0.005282
310.5,0.008716
311.0,0.01129
311.5,0.01104
312.0,0.01186
312.5,0.01512
313.0,0.01679
313.5,0.01588
314.0,0.02102
314.5,0.02014
315.0,0.02678
315.5,0.0215
316.0,0.01999
316.5,0.03031
317.0,0.03751
317.5,0.03832
318.0,0.03101
318.5,0.04142
319.0,0.05096
319.5,0.03896
320.0,0.04653
320.5,0.0628
321.0,0.05992
321.5,0.05773
322.0,0.05685
322.5,0.04953
323.0,0.05173
323.5,0.06633
324.0,0.07783
324.5,0.07734
325.0,0.06504
325.5,0.08696
326.0,0.107
326.5,0.1096
327.0,0.108
327.5,0.1028
328.0,0.08837
328.5,0.09642
329.0,0.1191
329.5,0.1364
330.0,0.1361
330.5,0.1058
331.0,0.1066
331.5,0.1102
332.0,0.1223
332.5,0.1223
333.0,0.1207
333.5,0.1066
334.0,0.1086
334.5,0.1281
335.0,0.1219
335.5,0.1434
336.0,0.09898
336.5,0.1137
337.0,0.09204
337.5,0.1137
338.0,0.1132
338.5,0.1317
339.0,0.1299
339.5,0.1247
340.0,0.1449
340.5,0.1306
341.0,0.1279
341.5,0.117
342.0,0.1395
342.5,0.1302
343.0,0.1428
343.5,0.1342
344.0,0.09846
344.5,0.09988
345.0,0.1316
345.5,0.134
346.0,0.1136
346.5,0.1283
347.0,0.1374
347.5,0.1108
348.0,0.126
348.5,0.1256
349.0,0.1163
349.5,0.1148
350.0,0.1417
350.5,0.149
351.0,0.1328
351.5,0.1287
352.0,0.1379
352.5,0.1073
353.0,0.1348
353.5,0.1438
354.0,0.149
354.5,0.1507
355.0,0.1497
355.5,0.1349
356.0,0.1408
356.5,0.1199
357.0,0.09883
357.5,0.1207
358.0,0.09539
358.5,0.0813
359.0,0.1134
359.5,0.1441
360.0,0.1523
360.5,0.1214
361.0,0.1104
361.5,0.1268
362.0,0.1094
362.5,0.151
363.0,0.1353
363.5,0.1243
364.0,0.1516
364.5,0.1292
365.0,0.1312
365.5,0.1642
366.0,0.1736
366.5,0.1626
367.0,0.158
367.5,0.1635
368.0,0.1427
368.5,0.1436
369.0,0.1546
369.5,0.1643
370.0,0.1747
370.5,0.1352
371.0,0.1441
371.5,0.1798
372.0,0.119
372.5,0.1423
373.0,0.1443
373.5,0.09364
374.0,0.1357
374.5,0.1121
375.0,0.1086
375.5,0.1617
376.0,0.1337
376.5,0.1381
377.0,0.1458
377.5,0.1701
378.0,0.1839
378.5,0.1733
379.0,0.1426
379.5,0.1298
380.0,0.1346
380.5,0.1625
381.0,0.1624
381.5,0.1283
382.0,0.1136
382.5,0.09659
383.0,0.08915
383.5,0.08562
384.0,0.09417
384.5,0.1381
385.0,0.1366
385.5,0.1268
386.0,0.1083
386.5,0.1418
387.0,0.1175
387.5,0.1316
388.0,0.1211
388.5,0.1194
389.0,0.1284
389.5,0.1551
390.0,0.1552
390.5,0.1424
391.0,0.1671
391.5,0.1699
392.0,0.1427
392.5,0.1273
393.0,0.07064
393.5,0.0512
394.0,0.1039
394.5,0.1317
395.0,0.1602
395.5,0.1622
396.0,0.1402
396.5,0.08172
397.0,0.06114
397.5,0.124
398.0,0.1731
398.5,0.1783
399.0,0.1925
399.5,0.1913
400.0,0.1981
401.0,0.1947
402.0,0.2041
403.0,0.1927
404.0,0.1885
405.0,0.1873
406.0,0.1831
407.0,0.1789
408.0,0.1847
409.0,0.1964
410.0,0.1706
411.0,0.1836
412.0,0.196
413.0,0.19
414.0,0.1911
415.0,0.1903
416.0,0.1924
417.0,0.1864
418.0,0.1817
419.0,0.1829
420.0,0.1809
421.0,0.188
422.0,0.1774
423.0,0.1721
424.0,0.1807
425.0,0.1792
426.0,0.1734
427.0,0.1691
428.0,0.1637
429.0,0.1541
430.0,0.134
431.0,0.1319
432.0,0.169
433.0,0.1688
434.0,0.1557
435.0,0.1615
436.0,0.1809
437.0,0.1773
438.0,0.1603
439.0,0.1646
440.0,0.1686
441.0,0.1734
442.0,0.1846
443.0,0.1786
444.0,0.1813
445.0,0.1763
446.0,0.1673
447.0,0.1797
448.0,0.1811
449.0,0.1805
450.0,0.1841
451.0,0.1896
452.0,0.1815
453.0,0.1696
454.0,0.1759
455.0,0.1757
456.0,0.1785
457.0,0.18
458.0,0.1724
459.0,0.1701
460.0,0.1692
461.0,0.1718
462.0,0.1719
463.0,0.1698
464.0,0.1662
465.0,0.1632
466.0,0.1637
467.0,0.1595
468.0,0.1601
469.0,0.1596
470.0,0.1534
471.0,0.1522
472.0,0.1594
473.0,0.1562
474.0,0.1553
475.0,0.1554
476.0,0.1494
477.0,0.1485
478.0,0.1513
479.0,0.1489
480.0,0.1479
481.0,0.1493
482.0,0.1489
483.0,0.1462
484.0,0.1424
485.0,0.1349
486.0,0.1173
487.0,0.1222
488.0,0.1331
489.0,0.1325
490.0,0.1383
491.0,0.1349
492.0,0.1264
493.0,0.1296
494.0,0.13
495.0,0.1302
496.0,0.13
497.0,0.1308
498.0,0.1236
499.0,0.1239
500.0,0.1191
501.0,0.1158
502.0,0.1129
503.0,0.1163
504.0,0.1122
505.0,0.1154
506.0,0.1183
507.0,0.1118
508.0,0.1078
509.0,0.1102
510.0,0.109
511.0,0.1112
512.0,0.1116
513.0,0.1048
514.0,0.1033
515.0,0.1015
516.0,0.1005
517.0,0.0886
518.0,0.09247
519.0,0.09625
520.0,0.09895
521.0,0.09907
522.0,0.09832
523.0,0.0958
524.0,0.09834
525.0,0.09858
526.0,0.09332
527.0,0.08707
528.0,0.0912
529.0,0.0953
530.0,0.09315
531.0,0.09374
532.0,0.08981
533.0,0.08656
534.0,0.08852
535.0,0.0899
536.0,0.09016
537.0,0.08605
538.0,0.08697
539.0,0.08566
540.0,0.08154
541.0,0.08142
542.0,0.08326
543.0,0.08175
544.0,0.08256
545.0,0.08176
546.0,0.08149
547.0,0.08087
548.0,0.07935
549.0,0.07905
550.0,0.07944
551.0,0.07791
552.0,0.07789
553.0,0.07594
554.0,0.07719
555.0,0.07676
556.0,0.07517
557.0,0.07223
558.0,0.07105
559.0,0.0691
560.0,0.06935
561.0,0.06963
562.0,0.0685
563.0,0.06976
564.0,0.06732
565.0,0.06622
566.0,0.06473
567.0,0.06542
568.0,0.0643
569.0,0.0622
570.0,0.06175
571.0,0.06094
572.0,0.06187
573.0,0.06211
574.0,0.06152
575.0,0.06
576.0,0.05912
577.0,0.05945
578.0,0.05829
579.0,0.05828
580.0,0.05917
581.0,0.05923
582.0,0.06008
583.0,0.05998
584.0,0.06023
585.0,0.05846
586.0,0.05691
587.0,0.05775
588.0,0.05589
589.0,0.04896
590.0,0.05091
591.0,0.05368
592.0,0.05254
593.0,0.05301
594.0,0.05218
595.0,0.05041
596.0,0.05221
597.0,0.05121
598.0,0.05072
599.0,0.0504
600.0,0.05017
601.0,0.04948
602.0,0.04885
603.0,0.04939
604.0,0.04994
605.0,0.04946
606.0,0.04906
607.0,0.04937
608.0,0.04864
609.0,0.04855
610.0,0.04804
611.0,0.04813
612.0,0.04782
613.0,0.04704
614.0,0.04623
615.0,0.04707
616.0,0.04536
617.0,0.04509
618.0,0.04664
619.0,0.04598
620.0,0.04607
621.0,0.04589
622.0,0.04513
623.0,0.04421
624.0,0.04325
625.0,0.04298
626.0,0.04343
627.0,0.04368
628.0,0.04008
629.0,0.04207
630.0,0.04089
631.0,0.0418
632.0,0.04116
633.0,0.04232
634.0,0.04181
635.0,0.0423
636.0,0.0416
637.0,0.04213
638.0,0.04241
639.0,0.04178
640.0,0.04123
641.0,0.04104
642.0,0.04072
643.0,0.04113
644.0,0.04085
645.0,0.04072
646.0,0.03952
647.0,0.03875
648.0,0.0386
649.0,0.03767
650.0,0.03786
651.0,0.03936
652.0,0.03735
653.0,0.0385
654.0,0.03793
655.0,0.03624
656.0,0.03205
657.0,0.03279
658.0,0.03666
659.0,0.03679
660.0,0.03678
661.0,0.03688
662.0,0.03677
663.0,0.03591
664.0,0.03623
665.0,0.03614
666.0,0.03603
667.0,0.03587
668.0,0.03576
669.0,0.03617
670.0,0.03586
671.0,0.03571
672.0,0.03529
673.0,0.03571
674.0,0.03542
675.0,0.03495
676.0,0.03504
677.0,0.03457
678.0,0.03454
679.0,0.03384
680.0,0.03396
681.0,0.03359
682.0,0.0334
683.0,0.03318
684.0,0.03285
685.0,0.03298
686.0,0.03263
687.0,0.01993
688.0,0.02391
689.0,0.02391
690.0,0.02522
691.0,0.02675
692.0,0.02788
693.0,0.0275
694.0,0.02714
695.0,0.02837
696.0,0.02828
697.0,0.03023
698.0,0.02963
699.0,0.02858
700.0,0.0281
701.0,0.02764
702.0,0.02779
703.0,0.02772
704.0,0.02859
705.0,0.02849
706.0,0.02839
707.0,0.0283
708.0,0.02822
709.0,0.0282
710.0,0.02802
711.0,0.02791
712.0,0.02776
713.0,0.02732
714.0,0.02728
715.0,0.02621
716.0,0.02609
717.0,0.02185
718.0,0.01983
719.0,0.01794
720.0,0.01873
721.0,0.02097
722.0,0.02443
723.0,0.02235
724.0,0.01973
725.0,0.01928
726.0,0.02018
727.0,0.02046
728.0,0.01896
729.0,0.01979
730.0,0.02089
731.0,0.01981
732.0,0.02134
733.0,0.02274
734.0,0.02323
735.0,0.02261
736.0,0.02248
737.0,0.02245
738.0,0.02285
739.0,0.02229
740.0,0.02281
741.0,0.0225
742.0,0.02244
743.0,0.0229
744.0,0.02273
745.0,0.02264
746.0,0.02263
747.0,0.02258
748.0,0.02242
749.0,0.02205
750.0,0.02195
751.0,0.02164
752.0,0.02164
753.0,0.02165
754.0,0.0216
755.0,0.02139
756.0,0.02129
757.0,0.02123
758.0,0.02086
759.0,0.02025
760.0,0.002772
761.0,0.001448
762.0,0.009003
763.0,0.004222
764.0,0.006483
765.0,0.008867
766.0,0.01125
767.0,0.0147
768.0,0.01745
769.0,0.01788
770.0,0.01857
771.0,0.0187
772.0,0.01867
773.0,0.01871
774.0,0.01852
775.0,0.01829
776.0,0.01843
777.0,0.01809
778.0,0.01788
779.0,0.01781
780.0,0.01763
781.0,0.01757
782.0,0.0176
783.0,0.01723
784.0,0.01724
785.0,0.01704
786.0,0.01715
787.0,0.01671
788.0,0.0164
789.0,0.01631
790.0,0.01571
791.0,0.01587
792.0,0.01569
793.0,0.01536
794.0,0.01565
795.0,0.01582
796.0,0.01513
797.0,0.01509
798.0,0.01558
799.0,0.01539
800.0,0.01502
801.0,0.01487
802.0,0.01476
803.0,0.01457
804.0,0.01453
805.0,0.01445
806.0,0.01485
807.0,0.01458
808.0,0.01453
809.0,0.01415
810.0,0.01393
811.0,0.01383
812.0,0.01328
813.0,0.01289
814.0,0.01103
815.0,0.01091
816.0,0.01001
817.0,0.01018
818.0,0.009712
819.0,0.01104
820.0,0.01026
821.0,0.0123
822.0,0.01184
823.0,0.007508
824.0,0.0113
825.0,0.01186
826.0,0.01126
827.0,0.01196
828.0,0.009791
829.0,0.01107
830.0,0.01086
831.0,0.01086
832.0,0.01042
833.0,0.01122
834.0,0.01069
835.0,0.0119
836.0,0.01121
837.0,0.01183
838.0,0.01136
839.0,0.01156
840.0,0.01178
841.0,0.01153
842.0,0.01154
843.0,0.01153
844.0,0.01129
845.0,0.01165
846.0,0.01155
847.0,0.0113
848.0,0.01116
849.0,0.01079
850.0,0.01029
851.0,0.01082
852.0,0.0107
853.0,0.01026
854.0,0.008807
855.0,0.009654
856.0,0.0105
857.0,0.01071
858.0,0.01058
859.0,0.01056
860.0,0.01053
861.0,0.01043
862.0,0.01056
863.0,0.01077
864.0,0.0102
865.0,0.01007
866.0,0.009017
867.0,0.009372
868.0,0.01016
869.0,0.009907
870.0,0.01015
871.0,0.009969
872.0,0.009894
873.0,0.009833
874.0,0.009673
875.0,0.009434
876.0,0.009489
877.0,0.009546
878.0,0.009605
879.0,0.009418
880.0,0.009177
881.0,0.008994
882.0,0.009149
883.0,0.009148
884.0,0.009062
885.0,0.009088
886.0,0.008595
887.0,0.008675
888.0,0.008751
889.0,0.008838
890.0,0.008694
891.0,0.00866
892.0,0.00834
893.0,0.007996
894.0,0.007593
895.0,0.007035
896.0,0.006522
897.0,0.005431
898.0,0.005987
899.0,0.004341
900.0,0.006156
901.0,0.004564
902.0,0.00551
903.0,0.005495
904.0,0.007227
905.0,0.006901
906.0,0.006381
907.0,0.004941
908.0,0.005058
909.0,0.005558
910.0,0.004747
911.0,0.00513
912.0,0.005375
913.0,0.004756
914.0,0.004711
915.0,0.005131
916.0,0.004236
917.0,0.005579
918.0,0.004319
919.0,0.005664
920.0,0.005766
921.0,0.006023
922.0,0.005238
923.0,0.005776
924.0,0.005324
925.0,0.005175
926.0,0.005218
927.0,0.005932
928.0,0.00404
929.0,0.00361
930.0,0.002714
931.0,0.002551
932.0,0.001747
933.0,0.001381
934.0,0.0007102
935.0,0.001416
936.0,0.0008426
937.0,0.0008496
938.0,0.001056
939.0,0.002386
940.0,0.002942
941.0,0.002123
942.0,0.002494
943.0,0.001552
944.0,0.001662
945.0,0.00216
946.0,0.001015
947.0,0.002142
948.0,0.001529
949.0,0.002961
950.0,0.0007118
951.0,0.002899
952.0,0.00143
953.0,0.001904
954.0,0.00241
955.0,0.001923
956.0,0.001883
957.0,0.001403
958.0,0.002778
959.0,0.002102
960.0,0.002373
961.0,0.002721
962.0,0.002549
963.0,0.003009
964.0,0.00271
965.0,0.002974
966.0,0.002959
967.0,0.002925
968.0,0.004206
969.0,0.004378
970.0,0.003946
971.0,0.004658
972.0,0.004392
973.0,0.003673
974.0,0.003449
975.0,0.003601
976.0,0.003348
977.0,0.003941
978.0,0.00367
979.0,0.003875
980.0,0.003587
981.0,0.004457
982.0,0.004192
983.0,0.003977
984.0,0.004601
985.0,0.004129
986.0,0.004682
987.0,0.004535
988.0,0.004508
989.0,0.004636
990.0,0.004447
991.0,0.004602
992.0,0.004616
993.0,0.00446
994.0,0.004586
995.0,0.00457
996.0,0.004526
997.0,0.00452
998.0,0.00448
999.0,0.004449
1000.0,0.004392
1001.0,0.004441
1002.0,0.004264
1003.0,0.004327
1004.0,0.004194
1005.0,0.004039
1006.0,0.004173
1007.0,0.004248
1008.0,0.004203
1009.0,0.004157
1010.0,0.00412
1011.0,0.004165
1012.0,0.004105
1013.0,0.004126
1014.0,0.004082
1015.0,0.004038
1016.0,0.004004
1017.0,0.003997
1018.0,0.003971
1019.0,0.003857
1020.0,0.003917
1021.0,0.003899
1022.0,0.003848
1023.0,0.003874
1024.0,0.003796
1025.0,0.003848
1026.0,0.003813
1027.0,0.00379
1028.0,0.003768
1029.0,0.003708
1030.0,0.003725
1031.0,0.003693
1032.0,0.00367
1033.0,0.003601
1034.0,0.003587
1035.0,0.003585
1036.0,0.003588
1037.0,0.003517
1038.0,0.003519
1039.0,0.003504
1040.0,0.003476
1041.0,0.003476
1042.0,0.003438
1043.0,0.003414
1044.0,0.003413
1045.0,0.003353
1046.0,0.003302
1047.0,0.003319
1048.0,0.003324
1049.0,0.0033
1050.0,0.003271
1051.0,0.003253
1052.0,0.003227
1053.0,0.003189
1054.0,0.003183
1055.0,0.003171
1056.0,0.003146
1057.0,0.003123
1058.0,0.003034
1059.0,0.003025
1060.0,0.003008
1061.0,0.002992
1062.0,0.002995
1063.0,0.002953
1064.0,0.002978
1065.0,0.002942
1066.0,0.002876
1067.0,0.002901
1068.0,0.002824
1069.0,0.002729
1070.0,0.002808
1071.0,0.002852
1072.0,0.002801
1073.0,0.002753
1074.0,0.002826
1075.0,0.002644
1076.0,0.002801
1077.0,0.002723
1078.0,0.002655
1079.0,0.002731
1080.0,0.002649
1081.0,0.002544
1082.0,0.002601
1083.0,0.002606
1084.0,0.002501
1085.0,0.002613
1086.0,0.002325
1087.0,0.00243
1088.0,0.00255
1089.0,0.002435
1090.0,0.002352
1091.0,0.002506
1092.0,0.002497
1093.0,0.002028
1094.0,0.002259
1095.0,0.002111
1096.0,0.001991
1097.0,0.002398
1098.0,0.001939
1099.0,0.002026
1100.0,0.001842
1101.0,0.00187
1102.0,0.001761
1103.0,0.001725
1104.0,0.001723
1105.0,0.00193
1106.0,0.001368
1107.0,0.001798
1108.0,0.001454
1109.0,0.001458
1110.0,0.001754
1111.0,0.001093
1112.0,0.001434
1113.0,0.0008326
1114.0,0.0009375
1115.0,0.00076
1116.0,0.0005785
1117.0,0.0001911
1118.0,0.0006329
1119.0,0.0002901
1120.0,0.0003663
1121.0,0.0004973
1122.0,0.0001936
1123.0,0.0003263
1124.0,0.0002724
1125.0,0.0003613
1126.0,0.0001149
1127.0,0.0004076
1128.0,0.0002297
1129.0,0.0002443
1130.0,0.0001564
1131.0,0.0008248
1132.0,0.0006267
1133.0,0.0003715
1134.0,8.641e-05
1135.0,3.207e-05
1136.0,0.0003
1137.0,0.0007865
1138.0,0.0005357
1139.0,0.0008581
1140.0,0.0006894
1141.0,0.0005025
1142.0,0.0005875
1143.0,0.0008716
1144.0,0.0002697
1145.0,0.0003432
1146.0,0.0003699
1147.0,0.0001194
1148.0,0.00073
1149.0,0.0005613
1150.0,0.000287
1151.0,0.0005078
1152.0,0.0006438
1153.0,0.0006327
1154.0,0.0003221
1155.0,0.0008507
1156.0,0.0007488
1157.0,0.0008614
1158.0,0.0008479
1159.0,0.0009292
1160.0,0.0007716
1161.0,0.0009917
1162.0,0.0009885
1163.0,0.001424
1164.0,0.001179
1165.0,0.001086
1166.0,0.001086
1167.0,0.001198
1168.0,0.001205
1169.0,0.001241
1170.0,0.001368
1171.0,0.001323
1172.0,0.001355
1173.0,0.001351
1174.0,0.0008971
1175.0,0.00132
1176.0,0.001479
1177.0,0.001395
1178.0,0.0009871
1179.0,0.001477
1180.0,0.001274
1181.0,0.001318
1182.0,0.0008453
1183.0,0.001297
1184.0,0.001188
1185.0,0.001129
1186.0,0.00139
1187.0,0.001302
1188.0,0.0008435
1189.0,0.001199
1190.0,0.001339
1191.0,0.001242
1192.0,0.001353
1193.0,0.00128
1194.0,0.001324
1195.0,0.001231
1196.0,0.00117
1197.0,0.001324
1198.0,0.00119
1199.0,0.00097
1200.0,0.001238
1201.0,0.001177
1202.0,0.001173
1203.0,0.001161
1204.0,0.0009833
1205.0,0.0012
1206.0,0.001352
1207.0,0.001151
1208.0,0.001141
1209.0,0.001162
1210.0,0.001218
1211.0,0.001141
1212.0,0.001109
1213.0,0.001271
1214.0,0.001137
1215.0,0.001107
1216.0,0.001255
1217.0,0.00121
1218.0,0.001236
1219.0,0.001213
1220.0,0.00123
1221.0,0.001243
1222.0,0.001202
1223.0,0.001184
1224.0,0.001167
1225.0,0.001219
1226.0,0.001228
1227.0,0.001109
1228.0,0.00123
1229.0,0.001217
1230.0,0.001188
1231.0,0.00123
1232.0,0.001219
1233.0,0.001158
1234.0,0.001221
1235.0,0.001207
1236.0,0.001213
1237.0,0.001187
1238.0,0.001202
1239.0,0.001182
1240.0,0.001184
1241.0,0.00117
1242.0,0.001167
1243.0,0.001154
1244.0,0.001157
1245.0,0.001159
1246.0,0.001149
1247.0,0.00114
1248.0,0.001133
1249.0,0.001135
1250.0,0.001123
1251.0,0.001103
1252.0,0.001103
1253.0,0.001085
1254.0,0.001067
1255.0,0.00109
1256.0,0.001046
1257.0,0.001035
1258.0,0.001059
1259.0,0.001003
1260.0,0.001007
1261.0,0.0009306
1262.0,0.0008916
1263.0,0.0008902
1264.0,0.000801
1265.0,0.0008797
1266.0,0.000833
1267.0,0.0008526
1268.0,0.0007941
1269.0,0.0004348
1270.0,0.0008394
1271.0,0.0009037
1272.0,0.0009056
1273.0,0.0008913
1274.0,0.0008938
1275.0,0.000907
1276.0,0.0009161
1277.0,0.0009229
1278.0,0.0009446
1279.0,0.0009326
1280.0,0.0009182
1281.0,0.0008766
1282.0,0.0008472
1283.0,0.0009086
1284.0,0.0009263
1285.0,0.0009303
1286.0,0.0009429
1287.0,0.00092
1288.0,0.0009183
1289.0,0.0008763
1290.0,0.0009051
1291.0,0.0009166
1292.0,0.0008395
1293.0,0.0008883
1294.0,0.0008782
1295.0,0.0008665
1296.0,0.0008131
1297.0,0.0007574
1298.0,0.000831
1299.0,0.0008745
1300.0,0.0007058
1301.0,0.0007314
1302.0,0.0008192
1303.0,0.000692
1304.0,0.000564
1305.0,0.0007918
1306.0,0.000788
1307.0,0.0005767
1308.0,0.0006845
1309.0,0.0007719
1310.0,0.0005585
1311.0,0.0006442
1312.0,0.000623
1313.0,0.0006036
1314.0,0.0005262
1315.0,0.0005164
1316.0,0.0006217
1317.0,0.0005808
1318.0,0.0006421
1319.0,0.0004709
1320.0,0.0004559
1321.0,0.0005443
1322.0,0.0005459
1323.0,0.0003864
1324.0,0.0004546
1325.0,0.0005934
1326.0,0.0004916
1327.0,0.0004629
1328.0,0.0003882
1329.0,0.0002755
1330.0,0.00037
1331.0,0.0002061
1332.0,0.0002147
1333.0,0.000307
1334.0,0.0002604
1335.0,0.0003706
1336.0,0.0002811
1337.0,0.0002441
1338.0,0.0002647
1339.0,0.0002639
1340.0,0.0002572
1341.0,0.0002448
1342.0,0.000258
1343.0,0.0001627
1344.0,9.531e-05
1345.0,0.0001391
1346.0,6.477e-05
1347.0,6.535e-05
1348.0,4.049e-06
1349.0,1.461e-05
1350.0,1.518e-05
1351.0,3.633e-06
1352.0,9.752e-07
1353.0,4.961e-08
1354.0,1.705e-07
1355.0,1.373e-09
1356.0,2.403e-08
1357.0,3.651e-08
1358.0,1.612e-09
