interpolation:linear
wavelength,value
280.0,6.268999999999999e-22
280.5,2.036e-20
281.0,1.087e-19
281.5,5.015e-19
282.0,8.33e-19
282.5,2.06e-18
283.0,6.49e-18
283.5,1.054e-17
284.0,1.717e-16
284.5,4.982e-16
285.0,8.976e-16
285.5,4.399e-15
286.0,1.765e-14
286.5,7.874e-14
287.0,2.246e-13
287.5,8.598e-13
288.0,2.8e-12
288.5,8.595e-12
289.0,2.308e-11
289.5,7.007e-11
290.0,1.95e-10
290.5,3.982e-10
291.0,8.556e-10
291.5,2.457e-09
292.0,5.905e-09
292.5,8.182e-09
293.0,1.729e-08
293.5,4.132e-08
294.0,6.393e-08
294.5,8.471e-08
295.0,1.421e-07
295.5,2.705e-07
296.0,5.168e-07
296.5,7.38e-07
297.0,1.018e-06
297.5,2.825e-06
298.0,4.607e-06
298.5,4.774e-06
299.0,1.088e-05
299.5,1.934e-05
300.0,2.224e-05
300.5,3.39e-05
301.0,6.762e-05
301.5,0.0001199
302.0,0.0001092
302.5,0.0002168
303.0,0.0003985
303.5,0.0005119
304.0,0.0004926
304.5,0.0007865
305.0,0.001316
305.5,0.001606
306.0,0.001592
306.5,0.002066
307.0,0.003373
307.5,0.00493
308.0,0.005278
308.5,0.006531
309.0,0.006733
309.5,0.008081
310.0,0.008292
310.5,0.01356
311.0,0.01731
311.5,0.01681
312.0,0.01751
312.5,0.02189
313.0,0.02406
313.5,0.02296
314.0,0.02969
314.5,0.02759
315.0,0.03648
315.5,0.02969
316.0,0.02694
316.5,0.04001
317.0,0.0495
317.5,0.05084
318.0,0.04055
318.5,0.05275
319.0,0.06403
319.5,0.04996
320.0,0.05984
320.5,0.07861
321.0,0.07322
321.5,0.07034
322.0,0.07101
322.5,0.06176
323.0,0.06342
323.5,0.08005
324.0,0.09363
324.5,0.09366
325.0,0.07936
325.5,0.1046
326.0,0.1282
326.5,0.1302
327.0,0.1285
327.5,0.1228
328.0,0.1068
328.5,0.1148
329.0,0.1402
329.5,0.1599
330.0,0.1599
330.5,0.1254
331.0,0.1266
331.5,0.13
332.0,0.1428
332.5,0.1422
333.0,0.1406
333.5,0.125
334.0,0.1274
334.5,0.1491
335.0,0.1411
335.5,0.166
336.0,0.1146
336.5,0.1317
337.0,0.107
337.5,0.1323
338.0,0.1307
338.5,0.1519
339.0,0.1496
339.5,0.1437
340.0,0.167
340.5,0.1503
341.0,0.1471
341.5,0.1343
342.0,0.1599
342.5,0.1491
343.0,0.1637
343.5,0.1539
344.0,0.1129
344.5,0.1146
345.0,0.1505
345.5,0.1531
346.0,0.1296
346.5,0.1463
347.0,0.1568
347.5,0.1264
348.0,0.1435
348.5,0.1429
349.0,0.1322
349.5,0.1305
350.0,0.1609
350.5,0.1692
351.0,0.1508
351.5,0.1464
352.0,0.1565
352.5,0.1217
353.0,0.1528
353.5,0.1629
354.0,0.1686
354.5,0.1704
355.0,0.1693
355.5,0.1525
356.0,0.1591
356.5,0.1354
357.0,0.1115
357.5,0.1361
358.0,0.1075
358.5,0.09162
359.0,0.1277
359.5,0.1623
360.0,0.1715
360.5,0.1367
361.0,0.1242
361.5,0.1426
362.0,0.1229
362.5,0.1696
363.0,0.1519
363.5,0.1394
364.0,0.17
364.5,0.1449
365.0,0.1471
365.5,0.184
366.0,0.1944
366.5,0.182
367.0,0.1767
367.5,0.1828
368.0,0.1595
368.5,0.1604
369.0,0.1727
369.5,0.1835
370.0,0.195
370.5,0.1509
371.0,0.1607
371.5,0.2004
372.0,0.1326
372.5,0.1585
373.0,0.1607
373.5,0.1042
374.0,0.151
374.5,0.1246
375.0,0.1208
375.5,0.1797
376.0,0.1485
376.5,0.1534
377.0,0.1619
377.5,0.1888
378.0,0.204
378.5,0.1922
379.0,0.1581
379.5,0.1439
380.0,0.1491
380.5,0.18
381.0,0.1797
381.5,0.142
382.0,0.1257
382.5,0.1068
383.0,0.09851
383.5,0.09458
384.0,0.104
384.5,0.1525
385.0,0.1507
385.5,0.1399
386.0,0.1194
386.5,0.1563
387.0,0.1295
387.5,0.1449
388.0,0.1333
388.5,0.1314
389.0,0.1413
389.5,0.1706
390.0,0.1706
390.5,0.1565
391.0,0.1836
391.5,0.1866
392.0,0.1566
392.5,0.1398
393.0,0.0775
393.5,0.05615
394.0,0.1139
394.5,0.1443
395.0,0.1755
395.5,0.1777
396.0,0.1535
396.5,0.08945
397.0,0.0669
397.5,0.1356
398.0,0.1892
398.5,0.1949
399.0,0.2104
399.5,0.209
400.0,0.2163
401.0,0.2125
402.0,0.2227
403.0,0.2101
404.0,0.2054
405.0,0.204
406.0,0.1993
407.0,0.1946
408.0,0.2008
409.0,0.2135
410.0,0.1853
411.0,0.1993
412.0,0.2126
413.0,0.206
414.0,0.207
415.0,0.2061
416.0,0.2082
417.0,0.2016
418.0,0.1965
419.0,0.1977
420.0,0.1954
421.0,0.2029
422.0,0.1915
423.0,0.1856
424.0,0.1948
425.0,0.193
426.0,0.1867
427.0,0.182
428.0,0.1761
429.0,0.1657
430.0,0.144
431.0,0.1417
432.0,0.1815
433.0,0.1812
434.0,0.167
435.0,0.1732
436.0,0.1939
437.0,0.19
438.0,0.1717
439.0,0.1763
440.0,0.1805
441.0,0.1856
442.0,0.1975
443.0,0.191
444.0,0.1939
445.0,0.1884
446.0,0.1786
447.0,0.1918
448.0,0.1933
449.0,0.1925
450.0,0.1964
451.0,0.2022
452.0,0.1934
453.0,0.1807
454.0,0.1873
455.0,0.187
456.0,0.19
457.0,0.1916
458.0,0.1835
459.0,0.181
460.0,0.18
461.0,0.1827
462.0,0.1829
463.0,0.1805
464.0,0.1766
465.0,0.1733
466.0,0.1738
467.0,0.1693
468.0,0.1699
469.0,0.1693
470.0,0.1627
471.0,0.1614
472.0,0.169
473.0,0.1656
474.0,0.1646
475.0,0.1646
476.0,0.1583
477.0,0.1574
478.0,0.1603
479.0,0.1578
480.0,0.1568
481.0,0.1582
482.0,0.1578
483.0,0.1549
484.0,0.1507
485.0,0.1428
486.0,0.1241
487.0,0.1292
488.0,0.1406
489.0,0.1399
490.0,0.1461
491.0,0.1425
492.0,0.1335
493.0,0.1369
494.0,0.1372
495.0,0.1374
496.0,0.1372
497.0,0.1382
498.0,0.1305
499.0,0.131
500.0,0.1259
501.0,0.1224
502.0,0.1195
503.0,0.1231
504.0,0.1188
505.0,0.1222
506.0,0.1253
507.0,0.1184
508.0,0.114
509.0,0.1166
510.0,0.1153
511.0,0.1176
512.0,0.118
513.0,0.1108
514.0,0.1092
515.0,0.1073
516.0,0.1062
517.0,0.09371
518.0,0.0978
519.0,0.1018
520.0,0.1047
521.0,0.1048
522.0,0.104
523.0,0.1014
524.0,0.1041
525.0,0.1044
526.0,0.09891
527.0,0.09233
528.0,0.09675
529.0,0.1011
530.0,0.09889
531.0,0.09955
532.0,0.0954
533.0,0.09195
534.0,0.09403
535.0,0.09548
536.0,0.09574
537.0,0.09136
538.0,0.09233
539.0,0.09095
540.0,0.08659
541.0,0.08648
542.0,0.08846
543.0,0.08686
544.0,0.08776
545.0,0.08692
546.0,0.08665
547.0,0.086
548.0,0.08437
549.0,0.08406
550.0,0.08447
551.0,0.08286
552.0,0.08284
553.0,0.08077
554.0,0.08211
555.0,0.08167
556.0,0.07999
557.0,0.07689
558.0,0.07566
559.0,0.07361
560.0,0.0739
561.0,0.07423
562.0,0.07306
563.0,0.07443
564.0,0.07185
565.0,0.07069
566.0,0.06912
567.0,0.06988
568.0,0.0687
569.0,0.06649
570.0,0.06601
571.0,0.06516
572.0,0.06618
573.0,0.06644
574.0,0.06582
575.0,0.0642
576.0,0.06324
577.0,0.06358
578.0,0.06231
579.0,0.06228
580.0,0.0632
581.0,0.06323
582.0,0.06412
583.0,0.06399
584.0,0.06424
585.0,0.06234
586.0,0.06068
587.0,0.06158
588.0,0.05961
589.0,0.05226
590.0,0.05435
591.0,0.05728
592.0,0.05608
593.0,0.05659
594.0,0.05572
595.0,0.05387
596.0,0.05578
597.0,0.05474
598.0,0.05423
599.0,0.0539
600.0,0.05365
601.0,0.05291
602.0,0.05224
603.0,0.0528
604.0,0.05339
605.0,0.05285
606.0,0.05241
607.0,0.05272
608.0,0.05191
609.0,0.05179
610.0,0.05122
611.0,0.05129
612.0,0.05094
613.0,0.05008
614.0,0.0492
615.0,0.05007
616.0,0.04822
617.0,0.04792
618.0,0.04955
619.0,0.04884
620.0,0.04892
621.0,0.04872
622.0,0.0479
623.0,0.04691
624.0,0.04589
625.0,0.04558
626.0,0.04605
627.0,0.04631
628.0,0.04257
629.0,0.04461
630.0,0.04336
631.0,0.04428
632.0,0.04358
633.0,0.04479
634.0,0.04422
635.0,0.04473
636.0,0.04396
637.0,0.04451
638.0,0.04478
639.0,0.0441
640.0,0.0435
641.0,0.04329
642.0,0.04293
643.0,0.04334
644.0,0.04304
645.0,0.04289
646.0,0.04163
647.0,0.04083
648.0,0.04065
649.0,0.03968
650.0,0.03984
651.0,0.0414
652.0,0.0393
653.0,0.04048
654.0,0.03987
655.0,0.0381
656.0,0.03367
657.0,0.03444
658.0,0.03849
659.0,0.03862
660.0,0.0386
661.0,0.03869
662.0,0.03858
663.0,0.03767
664.0,0.03799
665.0,0.03788
666.0,0.03775
667.0,0.03757
668.0,0.03744
669.0,0.03786
670.0,0.03752
671.0,0.03736
672.0,0.03691
673.0,0.03734
674.0,0.03703
675.0,0.03653
676.0,0.03662
677.0,0.03612
678.0,0.03608
679.0,0.03535
680.0,0.03547
681.0,0.03508
682.0,0.03487
683.0,0.03464
684.0,0.03429
685.0,0.03442
686.0,0.03406
687.0,0.02101
688.0,0.02513
689.0,0.02513
690.0,0.02646
691.0,0.02802
692.0,0.02916
693.0,0.02876
694.0,0.02836
695.0,0.02961
696.0,0.0295
697.0,0.03151
698.0,0.03088
699.0,0.0298
700.0,0.0293
701.0,0.02883
702.0,0.02897
703.0,0.02889
704.0,0.02978
705.0,0.02968
706.0,0.02956
707.0,0.02947
708.0,0.02939
709.0,0.02935
710.0,0.02917
711.0,0.02905
712.0,0.02889
713.0,0.02843
714.0,0.02839
715.0,0.02728
716.0,0.02716
717.0,0.02282
718.0,0.02069
719.0,0.01872
720.0,0.01956
721.0,0.02186
722.0,0.02544
723.0,0.02328
724.0,0.02057
725.0,0.0201
726.0,0.02105
727.0,0.02131
728.0,0.01977
729.0,0.02061
730.0,0.02178
731.0,0.02064
732.0,0.02222
733.0,0.02365
734.0,0.02415
735.0,0.02351
736.0,0.02337
737.0,0.02335
738.0,0.02374
739.0,0.02315
740.0,0.02369
741.0,0.02336
742.0,0.0233
743.0,0.02377
744.0,0.02359
745.0,0.02349
746.0,0.02348
747.0,0.02343
748.0,0.02326
749.0,0.02288
750.0,0.02277
751.0,0.02245
752.0,0.02245
753.0,0.02246
754.0,0.0224
755.0,0.02218
756.0,0.02207
757.0,0.02201
758.0,0.02163
759.0,0.02101
760.0,0.002875
761.0,0.001488
762.0,0.009453
763.0,0.004405
764.0,0.006798
765.0,0.009309
766.0,0.01179
767.0,0.01535
768.0,0.01815
769.0,0.01857
770.0,0.01926
771.0,0.01939
772.0,0.01935
773.0,0.01939
774.0,0.01919
775.0,0.01896
776.0,0.0191
777.0,0.01875
778.0,0.01854
779.0,0.01846
780.0,0.01827
781.0,0.01821
782.0,0.01825
783.0,0.01785
784.0,0.01786
785.0,0.01765
786.0,0.01777
787.0,0.01733
788.0,0.01701
789.0,0.01691
790.0,0.0163
791.0,0.01645
792.0,0.01626
793.0,0.01591
794.0,0.0162
795.0,0.01638
796.0,0.01569
797.0,0.01564
798.0,0.01614
799.0,0.01594
800.0,0.01556
801.0,0.01541
802.0,0.0153
803.0,0.0151
804.0,0.01506
805.0,0.01498
806.0,0.01537
807.0,0.0151
808.0,0.01505
809.0,0.01466
810.0,0.01444
811.0,0.01434
812.0,0.01379
813.0,0.01338
814.0,0.01146
815.0,0.01134
816.0,0.0104
817.0,0.01058
818.0,0.0101
819.0,0.01147
820.0,0.01066
821.0,0.01276
822.0,0.01228
823.0,0.007805
824.0,0.01173
825.0,0.0123
826.0,0.01168
827.0,0.0124
828.0,0.01017
829.0,0.01148
830.0,0.01126
831.0,0.01126
832.0,0.01081
833.0,0.01164
834.0,0.01109
835.0,0.01232
836.0,0.01162
837.0,0.01225
838.0,0.01177
839.0,0.01197
840.0,0.0122
841.0,0.01194
842.0,0.01195
843.0,0.01193
844.0,0.01169
845.0,0.01205
846.0,0.01195
847.0,0.01169
848.0,0.01155
849.0,0.01116
850.0,0.01065
851.0,0.0112
852.0,0.01107
853.0,0.01062
854.0,0.009118
855.0,0.009993
856.0,0.01087
857.0,0.01108
858.0,0.01095
859.0,0.01092
860.0,0.0109
861.0,0.01079
862.0,0.01093
863.0,0.01114
864.0,0.01055
865.0,0.01041
866.0,0.009325
867.0,0.009692
868.0,0.0105
869.0,0.01024
870.0,0.01049
871.0,0.01031
872.0,0.01023
873.0,0.01017
874.0,0.01
875.0,0.009754
876.0,0.009811
877.0,0.00987
878.0,0.009932
879.0,0.009738
880.0,0.009489
881.0,0.009301
882.0,0.009462
883.0,0.00946
884.0,0.009372
885.0,0.009399
886.0,0.008894
887.0,0.008973
888.0,0.009053
889.0,0.009141
890.0,0.008995
891.0,0.008959
892.0,0.008633
893.0,0.00828
894.0,0.007873
895.0,0.007306
896.0,0.006771
897.0,0.005643
898.0,0.006221
899.0,0.00451
900.0,0.006391
901.0,0.004748
902.0,0.005724
903.0,0.005714
904.0,0.007495
905.0,0.007158
906.0,0.00662
907.0,0.005136
908.0,0.005255
909.0,0.005773
910.0,0.004937
911.0,0.005326
912.0,0.005585
913.0,0.004947
914.0,0.004897
915.0,0.005343
916.0,0.004401
917.0,0.005802
918.0,0.004492
919.0,0.005885
920.0,0.005977
921.0,0.006251
922.0,0.005441
923.0,0.005993
924.0,0.005537
925.0,0.005379
926.0,0.005429
927.0,0.006167
928.0,0.004213
929.0,0.003768
930.0,0.002832
931.0,0.002661
932.0,0.001819
933.0,0.001435
934.0,0.000734
935.0,0.001472
936.0,0.0008719
937.0,0.0008791
938.0,0.001095
939.0,0.002489
940.0,0.003072
941.0,0.002215
942.0,0.002605
943.0,0.001615
944.0,0.001727
945.0,0.002253
946.0,0.001053
947.0,0.002235
948.0,0.001589
949.0,0.003097
950.0,0.0007356
951.0,0.003031
952.0,0.001487
953.0,0.001984
954.0,0.002514
955.0,0.002005
956.0,0.001953
957.0,0.00146
958.0,0.00289
959.0,0.002188
960.0,0.002475
961.0,0.002835
962.0,0.002654
963.0,0.003132
964.0,0.002819
965.0,0.003097
966.0,0.003082
967.0,0.003047
968.0,0.004364
969.0,0.004552
970.0,0.0041
971.0,0.004831
972.0,0.004557
973.0,0.003821
974.0,0.003586
975.0,0.003741
976.0,0.003485
977.0,0.004089
978.0,0.003814
979.0,0.004026
980.0,0.003725
981.0,0.004622
982.0,0.004352
983.0,0.004129
984.0,0.004766
985.0,0.004287
986.0,0.004846
987.0,0.004698
988.0,0.00467
989.0,0.004795
990.0,0.004608
991.0,0.004762
992.0,0.004775
993.0,0.004619
994.0,0.004744
995.0,0.004726
996.0,0.004682
997.0,0.004674
998.0,0.004633
999.0,0.004601
1000.0,0.004544
1001.0,0.004593
1002.0,0.004414
1003.0,0.004475
1004.0,0.004339
1005.0,0.004176
1006.0,0.004316
1007.0,0.004393
1008.0,0.004347
1009.0,0.004301
1010.0,0.004263
1011.0,0.004307
1012.0,0.004246
1013.0,0.004266
1014.0,0.004221
1015.0,0.004176
1016.0,0.00414
1017.0,0.004133
1018.0,0.004106
1019.0,0.00399
1020.0,0.00405
1021.0,0.004031
1022.0,0.00398
1023.0,0.004007
1024.0,0.003927
1025.0,0.003979
1026.0,0.003943
1027.0,0.00392
1028.0,0.003896
1029.0,0.003835
1030.0,0.003852
1031.0,0.00382
1032.0,0.003795
1033.0,0.003723
1034.0,0.00371
1035.0,0.003707
1036.0,0.00371
1037.0,0.003637
1038.0,0.003639
1039.0,0.003624
1040.0,0.003595
1041.0,0.003595
1042.0,0.003556
1043.0,0.003531
1044.0,0.00353
1045.0,0.003468
1046.0,0.003416
1047.0,0.003433
1048.0,0.003439
1049.0,0.003414
1050.0,0.003385
1051.0,0.003366
1052.0,0.003339
1053.0,0.0033
1054.0,0.003294
1055.0,0.003282
1056.0,0.003256
1057.0,0.003233
1058.0,0.003141
1059.0,0.003132
1060.0,0.003114
1061.0,0.003098
1062.0,0.003101
1063.0,0.003058
1064.0,0.003084
1065.0,0.003047
1066.0,0.002979
1067.0,0.003005
1068.0,0.002925
1069.0,0.002827
1070.0,0.002909
1071.0,0.002953
1072.0,0.0029
1073.0,0.002851
1074.0,0.002925
1075.0,0.00274
1076.0,0.002899
1077.0,0.002821
1078.0,0.002751
1079.0,0.002826
1080.0,0.002743
1081.0,0.002637
1082.0,0.002693
1083.0,0.002697
1084.0,0.002593
1085.0,0.002706
1086.0,0.002411
1087.0,0.002518
1088.0,0.00264
1089.0,0.002524
1090.0,0.002439
1091.0,0.002595
1092.0,0.002585
1093.0,0.002105
1094.0,0.002339
1095.0,0.002193
1096.0,0.002069
1097.0,0.002483
1098.0,0.002016
1099.0,0.002107
1100.0,0.001916
1101.0,0.001945
1102.0,0.001833
1103.0,0.001796
1104.0,0.001794
1105.0,0.002008
1106.0,0.001428
1107.0,0.001871
1108.0,0.001516
1109.0,0.001519
1110.0,0.001827
1111.0,0.001141
1112.0,0.001494
1113.0,0.0008679
1114.0,0.000979
1115.0,0.0007921
1116.0,0.0006028
1117.0,0.0001969
1118.0,0.0006603
1119.0,0.0003005
1120.0,0.0003809
1121.0,0.0005192
1122.0,0.0001999
1123.0,0.0003387
1124.0,0.0002821
1125.0,0.0003756
1126.0,0.0001179
1127.0,0.0004243
1128.0,0.0002377
1129.0,0.000253
1130.0,0.0001609
1131.0,0.0008652
1132.0,0.0006554
1133.0,0.0003869
1134.0,8.842e-05
1135.0,3.257e-05
1136.0,0.0003117
1137.0,0.0008258
1138.0,0.0005595
1139.0,0.0008968
1140.0,0.0007206
1141.0,0.0005243
1142.0,0.0006138
1143.0,0.0009133
1144.0,0.0002793
1145.0,0.0003573
1146.0,0.0003856
1147.0,0.0001227
1148.0,0.0007638
1149.0,0.0005862
1150.0,0.0002972
1151.0,0.0005303
1152.0,0.0006734
1153.0,0.0006601
1154.0,0.0003349
1155.0,0.0008899
1156.0,0.0007832
1157.0,0.0008994
1158.0,0.0008853
1159.0,0.0009707
1160.0,0.0008044
1161.0,0.001033
1162.0,0.00103
1163.0,0.001481
1164.0,0.001228
1165.0,0.001132
1166.0,0.00113
1167.0,0.001246
1168.0,0.001254
1169.0,0.001291
1170.0,0.001422
1171.0,0.001375
1172.0,0.001406
1173.0,0.001404
1174.0,0.0009337
1175.0,0.00137
1176.0,0.001532
1177.0,0.001447
1178.0,0.001025
1179.0,0.00153
1180.0,0.001322
1181.0,0.001368
1182.0,0.0008786
1183.0,0.001346
1184.0,0.001234
1185.0,0.001174
1186.0,0.001441
1187.0,0.001352
1188.0,0.0008783
1189.0,0.001244
1190.0,0.001388
1191.0,0.001291
1192.0,0.001402
1193.0,0.001327
1194.0,0.001373
1195.0,0.001278
1196.0,0.001216
1197.0,0.001373
1198.0,0.001233
1199.0,0.001009
1200.0,0.001284
1201.0,0.001222
1202.0,0.001216
1203.0,0.001206
1204.0,0.001021
1205.0,0.001244
1206.0,0.0014
1207.0,0.001195
1208.0,0.001183
1209.0,0.001205
1210.0,0.001262
1211.0,0.001183
1212.0,0.001153
1213.0,0.001317
1214.0,0.001181
1215.0,0.001151
1216.0,0.001301
1217.0,0.001255
1218.0,0.001281
1219.0,0.001258
1220.0,0.001275
1221.0,0.001288
1222.0,0.001245
1223.0,0.001227
1224.0,0.001211
1225.0,0.001263
1226.0,0.001272
1227.0,0.001151
1228.0,0.001273
1229.0,0.00126
1230.0,0.001231
1231.0,0.001273
1232.0,0.001261
1233.0,0.0012
1234.0,0.001262
1235.0,0.001248
1236.0,0.001255
1237.0,0.001228
1238.0,0.001243
1239.0,0.001223
1240.0,0.001224
1241.0,0.001211
1242.0,0.001207
1243.0,0.001193
1244.0,0.001197
1245.0,0.001199
1246.0,0.001188
1247.0,0.001179
1248.0,0.001172
1249.0,0.001174
1250.0,0.001162
1251.0,0.001141
1252.0,0.00114
1253.0,0.001123
1254.0,0.001105
1255.0,0.001127
1256.0,0.001084
1257.0,0.001073
1258.0,0.001096
1259.0,0.00104
1260.0,0.001044
1261.0,0.0009676
1262.0,0.0009282
1263.0,0.0009268
1264.0,0.0008363
1265.0,0.0009159
1266.0,0.0008687
1267.0,0.0008882
1268.0,0.0008288
1269.0,0.0004579
1270.0,0.0008749
1271.0,0.0009394
1272.0,0.0009412
1273.0,0.0009266
1274.0,0.0009288
1275.0,0.0009421
1276.0,0.0009511
1277.0,0.0009574
1278.0,0.0009789
1279.0,0.0009665
1280.0,0.0009516
1281.0,0.000908
1282.0,0.0008767
1283.0,0.0009404
1284.0,0.0009588
1285.0,0.0009629
1286.0,0.0009755
1287.0,0.0009525
1288.0,0.0009505
1289.0,0.0009086
1290.0,0.0009368
1291.0,0.0009484
1292.0,0.0008712
1293.0,0.0009196
1294.0,0.0009092
1295.0,0.0008983
1296.0,0.0008442
1297.0,0.0007871
1298.0,0.0008616
1299.0,0.0009051
1300.0,0.0007333
1301.0,0.0007596
1302.0,0.0008493
1303.0,0.0007187
1304.0,0.0005877
1305.0,0.0008208
1306.0,0.0008174
1307.0,0.0005999
1308.0,0.0007103
1309.0,0.0008016
1310.0,0.0005812
1311.0,0.0006689
1312.0,0.0006472
1313.0,0.0006279
1314.0,0.0005477
1315.0,0.0005382
1316.0,0.0006462
1317.0,0.0006038
1318.0,0.0006668
1319.0,0.0004908
1320.0,0.0004744
1321.0,0.0005663
1322.0,0.0005688
1323.0,0.0004033
1324.0,0.0004735
1325.0,0.0006172
1326.0,0.000512
1327.0,0.0004822
1328.0,0.0004045
1329.0,0.0002875
1330.0,0.0003867
1331.0,0.000215
1332.0,0.0002239
1333.0,0.0003216
1334.0,0.0002708
1335.0,0.0003873
1336.0,0.0002936
1337.0,0.0002544
1338.0,0.0002764
1339.0,0.0002755
1340.0,0.0002679
1341.0,0.000256
1342.0,0.0002698
1343.0,0.0001699
1344.0,9.86e-05
1345.0,0.0001449
1346.0,6.683e-05
1347.0,6.742e-05
1348.0,4.083e-06
1349.0,1.482e-05
1350.0,1.541e-05
1351.0,3.658e-06
1352.0,9.792e-07
1353.0,4.976e-08
1354.0,1.711e-07
1355.0,1.377e-09
1356.0,2.41e-08
1357.0,3.662e-08
1358.0,1.617e-09
1359.0,2.036e-10
1360.0,7.36e-10
