interpolation:linear
wavelength,value
280.0,5.882999999999999e-22
280.5,1.9130000000000003e-20
281.0,1.021e-19
281.5,4.938e-19
282.0,8.182e-19
282.5,2.024e-18
283.0,6.377e-18
283.5,1.036e-17
284.0,1.689e-16
284.5,4.903e-16
285.0,8.748e-16
285.5,4.296e-15
286.0,1.725e-14
286.5,7.701e-14
287.0,2.198e-13
287.5,8.42e-13
288.0,2.758e-12
288.5,8.45e-12
289.0,2.267e-11
289.5,6.877e-11
290.0,1.913e-10
290.5,3.906e-10
291.0,8.391e-10
291.5,2.41e-09
292.0,5.472e-09
292.5,7.638e-09
293.0,1.628e-08
293.5,3.932e-08
294.0,6.12e-08
294.5,8.17e-08
295.0,1.377e-07
295.5,2.577e-07
296.0,4.986e-07
296.5,7.116e-07
297.0,9.808e-07
297.5,2.719e-06
298.0,4.43e-06
298.5,4.586e-06
299.0,1.044e-05
299.5,1.851e-05
300.0,2.124e-05
300.5,3.231e-05
301.0,6.414e-05
301.5,0.000113
302.0,0.0001025
302.5,0.0002038
303.0,0.000375
303.5,0.0004821
304.0,0.0004644
304.5,0.0007431
305.0,0.001248
305.5,0.001526
306.0,0.001513
306.5,0.001966
307.0,0.003221
307.5,0.004724
308.0,0.00506
308.5,0.006272
309.0,0.006473
309.5,0.007793
310.0,0.008008
310.5,0.0131
311.0,0.01675
311.5,0.01627
312.0,0.01699
312.5,0.02128
313.0,0.0234
313.5,0.02232
314.0,0.02891
314.5,0.02693
315.0,0.03562
315.5,0.02896
316.0,0.02633
316.5,0.03917
317.0,0.04846
317.5,0.04974
318.0,0.03973
318.5,0.05178
319.0,0.06292
319.5,0.04902
320.0,0.05869
320.5,0.07727
321.0,0.07211
321.5,0.06929
322.0,0.06982
322.5,0.06073
323.0,0.06244
323.5,0.0789
324.0,0.09231
324.5,0.09229
325.0,0.07817
325.5,0.1032
326.0,0.1264
326.5,0.1285
327.0,0.1268
327.5,0.1212
328.0,0.1053
328.5,0.1133
329.0,0.1385
329.5,0.158
330.0,0.1579
330.5,0.1237
331.0,0.125
331.5,0.1283
332.0,0.1411
332.5,0.1406
333.0,0.139
333.5,0.1235
334.0,0.1258
334.5,0.1473
335.0,0.1396
335.5,0.1642
336.0,0.1133
336.5,0.1302
337.0,0.1057
337.5,0.1308
338.0,0.1293
338.5,0.1502
339.0,0.148
339.5,0.1422
340.0,0.1652
340.5,0.1487
341.0,0.1455
341.5,0.1328
342.0,0.1582
342.5,0.1475
343.0,0.162
343.5,0.1523
344.0,0.1118
344.5,0.1134
345.0,0.149
345.5,0.1515
346.0,0.1283
346.5,0.1448
347.0,0.1552
347.5,0.1252
348.0,0.1421
348.5,0.1415
349.0,0.1309
349.5,0.1292
350.0,0.1594
350.5,0.1676
351.0,0.1493
351.5,0.1449
352.0,0.155
352.5,0.1205
353.0,0.1513
353.5,0.1613
354.0,0.167
354.5,0.1688
355.0,0.1677
355.5,0.1511
356.0,0.1576
356.5,0.1342
357.0,0.1105
357.5,0.1349
358.0,0.1066
358.5,0.09078
359.0,0.1266
359.5,0.1608
360.0,0.17
360.5,0.1354
361.0,0.1231
361.5,0.1413
362.0,0.1218
362.5,0.1681
363.0,0.1505
363.5,0.1382
364.0,0.1685
364.5,0.1436
365.0,0.1458
365.5,0.1824
366.0,0.1927
366.5,0.1805
367.0,0.1752
367.5,0.1813
368.0,0.1581
368.5,0.1591
369.0,0.1713
369.5,0.182
370.0,0.1934
370.5,0.1496
371.0,0.1594
371.5,0.1988
372.0,0.1315
372.5,0.1572
373.0,0.1594
373.5,0.1034
374.0,0.1498
374.5,0.1236
375.0,0.1198
375.5,0.1783
376.0,0.1473
376.5,0.1522
377.0,0.1606
377.5,0.1873
378.0,0.2024
378.5,0.1907
379.0,0.1568
379.5,0.1428
380.0,0.1479
380.5,0.1786
381.0,0.1783
381.5,0.1409
382.0,0.1247
382.5,0.106
383.0,0.09777
383.5,0.09386
384.0,0.1032
384.5,0.1513
385.0,0.1496
385.5,0.1388
386.0,0.1185
386.5,0.1552
387.0,0.1285
387.5,0.1438
388.0,0.1324
388.5,0.1304
389.0,0.1403
389.5,0.1694
390.0,0.1694
390.5,0.1554
391.0,0.1823
391.5,0.1853
392.0,0.1555
392.5,0.1388
393.0,0.07696
393.5,0.05576
394.0,0.1131
394.5,0.1433
395.0,0.1743
395.5,0.1765
396.0,0.1525
396.5,0.08884
397.0,0.06644
397.5,0.1347
398.0,0.1879
398.5,0.1936
399.0,0.209
399.5,0.2076
400.0,0.2148
401.0,0.2111
402.0,0.2212
403.0,0.2087
404.0,0.2041
405.0,0.2027
406.0,0.198
407.0,0.1934
408.0,0.1995
409.0,0.2121
410.0,0.1841
411.0,0.1981
412.0,0.2113
413.0,0.2047
414.0,0.2058
415.0,0.2049
416.0,0.207
417.0,0.2004
418.0,0.1953
419.0,0.1965
420.0,0.1943
421.0,0.2018
422.0,0.1904
423.0,0.1845
424.0,0.1937
425.0,0.192
426.0,0.1857
427.0,0.181
428.0,0.1751
429.0,0.1648
430.0,0.1432
431.0,0.1409
432.0,0.1805
433.0,0.1802
434.0,0.1661
435.0,0.1723
436.0,0.1928
437.0,0.189
438.0,0.1708
439.0,0.1754
440.0,0.1796
441.0,0.1847
442.0,0.1965
443.0,0.19
444.0,0.1929
445.0,0.1875
446.0,0.1777
447.0,0.1908
448.0,0.1923
449.0,0.1916
450.0,0.1954
451.0,0.2012
452.0,0.1925
453.0,0.1798
454.0,0.1864
455.0,0.1861
456.0,0.1891
457.0,0.1907
458.0,0.1826
459.0,0.1802
460.0,0.1792
461.0,0.1819
462.0,0.182
463.0,0.1797
464.0,0.1757
465.0,0.1725
466.0,0.173
467.0,0.1685
468.0,0.1691
469.0,0.1686
470.0,0.162
471.0,0.1607
472.0,0.1682
473.0,0.1648
474.0,0.1638
475.0,0.1639
476.0,0.1576
477.0,0.1567
478.0,0.1596
479.0,0.1572
480.0,0.1561
481.0,0.1575
482.0,0.1571
483.0,0.1542
484.0,0.1501
485.0,0.1422
486.0,0.1235
487.0,0.1286
488.0,0.14
489.0,0.1394
490.0,0.1455
491.0,0.1419
492.0,0.133
493.0,0.1363
494.0,0.1367
495.0,0.1368
496.0,0.1366
497.0,0.1376
498.0,0.13
499.0,0.1304
500.0,0.1254
501.0,0.1219
502.0,0.119
503.0,0.1226
504.0,0.1183
505.0,0.1217
506.0,0.1247
507.0,0.1179
508.0,0.1135
509.0,0.1161
510.0,0.1148
511.0,0.1171
512.0,0.1175
513.0,0.1104
514.0,0.1088
515.0,0.1068
516.0,0.1058
517.0,0.09331
518.0,0.09738
519.0,0.1014
520.0,0.1042
521.0,0.1044
522.0,0.1036
523.0,0.1009
524.0,0.1037
525.0,0.104
526.0,0.09846
527.0,0.09191
528.0,0.09631
529.0,0.1007
530.0,0.09843
531.0,0.09909
532.0,0.09495
533.0,0.09152
534.0,0.09359
535.0,0.09503
536.0,0.0953
537.0,0.09094
538.0,0.0919
539.0,0.09052
540.0,0.08619
541.0,0.08608
542.0,0.08804
543.0,0.08645
544.0,0.08734
545.0,0.08651
546.0,0.08624
547.0,0.08558
548.0,0.08397
549.0,0.08366
550.0,0.08407
551.0,0.08246
552.0,0.08244
553.0,0.08038
554.0,0.08172
555.0,0.08128
556.0,0.0796
557.0,0.07651
558.0,0.07529
559.0,0.07325
560.0,0.07354
561.0,0.07386
562.0,0.07269
563.0,0.07406
564.0,0.07149
565.0,0.07033
566.0,0.06877
567.0,0.06952
568.0,0.06834
569.0,0.06614
570.0,0.06567
571.0,0.06482
572.0,0.06583
573.0,0.06609
574.0,0.06547
575.0,0.06386
576.0,0.06291
577.0,0.06324
578.0,0.06199
579.0,0.06196
580.0,0.06287
581.0,0.06291
582.0,0.06379
583.0,0.06366
584.0,0.06392
585.0,0.06203
586.0,0.06037
587.0,0.06127
588.0,0.05931
589.0,0.052
590.0,0.05407
591.0,0.05699
592.0,0.0558
593.0,0.0563
594.0,0.05544
595.0,0.05359
596.0,0.05549
597.0,0.05445
598.0,0.05394
599.0,0.05361
600.0,0.05337
601.0,0.05263
602.0,0.05196
603.0,0.05253
604.0,0.05311
605.0,0.05258
606.0,0.05214
607.0,0.05245
608.0,0.05165
609.0,0.05152
610.0,0.05096
611.0,0.05103
612.0,0.05069
613.0,0.04984
614.0,0.04896
615.0,0.04982
616.0,0.04799
617.0,0.04769
618.0,0.04932
619.0,0.04861
620.0,0.04869
621.0,0.04849
622.0,0.04767
623.0,0.04669
624.0,0.04567
625.0,0.04537
626.0,0.04584
627.0,0.0461
628.0,0.04237
629.0,0.04441
630.0,0.04316
631.0,0.04408
632.0,0.04339
633.0,0.04459
634.0,0.04403
635.0,0.04453
636.0,0.04377
637.0,0.04431
638.0,0.04459
639.0,0.04392
640.0,0.04332
641.0,0.04311
642.0,0.04276
643.0,0.04317
644.0,0.04286
645.0,0.04272
646.0,0.04146
647.0,0.04066
648.0,0.04049
649.0,0.03952
650.0,0.03968
651.0,0.04124
652.0,0.03915
653.0,0.04032
654.0,0.03971
655.0,0.03795
656.0,0.03354
657.0,0.03431
658.0,0.03834
659.0,0.03847
660.0,0.03846
661.0,0.03854
662.0,0.03843
663.0,0.03753
664.0,0.03785
665.0,0.03774
666.0,0.03761
667.0,0.03744
668.0,0.03731
669.0,0.03773
670.0,0.03739
671.0,0.03723
672.0,0.03678
673.0,0.03721
674.0,0.03691
675.0,0.03641
676.0,0.0365
677.0,0.036
678.0,0.03596
679.0,0.03523
680.0,0.03535
681.0,0.03496
682.0,0.03475
683.0,0.03452
684.0,0.03418
685.0,0.03431
686.0,0.03394
687.0,0.02092
688.0,0.02503
689.0,0.02503
690.0,0.02636
691.0,0.02792
692.0,0.02906
693.0,0.02866
694.0,0.02826
695.0,0.02951
696.0,0.02941
697.0,0.03141
698.0,0.03078
699.0,0.0297
700.0,0.0292
701.0,0.02873
702.0,0.02888
703.0,0.0288
704.0,0.02969
705.0,0.02958
706.0,0.02947
707.0,0.02937
708.0,0.02929
709.0,0.02926
710.0,0.02908
711.0,0.02896
712.0,0.0288
713.0,0.02834
714.0,0.0283
715.0,0.0272
716.0,0.02707
717.0,0.02274
718.0,0.02062
719.0,0.01865
720.0,0.01949
721.0,0.02179
722.0,0.02536
723.0,0.0232
724.0,0.0205
725.0,0.02003
726.0,0.02098
727.0,0.02125
728.0,0.01971
729.0,0.02055
730.0,0.02171
731.0,0.02057
732.0,0.02215
733.0,0.02357
734.0,0.02408
735.0,0.02344
736.0,0.0233
737.0,0.02328
738.0,0.02367
739.0,0.02308
740.0,0.02362
741.0,0.02329
742.0,0.02323
743.0,0.0237
744.0,0.02352
745.0,0.02342
746.0,0.02342
747.0,0.02336
748.0,0.02319
749.0,0.02281
750.0,0.0227
751.0,0.02238
752.0,0.02238
753.0,0.02239
754.0,0.02234
755.0,0.02211
756.0,0.02201
757.0,0.02195
758.0,0.02157
759.0,0.02095
760.0,0.002866
761.0,0.001484
762.0,0.009415
763.0,0.004389
764.0,0.006771
765.0,0.009272
766.0,0.01175
767.0,0.01529
768.0,0.01809
769.0,0.01851
770.0,0.0192
771.0,0.01933
772.0,0.0193
773.0,0.01933
774.0,0.01914
775.0,0.01891
776.0,0.01905
777.0,0.0187
778.0,0.01849
779.0,0.01841
780.0,0.01822
781.0,0.01816
782.0,0.01819
783.0,0.0178
784.0,0.01781
785.0,0.0176
786.0,0.01772
787.0,0.01728
788.0,0.01696
789.0,0.01686
790.0,0.01625
791.0,0.0164
792.0,0.01622
793.0,0.01587
794.0,0.01616
795.0,0.01634
796.0,0.01565
797.0,0.0156
798.0,0.01609
799.0,0.0159
800.0,0.01552
801.0,0.01537
802.0,0.01526
803.0,0.01506
804.0,0.01502
805.0,0.01493
806.0,0.01533
807.0,0.01506
808.0,0.01501
809.0,0.01462
810.0,0.0144
811.0,0.0143
812.0,0.01375
813.0,0.01335
814.0,0.01143
815.0,0.01131
816.0,0.01037
817.0,0.01055
818.0,0.01007
819.0,0.01143
820.0,0.01063
821.0,0.01272
822.0,0.01224
823.0,0.007781
824.0,0.0117
825.0,0.01226
826.0,0.01165
827.0,0.01236
828.0,0.01014
829.0,0.01145
830.0,0.01122
831.0,0.01123
832.0,0.01077
833.0,0.0116
834.0,0.01105
835.0,0.01229
836.0,0.01159
837.0,0.01222
838.0,0.01174
839.0,0.01194
840.0,0.01216
841.0,0.01191
842.0,0.01192
843.0,0.01189
844.0,0.01165
845.0,0.01202
846.0,0.01192
847.0,0.01166
848.0,0.01151
849.0,0.01113
850.0,0.01062
851.0,0.01117
852.0,0.01104
853.0,0.01059
854.0,0.009093
855.0,0.009966
856.0,0.01084
857.0,0.01105
858.0,0.01092
859.0,0.01089
860.0,0.01087
861.0,0.01077
862.0,0.0109
863.0,0.01112
864.0,0.01052
865.0,0.01039
866.0,0.0093
867.0,0.009666
868.0,0.01048
869.0,0.01022
870.0,0.01047
871.0,0.01028
872.0,0.0102
873.0,0.01014
874.0,0.009975
875.0,0.009728
876.0,0.009785
877.0,0.009844
878.0,0.009906
879.0,0.009713
880.0,0.009464
881.0,0.009276
882.0,0.009437
883.0,0.009435
884.0,0.009347
885.0,0.009374
886.0,0.00887
887.0,0.008949
888.0,0.009029
889.0,0.009117
890.0,0.008971
891.0,0.008935
892.0,0.00861
893.0,0.008258
894.0,0.00785
895.0,0.007285
896.0,0.006751
897.0,0.005625
898.0,0.006202
899.0,0.004496
900.0,0.006372
901.0,0.004733
902.0,0.005707
903.0,0.005696
904.0,0.007473
905.0,0.007137
906.0,0.0066
907.0,0.00512
908.0,0.005239
909.0,0.005756
910.0,0.004921
911.0,0.00531
912.0,0.005568
913.0,0.004932
914.0,0.004882
915.0,0.005326
916.0,0.004388
917.0,0.005784
918.0,0.004478
919.0,0.005867
920.0,0.00596
921.0,0.006232
922.0,0.005425
923.0,0.005976
924.0,0.00552
925.0,0.005363
926.0,0.005412
927.0,0.006148
928.0,0.004199
929.0,0.003755
930.0,0.002822
931.0,0.002652
932.0,0.001813
933.0,0.001431
934.0,0.0007319
935.0,0.001467
936.0,0.0008694
937.0,0.0008765
938.0,0.001092
939.0,0.002481
940.0,0.003061
941.0,0.002207
942.0,0.002596
943.0,0.00161
944.0,0.001722
945.0,0.002245
946.0,0.00105
947.0,0.002227
948.0,0.001584
949.0,0.003086
950.0,0.0007335
951.0,0.00302
952.0,0.001482
953.0,0.001977
954.0,0.002506
955.0,0.001998
956.0,0.001947
957.0,0.001455
958.0,0.002881
959.0,0.002181
960.0,0.002466
961.0,0.002826
962.0,0.002646
963.0,0.003122
964.0,0.00281
965.0,0.003087
966.0,0.003072
967.0,0.003037
968.0,0.004351
969.0,0.004537
970.0,0.004087
971.0,0.004817
972.0,0.004544
973.0,0.003809
974.0,0.003575
975.0,0.00373
976.0,0.003474
977.0,0.004077
978.0,0.003802
979.0,0.004014
980.0,0.003714
981.0,0.004609
982.0,0.004339
983.0,0.004117
984.0,0.004752
985.0,0.004275
986.0,0.004833
987.0,0.004685
988.0,0.004657
989.0,0.004782
990.0,0.004595
991.0,0.004749
992.0,0.004763
993.0,0.004606
994.0,0.004732
995.0,0.004714
996.0,0.004669
997.0,0.004662
998.0,0.004621
999.0,0.004589
1000.0,0.004532
1001.0,0.00458
1002.0,0.004402
1003.0,0.004463
1004.0,0.004327
1005.0,0.004165
1006.0,0.004304
1007.0,0.004382
1008.0,0.004336
1009.0,0.00429
1010.0,0.004252
1011.0,0.004296
1012.0,0.004235
1013.0,0.004255
1014.0,0.00421
1015.0,0.004165
1016.0,0.004129
1017.0,0.004122
1018.0,0.004095
1019.0,0.003979
1020.0,0.00404
1021.0,0.004021
1022.0,0.003969
1023.0,0.003996
1024.0,0.003917
1025.0,0.003969
1026.0,0.003933
1027.0,0.003909
1028.0,0.003886
1029.0,0.003825
1030.0,0.003841
1031.0,0.003809
1032.0,0.003785
1033.0,0.003713
1034.0,0.0037
1035.0,0.003697
1036.0,0.0037
1037.0,0.003627
1038.0,0.00363
1039.0,0.003614
1040.0,0.003586
1041.0,0.003585
1042.0,0.003546
1043.0,0.003522
1044.0,0.003521
1045.0,0.003459
1046.0,0.003407
1047.0,0.003424
1048.0,0.00343
1049.0,0.003405
1050.0,0.003376
1051.0,0.003357
1052.0,0.00333
1053.0,0.003291
1054.0,0.003285
1055.0,0.003273
1056.0,0.003247
1057.0,0.003224
1058.0,0.003132
1059.0,0.003123
1060.0,0.003106
1061.0,0.003089
1062.0,0.003092
1063.0,0.00305
1064.0,0.003076
1065.0,0.003038
1066.0,0.00297
1067.0,0.002997
1068.0,0.002917
1069.0,0.002819
1070.0,0.0029
1071.0,0.002944
1072.0,0.002892
1073.0,0.002843
1074.0,0.002917
1075.0,0.002732
1076.0,0.002891
1077.0,0.002813
1078.0,0.002744
1079.0,0.002818
1080.0,0.002736
1081.0,0.00263
1082.0,0.002686
1083.0,0.002689
1084.0,0.002585
1085.0,0.002699
1086.0,0.002404
1087.0,0.002511
1088.0,0.002632
1089.0,0.002517
1090.0,0.002432
1091.0,0.002588
1092.0,0.002577
1093.0,0.002099
1094.0,0.002333
1095.0,0.002186
1096.0,0.002063
1097.0,0.002476
1098.0,0.00201
1099.0,0.0021
1100.0,0.00191
1101.0,0.001939
1102.0,0.001828
1103.0,0.00179
1104.0,0.001788
1105.0,0.002001
1106.0,0.001423
1107.0,0.001865
1108.0,0.001511
1109.0,0.001514
1110.0,0.001821
1111.0,0.001137
1112.0,0.00149
1113.0,0.000865
1114.0,0.0009755
1115.0,0.0007894
1116.0,0.0006007
1117.0,0.0001964
1118.0,0.000658
1119.0,0.0002996
1120.0,0.0003797
1121.0,0.0005174
1122.0,0.0001993
1123.0,0.0003377
1124.0,0.0002813
1125.0,0.0003744
1126.0,0.0001176
1127.0,0.0004229
1128.0,0.000237
1129.0,0.0002522
1130.0,0.0001605
1131.0,0.0008618
1132.0,0.000653
1133.0,0.0003856
1134.0,8.824e-05
1135.0,3.253e-05
1136.0,0.0003107
1137.0,0.0008225
1138.0,0.0005574
1139.0,0.0008936
1140.0,0.000718
1141.0,0.0005225
1142.0,0.0006116
1143.0,0.0009098
1144.0,0.0002785
1145.0,0.0003561
1146.0,0.0003842
1147.0,0.0001224
1148.0,0.000761
1149.0,0.0005841
1150.0,0.0002963
1151.0,0.0005284
1152.0,0.0006709
1153.0,0.0006579
1154.0,0.0003337
1155.0,0.0008867
1156.0,0.0007803
1157.0,0.0008962
1158.0,0.0008822
1159.0,0.0009673
1160.0,0.0008016
1161.0,0.00103
1162.0,0.001027
1163.0,0.001476
1164.0,0.001224
1165.0,0.001128
1166.0,0.001126
1167.0,0.001242
1168.0,0.00125
1169.0,0.001287
1170.0,0.001418
1171.0,0.001371
1172.0,0.001402
1173.0,0.0014
1174.0,0.0009307
1175.0,0.001365
1176.0,0.001528
1177.0,0.001443
1178.0,0.001022
1179.0,0.001526
1180.0,0.001319
1181.0,0.001364
1182.0,0.0008759
1183.0,0.001342
1184.0,0.00123
1185.0,0.00117
1186.0,0.001437
1187.0,0.001348
1188.0,0.0008755
1189.0,0.001241
1190.0,0.001384
1191.0,0.001287
1192.0,0.001398
1193.0,0.001323
1194.0,0.001369
1195.0,0.001275
1196.0,0.001212
1197.0,0.001369
1198.0,0.00123
1199.0,0.001005
1200.0,0.001281
1201.0,0.001218
1202.0,0.001212
1203.0,0.001202
1204.0,0.001018
1205.0,0.00124
1206.0,0.001396
1207.0,0.001191
1208.0,0.00118
1209.0,0.001202
1210.0,0.001259
1211.0,0.00118
1212.0,0.00115
1213.0,0.001313
1214.0,0.001178
1215.0,0.001147
1216.0,0.001297
1217.0,0.001251
1218.0,0.001278
1219.0,0.001254
1220.0,0.001271
1221.0,0.001284
1222.0,0.001241
1223.0,0.001223
1224.0,0.001207
1225.0,0.001259
1226.0,0.001268
1227.0,0.001147
1228.0,0.00127
1229.0,0.001256
1230.0,0.001227
1231.0,0.001269
1232.0,0.001257
1233.0,0.001196
1234.0,0.001259
1235.0,0.001245
1236.0,0.001251
1237.0,0.001225
1238.0,0.001239
1239.0,0.001219
1240.0,0.001221
1241.0,0.001208
1242.0,0.001204
1243.0,0.00119
1244.0,0.001194
1245.0,0.001195
1246.0,0.001185
1247.0,0.001175
1248.0,0.001169
1249.0,0.001171
1250.0,0.001159
1251.0,0.001138
1252.0,0.001137
1253.0,0.00112
1254.0,0.001102
1255.0,0.001124
1256.0,0.001081
1257.0,0.00107
1258.0,0.001093
1259.0,0.001037
1260.0,0.001041
1261.0,0.0009646
1262.0,0.0009252
1263.0,0.0009239
1264.0,0.0008334
1265.0,0.000913
1266.0,0.0008658
1267.0,0.0008853
1268.0,0.000826
1269.0,0.000456
1270.0,0.0008721
1271.0,0.0009365
1272.0,0.0009384
1273.0,0.0009238
1274.0,0.000926
1275.0,0.0009393
1276.0,0.0009483
1277.0,0.0009546
1278.0,0.0009762
1279.0,0.0009638
1280.0,0.0009489
1281.0,0.0009054
1282.0,0.0008744
1283.0,0.0009378
1284.0,0.0009562
1285.0,0.0009603
1286.0,0.0009729
1287.0,0.0009499
1288.0,0.0009479
1289.0,0.000906
1290.0,0.0009342
1291.0,0.0009458
1292.0,0.0008686
1293.0,0.0009171
1294.0,0.0009067
1295.0,0.0008957
1296.0,0.0008417
1297.0,0.0007847
1298.0,0.0008591
1299.0,0.0009026
1300.0,0.000731
1301.0,0.0007573
1302.0,0.0008469
1303.0,0.0007165
1304.0,0.0005857
1305.0,0.0008185
1306.0,0.0008151
1307.0,0.000598
1308.0,0.0007082
1309.0,0.0007992
1310.0,0.0005794
1311.0,0.0006669
1312.0,0.0006453
1313.0,0.0006259
1314.0,0.0005459
1315.0,0.0005364
1316.0,0.0006442
1317.0,0.0006019
1318.0,0.0006648
1319.0,0.0004892
1320.0,0.0004729
1321.0,0.0005645
1322.0,0.0005669
1323.0,0.0004019
1324.0,0.0004719
1325.0,0.0006153
1326.0,0.0005103
1327.0,0.0004807
1328.0,0.0004032
1329.0,0.0002865
1330.0,0.0003853
1331.0,0.0002142
1332.0,0.0002231
1333.0,0.0003203
1334.0,0.0002699
1335.0,0.0003859
1336.0,0.0002925
1337.0,0.0002536
1338.0,0.0002755
1339.0,0.0002745
1340.0,0.000267
1341.0,0.000255
1342.0,0.0002688
1343.0,0.0001692
1344.0,9.832e-05
1345.0,0.0001444
1346.0,6.664e-05
1347.0,6.723e-05
1348.0,4.08e-06
1349.0,1.48e-05
1350.0,1.539e-05
1351.0,3.656e-06
1352.0,9.788e-07
1353.0,4.975e-08
1354.0,1.711e-07
1355.0,1.377e-09
1356.0,2.41e-08
1357.0,3.661e-08
1358.0,1.616e-09
1359.0,2.036e-10
1360.0,7.358e-10
