interpolation:linear
wavelength,value
280.0,1.1859999999999998e-22
280.5,3.944e-21
281.0,2.125e-20
281.5,4.311e-19
282.0,5.469e-19
282.5,1.336e-18
283.0,4.205e-18
283.5,6.848e-18
284.0,1.131e-16
284.5,3.312e-16
285.0,5.751e-16
285.5,2.807e-15
286.0,1.129e-14
286.5,5.067e-14
287.0,1.455e-13
287.5,5.619e-13
288.0,1.994e-12
288.5,5.844e-12
289.0,1.528e-11
289.5,4.562e-11
290.0,1.26e-10
290.5,2.565e-10
291.0,5.501e-10
291.5,1.58e-09
292.0,3.186e-09
292.5,4.454e-09
293.0,9.514e-09
293.5,2.304e-08
294.0,3.597e-08
294.5,4.796e-08
295.0,8.105e-08
295.5,1.357e-07
296.0,2.596e-07
296.5,3.598e-07
297.0,4.826e-07
297.5,1.277e-06
298.0,1.985e-06
298.5,1.973e-06
299.0,4.296e-06
299.5,6.958e-06
300.0,7.531e-06
300.5,1.071e-05
301.0,1.877e-05
301.5,2.891e-05
302.0,2.425e-05
302.5,4.755e-05
303.0,8.602e-05
303.5,0.0001097
304.0,0.000106
304.5,0.0001707
305.0,0.0002895
305.5,0.0003565
306.0,0.0003547
306.5,0.0004633
307.0,0.000766
307.5,0.001133
308.0,0.001216
308.5,0.001514
309.0,0.001778
309.5,0.002357
310.0,0.002532
310.5,0.004237
311.0,0.005613
311.5,0.005542
312.0,0.006238
312.5,0.008205
313.0,0.009263
313.5,0.008641
314.0,0.01186
314.5,0.01192
315.0,0.01599
315.5,0.01256
316.0,0.01214
316.5,0.01902
317.0,0.02353
317.5,0.02384
318.0,0.01973
318.5,0.02749
319.0,0.03456
319.5,0.02556
320.0,0.03039
320.5,0.04282
321.0,0.04245
321.5,0.04107
322.0,0.03887
322.5,0.03396
323.0,0.03644
323.5,0.04852
324.0,0.05725
324.5,0.05622
325.0,0.04615
325.5,0.06306
326.0,0.07916
326.5,0.08247
327.0,0.0808
327.5,0.07641
328.0,0.06434
328.5,0.07208
329.0,0.09088
329.5,0.1047
330.0,0.104
330.5,0.07973
331.0,0.07996
331.5,0.08365
332.0,0.09437
332.5,0.09515
333.0,0.09357
333.5,0.08174
334.0,0.08313
334.5,0.09947
335.0,0.09543
335.5,0.1125
336.0,0.0777
336.5,0.08883
337.0,0.07157
337.5,0.08832
338.0,0.08888
338.5,0.1039
339.0,0.1027
339.5,0.09858
340.0,0.1142
340.5,0.1031
341.0,0.1013
341.5,0.09305
342.0,0.1111
342.5,0.1038
343.0,0.1138
343.5,0.1069
344.0,0.07811
344.5,0.07943
345.0,0.1051
345.5,0.1072
346.0,0.09101
346.5,0.1029
347.0,0.1101
347.5,0.08885
348.0,0.1013
348.5,0.1011
349.0,0.09369
349.5,0.09257
350.0,0.1143
350.5,0.1203
351.0,0.1072
351.5,0.1038
352.0,0.1114
352.5,0.08683
353.0,0.1092
353.5,0.1166
354.0,0.1209
354.5,0.1224
355.0,0.1217
355.5,0.1097
356.0,0.1146
356.5,0.09768
357.0,0.08054
357.5,0.09841
358.0,0.07785
358.5,0.0664
359.0,0.09266
359.5,0.1177
360.0,0.1246
360.5,0.09941
361.0,0.09047
361.5,0.104
362.0,0.08976
362.5,0.124
363.0,0.1111
363.5,0.1022
364.0,0.1247
364.5,0.1063
365.0,0.1081
365.5,0.1354
366.0,0.1431
366.5,0.1342
367.0,0.1304
367.5,0.1351
368.0,0.1179
368.5,0.1187
369.0,0.128
369.5,0.1361
370.0,0.1448
370.5,0.1121
371.0,0.1196
371.5,0.1493
372.0,0.09885
372.5,0.1183
373.0,0.12
373.5,0.07794
374.0,0.113
374.5,0.09338
375.0,0.09057
375.5,0.1349
376.0,0.1116
376.5,0.1154
377.0,0.1219
377.5,0.1423
378.0,0.1539
378.5,0.1451
379.0,0.1195
379.5,0.1089
380.0,0.1129
380.5,0.1364
381.0,0.1364
381.5,0.1079
382.0,0.09556
382.5,0.08127
383.0,0.07506
383.5,0.07213
384.0,0.07938
384.5,0.1165
385.0,0.1152
385.5,0.1071
386.0,0.09149
386.5,0.1199
387.0,0.09938
387.5,0.1113
388.0,0.1026
388.5,0.1011
389.0,0.1089
389.5,0.1316
390.0,0.1317
390.5,0.1209
391.0,0.142
391.5,0.1445
392.0,0.1214
392.5,0.1084
393.0,0.06016
393.5,0.04363
394.0,0.08855
394.5,0.1123
395.0,0.1367
395.5,0.1385
396.0,0.1198
396.5,0.06986
397.0,0.0523
397.5,0.1061
398.0,0.1482
398.5,0.1528
399.0,0.165
399.5,0.1641
400.0,0.1699
401.0,0.1671
402.0,0.1754
403.0,0.1657
404.0,0.1623
405.0,0.1615
406.0,0.158
407.0,0.1546
408.0,0.1597
409.0,0.17
410.0,0.1478
411.0,0.1592
412.0,0.1701
413.0,0.165
414.0,0.1661
415.0,0.1656
416.0,0.1675
417.0,0.1625
418.0,0.1585
419.0,0.1597
420.0,0.1581
421.0,0.1645
422.0,0.1554
423.0,0.1508
424.0,0.1585
425.0,0.1572
426.0,0.1523
427.0,0.1486
428.0,0.144
429.0,0.1357
430.0,0.1181
431.0,0.1163
432.0,0.1492
433.0,0.149
434.0,0.1376
435.0,0.1429
436.0,0.1601
437.0,0.157
438.0,0.1421
439.0,0.1459
440.0,0.1496
441.0,0.1539
442.0,0.1639
443.0,0.1587
444.0,0.1612
445.0,0.1569
446.0,0.149
447.0,0.1602
448.0,0.1616
449.0,0.1611
450.0,0.1644
451.0,0.1694
452.0,0.1623
453.0,0.1518
454.0,0.1575
455.0,0.1574
456.0,0.16
457.0,0.1614
458.0,0.1546
459.0,0.1526
460.0,0.1517
461.0,0.1541
462.0,0.1544
463.0,0.1525
464.0,0.1494
465.0,0.1469
466.0,0.1475
467.0,0.1438
468.0,0.1443
469.0,0.1439
470.0,0.1384
471.0,0.1374
472.0,0.1439
473.0,0.1412
474.0,0.1404
475.0,0.1405
476.0,0.1351
477.0,0.1343
478.0,0.1367
479.0,0.1346
480.0,0.1336
481.0,0.1349
482.0,0.1346
483.0,0.1322
484.0,0.1289
485.0,0.1223
486.0,0.1064
487.0,0.1109
488.0,0.1209
489.0,0.1204
490.0,0.1257
491.0,0.1227
492.0,0.115
493.0,0.118
494.0,0.1185
495.0,0.1187
496.0,0.1186
497.0,0.1194
498.0,0.1127
499.0,0.113
500.0,0.1085
501.0,0.1054
502.0,0.1027
503.0,0.1057
504.0,0.102
505.0,0.1049
506.0,0.1075
507.0,0.1017
508.0,0.09804
509.0,0.1003
510.0,0.09927
511.0,0.1013
512.0,0.1017
513.0,0.09554
514.0,0.09414
515.0,0.09247
516.0,0.09154
517.0,0.08073
518.0,0.08425
519.0,0.0877
520.0,0.09015
521.0,0.09024
522.0,0.08953
523.0,0.08721
524.0,0.08947
525.0,0.08963
526.0,0.0848
527.0,0.07907
528.0,0.08277
529.0,0.08644
530.0,0.08445
531.0,0.08496
532.0,0.08137
533.0,0.07842
534.0,0.08021
535.0,0.08148
536.0,0.08174
537.0,0.07803
538.0,0.07888
539.0,0.07768
540.0,0.07393
541.0,0.0738
542.0,0.07545
543.0,0.07406
544.0,0.07477
545.0,0.07402
546.0,0.07377
547.0,0.07321
548.0,0.07183
549.0,0.07156
550.0,0.0719
551.0,0.07052
552.0,0.0705
553.0,0.06873
554.0,0.06984
555.0,0.06944
556.0,0.06798
557.0,0.06531
558.0,0.06421
559.0,0.06241
560.0,0.0626
561.0,0.06282
562.0,0.06177
563.0,0.06287
564.0,0.06064
565.0,0.05963
566.0,0.05828
567.0,0.05888
568.0,0.05784
569.0,0.05592
570.0,0.0555
571.0,0.05477
572.0,0.05558
573.0,0.05578
574.0,0.05526
575.0,0.05389
576.0,0.05311
577.0,0.05343
578.0,0.05241
579.0,0.05244
580.0,0.05327
581.0,0.05336
582.0,0.05417
583.0,0.0541
584.0,0.05435
585.0,0.05276
586.0,0.05138
587.0,0.05215
588.0,0.05044
589.0,0.04415
590.0,0.04591
591.0,0.04842
592.0,0.04736
593.0,0.0478
594.0,0.04702
595.0,0.04538
596.0,0.04702
597.0,0.04608
598.0,0.04563
599.0,0.04533
600.0,0.04512
601.0,0.0445
602.0,0.04393
603.0,0.04443
604.0,0.04494
605.0,0.04453
606.0,0.04419
607.0,0.0445
608.0,0.04388
609.0,0.04383
610.0,0.0434
611.0,0.04352
612.0,0.04327
613.0,0.0426
614.0,0.04189
615.0,0.04268
616.0,0.04115
617.0,0.04093
618.0,0.04237
619.0,0.04179
620.0,0.04188
621.0,0.04174
622.0,0.04105
623.0,0.04023
624.0,0.03938
625.0,0.03914
626.0,0.03956
627.0,0.03979
628.0,0.03644
629.0,0.03833
630.0,0.03727
631.0,0.03815
632.0,0.03759
633.0,0.03868
634.0,0.03823
635.0,0.03871
636.0,0.03809
637.0,0.0386
638.0,0.03889
639.0,0.03834
640.0,0.03785
641.0,0.03771
642.0,0.03744
643.0,0.03782
644.0,0.03759
645.0,0.03748
646.0,0.03638
647.0,0.03566
648.0,0.03554
649.0,0.03469
650.0,0.03491
651.0,0.03631
652.0,0.03444
653.0,0.03555
654.0,0.03503
655.0,0.03347
656.0,0.02962
657.0,0.03032
658.0,0.03391
659.0,0.03405
660.0,0.03406
661.0,0.03416
662.0,0.03407
663.0,0.03328
664.0,0.0336
665.0,0.03353
666.0,0.03344
667.0,0.03332
668.0,0.03323
669.0,0.03362
670.0,0.03334
671.0,0.03322
672.0,0.03284
673.0,0.03324
674.0,0.03298
675.0,0.03256
676.0,0.03266
677.0,0.03222
678.0,0.0322
679.0,0.03156
680.0,0.03169
681.0,0.03134
682.0,0.03117
683.0,0.03097
684.0,0.03067
685.0,0.0308
686.0,0.03048
687.0,0.01841
688.0,0.02213
689.0,0.02214
690.0,0.02339
691.0,0.02486
692.0,0.02597
693.0,0.02562
694.0,0.02532
695.0,0.02651
696.0,0.02644
697.0,0.0283
698.0,0.02774
699.0,0.02674
700.0,0.02629
701.0,0.02585
702.0,0.026
703.0,0.02595
704.0,0.02679
705.0,0.0267
706.0,0.02661
707.0,0.02653
708.0,0.02646
709.0,0.02646
710.0,0.02629
711.0,0.02619
712.0,0.02605
713.0,0.02563
714.0,0.0256
715.0,0.02459
716.0,0.02447
717.0,0.02042
718.0,0.01855
719.0,0.0168
720.0,0.01753
721.0,0.01965
722.0,0.02292
723.0,0.02096
724.0,0.0185
725.0,0.01806
726.0,0.0189
727.0,0.01919
728.0,0.01777
729.0,0.01857
730.0,0.01958
731.0,0.01857
732.0,0.02004
733.0,0.02136
734.0,0.02184
735.0,0.02125
736.0,0.02112
737.0,0.02111
738.0,0.02151
739.0,0.02098
740.0,0.02148
741.0,0.0212
742.0,0.02115
743.0,0.02158
744.0,0.02142
745.0,0.02134
746.0,0.02133
747.0,0.02128
748.0,0.02113
749.0,0.0208
750.0,0.0207
751.0,0.02041
752.0,0.02042
753.0,0.02044
754.0,0.02039
755.0,0.02019
756.0,0.02011
757.0,0.02005
758.0,0.0197
759.0,0.01911
760.0,0.002657
761.0,0.001402
762.0,0.008402
763.0,0.004007
764.0,0.006088
765.0,0.008278
766.0,0.01049
767.0,0.01374
768.0,0.01641
769.0,0.01684
770.0,0.01752
771.0,0.01767
772.0,0.01764
773.0,0.01768
774.0,0.0175
775.0,0.01728
776.0,0.01741
777.0,0.01709
778.0,0.01689
779.0,0.01682
780.0,0.01665
781.0,0.01659
782.0,0.01663
783.0,0.01628
784.0,0.0163
785.0,0.01611
786.0,0.01621
787.0,0.01579
788.0,0.01549
789.0,0.01541
790.0,0.01484
791.0,0.015
792.0,0.01484
793.0,0.01452
794.0,0.01481
795.0,0.01497
796.0,0.0143
797.0,0.01425
798.0,0.01474
799.0,0.01456
800.0,0.0142
801.0,0.01406
802.0,0.01395
803.0,0.01377
804.0,0.01374
805.0,0.01367
806.0,0.01405
807.0,0.0138
808.0,0.01375
809.0,0.01337
810.0,0.01316
811.0,0.01306
812.0,0.01252
813.0,0.01215
814.0,0.01038
815.0,0.01028
816.0,0.009436
817.0,0.009587
818.0,0.009146
819.0,0.0104
820.0,0.009671
821.0,0.01162
822.0,0.01118
823.0,0.007081
824.0,0.01066
825.0,0.01122
826.0,0.01064
827.0,0.01131
828.0,0.009237
829.0,0.01047
830.0,0.01027
831.0,0.01027
832.0,0.009847
833.0,0.01061
834.0,0.0101
835.0,0.01127
836.0,0.01059
837.0,0.0112
838.0,0.01074
839.0,0.01094
840.0,0.01115
841.0,0.01091
842.0,0.01093
843.0,0.01092
844.0,0.0107
845.0,0.01104
846.0,0.01095
847.0,0.01071
848.0,0.01057
849.0,0.01022
850.0,0.009746
851.0,0.01024
852.0,0.01013
853.0,0.009717
854.0,0.008339
855.0,0.009145
856.0,0.009946
857.0,0.01014
858.0,0.01003
859.0,0.01
860.0,0.009986
861.0,0.009891
862.0,0.01002
863.0,0.01022
864.0,0.00967
865.0,0.009549
866.0,0.008553
867.0,0.008891
868.0,0.009636
869.0,0.009399
870.0,0.009629
871.0,0.009459
872.0,0.009388
873.0,0.009331
874.0,0.009179
875.0,0.008952
876.0,0.009005
877.0,0.009059
878.0,0.009114
879.0,0.008937
880.0,0.008708
881.0,0.008532
882.0,0.008678
883.0,0.008678
884.0,0.008596
885.0,0.00862
886.0,0.008147
887.0,0.008226
888.0,0.008297
889.0,0.008383
890.0,0.008241
891.0,0.008212
892.0,0.007901
893.0,0.007572
894.0,0.007178
895.0,0.006638
896.0,0.006159
897.0,0.005125
898.0,0.005646
899.0,0.0041
900.0,0.005811
901.0,0.004303
902.0,0.005198
903.0,0.005179
904.0,0.00683
905.0,0.006522
906.0,0.006029
907.0,0.004659
908.0,0.004775
909.0,0.005244
910.0,0.004476
911.0,0.004847
912.0,0.00507
913.0,0.004484
914.0,0.004445
915.0,0.004829
916.0,0.004
917.0,0.005256
918.0,0.004074
919.0,0.005343
920.0,0.005455
921.0,0.005687
922.0,0.004943
923.0,0.005457
924.0,0.005015
925.0,0.004879
926.0,0.004913
927.0,0.005587
928.0,0.003798
929.0,0.003394
930.0,0.002556
931.0,0.002402
932.0,0.001652
933.0,0.001311
934.0,0.0006825
935.0,0.001343
936.0,0.0008061
937.0,0.0008129
938.0,0.001006
939.0,0.002246
940.0,0.002763
941.0,0.001999
942.0,0.002343
943.0,0.001469
944.0,0.001574
945.0,0.002035
946.0,0.000967
947.0,0.002017
948.0,0.001449
949.0,0.002777
950.0,0.0006825
951.0,0.002718
952.0,0.001356
953.0,0.001797
954.0,0.002266
955.0,0.001813
956.0,0.001787
957.0,0.00133
958.0,0.002619
959.0,0.001984
960.0,0.002234
961.0,0.002562
962.0,0.002404
963.0,0.002835
964.0,0.002556
965.0,0.002799
966.0,0.002787
967.0,0.002754
968.0,0.003976
969.0,0.004126
970.0,0.003723
971.0,0.004403
972.0,0.00415
973.0,0.003461
974.0,0.003253
975.0,0.003398
976.0,0.003152
977.0,0.003725
978.0,0.003462
979.0,0.003656
980.0,0.003387
981.0,0.004213
982.0,0.003959
983.0,0.003754
984.0,0.004356
985.0,0.003897
986.0,0.004439
987.0,0.004295
988.0,0.00427
989.0,0.004398
990.0,0.004212
991.0,0.004363
992.0,0.004377
993.0,0.004226
994.0,0.004351
995.0,0.004337
996.0,0.004295
997.0,0.004289
998.0,0.004251
999.0,0.004222
1000.0,0.004167
1001.0,0.004215
1002.0,0.00404
1003.0,0.004106
1004.0,0.003978
1005.0,0.003834
1006.0,0.00396
1007.0,0.004032
1008.0,0.003988
1009.0,0.003943
1010.0,0.003907
1011.0,0.003953
1012.0,0.003895
1013.0,0.003916
1014.0,0.003874
1015.0,0.003833
1016.0,0.0038
1017.0,0.003793
1018.0,0.003769
1019.0,0.003659
1020.0,0.003718
1021.0,0.003701
1022.0,0.003653
1023.0,0.003677
1024.0,0.0036
1025.0,0.003653
1026.0,0.003619
1027.0,0.003598
1028.0,0.003576
1029.0,0.003519
1030.0,0.003536
1031.0,0.003506
1032.0,0.003484
1033.0,0.003418
1034.0,0.003405
1035.0,0.003403
1036.0,0.003406
1037.0,0.003338
1038.0,0.00334
1039.0,0.003325
1040.0,0.003299
1041.0,0.003298
1042.0,0.003263
1043.0,0.00324
1044.0,0.003238
1045.0,0.003181
1046.0,0.003133
1047.0,0.003149
1048.0,0.003154
1049.0,0.00313
1050.0,0.003103
1051.0,0.003086
1052.0,0.00306
1053.0,0.003024
1054.0,0.003018
1055.0,0.003006
1056.0,0.002982
1057.0,0.00296
1058.0,0.002875
1059.0,0.002866
1060.0,0.00285
1061.0,0.002835
1062.0,0.002837
1063.0,0.002797
1064.0,0.002821
1065.0,0.002786
1066.0,0.002724
1067.0,0.002748
1068.0,0.002674
1069.0,0.002585
1070.0,0.002659
1071.0,0.002702
1072.0,0.002653
1073.0,0.002608
1074.0,0.002679
1075.0,0.002503
1076.0,0.002655
1077.0,0.002579
1078.0,0.002514
1079.0,0.00259
1080.0,0.002509
1081.0,0.002408
1082.0,0.002465
1083.0,0.00247
1084.0,0.002367
1085.0,0.002475
1086.0,0.0022
1087.0,0.0023
1088.0,0.002417
1089.0,0.002304
1090.0,0.002225
1091.0,0.002375
1092.0,0.002366
1093.0,0.001915
1094.0,0.00214
1095.0,0.001992
1096.0,0.001878
1097.0,0.002273
1098.0,0.001826
1099.0,0.00191
1100.0,0.001736
1101.0,0.001763
1102.0,0.001659
1103.0,0.001623
1104.0,0.001622
1105.0,0.001819
1106.0,0.001285
1107.0,0.001694
1108.0,0.001368
1109.0,0.001371
1110.0,0.00165
1111.0,0.001028
1112.0,0.001349
1113.0,0.0007852
1114.0,0.0008817
1115.0,0.0007168
1116.0,0.0005473
1117.0,0.0001845
1118.0,0.0005972
1119.0,0.0002775
1120.0,0.0003489
1121.0,0.0004705
1122.0,0.0001866
1123.0,0.0003114
1124.0,0.0002607
1125.0,0.0003439
1126.0,0.0001116
1127.0,0.0003871
1128.0,0.0002207
1129.0,0.0002343
1130.0,0.0001513
1131.0,0.0007725
1132.0,0.00059
1133.0,0.0003532
1134.0,8.423e-05
1135.0,3.146e-05
1136.0,0.0002865
1137.0,0.0007367
1138.0,0.0005054
1139.0,0.0008052
1140.0,0.0006482
1141.0,0.0004747
1142.0,0.0005534
1143.0,0.0008162
1144.0,0.0002577
1145.0,0.0003264
1146.0,0.0003513
1147.0,0.0001159
1148.0,0.0006851
1149.0,0.000529
1150.0,0.0002743
1151.0,0.0004792
1152.0,0.0006051
1153.0,0.0005958
1154.0,0.000307
1155.0,0.0007974
1156.0,0.0007027
1157.0,0.0008096
1158.0,0.000797
1159.0,0.0008716
1160.0,0.0007272
1161.0,0.0009332
1162.0,0.00093
1163.0,0.001341
1164.0,0.001111
1165.0,0.001021
1166.0,0.001024
1167.0,0.001129
1168.0,0.001135
1169.0,0.001168
1170.0,0.00129
1171.0,0.001249
1172.0,0.001281
1173.0,0.001274
1174.0,0.0008465
1175.0,0.001247
1176.0,0.001401
1177.0,0.001318
1178.0,0.0009335
1179.0,0.001399
1180.0,0.001204
1181.0,0.001244
1182.0,0.0007984
1183.0,0.001225
1184.0,0.001122
1185.0,0.001065
1186.0,0.001314
1187.0,0.00123
1188.0,0.0007945
1189.0,0.001133
1190.0,0.001268
1191.0,0.001172
1192.0,0.001281
1193.0,0.001211
1194.0,0.001253
1195.0,0.001162
1196.0,0.001104
1197.0,0.001253
1198.0,0.001127
1199.0,0.0009149
1200.0,0.001171
1201.0,0.001111
1202.0,0.00111
1203.0,0.001096
1204.0,0.0009289
1205.0,0.001137
1206.0,0.001281
1207.0,0.001088
1208.0,0.00108
1209.0,0.0011
1210.0,0.001154
1211.0,0.001079
1212.0,0.001045
1213.0,0.001202
1214.0,0.001072
1215.0,0.001045
1216.0,0.001188
1217.0,0.001145
1218.0,0.00117
1219.0,0.001148
1220.0,0.001165
1221.0,0.001178
1222.0,0.001138
1223.0,0.001121
1224.0,0.001103
1225.0,0.001154
1226.0,0.001164
1227.0,0.001048
1228.0,0.001167
1229.0,0.001153
1230.0,0.001126
1231.0,0.001168
1232.0,0.001156
1233.0,0.001096
1234.0,0.001159
1235.0,0.001145
1236.0,0.001152
1237.0,0.001126
1238.0,0.001141
1239.0,0.001122
1240.0,0.001124
1241.0,0.001111
1242.0,0.001108
1243.0,0.001096
1244.0,0.001099
1245.0,0.001101
1246.0,0.001091
1247.0,0.001082
1248.0,0.001075
1249.0,0.001077
1250.0,0.001066
1251.0,0.001046
1252.0,0.001047
1253.0,0.001029
1254.0,0.001011
1255.0,0.001034
1256.0,0.0009908
1257.0,0.00098
1258.0,0.001004
1259.0,0.0009479
1260.0,0.000952
1261.0,0.0008766
1262.0,0.0008383
1263.0,0.0008369
1264.0,0.0007502
1265.0,0.000827
1266.0,0.0007813
1267.0,0.0008009
1268.0,0.0007442
1269.0,0.0004054
1270.0,0.0007879
1271.0,0.0008514
1272.0,0.0008534
1273.0,0.0008396
1274.0,0.0008424
1275.0,0.0008554
1276.0,0.0008647
1277.0,0.0008721
1278.0,0.0008938
1279.0,0.0008826
1280.0,0.000869
1281.0,0.0008303
1282.0,0.0008035
1283.0,0.0008615
1284.0,0.0008781
1285.0,0.0008822
1286.0,0.0008947
1287.0,0.0008719
1288.0,0.0008708
1289.0,0.0008288
1290.0,0.0008582
1291.0,0.0008696
1292.0,0.0007933
1293.0,0.0008421
1294.0,0.0008324
1295.0,0.0008198
1296.0,0.0007677
1297.0,0.0007145
1298.0,0.0007861
1299.0,0.0008293
1300.0,0.0006663
1301.0,0.0006906
1302.0,0.0007752
1303.0,0.0006535
1304.0,0.0005308
1305.0,0.0007493
1306.0,0.0007448
1307.0,0.0005437
1308.0,0.0006471
1309.0,0.0007285
1310.0,0.0005261
1311.0,0.0006084
1312.0,0.0005883
1313.0,0.0005688
1314.0,0.0004957
1315.0,0.0004858
1316.0,0.0005865
1317.0,0.0005478
1318.0,0.0006063
1319.0,0.0004432
1320.0,0.0004296
1321.0,0.0005129
1322.0,0.0005135
1323.0,0.0003632
1324.0,0.0004282
1325.0,0.0005591
1326.0,0.0004629
1327.0,0.0004358
1328.0,0.0003655
1329.0,0.0002594
1330.0,0.0003475
1331.0,0.0001948
1332.0,0.0002028
1333.0,0.0002879
1334.0,0.0002463
1335.0,0.0003478
1336.0,0.0002644
1337.0,0.0002305
1338.0,0.0002493
1339.0,0.0002485
1340.0,0.0002427
1341.0,0.0002304
1342.0,0.0002427
1343.0,0.0001544
1344.0,9.131e-05
1345.0,0.0001322
1346.0,6.264e-05
1347.0,6.326e-05
1348.0,4.01e-06
1349.0,1.441e-05
1350.0,1.495e-05
1351.0,3.602e-06
1352.0,9.686e-07
1353.0,4.929e-08
1354.0,1.694e-07
