interpolation:linear
wavelength,value
280.0,8.405e-22
280.5,2.7160000000000004e-20
281.0,1.447e-19
281.5,5.253e-19
282.0,9e-19
282.5,2.229e-18
283.0,7.018e-18
283.5,1.14e-17
284.0,1.848e-16
284.5,5.353e-16
285.0,1.012e-15
285.5,4.915e-15
286.0,1.967e-14
286.5,8.737e-14
287.0,2.486e-13
287.5,9.484e-13
288.0,3.002e-12
288.5,9.297e-12
289.0,2.511e-11
289.5,7.652e-11
290.0,2.134e-10
290.5,4.364e-10
291.0,9.388e-10
291.5,2.699e-09
292.0,5.859e-09
292.5,8.315e-09
293.0,1.807e-08
293.5,4.468e-08
294.0,7.056e-08
294.5,9.317e-08
295.0,1.588e-07
295.5,3.367e-07
296.0,6.141e-07
296.5,8.787e-07
297.0,1.214e-06
297.5,3.383e-06
298.0,5.54e-06
298.5,5.764e-06
299.0,1.319e-05
299.5,2.372e-05
300.0,2.747e-05
300.5,4.228e-05
301.0,8.605e-05
301.5,0.0001565
302.0,0.000145
302.5,0.0002868
303.0,0.0005242
303.5,0.0006702
304.0,0.0006424
304.5,0.001015
305.0,0.001673
305.5,0.002022
306.0,0.001995
306.5,0.002571
307.0,0.004135
307.5,0.005951
308.0,0.006354
308.5,0.007799
309.0,0.00799
309.5,0.009462
310.0,0.00965
310.5,0.01573
311.0,0.01998
311.5,0.01936
312.0,0.01997
312.5,0.02479
313.0,0.02715
313.5,0.02598
314.0,0.03333
314.5,0.03066
315.0,0.04046
315.5,0.03309
316.0,0.02978
316.5,0.04391
317.0,0.05432
317.5,0.05588
318.0,0.04436
318.5,0.05718
319.0,0.06909
319.5,0.05429
320.0,0.06508
320.5,0.08471
321.0,0.07825
321.5,0.0751
322.0,0.07647
322.5,0.06646
323.0,0.06785
323.5,0.08527
324.0,0.09963
324.5,0.09987
325.0,0.08476
325.5,0.1112
326.0,0.1362
326.5,0.1379
327.0,0.1363
327.5,0.1304
328.0,0.1138
328.5,0.1218
329.0,0.1481
329.5,0.1687
330.0,0.1688
330.5,0.1327
331.0,0.1341
331.5,0.1374
332.0,0.1504
332.5,0.1496
333.0,0.148
333.5,0.1318
334.0,0.1344
334.5,0.1568
335.0,0.1482
335.5,0.1745
336.0,0.1204
336.5,0.1384
337.0,0.1125
337.5,0.1391
338.0,0.1371
338.5,0.1594
339.0,0.1569
339.5,0.1508
340.0,0.1751
340.5,0.1575
341.0,0.1542
341.5,0.1406
342.0,0.1674
342.5,0.156
343.0,0.1714
343.5,0.1611
344.0,0.1182
344.5,0.12
345.0,0.1575
345.5,0.1601
346.0,0.1355
346.5,0.1529
347.0,0.1638
347.5,0.1321
348.0,0.1499
348.5,0.1493
349.0,0.138
349.5,0.1362
350.0,0.1679
350.5,0.1766
351.0,0.1573
351.5,0.1528
352.0,0.1633
352.5,0.1269
353.0,0.1593
353.5,0.1698
354.0,0.1757
354.5,0.1776
355.0,0.1764
355.5,0.1589
356.0,0.1657
356.5,0.141
357.0,0.1161
357.5,0.1417
358.0,0.1119
358.5,0.09534
359.0,0.1329
359.5,0.1689
360.0,0.1784
360.5,0.1421
361.0,0.1291
361.5,0.1482
362.0,0.1278
362.5,0.1763
363.0,0.1578
363.5,0.1449
364.0,0.1766
364.5,0.1505
365.0,0.1527
365.5,0.1911
366.0,0.2018
366.5,0.189
367.0,0.1835
367.5,0.1898
368.0,0.1655
368.5,0.1665
369.0,0.1792
369.5,0.1904
370.0,0.2023
370.5,0.1565
371.0,0.1666
371.5,0.2078
372.0,0.1375
372.5,0.1643
373.0,0.1666
373.5,0.108
374.0,0.1564
374.5,0.1291
375.0,0.1251
375.5,0.1861
376.0,0.1538
376.5,0.1588
377.0,0.1676
377.5,0.1955
378.0,0.2112
378.5,0.1989
379.0,0.1635
379.5,0.1488
380.0,0.1542
380.5,0.1861
381.0,0.1859
381.5,0.1468
382.0,0.1299
382.5,0.1104
383.0,0.1018
383.5,0.09774
384.0,0.1075
384.5,0.1575
385.0,0.1557
385.5,0.1445
386.0,0.1233
386.5,0.1614
387.0,0.1337
387.5,0.1496
388.0,0.1376
388.5,0.1356
389.0,0.1458
389.5,0.176
390.0,0.176
390.5,0.1614
391.0,0.1894
391.5,0.1925
392.0,0.1615
392.5,0.1441
393.0,0.07991
393.5,0.05789
394.0,0.1174
394.5,0.1487
395.0,0.1809
395.5,0.1831
396.0,0.1582
396.5,0.09215
397.0,0.06891
397.5,0.1397
398.0,0.1949
398.5,0.2007
399.0,0.2166
399.5,0.2152
400.0,0.2227
401.0,0.2188
402.0,0.2291
403.0,0.2161
404.0,0.2113
405.0,0.2098
406.0,0.2049
407.0,0.2001
408.0,0.2064
409.0,0.2194
410.0,0.1904
411.0,0.2048
412.0,0.2184
413.0,0.2115
414.0,0.2126
415.0,0.2116
416.0,0.2137
417.0,0.2069
418.0,0.2016
419.0,0.2028
420.0,0.2004
421.0,0.2081
422.0,0.1963
423.0,0.1903
424.0,0.1997
425.0,0.1978
426.0,0.1913
427.0,0.1865
428.0,0.1804
429.0,0.1697
430.0,0.1474
431.0,0.145
432.0,0.1858
433.0,0.1854
434.0,0.1709
435.0,0.1772
436.0,0.1983
437.0,0.1943
438.0,0.1757
439.0,0.1803
440.0,0.1846
441.0,0.1898
442.0,0.202
443.0,0.1953
444.0,0.1982
445.0,0.1925
446.0,0.1825
447.0,0.1959
448.0,0.1974
449.0,0.1967
450.0,0.2006
451.0,0.2065
452.0,0.1975
453.0,0.1845
454.0,0.1912
455.0,0.1909
456.0,0.1939
457.0,0.1955
458.0,0.1873
459.0,0.1848
460.0,0.1837
461.0,0.1865
462.0,0.1866
463.0,0.1842
464.0,0.1801
465.0,0.1767
466.0,0.1772
467.0,0.1726
468.0,0.1732
469.0,0.1727
470.0,0.1659
471.0,0.1646
472.0,0.1722
473.0,0.1688
474.0,0.1677
475.0,0.1678
476.0,0.1614
477.0,0.1604
478.0,0.1634
479.0,0.1609
480.0,0.1598
481.0,0.1613
482.0,0.1609
483.0,0.1579
484.0,0.1536
485.0,0.1455
486.0,0.1264
487.0,0.1315
488.0,0.1432
489.0,0.1425
490.0,0.1488
491.0,0.1451
492.0,0.136
493.0,0.1394
494.0,0.1398
495.0,0.1399
496.0,0.1397
497.0,0.1407
498.0,0.133
499.0,0.1334
500.0,0.1283
501.0,0.1248
502.0,0.1218
503.0,0.1255
504.0,0.1212
505.0,0.1246
506.0,0.1277
507.0,0.1207
508.0,0.1162
509.0,0.1188
510.0,0.1175
511.0,0.1198
512.0,0.1202
513.0,0.1129
514.0,0.1113
515.0,0.1094
516.0,0.1083
517.0,0.0955
518.0,0.09967
519.0,0.1038
520.0,0.1067
521.0,0.1068
522.0,0.1061
523.0,0.1034
524.0,0.1062
525.0,0.1065
526.0,0.1009
527.0,0.09419
528.0,0.09871
529.0,0.1032
530.0,0.1009
531.0,0.1016
532.0,0.09738
533.0,0.09386
534.0,0.09599
535.0,0.09746
536.0,0.09772
537.0,0.09325
538.0,0.09424
539.0,0.09283
540.0,0.08839
541.0,0.08828
542.0,0.09031
543.0,0.08869
544.0,0.08961
545.0,0.08876
546.0,0.08849
547.0,0.08782
548.0,0.08616
549.0,0.08585
550.0,0.08627
551.0,0.08462
552.0,0.0846
553.0,0.0825
554.0,0.08387
555.0,0.08343
556.0,0.08172
557.0,0.07855
558.0,0.07731
559.0,0.07523
560.0,0.07554
561.0,0.07588
562.0,0.0747
563.0,0.07611
564.0,0.07348
565.0,0.0723
566.0,0.0707
567.0,0.07148
568.0,0.07028
569.0,0.06804
570.0,0.06755
571.0,0.06669
572.0,0.06773
573.0,0.068
574.0,0.06737
575.0,0.06571
576.0,0.06472
577.0,0.06506
578.0,0.06376
579.0,0.06372
580.0,0.06465
581.0,0.06467
582.0,0.06557
583.0,0.06543
584.0,0.06569
585.0,0.06374
586.0,0.06203
587.0,0.06295
588.0,0.06095
589.0,0.05345
590.0,0.05558
591.0,0.05858
592.0,0.05736
593.0,0.05788
594.0,0.05701
595.0,0.05512
596.0,0.05707
597.0,0.05601
598.0,0.05549
599.0,0.05516
600.0,0.05491
601.0,0.05415
602.0,0.05346
603.0,0.05404
604.0,0.05463
605.0,0.05408
606.0,0.05362
607.0,0.05393
608.0,0.0531
609.0,0.05295
610.0,0.05237
611.0,0.05243
612.0,0.05206
613.0,0.05118
614.0,0.05026
615.0,0.05115
616.0,0.04925
617.0,0.04894
618.0,0.0506
619.0,0.04987
620.0,0.04994
621.0,0.04974
622.0,0.04889
623.0,0.04789
624.0,0.04683
625.0,0.04652
626.0,0.047
627.0,0.04726
628.0,0.04347
629.0,0.04553
630.0,0.04424
631.0,0.04517
632.0,0.04445
633.0,0.04568
634.0,0.04509
635.0,0.0456
636.0,0.04481
637.0,0.04536
638.0,0.04563
639.0,0.04493
640.0,0.04431
641.0,0.04409
642.0,0.04372
643.0,0.04414
644.0,0.04382
645.0,0.04367
646.0,0.04239
647.0,0.04158
648.0,0.04139
649.0,0.0404
650.0,0.04055
651.0,0.04213
652.0,0.04
653.0,0.04119
654.0,0.04056
655.0,0.03876
656.0,0.03425
657.0,0.03503
658.0,0.03914
659.0,0.03927
660.0,0.03925
661.0,0.03934
662.0,0.03922
663.0,0.03829
664.0,0.03861
665.0,0.0385
666.0,0.03836
667.0,0.03818
668.0,0.03804
669.0,0.03846
670.0,0.03812
671.0,0.03795
672.0,0.03749
673.0,0.03793
674.0,0.03761
675.0,0.0371
676.0,0.03719
677.0,0.03667
678.0,0.03663
679.0,0.03588
680.0,0.03601
681.0,0.03561
682.0,0.03539
683.0,0.03516
684.0,0.0348
685.0,0.03493
686.0,0.03456
687.0,0.0214
688.0,0.02557
689.0,0.02556
690.0,0.02691
691.0,0.02847
692.0,0.02962
693.0,0.02921
694.0,0.0288
695.0,0.03005
696.0,0.02994
697.0,0.03197
698.0,0.03132
699.0,0.03024
700.0,0.02973
701.0,0.02925
702.0,0.02939
703.0,0.02931
704.0,0.03021
705.0,0.0301
706.0,0.02998
707.0,0.02988
708.0,0.0298
709.0,0.02976
710.0,0.02958
711.0,0.02946
712.0,0.02929
713.0,0.02883
714.0,0.02878
715.0,0.02766
716.0,0.02754
717.0,0.02317
718.0,0.02101
719.0,0.019
720.0,0.01986
721.0,0.02218
722.0,0.02579
723.0,0.02361
724.0,0.02087
725.0,0.0204
726.0,0.02136
727.0,0.02162
728.0,0.02007
729.0,0.02091
730.0,0.0221
731.0,0.02094
732.0,0.02253
733.0,0.02397
734.0,0.02448
735.0,0.02383
736.0,0.02369
737.0,0.02367
738.0,0.02406
739.0,0.02346
740.0,0.024
741.0,0.02367
742.0,0.0236
743.0,0.02408
744.0,0.0239
745.0,0.02379
746.0,0.02379
747.0,0.02373
748.0,0.02356
749.0,0.02318
750.0,0.02306
751.0,0.02273
752.0,0.02273
753.0,0.02274
754.0,0.02268
755.0,0.02246
756.0,0.02235
757.0,0.02228
758.0,0.0219
759.0,0.02128
760.0,0.002918
761.0,0.001506
762.0,0.009623
763.0,0.00448
764.0,0.006921
765.0,0.009477
766.0,0.01199
767.0,0.01558
768.0,0.01839
769.0,0.01881
770.0,0.0195
771.0,0.01963
772.0,0.0196
773.0,0.01963
774.0,0.01943
775.0,0.0192
776.0,0.01934
777.0,0.01899
778.0,0.01877
779.0,0.01869
780.0,0.0185
781.0,0.01844
782.0,0.01847
783.0,0.01808
784.0,0.01809
785.0,0.01787
786.0,0.01799
787.0,0.01754
788.0,0.01722
789.0,0.01712
790.0,0.01651
791.0,0.01666
792.0,0.01646
793.0,0.01611
794.0,0.0164
795.0,0.01658
796.0,0.01589
797.0,0.01584
798.0,0.01634
799.0,0.01614
800.0,0.01575
801.0,0.01561
802.0,0.01549
803.0,0.01529
804.0,0.01525
805.0,0.01516
806.0,0.01556
807.0,0.01529
808.0,0.01524
809.0,0.01484
810.0,0.01462
811.0,0.01453
812.0,0.01397
813.0,0.01356
814.0,0.01162
815.0,0.0115
816.0,0.01055
817.0,0.01072
818.0,0.01024
819.0,0.01162
820.0,0.0108
821.0,0.01292
822.0,0.01244
823.0,0.007914
824.0,0.01189
825.0,0.01245
826.0,0.01183
827.0,0.01255
828.0,0.0103
829.0,0.01163
830.0,0.0114
831.0,0.0114
832.0,0.01094
833.0,0.01178
834.0,0.01123
835.0,0.01247
836.0,0.01177
837.0,0.01241
838.0,0.01192
839.0,0.01212
840.0,0.01234
841.0,0.01209
842.0,0.0121
843.0,0.01207
844.0,0.01183
845.0,0.0122
846.0,0.0121
847.0,0.01183
848.0,0.01168
849.0,0.0113
850.0,0.01078
851.0,0.01134
852.0,0.01121
853.0,0.01075
854.0,0.009229
855.0,0.01011
856.0,0.011
857.0,0.01121
858.0,0.01109
859.0,0.01105
860.0,0.01103
861.0,0.01092
862.0,0.01106
863.0,0.01128
864.0,0.01067
865.0,0.01054
866.0,0.009435
867.0,0.009806
868.0,0.01063
869.0,0.01036
870.0,0.01062
871.0,0.01043
872.0,0.01035
873.0,0.01029
874.0,0.01012
875.0,0.009868
876.0,0.009926
877.0,0.009985
878.0,0.01005
879.0,0.009853
880.0,0.009601
881.0,0.009411
882.0,0.009574
883.0,0.009572
884.0,0.009482
885.0,0.00951
886.0,0.009001
887.0,0.00908
888.0,0.009162
889.0,0.009249
890.0,0.009103
891.0,0.009066
892.0,0.008738
893.0,0.008383
894.0,0.007974
895.0,0.007404
896.0,0.006861
897.0,0.00572
898.0,0.006306
899.0,0.004572
900.0,0.006476
901.0,0.004815
902.0,0.005802
903.0,0.005793
904.0,0.007591
905.0,0.00725
906.0,0.006706
907.0,0.005207
908.0,0.005327
909.0,0.005851
910.0,0.005006
911.0,0.005398
912.0,0.005662
913.0,0.005018
914.0,0.004965
915.0,0.005421
916.0,0.004462
917.0,0.005883
918.0,0.004556
919.0,0.005965
920.0,0.006054
921.0,0.006333
922.0,0.005515
923.0,0.006072
924.0,0.005615
925.0,0.005454
926.0,0.005506
927.0,0.006252
928.0,0.004277
929.0,0.003826
930.0,0.002876
931.0,0.002702
932.0,0.001847
933.0,0.001457
934.0,0.0007438
935.0,0.001493
936.0,0.0008835
937.0,0.0008907
938.0,0.001111
939.0,0.002528
940.0,0.00312
941.0,0.00225
942.0,0.002647
943.0,0.001639
944.0,0.001751
945.0,0.002288
946.0,0.001068
947.0,0.002271
948.0,0.001611
949.0,0.003148
950.0,0.0007451
951.0,0.003081
952.0,0.001509
953.0,0.002014
954.0,0.002554
955.0,0.002037
956.0,0.001979
957.0,0.001482
958.0,0.002931
959.0,0.002221
960.0,0.002513
961.0,0.002877
962.0,0.002693
963.0,0.003177
964.0,0.00286
965.0,0.003142
966.0,0.003127
967.0,0.003093
968.0,0.00442
969.0,0.004614
970.0,0.004156
971.0,0.004893
972.0,0.004617
973.0,0.003874
974.0,0.003636
975.0,0.003792
976.0,0.003535
977.0,0.004143
978.0,0.003866
979.0,0.004081
980.0,0.003776
981.0,0.004682
982.0,0.00441
983.0,0.004185
984.0,0.004825
985.0,0.004345
986.0,0.004905
987.0,0.004757
988.0,0.004729
989.0,0.004852
990.0,0.004666
991.0,0.004819
992.0,0.004833
993.0,0.004676
994.0,0.004801
995.0,0.004782
996.0,0.004737
997.0,0.004729
998.0,0.004688
999.0,0.004656
1000.0,0.004598
1001.0,0.004647
1002.0,0.004468
1003.0,0.004528
1004.0,0.004391
1005.0,0.004226
1006.0,0.004367
1007.0,0.004445
1008.0,0.004399
1009.0,0.004353
1010.0,0.004314
1011.0,0.004358
1012.0,0.004296
1013.0,0.004317
1014.0,0.004271
1015.0,0.004226
1016.0,0.004189
1017.0,0.004182
1018.0,0.004154
1019.0,0.004038
1020.0,0.004098
1021.0,0.004079
1022.0,0.004027
1023.0,0.004054
1024.0,0.003975
1025.0,0.004026
1026.0,0.00399
1027.0,0.003966
1028.0,0.003942
1029.0,0.003881
1030.0,0.003897
1031.0,0.003865
1032.0,0.00384
1033.0,0.003767
1034.0,0.003753
1035.0,0.003751
1036.0,0.003754
1037.0,0.00368
1038.0,0.003682
1039.0,0.003666
1040.0,0.003638
1041.0,0.003637
1042.0,0.003598
1043.0,0.003573
1044.0,0.003572
1045.0,0.00351
1046.0,0.003457
1047.0,0.003474
1048.0,0.00348
1049.0,0.003455
1050.0,0.003425
1051.0,0.003407
1052.0,0.003379
1053.0,0.003339
1054.0,0.003334
1055.0,0.003322
1056.0,0.003296
1057.0,0.003272
1058.0,0.003179
1059.0,0.00317
1060.0,0.003152
1061.0,0.003136
1062.0,0.003139
1063.0,0.003096
1064.0,0.003122
1065.0,0.003085
1066.0,0.003015
1067.0,0.003042
1068.0,0.002962
1069.0,0.002861
1070.0,0.002945
1071.0,0.002989
1072.0,0.002936
1073.0,0.002886
1074.0,0.00296
1075.0,0.002775
1076.0,0.002935
1077.0,0.002856
1078.0,0.002786
1079.0,0.00286
1080.0,0.002777
1081.0,0.002671
1082.0,0.002726
1083.0,0.002729
1084.0,0.002626
1085.0,0.00274
1086.0,0.002442
1087.0,0.00255
1088.0,0.002672
1089.0,0.002556
1090.0,0.00247
1091.0,0.002627
1092.0,0.002616
1093.0,0.002133
1094.0,0.002368
1095.0,0.002223
1096.0,0.002098
1097.0,0.002513
1098.0,0.002045
1099.0,0.002136
1100.0,0.001943
1101.0,0.001972
1102.0,0.00186
1103.0,0.001822
1104.0,0.00182
1105.0,0.002036
1106.0,0.001451
1107.0,0.001898
1108.0,0.001539
1109.0,0.001542
1110.0,0.001854
1111.0,0.001158
1112.0,0.001517
1113.0,0.0008814
1114.0,0.0009947
1115.0,0.0008042
1116.0,0.0006122
1117.0,0.0001993
1118.0,0.0006708
1119.0,0.0003046
1120.0,0.0003868
1121.0,0.0005279
1122.0,0.0002025
1123.0,0.0003437
1124.0,0.000286
1125.0,0.0003813
1126.0,0.0001192
1127.0,0.000431
1128.0,0.000241
1129.0,0.0002566
1130.0,0.0001628
1131.0,0.0008807
1132.0,0.0006665
1133.0,0.0003931
1134.0,8.929e-05
1135.0,3.278e-05
1136.0,0.0003165
1137.0,0.0008411
1138.0,0.0005687
1139.0,0.0009113
1140.0,0.0007325
1141.0,0.0005328
1142.0,0.0006239
1143.0,0.0009291
1144.0,0.0002832
1145.0,0.000363
1146.0,0.0003919
1147.0,0.0001241
1148.0,0.0007766
1149.0,0.0005958
1150.0,0.0003012
1151.0,0.000539
1152.0,0.0006847
1153.0,0.0006705
1154.0,0.00034
1155.0,0.0009046
1156.0,0.0007962
1157.0,0.0009136
1158.0,0.0008993
1159.0,0.0009861
1160.0,0.0008167
1161.0,0.001049
1162.0,0.001046
1163.0,0.001502
1164.0,0.001245
1165.0,0.001149
1166.0,0.001146
1167.0,0.001263
1168.0,0.001272
1169.0,0.00131
1170.0,0.001442
1171.0,0.001394
1172.0,0.001425
1173.0,0.001423
1174.0,0.0009473
1175.0,0.001388
1176.0,0.001551
1177.0,0.001466
1178.0,0.001039
1179.0,0.001549
1180.0,0.00134
1181.0,0.001387
1182.0,0.0008909
1183.0,0.001364
1184.0,0.00125
1185.0,0.00119
1186.0,0.00146
1187.0,0.00137
1188.0,0.0008913
1189.0,0.001261
1190.0,0.001406
1191.0,0.001309
1192.0,0.00142
1193.0,0.001344
1194.0,0.001391
1195.0,0.001296
1196.0,0.001233
1197.0,0.00139
1198.0,0.001249
1199.0,0.001023
1200.0,0.001301
1201.0,0.001239
1202.0,0.001232
1203.0,0.001222
1204.0,0.001035
1205.0,0.00126
1206.0,0.001417
1207.0,0.001211
1208.0,0.001199
1209.0,0.001221
1210.0,0.001278
1211.0,0.001199
1212.0,0.00117
1213.0,0.001334
1214.0,0.001197
1215.0,0.001167
1216.0,0.001317
1217.0,0.001271
1218.0,0.001298
1219.0,0.001274
1220.0,0.001291
1221.0,0.001304
1222.0,0.00126
1223.0,0.001242
1224.0,0.001226
1225.0,0.001279
1226.0,0.001287
1227.0,0.001166
1228.0,0.001289
1229.0,0.001275
1230.0,0.001246
1231.0,0.001288
1232.0,0.001276
1233.0,0.001215
1234.0,0.001277
1235.0,0.001263
1236.0,0.00127
1237.0,0.001243
1238.0,0.001257
1239.0,0.001237
1240.0,0.001238
1241.0,0.001225
1242.0,0.001221
1243.0,0.001207
1244.0,0.001211
1245.0,0.001213
1246.0,0.001202
1247.0,0.001193
1248.0,0.001186
1249.0,0.001188
1250.0,0.001176
1251.0,0.001155
1252.0,0.001154
1253.0,0.001137
1254.0,0.001118
1255.0,0.001141
1256.0,0.001097
1257.0,0.001086
1258.0,0.001109
1259.0,0.001054
1260.0,0.001058
1261.0,0.0009809
1262.0,0.0009414
1263.0,0.0009401
1264.0,0.0008492
1265.0,0.000929
1266.0,0.0008817
1267.0,0.0009011
1268.0,0.0008414
1269.0,0.0004668
1270.0,0.0008878
1271.0,0.0009523
1272.0,0.0009541
1273.0,0.0009394
1274.0,0.0009415
1275.0,0.0009548
1276.0,0.0009637
1277.0,0.0009698
1278.0,0.0009913
1279.0,0.0009788
1280.0,0.0009636
1281.0,0.0009193
1282.0,0.0008874
1283.0,0.0009518
1284.0,0.0009705
1285.0,0.0009746
1286.0,0.0009872
1287.0,0.0009642
1288.0,0.0009621
1289.0,0.0009202
1290.0,0.0009482
1291.0,0.0009598
1292.0,0.0008826
1293.0,0.0009309
1294.0,0.0009204
1295.0,0.0009097
1296.0,0.0008554
1297.0,0.0007979
1298.0,0.0008726
1299.0,0.0009161
1300.0,0.0007433
1301.0,0.0007699
1302.0,0.0008602
1303.0,0.0007284
1304.0,0.0005965
1305.0,0.0008313
1306.0,0.0008281
1307.0,0.0006085
1308.0,0.0007196
1309.0,0.0008123
1310.0,0.0005896
1311.0,0.0006779
1312.0,0.0006561
1313.0,0.0006368
1314.0,0.0005555
1315.0,0.0005462
1316.0,0.0006551
1317.0,0.0006122
1318.0,0.0006757
1319.0,0.0004982
1320.0,0.0004812
1321.0,0.0005744
1322.0,0.0005772
1323.0,0.0004097
1324.0,0.0004805
1325.0,0.0006259
1326.0,0.0005195
1327.0,0.0004894
1328.0,0.0004106
1329.0,0.0002921
1330.0,0.000393
1331.0,0.0002184
1332.0,0.0002274
1333.0,0.0003272
1334.0,0.0002747
1335.0,0.0003935
1336.0,0.0002983
1337.0,0.0002584
1338.0,0.0002809
1339.0,0.0002799
1340.0,0.000272
1341.0,0.0002603
1342.0,0.0002743
1343.0,0.0001728
1344.0,9.992e-05
1345.0,0.0001472
1346.0,6.772e-05
1347.0,6.834e-05
1348.0,4.098e-06
1349.0,1.492e-05
1350.0,1.552e-05
1351.0,3.67e-06
1352.0,9.808e-07
1353.0,4.981e-08
1354.0,1.713e-07
1355.0,1.378e-09
1356.0,2.412e-08
1357.0,3.665e-08
1358.0,1.618e-09
1359.0,2.038e-10
