interpolation:linear
wavelength,value
280.0,1.7829999999999998e-22
280.5,5.898e-21
281.0,3.1700000000000005e-20
281.5,3.877e-19
282.0,5.915e-19
282.5,1.462e-18
283.0,4.621e-18
283.5,7.529e-18
284.0,1.244e-16
284.5,3.638e-16
285.0,5.997e-16
285.5,2.985e-15
286.0,1.204e-14
286.5,5.43e-14
287.0,1.561e-13
287.5,6.031e-13
288.0,2.136e-12
288.5,6.346e-12
289.0,1.672e-11
289.5,5.015e-11
290.0,1.388e-10
290.5,2.826e-10
291.0,6.061e-10
291.5,1.74e-09
292.0,3.489e-09
292.5,4.893e-09
293.0,1.049e-08
293.5,2.552e-08
294.0,3.991e-08
294.5,5.432e-08
295.0,9.202e-08
295.5,1.522e-07
296.0,2.94e-07
296.5,4.115e-07
297.0,5.571e-07
297.5,1.496e-06
298.0,2.36e-06
298.5,2.375e-06
299.0,5.236e-06
299.5,8.693e-06
300.0,9.549e-06
300.5,1.381e-05
301.0,2.487e-05
301.5,3.938e-05
302.0,3.351e-05
302.5,6.662e-05
303.0,0.0001226
303.5,0.000158
304.0,0.0001533
304.5,0.0002498
305.0,0.0004306
305.5,0.0005359
306.0,0.0005355
306.5,0.0007042
307.0,0.001184
307.5,0.00178
308.0,0.001916
308.5,0.002407
309.0,0.002624
309.5,0.003387
310.0,0.003593
310.5,0.005974
311.0,0.007834
311.5,0.0077
312.0,0.008481
312.5,0.011
313.0,0.01232
313.5,0.01157
314.0,0.01561
314.5,0.01534
315.0,0.0205
315.5,0.01627
316.0,0.01544
316.5,0.02382
317.0,0.02947
317.5,0.02997
318.0,0.02455
318.5,0.03353
319.0,0.04173
319.5,0.03135
320.0,0.03735
320.5,0.05157
321.0,0.05021
321.5,0.04848
322.0,0.04676
322.5,0.0408
323.0,0.04322
323.5,0.05639
324.0,0.06636
324.5,0.06555
325.0,0.05455
325.5,0.07378
326.0,0.09149
326.5,0.09457
327.0,0.09289
327.5,0.08813
328.0,0.07497
328.5,0.08291
329.0,0.1035
329.5,0.1189
330.0,0.1184
330.5,0.09136
331.0,0.09183
331.5,0.09551
332.0,0.1069
332.5,0.1074
333.0,0.1058
333.5,0.0929
334.0,0.09454
334.5,0.1124
335.0,0.1074
335.5,0.1264
336.0,0.08728
336.5,0.1001
337.0,0.0808
337.5,0.09978
338.0,0.09987
338.5,0.1164
339.0,0.115
339.5,0.1104
340.0,0.1281
340.5,0.1155
341.0,0.1133
341.5,0.1039
342.0,0.124
342.5,0.1158
343.0,0.127
343.5,0.1193
344.0,0.08736
344.5,0.0887
345.0,0.1171
345.5,0.1194
346.0,0.1013
346.5,0.1145
347.0,0.1225
347.5,0.09884
348.0,0.1125
348.5,0.1123
349.0,0.104
349.5,0.1027
350.0,0.1268
350.5,0.1334
351.0,0.1189
351.5,0.1152
352.0,0.1235
352.5,0.09619
353.0,0.121
353.5,0.1291
354.0,0.1338
354.5,0.1353
355.0,0.1345
355.5,0.1213
356.0,0.1266
356.5,0.1079
357.0,0.08893
357.5,0.1086
358.0,0.0859
358.5,0.07324
359.0,0.1022
359.5,0.1298
360.0,0.1373
360.5,0.1095
361.0,0.09965
361.5,0.1145
362.0,0.0988
362.5,0.1364
363.0,0.1222
363.5,0.1123
364.0,0.1371
364.5,0.1169
365.0,0.1187
365.5,0.1487
366.0,0.1572
366.5,0.1473
367.0,0.1431
367.5,0.1482
368.0,0.1294
368.5,0.1302
369.0,0.1403
369.5,0.1492
370.0,0.1586
370.5,0.1228
371.0,0.1309
371.5,0.1634
372.0,0.1082
372.5,0.1294
373.0,0.1313
373.5,0.08521
374.0,0.1235
374.5,0.102
375.0,0.09894
375.5,0.1473
376.0,0.1218
376.5,0.1259
377.0,0.133
377.5,0.1552
378.0,0.1678
378.5,0.1582
379.0,0.1302
379.5,0.1186
380.0,0.123
380.5,0.1486
381.0,0.1485
381.5,0.1174
382.0,0.104
382.5,0.0884
383.0,0.08162
383.5,0.07841
384.0,0.08627
384.5,0.1266
385.0,0.1252
385.5,0.1163
386.0,0.09932
386.5,0.1301
387.0,0.1078
387.5,0.1208
388.0,0.1112
388.5,0.1096
389.0,0.118
389.5,0.1426
390.0,0.1427
390.5,0.131
391.0,0.1537
391.5,0.1564
392.0,0.1313
392.5,0.1173
393.0,0.06507
393.5,0.04717
394.0,0.09573
394.5,0.1214
395.0,0.1477
395.5,0.1496
396.0,0.1294
396.5,0.07542
397.0,0.05644
397.5,0.1145
398.0,0.1598
398.5,0.1648
399.0,0.1779
399.5,0.1769
400.0,0.1831
401.0,0.1801
402.0,0.1889
403.0,0.1784
404.0,0.1746
405.0,0.1736
406.0,0.1698
407.0,0.166
408.0,0.1715
409.0,0.1824
410.0,0.1585
411.0,0.1707
412.0,0.1823
413.0,0.1768
414.0,0.1779
415.0,0.1773
416.0,0.1793
417.0,0.1738
418.0,0.1695
419.0,0.1707
420.0,0.1689
421.0,0.1756
422.0,0.1658
423.0,0.1609
424.0,0.169
425.0,0.1676
426.0,0.1623
427.0,0.1583
428.0,0.1533
429.0,0.1444
430.0,0.1256
431.0,0.1237
432.0,0.1586
433.0,0.1584
434.0,0.1462
435.0,0.1517
436.0,0.17
437.0,0.1666
438.0,0.1508
439.0,0.1548
440.0,0.1586
441.0,0.1632
442.0,0.1738
443.0,0.1681
444.0,0.1708
445.0,0.1661
446.0,0.1577
447.0,0.1695
448.0,0.1709
449.0,0.1703
450.0,0.1738
451.0,0.1791
452.0,0.1714
453.0,0.1603
454.0,0.1663
455.0,0.1661
456.0,0.1688
457.0,0.1703
458.0,0.1631
459.0,0.1609
460.0,0.16
461.0,0.1625
462.0,0.1627
463.0,0.1608
464.0,0.1574
465.0,0.1546
466.0,0.1552
467.0,0.1513
468.0,0.1519
469.0,0.1514
470.0,0.1456
471.0,0.1445
472.0,0.1513
473.0,0.1484
474.0,0.1475
475.0,0.1476
476.0,0.1419
477.0,0.1411
478.0,0.1437
479.0,0.1414
480.0,0.1404
481.0,0.1417
482.0,0.1414
483.0,0.1389
484.0,0.1353
485.0,0.1283
486.0,0.1116
487.0,0.1163
488.0,0.1267
489.0,0.1262
490.0,0.1318
491.0,0.1285
492.0,0.1205
493.0,0.1236
494.0,0.124
495.0,0.1242
496.0,0.124
497.0,0.1248
498.0,0.1178
499.0,0.1182
500.0,0.1135
501.0,0.1103
502.0,0.1075
503.0,0.1107
504.0,0.1068
505.0,0.1098
506.0,0.1126
507.0,0.1065
508.0,0.1026
509.0,0.105
510.0,0.1038
511.0,0.106
512.0,0.1064
513.0,0.09992
514.0,0.09846
515.0,0.09672
516.0,0.09574
517.0,0.08444
518.0,0.08812
519.0,0.09172
520.0,0.09429
521.0,0.09439
522.0,0.09366
523.0,0.09125
524.0,0.09364
525.0,0.09383
526.0,0.0888
527.0,0.08282
528.0,0.08672
529.0,0.09059
530.0,0.08852
531.0,0.08907
532.0,0.08532
533.0,0.08223
534.0,0.0841
535.0,0.08541
536.0,0.08567
537.0,0.08178
538.0,0.08266
539.0,0.08141
540.0,0.07749
541.0,0.07736
542.0,0.07909
543.0,0.07765
544.0,0.0784
545.0,0.07763
546.0,0.07737
547.0,0.07678
548.0,0.07533
549.0,0.07505
550.0,0.07541
551.0,0.07396
552.0,0.07394
553.0,0.07209
554.0,0.07326
555.0,0.07285
556.0,0.07133
557.0,0.06853
558.0,0.06739
559.0,0.06552
560.0,0.06573
561.0,0.06598
562.0,0.06489
563.0,0.06607
564.0,0.06374
565.0,0.06268
566.0,0.06127
567.0,0.06191
568.0,0.06083
569.0,0.05882
570.0,0.05839
571.0,0.05762
572.0,0.05849
573.0,0.05871
574.0,0.05815
575.0,0.05672
576.0,0.05589
577.0,0.05621
578.0,0.05513
579.0,0.05514
580.0,0.056
581.0,0.05608
582.0,0.0569
583.0,0.05682
584.0,0.05707
585.0,0.0554
586.0,0.05394
587.0,0.05474
588.0,0.05296
589.0,0.04637
590.0,0.04822
591.0,0.05085
592.0,0.04975
593.0,0.05021
594.0,0.0494
595.0,0.04771
596.0,0.04942
597.0,0.04845
598.0,0.04798
599.0,0.04767
600.0,0.04745
601.0,0.0468
602.0,0.0462
603.0,0.04672
604.0,0.04725
605.0,0.0468
606.0,0.04644
607.0,0.04675
608.0,0.04608
609.0,0.04601
610.0,0.04555
611.0,0.04565
612.0,0.04538
613.0,0.04465
614.0,0.0439
615.0,0.04471
616.0,0.0431
617.0,0.04286
618.0,0.04435
619.0,0.04373
620.0,0.04382
621.0,0.04366
622.0,0.04294
623.0,0.04208
624.0,0.04117
625.0,0.04092
626.0,0.04135
627.0,0.04159
628.0,0.03812
629.0,0.04006
630.0,0.03895
631.0,0.03984
632.0,0.03924
633.0,0.04037
634.0,0.03989
635.0,0.04038
636.0,0.03972
637.0,0.04024
638.0,0.04052
639.0,0.03994
640.0,0.03942
641.0,0.03926
642.0,0.03897
643.0,0.03936
644.0,0.03911
645.0,0.03899
646.0,0.03785
647.0,0.0371
648.0,0.03696
649.0,0.03608
650.0,0.03629
651.0,0.03773
652.0,0.0358
653.0,0.03693
654.0,0.03638
655.0,0.03476
656.0,0.03075
657.0,0.03147
658.0,0.03519
659.0,0.03533
660.0,0.03533
661.0,0.03543
662.0,0.03533
663.0,0.03451
664.0,0.03483
665.0,0.03475
666.0,0.03465
667.0,0.03451
668.0,0.03441
669.0,0.03481
670.0,0.03452
671.0,0.03439
672.0,0.03398
673.0,0.03439
674.0,0.03412
675.0,0.03368
676.0,0.03377
677.0,0.03332
678.0,0.03329
679.0,0.03263
680.0,0.03275
681.0,0.0324
682.0,0.03221
683.0,0.032
684.0,0.03169
685.0,0.03182
686.0,0.03149
687.0,0.01911
688.0,0.02296
689.0,0.02296
690.0,0.02424
691.0,0.02574
692.0,0.02686
693.0,0.0265
694.0,0.02617
695.0,0.02738
696.0,0.0273
697.0,0.02921
698.0,0.02863
699.0,0.0276
700.0,0.02714
701.0,0.02668
702.0,0.02684
703.0,0.02678
704.0,0.02763
705.0,0.02754
706.0,0.02744
707.0,0.02736
708.0,0.02729
709.0,0.02728
710.0,0.0271
711.0,0.027
712.0,0.02685
713.0,0.02642
714.0,0.02639
715.0,0.02534
716.0,0.02523
717.0,0.02109
718.0,0.01914
719.0,0.01733
720.0,0.01809
721.0,0.02027
722.0,0.02363
723.0,0.02161
724.0,0.01907
725.0,0.01863
726.0,0.0195
727.0,0.01978
728.0,0.01833
729.0,0.01914
730.0,0.02019
731.0,0.01915
732.0,0.02065
733.0,0.02201
734.0,0.02249
735.0,0.02189
736.0,0.02176
737.0,0.02174
738.0,0.02214
739.0,0.02159
740.0,0.0221
741.0,0.02181
742.0,0.02175
743.0,0.0222
744.0,0.02204
745.0,0.02195
746.0,0.02194
747.0,0.02189
748.0,0.02174
749.0,0.02139
750.0,0.02128
751.0,0.02099
752.0,0.02099
753.0,0.02101
754.0,0.02096
755.0,0.02075
756.0,0.02066
757.0,0.0206
758.0,0.02025
759.0,0.01964
760.0,0.002707
761.0,0.001422
762.0,0.008672
763.0,0.004099
764.0,0.006262
765.0,0.008542
766.0,0.01084
767.0,0.01419
768.0,0.0169
769.0,0.01732
770.0,0.01801
771.0,0.01815
772.0,0.01813
773.0,0.01816
774.0,0.01798
775.0,0.01776
776.0,0.01788
777.0,0.01756
778.0,0.01736
779.0,0.01728
780.0,0.01711
781.0,0.01705
782.0,0.01709
783.0,0.01672
784.0,0.01674
785.0,0.01654
786.0,0.01665
787.0,0.01622
788.0,0.01592
789.0,0.01583
790.0,0.01525
791.0,0.01541
792.0,0.01524
793.0,0.01491
794.0,0.0152
795.0,0.01537
796.0,0.01469
797.0,0.01464
798.0,0.01513
799.0,0.01495
800.0,0.01458
801.0,0.01444
802.0,0.01433
803.0,0.01414
804.0,0.01411
805.0,0.01404
806.0,0.01442
807.0,0.01417
808.0,0.01411
809.0,0.01373
810.0,0.01352
811.0,0.01342
812.0,0.01287
813.0,0.0125
814.0,0.01068
815.0,0.01057
816.0,0.009702
817.0,0.009861
818.0,0.009408
819.0,0.0107
820.0,0.009945
821.0,0.01194
822.0,0.01148
823.0,0.007278
824.0,0.01096
825.0,0.01152
826.0,0.01093
827.0,0.01161
828.0,0.009494
829.0,0.01075
830.0,0.01054
831.0,0.01054
832.0,0.01011
833.0,0.0109
834.0,0.01037
835.0,0.01156
836.0,0.01088
837.0,0.0115
838.0,0.01103
839.0,0.01123
840.0,0.01145
841.0,0.0112
842.0,0.01122
843.0,0.01121
844.0,0.01097
845.0,0.01133
846.0,0.01123
847.0,0.01098
848.0,0.01084
849.0,0.01049
850.0,0.009999
851.0,0.01051
852.0,0.01039
853.0,0.009971
854.0,0.008558
855.0,0.009383
856.0,0.01021
857.0,0.01041
858.0,0.01029
859.0,0.01026
860.0,0.01024
861.0,0.01015
862.0,0.01027
863.0,0.01048
864.0,0.009916
865.0,0.009792
866.0,0.00877
867.0,0.009116
868.0,0.00988
869.0,0.009637
870.0,0.009872
871.0,0.009698
872.0,0.009625
873.0,0.009566
874.0,0.00941
875.0,0.009178
876.0,0.009231
877.0,0.009287
878.0,0.009344
879.0,0.009162
880.0,0.008928
881.0,0.008748
882.0,0.008898
883.0,0.008898
884.0,0.008814
885.0,0.008839
886.0,0.008357
887.0,0.008436
888.0,0.008509
889.0,0.008596
890.0,0.008452
891.0,0.008422
892.0,0.008106
893.0,0.00777
894.0,0.007371
895.0,0.006822
896.0,0.006327
897.0,0.005266
898.0,0.005804
899.0,0.004211
900.0,0.005971
901.0,0.004423
902.0,0.005343
903.0,0.005325
904.0,0.007015
905.0,0.006698
906.0,0.006193
907.0,0.004789
908.0,0.004906
909.0,0.005389
910.0,0.0046
911.0,0.004978
912.0,0.005211
913.0,0.004609
914.0,0.004567
915.0,0.004968
916.0,0.004108
917.0,0.005405
918.0,0.004187
919.0,0.005491
920.0,0.005599
921.0,0.005843
922.0,0.005079
923.0,0.005605
924.0,0.005158
925.0,0.005016
926.0,0.005054
927.0,0.005747
928.0,0.003909
929.0,0.003492
930.0,0.002627
931.0,0.00247
932.0,0.001694
933.0,0.001342
934.0,0.0006944
935.0,0.001375
936.0,0.0008222
937.0,0.000829
938.0,0.001028
939.0,0.00231
940.0,0.002845
941.0,0.002054
942.0,0.002411
943.0,0.001506
944.0,0.001614
945.0,0.002092
946.0,0.0009884
947.0,0.002073
948.0,0.001485
949.0,0.00286
950.0,0.0006954
951.0,0.0028
952.0,0.001389
953.0,0.001845
954.0,0.002331
955.0,0.001863
956.0,0.001831
957.0,0.001363
958.0,0.002692
959.0,0.002038
960.0,0.002297
961.0,0.002635
962.0,0.00247
963.0,0.002914
964.0,0.002626
965.0,0.002879
966.0,0.002866
967.0,0.002832
968.0,0.004083
969.0,0.004242
970.0,0.003826
971.0,0.004521
972.0,0.004262
973.0,0.003559
974.0,0.003343
975.0,0.003492
976.0,0.003242
977.0,0.003825
978.0,0.003558
979.0,0.003757
980.0,0.00348
981.0,0.004326
982.0,0.004067
983.0,0.003857
984.0,0.00447
985.0,0.004005
986.0,0.004552
987.0,0.004406
988.0,0.004381
989.0,0.004509
990.0,0.004321
991.0,0.004474
992.0,0.004489
993.0,0.004335
994.0,0.004461
995.0,0.004445
996.0,0.004403
997.0,0.004397
998.0,0.004358
999.0,0.004328
1000.0,0.004272
1001.0,0.00432
1002.0,0.004144
1003.0,0.004209
1004.0,0.004079
1005.0,0.003929
1006.0,0.004059
1007.0,0.004133
1008.0,0.004088
1009.0,0.004043
1010.0,0.004006
1011.0,0.004052
1012.0,0.003993
1013.0,0.004014
1014.0,0.003971
1015.0,0.003929
1016.0,0.003895
1017.0,0.003888
1018.0,0.003863
1019.0,0.003751
1020.0,0.003811
1021.0,0.003793
1022.0,0.003744
1023.0,0.003769
1024.0,0.003691
1025.0,0.003744
1026.0,0.00371
1027.0,0.003687
1028.0,0.003665
1029.0,0.003607
1030.0,0.003624
1031.0,0.003593
1032.0,0.003571
1033.0,0.003503
1034.0,0.00349
1035.0,0.003488
1036.0,0.003491
1037.0,0.003421
1038.0,0.003424
1039.0,0.003409
1040.0,0.003382
1041.0,0.003381
1042.0,0.003344
1043.0,0.003321
1044.0,0.00332
1045.0,0.003261
1046.0,0.003212
1047.0,0.003228
1048.0,0.003233
1049.0,0.003209
1050.0,0.003181
1051.0,0.003164
1052.0,0.003138
1053.0,0.003101
1054.0,0.003095
1055.0,0.003083
1056.0,0.003058
1057.0,0.003036
1058.0,0.002949
1059.0,0.00294
1060.0,0.002924
1061.0,0.002908
1062.0,0.00291
1063.0,0.00287
1064.0,0.002894
1065.0,0.002858
1066.0,0.002795
1067.0,0.002819
1068.0,0.002744
1069.0,0.002652
1070.0,0.002729
1071.0,0.002772
1072.0,0.002722
1073.0,0.002675
1074.0,0.002747
1075.0,0.002568
1076.0,0.002723
1077.0,0.002646
1078.0,0.002579
1079.0,0.002655
1080.0,0.002574
1081.0,0.002471
1082.0,0.002528
1083.0,0.002533
1084.0,0.002429
1085.0,0.00254
1086.0,0.002258
1087.0,0.00236
1088.0,0.002479
1089.0,0.002365
1090.0,0.002284
1091.0,0.002436
1092.0,0.002427
1093.0,0.001967
1094.0,0.002195
1095.0,0.002047
1096.0,0.00193
1097.0,0.002331
1098.0,0.001878
1099.0,0.001964
1100.0,0.001785
1101.0,0.001812
1102.0,0.001706
1103.0,0.00167
1104.0,0.001668
1105.0,0.00187
1106.0,0.001322
1107.0,0.001742
1108.0,0.001407
1109.0,0.001411
1110.0,0.001698
1111.0,0.001058
1112.0,0.001388
1113.0,0.0008065
1114.0,0.0009068
1115.0,0.0007363
1116.0,0.0005611
1117.0,0.0001873
1118.0,0.0006131
1119.0,0.000283
1120.0,0.0003564
1121.0,0.0004822
1122.0,0.0001896
1123.0,0.0003179
1124.0,0.0002658
1125.0,0.0003515
1126.0,0.000113
1127.0,0.000396
1128.0,0.0002245
1129.0,0.0002385
1130.0,0.0001535
1131.0,0.0007957
1132.0,0.0006062
1133.0,0.0003611
1134.0,8.516e-05
1135.0,3.173e-05
1136.0,0.0002923
1137.0,0.0007586
1138.0,0.0005187
1139.0,0.0008291
1140.0,0.0006666
1141.0,0.000487
1142.0,0.0005686
1143.0,0.000841
1144.0,0.000263
1145.0,0.0003336
1146.0,0.0003593
1147.0,0.0001173
1148.0,0.0007053
1149.0,0.0005433
1150.0,0.0002799
1151.0,0.0004918
1152.0,0.0006223
1153.0,0.0006124
1154.0,0.0003135
1155.0,0.0008215
1156.0,0.0007234
1157.0,0.0008331
1158.0,0.00082
1159.0,0.0008978
1160.0,0.0007473
1161.0,0.0009599
1162.0,0.0009567
1163.0,0.001379
1164.0,0.001142
1165.0,0.00105
1166.0,0.001053
1167.0,0.001161
1168.0,0.001167
1169.0,0.001201
1170.0,0.001326
1171.0,0.001283
1172.0,0.001315
1173.0,0.001309
1174.0,0.0008696
1175.0,0.001281
1176.0,0.001437
1177.0,0.001354
1178.0,0.0009581
1179.0,0.001435
1180.0,0.001236
1181.0,0.001278
1182.0,0.0008199
1183.0,0.001258
1184.0,0.001152
1185.0,0.001095
1186.0,0.001349
1187.0,0.001264
1188.0,0.0008169
1189.0,0.001163
1190.0,0.001301
1191.0,0.001204
1192.0,0.001314
1193.0,0.001243
1194.0,0.001286
1195.0,0.001194
1196.0,0.001135
1197.0,0.001286
1198.0,0.001156
1199.0,0.0009402
1200.0,0.001202
1201.0,0.001141
1202.0,0.001139
1203.0,0.001126
1204.0,0.000954
1205.0,0.001166
1206.0,0.001314
1207.0,0.001117
1208.0,0.001108
1209.0,0.001129
1210.0,0.001183
1211.0,0.001108
1212.0,0.001075
1213.0,0.001234
1214.0,0.001102
1215.0,0.001074
1216.0,0.001219
1217.0,0.001175
1218.0,0.001201
1219.0,0.001178
1220.0,0.001195
1221.0,0.001208
1222.0,0.001168
1223.0,0.00115
1224.0,0.001133
1225.0,0.001184
1226.0,0.001194
1227.0,0.001077
1228.0,0.001196
1229.0,0.001183
1230.0,0.001155
1231.0,0.001197
1232.0,0.001185
1233.0,0.001125
1234.0,0.001188
1235.0,0.001174
1236.0,0.001181
1237.0,0.001154
1238.0,0.001169
1239.0,0.00115
1240.0,0.001152
1241.0,0.001138
1242.0,0.001136
1243.0,0.001123
1244.0,0.001126
1245.0,0.001128
1246.0,0.001118
1247.0,0.001109
1248.0,0.001102
1249.0,0.001104
1250.0,0.001093
1251.0,0.001073
1252.0,0.001073
1253.0,0.001055
1254.0,0.001037
1255.0,0.00106
1256.0,0.001017
1257.0,0.001006
1258.0,0.001029
1259.0,0.0009735
1260.0,0.0009775
1261.0,0.0009016
1262.0,0.0008629
1263.0,0.0008615
1264.0,0.0007735
1265.0,0.0008514
1266.0,0.0008051
1267.0,0.0008248
1268.0,0.0007672
1269.0,0.0004183
1270.0,0.0008117
1271.0,0.0008756
1272.0,0.0008776
1273.0,0.0008636
1274.0,0.0008662
1275.0,0.0008793
1276.0,0.0008886
1277.0,0.0008957
1278.0,0.0009174
1279.0,0.0009058
1280.0,0.0008919
1281.0,0.0008518
1282.0,0.0008238
1283.0,0.0008834
1284.0,0.0009005
1285.0,0.0009046
1286.0,0.0009171
1287.0,0.0008942
1288.0,0.0008929
1289.0,0.0008509
1290.0,0.00088
1291.0,0.0008914
1292.0,0.0008147
1293.0,0.0008635
1294.0,0.0008537
1295.0,0.0008415
1296.0,0.0007887
1297.0,0.0007343
1298.0,0.000807
1299.0,0.0008503
1300.0,0.0006845
1301.0,0.0007094
1302.0,0.0007956
1303.0,0.0006713
1304.0,0.000546
1305.0,0.000769
1306.0,0.0007648
1307.0,0.0005588
1308.0,0.0006644
1309.0,0.0007487
1310.0,0.000541
1311.0,0.0006249
1312.0,0.0006043
1313.0,0.0005849
1314.0,0.0005097
1315.0,0.0004998
1316.0,0.0006027
1317.0,0.000563
1318.0,0.0006228
1319.0,0.0004558
1320.0,0.0004416
1321.0,0.0005273
1322.0,0.0005283
1323.0,0.0003737
1324.0,0.0004403
1325.0,0.0005749
1326.0,0.0004761
1327.0,0.0004482
1328.0,0.0003759
1329.0,0.0002666
1330.0,0.0003576
1331.0,0.0001998
1332.0,0.0002081
1333.0,0.0002964
1334.0,0.0002526
1335.0,0.0003582
1336.0,0.0002719
1337.0,0.0002366
1338.0,0.0002562
1339.0,0.0002554
1340.0,0.0002493
1341.0,0.0002368
1342.0,0.0002495
1343.0,0.0001579
1344.0,9.305e-05
1345.0,0.0001351
1346.0,6.352e-05
1347.0,6.411e-05
1348.0,4.028e-06
1349.0,1.449e-05
1350.0,1.504e-05
1351.0,3.617e-06
1352.0,9.72e-07
1353.0,4.946e-08
1354.0,1.7e-07
1355.0,1.369e-09
