interpolation:linear
wavelength,value
280.0,8.309999999999999e-22
280.5,2.6860000000000003e-20
281.0,1.431e-19
281.5,5.249e-19
282.0,8.975e-19
282.5,2.223e-18
283.0,6.997e-18
283.5,1.136e-17
284.0,1.843e-16
284.5,5.339e-16
285.0,1.008e-15
285.5,4.894e-15
286.0,1.959e-14
286.5,8.701e-14
287.0,2.476e-13
287.5,9.448e-13
288.0,2.995e-12
288.5,9.269e-12
289.0,2.503e-11
289.5,7.625e-11
290.0,2.127e-10
290.5,4.348e-10
291.0,9.354e-10
291.5,2.688e-09
292.0,5.855e-09
292.5,8.303e-09
293.0,1.803e-08
293.5,4.451e-08
294.0,7.025e-08
294.5,9.278e-08
295.0,1.58e-07
295.5,3.339e-07
296.0,6.099e-07
296.5,8.726e-07
297.0,1.206e-06
297.5,3.359e-06
298.0,5.5e-06
298.5,5.722e-06
299.0,1.31e-05
299.5,2.353e-05
300.0,2.725e-05
300.5,4.192e-05
301.0,8.526e-05
301.5,0.000155
302.0,0.0001435
302.5,0.0002838
303.0,0.0005187
303.5,0.0006634
304.0,0.0006359
304.5,0.001005
305.0,0.001658
305.5,0.002004
306.0,0.001978
306.5,0.00255
307.0,0.004104
307.5,0.00591
308.0,0.00631
308.5,0.007748
309.0,0.007939
309.5,0.009407
310.0,0.009596
310.5,0.01564
311.0,0.01988
311.5,0.01926
312.0,0.01987
312.5,0.02468
313.0,0.02703
313.5,0.02587
314.0,0.03319
314.5,0.03054
315.0,0.04031
315.5,0.03296
316.0,0.02967
316.5,0.04376
317.0,0.05413
317.5,0.05569
318.0,0.04421
318.5,0.05701
319.0,0.06889
319.5,0.05412
320.0,0.06488
320.5,0.08447
321.0,0.07806
321.5,0.07492
322.0,0.07626
322.5,0.06628
323.0,0.06768
323.5,0.08507
324.0,0.0994
324.5,0.09963
325.0,0.08455
325.5,0.111
326.0,0.1359
326.5,0.1376
327.0,0.136
327.5,0.1301
328.0,0.1136
328.5,0.1215
329.0,0.1478
329.5,0.1683
330.0,0.1684
330.5,0.1324
331.0,0.1339
331.5,0.1371
332.0,0.1501
332.5,0.1493
333.0,0.1477
333.5,0.1316
334.0,0.1341
334.5,0.1565
335.0,0.148
335.5,0.1742
336.0,0.1202
336.5,0.1381
337.0,0.1123
337.5,0.1389
338.0,0.1369
338.5,0.1591
339.0,0.1566
339.5,0.1505
340.0,0.1748
340.5,0.1573
341.0,0.1539
341.5,0.1404
342.0,0.1671
342.5,0.1558
343.0,0.1711
343.5,0.1609
344.0,0.118
344.5,0.1198
345.0,0.1572
345.5,0.1598
346.0,0.1353
346.5,0.1526
347.0,0.1636
347.5,0.1319
348.0,0.1497
348.5,0.149
349.0,0.1378
349.5,0.136
350.0,0.1677
350.5,0.1763
351.0,0.1571
351.5,0.1526
352.0,0.1631
352.5,0.1267
353.0,0.1591
353.5,0.1695
354.0,0.1754
354.5,0.1773
355.0,0.1762
355.5,0.1586
356.0,0.1654
356.5,0.1408
357.0,0.116
357.5,0.1415
358.0,0.1118
358.5,0.0952
359.0,0.1327
359.5,0.1686
360.0,0.1782
360.5,0.1419
361.0,0.129
361.5,0.148
362.0,0.1276
362.5,0.176
363.0,0.1576
363.5,0.1447
364.0,0.1764
364.5,0.1503
365.0,0.1525
365.5,0.1908
366.0,0.2015
366.5,0.1887
367.0,0.1832
367.5,0.1895
368.0,0.1653
368.5,0.1662
369.0,0.1789
369.5,0.1901
370.0,0.202
370.5,0.1563
371.0,0.1664
371.5,0.2075
372.0,0.1373
372.5,0.1641
373.0,0.1663
373.5,0.1079
374.0,0.1562
374.5,0.129
375.0,0.1249
375.5,0.1859
376.0,0.1536
376.5,0.1586
377.0,0.1674
377.5,0.1952
378.0,0.2109
378.5,0.1986
379.0,0.1633
379.5,0.1487
380.0,0.154
380.5,0.1859
381.0,0.1856
381.5,0.1466
382.0,0.1298
382.5,0.1102
383.0,0.1017
383.5,0.09762
384.0,0.1073
384.5,0.1573
385.0,0.1555
385.5,0.1443
386.0,0.1232
386.5,0.1612
387.0,0.1335
387.5,0.1494
388.0,0.1375
388.5,0.1354
389.0,0.1457
389.5,0.1758
390.0,0.1758
390.5,0.1613
391.0,0.1892
391.5,0.1922
392.0,0.1613
392.5,0.1439
393.0,0.07982
393.5,0.05782
394.0,0.1173
394.5,0.1486
395.0,0.1807
395.5,0.1829
396.0,0.158
396.5,0.09205
397.0,0.06884
397.5,0.1395
398.0,0.1947
398.5,0.2005
399.0,0.2164
399.5,0.2149
400.0,0.2224
401.0,0.2185
402.0,0.2289
403.0,0.2159
404.0,0.2111
405.0,0.2096
406.0,0.2047
407.0,0.1999
408.0,0.2062
409.0,0.2191
410.0,0.1902
411.0,0.2046
412.0,0.2182
413.0,0.2113
414.0,0.2124
415.0,0.2114
416.0,0.2135
417.0,0.2067
418.0,0.2014
419.0,0.2026
420.0,0.2002
421.0,0.2079
422.0,0.1961
423.0,0.1901
424.0,0.1995
425.0,0.1977
426.0,0.1912
427.0,0.1863
428.0,0.1802
429.0,0.1695
430.0,0.1473
431.0,0.1449
432.0,0.1856
433.0,0.1853
434.0,0.1708
435.0,0.1771
436.0,0.1982
437.0,0.1942
438.0,0.1755
439.0,0.1801
440.0,0.1845
441.0,0.1897
442.0,0.2018
443.0,0.1951
444.0,0.198
445.0,0.1924
446.0,0.1824
447.0,0.1958
448.0,0.1973
449.0,0.1965
450.0,0.2004
451.0,0.2063
452.0,0.1973
453.0,0.1843
454.0,0.1911
455.0,0.1908
456.0,0.1938
457.0,0.1954
458.0,0.1871
459.0,0.1846
460.0,0.1836
461.0,0.1864
462.0,0.1865
463.0,0.1841
464.0,0.18
465.0,0.1766
466.0,0.1771
467.0,0.1725
468.0,0.1731
469.0,0.1725
470.0,0.1658
471.0,0.1645
472.0,0.1721
473.0,0.1687
474.0,0.1676
475.0,0.1677
476.0,0.1613
477.0,0.1603
478.0,0.1633
479.0,0.1608
480.0,0.1597
481.0,0.1612
482.0,0.1608
483.0,0.1578
484.0,0.1535
485.0,0.1454
486.0,0.1263
487.0,0.1315
488.0,0.1431
489.0,0.1424
490.0,0.1487
491.0,0.145
492.0,0.1359
493.0,0.1393
494.0,0.1397
495.0,0.1398
496.0,0.1396
497.0,0.1406
498.0,0.1329
499.0,0.1333
500.0,0.1282
501.0,0.1247
502.0,0.1217
503.0,0.1254
504.0,0.1211
505.0,0.1245
506.0,0.1276
507.0,0.1206
508.0,0.1162
509.0,0.1187
510.0,0.1174
511.0,0.1197
512.0,0.1202
513.0,0.1129
514.0,0.1112
515.0,0.1093
516.0,0.1082
517.0,0.09544
518.0,0.0996
519.0,0.1037
520.0,0.1066
521.0,0.1068
522.0,0.106
523.0,0.1033
524.0,0.1061
525.0,0.1064
526.0,0.1008
527.0,0.09412
528.0,0.09864
529.0,0.1031
530.0,0.1008
531.0,0.1015
532.0,0.09731
533.0,0.09379
534.0,0.09592
535.0,0.09739
536.0,0.09765
537.0,0.09318
538.0,0.09417
539.0,0.09276
540.0,0.08832
541.0,0.08821
542.0,0.09024
543.0,0.08862
544.0,0.08954
545.0,0.08869
546.0,0.08842
547.0,0.08775
548.0,0.0861
549.0,0.08578
550.0,0.0862
551.0,0.08456
552.0,0.08454
553.0,0.08243
554.0,0.0838
555.0,0.08336
556.0,0.08165
557.0,0.07849
558.0,0.07725
559.0,0.07517
560.0,0.07548
561.0,0.07582
562.0,0.07463
563.0,0.07605
564.0,0.07342
565.0,0.07224
566.0,0.07064
567.0,0.07142
568.0,0.07022
569.0,0.06798
570.0,0.0675
571.0,0.06663
572.0,0.06767
573.0,0.06794
574.0,0.06731
575.0,0.06565
576.0,0.06467
577.0,0.06501
578.0,0.06371
579.0,0.06367
580.0,0.0646
581.0,0.06462
582.0,0.06552
583.0,0.06537
584.0,0.06563
585.0,0.06369
586.0,0.06198
587.0,0.0629
588.0,0.0609
589.0,0.05341
590.0,0.05554
591.0,0.05853
592.0,0.05732
593.0,0.05783
594.0,0.05696
595.0,0.05508
596.0,0.05702
597.0,0.05596
598.0,0.05544
599.0,0.05511
600.0,0.05486
601.0,0.0541
602.0,0.05342
603.0,0.05399
604.0,0.05459
605.0,0.05403
606.0,0.05358
607.0,0.05388
608.0,0.05305
609.0,0.05291
610.0,0.05232
611.0,0.05239
612.0,0.05202
613.0,0.05114
614.0,0.05022
615.0,0.0511
616.0,0.04921
617.0,0.0489
618.0,0.05056
619.0,0.04983
620.0,0.0499
621.0,0.0497
622.0,0.04886
623.0,0.04785
624.0,0.0468
625.0,0.04649
626.0,0.04696
627.0,0.04723
628.0,0.04344
629.0,0.04549
630.0,0.04421
631.0,0.04514
632.0,0.04442
633.0,0.04564
634.0,0.04506
635.0,0.04556
636.0,0.04478
637.0,0.04533
638.0,0.0456
639.0,0.0449
640.0,0.04428
641.0,0.04406
642.0,0.04369
643.0,0.04411
644.0,0.04379
645.0,0.04364
646.0,0.04236
647.0,0.04155
648.0,0.04136
649.0,0.04037
650.0,0.04052
651.0,0.0421
652.0,0.03998
653.0,0.04116
654.0,0.04053
655.0,0.03874
656.0,0.03423
657.0,0.03501
658.0,0.03912
659.0,0.03924
660.0,0.03923
661.0,0.03931
662.0,0.0392
663.0,0.03827
664.0,0.03859
665.0,0.03847
666.0,0.03834
667.0,0.03815
668.0,0.03802
669.0,0.03844
670.0,0.0381
671.0,0.03793
672.0,0.03747
673.0,0.0379
674.0,0.03759
675.0,0.03707
676.0,0.03717
677.0,0.03665
678.0,0.03661
679.0,0.03586
680.0,0.03599
681.0,0.03559
682.0,0.03537
683.0,0.03514
684.0,0.03479
685.0,0.03491
686.0,0.03454
687.0,0.02139
688.0,0.02556
689.0,0.02555
690.0,0.02689
691.0,0.02846
692.0,0.0296
693.0,0.02919
694.0,0.02878
695.0,0.03003
696.0,0.02993
697.0,0.03195
698.0,0.03131
699.0,0.03022
700.0,0.02971
701.0,0.02924
702.0,0.02938
703.0,0.02929
704.0,0.03019
705.0,0.03009
706.0,0.02997
707.0,0.02987
708.0,0.02978
709.0,0.02974
710.0,0.02956
711.0,0.02944
712.0,0.02927
713.0,0.02881
714.0,0.02877
715.0,0.02765
716.0,0.02752
717.0,0.02316
718.0,0.02099
719.0,0.01899
720.0,0.01985
721.0,0.02217
722.0,0.02578
723.0,0.0236
724.0,0.02086
725.0,0.02038
726.0,0.02135
727.0,0.02161
728.0,0.02005
729.0,0.0209
730.0,0.02208
731.0,0.02093
732.0,0.02252
733.0,0.02396
734.0,0.02447
735.0,0.02382
736.0,0.02368
737.0,0.02365
738.0,0.02404
739.0,0.02345
740.0,0.02399
741.0,0.02366
742.0,0.02359
743.0,0.02407
744.0,0.02388
745.0,0.02378
746.0,0.02378
747.0,0.02372
748.0,0.02355
749.0,0.02316
750.0,0.02305
751.0,0.02272
752.0,0.02272
753.0,0.02273
754.0,0.02267
755.0,0.02244
756.0,0.02234
757.0,0.02227
758.0,0.02189
759.0,0.02127
760.0,0.002917
761.0,0.001505
762.0,0.009617
763.0,0.004477
764.0,0.006916
765.0,0.00947
766.0,0.01198
767.0,0.01557
768.0,0.01838
769.0,0.0188
770.0,0.01949
771.0,0.01962
772.0,0.01959
773.0,0.01962
774.0,0.01943
775.0,0.01919
776.0,0.01933
777.0,0.01898
778.0,0.01876
779.0,0.01868
780.0,0.01849
781.0,0.01843
782.0,0.01846
783.0,0.01807
784.0,0.01808
785.0,0.01786
786.0,0.01798
787.0,0.01754
788.0,0.01721
789.0,0.01711
790.0,0.0165
791.0,0.01665
792.0,0.01646
793.0,0.0161
794.0,0.01639
795.0,0.01658
796.0,0.01588
797.0,0.01583
798.0,0.01633
799.0,0.01613
800.0,0.01575
801.0,0.0156
802.0,0.01548
803.0,0.01528
804.0,0.01524
805.0,0.01516
806.0,0.01556
807.0,0.01528
808.0,0.01523
809.0,0.01483
810.0,0.01461
811.0,0.01452
812.0,0.01396
813.0,0.01356
814.0,0.01162
815.0,0.01149
816.0,0.01054
817.0,0.01072
818.0,0.01023
819.0,0.01162
820.0,0.0108
821.0,0.01292
822.0,0.01243
823.0,0.007909
824.0,0.01188
825.0,0.01245
826.0,0.01182
827.0,0.01255
828.0,0.0103
829.0,0.01162
830.0,0.01139
831.0,0.0114
832.0,0.01094
833.0,0.01178
834.0,0.01122
835.0,0.01247
836.0,0.01176
837.0,0.0124
838.0,0.01191
839.0,0.01211
840.0,0.01234
841.0,0.01209
842.0,0.01209
843.0,0.01206
844.0,0.01182
845.0,0.01219
846.0,0.01209
847.0,0.01182
848.0,0.01168
849.0,0.01129
850.0,0.01077
851.0,0.01133
852.0,0.0112
853.0,0.01074
854.0,0.009225
855.0,0.01011
856.0,0.011
857.0,0.01121
858.0,0.01108
859.0,0.01105
860.0,0.01102
861.0,0.01092
862.0,0.01105
863.0,0.01127
864.0,0.01067
865.0,0.01053
866.0,0.009431
867.0,0.009802
868.0,0.01062
869.0,0.01036
870.0,0.01061
871.0,0.01042
872.0,0.01035
873.0,0.01028
874.0,0.01011
875.0,0.009864
876.0,0.009922
877.0,0.009981
878.0,0.01004
879.0,0.009848
880.0,0.009596
881.0,0.009406
882.0,0.00957
883.0,0.009567
884.0,0.009478
885.0,0.009506
886.0,0.008997
887.0,0.009076
888.0,0.009158
889.0,0.009245
890.0,0.009099
891.0,0.009062
892.0,0.008734
893.0,0.008379
894.0,0.00797
895.0,0.007401
896.0,0.006857
897.0,0.005717
898.0,0.006303
899.0,0.004569
900.0,0.006472
901.0,0.004813
902.0,0.005799
903.0,0.00579
904.0,0.007587
905.0,0.007247
906.0,0.006703
907.0,0.005204
908.0,0.005324
909.0,0.005848
910.0,0.005004
911.0,0.005396
912.0,0.005659
913.0,0.005015
914.0,0.004963
915.0,0.005418
916.0,0.00446
917.0,0.00588
918.0,0.004553
919.0,0.005962
920.0,0.006051
921.0,0.00633
922.0,0.005512
923.0,0.006069
924.0,0.005612
925.0,0.005451
926.0,0.005503
927.0,0.006249
928.0,0.004275
929.0,0.003824
930.0,0.002874
931.0,0.0027
932.0,0.001846
933.0,0.001456
934.0,0.0007434
935.0,0.001492
936.0,0.000883
937.0,0.0008903
938.0,0.00111
939.0,0.002526
940.0,0.003118
941.0,0.002249
942.0,0.002645
943.0,0.001639
944.0,0.00175
945.0,0.002287
946.0,0.001067
947.0,0.002269
948.0,0.00161
949.0,0.003146
950.0,0.0007447
951.0,0.003079
952.0,0.001509
953.0,0.002013
954.0,0.002552
955.0,0.002035
956.0,0.001978
957.0,0.001481
958.0,0.00293
959.0,0.002219
960.0,0.002512
961.0,0.002876
962.0,0.002692
963.0,0.003176
964.0,0.002858
965.0,0.00314
966.0,0.003125
967.0,0.003091
968.0,0.004418
969.0,0.004612
970.0,0.004154
971.0,0.004891
972.0,0.004614
973.0,0.003872
974.0,0.003634
975.0,0.00379
976.0,0.003533
977.0,0.004141
978.0,0.003864
979.0,0.004079
980.0,0.003774
981.0,0.00468
982.0,0.004408
983.0,0.004183
984.0,0.004823
985.0,0.004343
986.0,0.004902
987.0,0.004755
988.0,0.004726
989.0,0.00485
990.0,0.004664
991.0,0.004817
992.0,0.00483
993.0,0.004674
994.0,0.004799
995.0,0.00478
996.0,0.004735
997.0,0.004727
998.0,0.004686
999.0,0.004654
1000.0,0.004596
1001.0,0.004645
1002.0,0.004466
1003.0,0.004526
1004.0,0.004389
1005.0,0.004224
1006.0,0.004365
1007.0,0.004443
1008.0,0.004397
1009.0,0.004351
1010.0,0.004312
1011.0,0.004356
1012.0,0.004295
1013.0,0.004315
1014.0,0.004269
1015.0,0.004224
1016.0,0.004187
1017.0,0.004181
1018.0,0.004152
1019.0,0.004036
1020.0,0.004096
1021.0,0.004077
1022.0,0.004025
1023.0,0.004052
1024.0,0.003973
1025.0,0.004024
1026.0,0.003988
1027.0,0.003964
1028.0,0.003941
1029.0,0.003879
1030.0,0.003895
1031.0,0.003863
1032.0,0.003838
1033.0,0.003766
1034.0,0.003752
1035.0,0.003749
1036.0,0.003753
1037.0,0.003678
1038.0,0.003681
1039.0,0.003665
1040.0,0.003636
1041.0,0.003636
1042.0,0.003596
1043.0,0.003572
1044.0,0.003571
1045.0,0.003508
1046.0,0.003455
1047.0,0.003473
1048.0,0.003479
1049.0,0.003453
1050.0,0.003424
1051.0,0.003405
1052.0,0.003378
1053.0,0.003338
1054.0,0.003332
1055.0,0.00332
1056.0,0.003294
1057.0,0.00327
1058.0,0.003178
1059.0,0.003168
1060.0,0.003151
1061.0,0.003135
1062.0,0.003138
1063.0,0.003095
1064.0,0.003121
1065.0,0.003083
1066.0,0.003014
1067.0,0.003041
1068.0,0.00296
1069.0,0.00286
1070.0,0.002943
1071.0,0.002987
1072.0,0.002935
1073.0,0.002885
1074.0,0.002959
1075.0,0.002773
1076.0,0.002933
1077.0,0.002854
1078.0,0.002785
1079.0,0.002859
1080.0,0.002776
1081.0,0.00267
1082.0,0.002725
1083.0,0.002728
1084.0,0.002624
1085.0,0.002739
1086.0,0.002441
1087.0,0.002549
1088.0,0.002671
1089.0,0.002555
1090.0,0.002469
1091.0,0.002626
1092.0,0.002615
1093.0,0.002132
1094.0,0.002367
1095.0,0.002221
1096.0,0.002097
1097.0,0.002512
1098.0,0.002044
1099.0,0.002135
1100.0,0.001942
1101.0,0.001971
1102.0,0.001859
1103.0,0.001821
1104.0,0.001819
1105.0,0.002035
1106.0,0.00145
1107.0,0.001897
1108.0,0.001538
1109.0,0.001541
1110.0,0.001853
1111.0,0.001158
1112.0,0.001516
1113.0,0.0008809
1114.0,0.0009941
1115.0,0.0008038
1116.0,0.0006118
1117.0,0.0001992
1118.0,0.0006704
1119.0,0.0003044
1120.0,0.0003866
1121.0,0.0005276
1122.0,0.0002024
1123.0,0.0003435
1124.0,0.0002859
1125.0,0.0003811
1126.0,0.0001191
1127.0,0.0004307
1128.0,0.0002408
1129.0,0.0002565
1130.0,0.0001628
1131.0,0.0008801
1132.0,0.0006661
1133.0,0.0003929
1134.0,8.925e-05
1135.0,3.277e-05
1136.0,0.0003163
1137.0,0.0008405
1138.0,0.0005683
1139.0,0.0009108
1140.0,0.000732
1141.0,0.0005325
1142.0,0.0006235
1143.0,0.0009285
1144.0,0.000283
1145.0,0.0003628
1146.0,0.0003916
1147.0,0.000124
1148.0,0.0007761
1149.0,0.0005954
1150.0,0.000301
1151.0,0.0005387
1152.0,0.0006843
1153.0,0.0006701
1154.0,0.0003398
1155.0,0.0009041
1156.0,0.0007957
1157.0,0.000913
1158.0,0.0008988
1159.0,0.0009855
1160.0,0.0008162
1161.0,0.001048
1162.0,0.001045
1163.0,0.001501
1164.0,0.001245
1165.0,0.001149
1166.0,0.001145
1167.0,0.001263
1168.0,0.001271
1169.0,0.001309
1170.0,0.001441
1171.0,0.001393
1172.0,0.001424
1173.0,0.001423
1174.0,0.0009468
1175.0,0.001387
1176.0,0.00155
1177.0,0.001465
1178.0,0.001038
1179.0,0.001548
1180.0,0.001339
1181.0,0.001386
1182.0,0.0008905
1183.0,0.001363
1184.0,0.00125
1185.0,0.001189
1186.0,0.001459
1187.0,0.001369
1188.0,0.0008908
1189.0,0.00126
1190.0,0.001405
1191.0,0.001308
1192.0,0.001419
1193.0,0.001344
1194.0,0.00139
1195.0,0.001295
1196.0,0.001232
1197.0,0.001389
1198.0,0.001248
1199.0,0.001022
1200.0,0.001301
1201.0,0.001238
1202.0,0.001231
1203.0,0.001222
1204.0,0.001035
1205.0,0.001259
1206.0,0.001416
1207.0,0.00121
1208.0,0.001198
1209.0,0.00122
1210.0,0.001277
1211.0,0.001198
1212.0,0.001169
1213.0,0.001333
1214.0,0.001197
1215.0,0.001166
1216.0,0.001317
1217.0,0.00127
1218.0,0.001297
1219.0,0.001274
1220.0,0.00129
1221.0,0.001303
1222.0,0.00126
1223.0,0.001241
1224.0,0.001226
1225.0,0.001278
1226.0,0.001287
1227.0,0.001165
1228.0,0.001288
1229.0,0.001275
1230.0,0.001245
1231.0,0.001287
1232.0,0.001275
1233.0,0.001214
1234.0,0.001277
1235.0,0.001263
1236.0,0.001269
1237.0,0.001242
1238.0,0.001257
1239.0,0.001236
1240.0,0.001238
1241.0,0.001225
1242.0,0.001221
1243.0,0.001207
1244.0,0.00121
1245.0,0.001212
1246.0,0.001201
1247.0,0.001192
1248.0,0.001186
1249.0,0.001187
1250.0,0.001175
1251.0,0.001155
1252.0,0.001153
1253.0,0.001136
1254.0,0.001118
1255.0,0.00114
1256.0,0.001097
1257.0,0.001086
1258.0,0.001109
1259.0,0.001053
1260.0,0.001057
1261.0,0.0009804
1262.0,0.0009409
1263.0,0.0009396
1264.0,0.0008487
1265.0,0.0009285
1266.0,0.0008812
1267.0,0.0009006
1268.0,0.000841
1269.0,0.0004665
1270.0,0.0008873
1271.0,0.0009519
1272.0,0.0009536
1273.0,0.0009389
1274.0,0.000941
1275.0,0.0009543
1276.0,0.0009633
1277.0,0.0009694
1278.0,0.0009908
1279.0,0.0009783
1280.0,0.0009632
1281.0,0.0009188
1282.0,0.000887
1283.0,0.0009514
1284.0,0.0009701
1285.0,0.0009742
1286.0,0.0009868
1287.0,0.0009638
1288.0,0.0009617
1289.0,0.0009198
1290.0,0.0009477
1291.0,0.0009594
1292.0,0.0008822
1293.0,0.0009304
1294.0,0.00092
1295.0,0.0009093
1296.0,0.000855
1297.0,0.0007975
1298.0,0.0008722
1299.0,0.0009157
1300.0,0.0007429
1301.0,0.0007695
1302.0,0.0008598
1303.0,0.000728
1304.0,0.0005961
1305.0,0.0008309
1306.0,0.0008277
1307.0,0.0006081
1308.0,0.0007192
1309.0,0.0008119
1310.0,0.0005893
1311.0,0.0006776
1312.0,0.0006558
1313.0,0.0006364
1314.0,0.0005552
1315.0,0.0005459
1316.0,0.0006548
1317.0,0.0006119
1318.0,0.0006754
1319.0,0.0004979
1320.0,0.000481
1321.0,0.0005741
1322.0,0.0005769
1323.0,0.0004095
1324.0,0.0004802
1325.0,0.0006256
1326.0,0.0005192
1327.0,0.0004891
1328.0,0.0004103
1329.0,0.0002919
1330.0,0.0003927
1331.0,0.0002183
1332.0,0.0002273
1333.0,0.000327
1334.0,0.0002746
1335.0,0.0003932
1336.0,0.0002981
1337.0,0.0002583
1338.0,0.0002808
1339.0,0.0002798
1340.0,0.0002718
1341.0,0.0002601
1342.0,0.0002741
1343.0,0.0001726
1344.0,9.987e-05
1345.0,0.0001471
1346.0,6.768e-05
1347.0,6.83e-05
1348.0,4.097e-06
1349.0,1.491e-05
1350.0,1.552e-05
1351.0,3.67e-06
1352.0,9.808e-07
1353.0,4.981e-08
1354.0,1.713e-07
1355.0,1.378e-09
1356.0,2.412e-08
1357.0,3.665e-08
1358.0,1.618e-09
1359.0,2.038e-10
