interpolation:linear
wavelength,value
280.0,2.8189999999999997e-22
280.5,9.27e-21
281.0,4.969e-20
281.5,4.037e-19
282.0,6.628e-19
282.5,1.644e-18
283.0,5.202e-18
283.5,8.47e-18
284.0,1.395e-16
284.5,4.07e-16
285.0,6.705e-16
285.5,3.349e-15
286.0,1.351e-14
286.5,6.085e-14
287.0,1.747e-13
287.5,6.736e-13
288.0,2.332e-12
288.5,7.021e-12
289.0,1.864e-11
289.5,5.617e-11
290.0,1.558e-10
290.5,3.174e-10
291.0,6.811e-10
291.5,1.955e-09
292.0,3.944e-09
292.5,5.546e-09
293.0,1.192e-08
293.5,2.911e-08
294.0,4.561e-08
294.5,6.251e-08
295.0,1.061e-07
295.5,1.784e-07
296.0,3.475e-07
296.5,4.91e-07
297.0,6.705e-07
297.5,1.828e-06
298.0,2.926e-06
298.5,2.982e-06
299.0,6.665e-06
299.5,1.138e-05
300.0,1.272e-05
300.5,1.876e-05
301.0,3.506e-05
301.5,5.763e-05
302.0,5.009e-05
302.5,0.0001002
303.0,0.0001862
303.5,0.0002412
304.0,0.0002342
304.5,0.0003824
305.0,0.0006617
305.5,0.0008258
306.0,0.000826
306.5,0.001089
307.0,0.00184
307.5,0.002785
308.0,0.003001
308.5,0.003783
309.0,0.003861
309.5,0.004841
310.0,0.005067
310.5,0.008368
311.0,0.01086
311.5,0.01062
312.0,0.01144
312.5,0.01461
313.0,0.01624
313.5,0.01535
314.0,0.02036
314.5,0.01956
315.0,0.02603
315.5,0.02087
316.0,0.01945
316.5,0.02954
317.0,0.03656
317.5,0.03732
318.0,0.03024
318.5,0.0405
319.0,0.04989
319.5,0.03806
320.0,0.04545
320.5,0.06149
321.0,0.0588
321.5,0.05667
322.0,0.05568
322.5,0.04852
323.0,0.05075
323.5,0.06518
324.0,0.07651
324.5,0.07598
325.0,0.06384
325.5,0.08546
326.0,0.1052
326.5,0.1079
327.0,0.1062
327.5,0.1011
328.0,0.08683
328.5,0.09487
329.0,0.1174
329.5,0.1344
330.0,0.1341
330.5,0.1041
331.0,0.1049
331.5,0.1085
332.0,0.1205
332.5,0.1206
333.0,0.119
333.5,0.1051
334.0,0.107
334.5,0.1263
335.0,0.1203
335.5,0.1414
336.0,0.09765
336.5,0.1121
337.0,0.09077
337.5,0.1122
338.0,0.1117
338.5,0.1299
339.0,0.1282
339.5,0.1231
340.0,0.143
340.5,0.1289
341.0,0.1262
341.5,0.1155
342.0,0.1377
342.5,0.1285
343.0,0.1411
343.5,0.1326
344.0,0.09721
344.5,0.09862
345.0,0.1299
345.5,0.1323
346.0,0.1122
346.5,0.1267
347.0,0.1357
347.5,0.1095
348.0,0.1245
348.5,0.1241
349.0,0.1149
349.5,0.1135
350.0,0.14
350.5,0.1473
351.0,0.1312
351.5,0.1272
352.0,0.1363
352.5,0.1061
353.0,0.1333
353.5,0.1422
354.0,0.1473
354.5,0.1489
355.0,0.148
355.5,0.1334
356.0,0.1392
356.5,0.1186
357.0,0.09772
357.5,0.1193
358.0,0.09433
358.5,0.0804
359.0,0.1121
359.5,0.1425
360.0,0.1507
360.5,0.1201
361.0,0.1092
361.5,0.1255
362.0,0.1082
362.5,0.1494
363.0,0.1338
363.5,0.1229
364.0,0.15
364.5,0.1278
365.0,0.1298
365.5,0.1625
366.0,0.1717
366.5,0.1609
367.0,0.1563
367.5,0.1618
368.0,0.1412
368.5,0.1421
369.0,0.153
369.5,0.1627
370.0,0.1729
370.5,0.1339
371.0,0.1426
371.5,0.178
372.0,0.1178
372.5,0.1408
373.0,0.1429
373.5,0.09271
374.0,0.1343
374.5,0.1109
375.0,0.1076
375.5,0.1601
376.0,0.1324
376.5,0.1368
377.0,0.1444
377.5,0.1685
378.0,0.1821
378.5,0.1716
379.0,0.1412
379.5,0.1286
380.0,0.1333
380.5,0.161
381.0,0.1609
381.5,0.1271
382.0,0.1126
382.5,0.09568
383.0,0.08832
383.5,0.08482
384.0,0.0933
384.5,0.1368
385.0,0.1353
385.5,0.1257
386.0,0.1073
386.5,0.1405
387.0,0.1164
387.5,0.1304
388.0,0.12
388.5,0.1183
389.0,0.1273
389.5,0.1537
390.0,0.1538
390.5,0.1411
391.0,0.1656
391.5,0.1684
392.0,0.1414
392.5,0.1262
393.0,0.07003
393.5,0.05075
394.0,0.103
394.5,0.1305
395.0,0.1588
395.5,0.1608
396.0,0.139
396.5,0.08103
397.0,0.06063
397.5,0.1229
398.0,0.1716
398.5,0.1768
399.0,0.1909
399.5,0.1897
400.0,0.1964
401.0,0.1931
402.0,0.2024
403.0,0.1911
404.0,0.187
405.0,0.1858
406.0,0.1816
407.0,0.1775
408.0,0.1833
409.0,0.1949
410.0,0.1693
411.0,0.1822
412.0,0.1945
413.0,0.1885
414.0,0.1896
415.0,0.1889
416.0,0.1909
417.0,0.185
418.0,0.1804
419.0,0.1816
420.0,0.1796
421.0,0.1866
422.0,0.1762
423.0,0.1709
424.0,0.1795
425.0,0.1779
426.0,0.1722
427.0,0.1679
428.0,0.1626
429.0,0.153
430.0,0.1331
431.0,0.131
432.0,0.1679
433.0,0.1676
434.0,0.1546
435.0,0.1604
436.0,0.1797
437.0,0.1761
438.0,0.1593
439.0,0.1635
440.0,0.1675
441.0,0.1723
442.0,0.1834
443.0,0.1774
444.0,0.1802
445.0,0.1752
446.0,0.1662
447.0,0.1785
448.0,0.18
449.0,0.1794
450.0,0.183
451.0,0.1885
452.0,0.1804
453.0,0.1686
454.0,0.1749
455.0,0.1746
456.0,0.1774
457.0,0.1789
458.0,0.1714
459.0,0.1691
460.0,0.1682
461.0,0.1708
462.0,0.1709
463.0,0.1688
464.0,0.1652
465.0,0.1622
466.0,0.1628
467.0,0.1586
468.0,0.1592
469.0,0.1587
470.0,0.1526
471.0,0.1514
472.0,0.1585
473.0,0.1554
474.0,0.1545
475.0,0.1546
476.0,0.1486
477.0,0.1477
478.0,0.1504
479.0,0.1481
480.0,0.1471
481.0,0.1484
482.0,0.1481
483.0,0.1454
484.0,0.1416
485.0,0.1342
486.0,0.1167
487.0,0.1216
488.0,0.1324
489.0,0.1318
490.0,0.1376
491.0,0.1342
492.0,0.1258
493.0,0.129
494.0,0.1293
495.0,0.1295
496.0,0.1293
497.0,0.1302
498.0,0.123
499.0,0.1233
500.0,0.1185
501.0,0.1152
502.0,0.1123
503.0,0.1157
504.0,0.1116
505.0,0.1148
506.0,0.1177
507.0,0.1113
508.0,0.1072
509.0,0.1096
510.0,0.1084
511.0,0.1106
512.0,0.111
513.0,0.1043
514.0,0.1028
515.0,0.101
516.0,0.09994
517.0,0.08815
518.0,0.09199
519.0,0.09575
520.0,0.09844
521.0,0.09855
522.0,0.09781
523.0,0.0953
524.0,0.09782
525.0,0.09805
526.0,0.09282
527.0,0.0866
528.0,0.09071
529.0,0.09478
530.0,0.09264
531.0,0.09323
532.0,0.08932
533.0,0.08608
534.0,0.08804
535.0,0.0894
536.0,0.08967
537.0,0.08558
538.0,0.08649
539.0,0.08519
540.0,0.08109
541.0,0.08097
542.0,0.0828
543.0,0.08129
544.0,0.0821
545.0,0.0813
546.0,0.08104
547.0,0.08042
548.0,0.0789
549.0,0.07861
550.0,0.07899
551.0,0.07747
552.0,0.07745
553.0,0.07551
554.0,0.07675
555.0,0.07633
556.0,0.07474
557.0,0.07182
558.0,0.07065
559.0,0.0687
560.0,0.06895
561.0,0.06922
562.0,0.0681
563.0,0.06935
564.0,0.06692
565.0,0.06582
566.0,0.06435
567.0,0.06503
568.0,0.06391
569.0,0.06182
570.0,0.06137
571.0,0.06057
572.0,0.06149
573.0,0.06173
574.0,0.06115
575.0,0.05964
576.0,0.05876
577.0,0.05909
578.0,0.05794
579.0,0.05793
580.0,0.05882
581.0,0.05888
582.0,0.05973
583.0,0.05963
584.0,0.05988
585.0,0.05812
586.0,0.05658
587.0,0.05742
588.0,0.05556
589.0,0.04867
590.0,0.05061
591.0,0.05336
592.0,0.05223
593.0,0.0527
594.0,0.05187
595.0,0.05011
596.0,0.0519
597.0,0.0509
598.0,0.05042
599.0,0.0501
600.0,0.04987
601.0,0.04918
602.0,0.04856
603.0,0.04909
604.0,0.04964
605.0,0.04916
606.0,0.04877
607.0,0.04908
608.0,0.04836
609.0,0.04827
610.0,0.04777
611.0,0.04785
612.0,0.04755
613.0,0.04678
614.0,0.04597
615.0,0.04681
616.0,0.0451
617.0,0.04484
618.0,0.04639
619.0,0.04573
620.0,0.04582
621.0,0.04564
622.0,0.04488
623.0,0.04397
624.0,0.04302
625.0,0.04275
626.0,0.0432
627.0,0.04344
628.0,0.03986
629.0,0.04184
630.0,0.04068
631.0,0.04158
632.0,0.04095
633.0,0.04211
634.0,0.04159
635.0,0.04209
636.0,0.04139
637.0,0.04192
638.0,0.0422
639.0,0.04158
640.0,0.04103
641.0,0.04085
642.0,0.04053
643.0,0.04093
644.0,0.04066
645.0,0.04053
646.0,0.03934
647.0,0.03857
648.0,0.03841
649.0,0.0375
650.0,0.03769
651.0,0.03918
652.0,0.03718
653.0,0.03833
654.0,0.03776
655.0,0.03608
656.0,0.03191
657.0,0.03264
658.0,0.03649
659.0,0.03663
660.0,0.03662
661.0,0.03672
662.0,0.03661
663.0,0.03576
664.0,0.03608
665.0,0.03599
666.0,0.03588
667.0,0.03572
668.0,0.03561
669.0,0.03602
670.0,0.03571
671.0,0.03557
672.0,0.03514
673.0,0.03556
674.0,0.03528
675.0,0.03481
676.0,0.0349
677.0,0.03443
678.0,0.0344
679.0,0.03371
680.0,0.03383
681.0,0.03346
682.0,0.03326
683.0,0.03305
684.0,0.03272
685.0,0.03285
686.0,0.03251
687.0,0.01984
688.0,0.02381
689.0,0.02381
690.0,0.02511
691.0,0.02664
692.0,0.02777
693.0,0.02739
694.0,0.02703
695.0,0.02826
696.0,0.02817
697.0,0.03012
698.0,0.02952
699.0,0.02847
700.0,0.02799
701.0,0.02753
702.0,0.02768
703.0,0.02761
704.0,0.02848
705.0,0.02839
706.0,0.02828
707.0,0.02819
708.0,0.02812
709.0,0.0281
710.0,0.02792
711.0,0.02781
712.0,0.02766
713.0,0.02722
714.0,0.02718
715.0,0.02611
716.0,0.02599
717.0,0.02177
718.0,0.01975
719.0,0.01787
720.0,0.01866
721.0,0.0209
722.0,0.02434
723.0,0.02227
724.0,0.01966
725.0,0.01921
726.0,0.02011
727.0,0.02039
728.0,0.01889
729.0,0.01972
730.0,0.02082
731.0,0.01974
732.0,0.02127
733.0,0.02266
734.0,0.02315
735.0,0.02253
736.0,0.0224
737.0,0.02237
738.0,0.02278
739.0,0.02221
740.0,0.02273
741.0,0.02243
742.0,0.02237
743.0,0.02282
744.0,0.02265
745.0,0.02256
746.0,0.02255
747.0,0.0225
748.0,0.02234
749.0,0.02198
750.0,0.02187
751.0,0.02157
752.0,0.02157
753.0,0.02158
754.0,0.02153
755.0,0.02132
756.0,0.02122
757.0,0.02116
758.0,0.0208
759.0,0.02018
760.0,0.002765
761.0,0.001445
762.0,0.008965
763.0,0.004207
764.0,0.006458
765.0,0.00883
766.0,0.0112
767.0,0.01464
768.0,0.01739
769.0,0.01782
770.0,0.0185
771.0,0.01864
772.0,0.01861
773.0,0.01865
774.0,0.01846
775.0,0.01823
776.0,0.01837
777.0,0.01803
778.0,0.01783
779.0,0.01775
780.0,0.01757
781.0,0.01751
782.0,0.01755
783.0,0.01717
784.0,0.01719
785.0,0.01698
786.0,0.01709
787.0,0.01666
788.0,0.01635
789.0,0.01626
790.0,0.01566
791.0,0.01582
792.0,0.01564
793.0,0.01531
794.0,0.0156
795.0,0.01577
796.0,0.01509
797.0,0.01504
798.0,0.01553
799.0,0.01534
800.0,0.01497
801.0,0.01482
802.0,0.01471
803.0,0.01452
804.0,0.01449
805.0,0.01441
806.0,0.0148
807.0,0.01454
808.0,0.01449
809.0,0.0141
810.0,0.01388
811.0,0.01378
812.0,0.01323
813.0,0.01285
814.0,0.01099
815.0,0.01087
816.0,0.009976
817.0,0.01014
818.0,0.009678
819.0,0.011
820.0,0.01023
821.0,0.01226
822.0,0.0118
823.0,0.007482
824.0,0.01126
825.0,0.01183
826.0,0.01122
827.0,0.01192
828.0,0.009758
829.0,0.01104
830.0,0.01082
831.0,0.01082
832.0,0.01039
833.0,0.01119
834.0,0.01065
835.0,0.01186
836.0,0.01117
837.0,0.0118
838.0,0.01132
839.0,0.01153
840.0,0.01174
841.0,0.0115
842.0,0.01151
843.0,0.01149
844.0,0.01126
845.0,0.01161
846.0,0.01152
847.0,0.01126
848.0,0.01112
849.0,0.01075
850.0,0.01026
851.0,0.01078
852.0,0.01066
853.0,0.01023
854.0,0.008779
855.0,0.009624
856.0,0.01047
857.0,0.01067
858.0,0.01055
859.0,0.01052
860.0,0.0105
861.0,0.0104
862.0,0.01053
863.0,0.01074
864.0,0.01017
865.0,0.01004
866.0,0.00899
867.0,0.009344
868.0,0.01013
869.0,0.009877
870.0,0.01012
871.0,0.009939
872.0,0.009864
873.0,0.009804
874.0,0.009644
875.0,0.009406
876.0,0.009461
877.0,0.009517
878.0,0.009577
879.0,0.00939
880.0,0.00915
881.0,0.008967
882.0,0.009121
883.0,0.00912
884.0,0.009034
885.0,0.00906
886.0,0.008569
887.0,0.008648
888.0,0.008724
889.0,0.008812
890.0,0.008667
891.0,0.008634
892.0,0.008314
893.0,0.007971
894.0,0.007568
895.0,0.007012
896.0,0.006501
897.0,0.005412
898.0,0.005967
899.0,0.004327
900.0,0.006136
901.0,0.004548
902.0,0.005492
903.0,0.005476
904.0,0.007204
905.0,0.006878
906.0,0.00636
907.0,0.004924
908.0,0.005041
909.0,0.005539
910.0,0.00473
911.0,0.005113
912.0,0.005356
913.0,0.00474
914.0,0.004695
915.0,0.005113
916.0,0.004221
917.0,0.005559
918.0,0.004305
919.0,0.005645
920.0,0.005747
921.0,0.006003
922.0,0.00522
923.0,0.005757
924.0,0.005305
925.0,0.005157
926.0,0.0052
927.0,0.005912
928.0,0.004025
929.0,0.003597
930.0,0.002704
931.0,0.002542
932.0,0.001741
933.0,0.001376
934.0,0.0007083
935.0,0.001411
936.0,0.0008402
937.0,0.0008472
938.0,0.001052
939.0,0.002378
940.0,0.002931
941.0,0.002115
942.0,0.002485
943.0,0.001547
944.0,0.001657
945.0,0.002153
946.0,0.001012
947.0,0.002134
948.0,0.001524
949.0,0.00295
950.0,0.0007098
951.0,0.002888
952.0,0.001425
953.0,0.001897
954.0,0.002401
955.0,0.001916
956.0,0.001877
957.0,0.001398
958.0,0.002768
959.0,0.002095
960.0,0.002364
961.0,0.002711
962.0,0.00254
963.0,0.002998
964.0,0.0027
965.0,0.002963
966.0,0.002948
967.0,0.002915
968.0,0.004193
969.0,0.004363
970.0,0.003933
971.0,0.004643
972.0,0.004378
973.0,0.00366
974.0,0.003437
975.0,0.003589
976.0,0.003336
977.0,0.003928
978.0,0.003657
979.0,0.003862
980.0,0.003575
981.0,0.004442
982.0,0.004178
983.0,0.003963
984.0,0.004586
985.0,0.004115
986.0,0.004668
987.0,0.00452
988.0,0.004494
989.0,0.004622
990.0,0.004433
991.0,0.004588
992.0,0.004602
993.0,0.004446
994.0,0.004572
995.0,0.004556
996.0,0.004513
997.0,0.004506
998.0,0.004466
999.0,0.004436
1000.0,0.004379
1001.0,0.004428
1002.0,0.00425
1003.0,0.004314
1004.0,0.004181
1005.0,0.004027
1006.0,0.00416
1007.0,0.004236
1008.0,0.00419
1009.0,0.004145
1010.0,0.004108
1011.0,0.004152
1012.0,0.004093
1013.0,0.004113
1014.0,0.00407
1015.0,0.004026
1016.0,0.003992
1017.0,0.003985
1018.0,0.003959
1019.0,0.003845
1020.0,0.003905
1021.0,0.003887
1022.0,0.003837
1023.0,0.003863
1024.0,0.003784
1025.0,0.003837
1026.0,0.003802
1027.0,0.003779
1028.0,0.003756
1029.0,0.003697
1030.0,0.003714
1031.0,0.003682
1032.0,0.003659
1033.0,0.00359
1034.0,0.003577
1035.0,0.003574
1036.0,0.003577
1037.0,0.003506
1038.0,0.003509
1039.0,0.003493
1040.0,0.003466
1041.0,0.003465
1042.0,0.003428
1043.0,0.003404
1044.0,0.003403
1045.0,0.003343
1046.0,0.003292
1047.0,0.003309
1048.0,0.003314
1049.0,0.00329
1050.0,0.003261
1051.0,0.003243
1052.0,0.003217
1053.0,0.003179
1054.0,0.003173
1055.0,0.003161
1056.0,0.003136
1057.0,0.003113
1058.0,0.003025
1059.0,0.003015
1060.0,0.002999
1061.0,0.002983
1062.0,0.002985
1063.0,0.002944
1064.0,0.002969
1065.0,0.002932
1066.0,0.002867
1067.0,0.002892
1068.0,0.002815
1069.0,0.002721
1070.0,0.002799
1071.0,0.002843
1072.0,0.002792
1073.0,0.002744
1074.0,0.002817
1075.0,0.002636
1076.0,0.002792
1077.0,0.002715
1078.0,0.002647
1079.0,0.002723
1080.0,0.002641
1081.0,0.002536
1082.0,0.002593
1083.0,0.002598
1084.0,0.002493
1085.0,0.002605
1086.0,0.002318
1087.0,0.002422
1088.0,0.002542
1089.0,0.002427
1090.0,0.002345
1091.0,0.002498
1092.0,0.002489
1093.0,0.002021
1094.0,0.002252
1095.0,0.002104
1096.0,0.001984
1097.0,0.002391
1098.0,0.001932
1099.0,0.002019
1100.0,0.001836
1101.0,0.001863
1102.0,0.001755
1103.0,0.001718
1104.0,0.001717
1105.0,0.001924
1106.0,0.001362
1107.0,0.001792
1108.0,0.001449
1109.0,0.001452
1110.0,0.001748
1111.0,0.001089
1112.0,0.001429
1113.0,0.0008296
1114.0,0.000934
1115.0,0.0007573
1116.0,0.0005765
1117.0,0.0001906
1118.0,0.0006306
1119.0,0.0002893
1120.0,0.0003652
1121.0,0.0004955
1122.0,0.0001932
1123.0,0.0003253
1124.0,0.0002717
1125.0,0.0003602
1126.0,0.0001147
1127.0,0.0004062
1128.0,0.0002291
1129.0,0.0002436
1130.0,0.000156
1131.0,0.0008215
1132.0,0.0006243
1133.0,0.0003703
1134.0,8.626e-05
1135.0,3.203e-05
1136.0,0.0002991
1137.0,0.0007833
1138.0,0.0005337
1139.0,0.0008548
1140.0,0.0006868
1141.0,0.0005007
1142.0,0.0005853
1143.0,0.0008681
1144.0,0.0002689
1145.0,0.000342
1146.0,0.0003686
1147.0,0.0001191
1148.0,0.0007272
1149.0,0.0005592
1150.0,0.0002862
1151.0,0.000506
1152.0,0.0006413
1153.0,0.0006304
1154.0,0.0003211
1155.0,0.0008474
1156.0,0.0007459
1157.0,0.0008582
1158.0,0.0008447
1159.0,0.0009257
1160.0,0.0007689
1161.0,0.0009881
1162.0,0.0009849
1163.0,0.001419
1164.0,0.001175
1165.0,0.001082
1166.0,0.001083
1167.0,0.001193
1168.0,0.001201
1169.0,0.001236
1170.0,0.001363
1171.0,0.001319
1172.0,0.001351
1173.0,0.001346
1174.0,0.000894
1175.0,0.001315
1176.0,0.001474
1177.0,0.00139
1178.0,0.0009838
1179.0,0.001472
1180.0,0.00127
1181.0,0.001313
1182.0,0.0008425
1183.0,0.001293
1184.0,0.001184
1185.0,0.001125
1186.0,0.001385
1187.0,0.001298
1188.0,0.0008405
1189.0,0.001195
1190.0,0.001335
1191.0,0.001238
1192.0,0.001349
1193.0,0.001276
1194.0,0.00132
1195.0,0.001227
1196.0,0.001166
1197.0,0.00132
1198.0,0.001186
1199.0,0.0009666
1200.0,0.001234
1201.0,0.001173
1202.0,0.001169
1203.0,0.001157
1204.0,0.00098
1205.0,0.001197
1206.0,0.001347
1207.0,0.001147
1208.0,0.001138
1209.0,0.001159
1210.0,0.001214
1211.0,0.001137
1212.0,0.001105
1213.0,0.001267
1214.0,0.001133
1215.0,0.001104
1216.0,0.001251
1217.0,0.001206
1218.0,0.001232
1219.0,0.001209
1220.0,0.001226
1221.0,0.001239
1222.0,0.001198
1223.0,0.00118
1224.0,0.001163
1225.0,0.001215
1226.0,0.001224
1227.0,0.001105
1228.0,0.001226
1229.0,0.001213
1230.0,0.001184
1231.0,0.001227
1232.0,0.001215
1233.0,0.001154
1234.0,0.001217
1235.0,0.001203
1236.0,0.00121
1237.0,0.001183
1238.0,0.001198
1239.0,0.001179
1240.0,0.00118
1241.0,0.001167
1242.0,0.001164
1243.0,0.001151
1244.0,0.001154
1245.0,0.001156
1246.0,0.001145
1247.0,0.001136
1248.0,0.00113
1249.0,0.001131
1250.0,0.00112
1251.0,0.0011
1252.0,0.001099
1253.0,0.001082
1254.0,0.001064
1255.0,0.001086
1256.0,0.001043
1257.0,0.001032
1258.0,0.001055
1259.0,0.0009997
1260.0,0.001004
1261.0,0.0009274
1262.0,0.0008884
1263.0,0.000887
1264.0,0.0007979
1265.0,0.0008766
1266.0,0.0008299
1267.0,0.0008495
1268.0,0.0007911
1269.0,0.0004329
1270.0,0.0008363
1271.0,0.0009005
1272.0,0.0009025
1273.0,0.0008882
1274.0,0.0008907
1275.0,0.0009039
1276.0,0.0009131
1277.0,0.0009199
1278.0,0.0009416
1279.0,0.0009296
1280.0,0.0009153
1281.0,0.0008738
1282.0,0.0008446
1283.0,0.0009058
1284.0,0.0009234
1285.0,0.0009275
1286.0,0.0009401
1287.0,0.0009171
1288.0,0.0009155
1289.0,0.0008735
1290.0,0.0009023
1291.0,0.0009138
1292.0,0.0008368
1293.0,0.0008855
1294.0,0.0008755
1295.0,0.0008638
1296.0,0.0008103
1297.0,0.0007548
1298.0,0.0008284
1299.0,0.0008718
1300.0,0.0007034
1301.0,0.000729
1302.0,0.0008166
1303.0,0.0006897
1304.0,0.000562
1305.0,0.0007893
1306.0,0.0007854
1307.0,0.0005747
1308.0,0.0006823
1309.0,0.0007694
1310.0,0.0005565
1311.0,0.000642
1312.0,0.0006209
1313.0,0.0006015
1314.0,0.0005244
1315.0,0.0005145
1316.0,0.0006196
1317.0,0.0005788
1318.0,0.0006399
1319.0,0.0004692
1320.0,0.0004543
1321.0,0.0005424
1322.0,0.0005439
1323.0,0.000385
1324.0,0.000453
1325.0,0.0005913
1326.0,0.0004899
1327.0,0.0004613
1328.0,0.0003868
1329.0,0.0002745
1330.0,0.0003686
1331.0,0.0002054
1332.0,0.000214
1333.0,0.0003058
1334.0,0.0002595
1335.0,0.0003692
1336.0,0.00028
1337.0,0.0002432
1338.0,0.0002637
1339.0,0.0002629
1340.0,0.0002563
1341.0,0.0002439
1342.0,0.0002571
1343.0,0.0001621
1344.0,9.504e-05
1345.0,0.0001386
1346.0,6.462e-05
1347.0,6.52e-05
1348.0,4.047e-06
1349.0,1.46e-05
1350.0,1.516e-05
1351.0,3.631e-06
1352.0,9.749e-07
1353.0,4.96e-08
1354.0,1.705e-07
1355.0,1.373e-09
1356.0,2.402e-08
1357.0,3.649e-08
