interpolation:linear
wavelength,value
280.0,5.376e-23
280.5,1.807e-21
281.0,9.784000000000001e-21
281.5,3.178e-19
282.0,4.985e-19
282.5,1.164e-18
283.0,3.595e-18
283.5,5.836e-18
284.0,9.559e-17
284.5,2.804e-16
285.0,6.783e-16
285.5,2.914e-15
286.0,1.145e-14
286.5,4.981e-14
287.0,1.412e-13
287.5,5.393e-13
288.0,1.754e-12
288.5,5.009e-12
289.0,1.293e-11
289.5,3.834e-11
290.0,1.058e-10
290.5,2.155e-10
291.0,4.629e-10
291.5,1.333e-09
292.0,2.729e-09
292.5,3.797e-09
293.0,8.062e-09
293.5,1.939e-08
294.0,3.021e-08
294.5,3.744e-08
295.0,6.295e-08
295.5,1.068e-07
296.0,2.005e-07
296.5,2.722e-07
297.0,3.588e-07
297.5,9.231e-07
298.0,1.399e-06
298.5,1.362e-06
299.0,2.905e-06
299.5,4.528e-06
300.0,4.794e-06
300.5,6.664e-06
301.0,1.124e-05
301.5,1.674e-05
302.0,1.38e-05
302.5,2.643e-05
303.0,4.613e-05
303.5,5.757e-05
304.0,5.499e-05
304.5,8.608e-05
305.0,0.0001406
305.5,0.0001694
306.0,0.0001672
306.5,0.0002155
307.0,0.0003465
307.5,0.0004996
308.0,0.0005344
308.5,0.0006577
309.0,0.0007365
309.5,0.001024
310.0,0.001125
310.5,0.001905
311.0,0.002573
311.5,0.002563
312.0,0.003007
312.5,0.004069
313.0,0.004665
313.5,0.004295
314.0,0.006103
314.5,0.006419
315.0,0.008689
315.5,0.006678
316.0,0.006701
316.5,0.01085
317.0,0.01343
317.5,0.01348
318.0,0.01141
318.5,0.0166
319.0,0.02134
319.5,0.01525
320.0,0.01805
320.5,0.02658
321.0,0.02743
321.5,0.02666
322.0,0.0242
322.5,0.0212
323.0,0.02339
323.5,0.03335
324.0,0.03962
324.5,0.03829
325.0,0.02984
325.5,0.04172
326.0,0.05515
326.5,0.05862
327.0,0.05706
327.5,0.05349
328.0,0.04382
328.5,0.05079
329.0,0.06565
329.5,0.07621
330.0,0.07533
330.5,0.0567
331.0,0.05653
331.5,0.06001
332.0,0.06907
332.5,0.07027
333.0,0.06881
333.5,0.0593
334.0,0.0602
334.5,0.07324
335.0,0.07094
335.5,0.08411
336.0,0.05814
336.5,0.06586
337.0,0.05274
337.5,0.06496
338.0,0.06626
338.5,0.07808
339.0,0.07737
339.5,0.07423
340.0,0.08537
340.5,0.0772
341.0,0.07651
341.5,0.07049
342.0,0.08426
342.5,0.07885
343.0,0.08634
343.5,0.08105
344.0,0.05881
344.5,0.06017
345.0,0.07992
345.5,0.08169
346.0,0.06946
346.5,0.07864
347.0,0.08409
347.5,0.06785
348.0,0.0775
348.5,0.07753
349.0,0.0719
349.5,0.07107
350.0,0.08783
350.5,0.09251
351.0,0.08239
351.5,0.07965
352.0,0.08565
352.5,0.06689
353.0,0.08427
353.5,0.09008
354.0,0.09346
354.5,0.09465
355.0,0.09414
355.5,0.08498
356.0,0.08884
356.5,0.07576
357.0,0.0625
357.5,0.07643
358.0,0.06051
358.5,0.05165
359.0,0.07211
359.5,0.09164
360.0,0.09705
360.5,0.07751
361.0,0.0706
361.5,0.08121
362.0,0.07015
362.5,0.09696
363.0,0.08697
363.5,0.07999
364.0,0.09769
364.5,0.08338
365.0,0.08478
365.5,0.1063
366.0,0.1124
366.5,0.1055
367.0,0.1026
367.5,0.1063
368.0,0.0929
368.5,0.09359
369.0,0.1009
369.5,0.1074
370.0,0.1144
370.5,0.08863
371.0,0.09456
371.5,0.1181
372.0,0.07828
372.5,0.09372
373.0,0.09518
373.5,0.06183
374.0,0.08971
374.5,0.07418
375.0,0.072
375.5,0.1073
376.0,0.08882
376.5,0.0919
377.0,0.09715
377.5,0.1135
378.0,0.1228
378.5,0.1159
379.0,0.09546
379.5,0.08704
380.0,0.09034
380.5,0.1092
381.0,0.1093
381.5,0.08648
382.0,0.07667
382.5,0.06525
383.0,0.0603
383.5,0.05799
384.0,0.06386
384.5,0.09376
385.0,0.09283
385.5,0.0863
386.0,0.07378
386.5,0.09675
387.0,0.08025
387.5,0.08997
388.0,0.08292
388.5,0.08182
389.0,0.08816
389.5,0.1066
390.0,0.1068
390.5,0.09808
391.0,0.1152
391.5,0.1173
392.0,0.09864
392.5,0.08814
393.0,0.04896
393.5,0.03552
394.0,0.07215
394.5,0.09156
395.0,0.1115
395.5,0.1131
396.0,0.09784
396.5,0.05709
397.0,0.04277
397.5,0.08681
398.0,0.1213
398.5,0.1252
399.0,0.1353
399.5,0.1346
400.0,0.1395
401.0,0.1373
402.0,0.1442
403.0,0.1365
404.0,0.1338
405.0,0.1332
406.0,0.1305
407.0,0.1278
408.0,0.1322
409.0,0.1409
410.0,0.1226
411.0,0.1322
412.0,0.1414
413.0,0.1374
414.0,0.1384
415.0,0.1382
416.0,0.1399
417.0,0.1358
418.0,0.1327
419.0,0.1339
420.0,0.1326
421.0,0.1381
422.0,0.1306
423.0,0.1269
424.0,0.1334
425.0,0.1325
426.0,0.1285
427.0,0.1255
428.0,0.1218
429.0,0.1148
430.0,0.1
431.0,0.0986
432.0,0.1266
433.0,0.1266
434.0,0.117
435.0,0.1216
436.0,0.1364
437.0,0.1339
438.0,0.1212
439.0,0.1246
440.0,0.1278
441.0,0.1315
442.0,0.1402
443.0,0.1358
444.0,0.1382
445.0,0.1346
446.0,0.128
447.0,0.1377
448.0,0.139
449.0,0.1387
450.0,0.1417
451.0,0.1461
452.0,0.14
453.0,0.1311
454.0,0.1362
455.0,0.1361
456.0,0.1384
457.0,0.1397
458.0,0.1339
459.0,0.1322
460.0,0.1315
461.0,0.1336
462.0,0.1339
463.0,0.1325
464.0,0.1299
465.0,0.1278
466.0,0.1284
467.0,0.1253
468.0,0.1259
469.0,0.1256
470.0,0.1208
471.0,0.12
472.0,0.1258
473.0,0.1235
474.0,0.1229
475.0,0.123
476.0,0.1183
477.0,0.1176
478.0,0.1197
479.0,0.1179
480.0,0.117
481.0,0.1181
482.0,0.1179
483.0,0.1159
484.0,0.1131
485.0,0.1074
486.0,0.09361
487.0,0.09767
488.0,0.1065
489.0,0.1061
490.0,0.1108
491.0,0.1082
492.0,0.1015
493.0,0.1042
494.0,0.1046
495.0,0.1049
496.0,0.1048
497.0,0.1055
498.0,0.09968
499.0,0.09993
500.0,0.09602
501.0,0.09325
502.0,0.0909
503.0,0.09359
504.0,0.09026
505.0,0.0929
506.0,0.09534
507.0,0.09029
508.0,0.08715
509.0,0.08924
510.0,0.08837
511.0,0.09025
512.0,0.09062
513.0,0.08513
514.0,0.08388
515.0,0.08239
516.0,0.08156
517.0,0.07194
518.0,0.07508
519.0,0.07816
520.0,0.08035
521.0,0.08042
522.0,0.07976
523.0,0.0777
524.0,0.07967
525.0,0.07976
526.0,0.07543
527.0,0.07029
528.0,0.07354
529.0,0.07677
530.0,0.07497
531.0,0.07539
532.0,0.0722
533.0,0.06959
534.0,0.07119
535.0,0.07233
536.0,0.07259
537.0,0.06932
538.0,0.07009
539.0,0.06903
540.0,0.06569
541.0,0.06556
542.0,0.06701
543.0,0.06576
544.0,0.06637
545.0,0.0657
546.0,0.06547
547.0,0.06498
548.0,0.06376
549.0,0.06353
550.0,0.06383
551.0,0.0626
552.0,0.06259
553.0,0.06101
554.0,0.062
555.0,0.06163
556.0,0.06033
557.0,0.05794
558.0,0.05694
559.0,0.05532
560.0,0.05546
561.0,0.05563
562.0,0.05467
563.0,0.05562
564.0,0.05363
565.0,0.05271
566.0,0.05151
567.0,0.05203
568.0,0.05109
569.0,0.04937
570.0,0.04899
571.0,0.04834
572.0,0.04904
573.0,0.04922
574.0,0.04875
575.0,0.04755
576.0,0.04689
577.0,0.04719
578.0,0.04631
579.0,0.04636
580.0,0.04714
581.0,0.04725
582.0,0.048
583.0,0.04796
584.0,0.0482
585.0,0.04681
586.0,0.0456
587.0,0.04629
588.0,0.04477
589.0,0.03916
590.0,0.04072
591.0,0.04296
592.0,0.042
593.0,0.04239
594.0,0.04168
595.0,0.04019
596.0,0.04165
597.0,0.04079
598.0,0.04039
599.0,0.04011
600.0,0.03992
601.0,0.03937
602.0,0.03887
603.0,0.03932
604.0,0.03979
605.0,0.03944
606.0,0.03917
607.0,0.03947
608.0,0.03895
609.0,0.03894
610.0,0.03859
611.0,0.03872
612.0,0.03854
613.0,0.03797
614.0,0.03737
615.0,0.0381
616.0,0.03676
617.0,0.03659
618.0,0.03789
619.0,0.03739
620.0,0.0375
621.0,0.03738
622.0,0.03679
623.0,0.03607
624.0,0.03532
625.0,0.03511
626.0,0.03551
627.0,0.03572
628.0,0.03265
629.0,0.03441
630.0,0.03347
631.0,0.03431
632.0,0.03382
633.0,0.03483
634.0,0.03445
635.0,0.03491
636.0,0.03438
637.0,0.03486
638.0,0.03514
639.0,0.03467
640.0,0.03426
641.0,0.03415
642.0,0.03392
643.0,0.03429
644.0,0.03409
645.0,0.03401
646.0,0.03302
647.0,0.03235
648.0,0.03227
649.0,0.03151
650.0,0.03175
651.0,0.03304
652.0,0.03133
653.0,0.03237
654.0,0.03191
655.0,0.0305
656.0,0.02701
657.0,0.02765
658.0,0.03095
659.0,0.03109
660.0,0.03112
661.0,0.03123
662.0,0.03115
663.0,0.03044
664.0,0.03075
665.0,0.03071
666.0,0.03064
667.0,0.03054
668.0,0.03047
669.0,0.03085
670.0,0.0306
671.0,0.03051
672.0,0.03016
673.0,0.03054
674.0,0.03032
675.0,0.02994
676.0,0.03005
677.0,0.02966
678.0,0.02964
679.0,0.02907
680.0,0.02919
681.0,0.02888
682.0,0.02872
683.0,0.02855
684.0,0.02828
685.0,0.02841
686.0,0.02812
687.0,0.01689
688.0,0.02028
689.0,0.0203
690.0,0.02146
691.0,0.02284
692.0,0.0239
693.0,0.0236
694.0,0.02335
695.0,0.02449
696.0,0.02444
697.0,0.02618
698.0,0.02567
699.0,0.02473
700.0,0.02432
701.0,0.02389
702.0,0.02405
703.0,0.02402
704.0,0.02481
705.0,0.02473
706.0,0.02465
707.0,0.02459
708.0,0.02453
709.0,0.02454
710.0,0.02438
711.0,0.02429
712.0,0.02417
713.0,0.02377
714.0,0.02375
715.0,0.0228
716.0,0.0227
717.0,0.0189
718.0,0.01719
719.0,0.01559
720.0,0.01624
721.0,0.01822
722.0,0.02126
723.0,0.01945
724.0,0.01717
725.0,0.01677
726.0,0.01754
727.0,0.01783
728.0,0.01651
729.0,0.01726
730.0,0.01817
731.0,0.01725
732.0,0.01863
733.0,0.01986
734.0,0.02032
735.0,0.01977
736.0,0.01964
737.0,0.01963
738.0,0.02003
739.0,0.01955
740.0,0.02002
741.0,0.01976
742.0,0.01971
743.0,0.02012
744.0,0.01998
745.0,0.0199
746.0,0.0199
747.0,0.01985
748.0,0.01972
749.0,0.0194
750.0,0.01932
751.0,0.01905
752.0,0.01907
753.0,0.01909
754.0,0.01905
755.0,0.01887
756.0,0.01879
757.0,0.01874
758.0,0.01842
759.0,0.01784
760.0,0.002556
761.0,0.001358
762.0,0.007844
763.0,0.003824
764.0,0.005742
765.0,0.00773
766.0,0.009733
767.0,0.01275
768.0,0.01528
769.0,0.0157
770.0,0.01637
771.0,0.01652
772.0,0.0165
773.0,0.01654
774.0,0.01637
775.0,0.01616
776.0,0.01628
777.0,0.01598
778.0,0.01579
779.0,0.01573
780.0,0.01557
781.0,0.01552
782.0,0.01556
783.0,0.01524
784.0,0.01525
785.0,0.01508
786.0,0.01518
787.0,0.01477
788.0,0.01449
789.0,0.01442
790.0,0.01387
791.0,0.01404
792.0,0.01389
793.0,0.0136
794.0,0.01388
795.0,0.01403
796.0,0.01339
797.0,0.01334
798.0,0.01381
799.0,0.01364
800.0,0.0133
801.0,0.01317
802.0,0.01306
803.0,0.01289
804.0,0.01286
805.0,0.0128
806.0,0.01317
807.0,0.01293
808.0,0.01288
809.0,0.01252
810.0,0.01232
811.0,0.01223
812.0,0.0117
813.0,0.01136
814.0,0.009702
815.0,0.009608
816.0,0.008825
817.0,0.00896
818.0,0.008547
819.0,0.009716
820.0,0.009042
821.0,0.01087
822.0,0.01046
823.0,0.006635
824.0,0.009973
825.0,0.01052
826.0,0.009967
827.0,0.0106
828.0,0.008646
829.0,0.009814
830.0,0.009627
831.0,0.009623
832.0,0.00923
833.0,0.009944
834.0,0.009468
835.0,0.01058
836.0,0.009926
837.0,0.01052
838.0,0.01008
839.0,0.01027
840.0,0.01047
841.0,0.01024
842.0,0.01026
843.0,0.01026
844.0,0.01004
845.0,0.01037
846.0,0.01029
847.0,0.01006
848.0,0.009928
849.0,0.009598
850.0,0.009151
851.0,0.009611
852.0,0.009505
853.0,0.009122
854.0,0.007826
855.0,0.008586
856.0,0.009338
857.0,0.009527
858.0,0.009416
859.0,0.009397
860.0,0.009383
861.0,0.009295
862.0,0.009413
863.0,0.009604
864.0,0.009091
865.0,0.008979
866.0,0.008043
867.0,0.008362
868.0,0.009064
869.0,0.008842
870.0,0.009058
871.0,0.008899
872.0,0.008832
873.0,0.008779
874.0,0.008637
875.0,0.008424
876.0,0.008473
877.0,0.008524
878.0,0.008576
879.0,0.008409
880.0,0.008193
881.0,0.008026
882.0,0.008161
883.0,0.008163
884.0,0.008085
885.0,0.008108
886.0,0.007659
887.0,0.007736
888.0,0.007801
889.0,0.007885
890.0,0.007747
891.0,0.007722
892.0,0.007424
893.0,0.007113
894.0,0.006733
895.0,0.006218
896.0,0.005773
897.0,0.004806
898.0,0.005288
899.0,0.003852
900.0,0.005445
901.0,0.004035
902.0,0.004867
903.0,0.004849
904.0,0.006404
905.0,0.006117
906.0,0.005654
907.0,0.004367
908.0,0.004479
909.0,0.004912
910.0,0.004198
911.0,0.004553
912.0,0.004751
913.0,0.004205
914.0,0.004172
915.0,0.004521
916.0,0.003757
917.0,0.004921
918.0,0.003822
919.0,0.005005
920.0,0.005124
921.0,0.00533
922.0,0.004636
923.0,0.005116
924.0,0.004695
925.0,0.00457
926.0,0.004596
927.0,0.005223
928.0,0.003557
929.0,0.003182
930.0,0.002403
931.0,0.002259
932.0,0.001565
933.0,0.001248
934.0,0.0006591
935.0,0.001276
936.0,0.0007735
937.0,0.0007802
938.0,0.000962
939.0,0.002112
940.0,0.002588
941.0,0.001882
942.0,0.002198
943.0,0.001391
944.0,0.001487
945.0,0.001915
946.0,0.0009232
947.0,0.001899
948.0,0.001373
949.0,0.002601
950.0,0.0006566
951.0,0.002543
952.0,0.001287
953.0,0.001696
954.0,0.002126
955.0,0.00171
956.0,0.001692
957.0,0.001263
958.0,0.002458
959.0,0.001869
960.0,0.002101
961.0,0.002405
962.0,0.002259
963.0,0.002659
964.0,0.002402
965.0,0.002623
966.0,0.002614
967.0,0.002583
968.0,0.003733
969.0,0.003861
970.0,0.003491
971.0,0.004131
972.0,0.003892
973.0,0.003243
974.0,0.003052
975.0,0.003186
976.0,0.002951
977.0,0.003498
978.0,0.003246
979.0,0.003426
980.0,0.003178
981.0,0.003952
982.0,0.003714
983.0,0.003521
984.0,0.004093
985.0,0.003653
986.0,0.004175
987.0,0.004039
988.0,0.004018
989.0,0.00414
990.0,0.003959
991.0,0.004105
992.0,0.004119
993.0,0.003975
994.0,0.004095
995.0,0.004083
996.0,0.004043
997.0,0.004039
998.0,0.004003
999.0,0.003976
1000.0,0.003923
1001.0,0.003969
1002.0,0.003798
1003.0,0.003867
1004.0,0.003745
1005.0,0.003611
1006.0,0.003729
1007.0,0.003797
1008.0,0.003755
1009.0,0.003712
1010.0,0.003677
1011.0,0.003723
1012.0,0.003668
1013.0,0.003689
1014.0,0.00365
1015.0,0.00361
1016.0,0.003579
1017.0,0.003573
1018.0,0.003551
1019.0,0.003444
1020.0,0.003502
1021.0,0.003487
1022.0,0.00344
1023.0,0.003463
1024.0,0.003388
1025.0,0.003441
1026.0,0.003409
1027.0,0.003389
1028.0,0.003368
1029.0,0.003314
1030.0,0.003331
1031.0,0.003302
1032.0,0.003282
1033.0,0.00322
1034.0,0.003208
1035.0,0.003206
1036.0,0.003208
1037.0,0.003145
1038.0,0.003147
1039.0,0.003132
1040.0,0.003108
1041.0,0.003107
1042.0,0.003073
1043.0,0.003051
1044.0,0.00305
1045.0,0.002996
1046.0,0.00295
1047.0,0.002964
1048.0,0.002969
1049.0,0.002947
1050.0,0.002921
1051.0,0.002904
1052.0,0.00288
1053.0,0.002846
1054.0,0.00284
1055.0,0.002828
1056.0,0.002805
1057.0,0.002784
1058.0,0.002704
1059.0,0.002695
1060.0,0.00268
1061.0,0.002665
1062.0,0.002667
1063.0,0.00263
1064.0,0.002652
1065.0,0.002618
1066.0,0.002561
1067.0,0.002583
1068.0,0.002513
1069.0,0.00243
1070.0,0.002499
1071.0,0.002541
1072.0,0.002494
1073.0,0.002451
1074.0,0.00252
1075.0,0.002353
1076.0,0.002498
1077.0,0.002426
1078.0,0.002363
1079.0,0.002437
1080.0,0.00236
1081.0,0.002263
1082.0,0.002318
1083.0,0.002325
1084.0,0.002224
1085.0,0.002327
1086.0,0.002067
1087.0,0.002161
1088.0,0.002275
1089.0,0.002164
1090.0,0.002091
1091.0,0.002234
1092.0,0.002226
1093.0,0.001798
1094.0,0.002012
1095.0,0.001867
1096.0,0.00176
1097.0,0.002138
1098.0,0.001711
1099.0,0.001788
1100.0,0.001626
1101.0,0.001653
1102.0,0.001554
1103.0,0.00152
1104.0,0.001519
1105.0,0.001702
1106.0,0.001204
1107.0,0.001587
1108.0,0.001282
1109.0,0.001284
1110.0,0.001543
1111.0,0.0009648
1112.0,0.001263
1113.0,0.0007403
1114.0,0.000829
1115.0,0.0006759
1116.0,0.0005192
1117.0,0.000179
1118.0,0.000565
1119.0,0.0002668
1120.0,0.0003345
1121.0,0.0004482
1122.0,0.000181
1123.0,0.0002989
1124.0,0.0002508
1125.0,0.0003292
1126.0,0.000109
1127.0,0.0003698
1128.0,0.0002136
1129.0,0.0002265
1130.0,0.0001471
1131.0,0.0007261
1132.0,0.0005577
1133.0,0.0003384
1134.0,8.241e-05
1135.0,3.086e-05
1136.0,0.0002759
1137.0,0.0006935
1138.0,0.0004788
1139.0,0.0007548
1140.0,0.0006103
1141.0,0.0004502
1142.0,0.0005229
1143.0,0.0007651
1144.0,0.0002474
1145.0,0.0003127
1146.0,0.0003363
1147.0,0.0001132
1148.0,0.0006437
1149.0,0.0005001
1150.0,0.0002629
1151.0,0.0004542
1152.0,0.00057
1153.0,0.0005612
1154.0,0.0002944
1155.0,0.0007468
1156.0,0.0006598
1157.0,0.0007597
1158.0,0.000748
1159.0,0.0008153
1160.0,0.0006843
1161.0,0.0008749
1162.0,0.0008719
1163.0,0.001254
1164.0,0.00104
1165.0,0.0009567
1166.0,0.0009614
1167.0,0.001059
1168.0,0.001065
1169.0,0.001095
1170.0,0.001209
1171.0,0.001172
1172.0,0.001203
1173.0,0.001194
1174.0,0.0007964
1175.0,0.001171
1176.0,0.001319
1177.0,0.001239
1178.0,0.0008789
1179.0,0.001316
1180.0,0.001131
1181.0,0.001168
1182.0,0.000751
1183.0,0.00115
1184.0,0.001053
1185.0,0.0009996
1186.0,0.001234
1187.0,0.001154
1188.0,0.0007456
1189.0,0.001064
1190.0,0.001192
1191.0,0.001099
1192.0,0.001205
1193.0,0.001138
1194.0,0.001178
1195.0,0.001091
1196.0,0.001036
1197.0,0.001178
1198.0,0.001061
1199.0,0.0008586
1200.0,0.001101
1201.0,0.001042
1202.0,0.001044
1203.0,0.001028
1204.0,0.0008728
1205.0,0.00107
1206.0,0.001206
1207.0,0.001022
1208.0,0.001016
1209.0,0.001034
1210.0,0.001085
1211.0,0.001015
1212.0,0.0009792
1213.0,0.001129
1214.0,0.001005
1215.0,0.0009797
1216.0,0.001117
1217.0,0.001076
1218.0,0.0011
1219.0,0.001078
1220.0,0.001095
1221.0,0.001109
1222.0,0.001071
1223.0,0.001054
1224.0,0.001036
1225.0,0.001086
1226.0,0.001096
1227.0,0.0009845
1228.0,0.001098
1229.0,0.001086
1230.0,0.00106
1231.0,0.0011
1232.0,0.001089
1233.0,0.001031
1234.0,0.001093
1235.0,0.001079
1236.0,0.001086
1237.0,0.001061
1238.0,0.001076
1239.0,0.001058
1240.0,0.00106
1241.0,0.001046
1242.0,0.001045
1243.0,0.001033
1244.0,0.001036
1245.0,0.001038
1246.0,0.001029
1247.0,0.00102
1248.0,0.001013
1249.0,0.001016
1250.0,0.001005
1251.0,0.0009856
1252.0,0.0009865
1253.0,0.0009685
1254.0,0.0009507
1255.0,0.0009744
1256.0,0.0009315
1257.0,0.0009209
1258.0,0.000945
1259.0,0.0008894
1260.0,0.0008936
1261.0,0.0008198
1262.0,0.0007827
1263.0,0.0007814
1264.0,0.0006985
1265.0,0.0007721
1266.0,0.0007281
1267.0,0.0007473
1268.0,0.0006931
1269.0,0.0003801
1270.0,0.0007347
1271.0,0.0007965
1272.0,0.0007984
1273.0,0.0007852
1274.0,0.0007883
1275.0,0.0008009
1276.0,0.0008102
1277.0,0.0008183
1278.0,0.0008396
1279.0,0.0008296
1280.0,0.0008165
1281.0,0.0007808
1282.0,0.0007567
1283.0,0.000811
1284.0,0.0008266
1285.0,0.0008306
1286.0,0.0008429
1287.0,0.0008205
1288.0,0.0008199
1289.0,0.0007786
1290.0,0.0008081
1291.0,0.0008192
1292.0,0.0007447
1293.0,0.0007928
1294.0,0.0007837
1295.0,0.0007703
1296.0,0.0007203
1297.0,0.0006699
1298.0,0.0007386
1299.0,0.0007809
1300.0,0.0006256
1301.0,0.000648
1302.0,0.0007287
1303.0,0.0006135
1304.0,0.0004978
1305.0,0.0007043
1306.0,0.0006992
1307.0,0.0005102
1308.0,0.0006078
1309.0,0.000683
1310.0,0.0004933
1311.0,0.0005712
1312.0,0.0005526
1313.0,0.0005331
1314.0,0.0004645
1315.0,0.000455
1316.0,0.0005502
1317.0,0.0005138
1318.0,0.0005689
1319.0,0.0004156
1320.0,0.0004031
1321.0,0.0004809
1322.0,0.0004807
1323.0,0.0003408
1324.0,0.000402
1325.0,0.0005236
1326.0,0.000434
1327.0,0.0004085
1328.0,0.000343
1329.0,0.0002444
1330.0,0.0003262
1331.0,0.0001849
1332.0,0.000192
1333.0,0.0002708
1334.0,0.0002327
1335.0,0.0003258
1336.0,0.0002489
1337.0,0.0002179
1338.0,0.0002352
1339.0,0.0002342
1340.0,0.0002289
1341.0,0.0002175
1342.0,0.000229
1343.0,0.0001478
1344.0,8.79e-05
1345.0,0.0001266
1346.0,6.106e-05
1347.0,6.176e-05
