interpolation:linear
wavelength,value
280.0,1.4389999999999999e-22
280.5,4.772e-21
281.0,2.567e-20
281.5,4.01e-19
282.0,5.659e-19
282.5,1.392e-18
283.0,4.391e-18
283.5,7.153e-18
284.0,1.182e-16
284.5,3.46e-16
285.0,5.82e-16
285.5,2.874e-15
286.0,1.158e-14
286.5,5.213e-14
287.0,1.498e-13
287.5,5.788e-13
288.0,2.059e-12
288.5,6.073e-12
289.0,1.594e-11
289.5,4.769e-11
290.0,1.318e-10
290.5,2.684e-10
291.0,5.755e-10
291.5,1.652e-09
292.0,3.321e-09
292.5,4.65e-09
293.0,9.949e-09
293.5,2.415e-08
294.0,3.773e-08
294.5,5.088e-08
295.0,8.61e-08
295.5,1.428e-07
296.0,2.745e-07
296.5,3.822e-07
297.0,5.149e-07
297.5,1.372e-06
298.0,2.148e-06
298.5,2.147e-06
299.0,4.702e-06
299.5,7.702e-06
300.0,8.391e-06
300.5,1.202e-05
301.0,2.132e-05
301.5,3.324e-05
302.0,2.806e-05
302.5,5.567e-05
303.0,0.0001015
303.5,0.0001301
304.0,0.000126
304.5,0.0002041
305.0,0.0003487
305.5,0.0004315
306.0,0.0004302
306.5,0.0005637
307.0,0.0009389
307.5,0.001399
308.0,0.001503
308.5,0.001879
309.0,0.002149
309.5,0.002814
310.0,0.003005
310.5,0.005012
311.0,0.006608
311.5,0.006511
312.0,0.007252
312.5,0.009473
313.0,0.01066
313.5,0.009972
314.0,0.01358
314.5,0.0135
315.0,0.01807
315.5,0.01426
316.0,0.01366
316.5,0.02125
317.0,0.0263
317.5,0.02669
318.0,0.02197
318.5,0.03032
319.0,0.03793
319.5,0.02827
320.0,0.03365
320.5,0.04694
321.0,0.04613
321.5,0.04459
322.0,0.04259
322.5,0.03719
323.0,0.03965
323.5,0.05225
324.0,0.06157
324.5,0.06063
325.0,0.05014
325.5,0.06817
326.0,0.08501
326.5,0.08822
327.0,0.08654
327.5,0.08197
328.0,0.06938
328.5,0.07722
329.0,0.09691
329.5,0.1115
330.0,0.1109
330.5,0.08526
331.0,0.08561
331.5,0.08929
332.0,0.1003
332.5,0.101
333.0,0.0994
333.5,0.08706
334.0,0.08857
334.5,0.1056
335.0,0.1012
335.5,0.1191
336.0,0.08228
336.5,0.0942
337.0,0.07598
337.5,0.0938
338.0,0.09414
338.5,0.1099
339.0,0.1086
339.5,0.1042
340.0,0.1208
340.5,0.109
341.0,0.1071
341.5,0.09825
342.0,0.1172
342.5,0.1095
343.0,0.1201
343.5,0.1128
344.0,0.08255
344.5,0.08388
345.0,0.1108
345.5,0.113
346.0,0.09593
346.5,0.1085
347.0,0.1161
347.5,0.09365
348.0,0.1067
348.5,0.1065
349.0,0.09864
349.5,0.09744
350.0,0.1203
350.5,0.1266
351.0,0.1128
351.5,0.1092
352.0,0.1172
352.5,0.09133
353.0,0.1149
353.5,0.1226
354.0,0.1271
354.5,0.1286
355.0,0.1279
355.5,0.1153
356.0,0.1204
356.5,0.1026
357.0,0.08458
357.5,0.1033
358.0,0.08173
358.5,0.0697
359.0,0.09725
359.5,0.1236
360.0,0.1307
360.5,0.1043
361.0,0.0949
361.5,0.1091
362.0,0.09412
362.5,0.13
363.0,0.1165
363.5,0.1071
364.0,0.1307
364.5,0.1114
365.0,0.1132
365.5,0.1418
366.0,0.1499
366.5,0.1405
367.0,0.1366
367.5,0.1414
368.0,0.1235
368.5,0.1243
369.0,0.1339
369.5,0.1424
370.0,0.1515
370.5,0.1173
371.0,0.1251
371.5,0.1561
372.0,0.1034
372.5,0.1236
373.0,0.1255
373.5,0.08146
374.0,0.1181
374.5,0.09757
375.0,0.09462
375.5,0.1409
376.0,0.1166
376.5,0.1205
377.0,0.1273
377.5,0.1485
378.0,0.1606
378.5,0.1514
379.0,0.1247
379.5,0.1136
380.0,0.1178
380.5,0.1423
381.0,0.1422
381.5,0.1125
382.0,0.09964
382.5,0.08473
383.0,0.07824
383.5,0.07518
384.0,0.08272
384.5,0.1214
385.0,0.1201
385.5,0.1115
386.0,0.09529
386.5,0.1249
387.0,0.1035
387.5,0.1159
388.0,0.1068
388.5,0.1053
389.0,0.1133
389.5,0.1369
390.0,0.137
390.5,0.1258
391.0,0.1477
391.5,0.1502
392.0,0.1262
392.5,0.1127
393.0,0.06255
393.5,0.04535
394.0,0.09204
394.5,0.1167
395.0,0.1421
395.5,0.1439
396.0,0.1245
396.5,0.07257
397.0,0.05431
397.5,0.1102
398.0,0.1539
398.5,0.1586
399.0,0.1713
399.5,0.1703
400.0,0.1764
401.0,0.1734
402.0,0.182
403.0,0.1719
404.0,0.1683
405.0,0.1674
406.0,0.1637
407.0,0.1602
408.0,0.1654
409.0,0.1761
410.0,0.153
411.0,0.1648
412.0,0.1761
413.0,0.1708
414.0,0.1719
415.0,0.1713
416.0,0.1733
417.0,0.168
418.0,0.1639
419.0,0.1651
420.0,0.1634
421.0,0.1699
422.0,0.1605
423.0,0.1557
424.0,0.1636
425.0,0.1623
426.0,0.1572
427.0,0.1534
428.0,0.1486
429.0,0.14
430.0,0.1218
431.0,0.1199
432.0,0.1538
433.0,0.1536
434.0,0.1418
435.0,0.1472
436.0,0.1649
437.0,0.1617
438.0,0.1463
439.0,0.1503
440.0,0.154
441.0,0.1584
442.0,0.1687
443.0,0.1633
444.0,0.1659
445.0,0.1614
446.0,0.1533
447.0,0.1647
448.0,0.1661
449.0,0.1656
450.0,0.169
451.0,0.1742
452.0,0.1668
453.0,0.1559
454.0,0.1618
455.0,0.1617
456.0,0.1643
457.0,0.1657
458.0,0.1588
459.0,0.1567
460.0,0.1558
461.0,0.1582
462.0,0.1585
463.0,0.1566
464.0,0.1533
465.0,0.1507
466.0,0.1513
467.0,0.1475
468.0,0.148
469.0,0.1476
470.0,0.1419
471.0,0.1409
472.0,0.1476
473.0,0.1447
474.0,0.1439
475.0,0.144
476.0,0.1385
477.0,0.1376
478.0,0.1401
479.0,0.138
480.0,0.137
481.0,0.1382
482.0,0.138
483.0,0.1355
484.0,0.132
485.0,0.1252
486.0,0.109
487.0,0.1136
488.0,0.1238
489.0,0.1232
490.0,0.1287
491.0,0.1256
492.0,0.1177
493.0,0.1208
494.0,0.1212
495.0,0.1214
496.0,0.1212
497.0,0.122
498.0,0.1152
499.0,0.1155
500.0,0.111
501.0,0.1078
502.0,0.1051
503.0,0.1082
504.0,0.1043
505.0,0.1073
506.0,0.11
507.0,0.104
508.0,0.1003
509.0,0.1026
510.0,0.1015
511.0,0.1036
512.0,0.104
513.0,0.09768
514.0,0.09625
515.0,0.09454
516.0,0.09359
517.0,0.08254
518.0,0.08614
519.0,0.08966
520.0,0.09217
521.0,0.09227
522.0,0.09154
523.0,0.08918
524.0,0.0915
525.0,0.09168
526.0,0.08675
527.0,0.0809
528.0,0.08469
529.0,0.08846
530.0,0.08643
531.0,0.08696
532.0,0.08329
533.0,0.08027
534.0,0.0821
535.0,0.08339
536.0,0.08365
537.0,0.07985
538.0,0.08072
539.0,0.07949
540.0,0.07566
541.0,0.07553
542.0,0.07722
543.0,0.0758
544.0,0.07653
545.0,0.07578
546.0,0.07552
547.0,0.07495
548.0,0.07353
549.0,0.07326
550.0,0.07361
551.0,0.07219
552.0,0.07217
553.0,0.07036
554.0,0.0715
555.0,0.07109
556.0,0.06961
557.0,0.06687
558.0,0.06575
559.0,0.06392
560.0,0.06412
561.0,0.06435
562.0,0.06328
563.0,0.06442
564.0,0.06214
565.0,0.06111
566.0,0.05973
567.0,0.06035
568.0,0.05929
569.0,0.05732
570.0,0.0569
571.0,0.05615
572.0,0.05698
573.0,0.0572
574.0,0.05666
575.0,0.05526
576.0,0.05446
577.0,0.05478
578.0,0.05373
579.0,0.05374
580.0,0.05459
581.0,0.05468
582.0,0.05549
583.0,0.05542
584.0,0.05567
585.0,0.05404
586.0,0.05262
587.0,0.0534
588.0,0.05166
589.0,0.04523
590.0,0.04703
591.0,0.04959
592.0,0.04852
593.0,0.04896
594.0,0.04817
595.0,0.04651
596.0,0.04818
597.0,0.04723
598.0,0.04677
599.0,0.04647
600.0,0.04625
601.0,0.04561
602.0,0.04503
603.0,0.04553
604.0,0.04606
605.0,0.04563
606.0,0.04528
607.0,0.04559
608.0,0.04494
609.0,0.04488
610.0,0.04444
611.0,0.04455
612.0,0.04429
613.0,0.04359
614.0,0.04287
615.0,0.04367
616.0,0.04209
617.0,0.04187
618.0,0.04333
619.0,0.04273
620.0,0.04282
621.0,0.04267
622.0,0.04197
623.0,0.04113
624.0,0.04025
625.0,0.04
626.0,0.04043
627.0,0.04067
628.0,0.03725
629.0,0.03917
630.0,0.03808
631.0,0.03897
632.0,0.03839
633.0,0.0395
634.0,0.03904
635.0,0.03952
636.0,0.03888
637.0,0.0394
638.0,0.03968
639.0,0.03911
640.0,0.03862
641.0,0.03846
642.0,0.03818
643.0,0.03857
644.0,0.03832
645.0,0.03821
646.0,0.03709
647.0,0.03636
648.0,0.03623
649.0,0.03537
650.0,0.03558
651.0,0.037
652.0,0.0351
653.0,0.03622
654.0,0.03569
655.0,0.0341
656.0,0.03017
657.0,0.03088
658.0,0.03453
659.0,0.03467
660.0,0.03468
661.0,0.03478
662.0,0.03468
663.0,0.03388
664.0,0.0342
665.0,0.03412
666.0,0.03403
667.0,0.0339
668.0,0.03381
669.0,0.0342
670.0,0.03392
671.0,0.03379
672.0,0.0334
673.0,0.0338
674.0,0.03354
675.0,0.0331
676.0,0.0332
677.0,0.03276
678.0,0.03273
679.0,0.03208
680.0,0.03221
681.0,0.03186
682.0,0.03167
683.0,0.03147
684.0,0.03117
685.0,0.0313
686.0,0.03097
687.0,0.01875
688.0,0.02253
689.0,0.02254
690.0,0.02381
691.0,0.02529
692.0,0.0264
693.0,0.02605
694.0,0.02573
695.0,0.02693
696.0,0.02686
697.0,0.02874
698.0,0.02817
699.0,0.02716
700.0,0.0267
701.0,0.02625
702.0,0.02641
703.0,0.02635
704.0,0.0272
705.0,0.02711
706.0,0.02701
707.0,0.02693
708.0,0.02686
709.0,0.02686
710.0,0.02668
711.0,0.02658
712.0,0.02644
713.0,0.02601
714.0,0.02599
715.0,0.02495
716.0,0.02484
717.0,0.02075
718.0,0.01884
719.0,0.01706
720.0,0.0178
721.0,0.01995
722.0,0.02326
723.0,0.02128
724.0,0.01878
725.0,0.01834
726.0,0.01919
727.0,0.01948
728.0,0.01804
729.0,0.01885
730.0,0.01988
731.0,0.01885
732.0,0.02034
733.0,0.02168
734.0,0.02216
735.0,0.02156
736.0,0.02143
737.0,0.02141
738.0,0.02182
739.0,0.02128
740.0,0.02179
741.0,0.0215
742.0,0.02144
743.0,0.02188
744.0,0.02172
745.0,0.02163
746.0,0.02163
747.0,0.02158
748.0,0.02143
749.0,0.02108
750.0,0.02098
751.0,0.02069
752.0,0.0207
753.0,0.02072
754.0,0.02067
755.0,0.02047
756.0,0.02038
757.0,0.02032
758.0,0.01997
759.0,0.01937
760.0,0.00268
761.0,0.001412
762.0,0.008531
763.0,0.00405
764.0,0.006171
765.0,0.008404
766.0,0.01065
767.0,0.01396
768.0,0.01665
769.0,0.01707
770.0,0.01776
771.0,0.0179
772.0,0.01788
773.0,0.01791
774.0,0.01773
775.0,0.01751
776.0,0.01764
777.0,0.01732
778.0,0.01712
779.0,0.01704
780.0,0.01687
781.0,0.01682
782.0,0.01685
783.0,0.0165
784.0,0.01651
785.0,0.01632
786.0,0.01643
787.0,0.016
788.0,0.0157
789.0,0.01562
790.0,0.01504
791.0,0.0152
792.0,0.01503
793.0,0.01471
794.0,0.015
795.0,0.01516
796.0,0.01449
797.0,0.01444
798.0,0.01493
799.0,0.01475
800.0,0.01439
801.0,0.01424
802.0,0.01414
803.0,0.01395
804.0,0.01392
805.0,0.01385
806.0,0.01423
807.0,0.01398
808.0,0.01393
809.0,0.01355
810.0,0.01333
811.0,0.01323
812.0,0.01269
813.0,0.01232
814.0,0.01053
815.0,0.01042
816.0,0.009565
817.0,0.00972
818.0,0.009273
819.0,0.01054
820.0,0.009804
821.0,0.01177
822.0,0.01133
823.0,0.007176
824.0,0.01081
825.0,0.01137
826.0,0.01078
827.0,0.01146
828.0,0.009362
829.0,0.01061
830.0,0.0104
831.0,0.0104
832.0,0.009976
833.0,0.01075
834.0,0.01023
835.0,0.01141
836.0,0.01073
837.0,0.01135
838.0,0.01088
839.0,0.01108
840.0,0.01129
841.0,0.01105
842.0,0.01107
843.0,0.01106
844.0,0.01083
845.0,0.01118
846.0,0.01109
847.0,0.01084
848.0,0.0107
849.0,0.01035
850.0,0.009869
851.0,0.01037
852.0,0.01026
853.0,0.009841
854.0,0.008445
855.0,0.009261
856.0,0.01007
857.0,0.01027
858.0,0.01015
859.0,0.01013
860.0,0.01011
861.0,0.01001
862.0,0.01014
863.0,0.01034
864.0,0.00979
865.0,0.009668
866.0,0.008659
867.0,0.009
868.0,0.009755
869.0,0.009515
870.0,0.009747
871.0,0.009575
872.0,0.009503
873.0,0.009445
874.0,0.009292
875.0,0.009062
876.0,0.009115
877.0,0.00917
878.0,0.009226
879.0,0.009046
880.0,0.008815
881.0,0.008637
882.0,0.008785
883.0,0.008785
884.0,0.008702
885.0,0.008726
886.0,0.008249
887.0,0.008328
888.0,0.0084
889.0,0.008487
890.0,0.008344
891.0,0.008314
892.0,0.008001
893.0,0.007668
894.0,0.007271
895.0,0.006727
896.0,0.00624
897.0,0.005193
898.0,0.005723
899.0,0.004154
900.0,0.005889
901.0,0.004361
902.0,0.005268
903.0,0.00525
904.0,0.00692
905.0,0.006607
906.0,0.006109
907.0,0.004722
908.0,0.004838
909.0,0.005314
910.0,0.004536
911.0,0.00491
912.0,0.005138
913.0,0.004544
914.0,0.004504
915.0,0.004896
916.0,0.004052
917.0,0.005328
918.0,0.004128
919.0,0.005415
920.0,0.005525
921.0,0.005762
922.0,0.005009
923.0,0.005529
924.0,0.005084
925.0,0.004945
926.0,0.004981
927.0,0.005665
928.0,0.003851
929.0,0.003441
930.0,0.00259
931.0,0.002435
932.0,0.001672
933.0,0.001326
934.0,0.0006881
935.0,0.001358
936.0,0.0008137
937.0,0.0008205
938.0,0.001016
939.0,0.002277
940.0,0.002803
941.0,0.002025
942.0,0.002375
943.0,0.001487
944.0,0.001593
945.0,0.002062
946.0,0.0009771
947.0,0.002044
948.0,0.001466
949.0,0.002817
950.0,0.0006886
951.0,0.002757
952.0,0.001371
953.0,0.00182
954.0,0.002297
955.0,0.001837
956.0,0.001808
957.0,0.001346
958.0,0.002654
959.0,0.00201
960.0,0.002264
961.0,0.002597
962.0,0.002436
963.0,0.002873
964.0,0.00259
965.0,0.002838
966.0,0.002825
967.0,0.002792
968.0,0.004028
969.0,0.004182
970.0,0.003773
971.0,0.00446
972.0,0.004204
973.0,0.003509
974.0,0.003297
975.0,0.003443
976.0,0.003195
977.0,0.003773
978.0,0.003509
979.0,0.003705
980.0,0.003432
981.0,0.004268
982.0,0.004011
983.0,0.003804
984.0,0.004411
985.0,0.003949
986.0,0.004494
987.0,0.004349
988.0,0.004324
989.0,0.004452
990.0,0.004265
991.0,0.004417
992.0,0.004431
993.0,0.004279
994.0,0.004404
995.0,0.004389
996.0,0.004347
997.0,0.004341
998.0,0.004303
999.0,0.004274
1000.0,0.004218
1001.0,0.004266
1002.0,0.00409
1003.0,0.004156
1004.0,0.004027
1005.0,0.00388
1006.0,0.004008
1007.0,0.004081
1008.0,0.004036
1009.0,0.003992
1010.0,0.003956
1011.0,0.004001
1012.0,0.003943
1013.0,0.003964
1014.0,0.003922
1015.0,0.00388
1016.0,0.003846
1017.0,0.003839
1018.0,0.003815
1019.0,0.003704
1020.0,0.003763
1021.0,0.003746
1022.0,0.003697
1023.0,0.003722
1024.0,0.003644
1025.0,0.003697
1026.0,0.003663
1027.0,0.003641
1028.0,0.003619
1029.0,0.003562
1030.0,0.003578
1031.0,0.003548
1032.0,0.003526
1033.0,0.003459
1034.0,0.003447
1035.0,0.003444
1036.0,0.003447
1037.0,0.003379
1038.0,0.003381
1039.0,0.003366
1040.0,0.003339
1041.0,0.003339
1042.0,0.003302
1043.0,0.003279
1044.0,0.003278
1045.0,0.00322
1046.0,0.003171
1047.0,0.003187
1048.0,0.003192
1049.0,0.003168
1050.0,0.003141
1051.0,0.003124
1052.0,0.003098
1053.0,0.003061
1054.0,0.003055
1055.0,0.003044
1056.0,0.003019
1057.0,0.002997
1058.0,0.002911
1059.0,0.002902
1060.0,0.002886
1061.0,0.00287
1062.0,0.002873
1063.0,0.002833
1064.0,0.002857
1065.0,0.002821
1066.0,0.002759
1067.0,0.002783
1068.0,0.002708
1069.0,0.002618
1070.0,0.002693
1071.0,0.002736
1072.0,0.002686
1073.0,0.00264
1074.0,0.002712
1075.0,0.002535
1076.0,0.002688
1077.0,0.002612
1078.0,0.002546
1079.0,0.002622
1080.0,0.002541
1081.0,0.002439
1082.0,0.002496
1083.0,0.002501
1084.0,0.002397
1085.0,0.002507
1086.0,0.002228
1087.0,0.002329
1088.0,0.002447
1089.0,0.002333
1090.0,0.002254
1091.0,0.002404
1092.0,0.002396
1093.0,0.00194
1094.0,0.002167
1095.0,0.002019
1096.0,0.001903
1097.0,0.002301
1098.0,0.001851
1099.0,0.001936
1100.0,0.001759
1101.0,0.001787
1102.0,0.001682
1103.0,0.001646
1104.0,0.001644
1105.0,0.001844
1106.0,0.001303
1107.0,0.001717
1108.0,0.001387
1109.0,0.00139
1110.0,0.001673
1111.0,0.001043
1112.0,0.001368
1113.0,0.0007954
1114.0,0.0008937
1115.0,0.0007261
1116.0,0.0005539
1117.0,0.0001858
1118.0,0.0006048
1119.0,0.0002801
1120.0,0.0003524
1121.0,0.000476
1122.0,0.000188
1123.0,0.0003144
1124.0,0.0002631
1125.0,0.0003475
1126.0,0.0001123
1127.0,0.0003913
1128.0,0.0002225
1129.0,0.0002363
1130.0,0.0001523
1131.0,0.0007836
1132.0,0.0005977
1133.0,0.0003569
1134.0,8.467e-05
1135.0,3.159e-05
1136.0,0.0002892
1137.0,0.0007471
1138.0,0.0005117
1139.0,0.0008167
1140.0,0.000657
1141.0,0.0004805
1142.0,0.0005606
1143.0,0.0008281
1144.0,0.0002602
1145.0,0.0003298
1146.0,0.0003551
1147.0,0.0001166
1148.0,0.0006947
1149.0,0.0005358
1150.0,0.0002769
1151.0,0.0004852
1152.0,0.0006133
1153.0,0.0006037
1154.0,0.0003101
1155.0,0.0008089
1156.0,0.0007126
1157.0,0.0008209
1158.0,0.000808
1159.0,0.0008842
1160.0,0.0007368
1161.0,0.000946
1162.0,0.0009428
1163.0,0.001359
1164.0,0.001126
1165.0,0.001035
1166.0,0.001038
1167.0,0.001144
1168.0,0.001151
1169.0,0.001184
1170.0,0.001307
1171.0,0.001266
1172.0,0.001298
1173.0,0.001291
1174.0,0.0008576
1175.0,0.001263
1176.0,0.001419
1177.0,0.001335
1178.0,0.0009454
1179.0,0.001417
1180.0,0.00122
1181.0,0.001261
1182.0,0.0008088
1183.0,0.001241
1184.0,0.001137
1185.0,0.001079
1186.0,0.001331
1187.0,0.001246
1188.0,0.0008053
1189.0,0.001148
1190.0,0.001284
1191.0,0.001187
1192.0,0.001297
1193.0,0.001226
1194.0,0.001269
1195.0,0.001178
1196.0,0.001119
1197.0,0.001269
1198.0,0.001141
1199.0,0.0009271
1200.0,0.001186
1201.0,0.001126
1202.0,0.001124
1203.0,0.00111
1204.0,0.000941
1205.0,0.001151
1206.0,0.001297
1207.0,0.001102
1208.0,0.001094
1209.0,0.001114
1210.0,0.001168
1211.0,0.001093
1212.0,0.001059
1213.0,0.001217
1214.0,0.001086
1215.0,0.001059
1216.0,0.001203
1217.0,0.001159
1218.0,0.001185
1219.0,0.001162
1220.0,0.001179
1221.0,0.001193
1222.0,0.001152
1223.0,0.001135
1224.0,0.001118
1225.0,0.001169
1226.0,0.001179
1227.0,0.001062
1228.0,0.001181
1229.0,0.001168
1230.0,0.00114
1231.0,0.001182
1232.0,0.00117
1233.0,0.00111
1234.0,0.001173
1235.0,0.001159
1236.0,0.001166
1237.0,0.00114
1238.0,0.001155
1239.0,0.001136
1240.0,0.001137
1241.0,0.001124
1242.0,0.001122
1243.0,0.001109
1244.0,0.001112
1245.0,0.001114
1246.0,0.001104
1247.0,0.001095
1248.0,0.001089
1249.0,0.00109
1250.0,0.001079
1251.0,0.001059
1252.0,0.001059
1253.0,0.001042
1254.0,0.001023
1255.0,0.001047
1256.0,0.001003
1257.0,0.0009924
1258.0,0.001016
1259.0,0.0009603
1260.0,0.0009644
1261.0,0.0008887
1262.0,0.0008502
1263.0,0.0008488
1264.0,0.0007615
1265.0,0.0008388
1266.0,0.0007928
1267.0,0.0008125
1268.0,0.0007553
1269.0,0.0004115
1270.0,0.0007994
1271.0,0.0008631
1272.0,0.0008651
1273.0,0.0008512
1274.0,0.000854
1275.0,0.000867
1276.0,0.0008763
1277.0,0.0008836
1278.0,0.0009052
1279.0,0.0008938
1280.0,0.0008801
1281.0,0.0008407
1282.0,0.0008134
1283.0,0.0008721
1284.0,0.000889
1285.0,0.000893
1286.0,0.0009056
1287.0,0.0008827
1288.0,0.0008815
1289.0,0.0008395
1290.0,0.0008688
1291.0,0.0008802
1292.0,0.0008037
1293.0,0.0008525
1294.0,0.0008427
1295.0,0.0008303
1296.0,0.0007779
1297.0,0.0007241
1298.0,0.0007962
1299.0,0.0008395
1300.0,0.0006751
1301.0,0.0006997
1302.0,0.0007851
1303.0,0.0006621
1304.0,0.0005381
1305.0,0.0007588
1306.0,0.0007545
1307.0,0.000551
1308.0,0.0006555
1309.0,0.0007383
1310.0,0.0005333
1311.0,0.0006164
1312.0,0.000596
1313.0,0.0005766
1314.0,0.0005024
1315.0,0.0004925
1316.0,0.0005943
1317.0,0.0005552
1318.0,0.0006143
1319.0,0.0004493
1320.0,0.0004354
1321.0,0.0005199
1322.0,0.0005206
1323.0,0.0003682
1324.0,0.000434
1325.0,0.0005667
1326.0,0.0004693
1327.0,0.0004417
1328.0,0.0003705
1329.0,0.0002628
1330.0,0.0003524
1331.0,0.0001972
1332.0,0.0002053
1333.0,0.000292
1334.0,0.0002493
1335.0,0.0003528
1336.0,0.000268
1337.0,0.0002334
1338.0,0.0002526
1339.0,0.0002518
1340.0,0.0002459
1341.0,0.0002334
1342.0,0.000246
1343.0,0.000156
1344.0,9.213e-05
1345.0,0.0001336
1346.0,6.305e-05
1347.0,6.366e-05
1348.0,4.019e-06
1349.0,1.445e-05
1350.0,1.499e-05
1351.0,3.609e-06
1352.0,9.703e-07
1353.0,4.938e-08
1354.0,1.697e-07
1355.0,1.367e-09
