interpolation:linear
wavelength,value
280.0,6.421999999999999e-22
280.5,2.0850000000000003e-20
281.0,1.113e-19
281.5,5.042e-19
282.0,8.386e-19
282.5,2.074e-18
283.0,6.533e-18
283.5,1.061e-17
284.0,1.727e-16
284.5,5.012e-16
285.0,9.065e-16
285.5,4.439e-15
286.0,1.781e-14
286.5,7.941e-14
287.0,2.265e-13
287.5,8.667e-13
288.0,2.817e-12
288.5,8.65e-12
289.0,2.324e-11
289.5,7.057e-11
290.0,1.964e-10
290.5,4.011e-10
291.0,8.62e-10
291.5,2.476e-09
292.0,5.89e-09
292.5,8.179e-09
293.0,1.733e-08
293.5,4.154e-08
294.0,6.438e-08
294.5,8.53e-08
295.0,1.433e-07
295.5,2.755e-07
296.0,5.24e-07
296.5,7.484e-07
297.0,1.032e-06
297.5,2.866e-06
298.0,4.676e-06
298.5,4.848e-06
299.0,1.105e-05
299.5,1.967e-05
300.0,2.263e-05
300.5,3.452e-05
301.0,6.899e-05
301.5,0.0001226
302.0,0.0001118
302.5,0.0002219
303.0,0.0004078
303.5,0.0005235
304.0,0.0005037
304.5,0.0008035
305.0,0.001343
305.5,0.001638
306.0,0.001622
306.5,0.002104
307.0,0.003432
307.5,0.00501
308.0,0.005362
308.5,0.006631
309.0,0.006832
309.5,0.008191
310.0,0.0084
310.5,0.01373
311.0,0.01752
311.5,0.01701
312.0,0.01771
312.5,0.02213
313.0,0.02431
313.5,0.0232
314.0,0.02998
314.5,0.02784
315.0,0.0368
315.5,0.02997
316.0,0.02718
316.5,0.04033
317.0,0.0499
317.5,0.05125
318.0,0.04087
318.5,0.05311
319.0,0.06445
319.5,0.05032
320.0,0.06027
320.5,0.07912
321.0,0.07364
321.5,0.07074
322.0,0.07147
322.5,0.06215
323.0,0.06379
323.5,0.08049
324.0,0.09413
324.5,0.09418
325.0,0.07981
325.5,0.1052
326.0,0.1288
326.5,0.1308
327.0,0.1292
327.5,0.1235
328.0,0.1074
328.5,0.1154
329.0,0.1409
329.5,0.1606
330.0,0.1606
330.5,0.126
331.0,0.1273
331.5,0.1306
332.0,0.1434
332.5,0.1428
333.0,0.1412
333.5,0.1256
334.0,0.128
334.5,0.1497
335.0,0.1417
335.5,0.1667
336.0,0.1151
336.5,0.1323
337.0,0.1074
337.5,0.1329
338.0,0.1312
338.5,0.1525
339.0,0.1502
339.5,0.1443
340.0,0.1677
340.5,0.1509
341.0,0.1477
341.5,0.1348
342.0,0.1605
342.5,0.1497
343.0,0.1644
343.5,0.1545
344.0,0.1134
344.5,0.1151
345.0,0.1511
345.5,0.1537
346.0,0.1301
346.5,0.1469
347.0,0.1573
347.5,0.1269
348.0,0.144
348.5,0.1435
349.0,0.1327
349.5,0.131
350.0,0.1615
350.5,0.1699
351.0,0.1513
351.5,0.1469
352.0,0.1571
352.5,0.1221
353.0,0.1533
353.5,0.1635
354.0,0.1692
354.5,0.171
355.0,0.1699
355.5,0.153
356.0,0.1596
356.5,0.1359
357.0,0.1119
357.5,0.1366
358.0,0.1079
358.5,0.09193
359.0,0.1282
359.5,0.1629
360.0,0.1721
360.5,0.1371
361.0,0.1246
361.5,0.143
362.0,0.1233
362.5,0.1702
363.0,0.1524
363.5,0.1399
364.0,0.1706
364.5,0.1453
365.0,0.1475
365.5,0.1846
366.0,0.195
366.5,0.1826
367.0,0.1773
367.5,0.1834
368.0,0.16
368.5,0.1609
369.0,0.1733
369.5,0.1841
370.0,0.1956
370.5,0.1514
371.0,0.1612
371.5,0.2011
372.0,0.133
372.5,0.159
373.0,0.1612
373.5,0.1046
374.0,0.1514
374.5,0.125
375.0,0.1211
375.5,0.1803
376.0,0.149
376.5,0.1539
377.0,0.1624
377.5,0.1894
378.0,0.2046
378.5,0.1927
379.0,0.1585
379.5,0.1443
380.0,0.1495
380.5,0.1805
381.0,0.1802
381.5,0.1424
382.0,0.126
382.5,0.1071
383.0,0.09879
383.5,0.09485
384.0,0.1043
384.5,0.1529
385.0,0.1511
385.5,0.1403
386.0,0.1197
386.5,0.1568
387.0,0.1298
387.5,0.1453
388.0,0.1337
388.5,0.1317
389.0,0.1417
389.5,0.1711
390.0,0.1711
390.5,0.1569
391.0,0.1841
391.5,0.1871
392.0,0.157
392.5,0.1401
393.0,0.07771
393.5,0.0563
394.0,0.1142
394.5,0.1447
395.0,0.176
395.5,0.1781
396.0,0.1539
396.5,0.08968
397.0,0.06707
397.5,0.1359
398.0,0.1897
398.5,0.1954
399.0,0.2109
399.5,0.2095
400.0,0.2168
401.0,0.2131
402.0,0.2232
403.0,0.2106
404.0,0.2059
405.0,0.2045
406.0,0.1997
407.0,0.1951
408.0,0.2013
409.0,0.214
410.0,0.1857
411.0,0.1998
412.0,0.2131
413.0,0.2064
414.0,0.2075
415.0,0.2066
416.0,0.2087
417.0,0.2021
418.0,0.1969
419.0,0.1981
420.0,0.1958
421.0,0.2034
422.0,0.1919
423.0,0.186
424.0,0.1952
425.0,0.1935
426.0,0.1871
427.0,0.1824
428.0,0.1765
429.0,0.166
430.0,0.1443
431.0,0.1419
432.0,0.1819
433.0,0.1815
434.0,0.1673
435.0,0.1735
436.0,0.1942
437.0,0.1903
438.0,0.1721
439.0,0.1766
440.0,0.1809
441.0,0.186
442.0,0.1979
443.0,0.1914
444.0,0.1942
445.0,0.1888
446.0,0.179
447.0,0.1921
448.0,0.1936
449.0,0.1929
450.0,0.1968
451.0,0.2025
452.0,0.1937
453.0,0.181
454.0,0.1877
455.0,0.1874
456.0,0.1903
457.0,0.1919
458.0,0.1838
459.0,0.1813
460.0,0.1803
461.0,0.1831
462.0,0.1832
463.0,0.1808
464.0,0.1769
465.0,0.1736
466.0,0.1741
467.0,0.1696
468.0,0.1702
469.0,0.1696
470.0,0.163
471.0,0.1617
472.0,0.1692
473.0,0.1658
474.0,0.1648
475.0,0.1649
476.0,0.1586
477.0,0.1576
478.0,0.1606
479.0,0.1581
480.0,0.157
481.0,0.1585
482.0,0.1581
483.0,0.1551
484.0,0.151
485.0,0.143
486.0,0.1243
487.0,0.1294
488.0,0.1409
489.0,0.1402
490.0,0.1463
491.0,0.1427
492.0,0.1337
493.0,0.1371
494.0,0.1375
495.0,0.1376
496.0,0.1374
497.0,0.1384
498.0,0.1307
499.0,0.1312
500.0,0.1261
501.0,0.1226
502.0,0.1197
503.0,0.1233
504.0,0.119
505.0,0.1224
506.0,0.1255
507.0,0.1186
508.0,0.1142
509.0,0.1168
510.0,0.1154
511.0,0.1178
512.0,0.1182
513.0,0.111
514.0,0.1094
515.0,0.1075
516.0,0.1064
517.0,0.09386
518.0,0.09796
519.0,0.102
520.0,0.1048
521.0,0.105
522.0,0.1042
523.0,0.1016
524.0,0.1043
525.0,0.1046
526.0,0.09907
527.0,0.09249
528.0,0.09692
529.0,0.1013
530.0,0.09906
531.0,0.09973
532.0,0.09557
533.0,0.09211
534.0,0.0942
535.0,0.09565
536.0,0.09591
537.0,0.09152
538.0,0.09249
539.0,0.09111
540.0,0.08674
541.0,0.08663
542.0,0.08862
543.0,0.08702
544.0,0.08791
545.0,0.08708
546.0,0.08681
547.0,0.08615
548.0,0.08452
549.0,0.08421
550.0,0.08463
551.0,0.08301
552.0,0.08299
553.0,0.08092
554.0,0.08226
555.0,0.08182
556.0,0.08014
557.0,0.07703
558.0,0.0758
559.0,0.07375
560.0,0.07404
561.0,0.07437
562.0,0.0732
563.0,0.07457
564.0,0.07199
565.0,0.07083
566.0,0.06926
567.0,0.07002
568.0,0.06883
569.0,0.06662
570.0,0.06614
571.0,0.06529
572.0,0.06631
573.0,0.06657
574.0,0.06595
575.0,0.06432
576.0,0.06336
577.0,0.0637
578.0,0.06243
579.0,0.0624
580.0,0.06332
581.0,0.06335
582.0,0.06424
583.0,0.06411
584.0,0.06437
585.0,0.06246
586.0,0.06079
587.0,0.06169
588.0,0.05972
589.0,0.05236
590.0,0.05445
591.0,0.05739
592.0,0.05619
593.0,0.0567
594.0,0.05583
595.0,0.05398
596.0,0.05589
597.0,0.05484
598.0,0.05433
599.0,0.054
600.0,0.05376
601.0,0.05301
602.0,0.05234
603.0,0.05291
604.0,0.05349
605.0,0.05296
606.0,0.05251
607.0,0.05282
608.0,0.05201
609.0,0.05188
610.0,0.05132
611.0,0.05138
612.0,0.05103
613.0,0.05018
614.0,0.04929
615.0,0.05016
616.0,0.04831
617.0,0.04801
618.0,0.04964
619.0,0.04892
620.0,0.049
621.0,0.0488
622.0,0.04798
623.0,0.047
624.0,0.04597
625.0,0.04566
626.0,0.04613
627.0,0.04639
628.0,0.04265
629.0,0.04469
630.0,0.04343
631.0,0.04435
632.0,0.04366
633.0,0.04487
634.0,0.04429
635.0,0.0448
636.0,0.04403
637.0,0.04458
638.0,0.04485
639.0,0.04417
640.0,0.04357
641.0,0.04335
642.0,0.043
643.0,0.04341
644.0,0.04311
645.0,0.04296
646.0,0.0417
647.0,0.04089
648.0,0.04072
649.0,0.03974
650.0,0.0399
651.0,0.04146
652.0,0.03936
653.0,0.04054
654.0,0.03992
655.0,0.03816
656.0,0.03372
657.0,0.03449
658.0,0.03854
659.0,0.03867
660.0,0.03866
661.0,0.03874
662.0,0.03863
663.0,0.03772
664.0,0.03804
665.0,0.03793
666.0,0.0378
667.0,0.03762
668.0,0.0375
669.0,0.03791
670.0,0.03757
671.0,0.03741
672.0,0.03696
673.0,0.03739
674.0,0.03708
675.0,0.03658
676.0,0.03667
677.0,0.03617
678.0,0.03613
679.0,0.03539
680.0,0.03552
681.0,0.03512
682.0,0.03491
683.0,0.03468
684.0,0.03434
685.0,0.03447
686.0,0.0341
687.0,0.02104
688.0,0.02517
689.0,0.02516
690.0,0.0265
691.0,0.02806
692.0,0.0292
693.0,0.0288
694.0,0.0284
695.0,0.02964
696.0,0.02954
697.0,0.03155
698.0,0.03092
699.0,0.02984
700.0,0.02933
701.0,0.02886
702.0,0.02901
703.0,0.02893
704.0,0.02982
705.0,0.02972
706.0,0.0296
707.0,0.0295
708.0,0.02942
709.0,0.02938
710.0,0.0292
711.0,0.02909
712.0,0.02892
713.0,0.02846
714.0,0.02842
715.0,0.02731
716.0,0.02719
717.0,0.02285
718.0,0.02072
719.0,0.01874
720.0,0.01958
721.0,0.02189
722.0,0.02547
723.0,0.02331
724.0,0.0206
725.0,0.02012
726.0,0.02108
727.0,0.02134
728.0,0.0198
729.0,0.02064
730.0,0.02181
731.0,0.02067
732.0,0.02225
733.0,0.02367
734.0,0.02418
735.0,0.02353
736.0,0.0234
737.0,0.02337
738.0,0.02377
739.0,0.02318
740.0,0.02371
741.0,0.02339
742.0,0.02332
743.0,0.02379
744.0,0.02362
745.0,0.02352
746.0,0.02351
747.0,0.02345
748.0,0.02329
749.0,0.02291
750.0,0.02279
751.0,0.02247
752.0,0.02247
753.0,0.02248
754.0,0.02242
755.0,0.0222
756.0,0.0221
757.0,0.02203
758.0,0.02165
759.0,0.02103
760.0,0.002878
761.0,0.001489
762.0,0.009467
763.0,0.004411
764.0,0.006808
765.0,0.009323
766.0,0.01181
767.0,0.01537
768.0,0.01817
769.0,0.01859
770.0,0.01928
771.0,0.01941
772.0,0.01937
773.0,0.01941
774.0,0.01922
775.0,0.01898
776.0,0.01912
777.0,0.01877
778.0,0.01856
779.0,0.01848
780.0,0.01829
781.0,0.01823
782.0,0.01826
783.0,0.01787
784.0,0.01788
785.0,0.01767
786.0,0.01779
787.0,0.01734
788.0,0.01702
789.0,0.01693
790.0,0.01632
791.0,0.01647
792.0,0.01628
793.0,0.01593
794.0,0.01622
795.0,0.0164
796.0,0.01571
797.0,0.01566
798.0,0.01615
799.0,0.01596
800.0,0.01558
801.0,0.01543
802.0,0.01532
803.0,0.01512
804.0,0.01508
805.0,0.01499
806.0,0.01539
807.0,0.01512
808.0,0.01507
809.0,0.01467
810.0,0.01445
811.0,0.01436
812.0,0.0138
813.0,0.0134
814.0,0.01148
815.0,0.01135
816.0,0.01042
817.0,0.01059
818.0,0.01011
819.0,0.01148
820.0,0.01067
821.0,0.01277
822.0,0.01229
823.0,0.007814
824.0,0.01175
825.0,0.01231
826.0,0.01169
827.0,0.01241
828.0,0.01018
829.0,0.01149
830.0,0.01127
831.0,0.01127
832.0,0.01082
833.0,0.01165
834.0,0.0111
835.0,0.01233
836.0,0.01163
837.0,0.01227
838.0,0.01178
839.0,0.01199
840.0,0.01221
841.0,0.01196
842.0,0.01196
843.0,0.01194
844.0,0.0117
845.0,0.01207
846.0,0.01196
847.0,0.0117
848.0,0.01156
849.0,0.01117
850.0,0.01066
851.0,0.01121
852.0,0.01108
853.0,0.01063
854.0,0.009128
855.0,0.01
856.0,0.01088
857.0,0.01109
858.0,0.01096
859.0,0.01093
860.0,0.01091
861.0,0.01081
862.0,0.01094
863.0,0.01116
864.0,0.01056
865.0,0.01042
866.0,0.009334
867.0,0.009702
868.0,0.01051
869.0,0.01025
870.0,0.0105
871.0,0.01032
872.0,0.01024
873.0,0.01018
874.0,0.01001
875.0,0.009763
876.0,0.009821
877.0,0.009879
878.0,0.009942
879.0,0.009748
880.0,0.009499
881.0,0.00931
882.0,0.009472
883.0,0.009469
884.0,0.009381
885.0,0.009408
886.0,0.008903
887.0,0.008982
888.0,0.009063
889.0,0.00915
890.0,0.009004
891.0,0.008968
892.0,0.008642
893.0,0.008289
894.0,0.007882
895.0,0.007315
896.0,0.006778
897.0,0.005649
898.0,0.006229
899.0,0.004515
900.0,0.006398
901.0,0.004753
902.0,0.005731
903.0,0.005721
904.0,0.007503
905.0,0.007166
906.0,0.006627
907.0,0.005142
908.0,0.005261
909.0,0.00578
910.0,0.004942
911.0,0.005332
912.0,0.005591
913.0,0.004953
914.0,0.004903
915.0,0.005349
916.0,0.004406
917.0,0.005809
918.0,0.004497
919.0,0.005892
920.0,0.005984
921.0,0.006258
922.0,0.005447
923.0,0.006
924.0,0.005543
925.0,0.005386
926.0,0.005436
927.0,0.006174
928.0,0.004218
929.0,0.003772
930.0,0.002835
931.0,0.002664
932.0,0.001822
933.0,0.001437
934.0,0.0007348
935.0,0.001473
936.0,0.0008729
937.0,0.00088
938.0,0.001096
939.0,0.002492
940.0,0.003076
941.0,0.002218
942.0,0.002609
943.0,0.001617
944.0,0.001729
945.0,0.002256
946.0,0.001054
947.0,0.002238
948.0,0.00159
949.0,0.003101
950.0,0.0007363
951.0,0.003035
952.0,0.001489
953.0,0.001986
954.0,0.002518
955.0,0.002008
956.0,0.001955
957.0,0.001462
958.0,0.002894
959.0,0.002191
960.0,0.002478
961.0,0.002838
962.0,0.002658
963.0,0.003136
964.0,0.002822
965.0,0.003101
966.0,0.003085
967.0,0.003051
968.0,0.004368
969.0,0.004557
970.0,0.004105
971.0,0.004836
972.0,0.004562
973.0,0.003825
974.0,0.00359
975.0,0.003745
976.0,0.003489
977.0,0.004093
978.0,0.003818
979.0,0.004031
980.0,0.003729
981.0,0.004627
982.0,0.004357
983.0,0.004134
984.0,0.004771
985.0,0.004292
986.0,0.004851
987.0,0.004703
988.0,0.004675
989.0,0.0048
990.0,0.004613
991.0,0.004767
992.0,0.00478
993.0,0.004624
994.0,0.004749
995.0,0.004731
996.0,0.004686
997.0,0.004679
998.0,0.004638
999.0,0.004606
1000.0,0.004548
1001.0,0.004597
1002.0,0.004419
1003.0,0.004479
1004.0,0.004343
1005.0,0.004181
1006.0,0.00432
1007.0,0.004398
1008.0,0.004352
1009.0,0.004306
1010.0,0.004267
1011.0,0.004311
1012.0,0.00425
1013.0,0.00427
1014.0,0.004225
1015.0,0.00418
1016.0,0.004144
1017.0,0.004138
1018.0,0.00411
1019.0,0.003994
1020.0,0.004054
1021.0,0.004035
1022.0,0.003984
1023.0,0.004011
1024.0,0.003931
1025.0,0.003983
1026.0,0.003947
1027.0,0.003924
1028.0,0.0039
1029.0,0.003839
1030.0,0.003856
1031.0,0.003823
1032.0,0.003799
1033.0,0.003727
1034.0,0.003713
1035.0,0.00371
1036.0,0.003714
1037.0,0.00364
1038.0,0.003643
1039.0,0.003627
1040.0,0.003599
1041.0,0.003598
1042.0,0.003559
1043.0,0.003535
1044.0,0.003534
1045.0,0.003472
1046.0,0.003419
1047.0,0.003437
1048.0,0.003443
1049.0,0.003417
1050.0,0.003388
1051.0,0.00337
1052.0,0.003342
1053.0,0.003303
1054.0,0.003297
1055.0,0.003285
1056.0,0.003259
1057.0,0.003236
1058.0,0.003144
1059.0,0.003135
1060.0,0.003118
1061.0,0.003101
1062.0,0.003104
1063.0,0.003062
1064.0,0.003088
1065.0,0.00305
1066.0,0.002982
1067.0,0.003008
1068.0,0.002928
1069.0,0.00283
1070.0,0.002912
1071.0,0.002956
1072.0,0.002904
1073.0,0.002854
1074.0,0.002928
1075.0,0.002743
1076.0,0.002902
1077.0,0.002823
1078.0,0.002754
1079.0,0.002829
1080.0,0.002746
1081.0,0.00264
1082.0,0.002696
1083.0,0.002699
1084.0,0.002595
1085.0,0.002709
1086.0,0.002414
1087.0,0.002521
1088.0,0.002642
1089.0,0.002527
1090.0,0.002441
1091.0,0.002598
1092.0,0.002587
1093.0,0.002108
1094.0,0.002342
1095.0,0.002195
1096.0,0.002072
1097.0,0.002485
1098.0,0.002019
1099.0,0.002109
1100.0,0.001918
1101.0,0.001947
1102.0,0.001836
1103.0,0.001798
1104.0,0.001796
1105.0,0.00201
1106.0,0.00143
1107.0,0.001873
1108.0,0.001518
1109.0,0.001521
1110.0,0.001829
1111.0,0.001142
1112.0,0.001496
1113.0,0.0008691
1114.0,0.0009803
1115.0,0.0007931
1116.0,0.0006036
1117.0,0.0001971
1118.0,0.0006612
1119.0,0.0003008
1120.0,0.0003814
1121.0,0.00052
1122.0,0.0002001
1123.0,0.0003392
1124.0,0.0002825
1125.0,0.0003761
1126.0,0.000118
1127.0,0.0004249
1128.0,0.0002379
1129.0,0.0002533
1130.0,0.0001611
1131.0,0.0008665
1132.0,0.0006563
1133.0,0.0003874
1134.0,8.849e-05
1135.0,3.259e-05
1136.0,0.0003121
1137.0,0.0008271
1138.0,0.0005602
1139.0,0.000898
1140.0,0.0007216
1141.0,0.000525
1142.0,0.0006146
1143.0,0.0009146
1144.0,0.0002797
1145.0,0.0003578
1146.0,0.0003861
1147.0,0.0001228
1148.0,0.0007649
1149.0,0.000587
1150.0,0.0002975
1151.0,0.000531
1152.0,0.0006744
1153.0,0.000661
1154.0,0.0003353
1155.0,0.0008912
1156.0,0.0007843
1157.0,0.0009005
1158.0,0.0008865
1159.0,0.000972
1160.0,0.0008054
1161.0,0.001035
1162.0,0.001032
1163.0,0.001483
1164.0,0.001229
1165.0,0.001134
1166.0,0.001131
1167.0,0.001247
1168.0,0.001256
1169.0,0.001293
1170.0,0.001424
1171.0,0.001377
1172.0,0.001408
1173.0,0.001406
1174.0,0.0009348
1175.0,0.001371
1176.0,0.001533
1177.0,0.001448
1178.0,0.001026
1179.0,0.001531
1180.0,0.001324
1181.0,0.00137
1182.0,0.0008797
1183.0,0.001348
1184.0,0.001235
1185.0,0.001175
1186.0,0.001443
1187.0,0.001354
1188.0,0.0008794
1189.0,0.001246
1190.0,0.00139
1191.0,0.001292
1192.0,0.001404
1193.0,0.001329
1194.0,0.001374
1195.0,0.00128
1196.0,0.001218
1197.0,0.001374
1198.0,0.001235
1199.0,0.00101
1200.0,0.001286
1201.0,0.001223
1202.0,0.001217
1203.0,0.001207
1204.0,0.001022
1205.0,0.001245
1206.0,0.001401
1207.0,0.001196
1208.0,0.001185
1209.0,0.001206
1210.0,0.001263
1211.0,0.001185
1212.0,0.001155
1213.0,0.001319
1214.0,0.001183
1215.0,0.001152
1216.0,0.001302
1217.0,0.001256
1218.0,0.001283
1219.0,0.001259
1220.0,0.001276
1221.0,0.001289
1222.0,0.001246
1223.0,0.001228
1224.0,0.001212
1225.0,0.001264
1226.0,0.001273
1227.0,0.001152
1228.0,0.001275
1229.0,0.001261
1230.0,0.001232
1231.0,0.001274
1232.0,0.001262
1233.0,0.001201
1234.0,0.001264
1235.0,0.001249
1236.0,0.001256
1237.0,0.001229
1238.0,0.001244
1239.0,0.001224
1240.0,0.001225
1241.0,0.001212
1242.0,0.001208
1243.0,0.001195
1244.0,0.001198
1245.0,0.0012
1246.0,0.001189
1247.0,0.00118
1248.0,0.001173
1249.0,0.001175
1250.0,0.001163
1251.0,0.001142
1252.0,0.001142
1253.0,0.001124
1254.0,0.001106
1255.0,0.001128
1256.0,0.001085
1257.0,0.001074
1258.0,0.001097
1259.0,0.001041
1260.0,0.001045
1261.0,0.0009687
1262.0,0.0009293
1263.0,0.0009279
1264.0,0.0008374
1265.0,0.000917
1266.0,0.0008698
1267.0,0.0008893
1268.0,0.0008299
1269.0,0.0004587
1270.0,0.000876
1271.0,0.0009405
1272.0,0.0009423
1273.0,0.0009277
1274.0,0.0009299
1275.0,0.0009432
1276.0,0.0009522
1277.0,0.0009584
1278.0,0.00098
1279.0,0.0009675
1280.0,0.0009526
1281.0,0.0009089
1282.0,0.0008776
1283.0,0.0009413
1284.0,0.0009598
1285.0,0.0009639
1286.0,0.0009765
1287.0,0.0009535
1288.0,0.0009515
1289.0,0.0009096
1290.0,0.0009377
1291.0,0.0009493
1292.0,0.0008721
1293.0,0.0009205
1294.0,0.0009102
1295.0,0.0008992
1296.0,0.0008451
1297.0,0.000788
1298.0,0.0008625
1299.0,0.000906
1300.0,0.0007341
1301.0,0.0007605
1302.0,0.0008502
1303.0,0.0007195
1304.0,0.0005884
1305.0,0.0008217
1306.0,0.0008183
1307.0,0.0006006
1308.0,0.000711
1309.0,0.0008025
1310.0,0.0005819
1311.0,0.0006697
1312.0,0.000648
1313.0,0.0006287
1314.0,0.0005483
1315.0,0.0005388
1316.0,0.0006469
1317.0,0.0006045
1318.0,0.0006675
1319.0,0.0004914
1320.0,0.000475
1321.0,0.000567
1322.0,0.0005695
1323.0,0.0004039
1324.0,0.0004741
1325.0,0.0006179
1326.0,0.0005126
1327.0,0.0004828
1328.0,0.000405
1329.0,0.0002879
1330.0,0.0003872
1331.0,0.0002153
1332.0,0.0002242
1333.0,0.000322
1334.0,0.0002711
1335.0,0.0003878
1336.0,0.000294
1337.0,0.0002548
1338.0,0.0002768
1339.0,0.0002759
1340.0,0.0002683
1341.0,0.0002563
1342.0,0.0002702
1343.0,0.0001701
1344.0,9.871e-05
1345.0,0.0001451
1346.0,6.69e-05
1347.0,6.75e-05
1348.0,4.084e-06
1349.0,1.483e-05
1350.0,1.542e-05
1351.0,3.659e-06
1352.0,9.793e-07
1353.0,4.977e-08
1354.0,1.711e-07
1355.0,1.377e-09
1356.0,2.41e-08
1357.0,3.662e-08
1358.0,1.617e-09
1359.0,2.037e-10
1360.0,7.36e-10
