interpolation:linear
wavelength,value
280.0,2.079e-22
280.5,6.866e-21
281.0,3.686e-20
281.5,3.875e-19
282.0,6.129e-19
282.5,1.518e-18
283.0,4.803e-18
283.5,7.823e-18
284.0,1.292e-16
284.5,3.775e-16
285.0,6.186e-16
285.5,3.088e-15
286.0,1.246e-14
286.5,5.62e-14
287.0,1.615e-13
287.5,6.239e-13
288.0,2.197e-12
288.5,6.558e-12
289.0,1.733e-11
289.5,5.205e-11
290.0,1.442e-10
290.5,2.936e-10
291.0,6.298e-10
291.5,1.808e-09
292.0,3.624e-09
292.5,5.088e-09
293.0,1.092e-08
293.5,2.66e-08
294.0,4.164e-08
294.5,5.692e-08
295.0,9.65e-08
295.5,1.596e-07
296.0,3.092e-07
296.5,4.342e-07
297.0,5.896e-07
297.5,1.592e-06
298.0,2.523e-06
298.5,2.55e-06
299.0,5.649e-06
299.5,9.464e-06
300.0,1.046e-05
300.5,1.521e-05
301.0,2.773e-05
301.5,4.44e-05
302.0,3.802e-05
302.5,7.594e-05
303.0,0.0001407
303.5,0.0001821
304.0,0.0001769
304.5,0.0002894
305.0,0.000502
305.5,0.0006275
306.0,0.0006281
306.5,0.0008286
307.0,0.001403
307.5,0.002128
308.0,0.002293
308.5,0.002893
309.0,0.003005
309.5,0.00384
310.0,0.004055
310.5,0.006727
311.0,0.008789
311.5,0.008624
312.0,0.009424
312.5,0.01216
313.0,0.01358
313.5,0.01278
314.0,0.01715
314.5,0.01672
315.0,0.02231
315.5,0.01776
316.0,0.01675
316.5,0.02571
317.0,0.03181
317.5,0.0324
318.0,0.02643
318.5,0.03585
319.0,0.04446
319.5,0.03358
320.0,0.04005
320.5,0.0549
321.0,0.05311
321.5,0.05125
322.0,0.04975
322.5,0.04339
323.0,0.04576
323.5,0.05936
324.0,0.06979
324.5,0.06907
325.0,0.0577
325.5,0.07775
326.0,0.09612
326.5,0.09909
327.0,0.09741
327.5,0.09252
328.0,0.07898
328.5,0.08696
329.0,0.1082
329.5,0.1242
330.0,0.1237
330.5,0.09569
331.0,0.09626
331.5,0.09992
332.0,0.1115
332.5,0.1119
333.0,0.1103
333.5,0.09703
334.0,0.09877
334.5,0.1171
335.0,0.1118
335.5,0.1315
336.0,0.09081
336.5,0.1042
337.0,0.0842
337.5,0.104
338.0,0.1039
338.5,0.121
339.0,0.1195
339.5,0.1147
340.0,0.1332
340.5,0.1201
341.0,0.1178
341.5,0.1079
342.0,0.1287
342.5,0.1201
343.0,0.1318
343.5,0.1238
344.0,0.09074
344.5,0.09209
345.0,0.1215
345.5,0.1238
346.0,0.105
346.5,0.1187
347.0,0.127
347.5,0.1025
348.0,0.1166
348.5,0.1164
349.0,0.1077
349.5,0.1064
350.0,0.1313
350.5,0.1382
351.0,0.1231
351.5,0.1193
352.0,0.1279
352.5,0.09959
353.0,0.1252
353.5,0.1336
354.0,0.1384
354.5,0.14
355.0,0.1392
355.5,0.1255
356.0,0.131
356.5,0.1116
357.0,0.09195
357.5,0.1123
358.0,0.0888
358.5,0.07571
359.0,0.1056
359.5,0.1342
360.0,0.1419
360.5,0.1132
361.0,0.1029
361.5,0.1183
362.0,0.102
362.5,0.1409
363.0,0.1262
363.5,0.116
364.0,0.1415
364.5,0.1207
365.0,0.1226
365.5,0.1535
366.0,0.1622
366.5,0.152
367.0,0.1477
367.5,0.1529
368.0,0.1334
368.5,0.1343
369.0,0.1447
369.5,0.1538
370.0,0.1636
370.5,0.1266
371.0,0.135
371.5,0.1684
372.0,0.1115
372.5,0.1334
373.0,0.1353
373.5,0.08781
374.0,0.1273
374.5,0.1051
375.0,0.1019
375.5,0.1518
376.0,0.1255
376.5,0.1297
377.0,0.137
377.5,0.1598
378.0,0.1728
378.5,0.1629
379.0,0.134
379.5,0.1221
380.0,0.1266
380.5,0.1529
381.0,0.1528
381.5,0.1208
382.0,0.107
382.5,0.09093
383.0,0.08395
383.5,0.08064
384.0,0.08871
384.5,0.1301
385.0,0.1287
385.5,0.1195
386.0,0.1021
386.5,0.1337
387.0,0.1108
387.5,0.1241
388.0,0.1143
388.5,0.1126
389.0,0.1213
389.5,0.1464
390.0,0.1466
390.5,0.1345
391.0,0.1579
391.5,0.1606
392.0,0.1348
392.5,0.1204
393.0,0.06679
393.5,0.04842
394.0,0.09825
394.5,0.1246
395.0,0.1516
395.5,0.1535
396.0,0.1327
396.5,0.07737
397.0,0.0579
397.5,0.1174
398.0,0.1639
398.5,0.169
399.0,0.1825
399.5,0.1814
400.0,0.1878
401.0,0.1846
402.0,0.1936
403.0,0.1828
404.0,0.179
405.0,0.1779
406.0,0.1739
407.0,0.1701
408.0,0.1756
409.0,0.1868
410.0,0.1623
411.0,0.1747
412.0,0.1866
413.0,0.1809
414.0,0.182
415.0,0.1814
416.0,0.1834
417.0,0.1777
418.0,0.1733
419.0,0.1745
420.0,0.1727
421.0,0.1795
422.0,0.1694
423.0,0.1644
424.0,0.1727
425.0,0.1712
426.0,0.1658
427.0,0.1617
428.0,0.1566
429.0,0.1474
430.0,0.1282
431.0,0.1262
432.0,0.1619
433.0,0.1617
434.0,0.1491
435.0,0.1548
436.0,0.1734
437.0,0.17
438.0,0.1537
439.0,0.1579
440.0,0.1617
441.0,0.1664
442.0,0.1772
443.0,0.1714
444.0,0.1741
445.0,0.1693
446.0,0.1607
447.0,0.1726
448.0,0.1741
449.0,0.1735
450.0,0.1771
451.0,0.1824
452.0,0.1746
453.0,0.1632
454.0,0.1693
455.0,0.1691
456.0,0.1718
457.0,0.1733
458.0,0.166
459.0,0.1638
460.0,0.1629
461.0,0.1654
462.0,0.1656
463.0,0.1636
464.0,0.1601
465.0,0.1573
466.0,0.1579
467.0,0.1539
468.0,0.1545
469.0,0.154
470.0,0.148
471.0,0.1469
472.0,0.1538
473.0,0.1508
474.0,0.15
475.0,0.1501
476.0,0.1443
477.0,0.1434
478.0,0.146
479.0,0.1438
480.0,0.1428
481.0,0.1441
482.0,0.1438
483.0,0.1412
484.0,0.1375
485.0,0.1304
486.0,0.1134
487.0,0.1182
488.0,0.1288
489.0,0.1282
490.0,0.1338
491.0,0.1306
492.0,0.1224
493.0,0.1255
494.0,0.1259
495.0,0.126
496.0,0.1258
497.0,0.1267
498.0,0.1196
499.0,0.12
500.0,0.1153
501.0,0.112
502.0,0.1092
503.0,0.1125
504.0,0.1085
505.0,0.1116
506.0,0.1144
507.0,0.1081
508.0,0.1042
509.0,0.1066
510.0,0.1054
511.0,0.1076
512.0,0.108
513.0,0.1014
514.0,0.09996
515.0,0.0982
516.0,0.09721
517.0,0.08573
518.0,0.08947
519.0,0.09313
520.0,0.09574
521.0,0.09584
522.0,0.09511
523.0,0.09266
524.0,0.0951
525.0,0.0953
526.0,0.0902
527.0,0.08414
528.0,0.08811
529.0,0.09205
530.0,0.08995
531.0,0.09051
532.0,0.08671
533.0,0.08357
534.0,0.08547
535.0,0.0868
536.0,0.08706
537.0,0.0831
538.0,0.08399
539.0,0.08272
540.0,0.07874
541.0,0.07861
542.0,0.08038
543.0,0.07891
544.0,0.07969
545.0,0.07891
546.0,0.07865
547.0,0.07805
548.0,0.07657
549.0,0.07629
550.0,0.07665
551.0,0.07518
552.0,0.07516
553.0,0.07327
554.0,0.07447
555.0,0.07405
556.0,0.07251
557.0,0.06967
558.0,0.06852
559.0,0.06662
560.0,0.06685
561.0,0.0671
562.0,0.066
563.0,0.0672
564.0,0.06484
565.0,0.06377
566.0,0.06233
567.0,0.06299
568.0,0.06189
569.0,0.05986
570.0,0.05942
571.0,0.05864
572.0,0.05953
573.0,0.05975
574.0,0.05919
575.0,0.05773
576.0,0.05688
577.0,0.05721
578.0,0.0561
579.0,0.0561
580.0,0.05697
581.0,0.05704
582.0,0.05788
583.0,0.05779
584.0,0.05804
585.0,0.05634
586.0,0.05485
587.0,0.05567
588.0,0.05386
589.0,0.04717
590.0,0.04905
591.0,0.05172
592.0,0.05061
593.0,0.05107
594.0,0.05025
595.0,0.04854
596.0,0.05027
597.0,0.04929
598.0,0.04882
599.0,0.04851
600.0,0.04829
601.0,0.04762
602.0,0.04701
603.0,0.04754
604.0,0.04808
605.0,0.04762
606.0,0.04725
607.0,0.04756
608.0,0.04687
609.0,0.04679
610.0,0.04631
611.0,0.04641
612.0,0.04613
613.0,0.04539
614.0,0.04462
615.0,0.04544
616.0,0.04379
617.0,0.04354
618.0,0.04505
619.0,0.04442
620.0,0.04451
621.0,0.04435
622.0,0.04361
623.0,0.04273
624.0,0.04181
625.0,0.04155
626.0,0.04199
627.0,0.04223
628.0,0.03872
629.0,0.04068
630.0,0.03955
631.0,0.04045
632.0,0.03983
633.0,0.04097
634.0,0.04048
635.0,0.04097
636.0,0.0403
637.0,0.04082
638.0,0.0411
639.0,0.04051
640.0,0.03998
641.0,0.03981
642.0,0.03951
643.0,0.0399
644.0,0.03964
645.0,0.03952
646.0,0.03836
647.0,0.03761
648.0,0.03746
649.0,0.03657
650.0,0.03677
651.0,0.03823
652.0,0.03627
653.0,0.03741
654.0,0.03686
655.0,0.03522
656.0,0.03115
657.0,0.03188
658.0,0.03564
659.0,0.03578
660.0,0.03578
661.0,0.03588
662.0,0.03577
663.0,0.03494
664.0,0.03526
665.0,0.03518
666.0,0.03508
667.0,0.03493
668.0,0.03483
669.0,0.03523
670.0,0.03493
671.0,0.0348
672.0,0.03439
673.0,0.0348
674.0,0.03453
675.0,0.03407
676.0,0.03417
677.0,0.03371
678.0,0.03368
679.0,0.033
680.0,0.03313
681.0,0.03277
682.0,0.03258
683.0,0.03237
684.0,0.03205
685.0,0.03218
686.0,0.03184
687.0,0.01936
688.0,0.02325
689.0,0.02325
690.0,0.02454
691.0,0.02605
692.0,0.02717
693.0,0.02681
694.0,0.02647
695.0,0.02768
696.0,0.0276
697.0,0.02953
698.0,0.02894
699.0,0.0279
700.0,0.02743
701.0,0.02698
702.0,0.02713
703.0,0.02707
704.0,0.02793
705.0,0.02783
706.0,0.02773
707.0,0.02765
708.0,0.02758
709.0,0.02756
710.0,0.02739
711.0,0.02728
712.0,0.02713
713.0,0.0267
714.0,0.02666
715.0,0.02561
716.0,0.02549
717.0,0.02132
718.0,0.01935
719.0,0.01752
720.0,0.01829
721.0,0.02048
722.0,0.02387
723.0,0.02184
724.0,0.01928
725.0,0.01883
726.0,0.01971
727.0,0.01999
728.0,0.01852
729.0,0.01934
730.0,0.02041
731.0,0.01935
732.0,0.02086
733.0,0.02223
734.0,0.02272
735.0,0.02211
736.0,0.02198
737.0,0.02196
738.0,0.02236
739.0,0.02181
740.0,0.02232
741.0,0.02202
742.0,0.02197
743.0,0.02241
744.0,0.02225
745.0,0.02216
746.0,0.02215
747.0,0.0221
748.0,0.02195
749.0,0.02159
750.0,0.02149
751.0,0.02119
752.0,0.0212
753.0,0.02121
754.0,0.02116
755.0,0.02095
756.0,0.02086
757.0,0.0208
758.0,0.02044
759.0,0.01983
760.0,0.002726
761.0,0.001429
762.0,0.008771
763.0,0.004135
764.0,0.006328
765.0,0.00864
766.0,0.01096
767.0,0.01434
768.0,0.01707
769.0,0.01749
770.0,0.01818
771.0,0.01832
772.0,0.0183
773.0,0.01833
774.0,0.01815
775.0,0.01792
776.0,0.01805
777.0,0.01772
778.0,0.01752
779.0,0.01744
780.0,0.01727
781.0,0.01721
782.0,0.01725
783.0,0.01688
784.0,0.01689
785.0,0.0167
786.0,0.01681
787.0,0.01638
788.0,0.01607
789.0,0.01598
790.0,0.01539
791.0,0.01555
792.0,0.01538
793.0,0.01505
794.0,0.01534
795.0,0.01551
796.0,0.01483
797.0,0.01478
798.0,0.01527
799.0,0.01508
800.0,0.01472
801.0,0.01457
802.0,0.01446
803.0,0.01427
804.0,0.01424
805.0,0.01417
806.0,0.01455
807.0,0.01429
808.0,0.01424
809.0,0.01386
810.0,0.01364
811.0,0.01355
812.0,0.013
813.0,0.01262
814.0,0.01079
815.0,0.01067
816.0,0.009797
817.0,0.009958
818.0,0.009502
819.0,0.0108
820.0,0.01004
821.0,0.01205
822.0,0.01159
823.0,0.007348
824.0,0.01107
825.0,0.01163
826.0,0.01103
827.0,0.01172
828.0,0.009585
829.0,0.01085
830.0,0.01064
831.0,0.01064
832.0,0.01021
833.0,0.011
834.0,0.01047
835.0,0.01167
836.0,0.01098
837.0,0.0116
838.0,0.01113
839.0,0.01133
840.0,0.01155
841.0,0.0113
842.0,0.01132
843.0,0.0113
844.0,0.01107
845.0,0.01143
846.0,0.01133
847.0,0.01108
848.0,0.01094
849.0,0.01058
850.0,0.01009
851.0,0.01061
852.0,0.01049
853.0,0.01006
854.0,0.008635
855.0,0.009467
856.0,0.0103
857.0,0.0105
858.0,0.01038
859.0,0.01035
860.0,0.01033
861.0,0.01023
862.0,0.01036
863.0,0.01057
864.0,0.01
865.0,0.009878
866.0,0.008846
867.0,0.009195
868.0,0.009966
869.0,0.009721
870.0,0.009958
871.0,0.009782
872.0,0.009708
873.0,0.009648
874.0,0.009491
875.0,0.009257
876.0,0.009311
877.0,0.009367
878.0,0.009425
879.0,0.009241
880.0,0.009005
881.0,0.008824
882.0,0.008975
883.0,0.008975
884.0,0.00889
885.0,0.008916
886.0,0.00843
887.0,0.00851
888.0,0.008584
889.0,0.008671
890.0,0.008527
891.0,0.008496
892.0,0.008178
893.0,0.007839
894.0,0.007439
895.0,0.006888
896.0,0.006387
897.0,0.005316
898.0,0.00586
899.0,0.004251
900.0,0.006028
901.0,0.004466
902.0,0.005394
903.0,0.005377
904.0,0.00708
905.0,0.00676
906.0,0.006251
907.0,0.004835
908.0,0.004952
909.0,0.005441
910.0,0.004645
911.0,0.005024
912.0,0.005261
913.0,0.004654
914.0,0.004611
915.0,0.005018
916.0,0.004147
917.0,0.005458
918.0,0.004227
919.0,0.005544
920.0,0.005651
921.0,0.005898
922.0,0.005128
923.0,0.005658
924.0,0.005209
925.0,0.005065
926.0,0.005104
927.0,0.005804
928.0,0.003949
929.0,0.003528
930.0,0.002653
931.0,0.002494
932.0,0.00171
933.0,0.001354
934.0,0.000699
935.0,0.001388
936.0,0.0008282
937.0,0.0008351
938.0,0.001036
939.0,0.002333
940.0,0.002874
941.0,0.002075
942.0,0.002436
943.0,0.00152
944.0,0.001629
945.0,0.002112
946.0,0.0009964
947.0,0.002094
948.0,0.001498
949.0,0.002891
950.0,0.0007002
951.0,0.00283
952.0,0.001401
953.0,0.001862
954.0,0.002355
955.0,0.001881
956.0,0.001847
957.0,0.001375
958.0,0.002718
959.0,0.002057
960.0,0.00232
961.0,0.002661
962.0,0.002494
963.0,0.002943
964.0,0.002652
965.0,0.002908
966.0,0.002894
967.0,0.002861
968.0,0.004121
969.0,0.004284
970.0,0.003863
971.0,0.004563
972.0,0.004302
973.0,0.003594
974.0,0.003376
975.0,0.003525
976.0,0.003274
977.0,0.00386
978.0,0.003592
979.0,0.003794
980.0,0.003513
981.0,0.004366
982.0,0.004105
983.0,0.003894
984.0,0.00451
985.0,0.004043
986.0,0.004592
987.0,0.004446
988.0,0.00442
989.0,0.004548
990.0,0.00436
991.0,0.004514
992.0,0.004528
993.0,0.004373
994.0,0.004499
995.0,0.004484
996.0,0.004441
997.0,0.004434
998.0,0.004395
999.0,0.004365
1000.0,0.004309
1001.0,0.004357
1002.0,0.004181
1003.0,0.004245
1004.0,0.004114
1005.0,0.003963
1006.0,0.004094
1007.0,0.004169
1008.0,0.004123
1009.0,0.004078
1010.0,0.004042
1011.0,0.004087
1012.0,0.004028
1013.0,0.004048
1014.0,0.004005
1015.0,0.003963
1016.0,0.003928
1017.0,0.003922
1018.0,0.003897
1019.0,0.003784
1020.0,0.003843
1021.0,0.003826
1022.0,0.003776
1023.0,0.003801
1024.0,0.003724
1025.0,0.003776
1026.0,0.003742
1027.0,0.003719
1028.0,0.003697
1029.0,0.003639
1030.0,0.003655
1031.0,0.003624
1032.0,0.003601
1033.0,0.003533
1034.0,0.00352
1035.0,0.003518
1036.0,0.003521
1037.0,0.003451
1038.0,0.003453
1039.0,0.003438
1040.0,0.003411
1041.0,0.00341
1042.0,0.003373
1043.0,0.00335
1044.0,0.003349
1045.0,0.00329
1046.0,0.00324
1047.0,0.003256
1048.0,0.003261
1049.0,0.003237
1050.0,0.003209
1051.0,0.003191
1052.0,0.003166
1053.0,0.003128
1054.0,0.003122
1055.0,0.00311
1056.0,0.003085
1057.0,0.003063
1058.0,0.002975
1059.0,0.002966
1060.0,0.00295
1061.0,0.002934
1062.0,0.002936
1063.0,0.002896
1064.0,0.00292
1065.0,0.002884
1066.0,0.00282
1067.0,0.002845
1068.0,0.002769
1069.0,0.002676
1070.0,0.002753
1071.0,0.002797
1072.0,0.002746
1073.0,0.002699
1074.0,0.002772
1075.0,0.002592
1076.0,0.002747
1077.0,0.00267
1078.0,0.002603
1079.0,0.002679
1080.0,0.002597
1081.0,0.002494
1082.0,0.002551
1083.0,0.002556
1084.0,0.002451
1085.0,0.002562
1086.0,0.002279
1087.0,0.002382
1088.0,0.002501
1089.0,0.002386
1090.0,0.002305
1091.0,0.002458
1092.0,0.002448
1093.0,0.001986
1094.0,0.002215
1095.0,0.002067
1096.0,0.001949
1097.0,0.002352
1098.0,0.001897
1099.0,0.001983
1100.0,0.001802
1101.0,0.00183
1102.0,0.001723
1103.0,0.001686
1104.0,0.001685
1105.0,0.001889
1106.0,0.001336
1107.0,0.001759
1108.0,0.001421
1109.0,0.001425
1110.0,0.001715
1111.0,0.001069
1112.0,0.001402
1113.0,0.0008143
1114.0,0.0009161
1115.0,0.0007434
1116.0,0.0005663
1117.0,0.0001884
1118.0,0.000619
1119.0,0.0002851
1120.0,0.0003593
1121.0,0.0004866
1122.0,0.0001908
1123.0,0.0003203
1124.0,0.0002678
1125.0,0.0003544
1126.0,0.0001135
1127.0,0.0003994
1128.0,0.000226
1129.0,0.0002402
1130.0,0.0001543
1131.0,0.0008044
1132.0,0.0006123
1133.0,0.0003642
1134.0,8.552e-05
1135.0,3.183e-05
1136.0,0.0002945
1137.0,0.0007669
1138.0,0.0005238
1139.0,0.0008379
1140.0,0.0006735
1141.0,0.0004916
1142.0,0.0005742
1143.0,0.0008502
1144.0,0.0002649
1145.0,0.0003364
1146.0,0.0003624
1147.0,0.0001179
1148.0,0.0007127
1149.0,0.0005487
1150.0,0.000282
1151.0,0.0004966
1152.0,0.0006288
1153.0,0.0006185
1154.0,0.0003161
1155.0,0.0008303
1156.0,0.000731
1157.0,0.0008417
1158.0,0.0008284
1159.0,0.0009074
1160.0,0.0007546
1161.0,0.0009696
1162.0,0.0009664
1163.0,0.001393
1164.0,0.001153
1165.0,0.001061
1166.0,0.001063
1167.0,0.001172
1168.0,0.001179
1169.0,0.001213
1170.0,0.001339
1171.0,0.001296
1172.0,0.001327
1173.0,0.001322
1174.0,0.0008779
1175.0,0.001293
1176.0,0.00145
1177.0,0.001366
1178.0,0.0009669
1179.0,0.001448
1180.0,0.001248
1181.0,0.00129
1182.0,0.0008276
1183.0,0.00127
1184.0,0.001163
1185.0,0.001105
1186.0,0.001362
1187.0,0.001276
1188.0,0.000825
1189.0,0.001174
1190.0,0.001313
1191.0,0.001216
1192.0,0.001326
1193.0,0.001254
1194.0,0.001298
1195.0,0.001205
1196.0,0.001146
1197.0,0.001298
1198.0,0.001167
1199.0,0.0009493
1200.0,0.001213
1201.0,0.001152
1202.0,0.001149
1203.0,0.001137
1204.0,0.000963
1205.0,0.001177
1206.0,0.001326
1207.0,0.001127
1208.0,0.001118
1209.0,0.001139
1210.0,0.001194
1211.0,0.001118
1212.0,0.001085
1213.0,0.001245
1214.0,0.001112
1215.0,0.001084
1216.0,0.00123
1217.0,0.001186
1218.0,0.001212
1219.0,0.001189
1220.0,0.001206
1221.0,0.001219
1222.0,0.001178
1223.0,0.00116
1224.0,0.001143
1225.0,0.001195
1226.0,0.001204
1227.0,0.001087
1228.0,0.001207
1229.0,0.001193
1230.0,0.001165
1231.0,0.001207
1232.0,0.001196
1233.0,0.001135
1234.0,0.001198
1235.0,0.001184
1236.0,0.001191
1237.0,0.001164
1238.0,0.001179
1239.0,0.00116
1240.0,0.001162
1241.0,0.001148
1242.0,0.001146
1243.0,0.001133
1244.0,0.001136
1245.0,0.001137
1246.0,0.001127
1247.0,0.001118
1248.0,0.001112
1249.0,0.001114
1250.0,0.001102
1251.0,0.001082
1252.0,0.001082
1253.0,0.001064
1254.0,0.001046
1255.0,0.001069
1256.0,0.001026
1257.0,0.001015
1258.0,0.001038
1259.0,0.0009826
1260.0,0.0009866
1261.0,0.0009105
1262.0,0.0008717
1263.0,0.0008703
1264.0,0.0007819
1265.0,0.0008601
1266.0,0.0008137
1267.0,0.0008333
1268.0,0.0007754
1269.0,0.0004232
1270.0,0.0008202
1271.0,0.0008842
1272.0,0.0008862
1273.0,0.0008721
1274.0,0.0008747
1275.0,0.0008878
1276.0,0.000897
1277.0,0.0009041
1278.0,0.0009258
1279.0,0.000914
1280.0,0.0009
1281.0,0.0008594
1282.0,0.000831
1283.0,0.0008911
1284.0,0.0009084
1285.0,0.0009125
1286.0,0.0009251
1287.0,0.0009022
1288.0,0.0009007
1289.0,0.0008587
1290.0,0.0008877
1291.0,0.0008992
1292.0,0.0008223
1293.0,0.0008711
1294.0,0.0008612
1295.0,0.0008492
1296.0,0.0007962
1297.0,0.0007414
1298.0,0.0008144
1299.0,0.0008577
1300.0,0.000691
1301.0,0.0007162
1302.0,0.0008029
1303.0,0.0006777
1304.0,0.0005515
1305.0,0.000776
1306.0,0.0007719
1307.0,0.0005643
1308.0,0.0006706
1309.0,0.0007558
1310.0,0.0005463
1311.0,0.0006308
1312.0,0.00061
1313.0,0.0005906
1314.0,0.0005148
1315.0,0.0005048
1316.0,0.0006085
1317.0,0.0005685
1318.0,0.0006287
1319.0,0.0004604
1320.0,0.000446
1321.0,0.0005325
1322.0,0.0005337
1323.0,0.0003775
1324.0,0.0004446
1325.0,0.0005806
1326.0,0.0004808
1327.0,0.0004527
1328.0,0.0003796
1329.0,0.0002693
1330.0,0.0003614
1331.0,0.0002017
1332.0,0.0002101
1333.0,0.0002996
1334.0,0.000255
1335.0,0.0003619
1336.0,0.0002747
1337.0,0.0002388
1338.0,0.0002587
1339.0,0.0002579
1340.0,0.0002517
1341.0,0.0002392
1342.0,0.0002521
1343.0,0.0001593
1344.0,9.371e-05
1345.0,0.0001363
1346.0,6.388e-05
1347.0,6.446e-05
1348.0,4.035e-06
1349.0,1.453e-05
1350.0,1.508e-05
1351.0,3.621e-06
1352.0,9.731e-07
1353.0,4.951e-08
1354.0,1.702e-07
1355.0,1.37e-09
1356.0,2.398e-08
1357.0,3.643e-08
