interpolation:linear
wavelength,value
280.0,2.461e-21
280.5,7.752000000000001e-20
281.0,4.097e-19
281.5,3.677e-19
282.0,1.023e-18
282.5,2.677e-18
283.0,8.644e-18
283.5,1.414e-17
284.0,2.307e-16
284.5,6.665e-16
285.0,1.489e-15
285.5,7.185e-15
286.0,2.869e-14
286.5,1.264e-13
287.0,3.575e-13
287.5,1.352e-12
288.0,3.672e-12
288.5,1.208e-11
289.0,3.404e-11
289.5,1.071e-10
290.0,3.047e-10
290.5,6.316e-10
291.0,1.376e-09
291.5,4.002e-09
292.0,8.416e-09
292.5,1.256e-08
293.0,2.907e-08
293.5,7.817e-08
294.0,1.308e-07
294.5,1.655e-07
295.0,2.963e-07
295.5,7.33e-07
296.0,1.438e-06
296.5,2.053e-06
297.0,2.833e-06
297.5,7.885e-06
298.0,1.291e-05
298.5,1.344e-05
299.0,3.081e-05
299.5,5.565e-05
300.0,6.472e-05
300.5,0.0001002
301.0,0.0002069
301.5,0.0003843
302.0,0.0003614
302.5,0.0007015
303.0,0.00125
303.5,0.001569
304.0,0.001481
304.5,0.00225
305.0,0.003506
305.5,0.004083
306.0,0.00397
306.5,0.004994
307.0,0.007609
307.5,0.01039
308.0,0.01098
308.5,0.01312
309.0,0.01325
309.5,0.0151
310.0,0.01513
310.5,0.02444
311.0,0.0306
311.5,0.02946
312.0,0.02948
312.5,0.03589
313.0,0.03888
313.5,0.03753
314.0,0.04703
314.5,0.04195
315.0,0.05503
315.5,0.04563
316.0,0.04006
316.5,0.05782
317.0,0.07152
317.5,0.07397
318.0,0.05786
318.5,0.07256
319.0,0.08644
319.5,0.06938
320.0,0.08339
320.5,0.1056
321.0,0.09508
321.5,0.09098
322.0,0.09506
322.5,0.08246
323.0,0.0827
323.5,0.1028
324.0,0.1197
324.5,0.1207
325.0,0.1028
325.5,0.1329
326.0,0.163
326.5,0.1635
327.0,0.1621
327.5,0.1556
328.0,0.1373
328.5,0.1448
329.0,0.1741
329.5,0.1974
330.0,0.198
330.5,0.1569
331.0,0.159
331.5,0.1617
332.0,0.1754
332.5,0.1735
333.0,0.172
333.5,0.1543
334.0,0.1573
334.5,0.1821
335.0,0.1712
335.5,0.2022
336.0,0.1395
336.5,0.1599
337.0,0.1304
337.5,0.1614
338.0,0.1579
338.5,0.1839
339.0,0.1808
339.5,0.1737
340.0,0.2012
340.5,0.1808
341.0,0.1773
341.5,0.1612
342.0,0.1918
342.5,0.1786
343.0,0.1963
343.5,0.1846
344.0,0.1352
344.5,0.1376
345.0,0.18
345.5,0.1827
346.0,0.1545
346.5,0.1741
347.0,0.1867
347.5,0.1506
348.0,0.1705
348.5,0.1696
349.0,0.1567
349.5,0.1546
350.0,0.1905
350.5,0.2002
351.0,0.1784
351.5,0.1734
352.0,0.1851
352.5,0.1437
353.0,0.1802
353.5,0.1918
354.0,0.1984
354.5,0.2004
355.0,0.1991
355.5,0.1792
356.0,0.1867
356.5,0.1588
357.0,0.1308
357.5,0.1595
358.0,0.1259
358.5,0.1072
359.0,0.1494
359.5,0.1898
360.0,0.2004
360.5,0.1595
361.0,0.1449
361.5,0.1662
362.0,0.1432
362.5,0.1974
363.0,0.1767
363.5,0.1621
364.0,0.1976
364.5,0.1682
365.0,0.1707
365.5,0.2135
366.0,0.2253
366.5,0.2109
367.0,0.2047
367.5,0.2116
368.0,0.1845
368.5,0.1855
369.0,0.1996
369.5,0.2119
370.0,0.2251
370.5,0.174
371.0,0.1853
371.5,0.2309
372.0,0.1527
372.5,0.1824
373.0,0.1849
373.5,0.1199
374.0,0.1735
374.5,0.1432
375.0,0.1387
375.5,0.2062
376.0,0.1703
376.5,0.1758
377.0,0.1855
377.5,0.2162
378.0,0.2335
378.5,0.2198
379.0,0.1807
379.5,0.1644
380.0,0.1702
380.5,0.2054
381.0,0.205
381.5,0.1619
382.0,0.1432
382.5,0.1216
383.0,0.1121
383.5,0.1076
384.0,0.1182
384.5,0.1733
385.0,0.1712
385.5,0.1588
386.0,0.1355
386.5,0.1773
387.0,0.1468
387.5,0.1642
388.0,0.151
388.5,0.1487
389.0,0.1599
389.5,0.1929
390.0,0.1929
390.5,0.1768
391.0,0.2073
391.5,0.2106
392.0,0.1767
392.5,0.1576
393.0,0.08735
393.5,0.06326
394.0,0.1282
394.5,0.1624
395.0,0.1975
395.5,0.1998
396.0,0.1726
396.5,0.1005
397.0,0.07513
397.5,0.1522
398.0,0.2123
398.5,0.2186
399.0,0.2359
399.5,0.2342
400.0,0.2423
401.0,0.238
402.0,0.2491
403.0,0.2348
404.0,0.2294
405.0,0.2276
406.0,0.2222
407.0,0.2169
408.0,0.2236
409.0,0.2375
410.0,0.206
411.0,0.2214
412.0,0.2361
413.0,0.2285
414.0,0.2295
415.0,0.2283
416.0,0.2305
417.0,0.2231
418.0,0.2172
419.0,0.2184
420.0,0.2157
421.0,0.2239
422.0,0.2111
423.0,0.2045
424.0,0.2145
425.0,0.2124
426.0,0.2054
427.0,0.2
428.0,0.1934
429.0,0.1819
430.0,0.1579
431.0,0.1553
432.0,0.1989
433.0,0.1984
434.0,0.1828
435.0,0.1894
436.0,0.2119
437.0,0.2076
438.0,0.1876
439.0,0.1925
440.0,0.1971
441.0,0.2026
442.0,0.2155
443.0,0.2083
444.0,0.2112
445.0,0.2052
446.0,0.1944
447.0,0.2086
448.0,0.2101
449.0,0.2092
450.0,0.2133
451.0,0.2195
452.0,0.2099
453.0,0.196
454.0,0.2031
455.0,0.2027
456.0,0.2059
457.0,0.2075
458.0,0.1988
459.0,0.1961
460.0,0.1951
461.0,0.198
462.0,0.1981
463.0,0.1954
464.0,0.191
465.0,0.1873
466.0,0.1877
467.0,0.1828
468.0,0.1834
469.0,0.1828
470.0,0.1756
471.0,0.1742
472.0,0.1822
473.0,0.1785
474.0,0.1774
475.0,0.1774
476.0,0.1707
477.0,0.1697
478.0,0.1729
479.0,0.1703
480.0,0.1692
481.0,0.1708
482.0,0.1703
483.0,0.167
484.0,0.1624
485.0,0.1537
486.0,0.1335
487.0,0.1389
488.0,0.1512
489.0,0.1505
490.0,0.1571
491.0,0.1532
492.0,0.1436
493.0,0.1472
494.0,0.1475
495.0,0.1477
496.0,0.1475
497.0,0.1486
498.0,0.1405
499.0,0.141
500.0,0.1357
501.0,0.132
502.0,0.1289
503.0,0.133
504.0,0.1284
505.0,0.1321
506.0,0.1354
507.0,0.1279
508.0,0.1231
509.0,0.1258
510.0,0.1243
511.0,0.1268
512.0,0.1272
513.0,0.1195
514.0,0.1178
515.0,0.1157
516.0,0.1146
517.0,0.1011
518.0,0.1055
519.0,0.1098
520.0,0.113
521.0,0.1131
522.0,0.1124
523.0,0.1095
524.0,0.1126
525.0,0.113
526.0,0.1071
527.0,0.1
528.0,0.1049
529.0,0.1097
530.0,0.1073
531.0,0.1081
532.0,0.1036
533.0,0.09989
534.0,0.1021
535.0,0.1037
536.0,0.104
537.0,0.09919
538.0,0.1002
539.0,0.09875
540.0,0.09405
541.0,0.09396
542.0,0.09615
543.0,0.09444
544.0,0.09545
545.0,0.09457
546.0,0.09431
547.0,0.0936
548.0,0.09183
549.0,0.0915
550.0,0.09196
551.0,0.09021
552.0,0.0902
553.0,0.08796
554.0,0.08945
555.0,0.089
556.0,0.08719
557.0,0.08384
558.0,0.08255
559.0,0.08036
560.0,0.08073
561.0,0.08113
562.0,0.0799
563.0,0.08146
564.0,0.07867
565.0,0.07744
566.0,0.07574
567.0,0.0766
568.0,0.07535
569.0,0.07298
570.0,0.07247
571.0,0.07155
572.0,0.0727
573.0,0.073
574.0,0.07233
575.0,0.07055
576.0,0.06948
577.0,0.06983
578.0,0.06841
579.0,0.06833
580.0,0.0693
581.0,0.06928
582.0,0.07021
583.0,0.07004
584.0,0.0703
585.0,0.0682
586.0,0.06636
587.0,0.06735
588.0,0.06523
589.0,0.05727
590.0,0.05955
591.0,0.06273
592.0,0.06147
593.0,0.06201
594.0,0.06111
595.0,0.05913
596.0,0.0612
597.0,0.0601
598.0,0.05955
599.0,0.05921
600.0,0.05894
601.0,0.05813
602.0,0.05739
603.0,0.058
604.0,0.05863
605.0,0.05802
606.0,0.0575
607.0,0.0578
608.0,0.05688
609.0,0.0567
610.0,0.05604
611.0,0.05607
612.0,0.05565
613.0,0.05468
614.0,0.05368
615.0,0.05459
616.0,0.05255
617.0,0.05219
618.0,0.05394
619.0,0.05314
620.0,0.05321
621.0,0.05298
622.0,0.05207
623.0,0.05099
624.0,0.04985
625.0,0.04951
626.0,0.05001
627.0,0.05029
628.0,0.04635
629.0,0.04845
630.0,0.04707
631.0,0.04801
632.0,0.04723
633.0,0.0485
634.0,0.04785
635.0,0.04836
636.0,0.0475
637.0,0.04807
638.0,0.04833
639.0,0.04757
640.0,0.04689
641.0,0.04664
642.0,0.04623
643.0,0.04666
644.0,0.04631
645.0,0.04613
646.0,0.04478
647.0,0.04394
648.0,0.04373
649.0,0.04267
650.0,0.04279
651.0,0.04444
652.0,0.04222
653.0,0.04343
654.0,0.04275
655.0,0.04087
656.0,0.03609
657.0,0.03691
658.0,0.04121
659.0,0.04133
660.0,0.0413
661.0,0.04138
662.0,0.04126
663.0,0.04028
664.0,0.04059
665.0,0.04045
666.0,0.0403
667.0,0.04009
668.0,0.03994
669.0,0.04036
670.0,0.03999
671.0,0.03981
672.0,0.03932
673.0,0.03977
674.0,0.03942
675.0,0.03887
676.0,0.03896
677.0,0.03841
678.0,0.03836
679.0,0.03757
680.0,0.0377
681.0,0.03727
682.0,0.03704
683.0,0.03679
684.0,0.03642
685.0,0.03655
686.0,0.03616
687.0,0.02269
688.0,0.02699
689.0,0.02697
690.0,0.02834
691.0,0.02992
692.0,0.03106
693.0,0.03063
694.0,0.03019
695.0,0.03145
696.0,0.03133
697.0,0.0334
698.0,0.03272
699.0,0.03162
700.0,0.03108
701.0,0.0306
702.0,0.03073
703.0,0.03063
704.0,0.03155
705.0,0.03144
706.0,0.0313
707.0,0.03119
708.0,0.03111
709.0,0.03105
710.0,0.03086
711.0,0.03073
712.0,0.03055
713.0,0.03008
714.0,0.03002
715.0,0.02887
716.0,0.02874
717.0,0.02429
718.0,0.02201
719.0,0.0199
720.0,0.02082
721.0,0.02321
722.0,0.02693
723.0,0.02467
724.0,0.02183
725.0,0.02135
726.0,0.02237
727.0,0.0226
728.0,0.021
729.0,0.02185
730.0,0.02311
731.0,0.0219
732.0,0.02353
733.0,0.025
734.0,0.02552
735.0,0.02485
736.0,0.02471
737.0,0.02468
738.0,0.02505
739.0,0.02443
740.0,0.02498
741.0,0.02464
742.0,0.02456
743.0,0.02505
744.0,0.02486
745.0,0.02475
746.0,0.02475
747.0,0.02469
748.0,0.02451
749.0,0.02411
750.0,0.02398
751.0,0.02364
752.0,0.02364
753.0,0.02364
754.0,0.02358
755.0,0.02334
756.0,0.02323
757.0,0.02316
758.0,0.02276
759.0,0.02213
760.0,0.003084
761.0,0.001577
762.0,0.0102
763.0,0.004753
764.0,0.007349
765.0,0.01004
766.0,0.01265
767.0,0.01634
768.0,0.01918
769.0,0.01959
770.0,0.02028
771.0,0.0204
772.0,0.02036
773.0,0.0204
774.0,0.02019
775.0,0.01995
776.0,0.0201
777.0,0.01974
778.0,0.01951
779.0,0.01943
780.0,0.01923
781.0,0.01916
782.0,0.0192
783.0,0.01878
784.0,0.01879
785.0,0.01856
786.0,0.01868
787.0,0.01823
788.0,0.0179
789.0,0.0178
790.0,0.01718
791.0,0.01731
792.0,0.01711
793.0,0.01674
794.0,0.01703
795.0,0.01722
796.0,0.01652
797.0,0.01647
798.0,0.01696
799.0,0.01676
800.0,0.01637
801.0,0.01622
802.0,0.0161
803.0,0.01589
804.0,0.01585
805.0,0.01575
806.0,0.01616
807.0,0.01588
808.0,0.01582
809.0,0.01542
810.0,0.0152
811.0,0.01512
812.0,0.01455
813.0,0.01413
814.0,0.01214
815.0,0.012
816.0,0.01101
817.0,0.01119
818.0,0.01069
819.0,0.01212
820.0,0.01127
821.0,0.01345
822.0,0.01294
823.0,0.008269
824.0,0.01239
825.0,0.01295
826.0,0.01231
827.0,0.01305
828.0,0.01074
829.0,0.01209
830.0,0.01186
831.0,0.01186
832.0,0.01139
833.0,0.01225
834.0,0.01169
835.0,0.01296
836.0,0.01224
837.0,0.01288
838.0,0.01239
839.0,0.01259
840.0,0.01282
841.0,0.01256
842.0,0.01256
843.0,0.01252
844.0,0.01228
845.0,0.01266
846.0,0.01255
847.0,0.01227
848.0,0.01212
849.0,0.01172
850.0,0.01118
851.0,0.01177
852.0,0.01164
853.0,0.01116
854.0,0.009583
855.0,0.0105
856.0,0.01142
857.0,0.01164
858.0,0.01151
859.0,0.01147
860.0,0.01144
861.0,0.01133
862.0,0.01147
863.0,0.0117
864.0,0.01107
865.0,0.01093
866.0,0.009785
867.0,0.01017
868.0,0.01102
869.0,0.01075
870.0,0.01101
871.0,0.01081
872.0,0.01073
873.0,0.01066
874.0,0.01049
875.0,0.01023
876.0,0.01029
877.0,0.01035
878.0,0.01042
879.0,0.01022
880.0,0.009955
881.0,0.009759
882.0,0.00993
883.0,0.009927
884.0,0.009835
885.0,0.009863
886.0,0.009341
887.0,0.009419
888.0,0.009506
889.0,0.009593
890.0,0.009447
891.0,0.009405
892.0,0.009073
893.0,0.008709
894.0,0.008297
895.0,0.00772
896.0,0.007152
897.0,0.005973
898.0,0.006582
899.0,0.004775
900.0,0.006749
901.0,0.005037
902.0,0.006051
903.0,0.006052
904.0,0.007899
905.0,0.007548
906.0,0.006984
907.0,0.00544
908.0,0.005561
909.0,0.006104
910.0,0.005236
911.0,0.005634
912.0,0.00591
913.0,0.005249
914.0,0.005189
915.0,0.005675
916.0,0.004663
917.0,0.006147
918.0,0.004765
919.0,0.006224
920.0,0.006301
921.0,0.006598
922.0,0.005756
923.0,0.006324
924.0,0.005866
925.0,0.005695
926.0,0.005755
927.0,0.006524
928.0,0.004489
929.0,0.004022
930.0,0.003026
931.0,0.00284
932.0,0.001943
933.0,0.001531
934.0,0.0007797
935.0,0.001566
936.0,0.0009244
937.0,0.0009323
938.0,0.001165
939.0,0.002658
940.0,0.00328
941.0,0.002369
942.0,0.002786
943.0,0.001721
944.0,0.001832
945.0,0.002407
946.0,0.001119
947.0,0.002391
948.0,0.001688
949.0,0.003319
950.0,0.0007794
951.0,0.003246
952.0,0.001586
953.0,0.002118
954.0,0.002685
955.0,0.002143
956.0,0.002069
957.0,0.001558
958.0,0.003068
959.0,0.002329
960.0,0.002642
961.0,0.003018
962.0,0.002824
963.0,0.003328
964.0,0.002994
965.0,0.003291
966.0,0.003277
967.0,0.003242
968.0,0.004604
969.0,0.004817
970.0,0.004338
971.0,0.005093
972.0,0.004808
973.0,0.00405
974.0,0.0038
975.0,0.003958
976.0,0.003699
977.0,0.004317
978.0,0.004037
979.0,0.004258
980.0,0.003939
981.0,0.004874
982.0,0.004596
983.0,0.004364
984.0,0.005014
985.0,0.00453
986.0,0.005092
987.0,0.004946
988.0,0.004916
989.0,0.005035
990.0,0.004852
991.0,0.005002
992.0,0.005015
993.0,0.004859
994.0,0.004981
995.0,0.004961
996.0,0.004915
997.0,0.004906
998.0,0.004864
999.0,0.00483
1000.0,0.004771
1001.0,0.004821
1002.0,0.004641
1003.0,0.004697
1004.0,0.004557
1005.0,0.004383
1006.0,0.00453
1007.0,0.004611
1008.0,0.004564
1009.0,0.004518
1010.0,0.004478
1011.0,0.004521
1012.0,0.004458
1013.0,0.004477
1014.0,0.00443
1015.0,0.004383
1016.0,0.004346
1017.0,0.004339
1018.0,0.004309
1019.0,0.00419
1020.0,0.004251
1021.0,0.00423
1022.0,0.004177
1023.0,0.004206
1024.0,0.004126
1025.0,0.004176
1026.0,0.004139
1027.0,0.004114
1028.0,0.00409
1029.0,0.004026
1030.0,0.004043
1031.0,0.004009
1032.0,0.003983
1033.0,0.003908
1034.0,0.003893
1035.0,0.00389
1036.0,0.003894
1037.0,0.003817
1038.0,0.00382
1039.0,0.003804
1040.0,0.003774
1041.0,0.003774
1042.0,0.003733
1043.0,0.003707
1044.0,0.003707
1045.0,0.003642
1046.0,0.003587
1047.0,0.003605
1048.0,0.003612
1049.0,0.003586
1050.0,0.003555
1051.0,0.003536
1052.0,0.003508
1053.0,0.003467
1054.0,0.003461
1055.0,0.003449
1056.0,0.003422
1057.0,0.003398
1058.0,0.003302
1059.0,0.003292
1060.0,0.003274
1061.0,0.003257
1062.0,0.003261
1063.0,0.003217
1064.0,0.003244
1065.0,0.003205
1066.0,0.003133
1067.0,0.003161
1068.0,0.003078
1069.0,0.002973
1070.0,0.00306
1071.0,0.003104
1072.0,0.003051
1073.0,0.002999
1074.0,0.003074
1075.0,0.002886
1076.0,0.003047
1077.0,0.002968
1078.0,0.002897
1079.0,0.002969
1080.0,0.002886
1081.0,0.002778
1082.0,0.002832
1083.0,0.002834
1084.0,0.002731
1085.0,0.002847
1086.0,0.002542
1087.0,0.002652
1088.0,0.002775
1089.0,0.002659
1090.0,0.00257
1091.0,0.002729
1092.0,0.002717
1093.0,0.002225
1094.0,0.002461
1095.0,0.002318
1096.0,0.00219
1097.0,0.002611
1098.0,0.002137
1099.0,0.002231
1100.0,0.002032
1101.0,0.002061
1102.0,0.001946
1103.0,0.001908
1104.0,0.001906
1105.0,0.002126
1106.0,0.001526
1107.0,0.001984
1108.0,0.001615
1109.0,0.001616
1110.0,0.00194
1111.0,0.001217
1112.0,0.00159
1113.0,0.000927
1114.0,0.001048
1115.0,0.0008451
1116.0,0.0006448
1117.0,0.0002083
1118.0,0.0007069
1119.0,0.0003194
1120.0,0.0004079
1121.0,0.0005586
1122.0,0.0002121
1123.0,0.0003615
1124.0,0.0002999
1125.0,0.0004015
1126.0,0.0001242
1127.0,0.0004546
1128.0,0.0002533
1129.0,0.00027
1130.0,0.0001701
1131.0,0.0009339
1132.0,0.0007047
1133.0,0.0004154
1134.0,9.267e-05
1135.0,3.357e-05
1136.0,0.000334
1137.0,0.0008937
1138.0,0.0006006
1139.0,0.0009596
1140.0,0.0007728
1141.0,0.000562
1142.0,0.0006583
1143.0,0.0009827
1144.0,0.0002967
1145.0,0.0003833
1146.0,0.0004144
1147.0,0.0001296
1148.0,0.0008197
1149.0,0.0006286
1150.0,0.0003154
1151.0,0.0005692
1152.0,0.0007233
1153.0,0.0007052
1154.0,0.0003586
1155.0,0.0009537
1156.0,0.0008399
1157.0,0.0009612
1158.0,0.0009463
1159.0,0.001037
1160.0,0.0008583
1161.0,0.0011
1162.0,0.001097
1163.0,0.001569
1164.0,0.001303
1165.0,0.001206
1166.0,0.001199
1167.0,0.001321
1168.0,0.001332
1169.0,0.001371
1170.0,0.001506
1171.0,0.001455
1172.0,0.001485
1173.0,0.001486
1174.0,0.0009929
1175.0,0.001447
1176.0,0.001612
1177.0,0.001527
1178.0,0.001085
1179.0,0.00161
1180.0,0.001397
1181.0,0.001446
1182.0,0.0009316
1183.0,0.001422
1184.0,0.001304
1185.0,0.001243
1186.0,0.00152
1187.0,0.001428
1188.0,0.0009339
1189.0,0.001314
1190.0,0.001463
1191.0,0.001366
1192.0,0.001477
1193.0,0.0014
1194.0,0.001447
1195.0,0.001351
1196.0,0.001287
1197.0,0.001446
1198.0,0.0013
1199.0,0.001069
1200.0,0.001355
1201.0,0.001292
1202.0,0.001283
1203.0,0.001275
1204.0,0.00108
1205.0,0.00131
1206.0,0.001472
1207.0,0.001262
1208.0,0.001248
1209.0,0.001271
1210.0,0.001329
1211.0,0.001248
1212.0,0.001222
1213.0,0.001388
1214.0,0.00125
1215.0,0.001218
1216.0,0.00137
1217.0,0.001323
1218.0,0.00135
1219.0,0.001326
1220.0,0.001343
1221.0,0.001356
1222.0,0.00131
1223.0,0.001292
1224.0,0.001277
1225.0,0.00133
1226.0,0.001338
1227.0,0.001214
1228.0,0.001338
1229.0,0.001325
1230.0,0.001295
1231.0,0.001337
1232.0,0.001324
1233.0,0.001264
1234.0,0.001325
1235.0,0.001311
1236.0,0.001317
1237.0,0.001291
1238.0,0.001304
1239.0,0.001283
1240.0,0.001285
1241.0,0.001272
1242.0,0.001267
1243.0,0.001253
1244.0,0.001256
1245.0,0.001258
1246.0,0.001247
1247.0,0.001237
1248.0,0.001231
1249.0,0.001232
1250.0,0.00122
1251.0,0.001199
1252.0,0.001197
1253.0,0.00118
1254.0,0.001162
1255.0,0.001184
1256.0,0.001141
1257.0,0.001129
1258.0,0.001152
1259.0,0.001097
1260.0,0.001101
1261.0,0.001024
1262.0,0.0009841
1263.0,0.0009828
1264.0,0.0008909
1265.0,0.0009712
1266.0,0.0009237
1267.0,0.0009426
1268.0,0.0008823
1269.0,0.0004973
1270.0,0.0009294
1271.0,0.0009939
1272.0,0.0009954
1273.0,0.0009804
1274.0,0.0009821
1275.0,0.0009955
1276.0,0.001004
1277.0,0.00101
1278.0,0.001031
1279.0,0.001018
1280.0,0.001002
1281.0,0.0009555
1282.0,0.0009214
1283.0,0.0009885
1284.0,0.001008
1285.0,0.001012
1286.0,0.001025
1287.0,0.001002
1288.0,0.0009993
1289.0,0.0009576
1290.0,0.0009847
1291.0,0.0009964
1292.0,0.0009194
1293.0,0.0009671
1294.0,0.0009563
1295.0,0.0009464
1296.0,0.0008917
1297.0,0.0008328
1298.0,0.0009081
1299.0,0.0009515
1300.0,0.000776
1301.0,0.0008032
1302.0,0.0008952
1303.0,0.0007599
1304.0,0.0006254
1305.0,0.0008651
1306.0,0.0008623
1307.0,0.0006365
1308.0,0.0007498
1309.0,0.0008466
1310.0,0.000617
1311.0,0.0007072
1312.0,0.0006851
1313.0,0.0006657
1314.0,0.0005813
1315.0,0.0005727
1316.0,0.0006843
1317.0,0.0006395
1318.0,0.0007048
1319.0,0.0005226
1320.0,0.0005036
1321.0,0.0006009
1322.0,0.0006048
1323.0,0.0004309
1324.0,0.0005037
1325.0,0.0006541
1326.0,0.0005441
1327.0,0.0005129
1328.0,0.0004306
1329.0,0.0003075
1330.0,0.0004142
1331.0,0.0002305
1332.0,0.0002395
1333.0,0.0003463
1334.0,0.0002881
1335.0,0.0004142
1336.0,0.0003142
1337.0,0.0002719
1338.0,0.0002963
1339.0,0.0002949
1340.0,0.0002856
1341.0,0.0002749
1342.0,0.0002898
1343.0,0.0001833
1344.0,0.0001047
1345.0,0.0001556
1346.0,7.119e-05
1347.0,7.196e-05
1348.0,4.167e-06
1349.0,1.537e-05
1350.0,1.6e-05
1351.0,3.729e-06
1352.0,9.892e-07
1353.0,4.998e-08
1354.0,1.721e-07
1355.0,1.381e-09
1356.0,2.419e-08
1357.0,3.677e-08
1358.0,1.622e-09
1359.0,2.043e-10
1360.0,7.382e-10
1361.0,8.257e-13
1362.0,2.258e-15
1363.0,9.925e-10
