interpolation:linear
wavelength,value
280.0,1.229e-22
280.5,4.0840000000000004e-21
281.0,2.1990000000000003e-20
281.5,4.239e-19
282.0,5.501e-19
282.5,1.346e-18
283.0,4.238e-18
283.5,6.902e-18
284.0,1.14e-16
284.5,3.339e-16
285.0,5.756e-16
285.5,2.817e-15
286.0,1.133e-14
286.5,5.091e-14
287.0,1.462e-13
287.5,5.646e-13
288.0,2.006e-12
288.5,5.884e-12
289.0,1.54e-11
289.5,4.599e-11
290.0,1.271e-10
290.5,2.586e-10
291.0,5.546e-10
291.5,1.592e-09
292.0,3.209e-09
292.5,4.488e-09
293.0,9.59e-09
293.5,2.324e-08
294.0,3.628e-08
294.5,4.849e-08
295.0,8.195e-08
295.5,1.37e-07
296.0,2.623e-07
296.5,3.638e-07
297.0,4.884e-07
297.5,1.294e-06
298.0,2.014e-06
298.5,2.004e-06
299.0,4.368e-06
299.5,7.09e-06
300.0,7.682e-06
300.5,1.094e-05
301.0,1.921e-05
301.5,2.966e-05
302.0,2.49e-05
302.5,4.893e-05
303.0,8.864e-05
303.5,0.0001131
304.0,0.0001093
304.5,0.0001763
305.0,0.0002994
305.5,0.000369
306.0,0.0003674
306.5,0.00048
307.0,0.0007948
307.5,0.001177
308.0,0.001264
308.5,0.001574
309.0,0.001842
309.5,0.002437
310.0,0.002614
310.5,0.004372
311.0,0.005788
311.5,0.005712
312.0,0.006417
312.5,0.008429
313.0,0.00951
313.5,0.008877
314.0,0.01217
314.5,0.0122
315.0,0.01637
315.5,0.01286
316.0,0.01241
316.5,0.01942
317.0,0.02403
317.5,0.02435
318.0,0.02013
318.5,0.028
319.0,0.03517
319.5,0.02605
320.0,0.03098
320.5,0.04357
321.0,0.04312
321.5,0.04172
322.0,0.03955
322.5,0.03455
323.0,0.03703
323.5,0.0492
324.0,0.05804
324.5,0.05702
325.0,0.04688
325.5,0.064
326.0,0.08023
326.5,0.08353
327.0,0.08185
327.5,0.07743
328.0,0.06526
328.5,0.07302
329.0,0.09199
329.5,0.106
330.0,0.1053
330.5,0.08074
331.0,0.081
331.5,0.08468
332.0,0.09547
332.5,0.09623
333.0,0.09464
333.5,0.08272
334.0,0.08413
334.5,0.1006
335.0,0.09649
335.5,0.1137
336.0,0.07855
336.5,0.08982
337.0,0.07238
337.5,0.08933
338.0,0.08985
338.5,0.105
339.0,0.1038
339.5,0.09962
340.0,0.1154
340.5,0.1042
341.0,0.1024
341.5,0.09401
342.0,0.1122
342.5,0.1049
343.0,0.115
343.5,0.108
344.0,0.07893
344.5,0.08025
345.0,0.1061
345.5,0.1083
346.0,0.09192
346.5,0.1039
347.0,0.1112
347.5,0.08974
348.0,0.1023
348.5,0.1021
349.0,0.0946
349.5,0.09347
350.0,0.1154
350.5,0.1215
351.0,0.1082
351.5,0.1048
352.0,0.1124
352.5,0.08766
353.0,0.1103
353.5,0.1178
354.0,0.1221
354.5,0.1235
355.0,0.1228
355.5,0.1108
356.0,0.1157
356.5,0.09859
357.0,0.08129
357.5,0.09932
358.0,0.07857
358.5,0.06701
359.0,0.09351
359.5,0.1188
360.0,0.1257
360.5,0.1003
361.0,0.09129
361.5,0.1049
362.0,0.09057
362.5,0.1251
363.0,0.1121
363.5,0.1031
364.0,0.1258
364.5,0.1073
365.0,0.109
365.5,0.1365
366.0,0.1444
366.5,0.1354
367.0,0.1316
367.5,0.1362
368.0,0.119
368.5,0.1198
369.0,0.1291
369.5,0.1373
370.0,0.146
370.5,0.1131
371.0,0.1206
371.5,0.1505
372.0,0.09969
372.5,0.1193
373.0,0.1211
373.5,0.07859
374.0,0.1139
374.5,0.09415
375.0,0.09132
375.5,0.136
376.0,0.1125
376.5,0.1163
377.0,0.1229
377.5,0.1435
378.0,0.1551
378.5,0.1463
379.0,0.1204
379.5,0.1097
380.0,0.1138
380.5,0.1375
381.0,0.1375
381.5,0.1087
382.0,0.09632
382.5,0.08191
383.0,0.07565
383.5,0.0727
384.0,0.08
384.5,0.1174
385.0,0.1161
385.5,0.1079
386.0,0.0922
386.5,0.1208
387.0,0.1001
387.5,0.1122
388.0,0.1033
388.5,0.1019
389.0,0.1097
389.5,0.1326
390.0,0.1327
390.5,0.1218
391.0,0.143
391.5,0.1455
392.0,0.1223
392.5,0.1092
393.0,0.06061
393.5,0.04395
394.0,0.08921
394.5,0.1131
395.0,0.1377
395.5,0.1395
396.0,0.1207
396.5,0.07037
397.0,0.05267
397.5,0.1068
398.0,0.1492
398.5,0.1539
399.0,0.1662
399.5,0.1652
400.0,0.1711
401.0,0.1683
402.0,0.1766
403.0,0.1669
404.0,0.1635
405.0,0.1626
406.0,0.1591
407.0,0.1556
408.0,0.1608
409.0,0.1711
410.0,0.1487
411.0,0.1602
412.0,0.1712
413.0,0.1661
414.0,0.1672
415.0,0.1667
416.0,0.1686
417.0,0.1635
418.0,0.1595
419.0,0.1607
420.0,0.1591
421.0,0.1655
422.0,0.1563
423.0,0.1517
424.0,0.1594
425.0,0.1582
426.0,0.1532
427.0,0.1495
428.0,0.1449
429.0,0.1365
430.0,0.1188
431.0,0.117
432.0,0.15
433.0,0.1499
434.0,0.1384
435.0,0.1437
436.0,0.161
437.0,0.1579
438.0,0.1429
439.0,0.1467
440.0,0.1504
441.0,0.1547
442.0,0.1648
443.0,0.1595
444.0,0.1621
445.0,0.1578
446.0,0.1498
447.0,0.161
448.0,0.1624
449.0,0.1619
450.0,0.1653
451.0,0.1703
452.0,0.1631
453.0,0.1526
454.0,0.1583
455.0,0.1582
456.0,0.1608
457.0,0.1622
458.0,0.1554
459.0,0.1533
460.0,0.1525
461.0,0.1549
462.0,0.1551
463.0,0.1533
464.0,0.1501
465.0,0.1476
466.0,0.1482
467.0,0.1445
468.0,0.145
469.0,0.1446
470.0,0.1391
471.0,0.1381
472.0,0.1446
473.0,0.1418
474.0,0.1411
475.0,0.1412
476.0,0.1357
477.0,0.1349
478.0,0.1374
479.0,0.1352
480.0,0.1343
481.0,0.1355
482.0,0.1352
483.0,0.1328
484.0,0.1295
485.0,0.1228
486.0,0.1069
487.0,0.1114
488.0,0.1214
489.0,0.1209
490.0,0.1263
491.0,0.1232
492.0,0.1156
493.0,0.1186
494.0,0.119
495.0,0.1192
496.0,0.1191
497.0,0.1199
498.0,0.1132
499.0,0.1134
500.0,0.109
501.0,0.1058
502.0,0.1032
503.0,0.1062
504.0,0.1024
505.0,0.1053
506.0,0.108
507.0,0.1021
508.0,0.09846
509.0,0.1007
510.0,0.09969
511.0,0.1018
512.0,0.1021
513.0,0.09594
514.0,0.09454
515.0,0.09286
516.0,0.09192
517.0,0.08107
518.0,0.0846
519.0,0.08807
520.0,0.09053
521.0,0.09062
522.0,0.0899
523.0,0.08758
524.0,0.08985
525.0,0.09001
526.0,0.08517
527.0,0.07941
528.0,0.08313
529.0,0.08682
530.0,0.08482
531.0,0.08533
532.0,0.08173
533.0,0.07877
534.0,0.08056
535.0,0.08183
536.0,0.08209
537.0,0.07837
538.0,0.07922
539.0,0.07802
540.0,0.07425
541.0,0.07412
542.0,0.07578
543.0,0.07438
544.0,0.0751
545.0,0.07435
546.0,0.0741
547.0,0.07353
548.0,0.07215
549.0,0.07188
550.0,0.07222
551.0,0.07083
552.0,0.07081
553.0,0.06903
554.0,0.07015
555.0,0.06975
556.0,0.06829
557.0,0.0656
558.0,0.0645
559.0,0.06269
560.0,0.06288
561.0,0.0631
562.0,0.06205
563.0,0.06316
564.0,0.06092
565.0,0.0599
566.0,0.05855
567.0,0.05915
568.0,0.05811
569.0,0.05618
570.0,0.05576
571.0,0.05502
572.0,0.05584
573.0,0.05604
574.0,0.05552
575.0,0.05414
576.0,0.05336
577.0,0.05368
578.0,0.05266
579.0,0.05268
580.0,0.05352
581.0,0.05361
582.0,0.05441
583.0,0.05434
584.0,0.05459
585.0,0.053
586.0,0.05161
587.0,0.05238
588.0,0.05067
589.0,0.04435
590.0,0.04612
591.0,0.04864
592.0,0.04758
593.0,0.04801
594.0,0.04723
595.0,0.04559
596.0,0.04723
597.0,0.04629
598.0,0.04585
599.0,0.04554
600.0,0.04533
601.0,0.0447
602.0,0.04414
603.0,0.04463
604.0,0.04515
605.0,0.04473
606.0,0.0444
607.0,0.0447
608.0,0.04408
609.0,0.04402
610.0,0.0436
611.0,0.04371
612.0,0.04346
613.0,0.04278
614.0,0.04207
615.0,0.04287
616.0,0.04133
617.0,0.04111
618.0,0.04255
619.0,0.04196
620.0,0.04206
621.0,0.04191
622.0,0.04122
623.0,0.0404
624.0,0.03954
625.0,0.0393
626.0,0.03972
627.0,0.03996
628.0,0.03659
629.0,0.03848
630.0,0.03742
631.0,0.0383
632.0,0.03774
633.0,0.03883
634.0,0.03838
635.0,0.03886
636.0,0.03824
637.0,0.03875
638.0,0.03903
639.0,0.03848
640.0,0.038
641.0,0.03785
642.0,0.03757
643.0,0.03796
644.0,0.03772
645.0,0.03761
646.0,0.03652
647.0,0.03579
648.0,0.03567
649.0,0.03482
650.0,0.03504
651.0,0.03644
652.0,0.03456
653.0,0.03567
654.0,0.03515
655.0,0.03359
656.0,0.02972
657.0,0.03042
658.0,0.03403
659.0,0.03416
660.0,0.03418
661.0,0.03428
662.0,0.03418
663.0,0.03339
664.0,0.03371
665.0,0.03364
666.0,0.03355
667.0,0.03342
668.0,0.03334
669.0,0.03373
670.0,0.03345
671.0,0.03333
672.0,0.03294
673.0,0.03334
674.0,0.03309
675.0,0.03266
676.0,0.03276
677.0,0.03232
678.0,0.0323
679.0,0.03166
680.0,0.03178
681.0,0.03144
682.0,0.03126
683.0,0.03106
684.0,0.03076
685.0,0.03089
686.0,0.03057
687.0,0.01848
688.0,0.02221
689.0,0.02222
690.0,0.02347
691.0,0.02494
692.0,0.02605
693.0,0.0257
694.0,0.0254
695.0,0.02659
696.0,0.02652
697.0,0.02839
698.0,0.02782
699.0,0.02682
700.0,0.02637
701.0,0.02592
702.0,0.02608
703.0,0.02602
704.0,0.02686
705.0,0.02678
706.0,0.02668
707.0,0.02661
708.0,0.02654
709.0,0.02653
710.0,0.02636
711.0,0.02626
712.0,0.02613
713.0,0.0257
714.0,0.02567
715.0,0.02465
716.0,0.02454
717.0,0.02048
718.0,0.01861
719.0,0.01685
720.0,0.01758
721.0,0.01971
722.0,0.02298
723.0,0.02102
724.0,0.01855
725.0,0.01812
726.0,0.01896
727.0,0.01925
728.0,0.01782
729.0,0.01862
730.0,0.01964
731.0,0.01863
732.0,0.0201
733.0,0.02142
734.0,0.0219
735.0,0.02131
736.0,0.02118
737.0,0.02116
738.0,0.02157
739.0,0.02104
740.0,0.02154
741.0,0.02125
742.0,0.0212
743.0,0.02164
744.0,0.02148
745.0,0.02139
746.0,0.02139
747.0,0.02134
748.0,0.02119
749.0,0.02085
750.0,0.02075
751.0,0.02046
752.0,0.02047
753.0,0.02049
754.0,0.02045
755.0,0.02025
756.0,0.02016
757.0,0.0201
758.0,0.01975
759.0,0.01915
760.0,0.002661
761.0,0.001404
762.0,0.008426
763.0,0.004015
764.0,0.006103
765.0,0.008301
766.0,0.01052
767.0,0.01378
768.0,0.01645
769.0,0.01688
770.0,0.01757
771.0,0.01771
772.0,0.01769
773.0,0.01772
774.0,0.01754
775.0,0.01733
776.0,0.01745
777.0,0.01713
778.0,0.01693
779.0,0.01686
780.0,0.01669
781.0,0.01663
782.0,0.01667
783.0,0.01632
784.0,0.01634
785.0,0.01615
786.0,0.01625
787.0,0.01583
788.0,0.01553
789.0,0.01545
790.0,0.01487
791.0,0.01504
792.0,0.01487
793.0,0.01455
794.0,0.01485
795.0,0.015
796.0,0.01434
797.0,0.01429
798.0,0.01478
799.0,0.01459
800.0,0.01424
801.0,0.01409
802.0,0.01399
803.0,0.0138
804.0,0.01377
805.0,0.0137
806.0,0.01408
807.0,0.01383
808.0,0.01378
809.0,0.0134
810.0,0.01319
811.0,0.01309
812.0,0.01255
813.0,0.01219
814.0,0.01041
815.0,0.0103
816.0,0.00946
817.0,0.009612
818.0,0.00917
819.0,0.01043
820.0,0.009696
821.0,0.01165
822.0,0.0112
823.0,0.007099
824.0,0.01069
825.0,0.01125
826.0,0.01067
827.0,0.01134
828.0,0.00926
829.0,0.01049
830.0,0.01029
831.0,0.01029
832.0,0.009871
833.0,0.01064
834.0,0.01013
835.0,0.01129
836.0,0.01062
837.0,0.01123
838.0,0.01077
839.0,0.01097
840.0,0.01118
841.0,0.01094
842.0,0.01096
843.0,0.01095
844.0,0.01072
845.0,0.01107
846.0,0.01098
847.0,0.01073
848.0,0.0106
849.0,0.01024
850.0,0.009769
851.0,0.01027
852.0,0.01015
853.0,0.00974
854.0,0.008359
855.0,0.009167
856.0,0.00997
857.0,0.01017
858.0,0.01005
859.0,0.01003
860.0,0.01001
861.0,0.009914
862.0,0.01004
863.0,0.01024
864.0,0.009692
865.0,0.009572
866.0,0.008573
867.0,0.008911
868.0,0.009659
869.0,0.009421
870.0,0.009651
871.0,0.009481
872.0,0.009409
873.0,0.009352
874.0,0.0092
875.0,0.008973
876.0,0.009025
877.0,0.009079
878.0,0.009135
879.0,0.008957
880.0,0.008728
881.0,0.008552
882.0,0.008698
883.0,0.008698
884.0,0.008615
885.0,0.00864
886.0,0.008166
887.0,0.008245
888.0,0.008316
889.0,0.008403
890.0,0.00826
891.0,0.008231
892.0,0.00792
893.0,0.00759
894.0,0.007195
895.0,0.006655
896.0,0.006174
897.0,0.005137
898.0,0.005661
899.0,0.00411
900.0,0.005826
901.0,0.004313
902.0,0.005211
903.0,0.005192
904.0,0.006847
905.0,0.006538
906.0,0.006044
907.0,0.004671
908.0,0.004786
909.0,0.005257
910.0,0.004487
911.0,0.004859
912.0,0.005083
913.0,0.004495
914.0,0.004456
915.0,0.004842
916.0,0.004009
917.0,0.00527
918.0,0.004084
919.0,0.005356
920.0,0.005468
921.0,0.005701
922.0,0.004956
923.0,0.00547
924.0,0.005028
925.0,0.004892
926.0,0.004926
927.0,0.005601
928.0,0.003808
929.0,0.003403
930.0,0.002562
931.0,0.002408
932.0,0.001655
933.0,0.001314
934.0,0.0006835
935.0,0.001346
936.0,0.0008075
937.0,0.0008143
938.0,0.001008
939.0,0.002252
940.0,0.002771
941.0,0.002003
942.0,0.002349
943.0,0.001472
944.0,0.001577
945.0,0.00204
946.0,0.0009688
947.0,0.002022
948.0,0.001452
949.0,0.002784
950.0,0.0006837
951.0,0.002725
952.0,0.001358
953.0,0.001801
954.0,0.002271
955.0,0.001818
956.0,0.001791
957.0,0.001333
958.0,0.002625
959.0,0.001989
960.0,0.00224
961.0,0.002569
962.0,0.00241
963.0,0.002842
964.0,0.002562
965.0,0.002807
966.0,0.002794
967.0,0.002761
968.0,0.003986
969.0,0.004136
970.0,0.003733
971.0,0.004414
972.0,0.00416
973.0,0.00347
974.0,0.003262
975.0,0.003406
976.0,0.00316
977.0,0.003734
978.0,0.003471
979.0,0.003665
980.0,0.003396
981.0,0.004223
982.0,0.003969
983.0,0.003764
984.0,0.004366
985.0,0.003907
986.0,0.004449
987.0,0.004305
988.0,0.00428
989.0,0.004408
990.0,0.004222
991.0,0.004373
992.0,0.004388
993.0,0.004236
994.0,0.004361
995.0,0.004346
996.0,0.004304
997.0,0.004299
998.0,0.004261
999.0,0.004232
1000.0,0.004177
1001.0,0.004224
1002.0,0.004049
1003.0,0.004116
1004.0,0.003987
1005.0,0.003842
1006.0,0.003969
1007.0,0.004041
1008.0,0.003997
1009.0,0.003952
1010.0,0.003916
1011.0,0.003962
1012.0,0.003904
1013.0,0.003925
1014.0,0.003883
1015.0,0.003842
1016.0,0.003809
1017.0,0.003802
1018.0,0.003778
1019.0,0.003667
1020.0,0.003726
1021.0,0.00371
1022.0,0.003661
1023.0,0.003685
1024.0,0.003608
1025.0,0.003661
1026.0,0.003627
1027.0,0.003606
1028.0,0.003584
1029.0,0.003527
1030.0,0.003544
1031.0,0.003514
1032.0,0.003492
1033.0,0.003425
1034.0,0.003413
1035.0,0.00341
1036.0,0.003413
1037.0,0.003346
1038.0,0.003348
1039.0,0.003333
1040.0,0.003307
1041.0,0.003306
1042.0,0.00327
1043.0,0.003247
1044.0,0.003246
1045.0,0.003189
1046.0,0.00314
1047.0,0.003156
1048.0,0.003161
1049.0,0.003137
1050.0,0.00311
1051.0,0.003093
1052.0,0.003067
1053.0,0.003031
1054.0,0.003025
1055.0,0.003013
1056.0,0.002989
1057.0,0.002967
1058.0,0.002882
1059.0,0.002873
1060.0,0.002857
1061.0,0.002841
1062.0,0.002844
1063.0,0.002804
1064.0,0.002828
1065.0,0.002792
1066.0,0.002731
1067.0,0.002754
1068.0,0.002681
1069.0,0.002591
1070.0,0.002666
1071.0,0.002709
1072.0,0.002659
1073.0,0.002614
1074.0,0.002685
1075.0,0.002509
1076.0,0.002661
1077.0,0.002585
1078.0,0.00252
1079.0,0.002596
1080.0,0.002515
1081.0,0.002413
1082.0,0.002471
1083.0,0.002476
1084.0,0.002372
1085.0,0.002481
1086.0,0.002205
1087.0,0.002305
1088.0,0.002423
1089.0,0.002309
1090.0,0.002231
1091.0,0.00238
1092.0,0.002372
1093.0,0.00192
1094.0,0.002145
1095.0,0.001997
1096.0,0.001882
1097.0,0.002278
1098.0,0.001831
1099.0,0.001914
1100.0,0.00174
1101.0,0.001767
1102.0,0.001663
1103.0,0.001627
1104.0,0.001626
1105.0,0.001823
1106.0,0.001288
1107.0,0.001698
1108.0,0.001371
1109.0,0.001375
1110.0,0.001654
1111.0,0.001031
1112.0,0.001353
1113.0,0.0007871
1114.0,0.0008839
1115.0,0.0007185
1116.0,0.0005485
1117.0,0.0001847
1118.0,0.0005986
1119.0,0.000278
1120.0,0.0003495
1121.0,0.0004715
1122.0,0.0001869
1123.0,0.0003119
1124.0,0.0002611
1125.0,0.0003445
1126.0,0.0001118
1127.0,0.0003878
1128.0,0.000221
1129.0,0.0002347
1130.0,0.0001515
1131.0,0.0007746
1132.0,0.0005914
1133.0,0.0003539
1134.0,8.431e-05
1135.0,3.148e-05
1136.0,0.000287
1137.0,0.0007386
1138.0,0.0005065
1139.0,0.0008073
1140.0,0.0006498
1141.0,0.0004757
1142.0,0.0005547
1143.0,0.0008184
1144.0,0.0002582
1145.0,0.000327
1146.0,0.000352
1147.0,0.000116
1148.0,0.0006869
1149.0,0.0005303
1150.0,0.0002747
1151.0,0.0004803
1152.0,0.0006066
1153.0,0.0005972
1154.0,0.0003076
1155.0,0.0007995
1156.0,0.0007045
1157.0,0.0008117
1158.0,0.000799
1159.0,0.0008739
1160.0,0.000729
1161.0,0.0009356
1162.0,0.0009324
1163.0,0.001344
1164.0,0.001113
1165.0,0.001024
1166.0,0.001027
1167.0,0.001132
1168.0,0.001138
1169.0,0.001171
1170.0,0.001293
1171.0,0.001252
1172.0,0.001284
1173.0,0.001277
1174.0,0.0008486
1175.0,0.00125
1176.0,0.001405
1177.0,0.001322
1178.0,0.0009357
1179.0,0.001402
1180.0,0.001207
1181.0,0.001247
1182.0,0.0008003
1183.0,0.001228
1184.0,0.001125
1185.0,0.001068
1186.0,0.001317
1187.0,0.001233
1188.0,0.0007965
1189.0,0.001136
1190.0,0.001271
1191.0,0.001175
1192.0,0.001284
1193.0,0.001213
1194.0,0.001256
1195.0,0.001165
1196.0,0.001107
1197.0,0.001256
1198.0,0.00113
1199.0,0.0009172
1200.0,0.001174
1201.0,0.001114
1202.0,0.001113
1203.0,0.001099
1204.0,0.0009312
1205.0,0.00114
1206.0,0.001284
1207.0,0.00109
1208.0,0.001083
1209.0,0.001102
1210.0,0.001156
1211.0,0.001082
1212.0,0.001048
1213.0,0.001205
1214.0,0.001074
1215.0,0.001047
1216.0,0.001191
1217.0,0.001147
1218.0,0.001173
1219.0,0.00115
1220.0,0.001167
1221.0,0.001181
1222.0,0.001141
1223.0,0.001123
1224.0,0.001106
1225.0,0.001157
1226.0,0.001167
1227.0,0.001051
1228.0,0.001169
1229.0,0.001156
1230.0,0.001128
1231.0,0.00117
1232.0,0.001159
1233.0,0.001099
1234.0,0.001162
1235.0,0.001148
1236.0,0.001155
1237.0,0.001128
1238.0,0.001143
1239.0,0.001125
1240.0,0.001127
1241.0,0.001113
1242.0,0.001111
1243.0,0.001098
1244.0,0.001101
1245.0,0.001103
1246.0,0.001093
1247.0,0.001084
1248.0,0.001078
1249.0,0.00108
1250.0,0.001069
1251.0,0.001049
1252.0,0.001049
1253.0,0.001031
1254.0,0.001013
1255.0,0.001036
1256.0,0.0009931
1257.0,0.0009823
1258.0,0.001006
1259.0,0.0009502
1260.0,0.0009543
1261.0,0.0008789
1262.0,0.0008405
1263.0,0.0008391
1264.0,0.0007523
1265.0,0.0008292
1266.0,0.0007835
1267.0,0.0008031
1268.0,0.0007462
1269.0,0.0004065
1270.0,0.0007901
1271.0,0.0008536
1272.0,0.0008556
1273.0,0.0008417
1274.0,0.0008446
1275.0,0.0008575
1276.0,0.0008668
1277.0,0.0008743
1278.0,0.0008959
1279.0,0.0008847
1280.0,0.0008711
1281.0,0.0008322
1282.0,0.0008054
1283.0,0.0008634
1284.0,0.0008801
1285.0,0.0008842
1286.0,0.0008967
1287.0,0.0008739
1288.0,0.0008728
1289.0,0.0008308
1290.0,0.0008602
1291.0,0.0008715
1292.0,0.0007952
1293.0,0.000844
1294.0,0.0008344
1295.0,0.0008218
1296.0,0.0007696
1297.0,0.0007163
1298.0,0.000788
1299.0,0.0008312
1300.0,0.000668
1301.0,0.0006923
1302.0,0.000777
1303.0,0.0006551
1304.0,0.0005322
1305.0,0.000751
1306.0,0.0007466
1307.0,0.0005451
1308.0,0.0006487
1309.0,0.0007304
1310.0,0.0005275
1311.0,0.0006099
1312.0,0.0005897
1313.0,0.0005703
1314.0,0.0004969
1315.0,0.000487
1316.0,0.000588
1317.0,0.0005492
1318.0,0.0006078
1319.0,0.0004443
1320.0,0.0004307
1321.0,0.0005142
1322.0,0.0005148
1323.0,0.0003641
1324.0,0.0004293
1325.0,0.0005605
1326.0,0.0004641
1327.0,0.0004369
1328.0,0.0003664
1329.0,0.00026
1330.0,0.0003484
1331.0,0.0001953
1332.0,0.0002032
1333.0,0.0002887
1334.0,0.0002468
1335.0,0.0003487
1336.0,0.0002651
1337.0,0.000231
1338.0,0.0002499
1339.0,0.0002491
1340.0,0.0002433
1341.0,0.0002309
1342.0,0.0002433
1343.0,0.0001547
1344.0,9.146e-05
1345.0,0.0001324
1346.0,6.272e-05
1347.0,6.333e-05
1348.0,4.012e-06
1349.0,1.442e-05
1350.0,1.495e-05
1351.0,3.604e-06
1352.0,9.69e-07
1353.0,4.931e-08
1354.0,1.695e-07
