interpolation:linear
wavelength,value
280.0,3.313e-21
280.5,1.035e-19
281.0,5.453e-19
281.5,3.414e-19
282.0,1.053e-18
282.5,2.802e-18
283.0,9.122e-18
283.5,1.496e-17
284.0,2.445e-16
284.5,7.058e-16
285.0,1.602e-15
285.5,7.826e-15
286.0,3.134e-14
286.5,1.383e-13
287.0,3.914e-13
287.5,1.48e-12
288.0,3.881e-12
288.5,1.302e-11
289.0,3.723e-11
289.5,1.186e-10
290.0,3.4e-10
290.5,7.088e-10
291.0,1.553e-09
291.5,4.574e-09
292.0,1.004e-08
292.5,1.514e-08
293.0,3.554e-08
293.5,9.751e-08
294.0,1.657e-07
294.5,2.069e-07
295.0,3.759e-07
295.5,9.656e-07
296.0,1.89e-06
296.5,2.692e-06
297.0,3.706e-06
297.5,1.028e-05
298.0,1.678e-05
298.5,1.742e-05
299.0,3.98e-05
299.5,7.146e-05
300.0,8.279e-05
300.5,0.0001275
301.0,0.0002608
301.5,0.0004786
302.0,0.0004463
302.5,0.0008616
303.0,0.001524
303.5,0.001904
304.0,0.00179
304.5,0.002692
305.0,0.004136
305.5,0.004774
306.0,0.004625
306.5,0.005782
307.0,0.008697
307.5,0.01172
308.0,0.01237
308.5,0.01469
309.0,0.01482
309.5,0.01675
310.0,0.01672
310.5,0.02695
311.0,0.03365
311.5,0.03234
312.0,0.03215
312.5,0.03896
313.0,0.04211
313.5,0.04073
314.0,0.05077
314.5,0.04498
315.0,0.05893
315.5,0.04901
316.0,0.04279
316.5,0.06146
317.0,0.07602
317.5,0.07871
318.0,0.06137
318.5,0.07648
319.0,0.09083
319.5,0.07325
320.0,0.0881
320.5,0.1108
321.0,0.09924
321.5,0.0949
322.0,0.09973
322.5,0.08648
323.0,0.08638
323.5,0.1071
324.0,0.1247
324.5,0.1259
325.0,0.1072
325.5,0.1382
326.0,0.1696
326.5,0.1698
327.0,0.1684
327.5,0.1618
328.0,0.143
328.5,0.1504
329.0,0.1804
329.5,0.2044
330.0,0.2051
330.5,0.1629
331.0,0.1651
331.5,0.1677
332.0,0.1814
332.5,0.1793
333.0,0.1778
333.5,0.1597
334.0,0.1629
334.5,0.1882
335.0,0.1767
335.5,0.209
336.0,0.1441
336.5,0.1651
337.0,0.1347
337.5,0.1667
338.0,0.1629
338.5,0.1899
339.0,0.1865
339.5,0.1793
340.0,0.2074
340.5,0.1864
341.0,0.1829
341.5,0.1662
342.0,0.1976
342.5,0.184
343.0,0.2023
343.5,0.1903
344.0,0.1392
344.5,0.1419
345.0,0.1855
345.5,0.1881
346.0,0.159
346.5,0.1792
347.0,0.1922
347.5,0.155
348.0,0.1754
348.5,0.1744
349.0,0.1611
349.5,0.159
350.0,0.1959
350.5,0.2058
351.0,0.1834
351.5,0.1784
352.0,0.1903
352.5,0.1477
353.0,0.1851
353.5,0.1971
354.0,0.2037
354.5,0.2058
355.0,0.2045
355.5,0.184
356.0,0.1917
356.5,0.1631
357.0,0.1342
357.5,0.1637
358.0,0.1292
358.5,0.11
359.0,0.1533
359.5,0.1947
360.0,0.2056
360.5,0.1636
361.0,0.1486
361.5,0.1704
362.0,0.1468
362.5,0.2024
363.0,0.1811
363.5,0.1662
364.0,0.2025
364.5,0.1724
365.0,0.1749
365.5,0.2187
366.0,0.2309
366.5,0.2161
367.0,0.2096
367.5,0.2167
368.0,0.189
368.5,0.19
369.0,0.2044
369.5,0.217
370.0,0.2304
370.5,0.1782
371.0,0.1897
371.5,0.2364
372.0,0.1563
372.5,0.1867
373.0,0.1892
373.5,0.1226
374.0,0.1775
374.5,0.1464
375.0,0.1418
375.5,0.2109
376.0,0.1742
376.5,0.1798
377.0,0.1897
377.5,0.221
378.0,0.2387
378.5,0.2247
379.0,0.1847
379.5,0.168
380.0,0.174
380.5,0.2099
381.0,0.2095
381.5,0.1654
382.0,0.1463
382.5,0.1242
383.0,0.1145
383.5,0.1099
384.0,0.1207
384.5,0.1769
385.0,0.1748
385.5,0.1621
386.0,0.1383
386.5,0.181
387.0,0.1498
387.5,0.1676
388.0,0.1541
388.5,0.1517
389.0,0.1631
389.5,0.1968
390.0,0.1967
390.5,0.1803
391.0,0.2114
391.5,0.2148
392.0,0.1802
392.5,0.1607
393.0,0.08907
393.5,0.0645
394.0,0.1307
394.5,0.1656
395.0,0.2013
395.5,0.2037
396.0,0.1759
396.5,0.1024
397.0,0.07656
397.5,0.1551
398.0,0.2163
398.5,0.2227
399.0,0.2403
399.5,0.2386
400.0,0.2468
401.0,0.2424
402.0,0.2537
403.0,0.2391
404.0,0.2336
405.0,0.2317
406.0,0.2261
407.0,0.2207
408.0,0.2275
409.0,0.2416
410.0,0.2096
411.0,0.2253
412.0,0.2401
413.0,0.2323
414.0,0.2334
415.0,0.2322
416.0,0.2343
417.0,0.2267
418.0,0.2208
419.0,0.2219
420.0,0.2192
421.0,0.2274
422.0,0.2144
423.0,0.2077
424.0,0.2179
425.0,0.2158
426.0,0.2086
427.0,0.2031
428.0,0.1964
429.0,0.1846
430.0,0.1603
431.0,0.1576
432.0,0.2018
433.0,0.2013
434.0,0.1855
435.0,0.1922
436.0,0.215
437.0,0.2106
438.0,0.1903
439.0,0.1953
440.0,0.1999
441.0,0.2055
442.0,0.2186
443.0,0.2112
444.0,0.2142
445.0,0.208
446.0,0.1971
447.0,0.2114
448.0,0.213
449.0,0.2121
450.0,0.2162
451.0,0.2225
452.0,0.2127
453.0,0.1986
454.0,0.2058
455.0,0.2054
456.0,0.2086
457.0,0.2103
458.0,0.2014
459.0,0.1987
460.0,0.1976
461.0,0.2006
462.0,0.2007
463.0,0.1979
464.0,0.1934
465.0,0.1897
466.0,0.1901
467.0,0.1851
468.0,0.1857
469.0,0.1851
470.0,0.1778
471.0,0.1764
472.0,0.1845
473.0,0.1807
474.0,0.1796
475.0,0.1796
476.0,0.1728
477.0,0.1718
478.0,0.175
479.0,0.1724
480.0,0.1713
481.0,0.1729
482.0,0.1725
483.0,0.1691
484.0,0.1645
485.0,0.1556
486.0,0.1351
487.0,0.1406
488.0,0.1531
489.0,0.1523
490.0,0.159
491.0,0.1551
492.0,0.1453
493.0,0.149
494.0,0.1493
495.0,0.1495
496.0,0.1493
497.0,0.1504
498.0,0.1422
499.0,0.1428
500.0,0.1374
501.0,0.1336
502.0,0.1306
503.0,0.1347
504.0,0.1301
505.0,0.1338
506.0,0.1371
507.0,0.1296
508.0,0.1247
509.0,0.1274
510.0,0.1259
511.0,0.1284
512.0,0.1288
513.0,0.121
514.0,0.1193
515.0,0.1172
516.0,0.1161
517.0,0.1024
518.0,0.1069
519.0,0.1113
520.0,0.1144
521.0,0.1146
522.0,0.1138
523.0,0.111
524.0,0.114
525.0,0.1145
526.0,0.1085
527.0,0.1014
528.0,0.1063
529.0,0.1112
530.0,0.1088
531.0,0.1096
532.0,0.1051
533.0,0.1013
534.0,0.1036
535.0,0.1052
536.0,0.1054
537.0,0.1006
538.0,0.1016
539.0,0.1001
540.0,0.09538
541.0,0.0953
542.0,0.09752
543.0,0.09579
544.0,0.09683
545.0,0.09594
546.0,0.09568
547.0,0.09496
548.0,0.09317
549.0,0.09283
550.0,0.0933
551.0,0.09153
552.0,0.09152
553.0,0.08925
554.0,0.09076
555.0,0.09031
556.0,0.08848
557.0,0.08508
558.0,0.08378
559.0,0.08157
560.0,0.08196
561.0,0.08237
562.0,0.08114
563.0,0.08272
564.0,0.0799
565.0,0.07865
566.0,0.07694
567.0,0.07781
568.0,0.07655
569.0,0.07415
570.0,0.07364
571.0,0.07271
572.0,0.07388
573.0,0.07419
574.0,0.07351
575.0,0.0717
576.0,0.07061
577.0,0.07096
578.0,0.06951
579.0,0.06943
580.0,0.0704
581.0,0.07038
582.0,0.07132
583.0,0.07114
584.0,0.0714
585.0,0.06926
586.0,0.06739
587.0,0.06839
588.0,0.06625
589.0,0.05817
590.0,0.0605
591.0,0.06372
592.0,0.06244
593.0,0.063
594.0,0.06209
595.0,0.06009
596.0,0.06218
597.0,0.06107
598.0,0.06052
599.0,0.06017
600.0,0.05991
601.0,0.05908
602.0,0.05833
603.0,0.05895
604.0,0.05958
605.0,0.05896
606.0,0.05843
607.0,0.05872
608.0,0.05778
609.0,0.05759
610.0,0.05691
611.0,0.05694
612.0,0.05651
613.0,0.05552
614.0,0.05449
615.0,0.05541
616.0,0.05333
617.0,0.05297
618.0,0.05474
619.0,0.05392
620.0,0.05398
621.0,0.05375
622.0,0.05283
623.0,0.05173
624.0,0.05057
625.0,0.05022
626.0,0.05072
627.0,0.051
628.0,0.04703
629.0,0.04915
630.0,0.04775
631.0,0.04868
632.0,0.04788
633.0,0.04917
634.0,0.0485
635.0,0.04902
636.0,0.04814
637.0,0.04871
638.0,0.04897
639.0,0.0482
640.0,0.0475
641.0,0.04724
642.0,0.04683
643.0,0.04725
644.0,0.04689
645.0,0.04672
646.0,0.04534
647.0,0.0445
648.0,0.04429
649.0,0.04321
650.0,0.04332
651.0,0.04499
652.0,0.04275
653.0,0.04396
654.0,0.04327
655.0,0.04137
656.0,0.03653
657.0,0.03735
658.0,0.0417
659.0,0.04182
660.0,0.04179
661.0,0.04187
662.0,0.04174
663.0,0.04075
664.0,0.04106
665.0,0.04091
666.0,0.04075
667.0,0.04054
668.0,0.04038
669.0,0.04081
670.0,0.04043
671.0,0.04024
672.0,0.03975
673.0,0.0402
674.0,0.03985
675.0,0.03929
676.0,0.03938
677.0,0.03882
678.0,0.03877
679.0,0.03797
680.0,0.0381
681.0,0.03766
682.0,0.03743
683.0,0.03718
684.0,0.0368
685.0,0.03693
686.0,0.03654
687.0,0.023
688.0,0.02733
689.0,0.02731
690.0,0.02868
691.0,0.03026
692.0,0.03141
693.0,0.03097
694.0,0.03052
695.0,0.03178
696.0,0.03166
697.0,0.03374
698.0,0.03305
699.0,0.03194
700.0,0.0314
701.0,0.03092
702.0,0.03105
703.0,0.03095
704.0,0.03187
705.0,0.03175
706.0,0.03161
707.0,0.0315
708.0,0.03141
709.0,0.03135
710.0,0.03117
711.0,0.03103
712.0,0.03085
713.0,0.03037
714.0,0.03032
715.0,0.02916
716.0,0.02903
717.0,0.02456
718.0,0.02225
719.0,0.02011
720.0,0.02105
721.0,0.02345
722.0,0.0272
723.0,0.02492
724.0,0.02206
725.0,0.02158
726.0,0.02261
727.0,0.02284
728.0,0.02123
729.0,0.02208
730.0,0.02335
731.0,0.02213
732.0,0.02377
733.0,0.02525
734.0,0.02576
735.0,0.02509
736.0,0.02495
737.0,0.02492
738.0,0.02529
739.0,0.02466
740.0,0.02522
741.0,0.02487
742.0,0.02478
743.0,0.02528
744.0,0.02509
745.0,0.02498
746.0,0.02497
747.0,0.02491
748.0,0.02473
749.0,0.02432
750.0,0.0242
751.0,0.02385
752.0,0.02385
753.0,0.02385
754.0,0.02379
755.0,0.02355
756.0,0.02344
757.0,0.02336
758.0,0.02296
759.0,0.02233
760.0,0.00313
761.0,0.001598
762.0,0.01034
763.0,0.004826
764.0,0.007459
765.0,0.01018
766.0,0.01281
767.0,0.01652
768.0,0.01937
769.0,0.01978
770.0,0.02046
771.0,0.02058
772.0,0.02054
773.0,0.02058
774.0,0.02037
775.0,0.02013
776.0,0.02028
777.0,0.01991
778.0,0.01969
779.0,0.0196
780.0,0.0194
781.0,0.01933
782.0,0.01937
783.0,0.01895
784.0,0.01895
785.0,0.01873
786.0,0.01885
787.0,0.0184
788.0,0.01806
789.0,0.01796
790.0,0.01733
791.0,0.01747
792.0,0.01726
793.0,0.01689
794.0,0.01717
795.0,0.01737
796.0,0.01667
797.0,0.01662
798.0,0.01711
799.0,0.01691
800.0,0.01651
801.0,0.01636
802.0,0.01624
803.0,0.01604
804.0,0.01599
805.0,0.01589
806.0,0.0163
807.0,0.01602
808.0,0.01596
809.0,0.01556
810.0,0.01533
811.0,0.01526
812.0,0.01468
813.0,0.01426
814.0,0.01226
815.0,0.01213
816.0,0.01112
817.0,0.0113
818.0,0.0108
819.0,0.01223
820.0,0.01138
821.0,0.01357
822.0,0.01306
823.0,0.008356
824.0,0.0125
825.0,0.01306
826.0,0.01242
827.0,0.01317
828.0,0.01085
829.0,0.0122
830.0,0.01197
831.0,0.01197
832.0,0.0115
833.0,0.01236
834.0,0.0118
835.0,0.01307
836.0,0.01236
837.0,0.013
838.0,0.0125
839.0,0.0127
840.0,0.01293
841.0,0.01267
842.0,0.01267
843.0,0.01263
844.0,0.01238
845.0,0.01276
846.0,0.01266
847.0,0.01237
848.0,0.01223
849.0,0.01183
850.0,0.01128
851.0,0.01187
852.0,0.01174
853.0,0.01126
854.0,0.009666
855.0,0.01059
856.0,0.01152
857.0,0.01174
858.0,0.01161
859.0,0.01157
860.0,0.01154
861.0,0.01143
862.0,0.01157
863.0,0.0118
864.0,0.01116
865.0,0.01102
866.0,0.009868
867.0,0.01026
868.0,0.01111
869.0,0.01084
870.0,0.0111
871.0,0.0109
872.0,0.01082
873.0,0.01075
874.0,0.01058
875.0,0.01032
876.0,0.01038
877.0,0.01044
878.0,0.01051
879.0,0.0103
880.0,0.01004
881.0,0.009842
882.0,0.01001
883.0,0.01001
884.0,0.009918
885.0,0.009947
886.0,0.009422
887.0,0.009499
888.0,0.009588
889.0,0.009675
890.0,0.009528
891.0,0.009486
892.0,0.009152
893.0,0.008786
894.0,0.008375
895.0,0.007796
896.0,0.007222
897.0,0.006034
898.0,0.006649
899.0,0.004825
900.0,0.006815
901.0,0.005092
902.0,0.006112
903.0,0.006114
904.0,0.007973
905.0,0.00762
906.0,0.00705
907.0,0.005496
908.0,0.005618
909.0,0.006165
910.0,0.005292
911.0,0.005691
912.0,0.00597
913.0,0.005305
914.0,0.005244
915.0,0.005736
916.0,0.004712
917.0,0.00621
918.0,0.004816
919.0,0.006287
920.0,0.00636
921.0,0.006662
922.0,0.005814
923.0,0.006384
924.0,0.005927
925.0,0.005753
926.0,0.005815
927.0,0.006589
928.0,0.004541
929.0,0.004071
930.0,0.003064
931.0,0.002874
932.0,0.001967
933.0,0.00155
934.0,0.0007895
935.0,0.001585
936.0,0.0009351
937.0,0.0009432
938.0,0.001179
939.0,0.00269
940.0,0.00332
941.0,0.002399
942.0,0.002821
943.0,0.001742
944.0,0.001853
945.0,0.002436
946.0,0.001132
947.0,0.002422
948.0,0.001708
949.0,0.003362
950.0,0.0007886
951.0,0.003287
952.0,0.001606
953.0,0.002144
954.0,0.002717
955.0,0.002169
956.0,0.002091
957.0,0.001578
958.0,0.003101
959.0,0.002357
960.0,0.002674
961.0,0.003053
962.0,0.002856
963.0,0.003365
964.0,0.003027
965.0,0.003328
966.0,0.003315
967.0,0.003279
968.0,0.004649
969.0,0.004866
970.0,0.004382
971.0,0.005141
972.0,0.004854
973.0,0.004093
974.0,0.00384
975.0,0.003998
976.0,0.003739
977.0,0.004359
978.0,0.004078
979.0,0.004301
980.0,0.003979
981.0,0.004919
982.0,0.004641
983.0,0.004408
984.0,0.00506
985.0,0.004574
986.0,0.005137
987.0,0.004991
988.0,0.00496
989.0,0.005078
990.0,0.004897
991.0,0.005046
992.0,0.005059
993.0,0.004903
994.0,0.005024
995.0,0.005004
996.0,0.004958
997.0,0.004948
998.0,0.004905
999.0,0.004871
1000.0,0.004812
1001.0,0.004862
1002.0,0.004683
1003.0,0.004738
1004.0,0.004596
1005.0,0.004421
1006.0,0.004569
1007.0,0.004651
1008.0,0.004604
1009.0,0.004557
1010.0,0.004517
1011.0,0.004559
1012.0,0.004496
1013.0,0.004516
1014.0,0.004468
1015.0,0.004421
1016.0,0.004383
1017.0,0.004376
1018.0,0.004346
1019.0,0.004226
1020.0,0.004287
1021.0,0.004267
1022.0,0.004213
1023.0,0.004242
1024.0,0.004162
1025.0,0.004212
1026.0,0.004175
1027.0,0.004149
1028.0,0.004125
1029.0,0.004061
1030.0,0.004077
1031.0,0.004044
1032.0,0.004017
1033.0,0.003941
1034.0,0.003927
1035.0,0.003924
1036.0,0.003928
1037.0,0.00385
1038.0,0.003853
1039.0,0.003836
1040.0,0.003806
1041.0,0.003806
1042.0,0.003765
1043.0,0.003739
1044.0,0.003739
1045.0,0.003673
1046.0,0.003618
1047.0,0.003637
1048.0,0.003643
1049.0,0.003617
1050.0,0.003586
1051.0,0.003567
1052.0,0.003538
1053.0,0.003497
1054.0,0.003491
1055.0,0.003479
1056.0,0.003452
1057.0,0.003428
1058.0,0.003331
1059.0,0.003322
1060.0,0.003304
1061.0,0.003286
1062.0,0.00329
1063.0,0.003245
1064.0,0.003273
1065.0,0.003234
1066.0,0.003161
1067.0,0.003189
1068.0,0.003105
1069.0,0.003
1070.0,0.003088
1071.0,0.003132
1072.0,0.003078
1073.0,0.003025
1074.0,0.003101
1075.0,0.002912
1076.0,0.003074
1077.0,0.002995
1078.0,0.002923
1079.0,0.002995
1080.0,0.002912
1081.0,0.002804
1082.0,0.002857
1083.0,0.002859
1084.0,0.002757
1085.0,0.002873
1086.0,0.002566
1087.0,0.002677
1088.0,0.0028
1089.0,0.002683
1090.0,0.002595
1091.0,0.002754
1092.0,0.002742
1093.0,0.002247
1094.0,0.002484
1095.0,0.002341
1096.0,0.002213
1097.0,0.002634
1098.0,0.002159
1099.0,0.002254
1100.0,0.002053
1101.0,0.002082
1102.0,0.001967
1103.0,0.001929
1104.0,0.001927
1105.0,0.002148
1106.0,0.001544
1107.0,0.002005
1108.0,0.001634
1109.0,0.001635
1110.0,0.001961
1111.0,0.001231
1112.0,0.001608
1113.0,0.0009385
1114.0,0.001061
1115.0,0.0008553
1116.0,0.0006532
1117.0,0.0002108
1118.0,0.000716
1119.0,0.0003233
1120.0,0.0004134
1121.0,0.0005665
1122.0,0.0002147
1123.0,0.0003661
1124.0,0.0003035
1125.0,0.0004068
1126.0,0.0001256
1127.0,0.0004608
1128.0,0.0002567
1129.0,0.0002737
1130.0,0.0001721
1131.0,0.0009473
1132.0,0.0007145
1133.0,0.0004212
1134.0,9.363e-05
1135.0,3.378e-05
1136.0,0.0003387
1137.0,0.0009071
1138.0,0.0006088
1139.0,0.0009715
1140.0,0.0007829
1141.0,0.0005695
1142.0,0.000667
1143.0,0.0009961
1144.0,0.0003003
1145.0,0.0003886
1146.0,0.0004204
1147.0,0.0001312
1148.0,0.0008305
1149.0,0.0006369
1150.0,0.0003191
1151.0,0.0005769
1152.0,0.000733
1153.0,0.0007139
1154.0,0.0003635
1155.0,0.0009658
1156.0,0.0008508
1157.0,0.000973
1158.0,0.0009579
1159.0,0.001049
1160.0,0.0008687
1161.0,0.001113
1162.0,0.00111
1163.0,0.001585
1164.0,0.001317
1165.0,0.00122
1166.0,0.001212
1167.0,0.001335
1168.0,0.001346
1169.0,0.001385
1170.0,0.001521
1171.0,0.00147
1172.0,0.001499
1173.0,0.001501
1174.0,0.001004
1175.0,0.001461
1176.0,0.001627
1177.0,0.001542
1178.0,0.001096
1179.0,0.001625
1180.0,0.001411
1181.0,0.001461
1182.0,0.0009416
1183.0,0.001436
1184.0,0.001317
1185.0,0.001256
1186.0,0.001534
1187.0,0.001442
1188.0,0.0009444
1189.0,0.001327
1190.0,0.001477
1191.0,0.00138
1192.0,0.001491
1193.0,0.001413
1194.0,0.001461
1195.0,0.001365
1196.0,0.001301
1197.0,0.001459
1198.0,0.001312
1199.0,0.001081
1200.0,0.001368
1201.0,0.001305
1202.0,0.001295
1203.0,0.001288
1204.0,0.001091
1205.0,0.001323
1206.0,0.001485
1207.0,0.001275
1208.0,0.00126
1209.0,0.001283
1210.0,0.001342
1211.0,0.001261
1212.0,0.001234
1213.0,0.001401
1214.0,0.001263
1215.0,0.00123
1216.0,0.001383
1217.0,0.001335
1218.0,0.001362
1219.0,0.001339
1220.0,0.001355
1221.0,0.001368
1222.0,0.001322
1223.0,0.001304
1224.0,0.001289
1225.0,0.001342
1226.0,0.00135
1227.0,0.001226
1228.0,0.00135
1229.0,0.001337
1230.0,0.001307
1231.0,0.001349
1232.0,0.001336
1233.0,0.001276
1234.0,0.001336
1235.0,0.001322
1236.0,0.001329
1237.0,0.001302
1238.0,0.001316
1239.0,0.001294
1240.0,0.001296
1241.0,0.001283
1242.0,0.001278
1243.0,0.001263
1244.0,0.001267
1245.0,0.001269
1246.0,0.001258
1247.0,0.001248
1248.0,0.001242
1249.0,0.001243
1250.0,0.001231
1251.0,0.00121
1252.0,0.001208
1253.0,0.001191
1254.0,0.001173
1255.0,0.001194
1256.0,0.001151
1257.0,0.00114
1258.0,0.001162
1259.0,0.001107
1260.0,0.001111
1261.0,0.001034
1262.0,0.0009943
1263.0,0.000993
1264.0,0.000901
1265.0,0.0009813
1266.0,0.0009338
1267.0,0.0009526
1268.0,0.0008921
1269.0,0.000505
1270.0,0.0009394
1271.0,0.001004
1272.0,0.001005
1273.0,0.0009902
1274.0,0.0009918
1275.0,0.001005
1276.0,0.001014
1277.0,0.001019
1278.0,0.00104
1279.0,0.001027
1280.0,0.001011
1281.0,0.0009641
1282.0,0.0009295
1283.0,0.0009972
1284.0,0.001017
1285.0,0.001021
1286.0,0.001034
1287.0,0.001011
1288.0,0.001008
1289.0,0.0009665
1290.0,0.0009934
1291.0,0.001005
1292.0,0.0009282
1293.0,0.0009758
1294.0,0.0009649
1295.0,0.0009552
1296.0,0.0009004
1297.0,0.0008412
1298.0,0.0009166
1299.0,0.0009599
1300.0,0.0007839
1301.0,0.0008112
1302.0,0.0009035
1303.0,0.0007676
1304.0,0.0006325
1305.0,0.0008732
1306.0,0.0008705
1307.0,0.0006433
1308.0,0.0007571
1309.0,0.0008549
1310.0,0.0006237
1311.0,0.0007143
1312.0,0.0006921
1313.0,0.0006727
1314.0,0.0005876
1315.0,0.0005791
1316.0,0.0006913
1317.0,0.0006462
1318.0,0.0007118
1319.0,0.0005286
1320.0,0.0005091
1321.0,0.0006073
1322.0,0.0006115
1323.0,0.0004362
1324.0,0.0005095
1325.0,0.0006609
1326.0,0.0005502
1327.0,0.0005187
1328.0,0.0004355
1329.0,0.0003114
1330.0,0.0004195
1331.0,0.0002336
1332.0,0.0002426
1333.0,0.0003511
1334.0,0.0002914
1335.0,0.0004193
1336.0,0.0003182
1337.0,0.0002754
1338.0,0.0003002
1339.0,0.0002987
1340.0,0.000289
1341.0,0.0002786
1342.0,0.0002937
1343.0,0.0001861
1344.0,0.0001059
1345.0,0.0001578
1346.0,7.218e-05
1347.0,7.3e-05
1348.0,4.19e-06
1349.0,1.551e-05
1350.0,1.615e-05
1351.0,3.75e-06
1352.0,9.924e-07
1353.0,5.003e-08
1354.0,1.724e-07
1355.0,1.382e-09
1356.0,2.421e-08
1357.0,3.68e-08
1358.0,1.622e-09
1359.0,2.043e-10
1360.0,7.386e-10
1361.0,8.26e-13
1362.0,2.259e-15
1363.0,9.93e-10
