interpolation:linear
wavelength,value
280.0,2.599e-22
280.5,8.555e-21
281.0,4.588e-20
281.5,3.975e-19
282.0,6.485e-19
282.5,1.609e-18
283.0,5.09e-18
283.5,8.289e-18
284.0,1.366e-16
284.5,3.988e-16
285.0,6.547e-16
285.5,3.272e-15
286.0,1.32e-14
286.5,5.95e-14
287.0,1.708e-13
287.5,6.592e-13
288.0,2.293e-12
288.5,6.891e-12
289.0,1.827e-11
289.5,5.502e-11
290.0,1.525e-10
290.5,3.107e-10
291.0,6.667e-10
291.5,1.914e-09
292.0,3.85e-09
292.5,5.412e-09
293.0,1.163e-08
293.5,2.839e-08
294.0,4.446e-08
294.5,6.094e-08
295.0,1.034e-07
295.5,1.73e-07
296.0,3.364e-07
296.5,4.747e-07
297.0,6.473e-07
297.5,1.76e-06
298.0,2.811e-06
298.5,2.859e-06
299.0,6.376e-06
299.5,1.083e-05
300.0,1.208e-05
300.5,1.775e-05
301.0,3.294e-05
301.5,5.377e-05
302.0,4.655e-05
302.5,9.316e-05
303.0,0.0001731
303.5,0.0002244
304.0,0.0002179
304.5,0.0003565
305.0,0.0006181
305.5,0.0007726
306.0,0.0007733
306.5,0.00102
307.0,0.001728
307.5,0.002622
308.0,0.002827
308.5,0.003568
309.0,0.003619
309.5,0.00456
310.0,0.004784
310.5,0.00791
311.0,0.01028
311.5,0.01006
312.0,0.01088
312.5,0.01394
313.0,0.01551
313.5,0.01465
314.0,0.01948
314.5,0.01879
315.0,0.02501
315.5,0.02002
316.0,0.01872
316.5,0.02851
317.0,0.03527
317.5,0.03599
318.0,0.02921
318.5,0.03925
319.0,0.04844
319.5,0.03686
320.0,0.044
320.5,0.05973
321.0,0.05729
321.5,0.05523
322.0,0.0541
322.5,0.04715
323.0,0.04943
323.5,0.06363
324.0,0.07472
324.5,0.07414
325.0,0.06221
325.5,0.08342
326.0,0.1028
326.5,0.1056
327.0,0.1039
327.5,0.09882
328.0,0.08474
328.5,0.09277
329.0,0.1149
329.5,0.1317
330.0,0.1313
330.5,0.1019
331.0,0.1026
331.5,0.1062
332.0,0.1181
332.5,0.1183
333.0,0.1167
333.5,0.1029
334.0,0.1048
334.5,0.1239
335.0,0.118
335.5,0.1388
336.0,0.09584
336.5,0.11
337.0,0.08903
337.5,0.11
338.0,0.1096
338.5,0.1276
339.0,0.1259
339.5,0.1209
340.0,0.1404
340.5,0.1266
341.0,0.124
341.5,0.1135
342.0,0.1353
342.5,0.1263
343.0,0.1386
343.5,0.1303
344.0,0.09551
344.5,0.0969
345.0,0.1277
345.5,0.1301
346.0,0.1103
346.5,0.1246
347.0,0.1334
347.5,0.1076
348.0,0.1224
348.5,0.1221
349.0,0.113
349.5,0.1116
350.0,0.1377
350.5,0.1449
351.0,0.1291
351.5,0.1251
352.0,0.1341
352.5,0.1044
353.0,0.1312
353.5,0.1399
354.0,0.1449
354.5,0.1466
355.0,0.1457
355.5,0.1313
356.0,0.1371
356.5,0.1167
357.0,0.09621
357.5,0.1175
358.0,0.09288
358.5,0.07917
359.0,0.1104
359.5,0.1403
360.0,0.1484
360.5,0.1183
361.0,0.1076
361.5,0.1236
362.0,0.1066
362.5,0.1472
363.0,0.1318
363.5,0.1211
364.0,0.1477
364.5,0.1259
365.0,0.1279
365.5,0.1601
366.0,0.1692
366.5,0.1586
367.0,0.1541
367.5,0.1594
368.0,0.1392
368.5,0.14
369.0,0.1508
369.5,0.1603
370.0,0.1705
370.5,0.132
371.0,0.1406
371.5,0.1755
372.0,0.1161
372.5,0.1389
373.0,0.1409
373.5,0.09143
374.0,0.1325
374.5,0.1094
375.0,0.1061
375.5,0.1579
376.0,0.1306
376.5,0.1349
377.0,0.1425
377.5,0.1662
378.0,0.1797
378.5,0.1693
379.0,0.1393
379.5,0.1269
380.0,0.1315
380.5,0.1589
381.0,0.1587
381.5,0.1255
382.0,0.1111
382.5,0.09444
383.0,0.08718
383.5,0.08373
384.0,0.0921
384.5,0.1351
385.0,0.1336
385.5,0.1241
386.0,0.1059
386.5,0.1388
387.0,0.115
387.5,0.1287
388.0,0.1185
388.5,0.1168
389.0,0.1257
389.5,0.1518
390.0,0.1519
390.5,0.1394
391.0,0.1636
391.5,0.1664
392.0,0.1397
392.5,0.1247
393.0,0.06919
393.5,0.05015
394.0,0.1017
394.5,0.129
395.0,0.1569
395.5,0.1589
396.0,0.1374
396.5,0.08008
397.0,0.05992
397.5,0.1215
398.0,0.1696
398.5,0.1748
399.0,0.1887
399.5,0.1876
400.0,0.1942
401.0,0.1909
402.0,0.2001
403.0,0.1889
404.0,0.1849
405.0,0.1837
406.0,0.1796
407.0,0.1756
408.0,0.1813
409.0,0.1928
410.0,0.1675
411.0,0.1803
412.0,0.1925
413.0,0.1866
414.0,0.1877
415.0,0.187
416.0,0.189
417.0,0.1831
418.0,0.1786
419.0,0.1798
420.0,0.1778
421.0,0.1848
422.0,0.1744
423.0,0.1692
424.0,0.1777
425.0,0.1762
426.0,0.1705
427.0,0.1663
428.0,0.161
429.0,0.1516
430.0,0.1318
431.0,0.1297
432.0,0.1663
433.0,0.1661
434.0,0.1532
435.0,0.159
436.0,0.178
437.0,0.1745
438.0,0.1579
439.0,0.1621
440.0,0.166
441.0,0.1708
442.0,0.1818
443.0,0.1759
444.0,0.1786
445.0,0.1737
446.0,0.1648
447.0,0.177
448.0,0.1785
449.0,0.1779
450.0,0.1815
451.0,0.1869
452.0,0.1789
453.0,0.1672
454.0,0.1734
455.0,0.1732
456.0,0.176
457.0,0.1775
458.0,0.17
459.0,0.1677
460.0,0.1668
461.0,0.1694
462.0,0.1696
463.0,0.1675
464.0,0.1639
465.0,0.161
466.0,0.1615
467.0,0.1574
468.0,0.158
469.0,0.1575
470.0,0.1514
471.0,0.1502
472.0,0.1573
473.0,0.1542
474.0,0.1533
475.0,0.1534
476.0,0.1475
477.0,0.1466
478.0,0.1493
479.0,0.147
480.0,0.146
481.0,0.1473
482.0,0.147
483.0,0.1443
484.0,0.1405
485.0,0.1332
486.0,0.1159
487.0,0.1207
488.0,0.1315
489.0,0.1309
490.0,0.1367
491.0,0.1333
492.0,0.1249
493.0,0.1281
494.0,0.1284
495.0,0.1286
496.0,0.1284
497.0,0.1293
498.0,0.1221
499.0,0.1224
500.0,0.1177
501.0,0.1143
502.0,0.1115
503.0,0.1149
504.0,0.1108
505.0,0.114
506.0,0.1168
507.0,0.1104
508.0,0.1064
509.0,0.1088
510.0,0.1076
511.0,0.1099
512.0,0.1103
513.0,0.1036
514.0,0.102
515.0,0.1002
516.0,0.09923
517.0,0.08752
518.0,0.09134
519.0,0.09507
520.0,0.09774
521.0,0.09785
522.0,0.0971
523.0,0.09461
524.0,0.09711
525.0,0.09734
526.0,0.09214
527.0,0.08596
528.0,0.09003
529.0,0.09407
530.0,0.09194
531.0,0.09252
532.0,0.08864
533.0,0.08543
534.0,0.08737
535.0,0.08873
536.0,0.08899
537.0,0.08493
538.0,0.08584
539.0,0.08455
540.0,0.08048
541.0,0.08035
542.0,0.08217
543.0,0.08067
544.0,0.08147
545.0,0.08068
546.0,0.08041
547.0,0.0798
548.0,0.0783
549.0,0.078
550.0,0.07838
551.0,0.07688
552.0,0.07685
553.0,0.07493
554.0,0.07616
555.0,0.07573
556.0,0.07416
557.0,0.07126
558.0,0.07009
559.0,0.06816
560.0,0.0684
561.0,0.06867
562.0,0.06755
563.0,0.06879
564.0,0.06638
565.0,0.06529
566.0,0.06382
567.0,0.0645
568.0,0.06338
569.0,0.06131
570.0,0.06086
571.0,0.06007
572.0,0.06098
573.0,0.06121
574.0,0.06064
575.0,0.05914
576.0,0.05827
577.0,0.0586
578.0,0.05746
579.0,0.05745
580.0,0.05833
581.0,0.0584
582.0,0.05924
583.0,0.05915
584.0,0.0594
585.0,0.05765
586.0,0.05612
587.0,0.05696
588.0,0.05512
589.0,0.04828
590.0,0.0502
591.0,0.05293
592.0,0.0518
593.0,0.05227
594.0,0.05145
595.0,0.0497
596.0,0.05147
597.0,0.05048
598.0,0.05
599.0,0.04968
600.0,0.04945
601.0,0.04877
602.0,0.04815
603.0,0.04868
604.0,0.04923
605.0,0.04876
606.0,0.04837
607.0,0.04868
608.0,0.04797
609.0,0.04788
610.0,0.04739
611.0,0.04748
612.0,0.04718
613.0,0.04641
614.0,0.04562
615.0,0.04645
616.0,0.04476
617.0,0.0445
618.0,0.04604
619.0,0.04539
620.0,0.04548
621.0,0.0453
622.0,0.04455
623.0,0.04365
624.0,0.04271
625.0,0.04244
626.0,0.04288
627.0,0.04313
628.0,0.03956
629.0,0.04154
630.0,0.04038
631.0,0.04129
632.0,0.04066
633.0,0.04181
634.0,0.0413
635.0,0.0418
636.0,0.0411
637.0,0.04163
638.0,0.04191
639.0,0.0413
640.0,0.04075
641.0,0.04058
642.0,0.04026
643.0,0.04066
644.0,0.04039
645.0,0.04026
646.0,0.03908
647.0,0.03832
648.0,0.03817
649.0,0.03726
650.0,0.03745
651.0,0.03893
652.0,0.03694
653.0,0.03809
654.0,0.03752
655.0,0.03586
656.0,0.03171
657.0,0.03244
658.0,0.03627
659.0,0.0364
660.0,0.0364
661.0,0.0365
662.0,0.03639
663.0,0.03554
664.0,0.03586
665.0,0.03578
666.0,0.03567
667.0,0.03552
668.0,0.03541
669.0,0.03582
670.0,0.03551
671.0,0.03537
672.0,0.03495
673.0,0.03536
674.0,0.03508
675.0,0.03462
676.0,0.03471
677.0,0.03424
678.0,0.03421
679.0,0.03352
680.0,0.03365
681.0,0.03328
682.0,0.03309
683.0,0.03287
684.0,0.03255
685.0,0.03268
686.0,0.03234
687.0,0.01972
688.0,0.02366
689.0,0.02366
690.0,0.02497
691.0,0.02648
692.0,0.02761
693.0,0.02724
694.0,0.02689
695.0,0.02811
696.0,0.02802
697.0,0.02997
698.0,0.02937
699.0,0.02832
700.0,0.02785
701.0,0.02739
702.0,0.02754
703.0,0.02747
704.0,0.02834
705.0,0.02824
706.0,0.02814
707.0,0.02805
708.0,0.02798
709.0,0.02796
710.0,0.02778
711.0,0.02767
712.0,0.02752
713.0,0.02708
714.0,0.02705
715.0,0.02598
716.0,0.02586
717.0,0.02165
718.0,0.01965
719.0,0.01778
720.0,0.01856
721.0,0.02079
722.0,0.02422
723.0,0.02216
724.0,0.01956
725.0,0.01911
726.0,0.02
727.0,0.02028
728.0,0.0188
729.0,0.01962
730.0,0.02071
731.0,0.01963
732.0,0.02116
733.0,0.02254
734.0,0.02304
735.0,0.02242
736.0,0.02229
737.0,0.02227
738.0,0.02267
739.0,0.02211
740.0,0.02263
741.0,0.02232
742.0,0.02226
743.0,0.02272
744.0,0.02255
745.0,0.02246
746.0,0.02245
747.0,0.0224
748.0,0.02224
749.0,0.02188
750.0,0.02177
751.0,0.02147
752.0,0.02147
753.0,0.02149
754.0,0.02144
755.0,0.02122
756.0,0.02113
757.0,0.02107
758.0,0.0207
759.0,0.02009
760.0,0.002754
761.0,0.00144
762.0,0.008913
763.0,0.004188
764.0,0.006423
765.0,0.008779
766.0,0.01114
767.0,0.01456
768.0,0.01731
769.0,0.01773
770.0,0.01842
771.0,0.01856
772.0,0.01853
773.0,0.01857
774.0,0.01838
775.0,0.01815
776.0,0.01829
777.0,0.01795
778.0,0.01775
779.0,0.01767
780.0,0.01749
781.0,0.01743
782.0,0.01747
783.0,0.0171
784.0,0.01711
785.0,0.01691
786.0,0.01702
787.0,0.01659
788.0,0.01628
789.0,0.01619
790.0,0.01559
791.0,0.01575
792.0,0.01557
793.0,0.01524
794.0,0.01553
795.0,0.0157
796.0,0.01502
797.0,0.01497
798.0,0.01546
799.0,0.01527
800.0,0.0149
801.0,0.01476
802.0,0.01465
803.0,0.01446
804.0,0.01442
805.0,0.01435
806.0,0.01474
807.0,0.01447
808.0,0.01442
809.0,0.01404
810.0,0.01382
811.0,0.01372
812.0,0.01317
813.0,0.01279
814.0,0.01093
815.0,0.01082
816.0,0.00993
817.0,0.01009
818.0,0.009632
819.0,0.01095
820.0,0.01018
821.0,0.01221
822.0,0.01174
823.0,0.007447
824.0,0.01121
825.0,0.01177
826.0,0.01117
827.0,0.01187
828.0,0.009713
829.0,0.01099
830.0,0.01077
831.0,0.01078
832.0,0.01034
833.0,0.01114
834.0,0.01061
835.0,0.01181
836.0,0.01112
837.0,0.01175
838.0,0.01127
839.0,0.01148
840.0,0.01169
841.0,0.01145
842.0,0.01146
843.0,0.01144
844.0,0.01121
845.0,0.01157
846.0,0.01147
847.0,0.01122
848.0,0.01107
849.0,0.01071
850.0,0.01021
851.0,0.01074
852.0,0.01062
853.0,0.01018
854.0,0.008742
855.0,0.009583
856.0,0.01042
857.0,0.01063
858.0,0.01051
859.0,0.01048
860.0,0.01046
861.0,0.01036
862.0,0.01049
863.0,0.0107
864.0,0.01012
865.0,0.009996
866.0,0.008952
867.0,0.009305
868.0,0.01009
869.0,0.009837
870.0,0.01008
871.0,0.009898
872.0,0.009823
873.0,0.009763
874.0,0.009604
875.0,0.009367
876.0,0.009422
877.0,0.009478
878.0,0.009537
879.0,0.009351
880.0,0.009112
881.0,0.008929
882.0,0.009083
883.0,0.009082
884.0,0.008997
885.0,0.009023
886.0,0.008533
887.0,0.008612
888.0,0.008687
889.0,0.008775
890.0,0.00863
891.0,0.008598
892.0,0.008279
893.0,0.007937
894.0,0.007534
895.0,0.006979
896.0,0.006471
897.0,0.005387
898.0,0.005939
899.0,0.004307
900.0,0.006107
901.0,0.004526
902.0,0.005466
903.0,0.005451
904.0,0.007171
905.0,0.006847
906.0,0.006331
907.0,0.0049
908.0,0.005018
909.0,0.005513
910.0,0.004708
911.0,0.00509
912.0,0.005331
913.0,0.004717
914.0,0.004673
915.0,0.005088
916.0,0.004202
917.0,0.005533
918.0,0.004284
919.0,0.005618
920.0,0.005722
921.0,0.005975
922.0,0.005196
923.0,0.005731
924.0,0.00528
925.0,0.005133
926.0,0.005175
927.0,0.005883
928.0,0.004005
929.0,0.003579
930.0,0.002691
931.0,0.002529
932.0,0.001732
933.0,0.00137
934.0,0.0007058
935.0,0.001405
936.0,0.000837
937.0,0.0008439
938.0,0.001048
939.0,0.002366
940.0,0.002916
941.0,0.002104
942.0,0.002472
943.0,0.00154
944.0,0.001649
945.0,0.002142
946.0,0.001008
947.0,0.002123
948.0,0.001517
949.0,0.002934
950.0,0.0007073
951.0,0.002872
952.0,0.001419
953.0,0.001888
954.0,0.002389
955.0,0.001907
956.0,0.001869
957.0,0.001392
958.0,0.002755
959.0,0.002085
960.0,0.002353
961.0,0.002698
962.0,0.002528
963.0,0.002984
964.0,0.002687
965.0,0.002949
966.0,0.002934
967.0,0.0029
968.0,0.004174
969.0,0.004342
970.0,0.003914
971.0,0.004622
972.0,0.004358
973.0,0.003643
974.0,0.003421
975.0,0.003572
976.0,0.00332
977.0,0.00391
978.0,0.00364
979.0,0.003844
980.0,0.003559
981.0,0.004422
982.0,0.004159
983.0,0.003945
984.0,0.004566
985.0,0.004096
986.0,0.004648
987.0,0.004501
988.0,0.004475
989.0,0.004603
990.0,0.004414
991.0,0.004568
992.0,0.004582
993.0,0.004427
994.0,0.004553
995.0,0.004537
996.0,0.004494
997.0,0.004487
998.0,0.004448
999.0,0.004417
1000.0,0.004361
1001.0,0.004409
1002.0,0.004232
1003.0,0.004296
1004.0,0.004164
1005.0,0.00401
1006.0,0.004143
1007.0,0.004218
1008.0,0.004173
1009.0,0.004127
1010.0,0.00409
1011.0,0.004135
1012.0,0.004076
1013.0,0.004096
1014.0,0.004053
1015.0,0.00401
1016.0,0.003975
1017.0,0.003968
1018.0,0.003943
1019.0,0.003829
1020.0,0.003889
1021.0,0.003871
1022.0,0.003821
1023.0,0.003847
1024.0,0.003768
1025.0,0.003821
1026.0,0.003786
1027.0,0.003763
1028.0,0.003741
1029.0,0.003682
1030.0,0.003698
1031.0,0.003667
1032.0,0.003644
1033.0,0.003575
1034.0,0.003562
1035.0,0.003559
1036.0,0.003562
1037.0,0.003492
1038.0,0.003494
1039.0,0.003479
1040.0,0.003451
1041.0,0.003451
1042.0,0.003413
1043.0,0.00339
1044.0,0.003389
1045.0,0.003329
1046.0,0.003279
1047.0,0.003295
1048.0,0.003301
1049.0,0.003276
1050.0,0.003248
1051.0,0.00323
1052.0,0.003204
1053.0,0.003166
1054.0,0.00316
1055.0,0.003148
1056.0,0.003123
1057.0,0.0031
1058.0,0.003012
1059.0,0.003003
1060.0,0.002986
1061.0,0.00297
1062.0,0.002973
1063.0,0.002932
1064.0,0.002956
1065.0,0.00292
1066.0,0.002855
1067.0,0.00288
1068.0,0.002803
1069.0,0.002709
1070.0,0.002787
1071.0,0.002831
1072.0,0.00278
1073.0,0.002732
1074.0,0.002805
1075.0,0.002624
1076.0,0.00278
1077.0,0.002703
1078.0,0.002635
1079.0,0.002711
1080.0,0.002629
1081.0,0.002525
1082.0,0.002582
1083.0,0.002587
1084.0,0.002482
1085.0,0.002594
1086.0,0.002308
1087.0,0.002412
1088.0,0.002531
1089.0,0.002417
1090.0,0.002334
1091.0,0.002488
1092.0,0.002478
1093.0,0.002012
1094.0,0.002242
1095.0,0.002094
1096.0,0.001975
1097.0,0.002381
1098.0,0.001923
1099.0,0.00201
1100.0,0.001827
1101.0,0.001855
1102.0,0.001747
1103.0,0.00171
1104.0,0.001709
1105.0,0.001915
1106.0,0.001356
1107.0,0.001783
1108.0,0.001442
1109.0,0.001445
1110.0,0.001739
1111.0,0.001084
1112.0,0.001422
1113.0,0.0008255
1114.0,0.0009293
1115.0,0.0007536
1116.0,0.0005738
1117.0,0.00019
1118.0,0.0006275
1119.0,0.0002882
1120.0,0.0003636
1121.0,0.0004931
1122.0,0.0001925
1123.0,0.000324
1124.0,0.0002706
1125.0,0.0003586
1126.0,0.0001143
1127.0,0.0004044
1128.0,0.0002282
1129.0,0.0002427
1130.0,0.0001556
1131.0,0.0008169
1132.0,0.0006211
1133.0,0.0003687
1134.0,8.606e-05
1135.0,3.197e-05
1136.0,0.0002979
1137.0,0.0007789
1138.0,0.0005311
1139.0,0.0008503
1140.0,0.0006833
1141.0,0.0004983
1142.0,0.0005824
1143.0,0.0008633
1144.0,0.0002678
1145.0,0.0003405
1146.0,0.000367
1147.0,0.0001188
1148.0,0.0007234
1149.0,0.0005564
1150.0,0.0002851
1151.0,0.0005035
1152.0,0.000638
1153.0,0.0006272
1154.0,0.0003198
1155.0,0.0008429
1156.0,0.000742
1157.0,0.0008538
1158.0,0.0008404
1159.0,0.0009209
1160.0,0.0007651
1161.0,0.0009832
1162.0,0.00098
1163.0,0.001412
1164.0,0.001169
1165.0,0.001076
1166.0,0.001077
1167.0,0.001188
1168.0,0.001195
1169.0,0.00123
1170.0,0.001357
1171.0,0.001313
1172.0,0.001345
1173.0,0.00134
1174.0,0.0008898
1175.0,0.001309
1176.0,0.001468
1177.0,0.001384
1178.0,0.0009794
1179.0,0.001466
1180.0,0.001264
1181.0,0.001307
1182.0,0.0008386
1183.0,0.001287
1184.0,0.001179
1185.0,0.00112
1186.0,0.001379
1187.0,0.001292
1188.0,0.0008364
1189.0,0.001189
1190.0,0.001329
1191.0,0.001232
1192.0,0.001343
1193.0,0.00127
1194.0,0.001314
1195.0,0.001221
1196.0,0.001161
1197.0,0.001314
1198.0,0.001181
1199.0,0.0009621
1200.0,0.001229
1201.0,0.001167
1202.0,0.001164
1203.0,0.001152
1204.0,0.0009756
1205.0,0.001191
1206.0,0.001342
1207.0,0.001142
1208.0,0.001133
1209.0,0.001154
1210.0,0.001209
1211.0,0.001132
1212.0,0.0011
1213.0,0.001261
1214.0,0.001127
1215.0,0.001098
1216.0,0.001246
1217.0,0.001201
1218.0,0.001227
1219.0,0.001204
1220.0,0.001221
1221.0,0.001234
1222.0,0.001193
1223.0,0.001175
1224.0,0.001158
1225.0,0.00121
1226.0,0.001219
1227.0,0.001101
1228.0,0.001221
1229.0,0.001208
1230.0,0.001179
1231.0,0.001222
1232.0,0.00121
1233.0,0.001149
1234.0,0.001212
1235.0,0.001198
1236.0,0.001205
1237.0,0.001178
1238.0,0.001193
1239.0,0.001174
1240.0,0.001175
1241.0,0.001162
1242.0,0.001159
1243.0,0.001146
1244.0,0.001149
1245.0,0.001151
1246.0,0.001141
1247.0,0.001132
1248.0,0.001125
1249.0,0.001127
1250.0,0.001115
1251.0,0.001095
1252.0,0.001095
1253.0,0.001077
1254.0,0.001059
1255.0,0.001082
1256.0,0.001038
1257.0,0.001027
1258.0,0.001051
1259.0,0.0009952
1260.0,0.0009992
1261.0,0.000923
1262.0,0.000884
1263.0,0.0008827
1264.0,0.0007937
1265.0,0.0008723
1266.0,0.0008256
1267.0,0.0008453
1268.0,0.000787
1269.0,0.0004303
1270.0,0.0008321
1271.0,0.0008963
1272.0,0.0008982
1273.0,0.000884
1274.0,0.0008865
1275.0,0.0008997
1276.0,0.0009089
1277.0,0.0009158
1278.0,0.0009374
1279.0,0.0009255
1280.0,0.0009113
1281.0,0.0008701
1282.0,0.0008411
1283.0,0.0009019
1284.0,0.0009195
1285.0,0.0009236
1286.0,0.0009361
1287.0,0.0009132
1288.0,0.0009116
1289.0,0.0008696
1290.0,0.0008985
1291.0,0.00091
1292.0,0.000833
1293.0,0.0008817
1294.0,0.0008717
1295.0,0.00086
1296.0,0.0008066
1297.0,0.0007513
1298.0,0.0008247
1299.0,0.0008681
1300.0,0.0007002
1301.0,0.0007256
1302.0,0.000813
1303.0,0.0006866
1304.0,0.0005592
1305.0,0.0007858
1306.0,0.0007819
1307.0,0.000572
1308.0,0.0006792
1309.0,0.0007658
1310.0,0.0005538
1311.0,0.0006391
1312.0,0.000618
1313.0,0.0005987
1314.0,0.0005218
1315.0,0.000512
1316.0,0.0006167
1317.0,0.0005761
1318.0,0.000637
1319.0,0.0004669
1320.0,0.0004521
1321.0,0.0005398
1322.0,0.0005412
1323.0,0.000383
1324.0,0.0004508
1325.0,0.0005885
1326.0,0.0004875
1327.0,0.000459
1328.0,0.0003849
1329.0,0.0002731
1330.0,0.0003667
1331.0,0.0002044
1332.0,0.0002129
1333.0,0.0003041
1334.0,0.0002583
1335.0,0.0003673
1336.0,0.0002786
1337.0,0.0002421
1338.0,0.0002624
1339.0,0.0002616
1340.0,0.0002551
1341.0,0.0002427
1342.0,0.0002557
1343.0,0.0001614
1344.0,9.469e-05
1345.0,0.000138
1346.0,6.442e-05
1347.0,6.499e-05
1348.0,4.044e-06
1349.0,1.458e-05
1350.0,1.514e-05
1351.0,3.628e-06
1352.0,9.744e-07
1353.0,4.958e-08
1354.0,1.704e-07
1355.0,1.372e-09
1356.0,2.401e-08
1357.0,3.648e-08
1358.0,1.611e-09
1359.0,2.029e-10
