interpolation:linear
wavelength,value
280.0,2.504e-21
280.5,7.884000000000001e-20
281.0,4.166e-19
281.5,3.635e-19
282.0,1.022e-18
282.5,2.679e-18
283.0,8.66e-18
283.5,1.417e-17
284.0,2.313e-16
284.5,6.683e-16
285.0,1.496e-15
285.5,7.223e-15
286.0,2.885e-14
286.5,1.271e-13
287.0,3.594e-13
287.5,1.359e-12
288.0,3.683e-12
288.5,1.213e-11
289.0,3.421e-11
289.5,1.077e-10
290.0,3.066e-10
290.5,6.357e-10
291.0,1.386e-09
291.5,4.031e-09
292.0,8.497e-09
292.5,1.269e-08
293.0,2.939e-08
293.5,7.912e-08
294.0,1.325e-07
294.5,1.676e-07
295.0,3.002e-07
295.5,7.447e-07
296.0,1.461e-06
296.5,2.086e-06
297.0,2.878e-06
297.5,8.007e-06
298.0,1.311e-05
298.5,1.365e-05
299.0,3.127e-05
299.5,5.647e-05
300.0,6.566e-05
300.5,0.0001016
301.0,0.0002097
301.5,0.0003894
302.0,0.0003661
302.5,0.0007103
303.0,0.001265
303.5,0.001588
304.0,0.001498
304.5,0.002274
305.0,0.003541
305.5,0.004122
306.0,0.004007
306.5,0.005038
307.0,0.007671
307.5,0.01046
308.0,0.01106
308.5,0.01321
309.0,0.01334
309.5,0.0152
310.0,0.01522
310.5,0.02458
311.0,0.03078
311.5,0.02963
312.0,0.02964
312.5,0.03607
313.0,0.03907
313.5,0.03772
314.0,0.04725
314.5,0.04213
315.0,0.05526
315.5,0.04583
316.0,0.04022
316.5,0.05803
317.0,0.07178
317.5,0.07425
318.0,0.05807
318.5,0.07279
319.0,0.0867
319.5,0.06961
320.0,0.08367
320.5,0.1059
321.0,0.09533
321.5,0.09122
322.0,0.09533
322.5,0.0827
323.0,0.08292
323.5,0.103
324.0,0.12
324.5,0.121
325.0,0.103
325.5,0.1333
326.0,0.1634
326.5,0.1639
327.0,0.1624
327.5,0.156
328.0,0.1376
328.5,0.1451
329.0,0.1744
329.5,0.1979
330.0,0.1984
330.5,0.1573
331.0,0.1594
331.5,0.1621
332.0,0.1758
332.5,0.1739
333.0,0.1724
333.5,0.1546
334.0,0.1577
334.5,0.1824
335.0,0.1715
335.5,0.2026
336.0,0.1398
336.5,0.1603
337.0,0.1306
337.5,0.1617
338.0,0.1582
338.5,0.1843
339.0,0.1811
339.5,0.1741
340.0,0.2016
340.5,0.1811
341.0,0.1776
341.5,0.1615
342.0,0.1921
342.5,0.1789
343.0,0.1966
343.5,0.185
344.0,0.1354
344.5,0.1379
345.0,0.1804
345.5,0.183
346.0,0.1547
346.5,0.1744
347.0,0.187
347.5,0.1508
348.0,0.1708
348.5,0.1699
349.0,0.1569
349.5,0.1549
350.0,0.1908
350.5,0.2005
351.0,0.1787
351.5,0.1737
352.0,0.1854
352.5,0.1439
353.0,0.1805
353.5,0.1922
354.0,0.1987
354.5,0.2007
355.0,0.1994
355.5,0.1794
356.0,0.187
356.5,0.1591
357.0,0.131
357.5,0.1597
358.0,0.1261
358.5,0.1074
359.0,0.1496
359.5,0.1901
360.0,0.2007
360.5,0.1598
361.0,0.1451
361.5,0.1664
362.0,0.1434
362.5,0.1977
363.0,0.1769
363.5,0.1624
364.0,0.1979
364.5,0.1685
365.0,0.171
365.5,0.2138
366.0,0.2257
366.5,0.2113
367.0,0.205
367.5,0.2119
368.0,0.1848
368.5,0.1858
369.0,0.1999
369.5,0.2122
370.0,0.2254
370.5,0.1743
371.0,0.1855
371.5,0.2313
372.0,0.1529
372.5,0.1827
373.0,0.1851
373.5,0.12
374.0,0.1738
374.5,0.1434
375.0,0.1388
375.5,0.2065
376.0,0.1706
376.5,0.1761
377.0,0.1857
377.5,0.2165
378.0,0.2338
378.5,0.2201
379.0,0.1809
379.5,0.1646
380.0,0.1705
380.5,0.2057
381.0,0.2053
381.5,0.1621
382.0,0.1434
382.5,0.1217
383.0,0.1123
383.5,0.1077
384.0,0.1184
384.5,0.1735
385.0,0.1714
385.5,0.159
386.0,0.1357
386.5,0.1775
387.0,0.1469
387.5,0.1644
388.0,0.1512
388.5,0.1489
389.0,0.1601
389.5,0.1932
390.0,0.1931
390.5,0.177
391.0,0.2076
391.5,0.2109
392.0,0.1769
392.5,0.1578
393.0,0.08745
393.5,0.06333
394.0,0.1284
394.5,0.1626
395.0,0.1977
395.5,0.2001
396.0,0.1728
396.5,0.1006
397.0,0.07522
397.5,0.1524
398.0,0.2125
398.5,0.2189
399.0,0.2361
399.5,0.2345
400.0,0.2425
401.0,0.2382
402.0,0.2494
403.0,0.235
404.0,0.2297
405.0,0.2279
406.0,0.2224
407.0,0.2171
408.0,0.2238
409.0,0.2377
410.0,0.2062
411.0,0.2217
412.0,0.2363
413.0,0.2287
414.0,0.2297
415.0,0.2286
416.0,0.2307
417.0,0.2233
418.0,0.2174
419.0,0.2186
420.0,0.2159
421.0,0.2241
422.0,0.2113
423.0,0.2047
424.0,0.2147
425.0,0.2126
426.0,0.2056
427.0,0.2002
428.0,0.1936
429.0,0.182
430.0,0.1581
431.0,0.1554
432.0,0.1991
433.0,0.1986
434.0,0.1829
435.0,0.1896
436.0,0.2121
437.0,0.2077
438.0,0.1878
439.0,0.1927
440.0,0.1973
441.0,0.2027
442.0,0.2157
443.0,0.2085
444.0,0.2114
445.0,0.2053
446.0,0.1945
447.0,0.2087
448.0,0.2103
449.0,0.2094
450.0,0.2135
451.0,0.2197
452.0,0.2101
453.0,0.1961
454.0,0.2033
455.0,0.2029
456.0,0.206
457.0,0.2077
458.0,0.199
459.0,0.1963
460.0,0.1952
461.0,0.1981
462.0,0.1982
463.0,0.1955
464.0,0.1911
465.0,0.1874
466.0,0.1878
467.0,0.1829
468.0,0.1835
469.0,0.1829
470.0,0.1758
471.0,0.1743
472.0,0.1823
473.0,0.1786
474.0,0.1775
475.0,0.1776
476.0,0.1708
477.0,0.1698
478.0,0.173
479.0,0.1704
480.0,0.1693
481.0,0.1709
482.0,0.1704
483.0,0.1671
484.0,0.1626
485.0,0.1538
486.0,0.1336
487.0,0.139
488.0,0.1513
489.0,0.1506
490.0,0.1572
491.0,0.1533
492.0,0.1437
493.0,0.1473
494.0,0.1477
495.0,0.1478
496.0,0.1476
497.0,0.1487
498.0,0.1406
499.0,0.1411
500.0,0.1358
501.0,0.1321
502.0,0.129
503.0,0.1331
504.0,0.1285
505.0,0.1322
506.0,0.1355
507.0,0.128
508.0,0.1232
509.0,0.1259
510.0,0.1244
511.0,0.1269
512.0,0.1273
513.0,0.1196
514.0,0.1179
515.0,0.1158
516.0,0.1147
517.0,0.1012
518.0,0.1056
519.0,0.1099
520.0,0.113
521.0,0.1132
522.0,0.1125
523.0,0.1096
524.0,0.1126
525.0,0.1131
526.0,0.1072
527.0,0.1001
528.0,0.105
529.0,0.1098
530.0,0.1074
531.0,0.1082
532.0,0.1037
533.0,0.09998
534.0,0.1022
535.0,0.1038
536.0,0.1041
537.0,0.09927
538.0,0.1003
539.0,0.09884
540.0,0.09413
541.0,0.09404
542.0,0.09623
543.0,0.09452
544.0,0.09554
545.0,0.09465
546.0,0.09439
547.0,0.09368
548.0,0.09191
549.0,0.09158
550.0,0.09204
551.0,0.09029
552.0,0.09028
553.0,0.08804
554.0,0.08952
555.0,0.08907
556.0,0.08727
557.0,0.08391
558.0,0.08262
559.0,0.08043
560.0,0.0808
561.0,0.0812
562.0,0.07998
563.0,0.08153
564.0,0.07874
565.0,0.07751
566.0,0.07581
567.0,0.07667
568.0,0.07542
569.0,0.07305
570.0,0.07254
571.0,0.07162
572.0,0.07277
573.0,0.07307
574.0,0.0724
575.0,0.07062
576.0,0.06955
577.0,0.06989
578.0,0.06847
579.0,0.0684
580.0,0.06936
581.0,0.06935
582.0,0.07028
583.0,0.07011
584.0,0.07037
585.0,0.06827
586.0,0.06643
587.0,0.06741
588.0,0.0653
589.0,0.05732
590.0,0.05961
591.0,0.06279
592.0,0.06153
593.0,0.06207
594.0,0.06117
595.0,0.05919
596.0,0.06126
597.0,0.06016
598.0,0.05961
599.0,0.05927
600.0,0.059
601.0,0.05818
602.0,0.05745
603.0,0.05806
604.0,0.05868
605.0,0.05807
606.0,0.05756
607.0,0.05786
608.0,0.05693
609.0,0.05675
610.0,0.05609
611.0,0.05613
612.0,0.0557
613.0,0.05473
614.0,0.05373
615.0,0.05464
616.0,0.05259
617.0,0.05224
618.0,0.05399
619.0,0.05319
620.0,0.05325
621.0,0.05303
622.0,0.05212
623.0,0.05103
624.0,0.0499
625.0,0.04955
626.0,0.05005
627.0,0.05033
628.0,0.04639
629.0,0.04849
630.0,0.04711
631.0,0.04805
632.0,0.04727
633.0,0.04854
634.0,0.04789
635.0,0.0484
636.0,0.04754
637.0,0.0481
638.0,0.04837
639.0,0.04761
640.0,0.04693
641.0,0.04667
642.0,0.04627
643.0,0.04669
644.0,0.04634
645.0,0.04617
646.0,0.04481
647.0,0.04398
648.0,0.04376
649.0,0.04271
650.0,0.04282
651.0,0.04448
652.0,0.04225
653.0,0.04346
654.0,0.04278
655.0,0.0409
656.0,0.03612
657.0,0.03693
658.0,0.04124
659.0,0.04136
660.0,0.04133
661.0,0.04141
662.0,0.04129
663.0,0.04031
664.0,0.04062
665.0,0.04048
666.0,0.04033
667.0,0.04012
668.0,0.03996
669.0,0.04039
670.0,0.04002
671.0,0.03983
672.0,0.03934
673.0,0.03979
674.0,0.03945
675.0,0.0389
676.0,0.03899
677.0,0.03844
678.0,0.03839
679.0,0.0376
680.0,0.03772
681.0,0.0373
682.0,0.03707
683.0,0.03682
684.0,0.03644
685.0,0.03657
686.0,0.03618
687.0,0.02271
688.0,0.02701
689.0,0.02699
690.0,0.02836
691.0,0.02994
692.0,0.03108
693.0,0.03066
694.0,0.03021
695.0,0.03147
696.0,0.03135
697.0,0.03342
698.0,0.03274
699.0,0.03164
700.0,0.0311
701.0,0.03062
702.0,0.03075
703.0,0.03065
704.0,0.03157
705.0,0.03146
706.0,0.03132
707.0,0.03121
708.0,0.03112
709.0,0.03106
710.0,0.03088
711.0,0.03075
712.0,0.03057
713.0,0.03009
714.0,0.03004
715.0,0.02889
716.0,0.02876
717.0,0.02431
718.0,0.02203
719.0,0.01991
720.0,0.02083
721.0,0.02322
722.0,0.02695
723.0,0.02469
724.0,0.02185
725.0,0.02136
726.0,0.02238
727.0,0.02262
728.0,0.02102
729.0,0.02187
730.0,0.02313
731.0,0.02192
732.0,0.02355
733.0,0.02502
734.0,0.02553
735.0,0.02486
736.0,0.02472
737.0,0.02469
738.0,0.02507
739.0,0.02444
740.0,0.025
741.0,0.02465
742.0,0.02457
743.0,0.02507
744.0,0.02487
745.0,0.02477
746.0,0.02476
747.0,0.0247
748.0,0.02452
749.0,0.02412
750.0,0.024
751.0,0.02365
752.0,0.02365
753.0,0.02365
754.0,0.02359
755.0,0.02335
756.0,0.02324
757.0,0.02317
758.0,0.02277
759.0,0.02214
760.0,0.003086
761.0,0.001579
762.0,0.01021
763.0,0.004757
764.0,0.007356
765.0,0.01005
766.0,0.01266
767.0,0.01635
768.0,0.01919
769.0,0.0196
770.0,0.02029
771.0,0.02041
772.0,0.02037
773.0,0.02041
774.0,0.0202
775.0,0.01996
776.0,0.02011
777.0,0.01975
778.0,0.01952
779.0,0.01944
780.0,0.01924
781.0,0.01917
782.0,0.01921
783.0,0.01879
784.0,0.0188
785.0,0.01857
786.0,0.01869
787.0,0.01824
788.0,0.01791
789.0,0.01781
790.0,0.01718
791.0,0.01732
792.0,0.01712
793.0,0.01675
794.0,0.01704
795.0,0.01723
796.0,0.01653
797.0,0.01648
798.0,0.01697
799.0,0.01677
800.0,0.01637
801.0,0.01623
802.0,0.01611
803.0,0.0159
804.0,0.01586
805.0,0.01576
806.0,0.01617
807.0,0.01589
808.0,0.01583
809.0,0.01543
810.0,0.0152
811.0,0.01513
812.0,0.01456
813.0,0.01414
814.0,0.01215
815.0,0.01201
816.0,0.01101
817.0,0.0112
818.0,0.0107
819.0,0.01212
820.0,0.01128
821.0,0.01346
822.0,0.01295
823.0,0.008274
824.0,0.01239
825.0,0.01295
826.0,0.01232
827.0,0.01306
828.0,0.01075
829.0,0.0121
830.0,0.01187
831.0,0.01187
832.0,0.0114
833.0,0.01226
834.0,0.01169
835.0,0.01296
836.0,0.01225
837.0,0.01289
838.0,0.0124
839.0,0.01259
840.0,0.01282
841.0,0.01256
842.0,0.01256
843.0,0.01253
844.0,0.01228
845.0,0.01266
846.0,0.01255
847.0,0.01227
848.0,0.01213
849.0,0.01173
850.0,0.01119
851.0,0.01178
852.0,0.01164
853.0,0.01116
854.0,0.009588
855.0,0.0105
856.0,0.01143
857.0,0.01164
858.0,0.01151
859.0,0.01148
860.0,0.01145
861.0,0.01134
862.0,0.01148
863.0,0.0117
864.0,0.01107
865.0,0.01093
866.0,0.00979
867.0,0.01017
868.0,0.01103
869.0,0.01075
870.0,0.01101
871.0,0.01082
872.0,0.01074
873.0,0.01067
874.0,0.0105
875.0,0.01024
876.0,0.0103
877.0,0.01036
878.0,0.01042
879.0,0.01022
880.0,0.00996
881.0,0.009764
882.0,0.009935
883.0,0.009932
884.0,0.00984
885.0,0.009869
886.0,0.009346
887.0,0.009424
888.0,0.009511
889.0,0.009598
890.0,0.009452
891.0,0.00941
892.0,0.009077
893.0,0.008713
894.0,0.008302
895.0,0.007724
896.0,0.007156
897.0,0.005976
898.0,0.006586
899.0,0.004778
900.0,0.006753
901.0,0.00504
902.0,0.006055
903.0,0.006055
904.0,0.007903
905.0,0.007553
906.0,0.006988
907.0,0.005443
908.0,0.005564
909.0,0.006108
910.0,0.005239
911.0,0.005637
912.0,0.005914
913.0,0.005252
914.0,0.005193
915.0,0.005678
916.0,0.004666
917.0,0.006151
918.0,0.004768
919.0,0.006228
920.0,0.006304
921.0,0.006602
922.0,0.005759
923.0,0.006327
924.0,0.00587
925.0,0.005698
926.0,0.005758
927.0,0.006528
928.0,0.004492
929.0,0.004025
930.0,0.003028
931.0,0.002842
932.0,0.001945
933.0,0.001532
934.0,0.0007803
935.0,0.001567
936.0,0.000925
937.0,0.000933
938.0,0.001166
939.0,0.002659
940.0,0.003283
941.0,0.002371
942.0,0.002788
943.0,0.001722
944.0,0.001834
945.0,0.002408
946.0,0.00112
947.0,0.002393
948.0,0.001689
949.0,0.003322
950.0,0.00078
951.0,0.003248
952.0,0.001587
953.0,0.00212
954.0,0.002687
955.0,0.002144
956.0,0.00207
957.0,0.00156
958.0,0.00307
959.0,0.002331
960.0,0.002644
961.0,0.00302
962.0,0.002826
963.0,0.00333
964.0,0.002996
965.0,0.003294
966.0,0.00328
967.0,0.003245
968.0,0.004607
969.0,0.00482
970.0,0.004341
971.0,0.005096
972.0,0.004811
973.0,0.004053
974.0,0.003803
975.0,0.00396
976.0,0.003701
977.0,0.00432
978.0,0.004039
979.0,0.004261
980.0,0.003941
981.0,0.004876
982.0,0.004599
983.0,0.004367
984.0,0.005017
985.0,0.004532
986.0,0.005095
987.0,0.004949
988.0,0.004918
989.0,0.005037
990.0,0.004855
991.0,0.005005
992.0,0.005018
993.0,0.004862
994.0,0.004984
995.0,0.004964
996.0,0.004918
997.0,0.004909
998.0,0.004866
999.0,0.004832
1000.0,0.004774
1001.0,0.004823
1002.0,0.004644
1003.0,0.0047
1004.0,0.004559
1005.0,0.004385
1006.0,0.004533
1007.0,0.004614
1008.0,0.004567
1009.0,0.00452
1010.0,0.004481
1011.0,0.004523
1012.0,0.00446
1013.0,0.00448
1014.0,0.004432
1015.0,0.004386
1016.0,0.004348
1017.0,0.004341
1018.0,0.004311
1019.0,0.004192
1020.0,0.004253
1021.0,0.004233
1022.0,0.00418
1023.0,0.004208
1024.0,0.004128
1025.0,0.004178
1026.0,0.004142
1027.0,0.004116
1028.0,0.004092
1029.0,0.004028
1030.0,0.004045
1031.0,0.004011
1032.0,0.003985
1033.0,0.00391
1034.0,0.003895
1035.0,0.003892
1036.0,0.003896
1037.0,0.003819
1038.0,0.003822
1039.0,0.003806
1040.0,0.003776
1041.0,0.003775
1042.0,0.003735
1043.0,0.003709
1044.0,0.003708
1045.0,0.003644
1046.0,0.003589
1047.0,0.003607
1048.0,0.003614
1049.0,0.003587
1050.0,0.003557
1051.0,0.003538
1052.0,0.003509
1053.0,0.003468
1054.0,0.003463
1055.0,0.00345
1056.0,0.003424
1057.0,0.003399
1058.0,0.003303
1059.0,0.003294
1060.0,0.003276
1061.0,0.003259
1062.0,0.003263
1063.0,0.003218
1064.0,0.003246
1065.0,0.003207
1066.0,0.003135
1067.0,0.003162
1068.0,0.003079
1069.0,0.002975
1070.0,0.003062
1071.0,0.003106
1072.0,0.003053
1073.0,0.003
1074.0,0.003076
1075.0,0.002887
1076.0,0.003049
1077.0,0.002969
1078.0,0.002898
1079.0,0.002971
1080.0,0.002888
1081.0,0.00278
1082.0,0.002833
1083.0,0.002836
1084.0,0.002733
1085.0,0.002849
1086.0,0.002543
1087.0,0.002654
1088.0,0.002777
1089.0,0.00266
1090.0,0.002572
1091.0,0.002731
1092.0,0.002719
1093.0,0.002226
1094.0,0.002463
1095.0,0.00232
1096.0,0.002192
1097.0,0.002612
1098.0,0.002138
1099.0,0.002232
1100.0,0.002033
1101.0,0.002062
1102.0,0.001947
1103.0,0.001909
1104.0,0.001907
1105.0,0.002128
1106.0,0.001527
1107.0,0.001986
1108.0,0.001616
1109.0,0.001618
1110.0,0.001941
1111.0,0.001218
1112.0,0.001591
1113.0,0.0009277
1114.0,0.001049
1115.0,0.0008457
1116.0,0.0006453
1117.0,0.0002084
1118.0,0.0007074
1119.0,0.0003196
1120.0,0.0004082
1121.0,0.000559
1122.0,0.0002122
1123.0,0.0003618
1124.0,0.0003001
1125.0,0.0004018
1126.0,0.0001243
1127.0,0.000455
1128.0,0.0002535
1129.0,0.0002703
1130.0,0.0001702
1131.0,0.0009347
1132.0,0.0007053
1133.0,0.0004157
1134.0,9.272e-05
1135.0,3.358e-05
1136.0,0.0003343
1137.0,0.0008945
1138.0,0.0006011
1139.0,0.0009603
1140.0,0.0007734
1141.0,0.0005625
1142.0,0.0006588
1143.0,0.0009835
1144.0,0.0002969
1145.0,0.0003836
1146.0,0.0004148
1147.0,0.0001297
1148.0,0.0008203
1149.0,0.0006291
1150.0,0.0003156
1151.0,0.0005697
1152.0,0.0007238
1153.0,0.0007058
1154.0,0.0003589
1155.0,0.0009544
1156.0,0.0008406
1157.0,0.0009619
1158.0,0.000947
1159.0,0.001038
1160.0,0.0008589
1161.0,0.001101
1162.0,0.001098
1163.0,0.00157
1164.0,0.001304
1165.0,0.001207
1166.0,0.0012
1167.0,0.001322
1168.0,0.001332
1169.0,0.001372
1170.0,0.001507
1171.0,0.001456
1172.0,0.001486
1173.0,0.001487
1174.0,0.0009935
1175.0,0.001447
1176.0,0.001613
1177.0,0.001528
1178.0,0.001086
1179.0,0.001611
1180.0,0.001398
1181.0,0.001447
1182.0,0.0009322
1183.0,0.001423
1184.0,0.001305
1185.0,0.001244
1186.0,0.001521
1187.0,0.001429
1188.0,0.0009345
1189.0,0.001315
1190.0,0.001464
1191.0,0.001367
1192.0,0.001478
1193.0,0.0014
1194.0,0.001448
1195.0,0.001352
1196.0,0.001288
1197.0,0.001447
1198.0,0.0013
1199.0,0.00107
1200.0,0.001356
1201.0,0.001293
1202.0,0.001283
1203.0,0.001276
1204.0,0.001081
1205.0,0.001311
1206.0,0.001473
1207.0,0.001263
1208.0,0.001249
1209.0,0.001271
1210.0,0.00133
1211.0,0.001249
1212.0,0.001223
1213.0,0.001389
1214.0,0.001251
1215.0,0.001219
1216.0,0.001371
1217.0,0.001324
1218.0,0.00135
1219.0,0.001327
1220.0,0.001343
1221.0,0.001356
1222.0,0.001311
1223.0,0.001293
1224.0,0.001278
1225.0,0.00133
1226.0,0.001338
1227.0,0.001215
1228.0,0.001339
1229.0,0.001326
1230.0,0.001296
1231.0,0.001338
1232.0,0.001325
1233.0,0.001265
1234.0,0.001326
1235.0,0.001311
1236.0,0.001318
1237.0,0.001291
1238.0,0.001305
1239.0,0.001284
1240.0,0.001285
1241.0,0.001272
1242.0,0.001268
1243.0,0.001253
1244.0,0.001257
1245.0,0.001259
1246.0,0.001248
1247.0,0.001238
1248.0,0.001232
1249.0,0.001233
1250.0,0.001221
1251.0,0.0012
1252.0,0.001198
1253.0,0.001181
1254.0,0.001163
1255.0,0.001184
1256.0,0.001141
1257.0,0.00113
1258.0,0.001153
1259.0,0.001098
1260.0,0.001101
1261.0,0.001024
1262.0,0.0009847
1263.0,0.0009834
1264.0,0.0008915
1265.0,0.0009718
1266.0,0.0009243
1267.0,0.0009432
1268.0,0.0008829
1269.0,0.0004978
1270.0,0.00093
1271.0,0.0009945
1272.0,0.000996
1273.0,0.000981
1274.0,0.0009827
1275.0,0.0009961
1276.0,0.001005
1277.0,0.00101
1278.0,0.001032
1279.0,0.001019
1280.0,0.001003
1281.0,0.000956
1282.0,0.0009218
1283.0,0.000989
1284.0,0.001009
1285.0,0.001013
1286.0,0.001025
1287.0,0.001002
1288.0,0.0009999
1289.0,0.0009581
1290.0,0.0009852
1291.0,0.000997
1292.0,0.00092
1293.0,0.0009676
1294.0,0.0009569
1295.0,0.0009469
1296.0,0.0008922
1297.0,0.0008333
1298.0,0.0009086
1299.0,0.000952
1300.0,0.0007765
1301.0,0.0008037
1302.0,0.0008957
1303.0,0.0007604
1304.0,0.0006258
1305.0,0.0008656
1306.0,0.0008628
1307.0,0.0006369
1308.0,0.0007503
1309.0,0.0008471
1310.0,0.0006174
1311.0,0.0007076
1312.0,0.0006855
1313.0,0.0006661
1314.0,0.0005817
1315.0,0.000573
1316.0,0.0006847
1317.0,0.0006399
1318.0,0.0007052
1319.0,0.000523
1320.0,0.000504
1321.0,0.0006012
1322.0,0.0006052
1323.0,0.0004312
1324.0,0.0005041
1325.0,0.0006545
1326.0,0.0005445
1327.0,0.0005133
1328.0,0.0004309
1329.0,0.0003077
1330.0,0.0004145
1331.0,0.0002307
1332.0,0.0002397
1333.0,0.0003466
1334.0,0.0002883
1335.0,0.0004145
1336.0,0.0003144
1337.0,0.0002721
1338.0,0.0002966
1339.0,0.0002952
1340.0,0.0002858
1341.0,0.0002751
1342.0,0.00029
1343.0,0.0001835
1344.0,0.0001047
1345.0,0.0001557
1346.0,7.125e-05
1347.0,7.202e-05
1348.0,4.168e-06
1349.0,1.538e-05
1350.0,1.601e-05
1351.0,3.73e-06
1352.0,9.894e-07
1353.0,4.998e-08
1354.0,1.721e-07
1355.0,1.381e-09
1356.0,2.419e-08
1357.0,3.677e-08
1358.0,1.622e-09
1359.0,2.043e-10
1360.0,7.382e-10
1361.0,8.257e-13
1362.0,2.259e-15
1363.0,9.926e-10
