interpolation:linear
wavelength,value
280.0,4.244e-21
280.5,1.315e-19
281.0,6.914e-19
281.5,4.593e-19
282.0,1.243e-18
282.5,3.224e-18
283.0,1.032e-17
283.5,1.684e-17
284.0,2.697e-16
284.5,7.738e-16
285.0,1.68e-15
285.5,8.334e-15
286.0,3.348e-14
286.5,1.483e-13
287.0,4.202e-13
287.5,1.589e-12
288.0,4.11e-12
288.5,1.399e-11
289.0,4.045e-11
289.5,1.301e-10
290.0,3.753e-10
290.5,7.858e-10
291.0,1.729e-09
291.5,5.441e-09
292.0,1.176e-08
292.5,1.789e-08
293.0,4.247e-08
293.5,1.186e-07
294.0,2.044e-07
294.5,2.527e-07
295.0,4.659e-07
295.5,1.215e-06
296.0,2.373e-06
296.5,3.37e-06
297.0,4.63e-06
297.5,1.28e-05
298.0,2.082e-05
298.5,2.155e-05
299.0,4.91e-05
299.5,8.76e-05
300.0,0.0001011
300.5,0.0001549
301.0,0.0003135
301.5,0.0005679
302.0,0.0005249
302.5,0.001009
303.0,0.001775
303.5,0.002209
304.0,0.00207
304.5,0.003088
305.0,0.004692
305.5,0.005378
306.0,0.005195
306.5,0.006465
307.0,0.009628
307.5,0.01285
308.0,0.01354
308.5,0.016
309.0,0.01615
309.5,0.01814
310.0,0.01805
310.5,0.02905
311.0,0.03618
311.5,0.03473
312.0,0.03436
312.5,0.0415
313.0,0.04477
313.5,0.04336
314.0,0.05384
314.5,0.04745
315.0,0.06209
315.5,0.05177
316.0,0.045
316.5,0.0644
317.0,0.07965
317.5,0.08255
318.0,0.0642
318.5,0.07962
319.0,0.09432
319.5,0.07635
320.0,0.09187
320.5,0.115
321.0,0.1025
321.5,0.09799
322.0,0.1034
322.5,0.08967
323.0,0.08929
323.5,0.1105
324.0,0.1286
324.5,0.13
325.0,0.1107
325.5,0.1424
326.0,0.1748
326.5,0.1747
327.0,0.1734
327.5,0.1667
328.0,0.1476
328.5,0.1549
329.0,0.1854
329.5,0.2099
330.0,0.2107
330.5,0.1675
331.0,0.1699
331.5,0.1723
332.0,0.1862
332.5,0.1838
333.0,0.1824
333.5,0.164
334.0,0.1673
334.5,0.1929
335.0,0.181
335.5,0.2143
336.0,0.1478
336.5,0.1692
337.0,0.138
337.5,0.1709
338.0,0.1668
338.5,0.1946
339.0,0.1911
339.5,0.1837
340.0,0.2123
340.5,0.1907
341.0,0.1872
341.5,0.1701
342.0,0.2022
342.5,0.1882
343.0,0.207
343.5,0.1947
344.0,0.1423
344.5,0.1452
345.0,0.1897
345.5,0.1924
346.0,0.1626
346.5,0.1832
347.0,0.1965
347.5,0.1585
348.0,0.1793
348.5,0.1782
349.0,0.1646
349.5,0.1624
350.0,0.2001
350.5,0.2102
351.0,0.1873
351.5,0.1822
352.0,0.1944
352.5,0.1508
353.0,0.189
353.5,0.2012
354.0,0.208
354.5,0.2101
355.0,0.2087
355.5,0.1877
356.0,0.1956
356.5,0.1664
357.0,0.1369
357.5,0.167
358.0,0.1318
358.5,0.1122
359.0,0.1563
359.5,0.1986
360.0,0.2096
360.5,0.1668
361.0,0.1515
361.5,0.1737
362.0,0.1496
362.5,0.2063
363.0,0.1846
363.5,0.1694
364.0,0.2063
364.5,0.1757
365.0,0.1782
365.5,0.2228
366.0,0.2352
366.5,0.2201
367.0,0.2135
367.5,0.2207
368.0,0.1924
368.5,0.1934
369.0,0.2081
369.5,0.2209
370.0,0.2346
370.5,0.1814
371.0,0.193
371.5,0.2406
372.0,0.159
372.5,0.19
373.0,0.1925
373.5,0.1248
374.0,0.1806
374.5,0.149
375.0,0.1443
375.5,0.2146
376.0,0.1772
376.5,0.1829
377.0,0.1929
377.5,0.2248
378.0,0.2427
378.5,0.2285
379.0,0.1878
379.5,0.1708
380.0,0.1769
380.5,0.2133
381.0,0.2129
381.5,0.1681
382.0,0.1487
382.5,0.1262
383.0,0.1164
383.5,0.1116
384.0,0.1227
384.5,0.1797
385.0,0.1775
385.5,0.1647
386.0,0.1405
386.5,0.1838
387.0,0.1521
387.5,0.1702
388.0,0.1565
388.5,0.1541
389.0,0.1657
389.5,0.1998
390.0,0.1998
390.5,0.1831
391.0,0.2147
391.5,0.2181
392.0,0.1829
392.5,0.1631
393.0,0.09039
393.5,0.06545
394.0,0.1327
394.5,0.168
395.0,0.2042
395.5,0.2067
396.0,0.1785
396.5,0.1039
397.0,0.07766
397.5,0.1573
398.0,0.2194
398.5,0.2259
399.0,0.2437
399.5,0.2419
400.0,0.2502
401.0,0.2458
402.0,0.2572
403.0,0.2424
404.0,0.2368
405.0,0.2349
406.0,0.2292
407.0,0.2237
408.0,0.2305
409.0,0.2448
410.0,0.2123
411.0,0.2282
412.0,0.2432
413.0,0.2353
414.0,0.2364
415.0,0.2351
416.0,0.2373
417.0,0.2296
418.0,0.2235
419.0,0.2247
420.0,0.2219
421.0,0.2302
422.0,0.217
423.0,0.2102
424.0,0.2205
425.0,0.2183
426.0,0.211
427.0,0.2055
428.0,0.1987
429.0,0.1868
430.0,0.1622
431.0,0.1594
432.0,0.2041
433.0,0.2036
434.0,0.1875
435.0,0.1943
436.0,0.2174
437.0,0.2129
438.0,0.1924
439.0,0.1974
440.0,0.2021
441.0,0.2077
442.0,0.2209
443.0,0.2135
444.0,0.2165
445.0,0.2102
446.0,0.1991
447.0,0.2136
448.0,0.2152
449.0,0.2143
450.0,0.2185
451.0,0.2248
452.0,0.2149
453.0,0.2006
454.0,0.2079
455.0,0.2075
456.0,0.2107
457.0,0.2124
458.0,0.2034
459.0,0.2007
460.0,0.1996
461.0,0.2026
462.0,0.2027
463.0,0.1999
464.0,0.1953
465.0,0.1915
466.0,0.1919
467.0,0.1869
468.0,0.1875
469.0,0.1868
470.0,0.1795
471.0,0.178
472.0,0.1862
473.0,0.1824
474.0,0.1812
475.0,0.1813
476.0,0.1745
477.0,0.1735
478.0,0.1767
479.0,0.1741
480.0,0.173
481.0,0.1746
482.0,0.1741
483.0,0.1707
484.0,0.166
485.0,0.1571
486.0,0.1364
487.0,0.1419
488.0,0.1545
489.0,0.1537
490.0,0.1605
491.0,0.1565
492.0,0.1467
493.0,0.1503
494.0,0.1507
495.0,0.1509
496.0,0.1507
497.0,0.1518
498.0,0.1435
499.0,0.1441
500.0,0.1387
501.0,0.1349
502.0,0.1319
503.0,0.136
504.0,0.1314
505.0,0.1351
506.0,0.1385
507.0,0.1309
508.0,0.1259
509.0,0.1286
510.0,0.1271
511.0,0.1296
512.0,0.1301
513.0,0.1222
514.0,0.1204
515.0,0.1184
516.0,0.1172
517.0,0.1034
518.0,0.1079
519.0,0.1124
520.0,0.1156
521.0,0.1158
522.0,0.115
523.0,0.1121
524.0,0.1152
525.0,0.1157
526.0,0.1096
527.0,0.1024
528.0,0.1074
529.0,0.1124
530.0,0.11
531.0,0.1108
532.0,0.1062
533.0,0.1024
534.0,0.1047
535.0,0.1063
536.0,0.1066
537.0,0.1017
538.0,0.1027
539.0,0.1012
540.0,0.09641
541.0,0.09634
542.0,0.09859
543.0,0.09685
544.0,0.0979
545.0,0.09701
546.0,0.09675
547.0,0.09602
548.0,0.09421
549.0,0.09387
550.0,0.09435
551.0,0.09256
552.0,0.09255
553.0,0.09026
554.0,0.09179
555.0,0.09134
556.0,0.08949
557.0,0.08606
558.0,0.08475
559.0,0.08252
560.0,0.08292
561.0,0.08334
562.0,0.0821
563.0,0.08371
564.0,0.08086
565.0,0.0796
566.0,0.07787
567.0,0.07876
568.0,0.07749
569.0,0.07507
570.0,0.07456
571.0,0.07361
572.0,0.07481
573.0,0.07513
574.0,0.07444
575.0,0.07261
576.0,0.0715
577.0,0.07185
578.0,0.07038
579.0,0.07029
580.0,0.07126
581.0,0.07124
582.0,0.07218
583.0,0.07199
584.0,0.07225
585.0,0.07009
586.0,0.0682
587.0,0.06921
588.0,0.06705
589.0,0.05889
590.0,0.06123
591.0,0.0645
592.0,0.06321
593.0,0.06377
594.0,0.06285
595.0,0.06084
596.0,0.06295
597.0,0.06184
598.0,0.06128
599.0,0.06093
600.0,0.06066
601.0,0.05982
602.0,0.05906
603.0,0.05969
604.0,0.06033
605.0,0.05969
606.0,0.05915
607.0,0.05945
608.0,0.05849
609.0,0.05829
610.0,0.05759
611.0,0.05762
612.0,0.05718
613.0,0.05617
614.0,0.05512
615.0,0.05605
616.0,0.05394
617.0,0.05357
618.0,0.05536
619.0,0.05453
620.0,0.05459
621.0,0.05435
622.0,0.05342
623.0,0.0523
624.0,0.05113
625.0,0.05078
626.0,0.05128
627.0,0.05157
628.0,0.04757
629.0,0.04969
630.0,0.04827
631.0,0.04921
632.0,0.0484
633.0,0.04969
634.0,0.04901
635.0,0.04953
636.0,0.04864
637.0,0.04921
638.0,0.04947
639.0,0.04868
640.0,0.04798
641.0,0.04771
642.0,0.04729
643.0,0.04772
644.0,0.04735
645.0,0.04717
646.0,0.04579
647.0,0.04494
648.0,0.04472
649.0,0.04364
650.0,0.04373
651.0,0.04542
652.0,0.04316
653.0,0.04437
654.0,0.04367
655.0,0.04175
656.0,0.03687
657.0,0.03769
658.0,0.04209
659.0,0.0422
660.0,0.04217
661.0,0.04225
662.0,0.04212
663.0,0.04111
664.0,0.04143
665.0,0.04127
666.0,0.04111
667.0,0.04089
668.0,0.04073
669.0,0.04116
670.0,0.04078
671.0,0.04059
672.0,0.04008
673.0,0.04054
674.0,0.04018
675.0,0.03962
676.0,0.03971
677.0,0.03915
678.0,0.03909
679.0,0.03828
680.0,0.03841
681.0,0.03797
682.0,0.03774
683.0,0.03748
684.0,0.0371
685.0,0.03723
686.0,0.03683
687.0,0.02324
688.0,0.02759
689.0,0.02757
690.0,0.02895
691.0,0.03053
692.0,0.03167
693.0,0.03124
694.0,0.03077
695.0,0.03204
696.0,0.03192
697.0,0.034
698.0,0.03331
699.0,0.0322
700.0,0.03165
701.0,0.03116
702.0,0.03129
703.0,0.03119
704.0,0.03212
705.0,0.032
706.0,0.03186
707.0,0.03174
708.0,0.03166
709.0,0.03159
710.0,0.0314
711.0,0.03127
712.0,0.03108
713.0,0.0306
714.0,0.03055
715.0,0.02938
716.0,0.02925
717.0,0.02477
718.0,0.02244
719.0,0.02028
720.0,0.02123
721.0,0.02364
722.0,0.02741
723.0,0.02512
724.0,0.02224
725.0,0.02176
726.0,0.0228
727.0,0.02302
728.0,0.02141
729.0,0.02225
730.0,0.02354
731.0,0.02231
732.0,0.02396
733.0,0.02544
734.0,0.02596
735.0,0.02527
736.0,0.02514
737.0,0.0251
738.0,0.02548
739.0,0.02484
740.0,0.0254
741.0,0.02504
742.0,0.02496
743.0,0.02546
744.0,0.02527
745.0,0.02516
746.0,0.02515
747.0,0.02509
748.0,0.02491
749.0,0.0245
750.0,0.02437
751.0,0.02402
752.0,0.02402
753.0,0.02402
754.0,0.02395
755.0,0.02371
756.0,0.0236
757.0,0.02353
758.0,0.02312
759.0,0.02249
760.0,0.003168
761.0,0.001616
762.0,0.01045
763.0,0.004886
764.0,0.007548
765.0,0.01029
766.0,0.01293
767.0,0.01666
768.0,0.01952
769.0,0.01992
770.0,0.02061
771.0,0.02072
772.0,0.02068
773.0,0.02072
774.0,0.02051
775.0,0.02026
776.0,0.02042
777.0,0.02005
778.0,0.01982
779.0,0.01974
780.0,0.01954
781.0,0.01947
782.0,0.0195
783.0,0.01908
784.0,0.01908
785.0,0.01886
786.0,0.01898
787.0,0.01852
788.0,0.01819
789.0,0.01808
790.0,0.01746
791.0,0.01759
792.0,0.01738
793.0,0.01701
794.0,0.01729
795.0,0.01749
796.0,0.01678
797.0,0.01674
798.0,0.01723
799.0,0.01703
800.0,0.01663
801.0,0.01648
802.0,0.01636
803.0,0.01615
804.0,0.0161
805.0,0.016
806.0,0.01641
807.0,0.01613
808.0,0.01607
809.0,0.01567
810.0,0.01544
811.0,0.01537
812.0,0.01479
813.0,0.01437
814.0,0.01236
815.0,0.01222
816.0,0.0112
817.0,0.01139
818.0,0.01089
819.0,0.01233
820.0,0.01147
821.0,0.01367
822.0,0.01316
823.0,0.008424
824.0,0.0126
825.0,0.01316
826.0,0.01251
827.0,0.01326
828.0,0.01093
829.0,0.01229
830.0,0.01206
831.0,0.01206
832.0,0.01158
833.0,0.01245
834.0,0.01188
835.0,0.01316
836.0,0.01244
837.0,0.01309
838.0,0.01259
839.0,0.01278
840.0,0.01302
841.0,0.01276
842.0,0.01275
843.0,0.01271
844.0,0.01246
845.0,0.01285
846.0,0.01274
847.0,0.01245
848.0,0.01231
849.0,0.01191
850.0,0.01136
851.0,0.01195
852.0,0.01182
853.0,0.01133
854.0,0.009732
855.0,0.01066
856.0,0.0116
857.0,0.01182
858.0,0.01168
859.0,0.01165
860.0,0.01162
861.0,0.01151
862.0,0.01164
863.0,0.01187
864.0,0.01124
865.0,0.01109
866.0,0.009933
867.0,0.01032
868.0,0.01119
869.0,0.01091
870.0,0.01117
871.0,0.01098
872.0,0.01089
873.0,0.01083
874.0,0.01065
875.0,0.01038
876.0,0.01045
877.0,0.01051
878.0,0.01058
879.0,0.01037
880.0,0.0101
881.0,0.009907
882.0,0.01008
883.0,0.01008
884.0,0.009984
885.0,0.01001
886.0,0.009485
887.0,0.009562
888.0,0.009652
889.0,0.009739
890.0,0.009592
891.0,0.009549
892.0,0.009214
893.0,0.008847
894.0,0.008435
895.0,0.007855
896.0,0.007277
897.0,0.006083
898.0,0.006701
899.0,0.004864
900.0,0.006867
901.0,0.005135
902.0,0.006159
903.0,0.006163
904.0,0.00803
905.0,0.007676
906.0,0.007103
907.0,0.00554
908.0,0.005663
909.0,0.006213
910.0,0.005336
911.0,0.005736
912.0,0.006017
913.0,0.00535
914.0,0.005287
915.0,0.005785
916.0,0.00475
917.0,0.006261
918.0,0.004856
919.0,0.006336
920.0,0.006407
921.0,0.006712
922.0,0.00586
923.0,0.006432
924.0,0.005975
925.0,0.005799
926.0,0.005862
927.0,0.00664
928.0,0.004583
929.0,0.004109
930.0,0.003094
931.0,0.002901
932.0,0.001987
933.0,0.001565
934.0,0.0007974
935.0,0.0016
936.0,0.0009437
937.0,0.0009521
938.0,0.001191
939.0,0.002716
940.0,0.003351
941.0,0.002422
942.0,0.002848
943.0,0.001758
944.0,0.001869
945.0,0.00246
946.0,0.001143
947.0,0.002446
948.0,0.001723
949.0,0.003396
950.0,0.000796
951.0,0.003319
952.0,0.001621
953.0,0.002165
954.0,0.002743
955.0,0.002191
956.0,0.00211
957.0,0.001594
958.0,0.003127
959.0,0.002378
960.0,0.0027
961.0,0.003081
962.0,0.002882
963.0,0.003394
964.0,0.003054
965.0,0.003357
966.0,0.003344
967.0,0.003308
968.0,0.004684
969.0,0.004904
970.0,0.004417
971.0,0.005179
972.0,0.00489
973.0,0.004126
974.0,0.003872
975.0,0.004029
976.0,0.00377
977.0,0.004393
978.0,0.004111
979.0,0.004335
980.0,0.00401
981.0,0.004955
982.0,0.004676
983.0,0.004442
984.0,0.005095
985.0,0.004609
986.0,0.005172
987.0,0.005026
988.0,0.004995
989.0,0.005112
990.0,0.004931
991.0,0.00508
992.0,0.005093
993.0,0.004937
994.0,0.005058
995.0,0.005037
996.0,0.004991
997.0,0.004981
998.0,0.004938
999.0,0.004904
1000.0,0.004845
1001.0,0.004894
1002.0,0.004715
1003.0,0.004769
1004.0,0.004627
1005.0,0.00445
1006.0,0.0046
1007.0,0.004682
1008.0,0.004634
1009.0,0.004588
1010.0,0.004548
1011.0,0.00459
1012.0,0.004526
1013.0,0.004546
1014.0,0.004498
1015.0,0.00445
1016.0,0.004412
1017.0,0.004405
1018.0,0.004375
1019.0,0.004255
1020.0,0.004316
1021.0,0.004295
1022.0,0.004241
1023.0,0.00427
1024.0,0.00419
1025.0,0.00424
1026.0,0.004203
1027.0,0.004177
1028.0,0.004153
1029.0,0.004088
1030.0,0.004104
1031.0,0.004071
1032.0,0.004044
1033.0,0.003968
1034.0,0.003953
1035.0,0.00395
1036.0,0.003954
1037.0,0.003875
1038.0,0.003878
1039.0,0.003862
1040.0,0.003832
1041.0,0.003831
1042.0,0.00379
1043.0,0.003764
1044.0,0.003764
1045.0,0.003698
1046.0,0.003643
1047.0,0.003661
1048.0,0.003668
1049.0,0.003641
1050.0,0.00361
1051.0,0.003591
1052.0,0.003562
1053.0,0.003521
1054.0,0.003515
1055.0,0.003503
1056.0,0.003476
1057.0,0.003451
1058.0,0.003354
1059.0,0.003344
1060.0,0.003326
1061.0,0.003309
1062.0,0.003313
1063.0,0.003268
1064.0,0.003296
1065.0,0.003257
1066.0,0.003183
1067.0,0.003211
1068.0,0.003127
1069.0,0.003021
1070.0,0.003109
1071.0,0.003153
1072.0,0.0031
1073.0,0.003046
1074.0,0.003123
1075.0,0.002933
1076.0,0.003096
1077.0,0.003016
1078.0,0.002944
1079.0,0.003016
1080.0,0.002933
1081.0,0.002824
1082.0,0.002877
1083.0,0.002879
1084.0,0.002777
1085.0,0.002893
1086.0,0.002585
1087.0,0.002696
1088.0,0.002819
1089.0,0.002703
1090.0,0.002614
1091.0,0.002773
1092.0,0.00276
1093.0,0.002264
1094.0,0.002501
1095.0,0.002359
1096.0,0.00223
1097.0,0.002652
1098.0,0.002176
1099.0,0.002272
1100.0,0.00207
1101.0,0.002099
1102.0,0.001983
1103.0,0.001945
1104.0,0.001943
1105.0,0.002166
1106.0,0.001559
1107.0,0.002022
1108.0,0.001649
1109.0,0.001649
1110.0,0.001978
1111.0,0.001243
1112.0,0.001622
1113.0,0.0009476
1114.0,0.001072
1115.0,0.0008634
1116.0,0.0006599
1117.0,0.0002128
1118.0,0.0007233
1119.0,0.0003264
1120.0,0.0004179
1121.0,0.0005729
1122.0,0.0002168
1123.0,0.0003699
1124.0,0.0003065
1125.0,0.000411
1126.0,0.0001267
1127.0,0.0004657
1128.0,0.0002594
1129.0,0.0002766
1130.0,0.0001738
1131.0,0.0009581
1132.0,0.0007223
1133.0,0.000426
1134.0,9.442e-05
1135.0,3.396e-05
1136.0,0.0003425
1137.0,0.0009178
1138.0,0.0006153
1139.0,0.000981
1140.0,0.000791
1141.0,0.0005755
1142.0,0.000674
1143.0,0.001007
1144.0,0.0003031
1145.0,0.000393
1146.0,0.0004252
1147.0,0.0001325
1148.0,0.000839
1149.0,0.0006436
1150.0,0.0003221
1151.0,0.0005831
1152.0,0.0007407
1153.0,0.0007208
1154.0,0.0003675
1155.0,0.0009754
1156.0,0.0008595
1157.0,0.0009824
1158.0,0.0009672
1159.0,0.001059
1160.0,0.000877
1161.0,0.001123
1162.0,0.00112
1163.0,0.001598
1164.0,0.001328
1165.0,0.001231
1166.0,0.001222
1167.0,0.001346
1168.0,0.001357
1169.0,0.001397
1170.0,0.001533
1171.0,0.001482
1172.0,0.001511
1173.0,0.001513
1174.0,0.001013
1175.0,0.001472
1176.0,0.001638
1177.0,0.001553
1178.0,0.001105
1179.0,0.001636
1180.0,0.001422
1181.0,0.001472
1182.0,0.0009496
1183.0,0.001447
1184.0,0.001328
1185.0,0.001266
1186.0,0.001546
1187.0,0.001453
1188.0,0.0009527
1189.0,0.001337
1190.0,0.001487
1191.0,0.001391
1192.0,0.001502
1193.0,0.001423
1194.0,0.001472
1195.0,0.001375
1196.0,0.001311
1197.0,0.00147
1198.0,0.001322
1199.0,0.001089
1200.0,0.001379
1201.0,0.001315
1202.0,0.001305
1203.0,0.001297
1204.0,0.0011
1205.0,0.001332
1206.0,0.001496
1207.0,0.001284
1208.0,0.00127
1209.0,0.001292
1210.0,0.001351
1211.0,0.00127
1212.0,0.001244
1213.0,0.001411
1214.0,0.001272
1215.0,0.00124
1216.0,0.001393
1217.0,0.001345
1218.0,0.001372
1219.0,0.001348
1220.0,0.001365
1221.0,0.001378
1222.0,0.001332
1223.0,0.001313
1224.0,0.001299
1225.0,0.001351
1226.0,0.001359
1227.0,0.001235
1228.0,0.001359
1229.0,0.001347
1230.0,0.001316
1231.0,0.001358
1232.0,0.001345
1233.0,0.001285
1234.0,0.001345
1235.0,0.001331
1236.0,0.001338
1237.0,0.001311
1238.0,0.001324
1239.0,0.001303
1240.0,0.001304
1241.0,0.001292
1242.0,0.001287
1243.0,0.001272
1244.0,0.001276
1245.0,0.001277
1246.0,0.001266
1247.0,0.001256
1248.0,0.00125
1249.0,0.001251
1250.0,0.001239
1251.0,0.001218
1252.0,0.001216
1253.0,0.001199
1254.0,0.001181
1255.0,0.001202
1256.0,0.001159
1257.0,0.001148
1258.0,0.00117
1259.0,0.001115
1260.0,0.001119
1261.0,0.001042
1262.0,0.001002
1263.0,0.001001
1264.0,0.0009089
1265.0,0.0009893
1266.0,0.0009417
1267.0,0.0009605
1268.0,0.0008999
1269.0,0.0005111
1270.0,0.0009472
1271.0,0.001012
1272.0,0.001013
1273.0,0.0009979
1274.0,0.0009995
1275.0,0.001013
1276.0,0.001022
1277.0,0.001027
1278.0,0.001048
1279.0,0.001035
1280.0,0.001019
1281.0,0.0009709
1282.0,0.0009359
1283.0,0.001004
1284.0,0.001024
1285.0,0.001028
1286.0,0.001041
1287.0,0.001018
1288.0,0.001015
1289.0,0.0009735
1290.0,0.001
1291.0,0.001012
1292.0,0.0009352
1293.0,0.0009826
1294.0,0.0009717
1295.0,0.0009621
1296.0,0.0009072
1297.0,0.0008478
1298.0,0.0009233
1299.0,0.0009665
1300.0,0.0007902
1301.0,0.0008175
1302.0,0.0009101
1303.0,0.0007736
1304.0,0.0006381
1305.0,0.0008796
1306.0,0.000877
1307.0,0.0006487
1308.0,0.0007629
1309.0,0.0008613
1310.0,0.000629
1311.0,0.0007199
1312.0,0.0006977
1313.0,0.0006782
1314.0,0.0005925
1315.0,0.0005842
1316.0,0.0006969
1317.0,0.0006514
1318.0,0.0007173
1319.0,0.0005334
1320.0,0.0005135
1321.0,0.0006124
1322.0,0.0006168
1323.0,0.0004404
1324.0,0.000514
1325.0,0.0006663
1326.0,0.000555
1327.0,0.0005233
1328.0,0.0004394
1329.0,0.0003145
1330.0,0.0004237
1331.0,0.0002361
1332.0,0.000245
1333.0,0.000355
1334.0,0.0002941
1335.0,0.0004233
1336.0,0.0003214
1337.0,0.0002781
1338.0,0.0003033
1339.0,0.0003017
1340.0,0.0002917
1341.0,0.0002816
1342.0,0.0002969
1343.0,0.0001884
1344.0,0.0001069
1345.0,0.0001595
1346.0,7.299e-05
1347.0,7.387e-05
1348.0,4.21e-06
1349.0,1.564e-05
1350.0,1.627e-05
1351.0,3.768e-06
1352.0,9.954e-07
1353.0,5.007e-08
1354.0,1.726e-07
1355.0,1.383e-09
1356.0,2.423e-08
1357.0,3.683e-08
1358.0,1.623e-09
1359.0,2.044e-10
1360.0,7.388e-10
1361.0,8.262e-13
1362.0,2.26e-15
1363.0,9.934e-10
1364.0,4.101e-10
