interpolation:linear
wavelength,value
280.0,2.5770000000000002e-21
280.5,8.107e-20
281.0,4.283e-19
281.5,3.566e-19
282.0,1.021e-18
282.5,2.683e-18
283.0,8.685e-18
283.5,1.422e-17
284.0,2.323e-16
284.5,6.711e-16
285.0,1.508e-15
285.5,7.286e-15
286.0,2.91e-14
286.5,1.282e-13
287.0,3.627e-13
287.5,1.372e-12
288.0,3.701e-12
288.5,1.221e-11
289.0,3.449e-11
289.5,1.087e-10
290.0,3.098e-10
290.5,6.427e-10
291.0,1.402e-09
291.5,4.079e-09
292.0,8.636e-09
292.5,1.291e-08
293.0,2.994e-08
293.5,8.076e-08
294.0,1.354e-07
294.5,1.71e-07
295.0,3.069e-07
295.5,7.647e-07
296.0,1.5e-06
296.5,2.141e-06
297.0,2.953e-06
297.5,8.215e-06
298.0,1.345e-05
298.5,1.399e-05
299.0,3.206e-05
299.5,5.786e-05
300.0,6.726e-05
300.5,0.000104
301.0,0.0002146
301.5,0.0003979
302.0,0.0003739
302.5,0.000725
303.0,0.00129
303.5,0.001619
304.0,0.001527
304.5,0.002316
305.0,0.003601
305.5,0.004188
306.0,0.004069
306.5,0.005113
307.0,0.007775
307.5,0.01059
308.0,0.0112
308.5,0.01336
309.0,0.01349
309.5,0.01536
310.0,0.01538
310.5,0.02483
311.0,0.03107
311.5,0.02991
312.0,0.02989
312.5,0.03636
313.0,0.03938
313.5,0.03803
314.0,0.04761
314.5,0.04242
315.0,0.05564
315.5,0.04616
316.0,0.04049
316.5,0.05839
317.0,0.07222
317.5,0.07471
318.0,0.05841
318.5,0.07317
319.0,0.08713
319.5,0.06999
320.0,0.08413
320.5,0.1064
321.0,0.09574
321.5,0.0916
322.0,0.09579
322.5,0.0831
323.0,0.08328
323.5,0.1035
324.0,0.1205
324.5,0.1215
325.0,0.1035
325.5,0.1338
326.0,0.164
326.5,0.1645
327.0,0.1631
327.5,0.1566
328.0,0.1382
328.5,0.1457
329.0,0.1751
329.5,0.1985
330.0,0.1992
330.5,0.1579
331.0,0.16
331.5,0.1627
332.0,0.1763
332.5,0.1744
333.0,0.173
333.5,0.1551
334.0,0.1582
334.5,0.183
335.0,0.1721
335.5,0.2033
336.0,0.1402
336.5,0.1608
337.0,0.131
337.5,0.1622
338.0,0.1587
338.5,0.1849
339.0,0.1817
339.5,0.1746
340.0,0.2022
340.5,0.1817
341.0,0.1782
341.5,0.162
342.0,0.1927
342.5,0.1794
343.0,0.1972
343.5,0.1855
344.0,0.1358
344.5,0.1383
345.0,0.1809
345.5,0.1836
346.0,0.1552
346.5,0.175
347.0,0.1876
347.5,0.1513
348.0,0.1713
348.5,0.1704
349.0,0.1574
349.5,0.1553
350.0,0.1913
350.5,0.2011
351.0,0.1792
351.5,0.1742
352.0,0.1859
352.5,0.1443
353.0,0.1809
353.5,0.1927
354.0,0.1992
354.5,0.2013
355.0,0.1999
355.5,0.1799
356.0,0.1875
356.5,0.1595
357.0,0.1313
357.5,0.1601
358.0,0.1264
358.5,0.1076
359.0,0.15
359.5,0.1906
360.0,0.2012
360.5,0.1602
361.0,0.1455
361.5,0.1669
362.0,0.1438
362.5,0.1982
363.0,0.1774
363.5,0.1628
364.0,0.1983
364.5,0.1689
365.0,0.1714
365.5,0.2143
366.0,0.2262
366.5,0.2118
367.0,0.2055
367.5,0.2124
368.0,0.1852
368.5,0.1862
369.0,0.2003
369.5,0.2127
370.0,0.2259
370.5,0.1747
371.0,0.186
371.5,0.2318
372.0,0.1533
372.5,0.1831
373.0,0.1856
373.5,0.1203
374.0,0.1741
374.5,0.1437
375.0,0.1392
375.5,0.207
376.0,0.1709
376.5,0.1765
377.0,0.1862
377.5,0.217
378.0,0.2343
378.5,0.2206
379.0,0.1813
379.5,0.165
380.0,0.1708
380.5,0.2061
381.0,0.2057
381.5,0.1624
382.0,0.1437
382.5,0.122
383.0,0.1125
383.5,0.108
384.0,0.1186
384.5,0.1738
385.0,0.1717
385.5,0.1593
386.0,0.1359
386.5,0.1779
387.0,0.1472
387.5,0.1647
388.0,0.1515
388.5,0.1492
389.0,0.1604
389.5,0.1935
390.0,0.1935
390.5,0.1774
391.0,0.208
391.5,0.2113
392.0,0.1773
392.5,0.1581
393.0,0.08763
393.5,0.06346
394.0,0.1286
394.5,0.1629
395.0,0.1981
395.5,0.2004
396.0,0.1731
396.5,0.1008
397.0,0.07536
397.5,0.1527
398.0,0.2129
398.5,0.2193
399.0,0.2366
399.5,0.2349
400.0,0.243
401.0,0.2387
402.0,0.2498
403.0,0.2355
404.0,0.2301
405.0,0.2283
406.0,0.2228
407.0,0.2175
408.0,0.2242
409.0,0.2382
410.0,0.2066
411.0,0.2221
412.0,0.2367
413.0,0.2291
414.0,0.2301
415.0,0.229
416.0,0.2311
417.0,0.2236
418.0,0.2178
419.0,0.2189
420.0,0.2162
421.0,0.2244
422.0,0.2116
423.0,0.205
424.0,0.2151
425.0,0.213
426.0,0.2059
427.0,0.2005
428.0,0.1939
429.0,0.1823
430.0,0.1583
431.0,0.1557
432.0,0.1994
433.0,0.1989
434.0,0.1832
435.0,0.1899
436.0,0.2124
437.0,0.208
438.0,0.188
439.0,0.193
440.0,0.1975
441.0,0.203
442.0,0.216
443.0,0.2088
444.0,0.2117
445.0,0.2056
446.0,0.1948
447.0,0.209
448.0,0.2106
449.0,0.2097
450.0,0.2138
451.0,0.22
452.0,0.2103
453.0,0.1964
454.0,0.2035
455.0,0.2031
456.0,0.2063
457.0,0.208
458.0,0.1992
459.0,0.1966
460.0,0.1955
461.0,0.1984
462.0,0.1985
463.0,0.1958
464.0,0.1913
465.0,0.1876
466.0,0.1881
467.0,0.1832
468.0,0.1838
469.0,0.1831
470.0,0.176
471.0,0.1745
472.0,0.1826
473.0,0.1789
474.0,0.1777
475.0,0.1778
476.0,0.171
477.0,0.17
478.0,0.1732
479.0,0.1706
480.0,0.1695
481.0,0.1711
482.0,0.1707
483.0,0.1674
484.0,0.1628
485.0,0.154
486.0,0.1337
487.0,0.1392
488.0,0.1515
489.0,0.1508
490.0,0.1574
491.0,0.1535
492.0,0.1439
493.0,0.1475
494.0,0.1478
495.0,0.148
496.0,0.1478
497.0,0.1489
498.0,0.1407
499.0,0.1413
500.0,0.1359
501.0,0.1322
502.0,0.1292
503.0,0.1332
504.0,0.1287
505.0,0.1323
506.0,0.1357
507.0,0.1282
508.0,0.1234
509.0,0.126
510.0,0.1245
511.0,0.127
512.0,0.1275
513.0,0.1197
514.0,0.118
515.0,0.116
516.0,0.1148
517.0,0.1013
518.0,0.1057
519.0,0.1101
520.0,0.1132
521.0,0.1134
522.0,0.1126
523.0,0.1098
524.0,0.1128
525.0,0.1132
526.0,0.1073
527.0,0.1002
528.0,0.1051
529.0,0.1099
530.0,0.1076
531.0,0.1083
532.0,0.1039
533.0,0.1001
534.0,0.1024
535.0,0.1039
536.0,0.1042
537.0,0.09941
538.0,0.1005
539.0,0.09897
540.0,0.09426
541.0,0.09418
542.0,0.09637
543.0,0.09466
544.0,0.09567
545.0,0.09479
546.0,0.09452
547.0,0.09381
548.0,0.09205
549.0,0.09171
550.0,0.09218
551.0,0.09042
552.0,0.09041
553.0,0.08817
554.0,0.08966
555.0,0.08921
556.0,0.0874
557.0,0.08403
558.0,0.08274
559.0,0.08055
560.0,0.08092
561.0,0.08133
562.0,0.0801
563.0,0.08166
564.0,0.07886
565.0,0.07763
566.0,0.07593
567.0,0.07679
568.0,0.07554
569.0,0.07316
570.0,0.07266
571.0,0.07173
572.0,0.07289
573.0,0.07319
574.0,0.07252
575.0,0.07073
576.0,0.06966
577.0,0.07001
578.0,0.06858
579.0,0.06851
580.0,0.06947
581.0,0.06946
582.0,0.07039
583.0,0.07021
584.0,0.07047
585.0,0.06837
586.0,0.06653
587.0,0.06751
588.0,0.0654
589.0,0.05741
590.0,0.0597
591.0,0.06289
592.0,0.06162
593.0,0.06217
594.0,0.06126
595.0,0.05929
596.0,0.06135
597.0,0.06025
598.0,0.05971
599.0,0.05936
600.0,0.0591
601.0,0.05828
602.0,0.05754
603.0,0.05815
604.0,0.05878
605.0,0.05817
606.0,0.05765
607.0,0.05795
608.0,0.05702
609.0,0.05684
610.0,0.05618
611.0,0.05621
612.0,0.05579
613.0,0.05482
614.0,0.05381
615.0,0.05472
616.0,0.05267
617.0,0.05232
618.0,0.05407
619.0,0.05327
620.0,0.05333
621.0,0.0531
622.0,0.05219
623.0,0.05111
624.0,0.04997
625.0,0.04963
626.0,0.05012
627.0,0.0504
628.0,0.04646
629.0,0.04856
630.0,0.04718
631.0,0.04812
632.0,0.04733
633.0,0.0486
634.0,0.04795
635.0,0.04847
636.0,0.04761
637.0,0.04817
638.0,0.04843
639.0,0.04767
640.0,0.04699
641.0,0.04673
642.0,0.04633
643.0,0.04675
644.0,0.0464
645.0,0.04623
646.0,0.04487
647.0,0.04403
648.0,0.04382
649.0,0.04276
650.0,0.04287
651.0,0.04453
652.0,0.04231
653.0,0.04351
654.0,0.04283
655.0,0.04095
656.0,0.03616
657.0,0.03698
658.0,0.04129
659.0,0.04141
660.0,0.04138
661.0,0.04146
662.0,0.04134
663.0,0.04035
664.0,0.04067
665.0,0.04053
666.0,0.04037
667.0,0.04016
668.0,0.04001
669.0,0.04044
670.0,0.04006
671.0,0.03988
672.0,0.03938
673.0,0.03983
674.0,0.03949
675.0,0.03894
676.0,0.03903
677.0,0.03848
678.0,0.03843
679.0,0.03764
680.0,0.03776
681.0,0.03733
682.0,0.03711
683.0,0.03686
684.0,0.03648
685.0,0.03661
686.0,0.03622
687.0,0.02274
688.0,0.02704
689.0,0.02702
690.0,0.02839
691.0,0.02997
692.0,0.03112
693.0,0.03069
694.0,0.03024
695.0,0.0315
696.0,0.03138
697.0,0.03345
698.0,0.03278
699.0,0.03167
700.0,0.03113
701.0,0.03065
702.0,0.03078
703.0,0.03068
704.0,0.0316
705.0,0.03149
706.0,0.03135
707.0,0.03124
708.0,0.03116
709.0,0.03109
710.0,0.03091
711.0,0.03078
712.0,0.0306
713.0,0.03012
714.0,0.03007
715.0,0.02892
716.0,0.02879
717.0,0.02433
718.0,0.02205
719.0,0.01993
720.0,0.02085
721.0,0.02325
722.0,0.02697
723.0,0.02471
724.0,0.02187
725.0,0.02139
726.0,0.02241
727.0,0.02264
728.0,0.02104
729.0,0.02189
730.0,0.02315
731.0,0.02194
732.0,0.02357
733.0,0.02504
734.0,0.02556
735.0,0.02488
736.0,0.02475
737.0,0.02472
738.0,0.02509
739.0,0.02447
740.0,0.02502
741.0,0.02467
742.0,0.02459
743.0,0.02509
744.0,0.0249
745.0,0.02479
746.0,0.02478
747.0,0.02472
748.0,0.02454
749.0,0.02414
750.0,0.02402
751.0,0.02367
752.0,0.02367
753.0,0.02367
754.0,0.02361
755.0,0.02337
756.0,0.02326
757.0,0.02319
758.0,0.02279
759.0,0.02216
760.0,0.003091
761.0,0.001581
762.0,0.01022
763.0,0.004764
764.0,0.007367
765.0,0.01006
766.0,0.01267
767.0,0.01637
768.0,0.01921
769.0,0.01962
770.0,0.02031
771.0,0.02043
772.0,0.02039
773.0,0.02043
774.0,0.02022
775.0,0.01998
776.0,0.02013
777.0,0.01976
778.0,0.01954
779.0,0.01945
780.0,0.01926
781.0,0.01919
782.0,0.01922
783.0,0.01881
784.0,0.01881
785.0,0.01859
786.0,0.01871
787.0,0.01826
788.0,0.01793
789.0,0.01782
790.0,0.0172
791.0,0.01734
792.0,0.01713
793.0,0.01677
794.0,0.01705
795.0,0.01724
796.0,0.01654
797.0,0.01649
798.0,0.01699
799.0,0.01679
800.0,0.01639
801.0,0.01624
802.0,0.01612
803.0,0.01592
804.0,0.01587
805.0,0.01577
806.0,0.01618
807.0,0.0159
808.0,0.01585
809.0,0.01544
810.0,0.01522
811.0,0.01514
812.0,0.01457
813.0,0.01415
814.0,0.01216
815.0,0.01202
816.0,0.01102
817.0,0.01121
818.0,0.01071
819.0,0.01214
820.0,0.01129
821.0,0.01347
822.0,0.01296
823.0,0.008283
824.0,0.0124
825.0,0.01296
826.0,0.01233
827.0,0.01307
828.0,0.01076
829.0,0.01211
830.0,0.01188
831.0,0.01188
832.0,0.01141
833.0,0.01227
834.0,0.01171
835.0,0.01297
836.0,0.01226
837.0,0.0129
838.0,0.01241
839.0,0.0126
840.0,0.01283
841.0,0.01258
842.0,0.01257
843.0,0.01254
844.0,0.01229
845.0,0.01267
846.0,0.01257
847.0,0.01228
848.0,0.01214
849.0,0.01174
850.0,0.0112
851.0,0.01179
852.0,0.01165
853.0,0.01117
854.0,0.009596
855.0,0.01051
856.0,0.01143
857.0,0.01165
858.0,0.01152
859.0,0.01149
860.0,0.01146
861.0,0.01135
862.0,0.01149
863.0,0.01171
864.0,0.01108
865.0,0.01094
866.0,0.009798
867.0,0.01018
868.0,0.01104
869.0,0.01076
870.0,0.01102
871.0,0.01083
872.0,0.01075
873.0,0.01068
874.0,0.0105
875.0,0.01024
876.0,0.01031
877.0,0.01037
878.0,0.01043
879.0,0.01023
880.0,0.009968
881.0,0.009773
882.0,0.009944
883.0,0.00994
884.0,0.009848
885.0,0.009877
886.0,0.009354
887.0,0.009432
888.0,0.009519
889.0,0.009606
890.0,0.00946
891.0,0.009418
892.0,0.009085
893.0,0.008721
894.0,0.00831
895.0,0.007732
896.0,0.007163
897.0,0.005982
898.0,0.006593
899.0,0.004783
900.0,0.00676
901.0,0.005046
902.0,0.006061
903.0,0.006061
904.0,0.007911
905.0,0.00756
906.0,0.006994
907.0,0.005448
908.0,0.00557
909.0,0.006114
910.0,0.005245
911.0,0.005643
912.0,0.00592
913.0,0.005258
914.0,0.005198
915.0,0.005684
916.0,0.00467
917.0,0.006157
918.0,0.004773
919.0,0.006234
920.0,0.00631
921.0,0.006608
922.0,0.005765
923.0,0.006333
924.0,0.005876
925.0,0.005704
926.0,0.005764
927.0,0.006535
928.0,0.004497
929.0,0.00403
930.0,0.003032
931.0,0.002845
932.0,0.001947
933.0,0.001534
934.0,0.0007812
935.0,0.001569
936.0,0.000926
937.0,0.000934
938.0,0.001167
939.0,0.002663
940.0,0.003286
941.0,0.002373
942.0,0.002792
943.0,0.001725
944.0,0.001836
945.0,0.002411
946.0,0.001121
947.0,0.002396
948.0,0.001691
949.0,0.003326
950.0,0.0007809
951.0,0.003252
952.0,0.001589
953.0,0.002122
954.0,0.00269
955.0,0.002147
956.0,0.002072
957.0,0.001562
958.0,0.003073
959.0,0.002334
960.0,0.002647
961.0,0.003024
962.0,0.002829
963.0,0.003334
964.0,0.002999
965.0,0.003297
966.0,0.003283
967.0,0.003248
968.0,0.004611
969.0,0.004825
970.0,0.004345
971.0,0.005101
972.0,0.004815
973.0,0.004057
974.0,0.003807
975.0,0.003964
976.0,0.003705
977.0,0.004324
978.0,0.004044
979.0,0.004265
980.0,0.003945
981.0,0.004881
982.0,0.004603
983.0,0.004371
984.0,0.005022
985.0,0.004537
986.0,0.005099
987.0,0.004953
988.0,0.004923
989.0,0.005042
990.0,0.004859
991.0,0.005009
992.0,0.005022
993.0,0.004866
994.0,0.004988
995.0,0.004968
996.0,0.004922
997.0,0.004913
998.0,0.00487
999.0,0.004836
1000.0,0.004778
1001.0,0.004827
1002.0,0.004648
1003.0,0.004704
1004.0,0.004563
1005.0,0.004389
1006.0,0.004537
1007.0,0.004618
1008.0,0.004571
1009.0,0.004524
1010.0,0.004484
1011.0,0.004527
1012.0,0.004464
1013.0,0.004483
1014.0,0.004436
1015.0,0.004389
1016.0,0.004352
1017.0,0.004345
1018.0,0.004315
1019.0,0.004196
1020.0,0.004257
1021.0,0.004236
1022.0,0.004183
1023.0,0.004212
1024.0,0.004131
1025.0,0.004182
1026.0,0.004145
1027.0,0.00412
1028.0,0.004096
1029.0,0.004032
1030.0,0.004048
1031.0,0.004015
1032.0,0.003989
1033.0,0.003913
1034.0,0.003899
1035.0,0.003896
1036.0,0.0039
1037.0,0.003822
1038.0,0.003825
1039.0,0.003809
1040.0,0.003779
1041.0,0.003779
1042.0,0.003738
1043.0,0.003712
1044.0,0.003712
1045.0,0.003647
1046.0,0.003592
1047.0,0.00361
1048.0,0.003617
1049.0,0.003591
1050.0,0.00356
1051.0,0.003541
1052.0,0.003513
1053.0,0.003471
1054.0,0.003466
1055.0,0.003453
1056.0,0.003427
1057.0,0.003402
1058.0,0.003306
1059.0,0.003297
1060.0,0.003279
1061.0,0.003262
1062.0,0.003266
1063.0,0.003221
1064.0,0.003249
1065.0,0.00321
1066.0,0.003137
1067.0,0.003165
1068.0,0.003082
1069.0,0.002977
1070.0,0.003064
1071.0,0.003109
1072.0,0.003055
1073.0,0.003003
1074.0,0.003078
1075.0,0.00289
1076.0,0.003052
1077.0,0.002972
1078.0,0.002901
1079.0,0.002973
1080.0,0.00289
1081.0,0.002782
1082.0,0.002836
1083.0,0.002838
1084.0,0.002735
1085.0,0.002851
1086.0,0.002546
1087.0,0.002656
1088.0,0.002779
1089.0,0.002663
1090.0,0.002574
1091.0,0.002733
1092.0,0.002721
1093.0,0.002228
1094.0,0.002465
1095.0,0.002322
1096.0,0.002194
1097.0,0.002614
1098.0,0.00214
1099.0,0.002235
1100.0,0.002035
1101.0,0.002064
1102.0,0.001949
1103.0,0.001911
1104.0,0.001909
1105.0,0.00213
1106.0,0.001529
1107.0,0.001988
1108.0,0.001618
1109.0,0.001619
1110.0,0.001944
1111.0,0.001219
1112.0,0.001592
1113.0,0.0009288
1114.0,0.00105
1115.0,0.0008467
1116.0,0.0006461
1117.0,0.0002087
1118.0,0.0007083
1119.0,0.00032
1120.0,0.0004087
1121.0,0.0005598
1122.0,0.0002125
1123.0,0.0003622
1124.0,0.0003004
1125.0,0.0004023
1126.0,0.0001244
1127.0,0.0004556
1128.0,0.0002538
1129.0,0.0002706
1130.0,0.0001704
1131.0,0.000936
1132.0,0.0007063
1133.0,0.0004163
1134.0,9.281e-05
1135.0,3.36e-05
1136.0,0.0003347
1137.0,0.0008958
1138.0,0.0006019
1139.0,0.0009615
1140.0,0.0007744
1141.0,0.0005632
1142.0,0.0006597
1143.0,0.0009848
1144.0,0.0002973
1145.0,0.0003841
1146.0,0.0004154
1147.0,0.0001298
1148.0,0.0008214
1149.0,0.0006299
1150.0,0.0003159
1151.0,0.0005704
1152.0,0.0007248
1153.0,0.0007066
1154.0,0.0003593
1155.0,0.0009556
1156.0,0.0008416
1157.0,0.000963
1158.0,0.0009481
1159.0,0.001039
1160.0,0.0008599
1161.0,0.001102
1162.0,0.001099
1163.0,0.001572
1164.0,0.001305
1165.0,0.001209
1166.0,0.001201
1167.0,0.001323
1168.0,0.001334
1169.0,0.001373
1170.0,0.001508
1171.0,0.001458
1172.0,0.001487
1173.0,0.001489
1174.0,0.0009946
1175.0,0.001449
1176.0,0.001614
1177.0,0.001529
1178.0,0.001087
1179.0,0.001612
1180.0,0.001399
1181.0,0.001448
1182.0,0.0009332
1183.0,0.001424
1184.0,0.001306
1185.0,0.001245
1186.0,0.001522
1187.0,0.001431
1188.0,0.0009356
1189.0,0.001316
1190.0,0.001465
1191.0,0.001368
1192.0,0.00148
1193.0,0.001402
1194.0,0.001449
1195.0,0.001354
1196.0,0.001289
1197.0,0.001448
1198.0,0.001302
1199.0,0.001071
1200.0,0.001357
1201.0,0.001294
1202.0,0.001285
1203.0,0.001277
1204.0,0.001082
1205.0,0.001312
1206.0,0.001474
1207.0,0.001264
1208.0,0.00125
1209.0,0.001273
1210.0,0.001331
1211.0,0.00125
1212.0,0.001224
1213.0,0.00139
1214.0,0.001252
1215.0,0.00122
1216.0,0.001372
1217.0,0.001325
1218.0,0.001352
1219.0,0.001328
1220.0,0.001345
1221.0,0.001358
1222.0,0.001312
1223.0,0.001294
1224.0,0.001279
1225.0,0.001332
1226.0,0.00134
1227.0,0.001216
1228.0,0.00134
1229.0,0.001327
1230.0,0.001297
1231.0,0.001339
1232.0,0.001326
1233.0,0.001266
1234.0,0.001327
1235.0,0.001313
1236.0,0.001319
1237.0,0.001293
1238.0,0.001306
1239.0,0.001285
1240.0,0.001286
1241.0,0.001274
1242.0,0.001269
1243.0,0.001254
1244.0,0.001258
1245.0,0.00126
1246.0,0.001249
1247.0,0.001239
1248.0,0.001233
1249.0,0.001234
1250.0,0.001222
1251.0,0.001201
1252.0,0.001199
1253.0,0.001182
1254.0,0.001164
1255.0,0.001185
1256.0,0.001142
1257.0,0.001131
1258.0,0.001154
1259.0,0.001099
1260.0,0.001102
1261.0,0.001025
1262.0,0.0009857
1263.0,0.0009844
1264.0,0.0008925
1265.0,0.0009728
1266.0,0.0009253
1267.0,0.0009442
1268.0,0.0008839
1269.0,0.0004985
1270.0,0.000931
1271.0,0.0009955
1272.0,0.000997
1273.0,0.000982
1274.0,0.0009836
1275.0,0.000997
1276.0,0.001006
1277.0,0.001011
1278.0,0.001032
1279.0,0.00102
1280.0,0.001004
1281.0,0.0009568
1282.0,0.0009227
1283.0,0.0009899
1284.0,0.00101
1285.0,0.001014
1286.0,0.001026
1287.0,0.001003
1288.0,0.001001
1289.0,0.000959
1290.0,0.0009861
1291.0,0.0009978
1292.0,0.0009208
1293.0,0.0009685
1294.0,0.0009577
1295.0,0.0009478
1296.0,0.0008931
1297.0,0.0008341
1298.0,0.0009095
1299.0,0.0009528
1300.0,0.0007772
1301.0,0.0008044
1302.0,0.0008965
1303.0,0.0007611
1304.0,0.0006265
1305.0,0.0008664
1306.0,0.0008636
1307.0,0.0006376
1308.0,0.000751
1309.0,0.0008479
1310.0,0.0006181
1311.0,0.0007083
1312.0,0.0006862
1313.0,0.0006668
1314.0,0.0005823
1315.0,0.0005737
1316.0,0.0006854
1317.0,0.0006406
1318.0,0.0007059
1319.0,0.0005236
1320.0,0.0005045
1321.0,0.0006019
1322.0,0.0006058
1323.0,0.0004318
1324.0,0.0005046
1325.0,0.0006552
1326.0,0.0005451
1327.0,0.0005138
1328.0,0.0004313
1329.0,0.0003081
1330.0,0.000415
1331.0,0.000231
1332.0,0.00024
1333.0,0.0003471
1334.0,0.0002886
1335.0,0.000415
1336.0,0.0003148
1337.0,0.0002725
1338.0,0.0002969
1339.0,0.0002955
1340.0,0.0002861
1341.0,0.0002755
1342.0,0.0002904
1343.0,0.0001838
1344.0,0.0001049
1345.0,0.0001559
1346.0,7.135e-05
1347.0,7.212e-05
1348.0,4.171e-06
1349.0,1.539e-05
1350.0,1.602e-05
1351.0,3.732e-06
1352.0,9.897e-07
1353.0,4.998e-08
1354.0,1.721e-07
1355.0,1.381e-09
1356.0,2.42e-08
1357.0,3.677e-08
1358.0,1.622e-09
1359.0,2.043e-10
1360.0,7.383e-10
1361.0,8.257e-13
1362.0,2.259e-15
