interpolation:linear
wavelength,value
280.0,2.567e-21
280.5,8.077000000000001e-20
281.0,4.267e-19
281.5,3.575e-19
282.0,1.021e-18
282.5,2.683e-18
283.0,8.681e-18
283.5,1.422e-17
284.0,2.321e-16
284.5,6.708e-16
285.0,1.506e-15
285.5,7.277e-15
286.0,2.907e-14
286.5,1.281e-13
287.0,3.622e-13
287.5,1.37e-12
288.0,3.699e-12
288.5,1.22e-11
289.0,3.445e-11
289.5,1.086e-10
290.0,3.093e-10
290.5,6.417e-10
291.0,1.399e-09
291.5,4.072e-09
292.0,8.617e-09
292.5,1.288e-08
293.0,2.987e-08
293.5,8.054e-08
294.0,1.35e-07
294.5,1.706e-07
295.0,3.06e-07
295.5,7.621e-07
296.0,1.495e-06
296.5,2.133e-06
297.0,2.943e-06
297.5,8.187e-06
298.0,1.34e-05
298.5,1.395e-05
299.0,3.195e-05
299.5,5.767e-05
300.0,6.705e-05
300.5,0.0001037
301.0,0.0002139
301.5,0.0003968
302.0,0.0003728
302.5,0.000723
303.0,0.001287
303.5,0.001614
304.0,0.001523
304.5,0.00231
305.0,0.003593
305.5,0.004179
306.0,0.004061
306.5,0.005103
307.0,0.007761
307.5,0.01057
308.0,0.01118
308.5,0.01334
309.0,0.01347
309.5,0.01534
310.0,0.01536
310.5,0.02479
311.0,0.03104
311.5,0.02987
312.0,0.02986
312.5,0.03633
313.0,0.03934
313.5,0.03799
314.0,0.04756
314.5,0.04239
315.0,0.05559
315.5,0.04612
316.0,0.04045
316.5,0.05834
317.0,0.07217
317.5,0.07465
318.0,0.05837
318.5,0.07312
319.0,0.08708
319.5,0.06994
320.0,0.08407
320.5,0.1063
321.0,0.09569
321.5,0.09155
322.0,0.09573
322.5,0.08304
323.0,0.08324
323.5,0.1034
324.0,0.1204
324.5,0.1215
325.0,0.1034
325.5,0.1337
326.0,0.1639
326.5,0.1644
327.0,0.163
327.5,0.1565
328.0,0.1381
328.5,0.1456
329.0,0.175
329.5,0.1985
330.0,0.1991
330.5,0.1578
331.0,0.1599
331.5,0.1626
332.0,0.1763
332.5,0.1744
333.0,0.1729
333.5,0.155
334.0,0.1581
334.5,0.183
335.0,0.172
335.5,0.2032
336.0,0.1402
336.5,0.1607
337.0,0.131
337.5,0.1622
338.0,0.1587
338.5,0.1848
339.0,0.1816
339.5,0.1745
340.0,0.2021
340.5,0.1816
341.0,0.1781
341.5,0.162
342.0,0.1926
342.5,0.1794
343.0,0.1971
343.5,0.1855
344.0,0.1357
344.5,0.1383
345.0,0.1808
345.5,0.1835
346.0,0.1551
346.5,0.1749
347.0,0.1875
347.5,0.1512
348.0,0.1712
348.5,0.1703
349.0,0.1573
349.5,0.1552
350.0,0.1913
350.5,0.201
351.0,0.1791
351.5,0.1742
352.0,0.1859
352.5,0.1443
353.0,0.1809
353.5,0.1926
354.0,0.1991
354.5,0.2012
355.0,0.1999
355.5,0.1799
356.0,0.1874
356.5,0.1595
357.0,0.1313
357.5,0.1601
358.0,0.1264
358.5,0.1076
359.0,0.15
359.5,0.1905
360.0,0.2011
360.5,0.1601
361.0,0.1454
361.5,0.1668
362.0,0.1437
362.5,0.1982
363.0,0.1773
363.5,0.1627
364.0,0.1983
364.5,0.1689
365.0,0.1713
365.5,0.2142
366.0,0.2261
366.5,0.2117
367.0,0.2054
367.5,0.2124
368.0,0.1852
368.5,0.1861
369.0,0.2003
369.5,0.2127
370.0,0.2259
370.5,0.1747
371.0,0.1859
371.5,0.2317
372.0,0.1532
372.5,0.1831
373.0,0.1855
373.5,0.1203
374.0,0.1741
374.5,0.1436
375.0,0.1391
375.5,0.2069
376.0,0.1709
376.5,0.1764
377.0,0.1861
377.5,0.2169
378.0,0.2343
378.5,0.2205
379.0,0.1813
379.5,0.1649
380.0,0.1708
380.5,0.206
381.0,0.2057
381.5,0.1624
382.0,0.1436
382.5,0.122
383.0,0.1125
383.5,0.1079
384.0,0.1186
384.5,0.1738
385.0,0.1717
385.5,0.1593
386.0,0.1359
386.5,0.1778
387.0,0.1472
387.5,0.1647
388.0,0.1515
388.5,0.1491
389.0,0.1604
389.5,0.1935
390.0,0.1934
390.5,0.1773
391.0,0.2079
391.5,0.2112
392.0,0.1772
392.5,0.158
393.0,0.0876
393.5,0.06344
394.0,0.1286
394.5,0.1629
395.0,0.198
395.5,0.2004
396.0,0.1731
396.5,0.1008
397.0,0.07534
397.5,0.1526
398.0,0.2129
398.5,0.2192
399.0,0.2365
399.5,0.2348
400.0,0.2429
401.0,0.2386
402.0,0.2498
403.0,0.2354
404.0,0.23
405.0,0.2282
406.0,0.2228
407.0,0.2174
408.0,0.2241
409.0,0.2381
410.0,0.2065
411.0,0.222
412.0,0.2367
413.0,0.229
414.0,0.2301
415.0,0.2289
416.0,0.2311
417.0,0.2236
418.0,0.2177
419.0,0.2189
420.0,0.2162
421.0,0.2244
422.0,0.2116
423.0,0.205
424.0,0.215
425.0,0.2129
426.0,0.2058
427.0,0.2005
428.0,0.1939
429.0,0.1823
430.0,0.1583
431.0,0.1556
432.0,0.1993
433.0,0.1988
434.0,0.1832
435.0,0.1898
436.0,0.2124
437.0,0.208
438.0,0.188
439.0,0.1929
440.0,0.1975
441.0,0.203
442.0,0.2159
443.0,0.2087
444.0,0.2117
445.0,0.2056
446.0,0.1948
447.0,0.209
448.0,0.2105
449.0,0.2097
450.0,0.2138
451.0,0.22
452.0,0.2103
453.0,0.1964
454.0,0.2035
455.0,0.2031
456.0,0.2063
457.0,0.2079
458.0,0.1992
459.0,0.1965
460.0,0.1954
461.0,0.1984
462.0,0.1984
463.0,0.1958
464.0,0.1913
465.0,0.1876
466.0,0.188
467.0,0.1831
468.0,0.1837
469.0,0.1831
470.0,0.1759
471.0,0.1745
472.0,0.1825
473.0,0.1788
474.0,0.1777
475.0,0.1778
476.0,0.171
477.0,0.17
478.0,0.1732
479.0,0.1706
480.0,0.1695
481.0,0.1711
482.0,0.1706
483.0,0.1673
484.0,0.1627
485.0,0.154
486.0,0.1337
487.0,0.1391
488.0,0.1515
489.0,0.1507
490.0,0.1574
491.0,0.1535
492.0,0.1438
493.0,0.1474
494.0,0.1478
495.0,0.148
496.0,0.1478
497.0,0.1489
498.0,0.1407
499.0,0.1413
500.0,0.1359
501.0,0.1322
502.0,0.1292
503.0,0.1332
504.0,0.1287
505.0,0.1323
506.0,0.1356
507.0,0.1281
508.0,0.1233
509.0,0.126
510.0,0.1245
511.0,0.127
512.0,0.1274
513.0,0.1197
514.0,0.118
515.0,0.116
516.0,0.1148
517.0,0.1013
518.0,0.1057
519.0,0.1101
520.0,0.1132
521.0,0.1134
522.0,0.1126
523.0,0.1097
524.0,0.1128
525.0,0.1132
526.0,0.1073
527.0,0.1002
528.0,0.1051
529.0,0.1099
530.0,0.1075
531.0,0.1083
532.0,0.1038
533.0,0.1001
534.0,0.1024
535.0,0.1039
536.0,0.1042
537.0,0.09939
538.0,0.1004
539.0,0.09896
540.0,0.09424
541.0,0.09416
542.0,0.09635
543.0,0.09464
544.0,0.09565
545.0,0.09477
546.0,0.09451
547.0,0.09379
548.0,0.09203
549.0,0.09169
550.0,0.09216
551.0,0.09041
552.0,0.09039
553.0,0.08815
554.0,0.08964
555.0,0.08919
556.0,0.08738
557.0,0.08402
558.0,0.08273
559.0,0.08054
560.0,0.08091
561.0,0.08131
562.0,0.08008
563.0,0.08164
564.0,0.07885
565.0,0.07761
566.0,0.07591
567.0,0.07678
568.0,0.07552
569.0,0.07315
570.0,0.07264
571.0,0.07172
572.0,0.07287
573.0,0.07318
574.0,0.07251
575.0,0.07072
576.0,0.06965
577.0,0.06999
578.0,0.06857
579.0,0.06849
580.0,0.06946
581.0,0.06944
582.0,0.07037
583.0,0.0702
584.0,0.07046
585.0,0.06836
586.0,0.06651
587.0,0.0675
588.0,0.06538
589.0,0.0574
590.0,0.05969
591.0,0.06288
592.0,0.06161
593.0,0.06216
594.0,0.06125
595.0,0.05927
596.0,0.06134
597.0,0.06024
598.0,0.05969
599.0,0.05935
600.0,0.05908
601.0,0.05827
602.0,0.05753
603.0,0.05814
604.0,0.05877
605.0,0.05816
606.0,0.05764
607.0,0.05794
608.0,0.05701
609.0,0.05683
610.0,0.05616
611.0,0.0562
612.0,0.05578
613.0,0.0548
614.0,0.0538
615.0,0.05471
616.0,0.05266
617.0,0.05231
618.0,0.05406
619.0,0.05326
620.0,0.05332
621.0,0.05309
622.0,0.05218
623.0,0.0511
624.0,0.04996
625.0,0.04962
626.0,0.05011
627.0,0.05039
628.0,0.04645
629.0,0.04855
630.0,0.04717
631.0,0.04811
632.0,0.04732
633.0,0.0486
634.0,0.04794
635.0,0.04846
636.0,0.0476
637.0,0.04816
638.0,0.04842
639.0,0.04766
640.0,0.04698
641.0,0.04672
642.0,0.04632
643.0,0.04674
644.0,0.04639
645.0,0.04622
646.0,0.04486
647.0,0.04402
648.0,0.04381
649.0,0.04275
650.0,0.04287
651.0,0.04452
652.0,0.0423
653.0,0.0435
654.0,0.04283
655.0,0.04094
656.0,0.03616
657.0,0.03697
658.0,0.04129
659.0,0.0414
660.0,0.04137
661.0,0.04146
662.0,0.04133
663.0,0.04035
664.0,0.04066
665.0,0.04052
666.0,0.04036
667.0,0.04016
668.0,0.04
669.0,0.04043
670.0,0.04006
671.0,0.03987
672.0,0.03938
673.0,0.03983
674.0,0.03948
675.0,0.03894
676.0,0.03902
677.0,0.03847
678.0,0.03842
679.0,0.03763
680.0,0.03776
681.0,0.03733
682.0,0.0371
683.0,0.03685
684.0,0.03648
685.0,0.03661
686.0,0.03622
687.0,0.02273
688.0,0.02704
689.0,0.02702
690.0,0.02839
691.0,0.02997
692.0,0.03111
693.0,0.03068
694.0,0.03024
695.0,0.0315
696.0,0.03138
697.0,0.03345
698.0,0.03277
699.0,0.03167
700.0,0.03113
701.0,0.03064
702.0,0.03078
703.0,0.03068
704.0,0.0316
705.0,0.03148
706.0,0.03135
707.0,0.03124
708.0,0.03115
709.0,0.03109
710.0,0.03091
711.0,0.03078
712.0,0.0306
713.0,0.03012
714.0,0.03007
715.0,0.02891
716.0,0.02879
717.0,0.02433
718.0,0.02205
719.0,0.01993
720.0,0.02085
721.0,0.02324
722.0,0.02697
723.0,0.02471
724.0,0.02187
725.0,0.02138
726.0,0.0224
727.0,0.02264
728.0,0.02104
729.0,0.02189
730.0,0.02315
731.0,0.02194
732.0,0.02357
733.0,0.02504
734.0,0.02555
735.0,0.02488
736.0,0.02474
737.0,0.02471
738.0,0.02509
739.0,0.02446
740.0,0.02502
741.0,0.02467
742.0,0.02459
743.0,0.02509
744.0,0.02489
745.0,0.02479
746.0,0.02478
747.0,0.02472
748.0,0.02454
749.0,0.02414
750.0,0.02401
751.0,0.02367
752.0,0.02367
753.0,0.02367
754.0,0.02361
755.0,0.02337
756.0,0.02326
757.0,0.02319
758.0,0.02279
759.0,0.02216
760.0,0.00309
761.0,0.00158
762.0,0.01022
763.0,0.004763
764.0,0.007365
765.0,0.01006
766.0,0.01267
767.0,0.01637
768.0,0.01921
769.0,0.01962
770.0,0.02031
771.0,0.02043
772.0,0.02039
773.0,0.02042
774.0,0.02022
775.0,0.01997
776.0,0.02012
777.0,0.01976
778.0,0.01954
779.0,0.01945
780.0,0.01925
781.0,0.01919
782.0,0.01922
783.0,0.0188
784.0,0.01881
785.0,0.01859
786.0,0.01871
787.0,0.01826
788.0,0.01793
789.0,0.01782
790.0,0.0172
791.0,0.01733
792.0,0.01713
793.0,0.01676
794.0,0.01705
795.0,0.01724
796.0,0.01654
797.0,0.01649
798.0,0.01699
799.0,0.01678
800.0,0.01639
801.0,0.01624
802.0,0.01612
803.0,0.01592
804.0,0.01587
805.0,0.01577
806.0,0.01618
807.0,0.0159
808.0,0.01584
809.0,0.01544
810.0,0.01522
811.0,0.01514
812.0,0.01457
813.0,0.01415
814.0,0.01216
815.0,0.01202
816.0,0.01102
817.0,0.01121
818.0,0.01071
819.0,0.01213
820.0,0.01129
821.0,0.01347
822.0,0.01296
823.0,0.008282
824.0,0.0124
825.0,0.01296
826.0,0.01233
827.0,0.01307
828.0,0.01076
829.0,0.01211
830.0,0.01188
831.0,0.01188
832.0,0.01141
833.0,0.01227
834.0,0.0117
835.0,0.01297
836.0,0.01226
837.0,0.0129
838.0,0.01241
839.0,0.0126
840.0,0.01283
841.0,0.01257
842.0,0.01257
843.0,0.01254
844.0,0.01229
845.0,0.01267
846.0,0.01256
847.0,0.01228
848.0,0.01214
849.0,0.01174
850.0,0.0112
851.0,0.01179
852.0,0.01165
853.0,0.01117
854.0,0.009595
855.0,0.01051
856.0,0.01143
857.0,0.01165
858.0,0.01152
859.0,0.01148
860.0,0.01146
861.0,0.01135
862.0,0.01148
863.0,0.01171
864.0,0.01108
865.0,0.01094
866.0,0.009797
867.0,0.01018
868.0,0.01103
869.0,0.01076
870.0,0.01102
871.0,0.01083
872.0,0.01074
873.0,0.01068
874.0,0.0105
875.0,0.01024
876.0,0.0103
877.0,0.01037
878.0,0.01043
879.0,0.01023
880.0,0.009967
881.0,0.009772
882.0,0.009942
883.0,0.009939
884.0,0.009847
885.0,0.009876
886.0,0.009353
887.0,0.009431
888.0,0.009518
889.0,0.009605
890.0,0.009459
891.0,0.009417
892.0,0.009084
893.0,0.00872
894.0,0.008309
895.0,0.007731
896.0,0.007162
897.0,0.005982
898.0,0.006592
899.0,0.004782
900.0,0.006759
901.0,0.005045
902.0,0.00606
903.0,0.006061
904.0,0.00791
905.0,0.007559
906.0,0.006993
907.0,0.005448
908.0,0.005569
909.0,0.006113
910.0,0.005244
911.0,0.005642
912.0,0.005919
913.0,0.005257
914.0,0.005197
915.0,0.005684
916.0,0.00467
917.0,0.006156
918.0,0.004772
919.0,0.006233
920.0,0.006309
921.0,0.006608
922.0,0.005764
923.0,0.006332
924.0,0.005875
925.0,0.005703
926.0,0.005763
927.0,0.006534
928.0,0.004497
929.0,0.004029
930.0,0.003032
931.0,0.002845
932.0,0.001947
933.0,0.001533
934.0,0.0007811
935.0,0.001569
936.0,0.0009259
937.0,0.0009339
938.0,0.001167
939.0,0.002662
940.0,0.003286
941.0,0.002373
942.0,0.002791
943.0,0.001724
944.0,0.001835
945.0,0.002411
946.0,0.001121
947.0,0.002396
948.0,0.001691
949.0,0.003326
950.0,0.0007807
951.0,0.003252
952.0,0.001589
953.0,0.002122
954.0,0.00269
955.0,0.002146
956.0,0.002072
957.0,0.001561
958.0,0.003072
959.0,0.002333
960.0,0.002647
961.0,0.003023
962.0,0.002828
963.0,0.003333
964.0,0.002999
965.0,0.003297
966.0,0.003283
967.0,0.003248
968.0,0.004611
969.0,0.004824
970.0,0.004345
971.0,0.0051
972.0,0.004815
973.0,0.004056
974.0,0.003806
975.0,0.003963
976.0,0.003705
977.0,0.004323
978.0,0.004043
979.0,0.004265
980.0,0.003945
981.0,0.00488
982.0,0.004603
983.0,0.004371
984.0,0.005021
985.0,0.004536
986.0,0.005099
987.0,0.004952
988.0,0.004922
989.0,0.005041
990.0,0.004859
991.0,0.005009
992.0,0.005022
993.0,0.004866
994.0,0.004988
995.0,0.004967
996.0,0.004921
997.0,0.004912
998.0,0.00487
999.0,0.004836
1000.0,0.004777
1001.0,0.004827
1002.0,0.004647
1003.0,0.004703
1004.0,0.004562
1005.0,0.004388
1006.0,0.004536
1007.0,0.004617
1008.0,0.00457
1009.0,0.004523
1010.0,0.004484
1011.0,0.004526
1012.0,0.004463
1013.0,0.004483
1014.0,0.004436
1015.0,0.004389
1016.0,0.004351
1017.0,0.004344
1018.0,0.004314
1019.0,0.004195
1020.0,0.004256
1021.0,0.004236
1022.0,0.004183
1023.0,0.004211
1024.0,0.004131
1025.0,0.004181
1026.0,0.004145
1027.0,0.004119
1028.0,0.004095
1029.0,0.004031
1030.0,0.004048
1031.0,0.004014
1032.0,0.003988
1033.0,0.003913
1034.0,0.003898
1035.0,0.003895
1036.0,0.003899
1037.0,0.003822
1038.0,0.003825
1039.0,0.003808
1040.0,0.003779
1041.0,0.003778
1042.0,0.003737
1043.0,0.003712
1044.0,0.003711
1045.0,0.003647
1046.0,0.003592
1047.0,0.00361
1048.0,0.003616
1049.0,0.00359
1050.0,0.00356
1051.0,0.00354
1052.0,0.003512
1053.0,0.003471
1054.0,0.003465
1055.0,0.003453
1056.0,0.003426
1057.0,0.003402
1058.0,0.003306
1059.0,0.003297
1060.0,0.003279
1061.0,0.003262
1062.0,0.003265
1063.0,0.003221
1064.0,0.003248
1065.0,0.00321
1066.0,0.003137
1067.0,0.003165
1068.0,0.003082
1069.0,0.002977
1070.0,0.003064
1071.0,0.003108
1072.0,0.003055
1073.0,0.003002
1074.0,0.003078
1075.0,0.00289
1076.0,0.003051
1077.0,0.002972
1078.0,0.002901
1079.0,0.002973
1080.0,0.00289
1081.0,0.002782
1082.0,0.002836
1083.0,0.002838
1084.0,0.002735
1085.0,0.002851
1086.0,0.002546
1087.0,0.002656
1088.0,0.002779
1089.0,0.002662
1090.0,0.002574
1091.0,0.002733
1092.0,0.002721
1093.0,0.002228
1094.0,0.002465
1095.0,0.002322
1096.0,0.002193
1097.0,0.002614
1098.0,0.00214
1099.0,0.002234
1100.0,0.002035
1101.0,0.002064
1102.0,0.001949
1103.0,0.001911
1104.0,0.001909
1105.0,0.00213
1106.0,0.001528
1107.0,0.001987
1108.0,0.001618
1109.0,0.001619
1110.0,0.001943
1111.0,0.001219
1112.0,0.001592
1113.0,0.0009286
1114.0,0.00105
1115.0,0.0008465
1116.0,0.000646
1117.0,0.0002086
1118.0,0.0007082
1119.0,0.0003199
1120.0,0.0004086
1121.0,0.0005597
1122.0,0.0002124
1123.0,0.0003621
1124.0,0.0003004
1125.0,0.0004022
1126.0,0.0001244
1127.0,0.0004555
1128.0,0.0002538
1129.0,0.0002706
1130.0,0.0001704
1131.0,0.0009358
1132.0,0.0007061
1133.0,0.0004162
1134.0,9.28e-05
1135.0,3.36e-05
1136.0,0.0003347
1137.0,0.0008956
1138.0,0.0006018
1139.0,0.0009613
1140.0,0.0007742
1141.0,0.0005631
1142.0,0.0006596
1143.0,0.0009846
1144.0,0.0002972
1145.0,0.0003841
1146.0,0.0004153
1147.0,0.0001298
1148.0,0.0008212
1149.0,0.0006298
1150.0,0.0003159
1151.0,0.0005703
1152.0,0.0007247
1153.0,0.0007065
1154.0,0.0003593
1155.0,0.0009554
1156.0,0.0008415
1157.0,0.0009629
1158.0,0.000948
1159.0,0.001039
1160.0,0.0008598
1161.0,0.001102
1162.0,0.001099
1163.0,0.001571
1164.0,0.001305
1165.0,0.001208
1166.0,0.001201
1167.0,0.001323
1168.0,0.001334
1169.0,0.001373
1170.0,0.001508
1171.0,0.001457
1172.0,0.001487
1173.0,0.001488
1174.0,0.0009945
1175.0,0.001449
1176.0,0.001614
1177.0,0.001529
1178.0,0.001087
1179.0,0.001612
1180.0,0.001399
1181.0,0.001448
1182.0,0.0009331
1183.0,0.001424
1184.0,0.001306
1185.0,0.001245
1186.0,0.001522
1187.0,0.00143
1188.0,0.0009354
1189.0,0.001316
1190.0,0.001465
1191.0,0.001368
1192.0,0.001479
1193.0,0.001402
1194.0,0.001449
1195.0,0.001353
1196.0,0.001289
1197.0,0.001448
1198.0,0.001302
1199.0,0.001071
1200.0,0.001357
1201.0,0.001294
1202.0,0.001284
1203.0,0.001277
1204.0,0.001082
1205.0,0.001312
1206.0,0.001474
1207.0,0.001264
1208.0,0.00125
1209.0,0.001272
1210.0,0.001331
1211.0,0.00125
1212.0,0.001224
1213.0,0.00139
1214.0,0.001252
1215.0,0.00122
1216.0,0.001372
1217.0,0.001325
1218.0,0.001351
1219.0,0.001328
1220.0,0.001345
1221.0,0.001357
1222.0,0.001312
1223.0,0.001294
1224.0,0.001279
1225.0,0.001331
1226.0,0.001339
1227.0,0.001216
1228.0,0.00134
1229.0,0.001327
1230.0,0.001297
1231.0,0.001339
1232.0,0.001326
1233.0,0.001266
1234.0,0.001327
1235.0,0.001312
1236.0,0.001319
1237.0,0.001292
1238.0,0.001306
1239.0,0.001285
1240.0,0.001286
1241.0,0.001273
1242.0,0.001269
1243.0,0.001254
1244.0,0.001258
1245.0,0.00126
1246.0,0.001248
1247.0,0.001239
1248.0,0.001233
1249.0,0.001234
1250.0,0.001222
1251.0,0.001201
1252.0,0.001199
1253.0,0.001182
1254.0,0.001164
1255.0,0.001185
1256.0,0.001142
1257.0,0.001131
1258.0,0.001153
1259.0,0.001098
1260.0,0.001102
1261.0,0.001025
1262.0,0.0009856
1263.0,0.0009843
1264.0,0.0008924
1265.0,0.0009727
1266.0,0.0009252
1267.0,0.0009441
1268.0,0.0008837
1269.0,0.0004984
1270.0,0.0009309
1271.0,0.0009954
1272.0,0.0009969
1273.0,0.0009818
1274.0,0.0009835
1275.0,0.0009969
1276.0,0.001006
1277.0,0.001011
1278.0,0.001032
1279.0,0.001019
1280.0,0.001003
1281.0,0.0009567
1282.0,0.0009225
1283.0,0.0009898
1284.0,0.001009
1285.0,0.001013
1286.0,0.001026
1287.0,0.001003
1288.0,0.001001
1289.0,0.0009589
1290.0,0.000986
1291.0,0.0009977
1292.0,0.0009207
1293.0,0.0009684
1294.0,0.0009576
1295.0,0.0009477
1296.0,0.000893
1297.0,0.000834
1298.0,0.0009094
1299.0,0.0009527
1300.0,0.0007771
1301.0,0.0008043
1302.0,0.0008964
1303.0,0.000761
1304.0,0.0006264
1305.0,0.0008663
1306.0,0.0008635
1307.0,0.0006375
1308.0,0.0007509
1309.0,0.0008478
1310.0,0.000618
1311.0,0.0007082
1312.0,0.0006861
1313.0,0.0006667
1314.0,0.0005822
1315.0,0.0005736
1316.0,0.0006853
1317.0,0.0006405
1318.0,0.0007058
1319.0,0.0005235
1320.0,0.0005044
1321.0,0.0006018
1322.0,0.0006058
1323.0,0.0004317
1324.0,0.0005046
1325.0,0.0006551
1326.0,0.000545
1327.0,0.0005138
1328.0,0.0004313
1329.0,0.0003081
1330.0,0.000415
1331.0,0.000231
1332.0,0.0002399
1333.0,0.000347
1334.0,0.0002886
1335.0,0.0004149
1336.0,0.0003148
1337.0,0.0002724
1338.0,0.0002969
1339.0,0.0002955
1340.0,0.0002861
1341.0,0.0002754
1342.0,0.0002904
1343.0,0.0001837
1344.0,0.0001048
1345.0,0.0001559
1346.0,7.133e-05
1347.0,7.211e-05
1348.0,4.17e-06
1349.0,1.539e-05
1350.0,1.602e-05
1351.0,3.732e-06
1352.0,9.896e-07
1353.0,4.998e-08
1354.0,1.721e-07
1355.0,1.381e-09
1356.0,2.42e-08
1357.0,3.677e-08
1358.0,1.622e-09
1359.0,2.043e-10
1360.0,7.383e-10
1361.0,8.257e-13
1362.0,2.259e-15
