interpolation:linear
wavelength,value
280.0,4.466e-23
280.5,1.505e-21
281.0,8.161e-21
281.5,2.658e-19
282.0,4.892e-19
282.5,1.128e-18
283.0,3.47e-18
283.5,5.628e-18
284.0,9.2e-17
284.5,2.701e-16
285.0,7.563e-16
285.5,3.049e-15
286.0,1.186e-14
286.5,5.085e-14
287.0,1.433e-13
287.5,5.445e-13
288.0,1.697e-12
288.5,4.826e-12
289.0,1.244e-11
289.5,3.685e-11
290.0,1.017e-10
290.5,2.073e-10
291.0,4.456e-10
291.5,1.284e-09
292.0,2.634e-09
292.5,3.662e-09
293.0,7.77e-09
293.5,1.866e-08
294.0,2.909e-08
294.5,3.529e-08
295.0,5.93e-08
295.5,1.001e-07
296.0,1.872e-07
296.5,2.533e-07
297.0,3.328e-07
297.5,8.521e-07
298.0,1.286e-06
298.5,1.248e-06
299.0,2.652e-06
299.5,4.11e-06
300.0,4.337e-06
300.5,6.009e-06
301.0,1.009e-05
301.5,1.495e-05
302.0,1.23e-05
302.5,2.348e-05
303.0,4.059e-05
303.5,5.035e-05
304.0,4.791e-05
304.5,7.433e-05
305.0,0.00012
305.5,0.0001437
306.0,0.0001415
306.5,0.0001817
307.0,0.00029
307.5,0.0004156
308.0,0.0004441
308.5,0.0005452
309.0,0.0005859
309.5,0.0008216
310.0,0.0009068
310.5,0.001539
311.0,0.002086
311.5,0.002081
312.0,0.002463
312.5,0.003352
313.0,0.003855
313.5,0.00354
314.0,0.005066
314.5,0.005383
315.0,0.0073
315.5,0.005584
316.0,0.00565
316.5,0.009218
317.0,0.01141
317.5,0.01143
318.0,0.009727
318.5,0.0143
319.0,0.01847
319.5,0.0131
320.0,0.01548
320.5,0.02304
321.0,0.024
321.5,0.02336
322.0,0.02099
322.5,0.01839
323.0,0.02044
323.5,0.02985
324.0,0.03553
324.5,0.03417
325.0,0.02611
325.5,0.03672
326.0,0.04955
326.5,0.05299
327.0,0.05147
327.5,0.04812
328.0,0.03909
328.5,0.04578
329.0,0.05961
329.5,0.06936
330.0,0.06845
330.5,0.05125
331.0,0.05099
331.5,0.05437
332.0,0.06294
332.5,0.06421
333.0,0.06279
333.5,0.0539
334.0,0.05468
334.5,0.06685
335.0,0.06493
335.5,0.07716
336.0,0.05334
336.5,0.06023
337.0,0.04814
337.5,0.05927
338.0,0.06069
338.5,0.07171
339.0,0.07111
339.5,0.06821
340.0,0.07825
340.5,0.0708
341.0,0.07035
341.5,0.06487
342.0,0.07757
342.5,0.07262
343.0,0.07949
343.5,0.07461
344.0,0.054
344.5,0.05536
345.0,0.07362
345.5,0.07529
346.0,0.06404
346.5,0.07253
347.0,0.07754
347.5,0.06256
348.0,0.07151
348.5,0.07156
349.0,0.06639
349.5,0.06563
350.0,0.08111
350.5,0.08545
351.0,0.0761
351.5,0.07354
352.0,0.07912
352.5,0.06182
353.0,0.0779
353.5,0.0833
354.0,0.08644
354.5,0.08756
355.0,0.0871
355.5,0.07864
356.0,0.08223
356.5,0.07013
357.0,0.05787
357.5,0.07078
358.0,0.05605
358.5,0.04785
359.0,0.06681
359.5,0.08491
360.0,0.08994
360.5,0.07185
361.0,0.06546
361.5,0.07531
362.0,0.06507
362.5,0.08995
363.0,0.0807
363.5,0.07424
364.0,0.09068
364.5,0.0774
365.0,0.07872
365.5,0.09868
366.0,0.1044
366.5,0.09802
367.0,0.09534
367.5,0.09881
368.0,0.08635
368.5,0.087
369.0,0.09384
369.5,0.0999
370.0,0.1064
370.5,0.08245
371.0,0.08798
371.5,0.1099
372.0,0.07286
372.5,0.08725
373.0,0.08863
373.5,0.05758
374.0,0.08356
374.5,0.0691
375.0,0.06708
375.5,0.1
376.0,0.08279
376.5,0.08567
377.0,0.09058
377.5,0.1058
378.0,0.1145
378.5,0.1081
379.0,0.08907
379.5,0.08123
380.0,0.08433
380.5,0.102
381.0,0.102
381.5,0.08077
382.0,0.07162
382.5,0.06096
383.0,0.05635
383.5,0.05419
384.0,0.05969
384.5,0.08766
385.0,0.0868
385.5,0.08071
386.0,0.06902
386.5,0.09052
387.0,0.07509
387.5,0.08421
388.0,0.07762
388.5,0.07661
389.0,0.08256
389.5,0.09983
390.0,0.1
390.5,0.0919
391.0,0.108
391.5,0.11
392.0,0.09246
392.5,0.08264
393.0,0.04591
393.5,0.03332
394.0,0.06768
394.5,0.0859
395.0,0.1046
395.5,0.1061
396.0,0.09185
396.5,0.0536
397.0,0.04016
397.5,0.08153
398.0,0.114
398.5,0.1176
399.0,0.1271
399.5,0.1265
400.0,0.1311
401.0,0.1291
402.0,0.1357
403.0,0.1284
404.0,0.1259
405.0,0.1255
406.0,0.1229
407.0,0.1204
408.0,0.1246
409.0,0.1328
410.0,0.1156
411.0,0.1247
412.0,0.1335
413.0,0.1297
414.0,0.1307
415.0,0.1305
416.0,0.1322
417.0,0.1284
418.0,0.1254
419.0,0.1266
420.0,0.1255
421.0,0.1307
422.0,0.1236
423.0,0.1201
424.0,0.1264
425.0,0.1255
426.0,0.1217
427.0,0.119
428.0,0.1154
429.0,0.1089
430.0,0.0949
431.0,0.09357
432.0,0.1202
433.0,0.1202
434.0,0.1111
435.0,0.1155
436.0,0.1296
437.0,0.1273
438.0,0.1152
439.0,0.1185
440.0,0.1215
441.0,0.1251
442.0,0.1334
443.0,0.1293
444.0,0.1316
445.0,0.1282
446.0,0.1219
447.0,0.1312
448.0,0.1325
449.0,0.1322
450.0,0.1351
451.0,0.1393
452.0,0.1336
453.0,0.1251
454.0,0.13
455.0,0.1299
456.0,0.1322
457.0,0.1334
458.0,0.1279
459.0,0.1262
460.0,0.1256
461.0,0.1277
462.0,0.128
463.0,0.1266
464.0,0.1242
465.0,0.1223
466.0,0.1229
467.0,0.1199
468.0,0.1205
469.0,0.1202
470.0,0.1157
471.0,0.1149
472.0,0.1205
473.0,0.1183
474.0,0.1178
475.0,0.1179
476.0,0.1134
477.0,0.1127
478.0,0.1148
479.0,0.113
480.0,0.1122
481.0,0.1132
482.0,0.1131
483.0,0.1112
484.0,0.1085
485.0,0.1031
486.0,0.08985
487.0,0.09378
488.0,0.1023
489.0,0.1019
490.0,0.1064
491.0,0.1039
492.0,0.0975
493.0,0.1001
494.0,0.1006
495.0,0.1008
496.0,0.1007
497.0,0.1015
498.0,0.09582
499.0,0.09606
500.0,0.09229
501.0,0.08963
502.0,0.08736
503.0,0.08994
504.0,0.08674
505.0,0.08927
506.0,0.09163
507.0,0.08679
508.0,0.08381
509.0,0.08589
510.0,0.08513
511.0,0.08702
512.0,0.08744
513.0,0.08214
514.0,0.08094
515.0,0.07951
516.0,0.0787
517.0,0.06942
518.0,0.07245
519.0,0.07543
520.0,0.07755
521.0,0.07762
522.0,0.07698
523.0,0.07498
524.0,0.07688
525.0,0.07695
526.0,0.07277
527.0,0.06781
528.0,0.07093
529.0,0.07404
530.0,0.0723
531.0,0.0727
532.0,0.06962
533.0,0.0671
534.0,0.06865
535.0,0.06976
536.0,0.07002
537.0,0.06687
538.0,0.06762
539.0,0.0666
540.0,0.06337
541.0,0.06324
542.0,0.06464
543.0,0.06344
544.0,0.06402
545.0,0.06338
546.0,0.06315
547.0,0.06268
548.0,0.06151
549.0,0.06128
550.0,0.06158
551.0,0.0604
552.0,0.06038
553.0,0.05887
554.0,0.05981
555.0,0.05946
556.0,0.0582
557.0,0.05589
558.0,0.05493
559.0,0.05335
560.0,0.05349
561.0,0.05364
562.0,0.05271
563.0,0.05362
564.0,0.0517
565.0,0.05081
566.0,0.04965
567.0,0.05015
568.0,0.04924
569.0,0.04758
570.0,0.04722
571.0,0.04659
572.0,0.04726
573.0,0.04743
574.0,0.04698
575.0,0.04583
576.0,0.04519
577.0,0.04549
578.0,0.04465
579.0,0.0447
580.0,0.04546
581.0,0.04558
582.0,0.04631
583.0,0.04628
584.0,0.04651
585.0,0.04518
586.0,0.04401
587.0,0.04469
588.0,0.04321
589.0,0.0378
590.0,0.0393
591.0,0.04147
592.0,0.04054
593.0,0.04091
594.0,0.04022
595.0,0.03878
596.0,0.04019
597.0,0.03935
598.0,0.03896
599.0,0.03869
600.0,0.0385
601.0,0.03797
602.0,0.0375
603.0,0.03793
604.0,0.03839
605.0,0.03806
606.0,0.0378
607.0,0.0381
608.0,0.03761
609.0,0.0376
610.0,0.03728
611.0,0.03741
612.0,0.03724
613.0,0.0367
614.0,0.03613
615.0,0.03684
616.0,0.03555
617.0,0.03539
618.0,0.03666
619.0,0.03619
620.0,0.03629
621.0,0.03618
622.0,0.03561
623.0,0.03493
624.0,0.0342
625.0,0.03401
626.0,0.03439
627.0,0.0346
628.0,0.03162
629.0,0.03333
630.0,0.03243
631.0,0.03325
632.0,0.03278
633.0,0.03377
634.0,0.03341
635.0,0.03386
636.0,0.03335
637.0,0.03382
638.0,0.0341
639.0,0.03365
640.0,0.03326
641.0,0.03316
642.0,0.03294
643.0,0.0333
644.0,0.03312
645.0,0.03304
646.0,0.03208
647.0,0.03143
648.0,0.03136
649.0,0.03062
650.0,0.03087
651.0,0.03212
652.0,0.03047
653.0,0.03148
654.0,0.03104
655.0,0.02967
656.0,0.02627
657.0,0.02691
658.0,0.03012
659.0,0.03026
660.0,0.03029
661.0,0.03041
662.0,0.03033
663.0,0.02964
664.0,0.02995
665.0,0.02991
666.0,0.02985
667.0,0.02975
668.0,0.02969
669.0,0.03006
670.0,0.02983
671.0,0.02974
672.0,0.02941
673.0,0.02978
674.0,0.02957
675.0,0.0292
676.0,0.0293
677.0,0.02893
678.0,0.02892
679.0,0.02836
680.0,0.02848
681.0,0.02818
682.0,0.02803
683.0,0.02786
684.0,0.0276
685.0,0.02773
686.0,0.02744
687.0,0.01648
688.0,0.01977
689.0,0.01979
690.0,0.02093
691.0,0.02228
692.0,0.02332
693.0,0.02303
694.0,0.0228
695.0,0.02391
696.0,0.02387
697.0,0.02558
698.0,0.02508
699.0,0.02415
700.0,0.02376
701.0,0.02334
702.0,0.0235
703.0,0.02347
704.0,0.02425
705.0,0.02417
706.0,0.0241
707.0,0.02403
708.0,0.02397
709.0,0.02399
710.0,0.02383
711.0,0.02375
712.0,0.02363
713.0,0.02324
714.0,0.02323
715.0,0.02229
716.0,0.02219
717.0,0.01847
718.0,0.01681
719.0,0.01525
720.0,0.01589
721.0,0.01782
722.0,0.02079
723.0,0.01903
724.0,0.01679
725.0,0.0164
726.0,0.01715
727.0,0.01744
728.0,0.01615
729.0,0.01689
730.0,0.01777
731.0,0.01688
732.0,0.01823
733.0,0.01944
734.0,0.01989
735.0,0.01934
736.0,0.01922
737.0,0.01921
738.0,0.01961
739.0,0.01913
740.0,0.0196
741.0,0.01934
742.0,0.0193
743.0,0.0197
744.0,0.01957
745.0,0.01949
746.0,0.01949
747.0,0.01944
748.0,0.01931
749.0,0.01901
750.0,0.01892
751.0,0.01866
752.0,0.01868
753.0,0.0187
754.0,0.01867
755.0,0.01849
756.0,0.01841
757.0,0.01836
758.0,0.01805
759.0,0.01748
760.0,0.002528
761.0,0.001344
762.0,0.0077
763.0,0.003776
764.0,0.005654
765.0,0.007589
766.0,0.009532
767.0,0.01247
768.0,0.01496
769.0,0.01538
770.0,0.01604
771.0,0.01619
772.0,0.01618
773.0,0.01621
774.0,0.01605
775.0,0.01584
776.0,0.01596
777.0,0.01566
778.0,0.01548
779.0,0.01541
780.0,0.01526
781.0,0.01521
782.0,0.01525
783.0,0.01494
784.0,0.01496
785.0,0.01478
786.0,0.01488
787.0,0.01448
788.0,0.01421
789.0,0.01414
790.0,0.0136
791.0,0.01377
792.0,0.01362
793.0,0.01334
794.0,0.01362
795.0,0.01376
796.0,0.01312
797.0,0.01307
798.0,0.01355
799.0,0.01338
800.0,0.01305
801.0,0.01291
802.0,0.01281
803.0,0.01263
804.0,0.01261
805.0,0.01256
806.0,0.01292
807.0,0.01269
808.0,0.01264
809.0,0.01228
810.0,0.01208
811.0,0.01199
812.0,0.01147
813.0,0.01114
814.0,0.009512
815.0,0.009421
816.0,0.008654
817.0,0.008785
818.0,0.00838
819.0,0.009523
820.0,0.008866
821.0,0.01066
822.0,0.01026
823.0,0.006512
824.0,0.009779
825.0,0.01032
826.0,0.009776
827.0,0.0104
828.0,0.00848
829.0,0.009628
830.0,0.009446
831.0,0.009441
832.0,0.009055
833.0,0.009755
834.0,0.009289
835.0,0.01039
836.0,0.009737
837.0,0.01032
838.0,0.009888
839.0,0.01007
840.0,0.01027
841.0,0.01004
842.0,0.01007
843.0,0.01007
844.0,0.009858
845.0,0.01018
846.0,0.0101
847.0,0.009877
848.0,0.009744
849.0,0.00942
850.0,0.008981
851.0,0.009431
852.0,0.009328
853.0,0.008952
854.0,0.007679
855.0,0.008427
856.0,0.009164
857.0,0.009351
858.0,0.009241
859.0,0.009223
860.0,0.009211
861.0,0.009125
862.0,0.009241
863.0,0.009428
864.0,0.008926
865.0,0.008816
866.0,0.007897
867.0,0.00821
868.0,0.0089
869.0,0.008682
870.0,0.008895
871.0,0.008738
872.0,0.008673
873.0,0.008621
874.0,0.008481
875.0,0.008272
876.0,0.008321
877.0,0.008371
878.0,0.008421
879.0,0.008257
880.0,0.008046
881.0,0.007881
882.0,0.008014
883.0,0.008016
884.0,0.007939
885.0,0.007961
886.0,0.00752
887.0,0.007596
888.0,0.007659
889.0,0.007743
890.0,0.007606
891.0,0.007582
892.0,0.007289
893.0,0.006983
894.0,0.006607
895.0,0.0061
896.0,0.005665
897.0,0.004718
898.0,0.005189
899.0,0.003784
900.0,0.005342
901.0,0.003962
902.0,0.004775
903.0,0.004757
904.0,0.006284
905.0,0.006003
906.0,0.005549
907.0,0.004286
908.0,0.004397
909.0,0.00482
910.0,0.004121
911.0,0.004472
912.0,0.004663
913.0,0.004129
914.0,0.004096
915.0,0.004437
916.0,0.00369
917.0,0.004828
918.0,0.003754
919.0,0.004911
920.0,0.005031
921.0,0.00523
922.0,0.00455
923.0,0.005021
924.0,0.004606
925.0,0.004485
926.0,0.004509
927.0,0.005122
928.0,0.003492
929.0,0.003125
930.0,0.002363
931.0,0.002221
932.0,0.001542
933.0,0.001232
934.0,0.0006531
935.0,0.001259
936.0,0.0007651
937.0,0.0007717
938.0,0.0009507
939.0,0.002077
940.0,0.002542
941.0,0.001851
942.0,0.00216
943.0,0.00137
944.0,0.001464
945.0,0.001884
946.0,0.0009119
947.0,0.001869
948.0,0.001353
949.0,0.002555
950.0,0.0006498
951.0,0.002497
952.0,0.001269
953.0,0.001669
954.0,0.002089
955.0,0.001683
956.0,0.001666
957.0,0.001246
958.0,0.002414
959.0,0.001839
960.0,0.002065
961.0,0.002362
962.0,0.00222
963.0,0.002612
964.0,0.00236
965.0,0.002575
966.0,0.002568
967.0,0.002537
968.0,0.003665
969.0,0.003788
970.0,0.003427
971.0,0.004055
972.0,0.003819
973.0,0.003182
974.0,0.002997
975.0,0.003127
976.0,0.002897
977.0,0.003435
978.0,0.003186
979.0,0.003362
980.0,0.003121
981.0,0.003879
982.0,0.003645
983.0,0.003457
984.0,0.004018
985.0,0.003585
986.0,0.0041
987.0,0.003967
988.0,0.003947
989.0,0.004067
990.0,0.003888
991.0,0.004031
992.0,0.004046
993.0,0.003904
994.0,0.004023
995.0,0.004011
996.0,0.003972
997.0,0.003968
998.0,0.003932
999.0,0.003906
1000.0,0.003853
1001.0,0.003899
1002.0,0.003729
1003.0,0.003799
1004.0,0.003678
1005.0,0.003548
1006.0,0.003663
1007.0,0.003731
1008.0,0.003689
1009.0,0.003646
1010.0,0.003612
1011.0,0.003658
1012.0,0.003603
1013.0,0.003624
1014.0,0.003586
1015.0,0.003547
1016.0,0.003517
1017.0,0.00351
1018.0,0.003489
1019.0,0.003384
1020.0,0.003441
1021.0,0.003426
1022.0,0.00338
1023.0,0.003403
1024.0,0.003329
1025.0,0.003381
1026.0,0.003349
1027.0,0.00333
1028.0,0.003309
1029.0,0.003256
1030.0,0.003273
1031.0,0.003245
1032.0,0.003225
1033.0,0.003164
1034.0,0.003152
1035.0,0.00315
1036.0,0.003152
1037.0,0.00309
1038.0,0.003092
1039.0,0.003078
1040.0,0.003053
1041.0,0.003052
1042.0,0.003019
1043.0,0.002998
1044.0,0.002996
1045.0,0.002943
1046.0,0.002898
1047.0,0.002912
1048.0,0.002917
1049.0,0.002895
1050.0,0.002869
1051.0,0.002853
1052.0,0.00283
1053.0,0.002795
1054.0,0.002789
1055.0,0.002778
1056.0,0.002755
1057.0,0.002735
1058.0,0.002656
1059.0,0.002647
1060.0,0.002632
1061.0,0.002618
1062.0,0.002619
1063.0,0.002582
1064.0,0.002604
1065.0,0.00257
1066.0,0.002515
1067.0,0.002536
1068.0,0.002468
1069.0,0.002386
1070.0,0.002454
1071.0,0.002496
1072.0,0.002449
1073.0,0.002407
1074.0,0.002475
1075.0,0.002311
1076.0,0.002453
1077.0,0.002383
1078.0,0.002321
1079.0,0.002394
1080.0,0.002317
1081.0,0.002222
1082.0,0.002277
1083.0,0.002283
1084.0,0.002184
1085.0,0.002286
1086.0,0.00203
1087.0,0.002123
1088.0,0.002235
1089.0,0.002125
1090.0,0.002053
1091.0,0.002194
1092.0,0.002186
1093.0,0.001766
1094.0,0.001976
1095.0,0.001833
1096.0,0.001728
1097.0,0.0021
1098.0,0.001679
1099.0,0.001755
1100.0,0.001596
1101.0,0.001622
1102.0,0.001525
1103.0,0.001492
1104.0,0.001491
1105.0,0.00167
1106.0,0.001183
1107.0,0.001558
1108.0,0.001259
1109.0,0.00126
1110.0,0.001514
1111.0,0.000948
1112.0,0.00124
1113.0,0.0007287
1114.0,0.0008154
1115.0,0.0006653
1116.0,0.0005122
1117.0,0.0001775
1118.0,0.0005569
1119.0,0.0002641
1120.0,0.0003311
1121.0,0.0004429
1122.0,0.0001796
1123.0,0.0002959
1124.0,0.0002484
1125.0,0.0003256
1126.0,0.0001084
1127.0,0.0003656
1128.0,0.0002119
1129.0,0.0002246
1130.0,0.000146
1131.0,0.0007145
1132.0,0.0005498
1133.0,0.0003348
1134.0,8.191e-05
1135.0,3.068e-05
1136.0,0.0002733
1137.0,0.0006829
1138.0,0.0004723
1139.0,0.0007417
1140.0,0.0006007
1141.0,0.0004441
1142.0,0.0005153
1143.0,0.0007522
1144.0,0.0002448
1145.0,0.0003094
1146.0,0.0003327
1147.0,0.0001124
1148.0,0.0006333
1149.0,0.0004929
1150.0,0.00026
1151.0,0.000448
1152.0,0.0005613
1153.0,0.0005524
1154.0,0.0002913
1155.0,0.0007337
1156.0,0.0006488
1157.0,0.0007466
1158.0,0.0007352
1159.0,0.0008004
1160.0,0.000673
1161.0,0.0008593
1162.0,0.0008564
1163.0,0.001231
1164.0,0.001021
1165.0,0.0009395
1166.0,0.0009443
1167.0,0.001039
1168.0,0.001046
1169.0,0.001075
1170.0,0.001187
1171.0,0.00115
1172.0,0.001182
1173.0,0.001172
1174.0,0.000783
1175.0,0.001151
1176.0,0.001295
1177.0,0.001217
1178.0,0.0008639
1179.0,0.001292
1180.0,0.00111
1181.0,0.001147
1182.0,0.0007381
1183.0,0.001129
1184.0,0.001034
1185.0,0.0009816
1186.0,0.001212
1187.0,0.001133
1188.0,0.0007325
1189.0,0.001044
1190.0,0.001171
1191.0,0.001079
1192.0,0.001183
1193.0,0.001117
1194.0,0.001157
1195.0,0.001071
1196.0,0.001017
1197.0,0.001157
1198.0,0.001042
1199.0,0.0008432
1200.0,0.001081
1201.0,0.001023
1202.0,0.001026
1203.0,0.001009
1204.0,0.0008574
1205.0,0.001051
1206.0,0.001185
1207.0,0.001004
1208.0,0.0009977
1209.0,0.001015
1210.0,0.001066
1211.0,0.0009971
1212.0,0.0009611
1213.0,0.001109
1214.0,0.0009861
1215.0,0.0009619
1216.0,0.001097
1217.0,0.001057
1218.0,0.001081
1219.0,0.001059
1220.0,0.001076
1221.0,0.00109
1222.0,0.001052
1223.0,0.001036
1224.0,0.001017
1225.0,0.001066
1226.0,0.001077
1227.0,0.0009668
1228.0,0.001079
1229.0,0.001067
1230.0,0.001041
1231.0,0.001081
1232.0,0.001071
1233.0,0.001013
1234.0,0.001074
1235.0,0.001061
1236.0,0.001068
1237.0,0.001043
1238.0,0.001057
1239.0,0.00104
1240.0,0.001042
1241.0,0.001028
1242.0,0.001027
1243.0,0.001016
1244.0,0.001018
1245.0,0.00102
1246.0,0.001011
1247.0,0.001002
1248.0,0.000996
1249.0,0.0009982
1250.0,0.0009874
1251.0,0.0009685
1252.0,0.0009696
1253.0,0.0009516
1254.0,0.0009338
1255.0,0.0009576
1256.0,0.0009148
1257.0,0.0009043
1258.0,0.0009284
1259.0,0.000873
1260.0,0.0008772
1261.0,0.0008041
1262.0,0.0007674
1263.0,0.0007661
1264.0,0.0006845
1265.0,0.000757
1266.0,0.0007137
1267.0,0.0007326
1268.0,0.0006793
1269.0,0.0003741
1270.0,0.0007201
1271.0,0.0007813
1272.0,0.0007831
1273.0,0.0007701
1274.0,0.0007733
1275.0,0.0007857
1276.0,0.000795
1277.0,0.0008033
1278.0,0.0008245
1279.0,0.0008147
1280.0,0.0008018
1281.0,0.0007669
1282.0,0.0007435
1283.0,0.0007968
1284.0,0.0008121
1285.0,0.0008162
1286.0,0.0008284
1287.0,0.0008061
1288.0,0.0008057
1289.0,0.0007646
1290.0,0.000794
1291.0,0.000805
1292.0,0.0007313
1293.0,0.000779
1294.0,0.0007701
1295.0,0.0007565
1296.0,0.0007072
1297.0,0.0006577
1298.0,0.0007254
1299.0,0.0007673
1300.0,0.0006144
1301.0,0.0006363
1302.0,0.0007158
1303.0,0.0006024
1304.0,0.0004889
1305.0,0.0006917
1306.0,0.0006865
1307.0,0.0005011
1308.0,0.000597
1309.0,0.0006704
1310.0,0.0004844
1311.0,0.000561
1312.0,0.0005429
1313.0,0.0005233
1314.0,0.0004561
1315.0,0.0004467
1316.0,0.0005403
1317.0,0.0005045
1318.0,0.0005586
1319.0,0.0004083
1320.0,0.000396
1321.0,0.0004722
1322.0,0.0004719
1323.0,0.0003349
1324.0,0.000395
1325.0,0.0005139
1326.0,0.0004263
1327.0,0.0004012
1328.0,0.000337
1329.0,0.0002405
1330.0,0.0003207
1331.0,0.0001825
1332.0,0.0001893
1333.0,0.0002666
1334.0,0.0002292
1335.0,0.0003201
1336.0,0.0002449
1337.0,0.0002147
1338.0,0.0002317
1339.0,0.0002306
1340.0,0.0002254
1341.0,0.0002143
1342.0,0.0002255
1343.0,0.0001462
1344.0,8.704e-05
1345.0,0.0001252
1346.0,6.067e-05
1347.0,6.138e-05
1348.0,3.943e-06
