interpolation:linear
wavelength,value
280.0,9.955e-22
280.5,3.2060000000000004e-20
281.0,1.706e-19
281.5,5.261e-19
282.0,9.359e-19
282.5,2.324e-18
283.0,7.322e-18
283.5,1.189e-17
284.0,1.926e-16
284.5,5.572e-16
285.0,1.085e-15
285.5,5.241e-15
286.0,2.095e-14
286.5,9.282e-14
287.0,2.637e-13
287.5,1.004e-12
288.0,3.119e-12
288.5,9.721e-12
289.0,2.637e-11
289.5,8.059e-11
290.0,2.252e-10
290.5,4.61e-10
291.0,9.928e-10
291.5,2.856e-09
292.0,5.977e-09
292.5,8.576e-09
293.0,1.888e-08
293.5,4.746e-08
294.0,7.575e-08
294.5,9.961e-08
295.0,1.712e-07
295.5,3.808e-07
296.0,6.811e-07
296.5,9.751e-07
297.0,1.349e-06
297.5,3.763e-06
298.0,6.174e-06
298.5,6.436e-06
299.0,1.476e-05
299.5,2.667e-05
300.0,3.1e-05
300.5,4.793e-05
301.0,9.856e-05
301.5,0.0001817
302.0,0.00017
302.5,0.0003352
303.0,0.0006103
303.5,0.0007782
304.0,0.0007441
304.5,0.001168
305.0,0.001909
305.5,0.002293
306.0,0.002257
306.5,0.002897
307.0,0.004618
307.5,0.006587
308.0,0.007022
308.5,0.008579
309.0,0.008758
309.5,0.0103
310.0,0.01047
310.5,0.01703
311.0,0.02158
311.5,0.02089
312.0,0.02142
312.5,0.02651
313.0,0.02897
313.5,0.02777
314.0,0.03547
314.5,0.03245
315.0,0.04278
315.5,0.03507
316.0,0.03142
316.5,0.04615
317.0,0.05709
317.5,0.05879
318.0,0.04655
318.5,0.0597
319.0,0.07196
319.5,0.05676
320.0,0.06807
320.5,0.08816
321.0,0.08107
321.5,0.07777
322.0,0.07955
322.5,0.06912
323.0,0.07034
323.5,0.08821
324.0,0.103
324.5,0.1034
325.0,0.08779
325.5,0.1149
326.0,0.1407
326.5,0.1422
327.0,0.1406
327.5,0.1346
328.0,0.1178
328.5,0.1257
329.0,0.1525
329.5,0.1735
330.0,0.1737
330.5,0.1368
331.0,0.1384
331.5,0.1415
332.0,0.1547
332.5,0.1536
333.0,0.1521
333.5,0.1357
334.0,0.1383
334.5,0.1611
335.0,0.1522
335.5,0.1792
336.0,0.1236
336.5,0.1421
337.0,0.1155
337.5,0.1429
338.0,0.1407
338.5,0.1636
339.0,0.161
339.5,0.1547
340.0,0.1796
340.5,0.1615
341.0,0.1581
341.5,0.1441
342.0,0.1716
342.5,0.1599
343.0,0.1756
343.5,0.1652
344.0,0.1211
344.5,0.123
345.0,0.1614
345.5,0.1639
346.0,0.1388
346.5,0.1565
347.0,0.1678
347.5,0.1353
348.0,0.1534
348.5,0.1528
349.0,0.1412
349.5,0.1394
350.0,0.1718
350.5,0.1807
351.0,0.161
351.5,0.1564
352.0,0.1671
352.5,0.1298
353.0,0.1629
353.5,0.1736
354.0,0.1796
354.5,0.1815
355.0,0.1803
355.5,0.1624
356.0,0.1693
356.5,0.1441
357.0,0.1187
357.5,0.1448
358.0,0.1144
358.5,0.09739
359.0,0.1358
359.5,0.1725
360.0,0.1822
360.5,0.1451
361.0,0.1319
361.5,0.1513
362.0,0.1304
362.5,0.1799
363.0,0.1611
363.5,0.1479
364.0,0.1803
364.5,0.1536
365.0,0.1559
365.5,0.195
366.0,0.2059
366.5,0.1928
367.0,0.1871
367.5,0.1936
368.0,0.1688
368.5,0.1698
369.0,0.1827
369.5,0.1941
370.0,0.2062
370.5,0.1595
371.0,0.1699
371.5,0.2118
372.0,0.1401
372.5,0.1674
373.0,0.1698
373.5,0.1101
374.0,0.1594
374.5,0.1316
375.0,0.1275
375.5,0.1897
376.0,0.1567
376.5,0.1618
377.0,0.1707
377.5,0.1991
378.0,0.2151
378.5,0.2025
379.0,0.1665
379.5,0.1516
380.0,0.157
380.5,0.1895
381.0,0.1892
381.5,0.1495
382.0,0.1323
382.5,0.1123
383.0,0.1036
383.5,0.09947
384.0,0.1093
384.5,0.1603
385.0,0.1584
385.5,0.147
386.0,0.1255
386.5,0.1642
387.0,0.136
387.5,0.1522
388.0,0.14
388.5,0.1379
389.0,0.1483
389.5,0.179
390.0,0.179
390.5,0.1642
391.0,0.1925
391.5,0.1957
392.0,0.1642
392.5,0.1465
393.0,0.08122
393.5,0.05883
394.0,0.1193
394.5,0.1512
395.0,0.1838
395.5,0.1861
396.0,0.1607
396.5,0.09363
397.0,0.07001
397.5,0.1419
398.0,0.198
398.5,0.2039
399.0,0.22
399.5,0.2185
400.0,0.2261
401.0,0.2222
402.0,0.2327
403.0,0.2194
404.0,0.2145
405.0,0.2129
406.0,0.2079
407.0,0.2031
408.0,0.2094
409.0,0.2226
410.0,0.1931
411.0,0.2077
412.0,0.2215
413.0,0.2145
414.0,0.2156
415.0,0.2146
416.0,0.2167
417.0,0.2098
418.0,0.2044
419.0,0.2055
420.0,0.2031
421.0,0.2109
422.0,0.1989
423.0,0.1928
424.0,0.2023
425.0,0.2004
426.0,0.1938
427.0,0.1889
428.0,0.1827
429.0,0.1719
430.0,0.1493
431.0,0.1469
432.0,0.1881
433.0,0.1877
434.0,0.173
435.0,0.1794
436.0,0.2008
437.0,0.1967
438.0,0.1778
439.0,0.1825
440.0,0.1869
441.0,0.1921
442.0,0.2044
443.0,0.1976
444.0,0.2005
445.0,0.1948
446.0,0.1846
447.0,0.1982
448.0,0.1997
449.0,0.1989
450.0,0.2029
451.0,0.2088
452.0,0.1997
453.0,0.1865
454.0,0.1934
455.0,0.193
456.0,0.196
457.0,0.1977
458.0,0.1893
459.0,0.1868
460.0,0.1858
461.0,0.1885
462.0,0.1887
463.0,0.1862
464.0,0.182
465.0,0.1786
466.0,0.1791
467.0,0.1745
468.0,0.175
469.0,0.1745
470.0,0.1676
471.0,0.1663
472.0,0.174
473.0,0.1705
474.0,0.1694
475.0,0.1695
476.0,0.163
477.0,0.1621
478.0,0.1651
479.0,0.1626
480.0,0.1615
481.0,0.163
482.0,0.1626
483.0,0.1595
484.0,0.1552
485.0,0.1469
486.0,0.1276
487.0,0.1328
488.0,0.1446
489.0,0.1439
490.0,0.1503
491.0,0.1465
492.0,0.1373
493.0,0.1408
494.0,0.1411
495.0,0.1413
496.0,0.1411
497.0,0.1421
498.0,0.1343
499.0,0.1348
500.0,0.1296
501.0,0.126
502.0,0.123
503.0,0.1268
504.0,0.1224
505.0,0.1259
506.0,0.1291
507.0,0.122
508.0,0.1175
509.0,0.12
510.0,0.1187
511.0,0.121
512.0,0.1215
513.0,0.1141
514.0,0.1124
515.0,0.1105
516.0,0.1094
517.0,0.09648
518.0,0.1007
519.0,0.1048
520.0,0.1078
521.0,0.1079
522.0,0.1072
523.0,0.1044
524.0,0.1073
525.0,0.1076
526.0,0.102
527.0,0.09521
528.0,0.09979
529.0,0.1043
530.0,0.102
531.0,0.1027
532.0,0.09847
533.0,0.09491
534.0,0.09706
535.0,0.09855
536.0,0.09881
537.0,0.09428
538.0,0.09528
539.0,0.09386
540.0,0.08937
541.0,0.08927
542.0,0.09133
543.0,0.08969
544.0,0.09062
545.0,0.08977
546.0,0.0895
547.0,0.08883
548.0,0.08715
549.0,0.08683
550.0,0.08726
551.0,0.08559
552.0,0.08558
553.0,0.08345
554.0,0.08484
555.0,0.0844
556.0,0.08267
557.0,0.07947
558.0,0.07822
559.0,0.07612
560.0,0.07644
561.0,0.07679
562.0,0.0756
563.0,0.07704
564.0,0.07438
565.0,0.07319
566.0,0.07157
567.0,0.07237
568.0,0.07116
569.0,0.06889
570.0,0.0684
571.0,0.06753
572.0,0.06859
573.0,0.06886
574.0,0.06823
575.0,0.06654
576.0,0.06555
577.0,0.06589
578.0,0.06457
579.0,0.06452
580.0,0.06545
581.0,0.06547
582.0,0.06637
583.0,0.06623
584.0,0.06649
585.0,0.06451
586.0,0.06278
587.0,0.06371
588.0,0.06169
589.0,0.05411
590.0,0.05627
591.0,0.05929
592.0,0.05807
593.0,0.05859
594.0,0.05771
595.0,0.05581
596.0,0.05778
597.0,0.05672
598.0,0.05619
599.0,0.05586
600.0,0.0556
601.0,0.05483
602.0,0.05414
603.0,0.05472
604.0,0.05532
605.0,0.05476
606.0,0.05429
607.0,0.05459
608.0,0.05375
609.0,0.0536
610.0,0.053
611.0,0.05306
612.0,0.05268
613.0,0.05179
614.0,0.05085
615.0,0.05174
616.0,0.04982
617.0,0.0495
618.0,0.05118
619.0,0.05043
620.0,0.0505
621.0,0.0503
622.0,0.04944
623.0,0.04842
624.0,0.04735
625.0,0.04704
626.0,0.04752
627.0,0.04778
628.0,0.04397
629.0,0.04603
630.0,0.04473
631.0,0.04566
632.0,0.04493
633.0,0.04616
634.0,0.04557
635.0,0.04608
636.0,0.04528
637.0,0.04583
638.0,0.0461
639.0,0.04539
640.0,0.04476
641.0,0.04453
642.0,0.04416
643.0,0.04457
644.0,0.04425
645.0,0.0441
646.0,0.0428
647.0,0.04199
648.0,0.0418
649.0,0.04079
650.0,0.04094
651.0,0.04253
652.0,0.04039
653.0,0.04158
654.0,0.04094
655.0,0.03913
656.0,0.03457
657.0,0.03536
658.0,0.0395
659.0,0.03963
660.0,0.03961
661.0,0.03969
662.0,0.03957
663.0,0.03864
664.0,0.03896
665.0,0.03884
666.0,0.0387
667.0,0.03851
668.0,0.03837
669.0,0.03879
670.0,0.03844
671.0,0.03827
672.0,0.03781
673.0,0.03825
674.0,0.03792
675.0,0.03741
676.0,0.0375
677.0,0.03697
678.0,0.03693
679.0,0.03618
680.0,0.0363
681.0,0.0359
682.0,0.03568
683.0,0.03544
684.0,0.03509
685.0,0.03522
686.0,0.03484
687.0,0.02162
688.0,0.02582
689.0,0.02581
690.0,0.02716
691.0,0.02872
692.0,0.02987
693.0,0.02946
694.0,0.02904
695.0,0.03029
696.0,0.03018
697.0,0.03221
698.0,0.03157
699.0,0.03048
700.0,0.02996
701.0,0.02949
702.0,0.02963
703.0,0.02954
704.0,0.03044
705.0,0.03033
706.0,0.03021
707.0,0.03011
708.0,0.03003
709.0,0.02998
710.0,0.0298
711.0,0.02968
712.0,0.02951
713.0,0.02904
714.0,0.029
715.0,0.02787
716.0,0.02775
717.0,0.02336
718.0,0.02118
719.0,0.01915
720.0,0.02002
721.0,0.02236
722.0,0.02599
723.0,0.02379
724.0,0.02104
725.0,0.02056
726.0,0.02154
727.0,0.02179
728.0,0.02023
729.0,0.02107
730.0,0.02227
731.0,0.02111
732.0,0.02271
733.0,0.02415
734.0,0.02466
735.0,0.024
736.0,0.02387
737.0,0.02384
738.0,0.02423
739.0,0.02363
740.0,0.02417
741.0,0.02384
742.0,0.02377
743.0,0.02425
744.0,0.02406
745.0,0.02396
746.0,0.02396
747.0,0.0239
748.0,0.02373
749.0,0.02334
750.0,0.02322
751.0,0.02289
752.0,0.02289
753.0,0.0229
754.0,0.02284
755.0,0.02261
756.0,0.0225
757.0,0.02244
758.0,0.02205
759.0,0.02142
760.0,0.002944
761.0,0.001516
762.0,0.009719
763.0,0.004523
764.0,0.006991
765.0,0.009571
766.0,0.0121
767.0,0.01571
768.0,0.01853
769.0,0.01895
770.0,0.01964
771.0,0.01976
772.0,0.01973
773.0,0.01976
774.0,0.01957
775.0,0.01933
776.0,0.01947
777.0,0.01912
778.0,0.0189
779.0,0.01882
780.0,0.01863
781.0,0.01856
782.0,0.0186
783.0,0.0182
784.0,0.01821
785.0,0.01799
786.0,0.01811
787.0,0.01766
788.0,0.01734
789.0,0.01724
790.0,0.01662
791.0,0.01677
792.0,0.01658
793.0,0.01622
794.0,0.01651
795.0,0.01669
796.0,0.016
797.0,0.01595
798.0,0.01645
799.0,0.01625
800.0,0.01586
801.0,0.01571
802.0,0.0156
803.0,0.0154
804.0,0.01536
805.0,0.01526
806.0,0.01567
807.0,0.01539
808.0,0.01534
809.0,0.01494
810.0,0.01472
811.0,0.01463
812.0,0.01407
813.0,0.01366
814.0,0.01171
815.0,0.01158
816.0,0.01062
817.0,0.0108
818.0,0.01032
819.0,0.01171
820.0,0.01088
821.0,0.01302
822.0,0.01252
823.0,0.007974
824.0,0.01197
825.0,0.01254
826.0,0.01191
827.0,0.01264
828.0,0.01038
829.0,0.01171
830.0,0.01148
831.0,0.01148
832.0,0.01102
833.0,0.01186
834.0,0.01131
835.0,0.01256
836.0,0.01185
837.0,0.01249
838.0,0.012
839.0,0.0122
840.0,0.01243
841.0,0.01217
842.0,0.01217
843.0,0.01215
844.0,0.0119
845.0,0.01228
846.0,0.01217
847.0,0.0119
848.0,0.01176
849.0,0.01137
850.0,0.01085
851.0,0.01141
852.0,0.01128
853.0,0.01082
854.0,0.009291
855.0,0.01018
856.0,0.01107
857.0,0.01129
858.0,0.01116
859.0,0.01113
860.0,0.0111
861.0,0.01099
862.0,0.01113
863.0,0.01135
864.0,0.01074
865.0,0.0106
866.0,0.009496
867.0,0.009869
868.0,0.0107
869.0,0.01043
870.0,0.01068
871.0,0.0105
872.0,0.01042
873.0,0.01035
874.0,0.01018
875.0,0.009931
876.0,0.009989
877.0,0.01005
878.0,0.01011
879.0,0.009915
880.0,0.009662
881.0,0.009471
882.0,0.009636
883.0,0.009633
884.0,0.009543
885.0,0.009571
886.0,0.00906
887.0,0.009138
888.0,0.009221
889.0,0.009309
890.0,0.009163
891.0,0.009125
892.0,0.008796
893.0,0.008439
894.0,0.00803
895.0,0.007459
896.0,0.006911
897.0,0.005763
898.0,0.006354
899.0,0.004606
900.0,0.006523
901.0,0.004853
902.0,0.005844
903.0,0.005838
904.0,0.007644
905.0,0.007302
906.0,0.006754
907.0,0.005247
908.0,0.005367
909.0,0.005895
910.0,0.005045
911.0,0.005438
912.0,0.005704
913.0,0.005057
914.0,0.005003
915.0,0.005464
916.0,0.004496
917.0,0.005928
918.0,0.004591
919.0,0.006009
920.0,0.006096
921.0,0.006379
922.0,0.005556
923.0,0.006115
924.0,0.005658
925.0,0.005495
926.0,0.005548
927.0,0.006299
928.0,0.004313
929.0,0.003859
930.0,0.002901
931.0,0.002725
932.0,0.001863
933.0,0.001469
934.0,0.0007494
935.0,0.001505
936.0,0.0008901
937.0,0.0008975
938.0,0.001119
939.0,0.00255
940.0,0.003147
941.0,0.00227
942.0,0.00267
943.0,0.001653
944.0,0.001765
945.0,0.002308
946.0,0.001076
947.0,0.002291
948.0,0.001624
949.0,0.003177
950.0,0.0007506
951.0,0.003108
952.0,0.001522
953.0,0.002032
954.0,0.002576
955.0,0.002054
956.0,0.001994
957.0,0.001494
958.0,0.002955
959.0,0.002239
960.0,0.002535
961.0,0.002901
962.0,0.002715
963.0,0.003203
964.0,0.002882
965.0,0.003167
966.0,0.003152
967.0,0.003118
968.0,0.004452
969.0,0.004649
970.0,0.004187
971.0,0.004928
972.0,0.00465
973.0,0.003904
974.0,0.003664
975.0,0.00382
976.0,0.003563
977.0,0.004173
978.0,0.003895
979.0,0.004111
980.0,0.003803
981.0,0.004715
982.0,0.004442
983.0,0.004216
984.0,0.004858
985.0,0.004377
986.0,0.004937
987.0,0.004789
988.0,0.004761
989.0,0.004884
990.0,0.004698
991.0,0.004851
992.0,0.004864
993.0,0.004708
994.0,0.004832
995.0,0.004813
996.0,0.004768
997.0,0.00476
998.0,0.004718
999.0,0.004686
1000.0,0.004628
1001.0,0.004677
1002.0,0.004498
1003.0,0.004557
1004.0,0.00442
1005.0,0.004253
1006.0,0.004395
1007.0,0.004474
1008.0,0.004427
1009.0,0.004381
1010.0,0.004343
1011.0,0.004386
1012.0,0.004324
1013.0,0.004344
1014.0,0.004298
1015.0,0.004253
1016.0,0.004216
1017.0,0.004209
1018.0,0.004181
1019.0,0.004064
1020.0,0.004125
1021.0,0.004105
1022.0,0.004053
1023.0,0.00408
1024.0,0.004001
1025.0,0.004052
1026.0,0.004016
1027.0,0.003992
1028.0,0.003968
1029.0,0.003906
1030.0,0.003922
1031.0,0.00389
1032.0,0.003865
1033.0,0.003792
1034.0,0.003777
1035.0,0.003775
1036.0,0.003778
1037.0,0.003703
1038.0,0.003706
1039.0,0.00369
1040.0,0.003661
1041.0,0.003661
1042.0,0.003621
1043.0,0.003596
1044.0,0.003595
1045.0,0.003533
1046.0,0.003479
1047.0,0.003497
1048.0,0.003503
1049.0,0.003477
1050.0,0.003448
1051.0,0.003429
1052.0,0.003401
1053.0,0.003361
1054.0,0.003356
1055.0,0.003344
1056.0,0.003318
1057.0,0.003294
1058.0,0.0032
1059.0,0.003191
1060.0,0.003174
1061.0,0.003157
1062.0,0.00316
1063.0,0.003117
1064.0,0.003143
1065.0,0.003105
1066.0,0.003036
1067.0,0.003062
1068.0,0.002982
1069.0,0.002881
1070.0,0.002965
1071.0,0.003009
1072.0,0.002956
1073.0,0.002905
1074.0,0.00298
1075.0,0.002794
1076.0,0.002954
1077.0,0.002875
1078.0,0.002805
1079.0,0.002879
1080.0,0.002796
1081.0,0.002689
1082.0,0.002744
1083.0,0.002747
1084.0,0.002644
1085.0,0.002758
1086.0,0.002459
1087.0,0.002568
1088.0,0.00269
1089.0,0.002574
1090.0,0.002487
1091.0,0.002644
1092.0,0.002634
1093.0,0.002149
1094.0,0.002385
1095.0,0.002239
1096.0,0.002114
1097.0,0.00253
1098.0,0.00206
1099.0,0.002153
1100.0,0.001958
1101.0,0.001987
1102.0,0.001874
1103.0,0.001837
1104.0,0.001835
1105.0,0.002051
1106.0,0.001463
1107.0,0.001912
1108.0,0.001552
1109.0,0.001554
1110.0,0.001868
1111.0,0.001168
1112.0,0.001529
1113.0,0.0008889
1114.0,0.001004
1115.0,0.0008111
1116.0,0.0006176
1117.0,0.0002007
1118.0,0.0006768
1119.0,0.000307
1120.0,0.0003902
1121.0,0.0005329
1122.0,0.000204
1123.0,0.0003466
1124.0,0.0002883
1125.0,0.0003846
1126.0,0.0001199
1127.0,0.0004348
1128.0,0.0002429
1129.0,0.0002588
1130.0,0.000164
1131.0,0.0008895
1132.0,0.0006728
1133.0,0.0003967
1134.0,8.98e-05
1135.0,3.29e-05
1136.0,0.0003193
1137.0,0.0008497
1138.0,0.0005739
1139.0,0.0009194
1140.0,0.0007392
1141.0,0.0005376
1142.0,0.0006296
1143.0,0.000938
1144.0,0.0002854
1145.0,0.0003662
1146.0,0.0003955
1147.0,0.0001249
1148.0,0.0007838
1149.0,0.0006012
1150.0,0.0003035
1151.0,0.000544
1152.0,0.0006911
1153.0,0.0006763
1154.0,0.0003429
1155.0,0.0009129
1156.0,0.0008035
1157.0,0.0009216
1158.0,0.0009072
1159.0,0.0009947
1160.0,0.0008237
1161.0,0.001058
1162.0,0.001055
1163.0,0.001513
1164.0,0.001255
1165.0,0.001159
1166.0,0.001155
1167.0,0.001273
1168.0,0.001282
1169.0,0.00132
1170.0,0.001453
1171.0,0.001405
1172.0,0.001435
1173.0,0.001434
1174.0,0.000955
1175.0,0.001398
1176.0,0.001561
1177.0,0.001476
1178.0,0.001047
1179.0,0.001559
1180.0,0.00135
1181.0,0.001397
1182.0,0.0008978
1183.0,0.001374
1184.0,0.00126
1185.0,0.001199
1186.0,0.00147
1187.0,0.00138
1188.0,0.0008985
1189.0,0.00127
1190.0,0.001416
1191.0,0.001318
1192.0,0.00143
1193.0,0.001354
1194.0,0.0014
1195.0,0.001305
1196.0,0.001242
1197.0,0.0014
1198.0,0.001258
1199.0,0.001031
1200.0,0.00131
1201.0,0.001248
1202.0,0.00124
1203.0,0.001231
1204.0,0.001043
1205.0,0.001268
1206.0,0.001426
1207.0,0.001219
1208.0,0.001207
1209.0,0.001229
1210.0,0.001287
1211.0,0.001207
1212.0,0.001178
1213.0,0.001343
1214.0,0.001206
1215.0,0.001175
1216.0,0.001326
1217.0,0.00128
1218.0,0.001306
1219.0,0.001283
1220.0,0.0013
1221.0,0.001313
1222.0,0.001269
1223.0,0.001251
1224.0,0.001235
1225.0,0.001288
1226.0,0.001296
1227.0,0.001174
1228.0,0.001297
1229.0,0.001284
1230.0,0.001254
1231.0,0.001296
1232.0,0.001284
1233.0,0.001223
1234.0,0.001285
1235.0,0.001271
1236.0,0.001278
1237.0,0.001251
1238.0,0.001265
1239.0,0.001245
1240.0,0.001246
1241.0,0.001233
1242.0,0.001229
1243.0,0.001215
1244.0,0.001219
1245.0,0.001221
1246.0,0.00121
1247.0,0.0012
1248.0,0.001194
1249.0,0.001195
1250.0,0.001183
1251.0,0.001163
1252.0,0.001161
1253.0,0.001144
1254.0,0.001126
1255.0,0.001148
1256.0,0.001105
1257.0,0.001094
1258.0,0.001117
1259.0,0.001061
1260.0,0.001065
1261.0,0.0009883
1262.0,0.0009487
1263.0,0.0009474
1264.0,0.0008563
1265.0,0.0009363
1266.0,0.0008889
1267.0,0.0009082
1268.0,0.0008484
1269.0,0.0004719
1270.0,0.000895
1271.0,0.0009595
1272.0,0.0009612
1273.0,0.0009465
1274.0,0.0009484
1275.0,0.0009618
1276.0,0.0009707
1277.0,0.0009767
1278.0,0.0009982
1279.0,0.0009855
1280.0,0.0009702
1281.0,0.0009255
1282.0,0.0008932
1283.0,0.0009581
1284.0,0.000977
1285.0,0.0009811
1286.0,0.0009937
1287.0,0.0009707
1288.0,0.0009686
1289.0,0.0009266
1290.0,0.0009545
1291.0,0.0009661
1292.0,0.0008889
1293.0,0.0009371
1294.0,0.0009266
1295.0,0.000916
1296.0,0.0008617
1297.0,0.0008039
1298.0,0.0008788
1299.0,0.0009222
1300.0,0.0007489
1301.0,0.0007756
1302.0,0.0008662
1303.0,0.0007338
1304.0,0.0006014
1305.0,0.0008371
1306.0,0.000834
1307.0,0.0006132
1308.0,0.0007248
1309.0,0.0008182
1310.0,0.0005943
1311.0,0.0006829
1312.0,0.000661
1313.0,0.0006417
1314.0,0.0005599
1315.0,0.0005507
1316.0,0.0006601
1317.0,0.0006169
1318.0,0.0006807
1319.0,0.0005023
1320.0,0.000485
1321.0,0.0005789
1322.0,0.0005819
1323.0,0.0004133
1324.0,0.0004844
1325.0,0.0006307
1326.0,0.0005236
1327.0,0.0004934
1328.0,0.0004139
1329.0,0.0002946
1330.0,0.0003965
1331.0,0.0002204
1332.0,0.0002294
1333.0,0.0003303
1334.0,0.000277
1335.0,0.000397
1336.0,0.0003009
1337.0,0.0002606
1338.0,0.0002835
1339.0,0.0002824
1340.0,0.0002743
1341.0,0.0002627
1342.0,0.0002769
1343.0,0.0001744
1344.0,0.0001007
1345.0,0.0001486
1346.0,6.825e-05
1347.0,6.888e-05
1348.0,4.107e-06
1349.0,1.498e-05
1350.0,1.559e-05
1351.0,3.678e-06
1352.0,9.819e-07
1353.0,4.984e-08
1354.0,1.714e-07
1355.0,1.379e-09
1356.0,2.413e-08
1357.0,3.667e-08
1358.0,1.619e-09
1359.0,2.039e-10
1360.0,7.369e-10
1361.0,8.243e-13
