interpolation:linear
wavelength,value
280.0,9.531999999999999e-23
280.5,3.178e-21
281.0,1.714e-20
281.5,5.008e-19
282.0,5.296e-19
282.5,1.281e-18
283.0,4.016e-18
283.5,6.536e-18
284.0,1.078e-16
284.5,3.158e-16
285.0,5.792e-16
285.5,2.771e-15
286.0,1.111e-14
286.5,4.96e-14
287.0,1.421e-13
287.5,5.481e-13
288.0,1.926e-12
288.5,5.6e-12
289.0,1.458e-11
289.5,4.344e-11
290.0,1.199e-10
290.5,2.44e-10
291.0,5.235e-10
291.5,1.504e-09
292.0,3.047e-09
292.5,4.253e-09
293.0,9.066e-09
293.5,2.191e-08
294.0,3.418e-08
294.5,4.482e-08
295.0,7.563e-08
295.5,1.278e-07
296.0,2.433e-07
296.5,3.351e-07
297.0,4.473e-07
297.5,1.174e-06
298.0,1.811e-06
298.5,1.788e-06
299.0,3.868e-06
299.5,6.189e-06
300.0,6.65e-06
300.5,9.387e-06
301.0,1.624e-05
301.5,2.472e-05
302.0,2.061e-05
302.5,4e-05
303.0,7.168e-05
303.5,9.089e-05
304.0,8.757e-05
304.5,0.0001401
305.0,0.0002354
305.5,0.0002883
306.0,0.0002863
306.5,0.0003726
307.0,0.0006114
307.5,0.0008976
308.0,0.0009626
308.5,0.001194
309.0,0.001416
309.5,0.001905
310.0,0.00206
310.5,0.003459
311.0,0.004608
311.5,0.004561
312.0,0.005195
312.5,0.006888
313.0,0.007809
313.5,0.007259
314.0,0.01006
314.5,0.01024
315.0,0.01377
315.5,0.01075
316.0,0.01049
316.5,0.01659
317.0,0.02053
317.5,0.02074
318.0,0.01727
318.5,0.02435
319.0,0.03078
319.5,0.02257
320.0,0.0268
320.5,0.0382
321.0,0.03827
321.5,0.03707
322.0,0.03471
322.5,0.03034
323.0,0.0328
323.5,0.0443
324.0,0.05236
324.5,0.05122
325.0,0.04161
325.5,0.05721
326.0,0.07252
326.5,0.07592
327.0,0.07426
327.5,0.07008
328.0,0.05863
328.5,0.06622
329.0,0.08399
329.5,0.09695
330.0,0.09621
330.5,0.07342
331.0,0.07353
331.5,0.07718
332.0,0.0875
332.5,0.08842
333.0,0.08687
333.5,0.07563
334.0,0.07689
334.5,0.09238
335.0,0.08884
335.5,0.1048
336.0,0.07243
336.5,0.08264
337.0,0.06648
337.5,0.08201
338.0,0.08281
338.5,0.09694
339.0,0.0959
339.5,0.09204
340.0,0.1064
340.5,0.09613
341.0,0.09469
341.5,0.08702
342.0,0.1039
342.5,0.09715
343.0,0.1065
343.5,0.09998
344.0,0.07296
344.5,0.07429
345.0,0.09837
345.5,0.1004
346.0,0.08528
346.5,0.09647
347.0,0.1032
347.5,0.08327
348.0,0.09495
348.5,0.09487
349.0,0.08792
349.5,0.08688
350.0,0.1073
350.5,0.113
351.0,0.1006
351.5,0.09739
352.0,0.1046
352.5,0.08157
353.0,0.1027
353.5,0.1096
354.0,0.1137
354.5,0.1151
355.0,0.1144
355.5,0.1032
356.0,0.1078
356.5,0.09192
357.0,0.0758
357.5,0.09264
358.0,0.0733
358.5,0.06253
359.0,0.08727
359.5,0.1109
360.0,0.1174
360.5,0.09368
361.0,0.08527
361.5,0.09803
362.0,0.08463
362.5,0.1169
363.0,0.1048
363.5,0.09637
364.0,0.1176
364.5,0.1004
365.0,0.102
365.5,0.1278
366.0,0.1351
366.5,0.1267
367.0,0.1232
367.5,0.1276
368.0,0.1114
368.5,0.1122
369.0,0.1209
369.5,0.1287
370.0,0.1369
370.5,0.106
371.0,0.1131
371.5,0.1412
372.0,0.09353
372.5,0.1119
373.0,0.1136
373.5,0.07377
374.0,0.107
374.5,0.08841
375.0,0.08577
375.5,0.1278
376.0,0.1057
376.5,0.1093
377.0,0.1155
377.5,0.1349
378.0,0.1459
378.5,0.1376
379.0,0.1133
379.5,0.1032
380.0,0.1071
380.5,0.1294
381.0,0.1294
381.5,0.1024
382.0,0.09071
382.5,0.07716
383.0,0.07128
383.5,0.0685
384.0,0.0754
384.5,0.1107
385.0,0.1095
385.5,0.1018
386.0,0.08696
386.5,0.114
387.0,0.09449
387.5,0.1059
388.0,0.09754
388.5,0.0962
389.0,0.1036
389.5,0.1252
390.0,0.1254
390.5,0.1151
391.0,0.1352
391.5,0.1375
392.0,0.1156
392.5,0.1032
393.0,0.05731
393.5,0.04156
394.0,0.08439
394.5,0.107
395.0,0.1303
395.5,0.1321
396.0,0.1142
396.5,0.06662
397.0,0.04988
397.5,0.1012
398.0,0.1414
398.5,0.1458
399.0,0.1575
399.5,0.1566
400.0,0.1622
401.0,0.1596
402.0,0.1675
403.0,0.1584
404.0,0.1551
405.0,0.1544
406.0,0.1511
407.0,0.1478
408.0,0.1528
409.0,0.1627
410.0,0.1414
411.0,0.1524
412.0,0.1629
413.0,0.1581
414.0,0.1592
415.0,0.1587
416.0,0.1606
417.0,0.1558
418.0,0.1521
419.0,0.1533
420.0,0.1518
421.0,0.1579
422.0,0.1492
423.0,0.1448
424.0,0.1522
425.0,0.1511
426.0,0.1464
427.0,0.1429
428.0,0.1385
429.0,0.1305
430.0,0.1136
431.0,0.1119
432.0,0.1436
433.0,0.1435
434.0,0.1325
435.0,0.1376
436.0,0.1542
437.0,0.1513
438.0,0.1369
439.0,0.1406
440.0,0.1442
441.0,0.1484
442.0,0.1581
443.0,0.153
444.0,0.1555
445.0,0.1514
446.0,0.1438
447.0,0.1546
448.0,0.156
449.0,0.1556
450.0,0.1588
451.0,0.1637
452.0,0.1568
453.0,0.1467
454.0,0.1523
455.0,0.1522
456.0,0.1547
457.0,0.1561
458.0,0.1495
459.0,0.1476
460.0,0.1468
461.0,0.1491
462.0,0.1493
463.0,0.1476
464.0,0.1446
465.0,0.1422
466.0,0.1428
467.0,0.1393
468.0,0.1398
469.0,0.1395
470.0,0.1341
471.0,0.1332
472.0,0.1395
473.0,0.1369
474.0,0.1361
475.0,0.1362
476.0,0.131
477.0,0.1302
478.0,0.1326
479.0,0.1305
480.0,0.1296
481.0,0.1308
482.0,0.1305
483.0,0.1282
484.0,0.125
485.0,0.1187
486.0,0.1033
487.0,0.1077
488.0,0.1174
489.0,0.1169
490.0,0.1221
491.0,0.1191
492.0,0.1117
493.0,0.1147
494.0,0.1151
495.0,0.1153
496.0,0.1152
497.0,0.116
498.0,0.1096
499.0,0.1099
500.0,0.1055
501.0,0.1025
502.0,0.09987
503.0,0.1028
504.0,0.09911
505.0,0.1019
506.0,0.1045
507.0,0.09887
508.0,0.09534
509.0,0.09756
510.0,0.09657
511.0,0.09859
512.0,0.09897
513.0,0.09296
514.0,0.0916
515.0,0.08997
516.0,0.08906
517.0,0.07855
518.0,0.08197
519.0,0.08533
520.0,0.08772
521.0,0.0878
522.0,0.0871
523.0,0.08484
524.0,0.08703
525.0,0.08717
526.0,0.08246
527.0,0.07688
528.0,0.08046
529.0,0.08402
530.0,0.08208
531.0,0.08256
532.0,0.07907
533.0,0.0762
534.0,0.07794
535.0,0.07918
536.0,0.07944
537.0,0.07584
538.0,0.07667
539.0,0.07551
540.0,0.07186
541.0,0.07172
542.0,0.07332
543.0,0.07197
544.0,0.07265
545.0,0.07193
546.0,0.07168
547.0,0.07113
548.0,0.06979
549.0,0.06953
550.0,0.06987
551.0,0.06852
552.0,0.0685
553.0,0.06678
554.0,0.06786
555.0,0.06747
556.0,0.06605
557.0,0.06344
558.0,0.06237
559.0,0.06061
560.0,0.06079
561.0,0.06099
562.0,0.05996
563.0,0.06102
564.0,0.05886
565.0,0.05787
566.0,0.05655
567.0,0.05713
568.0,0.05612
569.0,0.05425
570.0,0.05384
571.0,0.05313
572.0,0.05391
573.0,0.0541
574.0,0.05359
575.0,0.05227
576.0,0.05152
577.0,0.05184
578.0,0.05085
579.0,0.05088
580.0,0.05171
581.0,0.0518
582.0,0.05259
583.0,0.05253
584.0,0.05278
585.0,0.05125
586.0,0.0499
587.0,0.05065
588.0,0.04899
589.0,0.04287
590.0,0.04458
591.0,0.04702
592.0,0.04599
593.0,0.04641
594.0,0.04565
595.0,0.04405
596.0,0.04564
597.0,0.04473
598.0,0.04429
599.0,0.04399
600.0,0.04379
601.0,0.04318
602.0,0.04264
603.0,0.04312
604.0,0.04362
605.0,0.04322
606.0,0.04291
607.0,0.04321
608.0,0.04262
609.0,0.04258
610.0,0.04217
611.0,0.04229
612.0,0.04206
613.0,0.04141
614.0,0.04074
615.0,0.04151
616.0,0.04003
617.0,0.03983
618.0,0.04123
619.0,0.04067
620.0,0.04077
621.0,0.04063
622.0,0.03997
623.0,0.03917
624.0,0.03835
625.0,0.03812
626.0,0.03853
627.0,0.03876
628.0,0.03547
629.0,0.03733
630.0,0.0363
631.0,0.03717
632.0,0.03663
633.0,0.0377
634.0,0.03727
635.0,0.03775
636.0,0.03715
637.0,0.03766
638.0,0.03794
639.0,0.03741
640.0,0.03695
641.0,0.03681
642.0,0.03655
643.0,0.03693
644.0,0.03671
645.0,0.0366
646.0,0.03553
647.0,0.03482
648.0,0.03471
649.0,0.03389
650.0,0.03412
651.0,0.03549
652.0,0.03366
653.0,0.03475
654.0,0.03424
655.0,0.03272
656.0,0.02896
657.0,0.02965
658.0,0.03317
659.0,0.0333
660.0,0.03332
661.0,0.03342
662.0,0.03333
663.0,0.03257
664.0,0.03288
665.0,0.03282
666.0,0.03274
667.0,0.03262
668.0,0.03254
669.0,0.03293
670.0,0.03266
671.0,0.03254
672.0,0.03217
673.0,0.03256
674.0,0.03232
675.0,0.0319
676.0,0.032
677.0,0.03158
678.0,0.03156
679.0,0.03094
680.0,0.03106
681.0,0.03073
682.0,0.03056
683.0,0.03037
684.0,0.03007
685.0,0.0302
686.0,0.02989
687.0,0.01802
688.0,0.02166
689.0,0.02167
690.0,0.0229
691.0,0.02435
692.0,0.02545
693.0,0.02511
694.0,0.02483
695.0,0.026
696.0,0.02594
697.0,0.02777
698.0,0.02723
699.0,0.02623
700.0,0.0258
701.0,0.02536
702.0,0.02551
703.0,0.02547
704.0,0.02629
705.0,0.02621
706.0,0.02612
707.0,0.02605
708.0,0.02598
709.0,0.02598
710.0,0.02581
711.0,0.02572
712.0,0.02558
713.0,0.02517
714.0,0.02514
715.0,0.02414
716.0,0.02403
717.0,0.02004
718.0,0.01821
719.0,0.0165
720.0,0.0172
721.0,0.01929
722.0,0.0225
723.0,0.02058
724.0,0.01816
725.0,0.01774
726.0,0.01856
727.0,0.01885
728.0,0.01745
729.0,0.01824
730.0,0.01923
731.0,0.01824
732.0,0.01969
733.0,0.02099
734.0,0.02146
735.0,0.02088
736.0,0.02075
737.0,0.02074
738.0,0.02114
739.0,0.02063
740.0,0.02112
741.0,0.02084
742.0,0.02079
743.0,0.02122
744.0,0.02106
745.0,0.02098
746.0,0.02098
747.0,0.02093
748.0,0.02078
749.0,0.02045
750.0,0.02036
751.0,0.02007
752.0,0.02008
753.0,0.0201
754.0,0.02006
755.0,0.01987
756.0,0.01978
757.0,0.01972
758.0,0.01939
759.0,0.01879
760.0,0.00263
761.0,0.001391
762.0,0.008254
763.0,0.003957
764.0,0.005995
765.0,0.008132
766.0,0.01029
767.0,0.01349
768.0,0.01613
769.0,0.01655
770.0,0.01723
771.0,0.01738
772.0,0.01736
773.0,0.01739
774.0,0.01722
775.0,0.017
776.0,0.01713
777.0,0.01681
778.0,0.01662
779.0,0.01655
780.0,0.01638
781.0,0.01633
782.0,0.01637
783.0,0.01602
784.0,0.01604
785.0,0.01585
786.0,0.01596
787.0,0.01554
788.0,0.01524
789.0,0.01517
790.0,0.0146
791.0,0.01476
792.0,0.0146
793.0,0.01429
794.0,0.01458
795.0,0.01473
796.0,0.01407
797.0,0.01402
798.0,0.01451
799.0,0.01433
800.0,0.01398
801.0,0.01384
802.0,0.01373
803.0,0.01355
804.0,0.01352
805.0,0.01345
806.0,0.01383
807.0,0.01358
808.0,0.01353
809.0,0.01316
810.0,0.01295
811.0,0.01285
812.0,0.01231
813.0,0.01196
814.0,0.01021
815.0,0.01011
816.0,0.009281
817.0,0.009429
818.0,0.008994
819.0,0.01023
820.0,0.009512
821.0,0.01143
822.0,0.011
823.0,0.006968
824.0,0.01049
825.0,0.01104
826.0,0.01047
827.0,0.01113
828.0,0.009088
829.0,0.0103
830.0,0.01011
831.0,0.0101
832.0,0.009692
833.0,0.01044
834.0,0.009941
835.0,0.0111
836.0,0.01042
837.0,0.01103
838.0,0.01057
839.0,0.01078
840.0,0.01098
841.0,0.01075
842.0,0.01076
843.0,0.01076
844.0,0.01053
845.0,0.01087
846.0,0.01079
847.0,0.01055
848.0,0.01041
849.0,0.01006
850.0,0.009597
851.0,0.01008
852.0,0.009972
853.0,0.009569
854.0,0.008211
855.0,0.009006
856.0,0.009794
857.0,0.009991
858.0,0.009874
859.0,0.009852
860.0,0.009835
861.0,0.009743
862.0,0.009865
863.0,0.01006
864.0,0.009526
865.0,0.009407
866.0,0.008426
867.0,0.008759
868.0,0.009494
869.0,0.00926
870.0,0.009487
871.0,0.009319
872.0,0.009249
873.0,0.009193
874.0,0.009044
875.0,0.008821
876.0,0.008872
877.0,0.008925
878.0,0.00898
879.0,0.008805
880.0,0.00858
881.0,0.008406
882.0,0.008549
883.0,0.00855
884.0,0.008468
885.0,0.008492
886.0,0.008025
887.0,0.008104
888.0,0.008173
889.0,0.008259
890.0,0.008117
891.0,0.00809
892.0,0.007782
893.0,0.007457
894.0,0.007066
895.0,0.006532
896.0,0.006061
897.0,0.005044
898.0,0.005556
899.0,0.004037
900.0,0.005719
901.0,0.004234
902.0,0.005114
903.0,0.005095
904.0,0.006723
905.0,0.00642
906.0,0.005935
907.0,0.004584
908.0,0.0047
909.0,0.00516
910.0,0.004405
911.0,0.004773
912.0,0.004989
913.0,0.004413
914.0,0.004375
915.0,0.00475
916.0,0.003938
917.0,0.005171
918.0,0.00401
919.0,0.005257
920.0,0.005372
921.0,0.005597
922.0,0.004865
923.0,0.005371
924.0,0.004934
925.0,0.004801
926.0,0.004832
927.0,0.005495
928.0,0.003736
929.0,0.003339
930.0,0.002516
931.0,0.002365
932.0,0.001628
933.0,0.001294
934.0,0.0006761
935.0,0.001325
936.0,0.0007974
937.0,0.0008041
938.0,0.0009943
939.0,0.002211
940.0,0.002718
941.0,0.001968
942.0,0.002305
943.0,0.001448
944.0,0.001551
945.0,0.002004
946.0,0.0009553
947.0,0.001986
948.0,0.001429
949.0,0.002731
950.0,0.0006756
951.0,0.002672
952.0,0.001337
953.0,0.00177
954.0,0.002229
955.0,0.001786
956.0,0.001763
957.0,0.001312
958.0,0.002577
959.0,0.001954
960.0,0.002199
961.0,0.002521
962.0,0.002366
963.0,0.00279
964.0,0.002516
965.0,0.002754
966.0,0.002743
967.0,0.00271
968.0,0.003915
969.0,0.004058
970.0,0.003664
971.0,0.004334
972.0,0.004085
973.0,0.003406
974.0,0.003202
975.0,0.003344
976.0,0.003101
977.0,0.003667
978.0,0.003407
979.0,0.003597
980.0,0.003334
981.0,0.004147
982.0,0.003897
983.0,0.003695
984.0,0.00429
985.0,0.003835
986.0,0.004372
987.0,0.004231
988.0,0.004207
989.0,0.004333
990.0,0.004148
991.0,0.004298
992.0,0.004313
993.0,0.004163
994.0,0.004287
995.0,0.004273
996.0,0.004232
997.0,0.004226
998.0,0.004189
999.0,0.00416
1000.0,0.004106
1001.0,0.004153
1002.0,0.003979
1003.0,0.004046
1004.0,0.00392
1005.0,0.003778
1006.0,0.003902
1007.0,0.003973
1008.0,0.003929
1009.0,0.003885
1010.0,0.00385
1011.0,0.003895
1012.0,0.003838
1013.0,0.003859
1014.0,0.003818
1015.0,0.003777
1016.0,0.003745
1017.0,0.003738
1018.0,0.003715
1019.0,0.003605
1020.0,0.003664
1021.0,0.003648
1022.0,0.003599
1023.0,0.003623
1024.0,0.003547
1025.0,0.0036
1026.0,0.003566
1027.0,0.003545
1028.0,0.003524
1029.0,0.003468
1030.0,0.003484
1031.0,0.003455
1032.0,0.003433
1033.0,0.003368
1034.0,0.003356
1035.0,0.003353
1036.0,0.003356
1037.0,0.00329
1038.0,0.003292
1039.0,0.003277
1040.0,0.003251
1041.0,0.00325
1042.0,0.003215
1043.0,0.003193
1044.0,0.003191
1045.0,0.003135
1046.0,0.003087
1047.0,0.003102
1048.0,0.003107
1049.0,0.003084
1050.0,0.003057
1051.0,0.00304
1052.0,0.003015
1053.0,0.002979
1054.0,0.002973
1055.0,0.002962
1056.0,0.002938
1057.0,0.002916
1058.0,0.002832
1059.0,0.002823
1060.0,0.002807
1061.0,0.002792
1062.0,0.002794
1063.0,0.002755
1064.0,0.002779
1065.0,0.002743
1066.0,0.002683
1067.0,0.002706
1068.0,0.002634
1069.0,0.002546
1070.0,0.002619
1071.0,0.002662
1072.0,0.002613
1073.0,0.002568
1074.0,0.002639
1075.0,0.002465
1076.0,0.002615
1077.0,0.002541
1078.0,0.002476
1079.0,0.002551
1080.0,0.002472
1081.0,0.002371
1082.0,0.002428
1083.0,0.002434
1084.0,0.002331
1085.0,0.002438
1086.0,0.002167
1087.0,0.002265
1088.0,0.002382
1089.0,0.002268
1090.0,0.002191
1091.0,0.002339
1092.0,0.002331
1093.0,0.001886
1094.0,0.002108
1095.0,0.00196
1096.0,0.001848
1097.0,0.002239
1098.0,0.001797
1099.0,0.001879
1100.0,0.001708
1101.0,0.001735
1102.0,0.001632
1103.0,0.001597
1104.0,0.001596
1105.0,0.001789
1106.0,0.001264
1107.0,0.001666
1108.0,0.001346
1109.0,0.001349
1110.0,0.001622
1111.0,0.001012
1112.0,0.001327
1113.0,0.0007734
1114.0,0.0008678
1115.0,0.000706
1116.0,0.0005397
1117.0,0.000183
1118.0,0.0005886
1119.0,0.0002746
1120.0,0.0003449
1121.0,0.0004643
1122.0,0.0001851
1123.0,0.0003079
1124.0,0.000258
1125.0,0.0003399
1126.0,0.0001109
1127.0,0.0003823
1128.0,0.0002188
1129.0,0.0002322
1130.0,0.0001502
1131.0,0.00076
1132.0,0.0005812
1133.0,0.0003491
1134.0,8.375e-05
1135.0,3.131e-05
1136.0,0.0002836
1137.0,0.0007249
1138.0,0.0004981
1139.0,0.0007919
1140.0,0.0006381
1141.0,0.000468
1142.0,0.0005452
1143.0,0.0008026
1144.0,0.0002549
1145.0,0.0003226
1146.0,0.0003471
1147.0,0.0001151
1148.0,0.000674
1149.0,0.0005212
1150.0,0.0002712
1151.0,0.0004724
1152.0,0.0005956
1153.0,0.0005866
1154.0,0.0003035
1155.0,0.000784
1156.0,0.0006913
1157.0,0.0007965
1158.0,0.0007841
1159.0,0.0008569
1160.0,0.000716
1161.0,0.0009181
1162.0,0.0009149
1163.0,0.001319
1164.0,0.001093
1165.0,0.001004
1166.0,0.001008
1167.0,0.001111
1168.0,0.001117
1169.0,0.001149
1170.0,0.001269
1171.0,0.001229
1172.0,0.001261
1173.0,0.001254
1174.0,0.0008335
1175.0,0.001228
1176.0,0.00138
1177.0,0.001298
1178.0,0.0009195
1179.0,0.001378
1180.0,0.001185
1181.0,0.001225
1182.0,0.0007862
1183.0,0.001206
1184.0,0.001104
1185.0,0.001048
1186.0,0.001294
1187.0,0.001211
1188.0,0.0007819
1189.0,0.001115
1190.0,0.001248
1191.0,0.001153
1192.0,0.001262
1193.0,0.001192
1194.0,0.001234
1195.0,0.001144
1196.0,0.001087
1197.0,0.001234
1198.0,0.00111
1199.0,0.0009005
1200.0,0.001153
1201.0,0.001093
1202.0,0.001093
1203.0,0.001079
1204.0,0.0009146
1205.0,0.00112
1206.0,0.001262
1207.0,0.001071
1208.0,0.001064
1209.0,0.001083
1210.0,0.001136
1211.0,0.001063
1212.0,0.001028
1213.0,0.001183
1214.0,0.001055
1215.0,0.001028
1216.0,0.00117
1217.0,0.001127
1218.0,0.001153
1219.0,0.00113
1220.0,0.001147
1221.0,0.00116
1222.0,0.001121
1223.0,0.001104
1224.0,0.001086
1225.0,0.001137
1226.0,0.001147
1227.0,0.001032
1228.0,0.001149
1229.0,0.001136
1230.0,0.001109
1231.0,0.001151
1232.0,0.00114
1233.0,0.001079
1234.0,0.001142
1235.0,0.001129
1236.0,0.001136
1237.0,0.00111
1238.0,0.001125
1239.0,0.001106
1240.0,0.001108
1241.0,0.001095
1242.0,0.001093
1243.0,0.00108
1244.0,0.001083
1245.0,0.001085
1246.0,0.001075
1247.0,0.001066
1248.0,0.00106
1249.0,0.001062
1250.0,0.001051
1251.0,0.001031
1252.0,0.001032
1253.0,0.001014
1254.0,0.0009956
1255.0,0.001019
1256.0,0.0009758
1257.0,0.0009651
1258.0,0.000989
1259.0,0.0009331
1260.0,0.0009373
1261.0,0.0008622
1262.0,0.0008241
1263.0,0.0008227
1264.0,0.0007369
1265.0,0.000813
1266.0,0.0007677
1267.0,0.0007872
1268.0,0.000731
1269.0,0.0003984
1270.0,0.0007743
1271.0,0.0008374
1272.0,0.0008394
1273.0,0.0008258
1274.0,0.0008287
1275.0,0.0008416
1276.0,0.0008509
1277.0,0.0008585
1278.0,0.0008801
1279.0,0.0008692
1280.0,0.0008557
1281.0,0.0008178
1282.0,0.0007917
1283.0,0.0008487
1284.0,0.0008651
1285.0,0.0008692
1286.0,0.0008816
1287.0,0.0008589
1288.0,0.0008579
1289.0,0.0008161
1290.0,0.0008456
1291.0,0.0008569
1292.0,0.0007809
1293.0,0.0008296
1294.0,0.0008201
1295.0,0.0008073
1296.0,0.0007556
1297.0,0.0007031
1298.0,0.0007741
1299.0,0.0008171
1300.0,0.0006559
1301.0,0.0006797
1302.0,0.0007634
1303.0,0.0006433
1304.0,0.0005223
1305.0,0.0007379
1306.0,0.0007332
1307.0,0.0005351
1308.0,0.0006371
1309.0,0.000717
1310.0,0.0005177
1311.0,0.0005989
1312.0,0.0005792
1313.0,0.0005597
1314.0,0.0004877
1315.0,0.0004778
1316.0,0.0005772
1317.0,0.0005391
1318.0,0.0005968
1319.0,0.000436
1320.0,0.0004228
1321.0,0.0005047
1322.0,0.000505
1323.0,0.0003573
1324.0,0.0004214
1325.0,0.00055
1326.0,0.0004555
1327.0,0.0004287
1328.0,0.0003596
1329.0,0.0002554
1330.0,0.0003419
1331.0,0.0001922
1332.0,0.0001999
1333.0,0.0002833
1334.0,0.0002427
1335.0,0.000342
1336.0,0.0002603
1337.0,0.0002272
1338.0,0.0002455
1339.0,0.0002447
1340.0,0.0002391
1341.0,0.0002269
1342.0,0.000239
1343.0,0.0001525
1344.0,9.038e-05
1345.0,0.0001306
1346.0,6.22e-05
1347.0,6.284e-05
1348.0,3.999e-06
1349.0,1.436e-05
1350.0,1.489e-05
1351.0,3.593e-06
1352.0,9.663e-07
