interpolation:linear
wavelength,value
280.0,1.276e-21
280.5,4.0890000000000004e-20
281.0,2.172e-19
281.5,5.059e-19
282.0,9.809e-19
282.5,2.454e-18
283.0,7.754e-18
283.5,1.26e-17
284.0,2.039e-16
284.5,5.892e-16
285.0,1.196e-15
285.5,5.75e-15
286.0,2.295e-14
286.5,1.014e-13
287.0,2.875e-13
287.5,1.092e-12
288.0,3.282e-12
288.5,1.035e-11
289.0,2.831e-11
289.5,8.702e-11
290.0,2.44e-10
290.5,5.007e-10
291.0,1.081e-09
291.5,3.115e-09
292.0,6.343e-09
292.5,9.222e-09
293.0,2.064e-08
293.5,5.299e-08
294.0,8.577e-08
294.5,1.118e-07
295.0,1.944e-07
295.5,4.538e-07
296.0,8.165e-07
296.5,1.169e-06
297.0,1.617e-06
297.5,4.517e-06
298.0,7.419e-06
298.5,7.742e-06
299.0,1.778e-05
299.5,3.224e-05
300.0,3.758e-05
300.5,5.832e-05
301.0,0.0001209
301.5,0.0002255
302.0,0.0002126
302.5,0.0004175
303.0,0.0007558
303.5,0.0009596
304.0,0.0009142
304.5,0.001422
305.0,0.002293
305.5,0.00273
306.0,0.002678
306.5,0.003418
307.0,0.005377
307.5,0.007573
308.0,0.008054
308.5,0.009775
309.0,0.009934
309.5,0.01157
310.0,0.01171
310.5,0.01901
311.0,0.024
311.5,0.02319
312.0,0.0236
312.5,0.02906
313.0,0.03167
313.5,0.03043
314.0,0.03864
314.5,0.03508
315.0,0.04618
315.5,0.03799
316.0,0.03382
316.5,0.04942
317.0,0.06114
317.5,0.06304
318.0,0.04973
318.5,0.06335
319.0,0.07609
319.5,0.06034
320.0,0.07241
320.5,0.09313
321.0,0.08511
321.5,0.08159
322.0,0.08399
322.5,0.07294
323.0,0.0739
323.5,0.0924
324.0,0.1078
324.5,0.1084
325.0,0.09212
325.5,0.1202
326.0,0.1471
326.5,0.1484
327.0,0.1468
327.5,0.1407
328.0,0.1234
328.5,0.1312
329.0,0.1588
329.5,0.1805
330.0,0.1808
330.5,0.1426
331.0,0.1443
331.5,0.1474
332.0,0.1607
332.5,0.1594
333.0,0.1579
333.5,0.1411
334.0,0.1438
334.5,0.1672
335.0,0.1577
335.5,0.1859
336.0,0.1282
336.5,0.1473
337.0,0.1199
337.5,0.1483
338.0,0.1458
338.5,0.1695
339.0,0.1668
339.5,0.1602
340.0,0.1859
340.5,0.1672
341.0,0.1637
341.5,0.1491
342.0,0.1775
342.5,0.1654
343.0,0.1817
343.5,0.1709
344.0,0.1253
344.5,0.1273
345.0,0.1668
345.5,0.1694
346.0,0.1434
346.5,0.1617
347.0,0.1733
347.5,0.1398
348.0,0.1585
348.5,0.1577
349.0,0.1457
349.5,0.1439
350.0,0.1773
350.5,0.1864
351.0,0.1661
351.5,0.1614
352.0,0.1724
352.5,0.1339
353.0,0.168
353.5,0.179
354.0,0.1851
354.5,0.1871
355.0,0.1859
355.5,0.1673
356.0,0.1744
356.5,0.1484
357.0,0.1222
357.5,0.1491
358.0,0.1178
358.5,0.1003
359.0,0.1398
359.5,0.1776
360.0,0.1876
360.5,0.1494
361.0,0.1357
361.5,0.1557
362.0,0.1342
362.5,0.1851
363.0,0.1657
363.5,0.1521
364.0,0.1854
364.5,0.1579
365.0,0.1603
365.5,0.2004
366.0,0.2116
366.5,0.1982
367.0,0.1923
367.5,0.1989
368.0,0.1735
368.5,0.1744
369.0,0.1877
369.5,0.1994
370.0,0.2118
370.5,0.1638
371.0,0.1745
371.5,0.2175
372.0,0.1438
372.5,0.1719
373.0,0.1742
373.5,0.113
374.0,0.1636
374.5,0.135
375.0,0.1308
375.5,0.1946
376.0,0.1607
376.5,0.166
377.0,0.1751
377.5,0.2042
378.0,0.2205
378.5,0.2077
379.0,0.1707
379.5,0.1554
380.0,0.1609
380.5,0.1942
381.0,0.1939
381.5,0.1531
382.0,0.1355
382.5,0.1151
383.0,0.1062
383.5,0.1019
384.0,0.112
384.5,0.1641
385.0,0.1622
385.5,0.1505
386.0,0.1284
386.5,0.1681
387.0,0.1392
387.5,0.1558
388.0,0.1433
388.5,0.1411
389.0,0.1518
389.5,0.1831
390.0,0.1831
390.5,0.1679
391.0,0.1969
391.5,0.2001
392.0,0.1679
392.5,0.1498
393.0,0.08305
393.5,0.06015
394.0,0.122
394.5,0.1545
395.0,0.1879
395.5,0.1902
396.0,0.1643
396.5,0.09568
397.0,0.07154
397.5,0.145
398.0,0.2022
398.5,0.2083
399.0,0.2248
399.5,0.2232
400.0,0.2309
401.0,0.2269
402.0,0.2376
403.0,0.224
404.0,0.219
405.0,0.2173
406.0,0.2122
407.0,0.2072
408.0,0.2137
409.0,0.227
410.0,0.197
411.0,0.2118
412.0,0.2259
413.0,0.2187
414.0,0.2198
415.0,0.2187
416.0,0.2208
417.0,0.2138
418.0,0.2082
419.0,0.2094
420.0,0.2069
421.0,0.2148
422.0,0.2026
423.0,0.1963
424.0,0.206
425.0,0.204
426.0,0.1973
427.0,0.1922
428.0,0.1859
429.0,0.1749
430.0,0.1519
431.0,0.1494
432.0,0.1914
433.0,0.1909
434.0,0.1759
435.0,0.1824
436.0,0.2041
437.0,0.1999
438.0,0.1807
439.0,0.1855
440.0,0.1899
441.0,0.1952
442.0,0.2077
443.0,0.2008
444.0,0.2037
445.0,0.1979
446.0,0.1876
447.0,0.2013
448.0,0.2028
449.0,0.202
450.0,0.206
451.0,0.212
452.0,0.2028
453.0,0.1894
454.0,0.1963
455.0,0.1959
456.0,0.199
457.0,0.2006
458.0,0.1922
459.0,0.1896
460.0,0.1885
461.0,0.1914
462.0,0.1915
463.0,0.1889
464.0,0.1847
465.0,0.1812
466.0,0.1817
467.0,0.177
468.0,0.1775
469.0,0.177
470.0,0.17
471.0,0.1687
472.0,0.1765
473.0,0.1729
474.0,0.1718
475.0,0.1719
476.0,0.1653
477.0,0.1644
478.0,0.1674
479.0,0.1649
480.0,0.1638
481.0,0.1653
482.0,0.1649
483.0,0.1617
484.0,0.1574
485.0,0.149
486.0,0.1294
487.0,0.1347
488.0,0.1466
489.0,0.1459
490.0,0.1523
491.0,0.1485
492.0,0.1392
493.0,0.1427
494.0,0.1431
495.0,0.1432
496.0,0.143
497.0,0.144
498.0,0.1361
499.0,0.1366
500.0,0.1314
501.0,0.1278
502.0,0.1248
503.0,0.1287
504.0,0.1242
505.0,0.1277
506.0,0.1309
507.0,0.1237
508.0,0.1191
509.0,0.1217
510.0,0.1203
511.0,0.1228
512.0,0.1232
513.0,0.1157
514.0,0.114
515.0,0.112
516.0,0.1109
517.0,0.09785
518.0,0.1021
519.0,0.1063
520.0,0.1093
521.0,0.1095
522.0,0.1087
523.0,0.106
524.0,0.1089
525.0,0.1092
526.0,0.1035
527.0,0.09663
528.0,0.1013
529.0,0.1059
530.0,0.1036
531.0,0.1043
532.0,0.09999
533.0,0.09639
534.0,0.09857
535.0,0.1001
536.0,0.1003
537.0,0.09573
538.0,0.09675
539.0,0.09531
540.0,0.09075
541.0,0.09066
542.0,0.09275
543.0,0.09109
544.0,0.09205
545.0,0.09119
546.0,0.09092
547.0,0.09023
548.0,0.08853
549.0,0.08821
550.0,0.08865
551.0,0.08696
552.0,0.08694
553.0,0.08478
554.0,0.0862
555.0,0.08575
556.0,0.084
557.0,0.08076
558.0,0.07949
559.0,0.07737
560.0,0.0777
561.0,0.07807
562.0,0.07687
563.0,0.07834
564.0,0.07564
565.0,0.07444
566.0,0.0728
567.0,0.07361
568.0,0.07239
569.0,0.07009
570.0,0.0696
571.0,0.06871
572.0,0.0698
573.0,0.07008
574.0,0.06943
575.0,0.06772
576.0,0.0667
577.0,0.06704
578.0,0.06569
579.0,0.06564
580.0,0.06658
581.0,0.06659
582.0,0.0675
583.0,0.06735
584.0,0.06761
585.0,0.0656
586.0,0.06383
587.0,0.06478
588.0,0.06273
589.0,0.05504
590.0,0.05723
591.0,0.06031
592.0,0.05907
593.0,0.0596
594.0,0.05871
595.0,0.05679
596.0,0.05878
597.0,0.05771
598.0,0.05718
599.0,0.05684
600.0,0.05658
601.0,0.0558
602.0,0.05509
603.0,0.05568
604.0,0.05629
605.0,0.05572
606.0,0.05523
607.0,0.05554
608.0,0.05467
609.0,0.05451
610.0,0.05389
611.0,0.05394
612.0,0.05355
613.0,0.05264
614.0,0.05168
615.0,0.05258
616.0,0.05062
617.0,0.05029
618.0,0.05199
619.0,0.05123
620.0,0.0513
621.0,0.05109
622.0,0.05022
623.0,0.04918
624.0,0.04809
625.0,0.04777
626.0,0.04825
627.0,0.04852
628.0,0.04467
629.0,0.04674
630.0,0.04542
631.0,0.04635
632.0,0.04561
633.0,0.04685
634.0,0.04624
635.0,0.04675
636.0,0.04593
637.0,0.04649
638.0,0.04675
639.0,0.04603
640.0,0.04539
641.0,0.04515
642.0,0.04477
643.0,0.04519
644.0,0.04486
645.0,0.0447
646.0,0.04338
647.0,0.04256
648.0,0.04237
649.0,0.04135
650.0,0.04148
651.0,0.0431
652.0,0.04093
653.0,0.04212
654.0,0.04147
655.0,0.03964
656.0,0.03502
657.0,0.03581
658.0,0.04001
659.0,0.04013
660.0,0.04011
661.0,0.04019
662.0,0.04007
663.0,0.03912
664.0,0.03944
665.0,0.03931
666.0,0.03917
667.0,0.03898
668.0,0.03883
669.0,0.03926
670.0,0.0389
671.0,0.03873
672.0,0.03825
673.0,0.03869
674.0,0.03837
675.0,0.03784
676.0,0.03793
677.0,0.0374
678.0,0.03735
679.0,0.03659
680.0,0.03671
681.0,0.0363
682.0,0.03608
683.0,0.03584
684.0,0.03548
685.0,0.03561
686.0,0.03523
687.0,0.02193
688.0,0.02616
689.0,0.02615
690.0,0.0275
691.0,0.02908
692.0,0.03022
693.0,0.0298
694.0,0.02938
695.0,0.03063
696.0,0.03052
697.0,0.03256
698.0,0.03191
699.0,0.03081
700.0,0.03029
701.0,0.02981
702.0,0.02995
703.0,0.02986
704.0,0.03077
705.0,0.03066
706.0,0.03053
707.0,0.03043
708.0,0.03034
709.0,0.0303
710.0,0.03011
711.0,0.02999
712.0,0.02982
713.0,0.02935
714.0,0.0293
715.0,0.02817
716.0,0.02804
717.0,0.02364
718.0,0.02142
719.0,0.01937
720.0,0.02025
721.0,0.02261
722.0,0.02627
723.0,0.02405
724.0,0.02127
725.0,0.02079
726.0,0.02178
727.0,0.02203
728.0,0.02045
729.0,0.0213
730.0,0.02252
731.0,0.02134
732.0,0.02295
733.0,0.0244
734.0,0.02491
735.0,0.02425
736.0,0.02412
737.0,0.02409
738.0,0.02447
739.0,0.02386
740.0,0.02441
741.0,0.02407
742.0,0.024
743.0,0.02448
744.0,0.0243
745.0,0.02419
746.0,0.02419
747.0,0.02413
748.0,0.02396
749.0,0.02356
750.0,0.02345
751.0,0.02311
752.0,0.02311
753.0,0.02312
754.0,0.02306
755.0,0.02282
756.0,0.02272
757.0,0.02265
758.0,0.02226
759.0,0.02163
760.0,0.002982
761.0,0.001532
762.0,0.009856
763.0,0.004587
764.0,0.007092
765.0,0.009706
766.0,0.01226
767.0,0.0159
768.0,0.01872
769.0,0.01914
770.0,0.01983
771.0,0.01995
772.0,0.01991
773.0,0.01995
774.0,0.01975
775.0,0.01951
776.0,0.01966
777.0,0.0193
778.0,0.01908
779.0,0.019
780.0,0.01881
781.0,0.01874
782.0,0.01878
783.0,0.01837
784.0,0.01838
785.0,0.01816
786.0,0.01828
787.0,0.01783
788.0,0.01751
789.0,0.0174
790.0,0.01679
791.0,0.01693
792.0,0.01673
793.0,0.01637
794.0,0.01666
795.0,0.01685
796.0,0.01615
797.0,0.0161
798.0,0.0166
799.0,0.0164
800.0,0.01601
801.0,0.01586
802.0,0.01574
803.0,0.01554
804.0,0.0155
805.0,0.01541
806.0,0.01581
807.0,0.01553
808.0,0.01548
809.0,0.01508
810.0,0.01486
811.0,0.01477
812.0,0.01421
813.0,0.0138
814.0,0.01184
815.0,0.01171
816.0,0.01074
817.0,0.01092
818.0,0.01043
819.0,0.01183
820.0,0.011
821.0,0.01314
822.0,0.01265
823.0,0.00806
824.0,0.0121
825.0,0.01266
826.0,0.01203
827.0,0.01276
828.0,0.01048
829.0,0.01182
830.0,0.01159
831.0,0.01159
832.0,0.01113
833.0,0.01198
834.0,0.01142
835.0,0.01267
836.0,0.01197
837.0,0.0126
838.0,0.01212
839.0,0.01231
840.0,0.01254
841.0,0.01229
842.0,0.01229
843.0,0.01226
844.0,0.01201
845.0,0.01239
846.0,0.01228
847.0,0.01201
848.0,0.01187
849.0,0.01148
850.0,0.01095
851.0,0.01152
852.0,0.01139
853.0,0.01092
854.0,0.009377
855.0,0.01027
856.0,0.01118
857.0,0.01139
858.0,0.01126
859.0,0.01123
860.0,0.0112
861.0,0.01109
862.0,0.01123
863.0,0.01145
864.0,0.01084
865.0,0.0107
866.0,0.009581
867.0,0.009957
868.0,0.01079
869.0,0.01052
870.0,0.01078
871.0,0.01059
872.0,0.01051
873.0,0.01044
874.0,0.01027
875.0,0.01002
876.0,0.01008
877.0,0.01014
878.0,0.0102
879.0,0.01
880.0,0.009748
881.0,0.009556
882.0,0.009722
883.0,0.009719
884.0,0.009629
885.0,0.009657
886.0,0.009143
887.0,0.009221
888.0,0.009305
889.0,0.009393
890.0,0.009246
891.0,0.009207
892.0,0.008877
893.0,0.008518
894.0,0.008108
895.0,0.007535
896.0,0.006981
897.0,0.005824
898.0,0.00642
899.0,0.004655
900.0,0.006589
901.0,0.004906
902.0,0.005905
903.0,0.0059
904.0,0.007719
905.0,0.007374
906.0,0.006821
907.0,0.005303
908.0,0.005423
909.0,0.005956
910.0,0.005101
911.0,0.005495
912.0,0.005764
913.0,0.005113
914.0,0.005057
915.0,0.005525
916.0,0.004544
917.0,0.005992
918.0,0.004641
919.0,0.006072
920.0,0.006156
921.0,0.006443
922.0,0.005615
923.0,0.006176
924.0,0.005718
925.0,0.005553
926.0,0.005609
927.0,0.006365
928.0,0.004364
929.0,0.003906
930.0,0.002937
931.0,0.002758
932.0,0.001886
933.0,0.001486
934.0,0.0007578
935.0,0.001523
936.0,0.0008997
937.0,0.0009072
938.0,0.001132
939.0,0.002581
940.0,0.003185
941.0,0.002298
942.0,0.002704
943.0,0.001673
944.0,0.001784
945.0,0.002336
946.0,0.001088
947.0,0.00232
948.0,0.001642
949.0,0.003218
950.0,0.0007586
951.0,0.003148
952.0,0.00154
953.0,0.002056
954.0,0.002607
955.0,0.002079
956.0,0.002016
957.0,0.001512
958.0,0.002987
959.0,0.002265
960.0,0.002566
961.0,0.002935
962.0,0.002747
963.0,0.003239
964.0,0.002915
965.0,0.003203
966.0,0.003189
967.0,0.003154
968.0,0.004497
969.0,0.004698
970.0,0.004231
971.0,0.004976
972.0,0.004696
973.0,0.003947
974.0,0.003704
975.0,0.00386
976.0,0.003603
977.0,0.004215
978.0,0.003937
979.0,0.004154
980.0,0.003843
981.0,0.004761
982.0,0.004487
983.0,0.004259
984.0,0.004904
985.0,0.004421
986.0,0.004983
987.0,0.004835
988.0,0.004806
989.0,0.004928
990.0,0.004743
991.0,0.004895
992.0,0.004909
993.0,0.004752
994.0,0.004876
995.0,0.004857
996.0,0.004811
997.0,0.004803
998.0,0.004761
999.0,0.004728
1000.0,0.00467
1001.0,0.004719
1002.0,0.00454
1003.0,0.004598
1004.0,0.00446
1005.0,0.004291
1006.0,0.004435
1007.0,0.004514
1008.0,0.004468
1009.0,0.004421
1010.0,0.004383
1011.0,0.004426
1012.0,0.004364
1013.0,0.004383
1014.0,0.004337
1015.0,0.004291
1016.0,0.004254
1017.0,0.004247
1018.0,0.004219
1019.0,0.004101
1020.0,0.004162
1021.0,0.004142
1022.0,0.004089
1023.0,0.004117
1024.0,0.004037
1025.0,0.004088
1026.0,0.004052
1027.0,0.004028
1028.0,0.004004
1029.0,0.003941
1030.0,0.003958
1031.0,0.003925
1032.0,0.0039
1033.0,0.003826
1034.0,0.003811
1035.0,0.003809
1036.0,0.003812
1037.0,0.003737
1038.0,0.00374
1039.0,0.003723
1040.0,0.003694
1041.0,0.003694
1042.0,0.003654
1043.0,0.003629
1044.0,0.003628
1045.0,0.003565
1046.0,0.003511
1047.0,0.003529
1048.0,0.003535
1049.0,0.003509
1050.0,0.003479
1051.0,0.00346
1052.0,0.003433
1053.0,0.003392
1054.0,0.003387
1055.0,0.003374
1056.0,0.003348
1057.0,0.003324
1058.0,0.00323
1059.0,0.003221
1060.0,0.003203
1061.0,0.003186
1062.0,0.00319
1063.0,0.003146
1064.0,0.003173
1065.0,0.003135
1066.0,0.003064
1067.0,0.003091
1068.0,0.00301
1069.0,0.002908
1070.0,0.002993
1071.0,0.003037
1072.0,0.002984
1073.0,0.002933
1074.0,0.003008
1075.0,0.002821
1076.0,0.002982
1077.0,0.002902
1078.0,0.002832
1079.0,0.002906
1080.0,0.002823
1081.0,0.002715
1082.0,0.00277
1083.0,0.002773
1084.0,0.002669
1085.0,0.002785
1086.0,0.002483
1087.0,0.002593
1088.0,0.002715
1089.0,0.002599
1090.0,0.002512
1091.0,0.002669
1092.0,0.002658
1093.0,0.002171
1094.0,0.002407
1095.0,0.002262
1096.0,0.002136
1097.0,0.002554
1098.0,0.002083
1099.0,0.002175
1100.0,0.00198
1101.0,0.002009
1102.0,0.001895
1103.0,0.001857
1104.0,0.001856
1105.0,0.002073
1106.0,0.001481
1107.0,0.001933
1108.0,0.00157
1109.0,0.001572
1110.0,0.001889
1111.0,0.001182
1112.0,0.001547
1113.0,0.0008998
1114.0,0.001016
1115.0,0.0008208
1116.0,0.0006253
1117.0,0.0002028
1118.0,0.0006853
1119.0,0.0003104
1120.0,0.0003951
1121.0,0.0005401
1122.0,0.0002062
1123.0,0.0003507
1124.0,0.0002915
1125.0,0.0003893
1126.0,0.0001211
1127.0,0.0004404
1128.0,0.0002458
1129.0,0.0002619
1130.0,0.0001656
1131.0,0.0009022
1132.0,0.0006819
1133.0,0.0004019
1134.0,9.057e-05
1135.0,3.308e-05
1136.0,0.0003234
1137.0,0.0008622
1138.0,0.0005815
1139.0,0.000931
1140.0,0.0007488
1141.0,0.0005445
1142.0,0.0006378
1143.0,0.0009508
1144.0,0.0002885
1145.0,0.000371
1146.0,0.0004008
1147.0,0.0001262
1148.0,0.0007941
1149.0,0.000609
1150.0,0.0003068
1151.0,0.0005511
1152.0,0.0007003
1153.0,0.0006846
1154.0,0.0003473
1155.0,0.0009246
1156.0,0.000814
1157.0,0.000933
1158.0,0.0009185
1159.0,0.001007
1160.0,0.0008336
1161.0,0.00107
1162.0,0.001067
1163.0,0.00153
1164.0,0.001269
1165.0,0.001173
1166.0,0.001168
1167.0,0.001287
1168.0,0.001297
1169.0,0.001335
1170.0,0.001468
1171.0,0.001419
1172.0,0.00145
1173.0,0.001449
1174.0,0.0009659
1175.0,0.001412
1176.0,0.001576
1177.0,0.001491
1178.0,0.001058
1179.0,0.001574
1180.0,0.001364
1181.0,0.001411
1182.0,0.0009076
1183.0,0.001388
1184.0,0.001273
1185.0,0.001212
1186.0,0.001485
1187.0,0.001394
1188.0,0.0009087
1189.0,0.001283
1190.0,0.001429
1191.0,0.001332
1192.0,0.001444
1193.0,0.001367
1194.0,0.001414
1195.0,0.001319
1196.0,0.001255
1197.0,0.001413
1198.0,0.00127
1199.0,0.001042
1200.0,0.001324
1201.0,0.001261
1202.0,0.001253
1203.0,0.001244
1204.0,0.001054
1205.0,0.001281
1206.0,0.00144
1207.0,0.001232
1208.0,0.001219
1209.0,0.001241
1210.0,0.001299
1211.0,0.001219
1212.0,0.001191
1213.0,0.001356
1214.0,0.001219
1215.0,0.001188
1216.0,0.001339
1217.0,0.001292
1218.0,0.001319
1219.0,0.001296
1220.0,0.001312
1221.0,0.001325
1222.0,0.001281
1223.0,0.001263
1224.0,0.001247
1225.0,0.0013
1226.0,0.001308
1227.0,0.001186
1228.0,0.001309
1229.0,0.001296
1230.0,0.001266
1231.0,0.001308
1232.0,0.001296
1233.0,0.001235
1234.0,0.001297
1235.0,0.001283
1236.0,0.001289
1237.0,0.001263
1238.0,0.001277
1239.0,0.001256
1240.0,0.001258
1241.0,0.001245
1242.0,0.00124
1243.0,0.001226
1244.0,0.00123
1245.0,0.001232
1246.0,0.001221
1247.0,0.001211
1248.0,0.001205
1249.0,0.001206
1250.0,0.001194
1251.0,0.001173
1252.0,0.001172
1253.0,0.001155
1254.0,0.001137
1255.0,0.001159
1256.0,0.001115
1257.0,0.001104
1258.0,0.001127
1259.0,0.001072
1260.0,0.001075
1261.0,0.0009987
1262.0,0.0009591
1263.0,0.0009578
1264.0,0.0008664
1265.0,0.0009465
1266.0,0.0008991
1267.0,0.0009183
1268.0,0.0008583
1269.0,0.0004791
1270.0,0.000905
1271.0,0.0009696
1272.0,0.0009712
1273.0,0.0009564
1274.0,0.0009583
1275.0,0.0009717
1276.0,0.0009805
1277.0,0.0009864
1278.0,0.001008
1279.0,0.0009951
1280.0,0.0009796
1281.0,0.0009343
1282.0,0.0009015
1283.0,0.0009671
1284.0,0.0009861
1285.0,0.0009902
1286.0,0.001003
1287.0,0.0009798
1288.0,0.0009776
1289.0,0.0009357
1290.0,0.0009633
1291.0,0.000975
1292.0,0.0008979
1293.0,0.0009459
1294.0,0.0009353
1295.0,0.000925
1296.0,0.0008705
1297.0,0.0008123
1298.0,0.0008874
1299.0,0.0009308
1300.0,0.0007568
1301.0,0.0007836
1302.0,0.0008747
1303.0,0.0007414
1304.0,0.0006083
1305.0,0.0008453
1306.0,0.0008423
1307.0,0.00062
1308.0,0.0007321
1309.0,0.0008265
1310.0,0.0006009
1311.0,0.00069
1312.0,0.000668
1313.0,0.0006487
1314.0,0.0005661
1315.0,0.0005571
1316.0,0.0006671
1317.0,0.0006235
1318.0,0.0006877
1319.0,0.0005082
1320.0,0.0004904
1321.0,0.0005853
1322.0,0.0005885
1323.0,0.0004184
1324.0,0.00049
1325.0,0.0006375
1326.0,0.0005296
1327.0,0.000499
1328.0,0.0004187
1329.0,0.0002983
1330.0,0.0004016
1331.0,0.0002233
1332.0,0.0002323
1333.0,0.0003349
1334.0,0.0002802
1335.0,0.0004019
1336.0,0.0003048
1337.0,0.0002639
1338.0,0.0002872
1339.0,0.000286
1340.0,0.0002775
1341.0,0.0002662
1342.0,0.0002806
1343.0,0.0001769
1344.0,0.0001018
1345.0,0.0001505
1346.0,6.904e-05
1347.0,6.971e-05
1348.0,4.122e-06
1349.0,1.508e-05
1350.0,1.569e-05
1351.0,3.69e-06
1352.0,9.836e-07
1353.0,4.988e-08
1354.0,1.716e-07
1355.0,1.38e-09
1356.0,2.415e-08
1357.0,3.67e-08
1358.0,1.62e-09
1359.0,2.04e-10
1360.0,7.373e-10
1361.0,8.247e-13
