interpolation:linear
wavelength,value
280.0,3.3539999999999997e-22
280.5,1.1000000000000001e-20
281.0,5.893000000000001e-20
281.5,4.207e-19
282.0,6.956e-19
282.5,1.726e-18
283.0,5.454e-18
283.5,8.877e-18
284.0,1.459e-16
284.5,4.252e-16
285.0,7.086e-16
285.5,3.532e-15
286.0,1.424e-14
286.5,6.404e-14
287.0,1.836e-13
287.5,7.072e-13
288.0,2.419e-12
288.5,7.317e-12
289.0,1.948e-11
289.5,5.878e-11
290.0,1.631e-10
290.5,3.325e-10
291.0,7.137e-10
291.5,2.049e-09
292.0,4.174e-09
292.5,5.87e-09
293.0,1.262e-08
293.5,3.083e-08
294.0,4.831e-08
294.5,6.609e-08
295.0,1.122e-07
295.5,1.918e-07
296.0,3.744e-07
296.5,5.307e-07
297.0,7.266e-07
297.5,1.99e-06
298.0,3.201e-06
298.5,3.277e-06
299.0,7.36e-06
299.5,1.269e-05
300.0,1.428e-05
300.5,2.123e-05
301.0,4.024e-05
301.5,6.72e-05
302.0,5.895e-05
302.5,0.0001178
303.0,0.0002186
303.5,0.0002829
304.0,0.0002742
304.5,0.0004461
305.0,0.0007676
305.5,0.0009542
306.0,0.0009529
306.5,0.001252
307.0,0.002104
307.5,0.003167
308.0,0.003408
308.5,0.004283
309.0,0.00441
309.5,0.005472
310.0,0.005701
310.5,0.009393
311.0,0.01214
311.5,0.01185
312.0,0.01267
312.5,0.0161
313.0,0.01785
313.5,0.01691
314.0,0.02229
314.5,0.02124
315.0,0.02823
315.5,0.02271
316.0,0.02103
316.5,0.03178
317.0,0.03932
317.5,0.04021
318.0,0.03246
318.5,0.04316
319.0,0.05299
319.5,0.04065
320.0,0.04857
320.5,0.06525
321.0,0.06201
321.5,0.05972
322.0,0.05905
322.5,0.05143
323.0,0.05357
323.5,0.06848
324.0,0.08031
324.5,0.0799
325.0,0.0673
325.5,0.08977
326.0,0.1103
326.5,0.1129
327.0,0.1112
327.5,0.1059
328.0,0.09127
328.5,0.09932
329.0,0.1225
329.5,0.1401
330.0,0.1399
330.5,0.1089
331.0,0.1098
331.5,0.1133
332.0,0.1255
332.5,0.1255
333.0,0.1239
333.5,0.1095
334.0,0.1116
334.5,0.1315
335.0,0.125
335.5,0.147
336.0,0.1015
336.5,0.1166
337.0,0.09442
337.5,0.1167
338.0,0.116
338.5,0.1349
339.0,0.133
339.5,0.1278
340.0,0.1484
340.5,0.1338
341.0,0.131
341.5,0.1198
342.0,0.1428
342.5,0.1332
343.0,0.1462
343.5,0.1374
344.0,0.1008
344.5,0.1022
345.0,0.1346
345.5,0.137
346.0,0.1161
346.5,0.1312
347.0,0.1405
347.5,0.1133
348.0,0.1288
348.5,0.1284
349.0,0.1188
349.5,0.1173
350.0,0.1448
350.5,0.1523
351.0,0.1357
351.5,0.1316
352.0,0.1409
352.5,0.1096
353.0,0.1377
353.5,0.1469
354.0,0.1521
354.5,0.1539
355.0,0.1529
355.5,0.1378
356.0,0.1438
356.5,0.1224
357.0,0.1009
357.5,0.1232
358.0,0.09736
358.5,0.08297
359.0,0.1157
359.5,0.147
360.0,0.1554
360.5,0.1239
361.0,0.1127
361.5,0.1294
362.0,0.1116
362.5,0.154
363.0,0.138
363.5,0.1267
364.0,0.1546
364.5,0.1317
365.0,0.1338
365.5,0.1675
366.0,0.1769
366.5,0.1658
367.0,0.161
367.5,0.1666
368.0,0.1454
368.5,0.1463
369.0,0.1576
369.5,0.1675
370.0,0.178
370.5,0.1378
371.0,0.1468
371.5,0.1832
372.0,0.1212
372.5,0.1449
373.0,0.147
373.5,0.09538
374.0,0.1382
374.5,0.1141
375.0,0.1106
375.5,0.1647
376.0,0.1361
376.5,0.1406
377.0,0.1485
377.5,0.1732
378.0,0.1872
378.5,0.1764
379.0,0.1451
379.5,0.1321
380.0,0.137
380.5,0.1654
381.0,0.1652
381.5,0.1306
382.0,0.1156
382.5,0.09826
383.0,0.09069
383.5,0.08709
384.0,0.09579
384.5,0.1405
385.0,0.1389
385.5,0.129
386.0,0.1101
386.5,0.1442
387.0,0.1195
387.5,0.1338
388.0,0.1231
388.5,0.1213
389.0,0.1306
389.5,0.1577
390.0,0.1577
390.5,0.1447
391.0,0.1698
391.5,0.1727
392.0,0.145
392.5,0.1294
393.0,0.07178
393.5,0.05202
394.0,0.1055
394.5,0.1338
395.0,0.1627
395.5,0.1648
396.0,0.1424
396.5,0.083
397.0,0.06209
397.5,0.1259
398.0,0.1757
398.5,0.1811
399.0,0.1955
399.5,0.1943
400.0,0.2011
401.0,0.1976
402.0,0.2072
403.0,0.1955
404.0,0.1913
405.0,0.1901
406.0,0.1858
407.0,0.1816
408.0,0.1874
409.0,0.1993
410.0,0.173
411.0,0.1862
412.0,0.1988
413.0,0.1926
414.0,0.1937
415.0,0.193
416.0,0.195
417.0,0.1889
418.0,0.1842
419.0,0.1854
420.0,0.1833
421.0,0.1905
422.0,0.1798
423.0,0.1744
424.0,0.1831
425.0,0.1815
426.0,0.1756
427.0,0.1713
428.0,0.1658
429.0,0.156
430.0,0.1357
431.0,0.1335
432.0,0.1711
433.0,0.1708
434.0,0.1576
435.0,0.1635
436.0,0.183
437.0,0.1794
438.0,0.1622
439.0,0.1665
440.0,0.1706
441.0,0.1754
442.0,0.1868
443.0,0.1806
444.0,0.1834
445.0,0.1783
446.0,0.1692
447.0,0.1817
448.0,0.1831
449.0,0.1825
450.0,0.1862
451.0,0.1917
452.0,0.1835
453.0,0.1715
454.0,0.1778
455.0,0.1776
456.0,0.1804
457.0,0.1819
458.0,0.1743
459.0,0.1719
460.0,0.171
461.0,0.1736
462.0,0.1738
463.0,0.1716
464.0,0.1679
465.0,0.1649
466.0,0.1654
467.0,0.1612
468.0,0.1617
469.0,0.1612
470.0,0.155
471.0,0.1538
472.0,0.161
473.0,0.1578
474.0,0.1569
475.0,0.1569
476.0,0.1509
477.0,0.15
478.0,0.1528
479.0,0.1504
480.0,0.1494
481.0,0.1508
482.0,0.1504
483.0,0.1476
484.0,0.1438
485.0,0.1362
486.0,0.1185
487.0,0.1234
488.0,0.1344
489.0,0.1337
490.0,0.1396
491.0,0.1361
492.0,0.1276
493.0,0.1308
494.0,0.1312
495.0,0.1314
496.0,0.1312
497.0,0.1321
498.0,0.1247
499.0,0.1251
500.0,0.1203
501.0,0.1169
502.0,0.114
503.0,0.1174
504.0,0.1133
505.0,0.1165
506.0,0.1195
507.0,0.1129
508.0,0.1088
509.0,0.1112
510.0,0.11
511.0,0.1123
512.0,0.1127
513.0,0.1058
514.0,0.1043
515.0,0.1024
516.0,0.1014
517.0,0.08945
518.0,0.09335
519.0,0.09717
520.0,0.0999
521.0,0.1
522.0,0.09926
523.0,0.09672
524.0,0.09929
525.0,0.09954
526.0,0.09424
527.0,0.08794
528.0,0.09211
529.0,0.09626
530.0,0.09409
531.0,0.0947
532.0,0.09073
533.0,0.08744
534.0,0.08943
535.0,0.09081
536.0,0.09108
537.0,0.08692
538.0,0.08785
539.0,0.08653
540.0,0.08237
541.0,0.08225
542.0,0.08411
543.0,0.08258
544.0,0.08341
545.0,0.0826
546.0,0.08234
547.0,0.08171
548.0,0.08017
549.0,0.07987
550.0,0.08026
551.0,0.07872
552.0,0.0787
553.0,0.07673
554.0,0.07799
555.0,0.07756
556.0,0.07595
557.0,0.07299
558.0,0.07181
559.0,0.06983
560.0,0.07009
561.0,0.07038
562.0,0.06924
563.0,0.07052
564.0,0.06806
565.0,0.06695
566.0,0.06545
567.0,0.06615
568.0,0.06501
569.0,0.0629
570.0,0.06244
571.0,0.06163
572.0,0.06257
573.0,0.06281
574.0,0.06222
575.0,0.06069
576.0,0.05979
577.0,0.06012
578.0,0.05894
579.0,0.05893
580.0,0.05982
581.0,0.05988
582.0,0.06074
583.0,0.06063
584.0,0.06088
585.0,0.05909
586.0,0.05752
587.0,0.05838
588.0,0.05649
589.0,0.0495
590.0,0.05147
591.0,0.05426
592.0,0.05311
593.0,0.0536
594.0,0.05276
595.0,0.05097
596.0,0.05279
597.0,0.05178
598.0,0.05129
599.0,0.05097
600.0,0.05074
601.0,0.05003
602.0,0.0494
603.0,0.04994
604.0,0.0505
605.0,0.05001
606.0,0.04961
607.0,0.04991
608.0,0.04917
609.0,0.04907
610.0,0.04856
611.0,0.04864
612.0,0.04833
613.0,0.04754
614.0,0.04672
615.0,0.04756
616.0,0.04582
617.0,0.04555
618.0,0.04712
619.0,0.04645
620.0,0.04653
621.0,0.04635
622.0,0.04558
623.0,0.04465
624.0,0.04368
625.0,0.0434
626.0,0.04386
627.0,0.0441
628.0,0.04048
629.0,0.04248
630.0,0.04129
631.0,0.04221
632.0,0.04156
633.0,0.04272
634.0,0.0422
635.0,0.0427
636.0,0.04198
637.0,0.04252
638.0,0.04279
639.0,0.04216
640.0,0.0416
641.0,0.04141
642.0,0.04109
643.0,0.04149
644.0,0.04121
645.0,0.04107
646.0,0.03987
647.0,0.03909
648.0,0.03893
649.0,0.038
650.0,0.03819
651.0,0.03969
652.0,0.03767
653.0,0.03883
654.0,0.03824
655.0,0.03655
656.0,0.03232
657.0,0.03306
658.0,0.03696
659.0,0.03709
660.0,0.03708
661.0,0.03717
662.0,0.03706
663.0,0.0362
664.0,0.03652
665.0,0.03642
666.0,0.03631
667.0,0.03615
668.0,0.03604
669.0,0.03645
670.0,0.03613
671.0,0.03598
672.0,0.03555
673.0,0.03598
674.0,0.03569
675.0,0.03521
676.0,0.0353
677.0,0.03482
678.0,0.03479
679.0,0.03409
680.0,0.03421
681.0,0.03384
682.0,0.03364
683.0,0.03342
684.0,0.03309
685.0,0.03322
686.0,0.03287
687.0,0.02011
688.0,0.02411
689.0,0.02411
690.0,0.02543
691.0,0.02696
692.0,0.02809
693.0,0.02771
694.0,0.02734
695.0,0.02857
696.0,0.02848
697.0,0.03044
698.0,0.02984
699.0,0.02878
700.0,0.02829
701.0,0.02783
702.0,0.02798
703.0,0.02791
704.0,0.02878
705.0,0.02869
706.0,0.02858
707.0,0.02849
708.0,0.02841
709.0,0.02839
710.0,0.02821
711.0,0.0281
712.0,0.02795
713.0,0.0275
714.0,0.02746
715.0,0.02638
716.0,0.02626
717.0,0.02201
718.0,0.01997
719.0,0.01807
720.0,0.01887
721.0,0.02112
722.0,0.0246
723.0,0.0225
724.0,0.01987
725.0,0.01941
726.0,0.02032
727.0,0.0206
728.0,0.0191
729.0,0.01993
730.0,0.02104
731.0,0.01994
732.0,0.02149
733.0,0.02288
734.0,0.02338
735.0,0.02276
736.0,0.02262
737.0,0.0226
738.0,0.023
739.0,0.02243
740.0,0.02295
741.0,0.02264
742.0,0.02258
743.0,0.02304
744.0,0.02287
745.0,0.02278
746.0,0.02277
747.0,0.02272
748.0,0.02255
749.0,0.02219
750.0,0.02208
751.0,0.02177
752.0,0.02178
753.0,0.02179
754.0,0.02173
755.0,0.02152
756.0,0.02142
757.0,0.02136
758.0,0.02099
759.0,0.02038
760.0,0.002788
761.0,0.001453
762.0,0.009074
763.0,0.004249
764.0,0.006532
765.0,0.008936
766.0,0.01134
767.0,0.0148
768.0,0.01757
769.0,0.01799
770.0,0.01868
771.0,0.01882
772.0,0.01879
773.0,0.01882
774.0,0.01863
775.0,0.0184
776.0,0.01854
777.0,0.0182
778.0,0.01799
779.0,0.01791
780.0,0.01773
781.0,0.01767
782.0,0.01771
783.0,0.01733
784.0,0.01734
785.0,0.01714
786.0,0.01725
787.0,0.01681
788.0,0.0165
789.0,0.01641
790.0,0.01581
791.0,0.01597
792.0,0.01579
793.0,0.01545
794.0,0.01574
795.0,0.01591
796.0,0.01523
797.0,0.01518
798.0,0.01567
799.0,0.01548
800.0,0.01511
801.0,0.01496
802.0,0.01485
803.0,0.01466
804.0,0.01462
805.0,0.01454
806.0,0.01493
807.0,0.01467
808.0,0.01462
809.0,0.01423
810.0,0.01401
811.0,0.01391
812.0,0.01336
813.0,0.01297
814.0,0.0111
815.0,0.01098
816.0,0.01007
817.0,0.01024
818.0,0.009775
819.0,0.01111
820.0,0.01033
821.0,0.01238
822.0,0.01191
823.0,0.007556
824.0,0.01137
825.0,0.01193
826.0,0.01133
827.0,0.01203
828.0,0.009852
829.0,0.01114
830.0,0.01092
831.0,0.01092
832.0,0.01048
833.0,0.01129
834.0,0.01075
835.0,0.01197
836.0,0.01127
837.0,0.0119
838.0,0.01143
839.0,0.01163
840.0,0.01185
841.0,0.0116
842.0,0.01161
843.0,0.01159
844.0,0.01136
845.0,0.01172
846.0,0.01162
847.0,0.01136
848.0,0.01122
849.0,0.01085
850.0,0.01035
851.0,0.01088
852.0,0.01076
853.0,0.01032
854.0,0.008858
855.0,0.00971
856.0,0.01056
857.0,0.01077
858.0,0.01064
859.0,0.01062
860.0,0.01059
861.0,0.01049
862.0,0.01062
863.0,0.01083
864.0,0.01025
865.0,0.01012
866.0,0.009067
867.0,0.009425
868.0,0.01021
869.0,0.009963
870.0,0.01021
871.0,0.01002
872.0,0.009949
873.0,0.009888
874.0,0.009727
875.0,0.009486
876.0,0.009542
877.0,0.009599
878.0,0.009659
879.0,0.009471
880.0,0.009228
881.0,0.009044
882.0,0.0092
883.0,0.009199
884.0,0.009112
885.0,0.009139
886.0,0.008644
887.0,0.008723
888.0,0.0088
889.0,0.008888
890.0,0.008743
891.0,0.008709
892.0,0.008388
893.0,0.008042
894.0,0.007638
895.0,0.007079
896.0,0.006563
897.0,0.005465
898.0,0.006025
899.0,0.004368
900.0,0.006194
901.0,0.004593
902.0,0.005545
903.0,0.005531
904.0,0.007271
905.0,0.006943
906.0,0.00642
907.0,0.004972
908.0,0.00509
909.0,0.005593
910.0,0.004777
911.0,0.005162
912.0,0.005409
913.0,0.004787
914.0,0.004741
915.0,0.005165
916.0,0.004262
917.0,0.005615
918.0,0.004347
919.0,0.0057
920.0,0.0058
921.0,0.00606
922.0,0.005271
923.0,0.005812
924.0,0.005358
925.0,0.005208
926.0,0.005252
927.0,0.00597
928.0,0.004068
929.0,0.003635
930.0,0.002733
931.0,0.002569
932.0,0.001758
933.0,0.001389
934.0,0.0007138
935.0,0.001425
936.0,0.0008471
937.0,0.0008541
938.0,0.001062
939.0,0.002403
940.0,0.002963
941.0,0.002137
942.0,0.002512
943.0,0.001562
944.0,0.001673
945.0,0.002175
946.0,0.001021
947.0,0.002156
948.0,0.001538
949.0,0.002983
950.0,0.0007154
951.0,0.00292
952.0,0.001439
953.0,0.001916
954.0,0.002426
955.0,0.001936
956.0,0.001894
957.0,0.001412
958.0,0.002796
959.0,0.002116
960.0,0.002389
961.0,0.002739
962.0,0.002566
963.0,0.003028
964.0,0.002727
965.0,0.002993
966.0,0.002979
967.0,0.002945
968.0,0.004232
969.0,0.004406
970.0,0.003971
971.0,0.004686
972.0,0.004419
973.0,0.003697
974.0,0.003471
975.0,0.003624
976.0,0.00337
977.0,0.003965
978.0,0.003693
979.0,0.0039
980.0,0.003609
981.0,0.004484
982.0,0.004218
983.0,0.004001
984.0,0.004628
985.0,0.004155
986.0,0.004709
987.0,0.004561
988.0,0.004535
989.0,0.004662
990.0,0.004474
991.0,0.004628
992.0,0.004642
993.0,0.004486
994.0,0.004612
995.0,0.004595
996.0,0.004552
997.0,0.004545
998.0,0.004505
999.0,0.004474
1000.0,0.004417
1001.0,0.004466
1002.0,0.004288
1003.0,0.004351
1004.0,0.004218
1005.0,0.004061
1006.0,0.004196
1007.0,0.004272
1008.0,0.004226
1009.0,0.004181
1010.0,0.004143
1011.0,0.004188
1012.0,0.004128
1013.0,0.004149
1014.0,0.004105
1015.0,0.004061
1016.0,0.004026
1017.0,0.004019
1018.0,0.003993
1019.0,0.003879
1020.0,0.003939
1021.0,0.003921
1022.0,0.00387
1023.0,0.003896
1024.0,0.003817
1025.0,0.003869
1026.0,0.003834
1027.0,0.003811
1028.0,0.003789
1029.0,0.003729
1030.0,0.003745
1031.0,0.003714
1032.0,0.003691
1033.0,0.003621
1034.0,0.003607
1035.0,0.003605
1036.0,0.003608
1037.0,0.003536
1038.0,0.003539
1039.0,0.003523
1040.0,0.003496
1041.0,0.003495
1042.0,0.003457
1043.0,0.003433
1044.0,0.003432
1045.0,0.003372
1046.0,0.003321
1047.0,0.003338
1048.0,0.003343
1049.0,0.003318
1050.0,0.00329
1051.0,0.003272
1052.0,0.003245
1053.0,0.003207
1054.0,0.003201
1055.0,0.003189
1056.0,0.003164
1057.0,0.003141
1058.0,0.003051
1059.0,0.003042
1060.0,0.003025
1061.0,0.003009
1062.0,0.003012
1063.0,0.002971
1064.0,0.002996
1065.0,0.002959
1066.0,0.002893
1067.0,0.002918
1068.0,0.002841
1069.0,0.002745
1070.0,0.002825
1071.0,0.002868
1072.0,0.002817
1073.0,0.002769
1074.0,0.002842
1075.0,0.00266
1076.0,0.002817
1077.0,0.002739
1078.0,0.002671
1079.0,0.002746
1080.0,0.002664
1081.0,0.00256
1082.0,0.002616
1083.0,0.00262
1084.0,0.002516
1085.0,0.002628
1086.0,0.002339
1087.0,0.002445
1088.0,0.002565
1089.0,0.00245
1090.0,0.002366
1091.0,0.002521
1092.0,0.002511
1093.0,0.00204
1094.0,0.002272
1095.0,0.002124
1096.0,0.002004
1097.0,0.002412
1098.0,0.001951
1099.0,0.002039
1100.0,0.001854
1101.0,0.001882
1102.0,0.001773
1103.0,0.001736
1104.0,0.001734
1105.0,0.001943
1106.0,0.001377
1107.0,0.00181
1108.0,0.001464
1109.0,0.001468
1110.0,0.001766
1111.0,0.001101
1112.0,0.001444
1113.0,0.0008381
1114.0,0.000944
1115.0,0.0007651
1116.0,0.0005823
1117.0,0.000192
1118.0,0.0006372
1119.0,0.0002917
1120.0,0.0003685
1121.0,0.0005007
1122.0,0.0001946
1123.0,0.0003282
1124.0,0.0002739
1125.0,0.0003635
1126.0,0.0001153
1127.0,0.0004101
1128.0,0.0002309
1129.0,0.0002456
1130.0,0.0001571
1131.0,0.0008311
1132.0,0.0006312
1133.0,0.0003739
1134.0,8.671e-05
1135.0,3.214e-05
1136.0,0.0003018
1137.0,0.0007926
1138.0,0.0005394
1139.0,0.0008642
1140.0,0.0006943
1141.0,0.0005059
1142.0,0.0005916
1143.0,0.0008781
1144.0,0.0002712
1145.0,0.0003453
1146.0,0.0003723
1147.0,0.0001198
1148.0,0.0007354
1149.0,0.0005652
1150.0,0.0002886
1151.0,0.0005113
1152.0,0.0006484
1153.0,0.000637
1154.0,0.0003241
1155.0,0.0008569
1156.0,0.0007542
1157.0,0.0008674
1158.0,0.0008538
1159.0,0.0009359
1160.0,0.0007768
1161.0,0.0009984
1162.0,0.0009952
1163.0,0.001433
1164.0,0.001187
1165.0,0.001093
1166.0,0.001093
1167.0,0.001205
1168.0,0.001213
1169.0,0.001249
1170.0,0.001377
1171.0,0.001332
1172.0,0.001363
1173.0,0.001359
1174.0,0.000903
1175.0,0.001328
1176.0,0.001488
1177.0,0.001403
1178.0,0.0009932
1179.0,0.001486
1180.0,0.001282
1181.0,0.001326
1182.0,0.0008507
1183.0,0.001305
1184.0,0.001195
1185.0,0.001136
1186.0,0.001398
1187.0,0.001311
1188.0,0.000849
1189.0,0.001206
1190.0,0.001347
1191.0,0.00125
1192.0,0.001361
1193.0,0.001287
1194.0,0.001332
1195.0,0.001239
1196.0,0.001178
1197.0,0.001332
1198.0,0.001197
1199.0,0.0009762
1200.0,0.001246
1201.0,0.001184
1202.0,0.00118
1203.0,0.001168
1204.0,0.0009894
1205.0,0.001207
1206.0,0.001359
1207.0,0.001158
1208.0,0.001148
1209.0,0.001169
1210.0,0.001225
1211.0,0.001148
1212.0,0.001116
1213.0,0.001278
1214.0,0.001144
1215.0,0.001114
1216.0,0.001263
1217.0,0.001217
1218.0,0.001244
1219.0,0.001221
1220.0,0.001238
1221.0,0.001251
1222.0,0.001209
1223.0,0.001191
1224.0,0.001174
1225.0,0.001226
1226.0,0.001235
1227.0,0.001116
1228.0,0.001237
1229.0,0.001224
1230.0,0.001195
1231.0,0.001237
1232.0,0.001226
1233.0,0.001164
1234.0,0.001228
1235.0,0.001213
1236.0,0.00122
1237.0,0.001193
1238.0,0.001208
1239.0,0.001189
1240.0,0.00119
1241.0,0.001177
1242.0,0.001174
1243.0,0.00116
1244.0,0.001164
1245.0,0.001166
1246.0,0.001155
1247.0,0.001146
1248.0,0.00114
1249.0,0.001141
1250.0,0.00113
1251.0,0.001109
1252.0,0.001109
1253.0,0.001091
1254.0,0.001073
1255.0,0.001096
1256.0,0.001052
1257.0,0.001041
1258.0,0.001065
1259.0,0.001009
1260.0,0.001013
1261.0,0.0009366
1262.0,0.0008975
1263.0,0.0008962
1264.0,0.0008067
1265.0,0.0008856
1266.0,0.0008388
1267.0,0.0008584
1268.0,0.0007997
1269.0,0.0004384
1270.0,0.0008452
1271.0,0.0009095
1272.0,0.0009114
1273.0,0.0008971
1274.0,0.0008995
1275.0,0.0009127
1276.0,0.0009218
1277.0,0.0009285
1278.0,0.0009502
1279.0,0.0009381
1280.0,0.0009237
1281.0,0.0008817
1282.0,0.000852
1283.0,0.0009137
1284.0,0.0009316
1285.0,0.0009356
1286.0,0.0009482
1287.0,0.0009253
1288.0,0.0009236
1289.0,0.0008816
1290.0,0.0009103
1291.0,0.0009218
1292.0,0.0008447
1293.0,0.0008933
1294.0,0.0008832
1295.0,0.0008717
1296.0,0.0008181
1297.0,0.0007622
1298.0,0.000836
1299.0,0.0008795
1300.0,0.0007102
1301.0,0.000736
1302.0,0.0008241
1303.0,0.0006964
1304.0,0.0005678
1305.0,0.0007965
1306.0,0.0007928
1307.0,0.0005804
1308.0,0.0006887
1309.0,0.0007768
1310.0,0.0005621
1311.0,0.0006482
1312.0,0.0006269
1313.0,0.0006076
1314.0,0.0005297
1315.0,0.0005199
1316.0,0.0006256
1317.0,0.0005845
1318.0,0.0006461
1319.0,0.0004741
1320.0,0.0004588
1321.0,0.0005478
1322.0,0.0005496
1323.0,0.0003891
1324.0,0.0004576
1325.0,0.0005972
1326.0,0.0004949
1327.0,0.000466
1328.0,0.0003908
1329.0,0.0002774
1330.0,0.0003726
1331.0,0.0002075
1332.0,0.0002161
1333.0,0.0003093
1334.0,0.000262
1335.0,0.0003733
1336.0,0.0002831
1337.0,0.0002457
1338.0,0.0002665
1339.0,0.0002657
1340.0,0.0002589
1341.0,0.0002466
1342.0,0.0002599
1343.0,0.0001638
1344.0,9.581e-05
1345.0,0.00014
1346.0,6.507e-05
1347.0,6.564e-05
1348.0,4.054e-06
1349.0,1.464e-05
1350.0,1.521e-05
1351.0,3.636e-06
1352.0,9.759e-07
1353.0,4.964e-08
1354.0,1.706e-07
1355.0,1.374e-09
1356.0,2.404e-08
