interpolation:linear
wavelength,value
280.0,4.182e-23
280.5,1.411e-21
281.0,7.653e-21
281.5,2.495e-19
282.0,4.855e-19
282.5,1.115e-18
283.0,3.425e-18
283.5,5.555e-18
284.0,9.076e-17
284.5,2.665e-16
285.0,7.929e-16
285.5,3.109e-15
286.0,1.204e-14
286.5,5.133e-14
287.0,1.443e-13
287.5,5.472e-13
288.0,1.677e-12
288.5,4.762e-12
289.0,1.226e-11
289.5,3.634e-11
290.0,1.003e-10
290.5,2.044e-10
291.0,4.397e-10
291.5,1.267e-09
292.0,2.601e-09
292.5,3.615e-09
293.0,7.668e-09
293.5,1.841e-08
294.0,2.87e-08
294.5,3.456e-08
295.0,5.806e-08
295.5,9.786e-08
296.0,1.828e-07
296.5,2.47e-07
297.0,3.242e-07
297.5,8.288e-07
298.0,1.249e-06
298.5,1.211e-06
299.0,2.571e-06
299.5,3.978e-06
300.0,4.193e-06
300.5,5.805e-06
301.0,9.728e-06
301.5,1.44e-05
302.0,1.184e-05
302.5,2.256e-05
303.0,3.886e-05
303.5,4.81e-05
304.0,4.571e-05
304.5,7.066e-05
305.0,0.0001136
305.5,0.0001357
306.0,0.0001335
306.5,0.0001712
307.0,0.0002724
307.5,0.0003894
308.0,0.0004161
308.5,0.0005102
309.0,0.0005393
309.5,0.0007583
310.0,0.000838
310.5,0.001423
311.0,0.001931
311.5,0.001928
312.0,0.002288
312.5,0.00312
313.0,0.003592
313.5,0.003295
314.0,0.004727
314.5,0.00504
315.0,0.006839
315.5,0.005223
316.0,0.0053
316.5,0.008668
317.0,0.01073
317.5,0.01074
318.0,0.009157
318.5,0.01351
319.0,0.01748
319.5,0.01236
320.0,0.01461
320.5,0.02181
321.0,0.02281
321.5,0.0222
322.0,0.01987
322.5,0.01742
323.0,0.01941
323.5,0.02861
324.0,0.03409
324.5,0.03272
325.0,0.02481
325.5,0.03495
326.0,0.04757
326.5,0.05099
327.0,0.04949
327.5,0.04622
328.0,0.03743
328.5,0.044
329.0,0.05746
329.5,0.06691
330.0,0.06599
330.5,0.0493
331.0,0.04903
331.5,0.05236
332.0,0.06075
332.5,0.06203
333.0,0.06063
333.5,0.05196
334.0,0.05271
334.5,0.06456
335.0,0.06278
335.5,0.07466
336.0,0.05161
336.5,0.05821
337.0,0.0465
337.5,0.05723
338.0,0.05869
338.5,0.06942
339.0,0.06885
339.5,0.06604
340.0,0.07568
340.5,0.0685
341.0,0.06813
341.5,0.06284
342.0,0.07515
342.5,0.07036
343.0,0.07702
343.5,0.07228
344.0,0.05227
344.5,0.05363
345.0,0.07134
345.5,0.07297
346.0,0.06208
346.5,0.07031
347.0,0.07516
347.5,0.06065
348.0,0.06933
348.5,0.0694
349.0,0.06438
349.5,0.06365
350.0,0.07868
350.5,0.08289
351.0,0.07382
351.5,0.07132
352.0,0.07675
352.5,0.05998
353.0,0.07559
353.5,0.08083
354.0,0.08389
354.5,0.08498
355.0,0.08453
355.5,0.07633
356.0,0.07982
356.5,0.06808
357.0,0.05618
357.5,0.06872
358.0,0.05442
358.5,0.04646
359.0,0.06488
359.5,0.08246
360.0,0.08735
360.5,0.06978
361.0,0.06358
361.5,0.07316
362.0,0.06321
362.5,0.08739
363.0,0.0784
363.5,0.07213
364.0,0.08812
364.5,0.07522
365.0,0.0765
365.5,0.09591
366.0,0.1015
366.5,0.09528
367.0,0.09268
367.5,0.09606
368.0,0.08395
368.5,0.08459
369.0,0.09124
369.5,0.09714
370.0,0.1034
370.5,0.08018
371.0,0.08557
371.5,0.1069
372.0,0.07087
372.5,0.08487
373.0,0.08622
373.5,0.05602
374.0,0.08129
374.5,0.06724
375.0,0.06527
375.5,0.09732
376.0,0.08057
376.5,0.08338
377.0,0.08816
377.5,0.103
378.0,0.1115
378.5,0.1052
379.0,0.08672
379.5,0.07909
380.0,0.08211
380.5,0.09931
381.0,0.09937
381.5,0.07866
382.0,0.06975
382.5,0.05938
383.0,0.05489
383.5,0.05279
384.0,0.05815
384.5,0.08541
385.0,0.08457
385.5,0.07865
386.0,0.06726
386.5,0.08821
387.0,0.07319
387.5,0.08207
388.0,0.07566
388.5,0.07467
389.0,0.08048
389.5,0.09732
390.0,0.09752
390.5,0.0896
391.0,0.1053
391.5,0.1072
392.0,0.09017
392.5,0.0806
393.0,0.04478
393.5,0.0325
394.0,0.06602
394.5,0.08381
395.0,0.1021
395.5,0.1035
396.0,0.08962
396.5,0.05231
397.0,0.03919
397.5,0.07957
398.0,0.1112
398.5,0.1148
399.0,0.1241
399.5,0.1235
400.0,0.128
401.0,0.126
402.0,0.1325
403.0,0.1254
404.0,0.123
405.0,0.1225
406.0,0.1201
407.0,0.1177
408.0,0.1218
409.0,0.1298
410.0,0.113
411.0,0.1219
412.0,0.1305
413.0,0.1268
414.0,0.1278
415.0,0.1276
416.0,0.1293
417.0,0.1256
418.0,0.1227
419.0,0.1239
420.0,0.1228
421.0,0.1279
422.0,0.121
423.0,0.1176
424.0,0.1237
425.0,0.1229
426.0,0.1192
427.0,0.1165
428.0,0.1131
429.0,0.1067
430.0,0.09297
431.0,0.09168
432.0,0.1177
433.0,0.1178
434.0,0.1089
435.0,0.1132
436.0,0.1271
437.0,0.1248
438.0,0.113
439.0,0.1162
440.0,0.1192
441.0,0.1227
442.0,0.1309
443.0,0.1268
444.0,0.129
445.0,0.1258
446.0,0.1196
447.0,0.1288
448.0,0.13
449.0,0.1298
450.0,0.1326
451.0,0.1368
452.0,0.1312
453.0,0.1228
454.0,0.1276
455.0,0.1276
456.0,0.1298
457.0,0.1311
458.0,0.1256
459.0,0.124
460.0,0.1234
461.0,0.1254
462.0,0.1257
463.0,0.1244
464.0,0.122
465.0,0.1201
466.0,0.1208
467.0,0.1179
468.0,0.1184
469.0,0.1182
470.0,0.1137
471.0,0.113
472.0,0.1185
473.0,0.1164
474.0,0.1158
475.0,0.1159
476.0,0.1115
477.0,0.1108
478.0,0.1129
479.0,0.1111
480.0,0.1103
481.0,0.1114
482.0,0.1112
483.0,0.1094
484.0,0.1068
485.0,0.1014
486.0,0.08842
487.0,0.09229
488.0,0.1007
489.0,0.1003
490.0,0.1048
491.0,0.1023
492.0,0.09598
493.0,0.09856
494.0,0.099
495.0,0.09926
496.0,0.09919
497.0,0.09991
498.0,0.09435
499.0,0.09458
500.0,0.09087
501.0,0.08825
502.0,0.08601
503.0,0.08855
504.0,0.0854
505.0,0.0879
506.0,0.09022
507.0,0.08546
508.0,0.08253
509.0,0.08459
510.0,0.08385
511.0,0.08571
512.0,0.08614
513.0,0.08099
514.0,0.07983
515.0,0.07841
516.0,0.07762
517.0,0.06847
518.0,0.07146
519.0,0.0744
520.0,0.07649
521.0,0.07656
522.0,0.07593
523.0,0.07396
524.0,0.07582
525.0,0.07589
526.0,0.07176
527.0,0.06687
528.0,0.06995
529.0,0.07301
530.0,0.07129
531.0,0.07168
532.0,0.06865
533.0,0.06616
534.0,0.06769
535.0,0.0688
536.0,0.06905
537.0,0.06595
538.0,0.06669
539.0,0.06568
540.0,0.0625
541.0,0.06237
542.0,0.06375
543.0,0.06257
544.0,0.06314
545.0,0.0625
546.0,0.06228
547.0,0.06182
548.0,0.06066
549.0,0.06044
550.0,0.06073
551.0,0.05957
552.0,0.05955
553.0,0.05806
554.0,0.05899
555.0,0.05864
556.0,0.0574
557.0,0.05512
558.0,0.05417
559.0,0.05262
560.0,0.05275
561.0,0.0529
562.0,0.05198
563.0,0.05287
564.0,0.05098
565.0,0.0501
566.0,0.04896
567.0,0.04945
568.0,0.04855
569.0,0.04691
570.0,0.04655
571.0,0.04593
572.0,0.04659
573.0,0.04676
574.0,0.04632
575.0,0.04518
576.0,0.04455
577.0,0.04485
578.0,0.04403
579.0,0.04409
580.0,0.04483
581.0,0.04495
582.0,0.04568
583.0,0.04565
584.0,0.04588
585.0,0.04457
586.0,0.04342
587.0,0.04408
588.0,0.04263
589.0,0.03729
590.0,0.03877
591.0,0.04091
592.0,0.04
593.0,0.04036
594.0,0.03968
595.0,0.03826
596.0,0.03964
597.0,0.03882
598.0,0.03843
599.0,0.03816
600.0,0.03798
601.0,0.03745
602.0,0.03699
603.0,0.03742
604.0,0.03787
605.0,0.03754
606.0,0.0373
607.0,0.03759
608.0,0.03711
609.0,0.03711
610.0,0.03679
611.0,0.03692
612.0,0.03676
613.0,0.03622
614.0,0.03567
615.0,0.03637
616.0,0.0351
617.0,0.03495
618.0,0.0362
619.0,0.03574
620.0,0.03584
621.0,0.03573
622.0,0.03517
623.0,0.0345
624.0,0.03379
625.0,0.03359
626.0,0.03397
627.0,0.03418
628.0,0.03123
629.0,0.03293
630.0,0.03204
631.0,0.03285
632.0,0.0324
633.0,0.03337
634.0,0.03302
635.0,0.03346
636.0,0.03296
637.0,0.03343
638.0,0.03371
639.0,0.03327
640.0,0.03288
641.0,0.03278
642.0,0.03257
643.0,0.03293
644.0,0.03275
645.0,0.03267
646.0,0.03173
647.0,0.03109
648.0,0.03102
649.0,0.03029
650.0,0.03053
651.0,0.03178
652.0,0.03014
653.0,0.03115
654.0,0.03071
655.0,0.02935
656.0,0.026
657.0,0.02662
658.0,0.02981
659.0,0.02995
660.0,0.02998
661.0,0.0301
662.0,0.03002
663.0,0.02934
664.0,0.02964
665.0,0.02961
666.0,0.02955
667.0,0.02945
668.0,0.0294
669.0,0.02977
670.0,0.02954
671.0,0.02945
672.0,0.02912
673.0,0.02949
674.0,0.02928
675.0,0.02892
676.0,0.02902
677.0,0.02865
678.0,0.02864
679.0,0.02809
680.0,0.02821
681.0,0.02791
682.0,0.02777
683.0,0.0276
684.0,0.02734
685.0,0.02747
686.0,0.02719
687.0,0.01633
688.0,0.01958
689.0,0.0196
690.0,0.02073
691.0,0.02207
692.0,0.0231
693.0,0.02281
694.0,0.02259
695.0,0.0237
696.0,0.02365
697.0,0.02535
698.0,0.02485
699.0,0.02394
700.0,0.02355
701.0,0.02313
702.0,0.02329
703.0,0.02326
704.0,0.02403
705.0,0.02396
706.0,0.02388
707.0,0.02382
708.0,0.02376
709.0,0.02378
710.0,0.02362
711.0,0.02354
712.0,0.02343
713.0,0.02304
714.0,0.02303
715.0,0.0221
716.0,0.022
717.0,0.01831
718.0,0.01667
719.0,0.01512
720.0,0.01575
721.0,0.01767
722.0,0.02061
723.0,0.01887
724.0,0.01665
725.0,0.01627
726.0,0.01701
727.0,0.0173
728.0,0.01602
729.0,0.01675
730.0,0.01762
731.0,0.01674
732.0,0.01808
733.0,0.01928
734.0,0.01972
735.0,0.01918
736.0,0.01906
737.0,0.01905
738.0,0.01945
739.0,0.01898
740.0,0.01944
741.0,0.01919
742.0,0.01915
743.0,0.01954
744.0,0.01941
745.0,0.01933
746.0,0.01933
747.0,0.01929
748.0,0.01916
749.0,0.01885
750.0,0.01877
751.0,0.01852
752.0,0.01853
753.0,0.01855
754.0,0.01852
755.0,0.01834
756.0,0.01827
757.0,0.01822
758.0,0.01791
759.0,0.01734
760.0,0.002517
761.0,0.001339
762.0,0.007647
763.0,0.003758
764.0,0.005622
765.0,0.007538
766.0,0.009458
767.0,0.01237
768.0,0.01484
769.0,0.01525
770.0,0.01591
771.0,0.01607
772.0,0.01605
773.0,0.01608
774.0,0.01592
775.0,0.01572
776.0,0.01583
777.0,0.01554
778.0,0.01536
779.0,0.0153
780.0,0.01514
781.0,0.0151
782.0,0.01514
783.0,0.01482
784.0,0.01484
785.0,0.01467
786.0,0.01477
787.0,0.01437
788.0,0.0141
789.0,0.01403
790.0,0.0135
791.0,0.01366
792.0,0.01352
793.0,0.01324
794.0,0.01351
795.0,0.01365
796.0,0.01302
797.0,0.01297
798.0,0.01345
799.0,0.01328
800.0,0.01295
801.0,0.01281
802.0,0.01271
803.0,0.01254
804.0,0.01252
805.0,0.01246
806.0,0.01283
807.0,0.01259
808.0,0.01254
809.0,0.01219
810.0,0.01199
811.0,0.0119
812.0,0.01138
813.0,0.01105
814.0,0.00944
815.0,0.009351
816.0,0.008589
817.0,0.008718
818.0,0.008317
819.0,0.00945
820.0,0.008799
821.0,0.01058
822.0,0.01018
823.0,0.006465
824.0,0.009705
825.0,0.01024
826.0,0.009704
827.0,0.01032
828.0,0.008418
829.0,0.009557
830.0,0.009378
831.0,0.009372
832.0,0.008989
833.0,0.009683
834.0,0.009221
835.0,0.01031
836.0,0.009666
837.0,0.01025
838.0,0.009817
839.0,0.01
840.0,0.0102
841.0,0.009972
842.0,0.009997
843.0,0.01
844.0,0.009787
845.0,0.01011
846.0,0.01003
847.0,0.009807
848.0,0.009675
849.0,0.009352
850.0,0.008916
851.0,0.009363
852.0,0.00926
853.0,0.008888
854.0,0.007624
855.0,0.008366
856.0,0.009098
857.0,0.009284
858.0,0.009175
859.0,0.009158
860.0,0.009145
861.0,0.00906
862.0,0.009176
863.0,0.009362
864.0,0.008863
865.0,0.008754
866.0,0.007842
867.0,0.008153
868.0,0.008838
869.0,0.008621
870.0,0.008833
871.0,0.008677
872.0,0.008613
873.0,0.008561
874.0,0.008423
875.0,0.008215
876.0,0.008263
877.0,0.008313
878.0,0.008363
879.0,0.0082
880.0,0.00799
881.0,0.007826
882.0,0.007958
883.0,0.00796
884.0,0.007884
885.0,0.007906
886.0,0.007467
887.0,0.007543
888.0,0.007606
889.0,0.007689
890.0,0.007552
891.0,0.007529
892.0,0.007238
893.0,0.006933
894.0,0.00656
895.0,0.006056
896.0,0.005624
897.0,0.004684
898.0,0.005151
899.0,0.003758
900.0,0.005304
901.0,0.003934
902.0,0.00474
903.0,0.004723
904.0,0.006238
905.0,0.00596
906.0,0.005509
907.0,0.004256
908.0,0.004367
909.0,0.004786
910.0,0.004093
911.0,0.004441
912.0,0.00463
913.0,0.0041
914.0,0.004068
915.0,0.004405
916.0,0.003665
917.0,0.004794
918.0,0.003728
919.0,0.004875
920.0,0.004996
921.0,0.005192
922.0,0.004518
923.0,0.004985
924.0,0.004573
925.0,0.004453
926.0,0.004476
927.0,0.005084
928.0,0.003468
929.0,0.003104
930.0,0.002348
931.0,0.002207
932.0,0.001534
933.0,0.001226
934.0,0.0006508
935.0,0.001252
936.0,0.000762
937.0,0.0007686
938.0,0.0009465
939.0,0.002064
940.0,0.002525
941.0,0.00184
942.0,0.002146
943.0,0.001363
944.0,0.001456
945.0,0.001872
946.0,0.0009077
947.0,0.001857
948.0,0.001345
949.0,0.002538
950.0,0.0006473
951.0,0.00248
952.0,0.001263
953.0,0.001659
954.0,0.002076
955.0,0.001673
956.0,0.001656
957.0,0.00124
958.0,0.002397
959.0,0.001827
960.0,0.002052
961.0,0.002347
962.0,0.002206
963.0,0.002594
964.0,0.002344
965.0,0.002557
966.0,0.00255
967.0,0.002519
968.0,0.003639
969.0,0.00376
970.0,0.003403
971.0,0.004026
972.0,0.003792
973.0,0.00316
974.0,0.002976
975.0,0.003105
976.0,0.002876
977.0,0.003411
978.0,0.003164
979.0,0.003338
980.0,0.003099
981.0,0.003852
982.0,0.00362
983.0,0.003433
984.0,0.00399
985.0,0.00356
986.0,0.004072
987.0,0.00394
988.0,0.00392
989.0,0.004039
990.0,0.003861
991.0,0.004004
992.0,0.004018
993.0,0.003878
994.0,0.003996
995.0,0.003984
996.0,0.003945
997.0,0.003941
998.0,0.003906
999.0,0.00388
1000.0,0.003827
1001.0,0.003873
1002.0,0.003703
1003.0,0.003773
1004.0,0.003653
1005.0,0.003524
1006.0,0.003639
1007.0,0.003706
1008.0,0.003664
1009.0,0.003621
1010.0,0.003588
1011.0,0.003633
1012.0,0.003579
1013.0,0.0036
1014.0,0.003562
1015.0,0.003523
1016.0,0.003493
1017.0,0.003486
1018.0,0.003466
1019.0,0.003361
1020.0,0.003418
1021.0,0.003403
1022.0,0.003357
1023.0,0.00338
1024.0,0.003306
1025.0,0.003358
1026.0,0.003327
1027.0,0.003307
1028.0,0.003287
1029.0,0.003234
1030.0,0.003251
1031.0,0.003223
1032.0,0.003203
1033.0,0.003142
1034.0,0.003131
1035.0,0.003129
1036.0,0.003131
1037.0,0.003069
1038.0,0.003071
1039.0,0.003057
1040.0,0.003033
1041.0,0.003032
1042.0,0.002999
1043.0,0.002978
1044.0,0.002976
1045.0,0.002923
1046.0,0.002879
1047.0,0.002893
1048.0,0.002897
1049.0,0.002875
1050.0,0.00285
1051.0,0.002834
1052.0,0.00281
1053.0,0.002776
1054.0,0.00277
1055.0,0.002759
1056.0,0.002737
1057.0,0.002716
1058.0,0.002638
1059.0,0.002629
1060.0,0.002614
1061.0,0.0026
1062.0,0.002601
1063.0,0.002564
1064.0,0.002586
1065.0,0.002552
1066.0,0.002497
1067.0,0.002519
1068.0,0.002451
1069.0,0.00237
1070.0,0.002437
1071.0,0.002479
1072.0,0.002432
1073.0,0.002391
1074.0,0.002458
1075.0,0.002296
1076.0,0.002436
1077.0,0.002367
1078.0,0.002305
1079.0,0.002378
1080.0,0.002301
1081.0,0.002207
1082.0,0.002261
1083.0,0.002268
1084.0,0.002168
1085.0,0.00227
1086.0,0.002016
1087.0,0.002108
1088.0,0.002219
1089.0,0.00211
1090.0,0.002039
1091.0,0.002179
1092.0,0.002171
1093.0,0.001753
1094.0,0.001963
1095.0,0.00182
1096.0,0.001716
1097.0,0.002085
1098.0,0.001667
1099.0,0.001742
1100.0,0.001585
1101.0,0.001611
1102.0,0.001515
1103.0,0.001481
1104.0,0.001481
1105.0,0.001658
1106.0,0.001175
1107.0,0.001547
1108.0,0.001251
1109.0,0.001252
1110.0,0.001503
1111.0,0.0009418
1112.0,0.001231
1113.0,0.0007243
1114.0,0.0008103
1115.0,0.0006614
1116.0,0.0005096
1117.0,0.000177
1118.0,0.0005539
1119.0,0.0002631
1120.0,0.0003298
1121.0,0.0004409
1122.0,0.0001791
1123.0,0.0002947
1124.0,0.0002475
1125.0,0.0003243
1126.0,0.0001081
1127.0,0.0003641
1128.0,0.0002112
1129.0,0.0002239
1130.0,0.0001456
1131.0,0.0007103
1132.0,0.0005469
1133.0,0.0003335
1134.0,8.171e-05
1135.0,3.061e-05
1136.0,0.0002724
1137.0,0.000679
1138.0,0.0004699
1139.0,0.0007369
1140.0,0.0005972
1141.0,0.0004419
1142.0,0.0005125
1143.0,0.0007474
1144.0,0.0002438
1145.0,0.0003082
1146.0,0.0003314
1147.0,0.0001122
1148.0,0.0006294
1149.0,0.0004902
1150.0,0.0002589
1151.0,0.0004458
1152.0,0.0005581
1153.0,0.0005491
1154.0,0.0002902
1155.0,0.0007289
1156.0,0.0006448
1157.0,0.0007417
1158.0,0.0007305
1159.0,0.0007949
1160.0,0.0006688
1161.0,0.0008535
1162.0,0.0008506
1163.0,0.001222
1164.0,0.001014
1165.0,0.0009331
1166.0,0.0009379
1167.0,0.001032
1168.0,0.001039
1169.0,0.001067
1170.0,0.001179
1171.0,0.001142
1172.0,0.001174
1173.0,0.001164
1174.0,0.000778
1175.0,0.001143
1176.0,0.001287
1177.0,0.001208
1178.0,0.0008583
1179.0,0.001284
1180.0,0.001103
1181.0,0.001139
1182.0,0.0007333
1183.0,0.001121
1184.0,0.001027
1185.0,0.0009749
1186.0,0.001204
1187.0,0.001126
1188.0,0.0007276
1189.0,0.001037
1190.0,0.001163
1191.0,0.001071
1192.0,0.001175
1193.0,0.00111
1194.0,0.001149
1195.0,0.001064
1196.0,0.00101
1197.0,0.001149
1198.0,0.001035
1199.0,0.0008375
1200.0,0.001074
1201.0,0.001016
1202.0,0.001019
1203.0,0.001002
1204.0,0.0008516
1205.0,0.001044
1206.0,0.001177
1207.0,0.000997
1208.0,0.0009909
1209.0,0.001008
1210.0,0.001059
1211.0,0.0009904
1212.0,0.0009543
1213.0,0.001101
1214.0,0.0009791
1215.0,0.0009552
1216.0,0.00109
1217.0,0.001049
1218.0,0.001073
1219.0,0.001051
1220.0,0.001068
1221.0,0.001082
1222.0,0.001045
1223.0,0.001029
1224.0,0.00101
1225.0,0.001059
1226.0,0.00107
1227.0,0.0009601
1228.0,0.001072
1229.0,0.00106
1230.0,0.001034
1231.0,0.001074
1232.0,0.001064
1233.0,0.001006
1234.0,0.001067
1235.0,0.001054
1236.0,0.001061
1237.0,0.001036
1238.0,0.00105
1239.0,0.001033
1240.0,0.001035
1241.0,0.001022
1242.0,0.001021
1243.0,0.001009
1244.0,0.001011
1245.0,0.001013
1246.0,0.001004
1247.0,0.0009958
1248.0,0.0009894
1249.0,0.0009916
1250.0,0.0009809
1251.0,0.000962
1252.0,0.0009632
1253.0,0.0009452
1254.0,0.0009275
1255.0,0.0009512
1256.0,0.0009085
1257.0,0.0008981
1258.0,0.0009222
1259.0,0.0008669
1260.0,0.0008711
1261.0,0.0007982
1262.0,0.0007617
1263.0,0.0007604
1264.0,0.0006793
1265.0,0.0007514
1266.0,0.0007083
1267.0,0.0007271
1268.0,0.0006741
1269.0,0.0003719
1270.0,0.0007147
1271.0,0.0007756
1272.0,0.0007774
1273.0,0.0007644
1274.0,0.0007677
1275.0,0.00078
1276.0,0.0007893
1277.0,0.0007976
1278.0,0.0008187
1279.0,0.0008091
1280.0,0.0007963
1281.0,0.0007617
1282.0,0.0007385
1283.0,0.0007915
1284.0,0.0008067
1285.0,0.0008107
1286.0,0.0008229
1287.0,0.0008006
1288.0,0.0008003
1289.0,0.0007593
1290.0,0.0007887
1291.0,0.0007997
1292.0,0.0007262
1293.0,0.0007738
1294.0,0.0007649
1295.0,0.0007513
1296.0,0.0007023
1297.0,0.0006531
1298.0,0.0007204
1299.0,0.0007622
1300.0,0.0006102
1301.0,0.0006319
1302.0,0.0007109
1303.0,0.0005983
1304.0,0.0004856
1305.0,0.000687
1306.0,0.0006817
1307.0,0.0004976
1308.0,0.0005929
1309.0,0.0006656
1310.0,0.0004811
1311.0,0.0005571
1312.0,0.0005392
1313.0,0.0005196
1314.0,0.0004529
1315.0,0.0004437
1316.0,0.0005366
1317.0,0.0005011
1318.0,0.0005548
1319.0,0.0004055
1320.0,0.0003933
1321.0,0.0004689
1322.0,0.0004686
1323.0,0.0003327
1324.0,0.0003923
1325.0,0.0005102
1326.0,0.0004233
1327.0,0.0003985
1328.0,0.0003347
1329.0,0.0002391
1330.0,0.0003187
1331.0,0.0001816
1332.0,0.0001883
1333.0,0.000265
1334.0,0.0002278
1335.0,0.000318
1336.0,0.0002435
1337.0,0.0002135
1338.0,0.0002304
1339.0,0.0002293
1340.0,0.000224
1341.0,0.0002131
1342.0,0.0002243
1343.0,0.0001456
1344.0,8.673e-05
1345.0,0.0001247
1346.0,6.052e-05
