interpolation:linear
wavelength,value
280.0,9.933999999999999e-23
280.5,3.311e-21
281.0,1.7850000000000003e-20
281.5,4.835e-19
282.0,5.326e-19
282.5,1.291e-18
283.0,4.05e-18
283.5,6.592e-18
284.0,1.088e-16
284.5,3.186e-16
285.0,5.774e-16
285.5,2.775e-15
286.0,1.113e-14
286.5,4.975e-14
287.0,1.426e-13
287.5,5.502e-13
288.0,1.938e-12
288.5,5.645e-12
289.0,1.471e-11
289.5,4.384e-11
290.0,1.21e-10
290.5,2.463e-10
291.0,5.284e-10
291.5,1.518e-09
292.0,3.072e-09
292.5,4.289e-09
293.0,9.148e-09
293.5,2.211e-08
294.0,3.45e-08
294.5,4.54e-08
295.0,7.663e-08
295.5,1.293e-07
296.0,2.463e-07
296.5,3.398e-07
297.0,4.539e-07
297.5,1.193e-06
298.0,1.843e-06
298.5,1.822e-06
299.0,3.947e-06
299.5,6.329e-06
300.0,6.809e-06
300.5,9.625e-06
301.0,1.669e-05
301.5,2.546e-05
302.0,2.125e-05
302.5,4.131e-05
303.0,7.415e-05
303.5,9.413e-05
304.0,9.074e-05
304.5,0.0001454
305.0,0.0002447
305.5,0.0003
306.0,0.000298
306.5,0.0003881
307.0,0.0006377
307.5,0.0009376
308.0,0.001006
308.5,0.001248
309.0,0.00148
309.5,0.001985
310.0,0.002144
310.5,0.003598
311.0,0.004788
311.5,0.004737
312.0,0.005383
312.5,0.007127
313.0,0.008073
313.5,0.00751
314.0,0.01039
314.5,0.01054
315.0,0.01418
315.5,0.01108
316.0,0.0108
316.5,0.01704
317.0,0.02109
317.5,0.02132
318.0,0.01773
318.5,0.02493
319.0,0.03149
319.5,0.02313
320.0,0.02747
320.5,0.03906
321.0,0.03906
321.5,0.03783
322.0,0.03549
322.5,0.03102
323.0,0.03348
323.5,0.0451
324.0,0.05329
324.5,0.05216
325.0,0.04247
325.5,0.05832
326.0,0.07377
326.5,0.07716
327.0,0.0755
327.5,0.07128
328.0,0.05971
328.5,0.06732
329.0,0.0853
329.5,0.09843
330.0,0.0977
330.5,0.07461
331.0,0.07474
331.5,0.07841
332.0,0.08881
332.5,0.0897
333.0,0.08814
333.5,0.07679
334.0,0.07807
334.5,0.09373
335.0,0.09009
335.5,0.1063
336.0,0.07343
336.5,0.08382
337.0,0.06745
337.5,0.08321
338.0,0.08396
338.5,0.09825
339.0,0.0972
339.5,0.09329
340.0,0.1079
340.5,0.09745
341.0,0.09596
341.5,0.08817
342.0,0.1053
342.5,0.09842
343.0,0.1079
343.5,0.1013
344.0,0.07394
344.5,0.07527
345.0,0.09965
345.5,0.1017
346.0,0.08637
346.5,0.0977
347.0,0.1045
347.5,0.08434
348.0,0.09616
348.5,0.09607
349.0,0.08902
349.5,0.08797
350.0,0.1086
350.5,0.1144
351.0,0.1019
351.5,0.09861
352.0,0.1059
352.5,0.08257
353.0,0.1039
353.5,0.111
354.0,0.1151
354.5,0.1165
355.0,0.1158
355.5,0.1045
356.0,0.1091
356.5,0.09302
357.0,0.07671
357.5,0.09375
358.0,0.07417
358.5,0.06327
359.0,0.08831
359.5,0.1122
360.0,0.1188
360.5,0.09478
361.0,0.08627
361.5,0.09917
362.0,0.08562
362.5,0.1183
363.0,0.106
363.5,0.09748
364.0,0.119
364.5,0.1015
365.0,0.1032
365.5,0.1292
366.0,0.1367
366.5,0.1282
367.0,0.1246
367.5,0.129
368.0,0.1127
368.5,0.1135
369.0,0.1223
369.5,0.1301
370.0,0.1384
370.5,0.1072
371.0,0.1143
371.5,0.1428
372.0,0.09455
372.5,0.1131
373.0,0.1149
373.5,0.07457
374.0,0.1081
374.5,0.08937
375.0,0.0867
375.5,0.1292
376.0,0.1068
376.5,0.1105
377.0,0.1167
377.5,0.1363
378.0,0.1474
378.5,0.139
379.0,0.1145
379.5,0.1043
380.0,0.1082
380.5,0.1308
381.0,0.1308
381.5,0.1034
382.0,0.09165
382.5,0.07795
383.0,0.07201
383.5,0.0692
384.0,0.07617
384.5,0.1118
385.0,0.1106
385.5,0.1028
386.0,0.08783
386.5,0.1151
387.0,0.09543
387.5,0.1069
388.0,0.09851
388.5,0.09715
389.0,0.1046
389.5,0.1264
390.0,0.1266
390.5,0.1162
391.0,0.1365
391.5,0.1389
392.0,0.1167
392.5,0.1042
393.0,0.05786
393.5,0.04196
394.0,0.08519
394.5,0.1081
395.0,0.1316
395.5,0.1333
396.0,0.1153
396.5,0.06725
397.0,0.05035
397.5,0.1021
398.0,0.1427
398.5,0.1471
399.0,0.159
399.5,0.1581
400.0,0.1637
401.0,0.1611
402.0,0.1691
403.0,0.1598
404.0,0.1565
405.0,0.1557
406.0,0.1524
407.0,0.1491
408.0,0.1541
409.0,0.1641
410.0,0.1427
411.0,0.1537
412.0,0.1643
413.0,0.1594
414.0,0.1605
415.0,0.1601
416.0,0.162
417.0,0.1571
418.0,0.1533
419.0,0.1545
420.0,0.153
421.0,0.1592
422.0,0.1504
423.0,0.146
424.0,0.1534
425.0,0.1523
426.0,0.1475
427.0,0.144
428.0,0.1396
429.0,0.1315
430.0,0.1145
431.0,0.1127
432.0,0.1447
433.0,0.1446
434.0,0.1335
435.0,0.1386
436.0,0.1554
437.0,0.1524
438.0,0.1379
439.0,0.1417
440.0,0.1452
441.0,0.1494
442.0,0.1592
443.0,0.1541
444.0,0.1567
445.0,0.1525
446.0,0.1448
447.0,0.1557
448.0,0.1571
449.0,0.1567
450.0,0.1599
451.0,0.1648
452.0,0.1579
453.0,0.1477
454.0,0.1533
455.0,0.1532
456.0,0.1557
457.0,0.1571
458.0,0.1505
459.0,0.1485
460.0,0.1477
461.0,0.15
462.0,0.1503
463.0,0.1486
464.0,0.1456
465.0,0.1431
466.0,0.1437
467.0,0.1401
468.0,0.1407
469.0,0.1403
470.0,0.1349
471.0,0.134
472.0,0.1404
473.0,0.1377
474.0,0.137
475.0,0.1371
476.0,0.1318
477.0,0.131
478.0,0.1334
479.0,0.1313
480.0,0.1304
481.0,0.1316
482.0,0.1313
483.0,0.129
484.0,0.1258
485.0,0.1194
486.0,0.1039
487.0,0.1083
488.0,0.1181
489.0,0.1176
490.0,0.1228
491.0,0.1198
492.0,0.1124
493.0,0.1153
494.0,0.1158
495.0,0.116
496.0,0.1159
497.0,0.1167
498.0,0.1102
499.0,0.1105
500.0,0.1061
501.0,0.103
502.0,0.1004
503.0,0.1034
504.0,0.09966
505.0,0.1025
506.0,0.1051
507.0,0.09942
508.0,0.09586
509.0,0.0981
510.0,0.09709
511.0,0.09912
512.0,0.0995
513.0,0.09346
514.0,0.09209
515.0,0.09046
516.0,0.08954
517.0,0.07897
518.0,0.08241
519.0,0.08579
520.0,0.08819
521.0,0.08827
522.0,0.08757
523.0,0.0853
524.0,0.0875
525.0,0.08764
526.0,0.08292
527.0,0.0773
528.0,0.08091
529.0,0.08449
530.0,0.08254
531.0,0.08302
532.0,0.07952
533.0,0.07663
534.0,0.07838
535.0,0.07963
536.0,0.07989
537.0,0.07627
538.0,0.0771
539.0,0.07593
540.0,0.07226
541.0,0.07213
542.0,0.07373
543.0,0.07237
544.0,0.07306
545.0,0.07233
546.0,0.07208
547.0,0.07154
548.0,0.07019
549.0,0.06993
550.0,0.07026
551.0,0.06891
552.0,0.06889
553.0,0.06716
554.0,0.06824
555.0,0.06785
556.0,0.06642
557.0,0.0638
558.0,0.06272
559.0,0.06096
560.0,0.06114
561.0,0.06135
562.0,0.06031
563.0,0.06138
564.0,0.0592
565.0,0.05821
566.0,0.05689
567.0,0.05747
568.0,0.05645
569.0,0.05457
570.0,0.05416
571.0,0.05344
572.0,0.05423
573.0,0.05443
574.0,0.05391
575.0,0.05258
576.0,0.05183
577.0,0.05214
578.0,0.05115
579.0,0.05118
580.0,0.05201
581.0,0.0521
582.0,0.0529
583.0,0.05283
584.0,0.05308
585.0,0.05154
586.0,0.05019
587.0,0.05094
588.0,0.04927
589.0,0.04312
590.0,0.04484
591.0,0.04729
592.0,0.04626
593.0,0.04668
594.0,0.04591
595.0,0.04431
596.0,0.04591
597.0,0.04499
598.0,0.04455
599.0,0.04425
600.0,0.04404
601.0,0.04343
602.0,0.04289
603.0,0.04337
604.0,0.04388
605.0,0.04347
606.0,0.04315
607.0,0.04346
608.0,0.04286
609.0,0.04282
610.0,0.04241
611.0,0.04253
612.0,0.04229
613.0,0.04164
614.0,0.04096
615.0,0.04174
616.0,0.04025
617.0,0.04004
618.0,0.04145
619.0,0.04089
620.0,0.04098
621.0,0.04084
622.0,0.04018
623.0,0.03938
624.0,0.03855
625.0,0.03831
626.0,0.03873
627.0,0.03896
628.0,0.03565
629.0,0.03752
630.0,0.03649
631.0,0.03736
632.0,0.03682
633.0,0.03789
634.0,0.03746
635.0,0.03793
636.0,0.03733
637.0,0.03784
638.0,0.03812
639.0,0.03759
640.0,0.03712
641.0,0.03698
642.0,0.03672
643.0,0.0371
644.0,0.03688
645.0,0.03677
646.0,0.0357
647.0,0.03498
648.0,0.03487
649.0,0.03404
650.0,0.03427
651.0,0.03565
652.0,0.03381
653.0,0.0349
654.0,0.0344
655.0,0.03287
656.0,0.02909
657.0,0.02978
658.0,0.03331
659.0,0.03345
660.0,0.03346
661.0,0.03357
662.0,0.03347
663.0,0.0327
664.0,0.03302
665.0,0.03296
666.0,0.03288
667.0,0.03275
668.0,0.03267
669.0,0.03306
670.0,0.03279
671.0,0.03268
672.0,0.0323
673.0,0.0327
674.0,0.03245
675.0,0.03203
676.0,0.03213
677.0,0.03171
678.0,0.03169
679.0,0.03106
680.0,0.03118
681.0,0.03085
682.0,0.03068
683.0,0.03048
684.0,0.03019
685.0,0.03032
686.0,0.03001
687.0,0.01809
688.0,0.02175
689.0,0.02176
690.0,0.023
691.0,0.02445
692.0,0.02555
693.0,0.02521
694.0,0.02492
695.0,0.0261
696.0,0.02604
697.0,0.02788
698.0,0.02733
699.0,0.02633
700.0,0.02589
701.0,0.02545
702.0,0.02561
703.0,0.02556
704.0,0.02639
705.0,0.0263
706.0,0.02622
707.0,0.02614
708.0,0.02607
709.0,0.02607
710.0,0.0259
711.0,0.02581
712.0,0.02567
713.0,0.02526
714.0,0.02523
715.0,0.02423
716.0,0.02411
717.0,0.02011
718.0,0.01828
719.0,0.01655
720.0,0.01726
721.0,0.01936
722.0,0.02258
723.0,0.02066
724.0,0.01823
725.0,0.0178
726.0,0.01862
727.0,0.01892
728.0,0.01752
729.0,0.01831
730.0,0.01929
731.0,0.01831
732.0,0.01975
733.0,0.02106
734.0,0.02154
735.0,0.02095
736.0,0.02082
737.0,0.02081
738.0,0.02121
739.0,0.02069
740.0,0.02119
741.0,0.02091
742.0,0.02086
743.0,0.02129
744.0,0.02113
745.0,0.02105
746.0,0.02105
747.0,0.021
748.0,0.02085
749.0,0.02052
750.0,0.02042
751.0,0.02014
752.0,0.02015
753.0,0.02017
754.0,0.02013
755.0,0.01993
756.0,0.01984
757.0,0.01979
758.0,0.01945
759.0,0.01885
760.0,0.002636
761.0,0.001393
762.0,0.008282
763.0,0.003967
764.0,0.006013
765.0,0.00816
766.0,0.01033
767.0,0.01354
768.0,0.01618
769.0,0.01661
770.0,0.01729
771.0,0.01744
772.0,0.01742
773.0,0.01745
774.0,0.01727
775.0,0.01706
776.0,0.01718
777.0,0.01686
778.0,0.01667
779.0,0.0166
780.0,0.01643
781.0,0.01638
782.0,0.01642
783.0,0.01607
784.0,0.01609
785.0,0.0159
786.0,0.01601
787.0,0.01559
788.0,0.01529
789.0,0.01521
790.0,0.01464
791.0,0.01481
792.0,0.01465
793.0,0.01433
794.0,0.01462
795.0,0.01478
796.0,0.01412
797.0,0.01407
798.0,0.01455
799.0,0.01437
800.0,0.01402
801.0,0.01388
802.0,0.01377
803.0,0.01359
804.0,0.01356
805.0,0.01349
806.0,0.01387
807.0,0.01362
808.0,0.01357
809.0,0.0132
810.0,0.01299
811.0,0.01289
812.0,0.01235
813.0,0.01199
814.0,0.01024
815.0,0.01014
816.0,0.009311
817.0,0.009459
818.0,0.009024
819.0,0.01026
820.0,0.009543
821.0,0.01147
822.0,0.01103
823.0,0.00699
824.0,0.01052
825.0,0.01108
826.0,0.0105
827.0,0.01117
828.0,0.009117
829.0,0.01034
830.0,0.01014
831.0,0.01014
832.0,0.009722
833.0,0.01048
834.0,0.009972
835.0,0.01113
836.0,0.01046
837.0,0.01107
838.0,0.01061
839.0,0.01081
840.0,0.01101
841.0,0.01078
842.0,0.0108
843.0,0.01079
844.0,0.01057
845.0,0.01091
846.0,0.01082
847.0,0.01058
848.0,0.01044
849.0,0.01009
850.0,0.009626
851.0,0.01011
852.0,0.01
853.0,0.009598
854.0,0.008235
855.0,0.009033
856.0,0.009824
857.0,0.01002
858.0,0.009904
859.0,0.009881
860.0,0.009865
861.0,0.009771
862.0,0.009894
863.0,0.01009
864.0,0.009554
865.0,0.009435
866.0,0.00845
867.0,0.008784
868.0,0.009521
869.0,0.009287
870.0,0.009514
871.0,0.009346
872.0,0.009276
873.0,0.00922
874.0,0.00907
875.0,0.008846
876.0,0.008898
877.0,0.008951
878.0,0.009006
879.0,0.008831
880.0,0.008605
881.0,0.00843
882.0,0.008574
883.0,0.008574
884.0,0.008493
885.0,0.008517
886.0,0.008049
887.0,0.008128
888.0,0.008197
889.0,0.008283
890.0,0.008141
891.0,0.008114
892.0,0.007805
893.0,0.007479
894.0,0.007087
895.0,0.006552
896.0,0.00608
897.0,0.005059
898.0,0.005573
899.0,0.004049
900.0,0.005737
901.0,0.004247
902.0,0.00513
903.0,0.005111
904.0,0.006744
905.0,0.00644
906.0,0.005953
907.0,0.004599
908.0,0.004714
909.0,0.005176
910.0,0.004418
911.0,0.004787
912.0,0.005005
913.0,0.004427
914.0,0.004389
915.0,0.004766
916.0,0.00395
917.0,0.005187
918.0,0.004022
919.0,0.005274
920.0,0.005388
921.0,0.005614
922.0,0.00488
923.0,0.005388
924.0,0.004949
925.0,0.004816
926.0,0.004848
927.0,0.005513
928.0,0.003748
929.0,0.003349
930.0,0.002523
931.0,0.002372
932.0,0.001633
933.0,0.001297
934.0,0.0006773
935.0,0.001328
936.0,0.000799
937.0,0.0008058
938.0,0.0009965
939.0,0.002218
940.0,0.002727
941.0,0.001974
942.0,0.002312
943.0,0.001452
944.0,0.001555
945.0,0.00201
946.0,0.0009575
947.0,0.001992
948.0,0.001433
949.0,0.00274
950.0,0.0006769
951.0,0.002681
952.0,0.001341
953.0,0.001775
954.0,0.002236
955.0,0.001791
956.0,0.001767
957.0,0.001316
958.0,0.002585
959.0,0.00196
960.0,0.002206
961.0,0.002529
962.0,0.002374
963.0,0.002798
964.0,0.002524
965.0,0.002763
966.0,0.002751
967.0,0.002718
968.0,0.003927
969.0,0.004071
970.0,0.003676
971.0,0.004348
972.0,0.004097
973.0,0.003416
974.0,0.003212
975.0,0.003354
976.0,0.00311
977.0,0.003679
978.0,0.003418
979.0,0.003609
980.0,0.003344
981.0,0.00416
982.0,0.003909
983.0,0.003707
984.0,0.004303
985.0,0.003847
986.0,0.004385
987.0,0.004243
988.0,0.004219
989.0,0.004346
990.0,0.00416
991.0,0.004311
992.0,0.004325
993.0,0.004175
994.0,0.004299
995.0,0.004285
996.0,0.004244
997.0,0.004238
998.0,0.004201
999.0,0.004172
1000.0,0.004118
1001.0,0.004165
1002.0,0.003991
1003.0,0.004058
1004.0,0.003931
1005.0,0.003789
1006.0,0.003913
1007.0,0.003985
1008.0,0.003941
1009.0,0.003896
1010.0,0.003861
1011.0,0.003906
1012.0,0.003849
1013.0,0.00387
1014.0,0.003829
1015.0,0.003788
1016.0,0.003755
1017.0,0.003749
1018.0,0.003725
1019.0,0.003615
1020.0,0.003674
1021.0,0.003658
1022.0,0.00361
1023.0,0.003634
1024.0,0.003557
1025.0,0.00361
1026.0,0.003577
1027.0,0.003555
1028.0,0.003534
1029.0,0.003478
1030.0,0.003494
1031.0,0.003464
1032.0,0.003443
1033.0,0.003378
1034.0,0.003365
1035.0,0.003363
1036.0,0.003366
1037.0,0.003299
1038.0,0.003301
1039.0,0.003286
1040.0,0.00326
1041.0,0.00326
1042.0,0.003224
1043.0,0.003202
1044.0,0.0032
1045.0,0.003144
1046.0,0.003096
1047.0,0.003111
1048.0,0.003116
1049.0,0.003093
1050.0,0.003066
1051.0,0.003049
1052.0,0.003024
1053.0,0.002988
1054.0,0.002982
1055.0,0.00297
1056.0,0.002946
1057.0,0.002924
1058.0,0.002841
1059.0,0.002831
1060.0,0.002816
1061.0,0.002801
1062.0,0.002802
1063.0,0.002763
1064.0,0.002787
1065.0,0.002751
1066.0,0.002691
1067.0,0.002715
1068.0,0.002642
1069.0,0.002554
1070.0,0.002627
1071.0,0.00267
1072.0,0.00262
1073.0,0.002576
1074.0,0.002647
1075.0,0.002472
1076.0,0.002623
1077.0,0.002548
1078.0,0.002483
1079.0,0.002559
1080.0,0.002479
1081.0,0.002378
1082.0,0.002435
1083.0,0.002441
1084.0,0.002338
1085.0,0.002445
1086.0,0.002173
1087.0,0.002272
1088.0,0.002388
1089.0,0.002275
1090.0,0.002198
1091.0,0.002346
1092.0,0.002338
1093.0,0.001891
1094.0,0.002114
1095.0,0.001966
1096.0,0.001854
1097.0,0.002245
1098.0,0.001803
1099.0,0.001885
1100.0,0.001713
1101.0,0.00174
1102.0,0.001637
1103.0,0.001602
1104.0,0.001601
1105.0,0.001795
1106.0,0.001268
1107.0,0.001672
1108.0,0.00135
1109.0,0.001353
1110.0,0.001628
1111.0,0.001015
1112.0,0.001331
1113.0,0.0007756
1114.0,0.0008704
1115.0,0.000708
1116.0,0.0005412
1117.0,0.0001833
1118.0,0.0005902
1119.0,0.0002751
1120.0,0.0003457
1121.0,0.0004655
1122.0,0.0001854
1123.0,0.0003086
1124.0,0.0002585
1125.0,0.0003406
1126.0,0.0001111
1127.0,0.0003832
1128.0,0.0002191
1129.0,0.0002326
1130.0,0.0001504
1131.0,0.0007623
1132.0,0.0005829
1133.0,0.0003499
1134.0,8.384e-05
1135.0,3.133e-05
1136.0,0.0002841
1137.0,0.0007271
1138.0,0.0004995
1139.0,0.0007945
1140.0,0.00064
1141.0,0.0004693
1142.0,0.0005467
1143.0,0.0008052
1144.0,0.0002554
1145.0,0.0003233
1146.0,0.0003479
1147.0,0.0001153
1148.0,0.0006762
1149.0,0.0005227
1150.0,0.0002718
1151.0,0.0004737
1152.0,0.0005974
1153.0,0.0005884
1154.0,0.0003042
1155.0,0.0007866
1156.0,0.0006934
1157.0,0.000799
1158.0,0.0007866
1159.0,0.0008597
1160.0,0.0007181
1161.0,0.000921
1162.0,0.0009178
1163.0,0.001323
1164.0,0.001096
1165.0,0.001007
1166.0,0.001011
1167.0,0.001114
1168.0,0.001121
1169.0,0.001153
1170.0,0.001273
1171.0,0.001233
1172.0,0.001265
1173.0,0.001257
1174.0,0.000836
1175.0,0.001232
1176.0,0.001384
1177.0,0.001302
1178.0,0.0009222
1179.0,0.001382
1180.0,0.001189
1181.0,0.001229
1182.0,0.0007885
1183.0,0.00121
1184.0,0.001108
1185.0,0.001052
1186.0,0.001298
1187.0,0.001215
1188.0,0.0007843
1189.0,0.001119
1190.0,0.001252
1191.0,0.001157
1192.0,0.001265
1193.0,0.001196
1194.0,0.001238
1195.0,0.001147
1196.0,0.00109
1197.0,0.001238
1198.0,0.001114
1199.0,0.0009032
1200.0,0.001157
1201.0,0.001097
1202.0,0.001097
1203.0,0.001082
1204.0,0.0009174
1205.0,0.001123
1206.0,0.001266
1207.0,0.001074
1208.0,0.001067
1209.0,0.001086
1210.0,0.00114
1211.0,0.001066
1212.0,0.001032
1213.0,0.001187
1214.0,0.001058
1215.0,0.001031
1216.0,0.001174
1217.0,0.001131
1218.0,0.001156
1219.0,0.001133
1220.0,0.00115
1221.0,0.001164
1222.0,0.001125
1223.0,0.001107
1224.0,0.00109
1225.0,0.00114
1226.0,0.00115
1227.0,0.001035
1228.0,0.001153
1229.0,0.00114
1230.0,0.001112
1231.0,0.001154
1232.0,0.001143
1233.0,0.001083
1234.0,0.001146
1235.0,0.001132
1236.0,0.001139
1237.0,0.001113
1238.0,0.001128
1239.0,0.001109
1240.0,0.001111
1241.0,0.001098
1242.0,0.001096
1243.0,0.001083
1244.0,0.001086
1245.0,0.001088
1246.0,0.001078
1247.0,0.001069
1248.0,0.001063
1249.0,0.001065
1250.0,0.001054
1251.0,0.001034
1252.0,0.001034
1253.0,0.001017
1254.0,0.0009985
1255.0,0.001022
1256.0,0.0009787
1257.0,0.0009679
1258.0,0.0009919
1259.0,0.000936
1260.0,0.0009401
1261.0,0.000865
1262.0,0.0008268
1263.0,0.0008255
1264.0,0.0007394
1265.0,0.0008157
1266.0,0.0007703
1267.0,0.0007899
1268.0,0.0007336
1269.0,0.0003997
1270.0,0.0007769
1271.0,0.0008401
1272.0,0.0008421
1273.0,0.0008284
1274.0,0.0008313
1275.0,0.0008442
1276.0,0.0008536
1277.0,0.0008612
1278.0,0.0008828
1279.0,0.0008718
1280.0,0.0008583
1281.0,0.0008202
1282.0,0.000794
1283.0,0.0008512
1284.0,0.0008676
1285.0,0.0008717
1286.0,0.0008842
1287.0,0.0008614
1288.0,0.0008604
1289.0,0.0008186
1290.0,0.0008481
1291.0,0.0008593
1292.0,0.0007833
1293.0,0.000832
1294.0,0.0008225
1295.0,0.0008097
1296.0,0.000758
1297.0,0.0007053
1298.0,0.0007764
1299.0,0.0008194
1300.0,0.0006579
1301.0,0.0006818
1302.0,0.0007657
1303.0,0.0006453
1304.0,0.0005239
1305.0,0.0007401
1306.0,0.0007355
1307.0,0.0005368
1308.0,0.0006391
1309.0,0.0007192
1310.0,0.0005193
1311.0,0.0006008
1312.0,0.0005809
1313.0,0.0005614
1314.0,0.0004892
1315.0,0.0004794
1316.0,0.000579
1317.0,0.0005408
1318.0,0.0005986
1319.0,0.0004374
1320.0,0.0004241
1321.0,0.0005063
1322.0,0.0005067
1323.0,0.0003584
1324.0,0.0004227
1325.0,0.0005517
1326.0,0.0004569
1327.0,0.0004301
1328.0,0.0003608
1329.0,0.0002562
1330.0,0.000343
1331.0,0.0001927
1332.0,0.0002004
1333.0,0.0002842
1334.0,0.0002434
1335.0,0.0003431
1336.0,0.0002611
1337.0,0.0002278
1338.0,0.0002462
1339.0,0.0002454
1340.0,0.0002398
1341.0,0.0002276
1342.0,0.0002397
1343.0,0.0001529
1344.0,9.055e-05
1345.0,0.0001309
1346.0,6.228e-05
1347.0,6.292e-05
1348.0,4.002e-06
1349.0,1.437e-05
1350.0,1.49e-05
1351.0,3.595e-06
1352.0,9.668e-07
