interpolation:linear
wavelength,value
280.0,1.4189999999999998e-22
280.5,4.708e-21
281.0,2.5340000000000003e-20
281.5,4.024e-19
282.0,5.645e-19
282.5,1.387e-18
283.0,4.378e-18
283.5,7.131e-18
284.0,1.179e-16
284.5,3.449e-16
285.0,5.812e-16
285.5,2.868e-15
286.0,1.156e-14
286.5,5.201e-14
287.0,1.494e-13
287.5,5.775e-13
288.0,2.054e-12
288.5,6.056e-12
289.0,1.589e-11
289.5,4.754e-11
290.0,1.314e-10
290.5,2.675e-10
291.0,5.737e-10
291.5,1.647e-09
292.0,3.311e-09
292.5,4.635e-09
293.0,9.917e-09
293.5,2.407e-08
294.0,3.76e-08
294.5,5.067e-08
295.0,8.573e-08
295.5,1.423e-07
296.0,2.734e-07
296.5,3.806e-07
297.0,5.126e-07
297.5,1.365e-06
298.0,2.136e-06
298.5,2.135e-06
299.0,4.672e-06
299.5,7.647e-06
300.0,8.328e-06
300.5,1.193e-05
301.0,2.113e-05
301.5,3.292e-05
302.0,2.777e-05
302.5,5.505e-05
303.0,0.0001004
303.5,0.0001286
304.0,0.0001244
304.5,0.0002015
305.0,0.0003441
305.5,0.0004257
306.0,0.0004244
306.5,0.0005559
307.0,0.0009255
307.5,0.001378
308.0,0.001481
308.5,0.00185
309.0,0.002122
309.5,0.00278
310.0,0.00297
310.5,0.004955
311.0,0.006535
311.5,0.00644
312.0,0.007178
312.5,0.009381
313.0,0.01055
313.5,0.009875
314.0,0.01345
314.5,0.01338
315.0,0.01792
315.5,0.01414
316.0,0.01355
316.5,0.02109
317.0,0.0261
317.5,0.02648
318.0,0.02181
318.5,0.03012
319.0,0.03769
319.5,0.02808
320.0,0.03342
320.5,0.04665
321.0,0.04587
321.5,0.04435
322.0,0.04233
322.5,0.03696
323.0,0.03943
323.5,0.05199
324.0,0.06127
324.5,0.06032
325.0,0.04986
325.5,0.06781
326.0,0.0846
326.5,0.08782
327.0,0.08614
327.5,0.08158
328.0,0.06902
328.5,0.07686
329.0,0.09649
329.5,0.111
330.0,0.1104
330.5,0.08487
331.0,0.08521
331.5,0.0889
332.0,0.09993
332.5,0.1006
333.0,0.09899
333.5,0.08669
334.0,0.08819
334.5,0.1052
335.0,0.1008
335.5,0.1187
336.0,0.08196
336.5,0.09383
337.0,0.07567
337.5,0.09342
338.0,0.09378
338.5,0.1094
339.0,0.1082
339.5,0.1038
340.0,0.1204
340.5,0.1086
341.0,0.1067
341.5,0.09789
342.0,0.1168
342.5,0.1091
343.0,0.1197
343.5,0.1124
344.0,0.08224
344.5,0.08357
345.0,0.1104
345.5,0.1126
346.0,0.09559
346.5,0.1081
347.0,0.1157
347.5,0.09332
348.0,0.1063
348.5,0.1061
349.0,0.09829
349.5,0.09711
350.0,0.1199
350.5,0.1262
351.0,0.1124
351.5,0.1089
352.0,0.1168
352.5,0.09102
353.0,0.1145
353.5,0.1222
354.0,0.1267
354.5,0.1282
355.0,0.1274
355.5,0.1149
356.0,0.12
356.5,0.1023
357.0,0.0843
357.5,0.103
358.0,0.08146
358.5,0.06947
359.0,0.09693
359.5,0.1232
360.0,0.1303
360.5,0.104
361.0,0.09459
361.5,0.1087
362.0,0.09382
362.5,0.1296
363.0,0.1161
363.5,0.1067
364.0,0.1302
364.5,0.1111
365.0,0.1129
365.5,0.1413
366.0,0.1494
366.5,0.1401
367.0,0.1361
367.5,0.141
368.0,0.1231
368.5,0.1239
369.0,0.1335
369.5,0.142
370.0,0.151
370.5,0.1169
371.0,0.1247
371.5,0.1556
372.0,0.1031
372.5,0.1233
373.0,0.1251
373.5,0.08121
374.0,0.1177
374.5,0.09728
375.0,0.09434
375.5,0.1405
376.0,0.1162
376.5,0.1201
377.0,0.1269
377.5,0.1481
378.0,0.1602
378.5,0.151
379.0,0.1243
379.5,0.1133
380.0,0.1175
380.5,0.1419
381.0,0.1418
381.5,0.1122
382.0,0.09936
382.5,0.08449
383.0,0.07802
383.5,0.07497
384.0,0.08249
384.5,0.121
385.0,0.1197
385.5,0.1112
386.0,0.09503
386.5,0.1245
387.0,0.1032
387.5,0.1156
388.0,0.1065
388.5,0.105
389.0,0.113
389.5,0.1365
390.0,0.1367
390.5,0.1255
391.0,0.1473
391.5,0.1498
392.0,0.1259
392.5,0.1124
393.0,0.06238
393.5,0.04523
394.0,0.0918
394.5,0.1164
395.0,0.1417
395.5,0.1436
396.0,0.1241
396.5,0.07238
397.0,0.05418
397.5,0.1099
398.0,0.1535
398.5,0.1582
399.0,0.1709
399.5,0.1699
400.0,0.1759
401.0,0.173
402.0,0.1815
403.0,0.1715
404.0,0.1679
405.0,0.167
406.0,0.1633
407.0,0.1598
408.0,0.165
409.0,0.1756
410.0,0.1526
411.0,0.1644
412.0,0.1757
413.0,0.1704
414.0,0.1715
415.0,0.1709
416.0,0.1729
417.0,0.1676
418.0,0.1635
419.0,0.1647
420.0,0.163
421.0,0.1695
422.0,0.1601
423.0,0.1554
424.0,0.1633
425.0,0.1619
426.0,0.1568
427.0,0.153
428.0,0.1483
429.0,0.1397
430.0,0.1215
431.0,0.1196
432.0,0.1535
433.0,0.1533
434.0,0.1415
435.0,0.1469
436.0,0.1646
437.0,0.1614
438.0,0.146
439.0,0.15
440.0,0.1537
441.0,0.1581
442.0,0.1684
443.0,0.163
444.0,0.1656
445.0,0.1611
446.0,0.153
447.0,0.1644
448.0,0.1658
449.0,0.1653
450.0,0.1687
451.0,0.1738
452.0,0.1665
453.0,0.1557
454.0,0.1615
455.0,0.1614
456.0,0.164
457.0,0.1654
458.0,0.1585
459.0,0.1564
460.0,0.1555
461.0,0.1579
462.0,0.1582
463.0,0.1563
464.0,0.1531
465.0,0.1504
466.0,0.151
467.0,0.1472
468.0,0.1478
469.0,0.1474
470.0,0.1417
471.0,0.1406
472.0,0.1473
473.0,0.1445
474.0,0.1437
475.0,0.1438
476.0,0.1382
477.0,0.1374
478.0,0.1399
479.0,0.1377
480.0,0.1367
481.0,0.138
482.0,0.1377
483.0,0.1353
484.0,0.1318
485.0,0.125
486.0,0.1088
487.0,0.1134
488.0,0.1236
489.0,0.123
490.0,0.1285
491.0,0.1254
492.0,0.1176
493.0,0.1206
494.0,0.121
495.0,0.1212
496.0,0.121
497.0,0.1218
498.0,0.115
499.0,0.1153
500.0,0.1108
501.0,0.1076
502.0,0.1049
503.0,0.108
504.0,0.1042
505.0,0.1071
506.0,0.1098
507.0,0.1039
508.0,0.1001
509.0,0.1024
510.0,0.1014
511.0,0.1035
512.0,0.1038
513.0,0.09753
514.0,0.0961
515.0,0.0944
516.0,0.09345
517.0,0.08242
518.0,0.08601
519.0,0.08953
520.0,0.09204
521.0,0.09213
522.0,0.0914
523.0,0.08905
524.0,0.09136
525.0,0.09154
526.0,0.08662
527.0,0.08077
528.0,0.08456
529.0,0.08832
530.0,0.0863
531.0,0.08682
532.0,0.08316
533.0,0.08015
534.0,0.08197
535.0,0.08326
536.0,0.08352
537.0,0.07973
538.0,0.08059
539.0,0.07937
540.0,0.07554
541.0,0.07541
542.0,0.0771
543.0,0.07568
544.0,0.07641
545.0,0.07566
546.0,0.0754
547.0,0.07483
548.0,0.07341
549.0,0.07314
550.0,0.07349
551.0,0.07208
552.0,0.07206
553.0,0.07025
554.0,0.07139
555.0,0.07098
556.0,0.06949
557.0,0.06676
558.0,0.06565
559.0,0.06381
560.0,0.06402
561.0,0.06425
562.0,0.06318
563.0,0.06431
564.0,0.06204
565.0,0.06101
566.0,0.05963
567.0,0.06025
568.0,0.05919
569.0,0.05723
570.0,0.0568
571.0,0.05606
572.0,0.05689
573.0,0.0571
574.0,0.05656
575.0,0.05516
576.0,0.05436
577.0,0.05469
578.0,0.05364
579.0,0.05365
580.0,0.0545
581.0,0.05459
582.0,0.0554
583.0,0.05533
584.0,0.05558
585.0,0.05395
586.0,0.05253
587.0,0.05332
588.0,0.05158
589.0,0.04515
590.0,0.04695
591.0,0.04951
592.0,0.04844
593.0,0.04888
594.0,0.04809
595.0,0.04643
596.0,0.0481
597.0,0.04715
598.0,0.04669
599.0,0.04639
600.0,0.04617
601.0,0.04553
602.0,0.04496
603.0,0.04546
604.0,0.04598
605.0,0.04555
606.0,0.04521
607.0,0.04552
608.0,0.04487
609.0,0.04481
610.0,0.04437
611.0,0.04448
612.0,0.04422
613.0,0.04352
614.0,0.0428
615.0,0.0436
616.0,0.04203
617.0,0.0418
618.0,0.04326
619.0,0.04267
620.0,0.04276
621.0,0.0426
622.0,0.0419
623.0,0.04107
624.0,0.04019
625.0,0.03994
626.0,0.04037
627.0,0.04061
628.0,0.03719
629.0,0.03911
630.0,0.03803
631.0,0.03891
632.0,0.03834
633.0,0.03944
634.0,0.03898
635.0,0.03946
636.0,0.03883
637.0,0.03934
638.0,0.03963
639.0,0.03906
640.0,0.03856
641.0,0.03841
642.0,0.03813
643.0,0.03852
644.0,0.03827
645.0,0.03816
646.0,0.03704
647.0,0.03631
648.0,0.03618
649.0,0.03532
650.0,0.03553
651.0,0.03695
652.0,0.03505
653.0,0.03617
654.0,0.03564
655.0,0.03406
656.0,0.03013
657.0,0.03084
658.0,0.03449
659.0,0.03463
660.0,0.03464
661.0,0.03474
662.0,0.03464
663.0,0.03384
664.0,0.03415
665.0,0.03408
666.0,0.03399
667.0,0.03386
668.0,0.03377
669.0,0.03416
670.0,0.03388
671.0,0.03375
672.0,0.03336
673.0,0.03376
674.0,0.0335
675.0,0.03306
676.0,0.03316
677.0,0.03272
678.0,0.0327
679.0,0.03205
680.0,0.03217
681.0,0.03182
682.0,0.03164
683.0,0.03144
684.0,0.03113
685.0,0.03126
686.0,0.03094
687.0,0.01873
688.0,0.0225
689.0,0.02251
690.0,0.02378
691.0,0.02526
692.0,0.02637
693.0,0.02602
694.0,0.0257
695.0,0.0269
696.0,0.02683
697.0,0.02871
698.0,0.02815
699.0,0.02713
700.0,0.02667
701.0,0.02623
702.0,0.02638
703.0,0.02632
704.0,0.02717
705.0,0.02708
706.0,0.02699
707.0,0.02691
708.0,0.02684
709.0,0.02683
710.0,0.02666
711.0,0.02656
712.0,0.02642
713.0,0.02599
714.0,0.02596
715.0,0.02493
716.0,0.02481
717.0,0.02072
718.0,0.01882
719.0,0.01704
720.0,0.01778
721.0,0.01993
722.0,0.02324
723.0,0.02125
724.0,0.01876
725.0,0.01832
726.0,0.01917
727.0,0.01946
728.0,0.01802
729.0,0.01883
730.0,0.01986
731.0,0.01883
732.0,0.02032
733.0,0.02166
734.0,0.02214
735.0,0.02154
736.0,0.02141
737.0,0.02139
738.0,0.0218
739.0,0.02126
740.0,0.02176
741.0,0.02148
742.0,0.02142
743.0,0.02186
744.0,0.0217
745.0,0.02161
746.0,0.02161
747.0,0.02156
748.0,0.02141
749.0,0.02106
750.0,0.02096
751.0,0.02067
752.0,0.02068
753.0,0.0207
754.0,0.02065
755.0,0.02045
756.0,0.02036
757.0,0.0203
758.0,0.01995
759.0,0.01935
760.0,0.002679
761.0,0.001411
762.0,0.008522
763.0,0.004047
764.0,0.006165
765.0,0.008395
766.0,0.01064
767.0,0.01394
768.0,0.01663
769.0,0.01706
770.0,0.01774
771.0,0.01789
772.0,0.01786
773.0,0.0179
774.0,0.01772
775.0,0.0175
776.0,0.01762
777.0,0.0173
778.0,0.0171
779.0,0.01703
780.0,0.01686
781.0,0.0168
782.0,0.01684
783.0,0.01648
784.0,0.0165
785.0,0.01631
786.0,0.01641
787.0,0.01599
788.0,0.01569
789.0,0.0156
790.0,0.01502
791.0,0.01518
792.0,0.01502
793.0,0.0147
794.0,0.01499
795.0,0.01515
796.0,0.01448
797.0,0.01443
798.0,0.01492
799.0,0.01473
800.0,0.01437
801.0,0.01423
802.0,0.01412
803.0,0.01394
804.0,0.01391
805.0,0.01383
806.0,0.01422
807.0,0.01396
808.0,0.01391
809.0,0.01354
810.0,0.01332
811.0,0.01322
812.0,0.01268
813.0,0.01231
814.0,0.01052
815.0,0.01041
816.0,0.009556
817.0,0.009711
818.0,0.009264
819.0,0.01053
820.0,0.009795
821.0,0.01176
822.0,0.01132
823.0,0.00717
824.0,0.0108
825.0,0.01136
826.0,0.01077
827.0,0.01145
828.0,0.009353
829.0,0.0106
830.0,0.01039
831.0,0.01039
832.0,0.009967
833.0,0.01074
834.0,0.01022
835.0,0.0114
836.0,0.01072
837.0,0.01134
838.0,0.01087
839.0,0.01108
840.0,0.01129
841.0,0.01105
842.0,0.01106
843.0,0.01105
844.0,0.01082
845.0,0.01117
846.0,0.01108
847.0,0.01083
848.0,0.0107
849.0,0.01034
850.0,0.00986
851.0,0.01036
852.0,0.01025
853.0,0.009832
854.0,0.008438
855.0,0.009253
856.0,0.01006
857.0,0.01026
858.0,0.01014
859.0,0.01012
860.0,0.0101
861.0,0.01001
862.0,0.01013
863.0,0.01033
864.0,0.009782
865.0,0.00966
866.0,0.008651
867.0,0.008993
868.0,0.009747
869.0,0.009507
870.0,0.009739
871.0,0.009567
872.0,0.009495
873.0,0.009437
874.0,0.009284
875.0,0.009055
876.0,0.009107
877.0,0.009162
878.0,0.009219
879.0,0.009039
880.0,0.008808
881.0,0.00863
882.0,0.008777
883.0,0.008778
884.0,0.008694
885.0,0.008719
886.0,0.008242
887.0,0.008321
888.0,0.008393
889.0,0.00848
890.0,0.008337
891.0,0.008307
892.0,0.007994
893.0,0.007661
894.0,0.007265
895.0,0.006721
896.0,0.006235
897.0,0.005188
898.0,0.005717
899.0,0.00415
900.0,0.005884
901.0,0.004357
902.0,0.005263
903.0,0.005245
904.0,0.006914
905.0,0.006601
906.0,0.006103
907.0,0.004717
908.0,0.004834
909.0,0.005309
910.0,0.004532
911.0,0.004906
912.0,0.005133
913.0,0.00454
914.0,0.0045
915.0,0.004892
916.0,0.004048
917.0,0.005323
918.0,0.004125
919.0,0.00541
920.0,0.00552
921.0,0.005757
922.0,0.005005
923.0,0.005524
924.0,0.00508
925.0,0.004941
926.0,0.004976
927.0,0.005659
928.0,0.003848
929.0,0.003438
930.0,0.002587
931.0,0.002432
932.0,0.00167
933.0,0.001325
934.0,0.0006877
935.0,0.001357
936.0,0.0008132
937.0,0.00082
938.0,0.001016
939.0,0.002275
940.0,0.0028
941.0,0.002023
942.0,0.002373
943.0,0.001485
944.0,0.001592
945.0,0.00206
946.0,0.0009764
947.0,0.002042
948.0,0.001465
949.0,0.002814
950.0,0.0006882
951.0,0.002754
952.0,0.00137
953.0,0.001818
954.0,0.002295
955.0,0.001835
956.0,0.001807
957.0,0.001344
958.0,0.002652
959.0,0.002008
960.0,0.002262
961.0,0.002595
962.0,0.002434
963.0,0.002871
964.0,0.002588
965.0,0.002835
966.0,0.002822
967.0,0.002789
968.0,0.004025
969.0,0.004178
970.0,0.00377
971.0,0.004457
972.0,0.004201
973.0,0.003505
974.0,0.003294
975.0,0.00344
976.0,0.003192
977.0,0.00377
978.0,0.003505
979.0,0.003702
980.0,0.003429
981.0,0.004264
982.0,0.004008
983.0,0.003801
984.0,0.004408
985.0,0.003946
986.0,0.00449
987.0,0.004345
988.0,0.00432
989.0,0.004448
990.0,0.004261
991.0,0.004413
992.0,0.004428
993.0,0.004275
994.0,0.004401
995.0,0.004386
996.0,0.004343
997.0,0.004338
998.0,0.004299
999.0,0.00427
1000.0,0.004215
1001.0,0.004262
1002.0,0.004087
1003.0,0.004153
1004.0,0.004024
1005.0,0.003877
1006.0,0.004005
1007.0,0.004078
1008.0,0.004033
1009.0,0.003988
1010.0,0.003952
1011.0,0.003998
1012.0,0.003939
1013.0,0.00396
1014.0,0.003918
1015.0,0.003876
1016.0,0.003843
1017.0,0.003836
1018.0,0.003812
1019.0,0.003701
1020.0,0.00376
1021.0,0.003743
1022.0,0.003694
1023.0,0.003719
1024.0,0.003641
1025.0,0.003694
1026.0,0.00366
1027.0,0.003638
1028.0,0.003616
1029.0,0.003559
1030.0,0.003576
1031.0,0.003545
1032.0,0.003523
1033.0,0.003456
1034.0,0.003444
1035.0,0.003441
1036.0,0.003444
1037.0,0.003376
1038.0,0.003378
1039.0,0.003363
1040.0,0.003337
1041.0,0.003336
1042.0,0.0033
1043.0,0.003277
1044.0,0.003275
1045.0,0.003218
1046.0,0.003169
1047.0,0.003184
1048.0,0.00319
1049.0,0.003166
1050.0,0.003138
1051.0,0.003121
1052.0,0.003096
1053.0,0.003059
1054.0,0.003053
1055.0,0.003041
1056.0,0.003017
1057.0,0.002994
1058.0,0.002909
1059.0,0.0029
1060.0,0.002883
1061.0,0.002868
1062.0,0.00287
1063.0,0.00283
1064.0,0.002854
1065.0,0.002818
1066.0,0.002756
1067.0,0.00278
1068.0,0.002706
1069.0,0.002615
1070.0,0.002691
1071.0,0.002734
1072.0,0.002684
1073.0,0.002638
1074.0,0.00271
1075.0,0.002533
1076.0,0.002686
1077.0,0.00261
1078.0,0.002543
1079.0,0.002619
1080.0,0.002539
1081.0,0.002436
1082.0,0.002493
1083.0,0.002499
1084.0,0.002395
1085.0,0.002504
1086.0,0.002226
1087.0,0.002327
1088.0,0.002445
1089.0,0.002331
1090.0,0.002252
1091.0,0.002402
1092.0,0.002393
1093.0,0.001939
1094.0,0.002165
1095.0,0.002017
1096.0,0.001901
1097.0,0.002299
1098.0,0.00185
1099.0,0.001934
1100.0,0.001758
1101.0,0.001785
1102.0,0.00168
1103.0,0.001644
1104.0,0.001643
1105.0,0.001842
1106.0,0.001301
1107.0,0.001715
1108.0,0.001385
1109.0,0.001389
1110.0,0.001671
1111.0,0.001042
1112.0,0.001367
1113.0,0.0007947
1114.0,0.0008929
1115.0,0.0007255
1116.0,0.0005534
1117.0,0.0001857
1118.0,0.0006042
1119.0,0.0002799
1120.0,0.0003522
1121.0,0.0004756
1122.0,0.0001879
1123.0,0.0003142
1124.0,0.0002629
1125.0,0.0003472
1126.0,0.0001122
1127.0,0.000391
1128.0,0.0002224
1129.0,0.0002362
1130.0,0.0001522
1131.0,0.0007828
1132.0,0.0005972
1133.0,0.0003567
1134.0,8.463e-05
1135.0,3.158e-05
1136.0,0.000289
1137.0,0.0007464
1138.0,0.0005113
1139.0,0.0008159
1140.0,0.0006564
1141.0,0.0004801
1142.0,0.0005601
1143.0,0.0008272
1144.0,0.00026
1145.0,0.0003295
1146.0,0.0003548
1147.0,0.0001165
1148.0,0.0006941
1149.0,0.0005353
1150.0,0.0002767
1151.0,0.0004848
1152.0,0.0006127
1153.0,0.0006032
1154.0,0.0003099
1155.0,0.0008081
1156.0,0.0007119
1157.0,0.0008201
1158.0,0.0008072
1159.0,0.0008833
1160.0,0.0007361
1161.0,0.0009452
1162.0,0.0009419
1163.0,0.001358
1164.0,0.001125
1165.0,0.001034
1166.0,0.001037
1167.0,0.001143
1168.0,0.00115
1169.0,0.001183
1170.0,0.001306
1171.0,0.001264
1172.0,0.001296
1173.0,0.00129
1174.0,0.0008568
1175.0,0.001262
1176.0,0.001418
1177.0,0.001334
1178.0,0.0009446
1179.0,0.001415
1180.0,0.001219
1181.0,0.00126
1182.0,0.000808
1183.0,0.00124
1184.0,0.001136
1185.0,0.001078
1186.0,0.00133
1187.0,0.001245
1188.0,0.0008045
1189.0,0.001147
1190.0,0.001283
1191.0,0.001186
1192.0,0.001296
1193.0,0.001225
1194.0,0.001268
1195.0,0.001177
1196.0,0.001118
1197.0,0.001268
1198.0,0.00114
1199.0,0.0009263
1200.0,0.001185
1201.0,0.001125
1202.0,0.001123
1203.0,0.001109
1204.0,0.0009402
1205.0,0.00115
1206.0,0.001296
1207.0,0.001101
1208.0,0.001093
1209.0,0.001113
1210.0,0.001167
1211.0,0.001092
1212.0,0.001058
1213.0,0.001216
1214.0,0.001085
1215.0,0.001058
1216.0,0.001202
1217.0,0.001158
1218.0,0.001184
1219.0,0.001161
1220.0,0.001178
1221.0,0.001192
1222.0,0.001151
1223.0,0.001134
1224.0,0.001117
1225.0,0.001168
1226.0,0.001178
1227.0,0.001061
1228.0,0.00118
1229.0,0.001167
1230.0,0.001139
1231.0,0.001181
1232.0,0.001169
1233.0,0.001109
1234.0,0.001172
1235.0,0.001158
1236.0,0.001165
1237.0,0.001139
1238.0,0.001154
1239.0,0.001135
1240.0,0.001137
1241.0,0.001123
1242.0,0.001121
1243.0,0.001108
1244.0,0.001111
1245.0,0.001113
1246.0,0.001103
1247.0,0.001094
1248.0,0.001088
1249.0,0.001089
1250.0,0.001078
1251.0,0.001058
1252.0,0.001058
1253.0,0.001041
1254.0,0.001023
1255.0,0.001046
1256.0,0.001002
1257.0,0.0009916
1258.0,0.001015
1259.0,0.0009595
1260.0,0.0009636
1261.0,0.0008879
1262.0,0.0008494
1263.0,0.000848
1264.0,0.0007607
1265.0,0.000838
1266.0,0.000792
1267.0,0.0008117
1268.0,0.0007545
1269.0,0.0004111
1270.0,0.0007986
1271.0,0.0008623
1272.0,0.0008643
1273.0,0.0008504
1274.0,0.0008532
1275.0,0.0008662
1276.0,0.0008755
1277.0,0.0008828
1278.0,0.0009045
1279.0,0.0008931
1280.0,0.0008793
1281.0,0.00084
1282.0,0.0008127
1283.0,0.0008714
1284.0,0.0008882
1285.0,0.0008923
1286.0,0.0009048
1287.0,0.000882
1288.0,0.0008808
1289.0,0.0008388
1290.0,0.0008681
1291.0,0.0008794
1292.0,0.000803
1293.0,0.0008517
1294.0,0.000842
1295.0,0.0008296
1296.0,0.0007772
1297.0,0.0007234
1298.0,0.0007955
1299.0,0.0008388
1300.0,0.0006745
1301.0,0.0006991
1302.0,0.0007844
1303.0,0.0006615
1304.0,0.0005376
1305.0,0.0007582
1306.0,0.0007538
1307.0,0.0005505
1308.0,0.0006549
1309.0,0.0007376
1310.0,0.0005328
1311.0,0.0006159
1312.0,0.0005955
1313.0,0.000576
1314.0,0.000502
1315.0,0.0004921
1316.0,0.0005938
1317.0,0.0005547
1318.0,0.0006137
1319.0,0.0004488
1320.0,0.000435
1321.0,0.0005194
1322.0,0.0005202
1323.0,0.0003679
1324.0,0.0004336
1325.0,0.0005662
1326.0,0.0004688
1327.0,0.0004413
1328.0,0.0003701
1329.0,0.0002626
1330.0,0.000352
1331.0,0.000197
1332.0,0.0002051
1333.0,0.0002917
1334.0,0.0002491
1335.0,0.0003524
1336.0,0.0002677
1337.0,0.0002332
1338.0,0.0002523
1339.0,0.0002516
1340.0,0.0002456
1341.0,0.0002332
1342.0,0.0002457
1343.0,0.0001559
1344.0,9.207e-05
1345.0,0.0001335
1346.0,6.302e-05
1347.0,6.363e-05
1348.0,4.018e-06
1349.0,1.445e-05
1350.0,1.499e-05
1351.0,3.609e-06
1352.0,9.702e-07
1353.0,4.937e-08
1354.0,1.697e-07
1355.0,1.366e-09
