interpolation:linear
wavelength,value
280.0,1.42e-21
280.5,4.5380000000000004e-20
281.0,2.409e-19
281.5,4.898e-19
282.0,9.962e-19
282.5,2.504e-18
283.0,7.929e-18
283.5,1.29e-17
284.0,2.086e-16
284.5,6.027e-16
285.0,1.245e-15
285.5,5.977e-15
286.0,2.385e-14
286.5,1.052e-13
287.0,2.982e-13
287.5,1.132e-12
288.0,3.348e-12
288.5,1.062e-11
289.0,2.917e-11
289.5,8.996e-11
290.0,2.527e-10
290.5,5.193e-10
291.0,1.122e-09
291.5,3.237e-09
292.0,6.572e-09
292.5,9.601e-09
293.0,2.162e-08
293.5,5.596e-08
294.0,9.11e-08
294.5,1.183e-07
295.0,2.066e-07
295.5,4.884e-07
296.0,8.893e-07
296.5,1.273e-06
297.0,1.761e-06
297.5,4.917e-06
298.0,8.077e-06
298.5,8.429e-06
299.0,1.936e-05
299.5,3.512e-05
300.0,4.097e-05
300.5,6.36e-05
301.0,0.0001321
301.5,0.0002469
302.0,0.0002332
302.5,0.0004571
303.0,0.0008253
303.5,0.001046
304.0,0.0009949
304.5,0.001542
305.0,0.002472
305.5,0.002932
306.0,0.002872
306.5,0.003656
307.0,0.00572
307.5,0.008012
308.0,0.008513
308.5,0.0103
309.0,0.01046
309.5,0.01213
310.0,0.01225
310.5,0.01987
311.0,0.02505
311.5,0.02419
312.0,0.02455
312.5,0.03016
313.0,0.03284
313.5,0.03158
314.0,0.04001
314.5,0.03621
315.0,0.04763
315.5,0.03924
316.0,0.03485
316.5,0.05081
317.0,0.06286
317.5,0.06485
318.0,0.05108
318.5,0.06489
319.0,0.07783
319.5,0.06185
320.0,0.07424
320.5,0.09523
321.0,0.08681
321.5,0.08319
322.0,0.08585
322.5,0.07455
323.0,0.07539
323.5,0.09416
324.0,0.1098
324.5,0.1105
325.0,0.09393
325.5,0.1223
326.0,0.1498
326.5,0.151
327.0,0.1494
327.5,0.1432
328.0,0.1258
328.5,0.1335
329.0,0.1614
329.5,0.1834
330.0,0.1837
330.5,0.1451
331.0,0.1469
331.5,0.1498
332.0,0.1632
332.5,0.1619
333.0,0.1603
333.5,0.1433
334.0,0.1461
334.5,0.1698
335.0,0.16
335.5,0.1887
336.0,0.1302
336.5,0.1495
337.0,0.1217
337.5,0.1506
338.0,0.1479
338.5,0.172
339.0,0.1692
339.5,0.1625
340.0,0.1885
340.5,0.1695
341.0,0.166
341.5,0.1512
342.0,0.1799
342.5,0.1676
343.0,0.1842
343.5,0.1732
344.0,0.127
344.5,0.1291
345.0,0.1691
345.5,0.1717
346.0,0.1453
346.5,0.1638
347.0,0.1756
347.5,0.1416
348.0,0.1605
348.5,0.1597
349.0,0.1476
349.5,0.1457
350.0,0.1796
350.5,0.1888
351.0,0.1682
351.5,0.1634
352.0,0.1746
352.5,0.1356
353.0,0.1701
353.5,0.1812
354.0,0.1874
354.5,0.1894
355.0,0.1881
355.5,0.1694
356.0,0.1766
356.5,0.1502
357.0,0.1237
357.5,0.1509
358.0,0.1192
358.5,0.1015
359.0,0.1414
359.5,0.1797
360.0,0.1898
360.5,0.1511
361.0,0.1373
361.5,0.1575
362.0,0.1358
362.5,0.1872
363.0,0.1676
363.5,0.1538
364.0,0.1875
364.5,0.1597
365.0,0.1621
365.5,0.2027
366.0,0.214
366.5,0.2004
367.0,0.1945
367.5,0.2011
368.0,0.1754
368.5,0.1763
369.0,0.1898
369.5,0.2016
370.0,0.2141
370.5,0.1656
371.0,0.1763
371.5,0.2198
372.0,0.1454
372.5,0.1737
373.0,0.1761
373.5,0.1142
374.0,0.1653
374.5,0.1364
375.0,0.1322
375.5,0.1966
376.0,0.1624
376.5,0.1677
377.0,0.1769
377.5,0.2063
378.0,0.2228
378.5,0.2098
379.0,0.1725
379.5,0.1569
380.0,0.1626
380.5,0.1962
381.0,0.1958
381.5,0.1547
382.0,0.1368
382.5,0.1162
383.0,0.1072
383.5,0.1029
384.0,0.1131
384.5,0.1657
385.0,0.1638
385.5,0.152
386.0,0.1297
386.5,0.1697
387.0,0.1405
387.5,0.1572
388.0,0.1446
388.5,0.1424
389.0,0.1532
389.5,0.1849
390.0,0.1848
390.5,0.1695
391.0,0.1987
391.5,0.202
392.0,0.1695
392.5,0.1512
393.0,0.0838
393.5,0.0607
394.0,0.1231
394.5,0.1559
395.0,0.1896
395.5,0.1919
396.0,0.1657
396.5,0.09652
397.0,0.07217
397.5,0.1462
398.0,0.204
398.5,0.2101
399.0,0.2267
399.5,0.2251
400.0,0.2329
401.0,0.2288
402.0,0.2396
403.0,0.2259
404.0,0.2208
405.0,0.2191
406.0,0.2139
407.0,0.2089
408.0,0.2154
409.0,0.2289
410.0,0.1986
411.0,0.2135
412.0,0.2277
413.0,0.2204
414.0,0.2215
415.0,0.2204
416.0,0.2225
417.0,0.2154
418.0,0.2098
419.0,0.211
420.0,0.2084
421.0,0.2164
422.0,0.204
423.0,0.1977
424.0,0.2075
425.0,0.2055
426.0,0.1987
427.0,0.1936
428.0,0.1872
429.0,0.1761
430.0,0.153
431.0,0.1504
432.0,0.1927
433.0,0.1922
434.0,0.1771
435.0,0.1836
436.0,0.2055
437.0,0.2013
438.0,0.1819
439.0,0.1867
440.0,0.1912
441.0,0.1965
442.0,0.2091
443.0,0.2021
444.0,0.205
445.0,0.1992
446.0,0.1888
447.0,0.2026
448.0,0.2041
449.0,0.2033
450.0,0.2073
451.0,0.2133
452.0,0.204
453.0,0.1905
454.0,0.1975
455.0,0.1971
456.0,0.2002
457.0,0.2018
458.0,0.1933
459.0,0.1908
460.0,0.1897
461.0,0.1925
462.0,0.1926
463.0,0.1901
464.0,0.1858
465.0,0.1823
466.0,0.1827
467.0,0.178
468.0,0.1786
469.0,0.178
470.0,0.171
471.0,0.1696
472.0,0.1775
473.0,0.1739
474.0,0.1728
475.0,0.1729
476.0,0.1663
477.0,0.1653
478.0,0.1684
479.0,0.1658
480.0,0.1647
481.0,0.1663
482.0,0.1658
483.0,0.1627
484.0,0.1583
485.0,0.1498
486.0,0.1301
487.0,0.1354
488.0,0.1474
489.0,0.1467
490.0,0.1531
491.0,0.1493
492.0,0.14
493.0,0.1435
494.0,0.1438
495.0,0.144
496.0,0.1438
497.0,0.1448
498.0,0.1369
499.0,0.1374
500.0,0.1322
501.0,0.1285
502.0,0.1255
503.0,0.1294
504.0,0.125
505.0,0.1285
506.0,0.1317
507.0,0.1245
508.0,0.1198
509.0,0.1224
510.0,0.121
511.0,0.1235
512.0,0.1239
513.0,0.1164
514.0,0.1147
515.0,0.1127
516.0,0.1116
517.0,0.09842
518.0,0.1027
519.0,0.1069
520.0,0.11
521.0,0.1101
522.0,0.1093
523.0,0.1066
524.0,0.1095
525.0,0.1099
526.0,0.1041
527.0,0.09722
528.0,0.1019
529.0,0.1066
530.0,0.1042
531.0,0.105
532.0,0.1006
533.0,0.09699
534.0,0.09919
535.0,0.1007
536.0,0.101
537.0,0.09633
538.0,0.09735
539.0,0.0959
540.0,0.09132
541.0,0.09123
542.0,0.09334
543.0,0.09167
544.0,0.09264
545.0,0.09177
546.0,0.09151
547.0,0.09082
548.0,0.0891
549.0,0.08878
550.0,0.08922
551.0,0.08752
552.0,0.0875
553.0,0.08533
554.0,0.08676
555.0,0.08631
556.0,0.08455
557.0,0.08129
558.0,0.08002
559.0,0.07788
560.0,0.07822
561.0,0.0786
562.0,0.07739
563.0,0.07888
564.0,0.07616
565.0,0.07496
566.0,0.07331
567.0,0.07413
568.0,0.0729
569.0,0.07059
570.0,0.07009
571.0,0.0692
572.0,0.0703
573.0,0.07058
574.0,0.06993
575.0,0.06821
576.0,0.06718
577.0,0.06752
578.0,0.06616
579.0,0.0661
580.0,0.06705
581.0,0.06706
582.0,0.06797
583.0,0.06781
584.0,0.06807
585.0,0.06605
586.0,0.06427
587.0,0.06522
588.0,0.06316
589.0,0.05542
590.0,0.05763
591.0,0.06072
592.0,0.05948
593.0,0.06002
594.0,0.05912
595.0,0.05719
596.0,0.0592
597.0,0.05812
598.0,0.05759
599.0,0.05725
600.0,0.05699
601.0,0.0562
602.0,0.05549
603.0,0.05608
604.0,0.05669
605.0,0.05611
606.0,0.05562
607.0,0.05593
608.0,0.05505
609.0,0.05489
610.0,0.05426
611.0,0.05431
612.0,0.05392
613.0,0.05299
614.0,0.05203
615.0,0.05293
616.0,0.05096
617.0,0.05062
618.0,0.05233
619.0,0.05156
620.0,0.05163
621.0,0.05141
622.0,0.05054
623.0,0.04949
624.0,0.04839
625.0,0.04807
626.0,0.04855
627.0,0.04882
628.0,0.04496
629.0,0.04704
630.0,0.04571
631.0,0.04664
632.0,0.04589
633.0,0.04714
634.0,0.04652
635.0,0.04703
636.0,0.0462
637.0,0.04676
638.0,0.04702
639.0,0.0463
640.0,0.04565
641.0,0.04541
642.0,0.04502
643.0,0.04544
644.0,0.04511
645.0,0.04494
646.0,0.04363
647.0,0.0428
648.0,0.0426
649.0,0.04158
650.0,0.04171
651.0,0.04333
652.0,0.04115
653.0,0.04235
654.0,0.04169
655.0,0.03985
656.0,0.03521
657.0,0.036
658.0,0.04022
659.0,0.04034
660.0,0.04031
661.0,0.0404
662.0,0.04028
663.0,0.03932
664.0,0.03964
665.0,0.03951
666.0,0.03936
667.0,0.03917
668.0,0.03902
669.0,0.03945
670.0,0.03909
671.0,0.03891
672.0,0.03844
673.0,0.03888
674.0,0.03855
675.0,0.03802
676.0,0.03811
677.0,0.03758
678.0,0.03753
679.0,0.03676
680.0,0.03688
681.0,0.03647
682.0,0.03625
683.0,0.03601
684.0,0.03564
685.0,0.03577
686.0,0.03539
687.0,0.02206
688.0,0.0263
689.0,0.02629
690.0,0.02765
691.0,0.02922
692.0,0.03037
693.0,0.02995
694.0,0.02952
695.0,0.03077
696.0,0.03066
697.0,0.03271
698.0,0.03205
699.0,0.03095
700.0,0.03043
701.0,0.02995
702.0,0.03009
703.0,0.03
704.0,0.0309
705.0,0.03079
706.0,0.03067
707.0,0.03056
708.0,0.03048
709.0,0.03042
710.0,0.03024
711.0,0.03012
712.0,0.02994
713.0,0.02947
714.0,0.02943
715.0,0.02829
716.0,0.02816
717.0,0.02375
718.0,0.02152
719.0,0.01946
720.0,0.02035
721.0,0.02271
722.0,0.02638
723.0,0.02416
724.0,0.02137
725.0,0.02089
726.0,0.02188
727.0,0.02213
728.0,0.02055
729.0,0.0214
730.0,0.02262
731.0,0.02144
732.0,0.02305
733.0,0.0245
734.0,0.02502
735.0,0.02436
736.0,0.02422
737.0,0.02419
738.0,0.02457
739.0,0.02396
740.0,0.02451
741.0,0.02417
742.0,0.0241
743.0,0.02458
744.0,0.0244
745.0,0.02429
746.0,0.02429
747.0,0.02423
748.0,0.02405
749.0,0.02366
750.0,0.02354
751.0,0.0232
752.0,0.0232
753.0,0.02321
754.0,0.02315
755.0,0.02291
756.0,0.02281
757.0,0.02274
758.0,0.02235
759.0,0.02172
760.0,0.002998
761.0,0.001539
762.0,0.009914
763.0,0.004614
764.0,0.007135
765.0,0.009762
766.0,0.01233
767.0,0.01597
768.0,0.0188
769.0,0.01922
770.0,0.0199
771.0,0.02003
772.0,0.01999
773.0,0.02003
774.0,0.01983
775.0,0.01959
776.0,0.01973
777.0,0.01938
778.0,0.01916
779.0,0.01907
780.0,0.01888
781.0,0.01881
782.0,0.01885
783.0,0.01844
784.0,0.01845
785.0,0.01823
786.0,0.01835
787.0,0.0179
788.0,0.01757
789.0,0.01747
790.0,0.01685
791.0,0.01699
792.0,0.0168
793.0,0.01644
794.0,0.01673
795.0,0.01691
796.0,0.01621
797.0,0.01617
798.0,0.01666
799.0,0.01646
800.0,0.01607
801.0,0.01592
802.0,0.01581
803.0,0.0156
804.0,0.01556
805.0,0.01547
806.0,0.01587
807.0,0.01559
808.0,0.01554
809.0,0.01514
810.0,0.01492
811.0,0.01483
812.0,0.01427
813.0,0.01386
814.0,0.01189
815.0,0.01176
816.0,0.01078
817.0,0.01096
818.0,0.01047
819.0,0.01188
820.0,0.01104
821.0,0.0132
822.0,0.0127
823.0,0.008096
824.0,0.01215
825.0,0.01271
826.0,0.01208
827.0,0.01281
828.0,0.01053
829.0,0.01187
830.0,0.01164
831.0,0.01164
832.0,0.01117
833.0,0.01203
834.0,0.01147
835.0,0.01272
836.0,0.01201
837.0,0.01265
838.0,0.01216
839.0,0.01236
840.0,0.01259
841.0,0.01233
842.0,0.01233
843.0,0.0123
844.0,0.01206
845.0,0.01244
846.0,0.01233
847.0,0.01206
848.0,0.01191
849.0,0.01152
850.0,0.01099
851.0,0.01156
852.0,0.01143
853.0,0.01096
854.0,0.009412
855.0,0.01031
856.0,0.01122
857.0,0.01143
858.0,0.0113
859.0,0.01127
860.0,0.01124
861.0,0.01113
862.0,0.01127
863.0,0.01149
864.0,0.01088
865.0,0.01074
866.0,0.009616
867.0,0.009994
868.0,0.01083
869.0,0.01056
870.0,0.01082
871.0,0.01063
872.0,0.01055
873.0,0.01048
874.0,0.01031
875.0,0.01006
876.0,0.01012
877.0,0.01018
878.0,0.01024
879.0,0.01004
880.0,0.009784
881.0,0.009591
882.0,0.009758
883.0,0.009755
884.0,0.009665
885.0,0.009693
886.0,0.009177
887.0,0.009255
888.0,0.00934
889.0,0.009427
890.0,0.009281
891.0,0.009241
892.0,0.008911
893.0,0.008551
894.0,0.008141
895.0,0.007567
896.0,0.00701
897.0,0.00585
898.0,0.006448
899.0,0.004675
900.0,0.006617
901.0,0.004929
902.0,0.00593
903.0,0.005926
904.0,0.00775
905.0,0.007404
906.0,0.006849
907.0,0.005326
908.0,0.005447
909.0,0.005981
910.0,0.005124
911.0,0.005519
912.0,0.005789
913.0,0.005136
914.0,0.00508
915.0,0.005551
916.0,0.004565
917.0,0.006019
918.0,0.004662
919.0,0.006098
920.0,0.006181
921.0,0.00647
922.0,0.005639
923.0,0.006202
924.0,0.005744
925.0,0.005578
926.0,0.005634
927.0,0.006392
928.0,0.004385
929.0,0.003926
930.0,0.002952
931.0,0.002772
932.0,0.001896
933.0,0.001494
934.0,0.0007614
935.0,0.00153
936.0,0.0009038
937.0,0.0009114
938.0,0.001138
939.0,0.002594
940.0,0.003201
941.0,0.00231
942.0,0.002718
943.0,0.001681
944.0,0.001792
945.0,0.002348
946.0,0.001093
947.0,0.002332
948.0,0.00165
949.0,0.003235
950.0,0.000762
951.0,0.003165
952.0,0.001548
953.0,0.002067
954.0,0.00262
955.0,0.00209
956.0,0.002025
957.0,0.00152
958.0,0.003001
959.0,0.002276
960.0,0.002578
961.0,0.002949
962.0,0.00276
963.0,0.003254
964.0,0.002928
965.0,0.003218
966.0,0.003204
967.0,0.003169
968.0,0.004515
969.0,0.004719
970.0,0.004249
971.0,0.004996
972.0,0.004715
973.0,0.003964
974.0,0.00372
975.0,0.003877
976.0,0.003619
977.0,0.004232
978.0,0.003954
979.0,0.004172
980.0,0.003859
981.0,0.004781
982.0,0.004506
983.0,0.004277
984.0,0.004923
985.0,0.00444
986.0,0.005001
987.0,0.004854
988.0,0.004825
989.0,0.004947
990.0,0.004762
991.0,0.004914
992.0,0.004927
993.0,0.004771
994.0,0.004894
995.0,0.004875
996.0,0.004829
997.0,0.004821
998.0,0.004779
999.0,0.004746
1000.0,0.004687
1001.0,0.004737
1002.0,0.004558
1003.0,0.004616
1004.0,0.004476
1005.0,0.004307
1006.0,0.004451
1007.0,0.004531
1008.0,0.004484
1009.0,0.004438
1010.0,0.004399
1011.0,0.004442
1012.0,0.00438
1013.0,0.0044
1014.0,0.004353
1015.0,0.004307
1016.0,0.00427
1017.0,0.004263
1018.0,0.004234
1019.0,0.004116
1020.0,0.004177
1021.0,0.004157
1022.0,0.004105
1023.0,0.004132
1024.0,0.004053
1025.0,0.004104
1026.0,0.004067
1027.0,0.004042
1028.0,0.004019
1029.0,0.003956
1030.0,0.003972
1031.0,0.003939
1032.0,0.003914
1033.0,0.00384
1034.0,0.003826
1035.0,0.003823
1036.0,0.003827
1037.0,0.00375
1038.0,0.003753
1039.0,0.003737
1040.0,0.003708
1041.0,0.003708
1042.0,0.003668
1043.0,0.003643
1044.0,0.003642
1045.0,0.003578
1046.0,0.003524
1047.0,0.003542
1048.0,0.003548
1049.0,0.003522
1050.0,0.003492
1051.0,0.003473
1052.0,0.003446
1053.0,0.003405
1054.0,0.003399
1055.0,0.003387
1056.0,0.003361
1057.0,0.003337
1058.0,0.003242
1059.0,0.003233
1060.0,0.003215
1061.0,0.003199
1062.0,0.003202
1063.0,0.003158
1064.0,0.003185
1065.0,0.003147
1066.0,0.003076
1067.0,0.003103
1068.0,0.003022
1069.0,0.002919
1070.0,0.003004
1071.0,0.003048
1072.0,0.002996
1073.0,0.002944
1074.0,0.003019
1075.0,0.002832
1076.0,0.002993
1077.0,0.002913
1078.0,0.002843
1079.0,0.002917
1080.0,0.002833
1081.0,0.002726
1082.0,0.002781
1083.0,0.002783
1084.0,0.00268
1085.0,0.002795
1086.0,0.002494
1087.0,0.002603
1088.0,0.002725
1089.0,0.002609
1090.0,0.002522
1091.0,0.00268
1092.0,0.002668
1093.0,0.00218
1094.0,0.002416
1095.0,0.002272
1096.0,0.002145
1097.0,0.002563
1098.0,0.002092
1099.0,0.002185
1100.0,0.001988
1101.0,0.002017
1102.0,0.001904
1103.0,0.001866
1104.0,0.001864
1105.0,0.002082
1106.0,0.001489
1107.0,0.001942
1108.0,0.001578
1109.0,0.00158
1110.0,0.001898
1111.0,0.001188
1112.0,0.001554
1113.0,0.0009044
1114.0,0.001022
1115.0,0.0008249
1116.0,0.0006285
1117.0,0.0002037
1118.0,0.000689
1119.0,0.0003119
1120.0,0.0003972
1121.0,0.0005432
1122.0,0.0002072
1123.0,0.0003525
1124.0,0.0002929
1125.0,0.0003913
1126.0,0.0001216
1127.0,0.0004427
1128.0,0.000247
1129.0,0.0002632
1130.0,0.0001664
1131.0,0.0009075
1132.0,0.0006857
1133.0,0.0004041
1134.0,9.091e-05
1135.0,3.316e-05
1136.0,0.0003251
1137.0,0.0008675
1138.0,0.0005847
1139.0,0.0009359
1140.0,0.0007529
1141.0,0.0005475
1142.0,0.0006412
1143.0,0.0009562
1144.0,0.0002899
1145.0,0.000373
1146.0,0.000403
1147.0,0.0001267
1148.0,0.0007984
1149.0,0.0006123
1150.0,0.0003082
1151.0,0.0005542
1152.0,0.0007042
1153.0,0.0006881
1154.0,0.0003492
1155.0,0.0009296
1156.0,0.0008184
1157.0,0.0009377
1158.0,0.0009232
1159.0,0.001012
1160.0,0.0008378
1161.0,0.001075
1162.0,0.001072
1163.0,0.001536
1164.0,0.001275
1165.0,0.001178
1166.0,0.001173
1167.0,0.001293
1168.0,0.001303
1169.0,0.001341
1170.0,0.001475
1171.0,0.001426
1172.0,0.001456
1173.0,0.001456
1174.0,0.0009705
1175.0,0.001418
1176.0,0.001582
1177.0,0.001497
1178.0,0.001062
1179.0,0.00158
1180.0,0.001369
1181.0,0.001417
1182.0,0.0009117
1183.0,0.001394
1184.0,0.001278
1185.0,0.001217
1186.0,0.001491
1187.0,0.0014
1188.0,0.000913
1189.0,0.001288
1190.0,0.001435
1191.0,0.001338
1192.0,0.00145
1193.0,0.001373
1194.0,0.00142
1195.0,0.001324
1196.0,0.001261
1197.0,0.001419
1198.0,0.001275
1199.0,0.001047
1200.0,0.001329
1201.0,0.001266
1202.0,0.001258
1203.0,0.001249
1204.0,0.001058
1205.0,0.001286
1206.0,0.001445
1207.0,0.001237
1208.0,0.001224
1209.0,0.001246
1210.0,0.001304
1211.0,0.001224
1212.0,0.001196
1213.0,0.001362
1214.0,0.001224
1215.0,0.001193
1216.0,0.001344
1217.0,0.001298
1218.0,0.001324
1219.0,0.001301
1220.0,0.001318
1221.0,0.001331
1222.0,0.001286
1223.0,0.001268
1224.0,0.001252
1225.0,0.001305
1226.0,0.001313
1227.0,0.001191
1228.0,0.001314
1229.0,0.001301
1230.0,0.001271
1231.0,0.001313
1232.0,0.001301
1233.0,0.00124
1234.0,0.001302
1235.0,0.001288
1236.0,0.001294
1237.0,0.001268
1238.0,0.001282
1239.0,0.001261
1240.0,0.001262
1241.0,0.001249
1242.0,0.001245
1243.0,0.001231
1244.0,0.001234
1245.0,0.001236
1246.0,0.001225
1247.0,0.001216
1248.0,0.001209
1249.0,0.001211
1250.0,0.001199
1251.0,0.001178
1252.0,0.001176
1253.0,0.001159
1254.0,0.001141
1255.0,0.001163
1256.0,0.00112
1257.0,0.001108
1258.0,0.001131
1259.0,0.001076
1260.0,0.00108
1261.0,0.001003
1262.0,0.0009634
1263.0,0.0009621
1264.0,0.0008706
1265.0,0.0009507
1266.0,0.0009033
1267.0,0.0009225
1268.0,0.0008625
1269.0,0.0004822
1270.0,0.0009092
1271.0,0.0009738
1272.0,0.0009754
1273.0,0.0009605
1274.0,0.0009624
1275.0,0.0009758
1276.0,0.0009846
1277.0,0.0009904
1278.0,0.001012
1279.0,0.000999
1280.0,0.0009835
1281.0,0.0009379
1282.0,0.0009049
1283.0,0.0009707
1284.0,0.0009899
1285.0,0.000994
1286.0,0.001007
1287.0,0.0009836
1288.0,0.0009813
1289.0,0.0009395
1290.0,0.000967
1291.0,0.0009787
1292.0,0.0009016
1293.0,0.0009496
1294.0,0.0009389
1295.0,0.0009286
1296.0,0.0008741
1297.0,0.0008158
1298.0,0.0008909
1299.0,0.0009343
1300.0,0.0007601
1301.0,0.000787
1302.0,0.0008782
1303.0,0.0007446
1304.0,0.0006112
1305.0,0.0008487
1306.0,0.0008457
1307.0,0.0006228
1308.0,0.0007351
1309.0,0.00083
1310.0,0.0006036
1311.0,0.000693
1312.0,0.000671
1313.0,0.0006516
1314.0,0.0005687
1315.0,0.0005597
1316.0,0.0006701
1317.0,0.0006262
1318.0,0.0006906
1319.0,0.0005106
1320.0,0.0004927
1321.0,0.000588
1322.0,0.0005913
1323.0,0.0004205
1324.0,0.0004923
1325.0,0.0006404
1326.0,0.0005321
1327.0,0.0005014
1328.0,0.0004208
1329.0,0.0002999
1330.0,0.0004037
1331.0,0.0002245
1332.0,0.0002335
1333.0,0.0003368
1334.0,0.0002815
1335.0,0.000404
1336.0,0.0003063
1337.0,0.0002652
1338.0,0.0002887
1339.0,0.0002875
1340.0,0.0002789
1341.0,0.0002676
1342.0,0.0002821
1343.0,0.000178
1344.0,0.0001023
1345.0,0.0001514
1346.0,6.939e-05
1347.0,7.007e-05
1348.0,4.129e-06
1349.0,1.512e-05
1350.0,1.574e-05
1351.0,3.696e-06
1352.0,9.844e-07
1353.0,4.989e-08
1354.0,1.717e-07
1355.0,1.38e-09
1356.0,2.416e-08
1357.0,3.671e-08
1358.0,1.62e-09
1359.0,2.041e-10
1360.0,7.375e-10
1361.0,8.249e-13
