interpolation:linear
wavelength,value
280.0,1.8899999999999997e-22
280.5,6.2470000000000004e-21
281.0,3.3560000000000005e-20
281.5,3.868e-19
282.0,5.993e-19
282.5,1.482e-18
283.0,4.688e-18
283.5,7.638e-18
284.0,1.262e-16
284.5,3.689e-16
285.0,6.063e-16
285.5,3.022e-15
286.0,1.219e-14
286.5,5.498e-14
287.0,1.58e-13
287.5,6.106e-13
288.0,2.158e-12
288.5,6.425e-12
289.0,1.695e-11
289.5,5.086e-11
290.0,1.408e-10
290.5,2.867e-10
291.0,6.149e-10
291.5,1.765e-09
292.0,3.538e-09
292.5,4.964e-09
293.0,1.065e-08
293.5,2.592e-08
294.0,4.054e-08
294.5,5.529e-08
295.0,9.369e-08
295.5,1.549e-07
296.0,2.995e-07
296.5,4.199e-07
297.0,5.69e-07
297.5,1.531e-06
298.0,2.42e-06
298.5,2.439e-06
299.0,5.388e-06
299.5,8.976e-06
300.0,9.882e-06
300.5,1.432e-05
301.0,2.591e-05
301.5,4.12e-05
302.0,3.514e-05
302.5,6.999e-05
303.0,0.0001292
303.5,0.0001667
304.0,0.0001618
304.5,0.0002641
305.0,0.0004562
305.5,0.0005687
306.0,0.0005686
306.5,0.0007487
307.0,0.001262
307.5,0.001903
308.0,0.00205
308.5,0.002578
309.0,0.002764
309.5,0.003554
310.0,0.003764
310.5,0.006252
311.0,0.008188
311.5,0.008042
312.0,0.008832
312.5,0.01143
313.0,0.01279
313.5,0.01202
314.0,0.01619
314.5,0.01586
315.0,0.02118
315.5,0.01683
316.0,0.01593
316.5,0.02453
317.0,0.03035
317.5,0.03088
318.0,0.02526
318.5,0.03441
319.0,0.04276
319.5,0.03219
320.0,0.03837
320.5,0.05283
321.0,0.05131
321.5,0.04953
322.0,0.04789
322.5,0.04178
323.0,0.04418
323.5,0.05752
324.0,0.06766
324.5,0.06688
325.0,0.05574
325.5,0.07529
326.0,0.09324
326.5,0.09629
327.0,0.0946
327.5,0.08979
328.0,0.07649
328.5,0.08445
329.0,0.1053
329.5,0.1209
330.0,0.1204
330.5,0.093
331.0,0.09351
331.5,0.09718
332.0,0.1087
332.5,0.1091
333.0,0.1075
333.5,0.09447
334.0,0.09615
334.5,0.1142
335.0,0.1091
335.5,0.1283
336.0,0.08863
336.5,0.1016
337.0,0.08209
337.5,0.1014
338.0,0.1014
338.5,0.1182
339.0,0.1167
339.5,0.112
340.0,0.13
340.5,0.1173
341.0,0.115
341.5,0.1054
342.0,0.1257
342.5,0.1174
343.0,0.1288
343.5,0.121
344.0,0.08865
344.5,0.08999
345.0,0.1188
345.5,0.1211
346.0,0.1027
346.5,0.1161
347.0,0.1242
347.5,0.1002
348.0,0.1141
348.5,0.1138
349.0,0.1054
349.5,0.1041
350.0,0.1285
350.5,0.1352
351.0,0.1205
351.5,0.1167
352.0,0.1251
352.5,0.09749
353.0,0.1226
353.5,0.1308
354.0,0.1355
354.5,0.1371
355.0,0.1363
355.5,0.1229
356.0,0.1283
356.5,0.1093
357.0,0.09008
357.5,0.11
358.0,0.08701
358.5,0.07418
359.0,0.1035
359.5,0.1315
360.0,0.1391
360.5,0.1109
361.0,0.1009
361.5,0.1159
362.0,0.1
362.5,0.1381
363.0,0.1238
363.5,0.1137
364.0,0.1388
364.5,0.1183
365.0,0.1202
365.5,0.1505
366.0,0.1591
366.5,0.1491
367.0,0.1449
367.5,0.15
368.0,0.1309
368.5,0.1318
369.0,0.142
369.5,0.1509
370.0,0.1605
370.5,0.1243
371.0,0.1325
371.5,0.1653
372.0,0.1094
372.5,0.1309
373.0,0.1328
373.5,0.0862
374.0,0.1249
374.5,0.1032
375.0,0.1001
375.5,0.149
376.0,0.1232
376.5,0.1274
377.0,0.1345
377.5,0.157
378.0,0.1697
378.5,0.16
379.0,0.1317
379.5,0.1199
380.0,0.1244
380.5,0.1502
381.0,0.1501
381.5,0.1187
382.0,0.1051
382.5,0.08937
383.0,0.08251
383.5,0.07926
384.0,0.08721
384.5,0.1279
385.0,0.1265
385.5,0.1175
386.0,0.1004
386.5,0.1315
387.0,0.109
387.5,0.1221
388.0,0.1124
388.5,0.1108
389.0,0.1193
389.5,0.144
390.0,0.1442
390.5,0.1323
391.0,0.1553
391.5,0.158
392.0,0.1327
392.5,0.1184
393.0,0.06573
393.5,0.04765
394.0,0.09669
394.5,0.1226
395.0,0.1492
395.5,0.1511
396.0,0.1307
396.5,0.07617
397.0,0.057
397.5,0.1156
398.0,0.1614
398.5,0.1664
399.0,0.1797
399.5,0.1786
400.0,0.1849
401.0,0.1818
402.0,0.1907
403.0,0.1801
404.0,0.1763
405.0,0.1752
406.0,0.1714
407.0,0.1676
408.0,0.173
409.0,0.1841
410.0,0.16
411.0,0.1723
412.0,0.184
413.0,0.1784
414.0,0.1795
415.0,0.1788
416.0,0.1808
417.0,0.1753
418.0,0.171
419.0,0.1722
420.0,0.1704
421.0,0.1771
422.0,0.1672
423.0,0.1622
424.0,0.1704
425.0,0.169
426.0,0.1636
427.0,0.1596
428.0,0.1546
429.0,0.1456
430.0,0.1266
431.0,0.1247
432.0,0.1598
433.0,0.1597
434.0,0.1473
435.0,0.1529
436.0,0.1713
437.0,0.1679
438.0,0.1519
439.0,0.156
440.0,0.1598
441.0,0.1644
442.0,0.1751
443.0,0.1694
444.0,0.1721
445.0,0.1674
446.0,0.1588
447.0,0.1707
448.0,0.1721
449.0,0.1715
450.0,0.1751
451.0,0.1803
452.0,0.1726
453.0,0.1614
454.0,0.1675
455.0,0.1672
456.0,0.17
457.0,0.1714
458.0,0.1642
459.0,0.162
460.0,0.1611
461.0,0.1636
462.0,0.1639
463.0,0.1619
464.0,0.1585
465.0,0.1557
466.0,0.1562
467.0,0.1523
468.0,0.1529
469.0,0.1524
470.0,0.1465
471.0,0.1454
472.0,0.1523
473.0,0.1493
474.0,0.1485
475.0,0.1486
476.0,0.1429
477.0,0.142
478.0,0.1446
479.0,0.1423
480.0,0.1413
481.0,0.1426
482.0,0.1423
483.0,0.1398
484.0,0.1362
485.0,0.1291
486.0,0.1123
487.0,0.117
488.0,0.1275
489.0,0.1269
490.0,0.1326
491.0,0.1293
492.0,0.1213
493.0,0.1243
494.0,0.1247
495.0,0.1249
496.0,0.1247
497.0,0.1255
498.0,0.1185
499.0,0.1188
500.0,0.1142
501.0,0.1109
502.0,0.1082
503.0,0.1114
504.0,0.1074
505.0,0.1105
506.0,0.1133
507.0,0.1071
508.0,0.1032
509.0,0.1056
510.0,0.1045
511.0,0.1066
512.0,0.107
513.0,0.1005
514.0,0.09903
515.0,0.09728
516.0,0.0963
517.0,0.08493
518.0,0.08864
519.0,0.09226
520.0,0.09485
521.0,0.09495
522.0,0.09421
523.0,0.09179
524.0,0.0942
525.0,0.09439
526.0,0.08933
527.0,0.08333
528.0,0.08725
529.0,0.09115
530.0,0.08907
531.0,0.08962
532.0,0.08585
533.0,0.08274
534.0,0.08462
535.0,0.08594
536.0,0.08621
537.0,0.08228
538.0,0.08317
539.0,0.08191
540.0,0.07797
541.0,0.07784
542.0,0.07959
543.0,0.07813
544.0,0.07889
545.0,0.07812
546.0,0.07786
547.0,0.07727
548.0,0.07581
549.0,0.07552
550.0,0.07589
551.0,0.07443
552.0,0.07441
553.0,0.07254
554.0,0.07372
555.0,0.07331
556.0,0.07178
557.0,0.06896
558.0,0.06782
559.0,0.06594
560.0,0.06616
561.0,0.06641
562.0,0.06532
563.0,0.0665
564.0,0.06416
565.0,0.0631
566.0,0.06167
567.0,0.06232
568.0,0.06124
569.0,0.05922
570.0,0.05878
571.0,0.05801
572.0,0.05888
573.0,0.0591
574.0,0.05855
575.0,0.0571
576.0,0.05627
577.0,0.05659
578.0,0.0555
579.0,0.05551
580.0,0.05637
581.0,0.05645
582.0,0.05728
583.0,0.05719
584.0,0.05744
585.0,0.05576
586.0,0.05428
587.0,0.0551
588.0,0.05331
589.0,0.04668
590.0,0.04854
591.0,0.05118
592.0,0.05008
593.0,0.05054
594.0,0.04973
595.0,0.04802
596.0,0.04974
597.0,0.04877
598.0,0.0483
599.0,0.04799
600.0,0.04777
601.0,0.04711
602.0,0.04651
603.0,0.04703
604.0,0.04757
605.0,0.04711
606.0,0.04675
607.0,0.04706
608.0,0.04638
609.0,0.04631
610.0,0.04584
611.0,0.04594
612.0,0.04566
613.0,0.04493
614.0,0.04418
615.0,0.04499
616.0,0.04336
617.0,0.04312
618.0,0.04462
619.0,0.044
620.0,0.04409
621.0,0.04392
622.0,0.0432
623.0,0.04233
624.0,0.04142
625.0,0.04116
626.0,0.0416
627.0,0.04184
628.0,0.03835
629.0,0.04029
630.0,0.03918
631.0,0.04007
632.0,0.03947
633.0,0.0406
634.0,0.04012
635.0,0.0406
636.0,0.03994
637.0,0.04046
638.0,0.04074
639.0,0.04016
640.0,0.03964
641.0,0.03947
642.0,0.03917
643.0,0.03957
644.0,0.03931
645.0,0.03919
646.0,0.03804
647.0,0.03729
648.0,0.03715
649.0,0.03627
650.0,0.03647
651.0,0.03792
652.0,0.03598
653.0,0.03711
654.0,0.03656
655.0,0.03494
656.0,0.03091
657.0,0.03163
658.0,0.03537
659.0,0.0355
660.0,0.0355
661.0,0.0356
662.0,0.0355
663.0,0.03467
664.0,0.03499
665.0,0.03491
666.0,0.03481
667.0,0.03467
668.0,0.03457
669.0,0.03497
670.0,0.03468
671.0,0.03454
672.0,0.03414
673.0,0.03455
674.0,0.03428
675.0,0.03383
676.0,0.03392
677.0,0.03347
678.0,0.03344
679.0,0.03277
680.0,0.0329
681.0,0.03254
682.0,0.03235
683.0,0.03214
684.0,0.03183
685.0,0.03196
686.0,0.03163
687.0,0.01921
688.0,0.02307
689.0,0.02307
690.0,0.02436
691.0,0.02586
692.0,0.02698
693.0,0.02662
694.0,0.02628
695.0,0.0275
696.0,0.02742
697.0,0.02933
698.0,0.02875
699.0,0.02771
700.0,0.02725
701.0,0.0268
702.0,0.02695
703.0,0.02689
704.0,0.02774
705.0,0.02765
706.0,0.02755
707.0,0.02747
708.0,0.0274
709.0,0.02738
710.0,0.02721
711.0,0.02711
712.0,0.02696
713.0,0.02653
714.0,0.02649
715.0,0.02545
716.0,0.02533
717.0,0.02118
718.0,0.01922
719.0,0.0174
720.0,0.01816
721.0,0.02035
722.0,0.02372
723.0,0.0217
724.0,0.01915
725.0,0.0187
726.0,0.01958
727.0,0.01986
728.0,0.0184
729.0,0.01922
730.0,0.02028
731.0,0.01923
732.0,0.02073
733.0,0.02209
734.0,0.02258
735.0,0.02197
736.0,0.02184
737.0,0.02182
738.0,0.02222
739.0,0.02168
740.0,0.02219
741.0,0.02189
742.0,0.02184
743.0,0.02228
744.0,0.02212
745.0,0.02203
746.0,0.02202
747.0,0.02197
748.0,0.02182
749.0,0.02146
750.0,0.02136
751.0,0.02106
752.0,0.02107
753.0,0.02109
754.0,0.02104
755.0,0.02083
756.0,0.02074
757.0,0.02068
758.0,0.02032
759.0,0.01972
760.0,0.002714
761.0,0.001425
762.0,0.008709
763.0,0.004113
764.0,0.006287
765.0,0.008579
766.0,0.01088
767.0,0.01425
768.0,0.01696
769.0,0.01739
770.0,0.01808
771.0,0.01822
772.0,0.01819
773.0,0.01823
774.0,0.01804
775.0,0.01782
776.0,0.01795
777.0,0.01762
778.0,0.01742
779.0,0.01734
780.0,0.01717
781.0,0.01711
782.0,0.01715
783.0,0.01678
784.0,0.0168
785.0,0.0166
786.0,0.01671
787.0,0.01628
788.0,0.01598
789.0,0.01589
790.0,0.0153
791.0,0.01546
792.0,0.01529
793.0,0.01496
794.0,0.01526
795.0,0.01542
796.0,0.01474
797.0,0.01469
798.0,0.01519
799.0,0.015
800.0,0.01463
801.0,0.01449
802.0,0.01438
803.0,0.01419
804.0,0.01416
805.0,0.01409
806.0,0.01447
807.0,0.01421
808.0,0.01416
809.0,0.01378
810.0,0.01357
811.0,0.01347
812.0,0.01292
813.0,0.01254
814.0,0.01072
815.0,0.01061
816.0,0.009739
817.0,0.009898
818.0,0.009444
819.0,0.01074
820.0,0.009982
821.0,0.01198
822.0,0.01153
823.0,0.007305
824.0,0.011
825.0,0.01156
826.0,0.01097
827.0,0.01166
828.0,0.009529
829.0,0.01079
830.0,0.01058
831.0,0.01058
832.0,0.01015
833.0,0.01094
834.0,0.01041
835.0,0.0116
836.0,0.01092
837.0,0.01154
838.0,0.01107
839.0,0.01127
840.0,0.01148
841.0,0.01124
842.0,0.01126
843.0,0.01124
844.0,0.01101
845.0,0.01137
846.0,0.01127
847.0,0.01102
848.0,0.01088
849.0,0.01052
850.0,0.01003
851.0,0.01055
852.0,0.01043
853.0,0.01001
854.0,0.008587
855.0,0.009415
856.0,0.01024
857.0,0.01044
858.0,0.01032
859.0,0.0103
860.0,0.01028
861.0,0.01018
862.0,0.01031
863.0,0.01051
864.0,0.00995
865.0,0.009825
866.0,0.008799
867.0,0.009146
868.0,0.009913
869.0,0.009669
870.0,0.009905
871.0,0.00973
872.0,0.009656
873.0,0.009597
874.0,0.009441
875.0,0.009208
876.0,0.009262
877.0,0.009317
878.0,0.009375
879.0,0.009192
880.0,0.008957
881.0,0.008777
882.0,0.008928
883.0,0.008927
884.0,0.008843
885.0,0.008868
886.0,0.008385
887.0,0.008464
888.0,0.008538
889.0,0.008625
890.0,0.008481
891.0,0.00845
892.0,0.008134
893.0,0.007796
894.0,0.007397
895.0,0.006847
896.0,0.00635
897.0,0.005285
898.0,0.005825
899.0,0.004226
900.0,0.005993
901.0,0.004439
902.0,0.005362
903.0,0.005345
904.0,0.00704
905.0,0.006722
906.0,0.006215
907.0,0.004807
908.0,0.004923
909.0,0.005409
910.0,0.004617
911.0,0.004995
912.0,0.00523
913.0,0.004626
914.0,0.004584
915.0,0.004987
916.0,0.004123
917.0,0.005425
918.0,0.004202
919.0,0.005512
920.0,0.005619
921.0,0.005864
922.0,0.005098
923.0,0.005625
924.0,0.005177
925.0,0.005034
926.0,0.005073
927.0,0.005769
928.0,0.003924
929.0,0.003506
930.0,0.002637
931.0,0.002479
932.0,0.0017
933.0,0.001346
934.0,0.0006961
935.0,0.00138
936.0,0.0008244
937.0,0.0008313
938.0,0.001031
939.0,0.002318
940.0,0.002856
941.0,0.002062
942.0,0.002421
943.0,0.001511
944.0,0.00162
945.0,0.002099
946.0,0.0009914
947.0,0.002081
948.0,0.00149
949.0,0.002872
950.0,0.0006972
951.0,0.002811
952.0,0.001393
953.0,0.001851
954.0,0.00234
955.0,0.001869
956.0,0.001837
957.0,0.001367
958.0,0.002702
959.0,0.002045
960.0,0.002306
961.0,0.002645
962.0,0.002479
963.0,0.002925
964.0,0.002636
965.0,0.00289
966.0,0.002876
967.0,0.002843
968.0,0.004098
969.0,0.004258
970.0,0.00384
971.0,0.004537
972.0,0.004278
973.0,0.003572
974.0,0.003356
975.0,0.003504
976.0,0.003254
977.0,0.003838
978.0,0.003571
979.0,0.003771
980.0,0.003492
981.0,0.004341
982.0,0.004082
983.0,0.003871
984.0,0.004485
985.0,0.004019
986.0,0.004568
987.0,0.004421
988.0,0.004396
989.0,0.004524
990.0,0.004336
991.0,0.004489
992.0,0.004504
993.0,0.004349
994.0,0.004476
995.0,0.00446
996.0,0.004417
997.0,0.004411
998.0,0.004372
999.0,0.004342
1000.0,0.004286
1001.0,0.004334
1002.0,0.004158
1003.0,0.004223
1004.0,0.004093
1005.0,0.003942
1006.0,0.004072
1007.0,0.004147
1008.0,0.004102
1009.0,0.004057
1010.0,0.00402
1011.0,0.004065
1012.0,0.004006
1013.0,0.004027
1014.0,0.003984
1015.0,0.003942
1016.0,0.003908
1017.0,0.003901
1018.0,0.003876
1019.0,0.003764
1020.0,0.003823
1021.0,0.003806
1022.0,0.003756
1023.0,0.003781
1024.0,0.003704
1025.0,0.003756
1026.0,0.003722
1027.0,0.0037
1028.0,0.003677
1029.0,0.003619
1030.0,0.003636
1031.0,0.003605
1032.0,0.003582
1033.0,0.003514
1034.0,0.003502
1035.0,0.003499
1036.0,0.003502
1037.0,0.003433
1038.0,0.003435
1039.0,0.00342
1040.0,0.003393
1041.0,0.003392
1042.0,0.003355
1043.0,0.003332
1044.0,0.003331
1045.0,0.003272
1046.0,0.003223
1047.0,0.003239
1048.0,0.003244
1049.0,0.00322
1050.0,0.003192
1051.0,0.003174
1052.0,0.003149
1053.0,0.003111
1054.0,0.003105
1055.0,0.003093
1056.0,0.003069
1057.0,0.003046
1058.0,0.002959
1059.0,0.00295
1060.0,0.002934
1061.0,0.002918
1062.0,0.00292
1063.0,0.00288
1064.0,0.002904
1065.0,0.002868
1066.0,0.002805
1067.0,0.002829
1068.0,0.002754
1069.0,0.002661
1070.0,0.002738
1071.0,0.002782
1072.0,0.002731
1073.0,0.002684
1074.0,0.002757
1075.0,0.002577
1076.0,0.002732
1077.0,0.002655
1078.0,0.002588
1079.0,0.002664
1080.0,0.002583
1081.0,0.00248
1082.0,0.002537
1083.0,0.002542
1084.0,0.002438
1085.0,0.002548
1086.0,0.002266
1087.0,0.002369
1088.0,0.002488
1089.0,0.002373
1090.0,0.002292
1091.0,0.002444
1092.0,0.002435
1093.0,0.001974
1094.0,0.002203
1095.0,0.002055
1096.0,0.001937
1097.0,0.002339
1098.0,0.001885
1099.0,0.001971
1100.0,0.001791
1101.0,0.001819
1102.0,0.001712
1103.0,0.001676
1104.0,0.001675
1105.0,0.001877
1106.0,0.001328
1107.0,0.001748
1108.0,0.001413
1109.0,0.001416
1110.0,0.001704
1111.0,0.001062
1112.0,0.001393
1113.0,0.0008095
1114.0,0.0009103
1115.0,0.000739
1116.0,0.0005631
1117.0,0.0001877
1118.0,0.0006153
1119.0,0.0002838
1120.0,0.0003575
1121.0,0.0004838
1122.0,0.00019
1123.0,0.0003188
1124.0,0.0002665
1125.0,0.0003526
1126.0,0.0001132
1127.0,0.0003973
1128.0,0.0002251
1129.0,0.0002392
1130.0,0.0001538
1131.0,0.000799
1132.0,0.0006085
1133.0,0.0003623
1134.0,8.529e-05
1135.0,3.176e-05
1136.0,0.0002931
1137.0,0.0007618
1138.0,0.0005206
1139.0,0.0008325
1140.0,0.0006692
1141.0,0.0004887
1142.0,0.0005707
1143.0,0.0008445
1144.0,0.0002637
1145.0,0.0003347
1146.0,0.0003605
1147.0,0.0001176
1148.0,0.0007081
1149.0,0.0005454
1150.0,0.0002807
1151.0,0.0004936
1152.0,0.0006248
1153.0,0.0006147
1154.0,0.0003145
1155.0,0.0008248
1156.0,0.0007263
1157.0,0.0008363
1158.0,0.0008232
1159.0,0.0009015
1160.0,0.0007501
1161.0,0.0009636
1162.0,0.0009604
1163.0,0.001384
1164.0,0.001146
1165.0,0.001055
1166.0,0.001057
1167.0,0.001165
1168.0,0.001172
1169.0,0.001206
1170.0,0.001331
1171.0,0.001288
1172.0,0.00132
1173.0,0.001314
1174.0,0.0008728
1175.0,0.001285
1176.0,0.001442
1177.0,0.001358
1178.0,0.0009615
1179.0,0.00144
1180.0,0.001241
1181.0,0.001283
1182.0,0.0008228
1183.0,0.001263
1184.0,0.001157
1185.0,0.001099
1186.0,0.001354
1187.0,0.001268
1188.0,0.00082
1189.0,0.001167
1190.0,0.001305
1191.0,0.001209
1192.0,0.001319
1193.0,0.001247
1194.0,0.001291
1195.0,0.001198
1196.0,0.001139
1197.0,0.001291
1198.0,0.00116
1199.0,0.0009437
1200.0,0.001206
1201.0,0.001145
1202.0,0.001143
1203.0,0.00113
1204.0,0.0009574
1205.0,0.00117
1206.0,0.001318
1207.0,0.001121
1208.0,0.001112
1209.0,0.001133
1210.0,0.001188
1211.0,0.001112
1212.0,0.001079
1213.0,0.001238
1214.0,0.001106
1215.0,0.001078
1216.0,0.001224
1217.0,0.001179
1218.0,0.001205
1219.0,0.001182
1220.0,0.001199
1221.0,0.001212
1222.0,0.001172
1223.0,0.001154
1224.0,0.001137
1225.0,0.001188
1226.0,0.001198
1227.0,0.00108
1228.0,0.0012
1229.0,0.001187
1230.0,0.001159
1231.0,0.001201
1232.0,0.001189
1233.0,0.001128
1234.0,0.001192
1235.0,0.001178
1236.0,0.001185
1237.0,0.001158
1238.0,0.001173
1239.0,0.001154
1240.0,0.001156
1241.0,0.001142
1242.0,0.00114
1243.0,0.001127
1244.0,0.00113
1245.0,0.001132
1246.0,0.001121
1247.0,0.001112
1248.0,0.001106
1249.0,0.001108
1250.0,0.001096
1251.0,0.001076
1252.0,0.001076
1253.0,0.001059
1254.0,0.00104
1255.0,0.001063
1256.0,0.00102
1257.0,0.001009
1258.0,0.001033
1259.0,0.000977
1260.0,0.000981
1261.0,0.000905
1262.0,0.0008663
1263.0,0.0008649
1264.0,0.0007767
1265.0,0.0008547
1266.0,0.0008084
1267.0,0.0008281
1268.0,0.0007703
1269.0,0.0004202
1270.0,0.0008149
1271.0,0.0008789
1272.0,0.0008809
1273.0,0.0008668
1274.0,0.0008695
1275.0,0.0008826
1276.0,0.0008918
1277.0,0.0008989
1278.0,0.0009206
1279.0,0.0009089
1280.0,0.000895
1281.0,0.0008547
1282.0,0.0008266
1283.0,0.0008863
1284.0,0.0009035
1285.0,0.0009076
1286.0,0.0009201
1287.0,0.0008973
1288.0,0.0008959
1289.0,0.0008539
1290.0,0.000883
1291.0,0.0008944
1292.0,0.0008176
1293.0,0.0008664
1294.0,0.0008566
1295.0,0.0008445
1296.0,0.0007915
1297.0,0.000737
1298.0,0.0008098
1299.0,0.0008531
1300.0,0.000687
1301.0,0.000712
1302.0,0.0007984
1303.0,0.0006737
1304.0,0.0005481
1305.0,0.0007717
1306.0,0.0007675
1307.0,0.0005609
1308.0,0.0006668
1309.0,0.0007514
1310.0,0.000543
1311.0,0.0006272
1312.0,0.0006064
1313.0,0.000587
1314.0,0.0005116
1315.0,0.0005017
1316.0,0.0006049
1317.0,0.0005651
1318.0,0.0006251
1319.0,0.0004576
1320.0,0.0004433
1321.0,0.0005293
1322.0,0.0005304
1323.0,0.0003752
1324.0,0.0004419
1325.0,0.0005771
1326.0,0.0004779
1327.0,0.0004499
1328.0,0.0003773
1329.0,0.0002676
1330.0,0.0003591
1331.0,0.0002005
1332.0,0.0002088
1333.0,0.0002976
1334.0,0.0002535
1335.0,0.0003596
1336.0,0.0002729
1337.0,0.0002374
1338.0,0.0002571
1339.0,0.0002564
1340.0,0.0002502
1341.0,0.0002377
1342.0,0.0002505
1343.0,0.0001585
1344.0,9.33e-05
1345.0,0.0001356
1346.0,6.366e-05
1347.0,6.424e-05
1348.0,4.031e-06
1349.0,1.451e-05
1350.0,1.506e-05
1351.0,3.618e-06
1352.0,9.724e-07
1353.0,4.948e-08
1354.0,1.701e-07
1355.0,1.369e-09
