interpolation:linear
wavelength,value
280.0,2.592e-22
280.5,8.532e-21
281.0,4.576e-20
281.5,3.973e-19
282.0,6.48e-19
282.5,1.608e-18
283.0,5.086e-18
283.5,8.283e-18
284.0,1.366e-16
284.5,3.985e-16
285.0,6.542e-16
285.5,3.269e-15
286.0,1.319e-14
286.5,5.945e-14
287.0,1.707e-13
287.5,6.587e-13
288.0,2.292e-12
288.5,6.886e-12
289.0,1.826e-11
289.5,5.498e-11
290.0,1.524e-10
290.5,3.105e-10
291.0,6.663e-10
291.5,1.912e-09
292.0,3.847e-09
292.5,5.407e-09
293.0,1.162e-08
293.5,2.836e-08
294.0,4.442e-08
294.5,6.089e-08
295.0,1.033e-07
295.5,1.728e-07
296.0,3.36e-07
296.5,4.742e-07
297.0,6.465e-07
297.5,1.758e-06
298.0,2.807e-06
298.5,2.855e-06
299.0,6.367e-06
299.5,1.082e-05
300.0,1.206e-05
300.5,1.771e-05
301.0,3.288e-05
301.5,5.365e-05
302.0,4.643e-05
302.5,9.293e-05
303.0,0.0001727
303.5,0.0002238
304.0,0.0002174
304.5,0.0003556
305.0,0.0006167
305.5,0.0007709
306.0,0.0007716
306.5,0.001018
307.0,0.001725
307.5,0.002617
308.0,0.002821
308.5,0.003561
309.0,0.003611
309.5,0.004551
310.0,0.004775
310.5,0.007895
311.0,0.01026
311.5,0.01005
312.0,0.01086
312.5,0.01391
313.0,0.01549
313.5,0.01462
314.0,0.01945
314.5,0.01876
315.0,0.02498
315.5,0.01999
316.0,0.01869
316.5,0.02847
317.0,0.03523
317.5,0.03595
318.0,0.02918
318.5,0.03921
319.0,0.04839
319.5,0.03682
320.0,0.04395
320.5,0.05967
321.0,0.05724
321.5,0.05518
322.0,0.05404
322.5,0.0471
323.0,0.04938
323.5,0.06358
324.0,0.07466
324.5,0.07408
325.0,0.06215
325.5,0.08335
326.0,0.1027
326.5,0.1055
327.0,0.1038
327.5,0.09875
328.0,0.08467
328.5,0.0927
329.0,0.1149
329.5,0.1316
330.0,0.1312
330.5,0.1018
331.0,0.1025
331.5,0.1062
332.0,0.1181
332.5,0.1182
333.0,0.1166
333.5,0.1029
334.0,0.1047
334.5,0.1238
335.0,0.118
335.5,0.1387
336.0,0.09578
336.5,0.11
337.0,0.08897
337.5,0.1099
338.0,0.1095
338.5,0.1275
339.0,0.1258
339.5,0.1208
340.0,0.1403
340.5,0.1265
341.0,0.1239
341.5,0.1134
342.0,0.1353
342.5,0.1263
343.0,0.1385
343.5,0.1302
344.0,0.09545
344.5,0.09684
345.0,0.1276
345.5,0.13
346.0,0.1102
346.5,0.1245
347.0,0.1333
347.5,0.1076
348.0,0.1223
348.5,0.122
349.0,0.1129
349.5,0.1115
350.0,0.1376
350.5,0.1448
351.0,0.129
351.5,0.1251
352.0,0.134
352.5,0.1043
353.0,0.1311
353.5,0.1399
354.0,0.1448
354.5,0.1465
355.0,0.1456
355.5,0.1313
356.0,0.137
356.5,0.1167
357.0,0.09616
357.5,0.1174
358.0,0.09283
358.5,0.07913
359.0,0.1104
359.5,0.1402
360.0,0.1483
360.5,0.1182
361.0,0.1075
361.5,0.1235
362.0,0.1065
362.5,0.1471
363.0,0.1318
363.5,0.1211
364.0,0.1477
364.5,0.1259
365.0,0.1279
365.5,0.1601
366.0,0.1691
366.5,0.1585
367.0,0.154
367.5,0.1594
368.0,0.1391
368.5,0.14
369.0,0.1508
369.5,0.1603
370.0,0.1704
370.5,0.1319
371.0,0.1406
371.5,0.1754
372.0,0.1161
372.5,0.1388
373.0,0.1408
373.5,0.09138
374.0,0.1324
374.5,0.1094
375.0,0.106
375.5,0.1579
376.0,0.1305
376.5,0.1349
377.0,0.1424
377.5,0.1661
378.0,0.1796
378.5,0.1693
379.0,0.1393
379.5,0.1268
380.0,0.1315
380.5,0.1588
381.0,0.1587
381.5,0.1254
382.0,0.1111
382.5,0.0944
383.0,0.08714
383.5,0.0837
384.0,0.09206
384.5,0.135
385.0,0.1335
385.5,0.124
386.0,0.1059
386.5,0.1387
387.0,0.1149
387.5,0.1287
388.0,0.1185
388.5,0.1168
389.0,0.1257
389.5,0.1518
390.0,0.1519
390.5,0.1393
391.0,0.1635
391.5,0.1663
392.0,0.1396
392.5,0.1247
393.0,0.06916
393.5,0.05013
394.0,0.1017
394.5,0.1289
395.0,0.1569
395.5,0.1589
396.0,0.1373
396.5,0.08005
397.0,0.05989
397.5,0.1214
398.0,0.1695
398.5,0.1747
399.0,0.1887
399.5,0.1875
400.0,0.1941
401.0,0.1908
402.0,0.2
403.0,0.1889
404.0,0.1848
405.0,0.1837
406.0,0.1796
407.0,0.1755
408.0,0.1812
409.0,0.1927
410.0,0.1674
411.0,0.1802
412.0,0.1924
413.0,0.1865
414.0,0.1876
415.0,0.1869
416.0,0.1889
417.0,0.183
418.0,0.1785
419.0,0.1797
420.0,0.1778
421.0,0.1847
422.0,0.1744
423.0,0.1691
424.0,0.1776
425.0,0.1761
426.0,0.1705
427.0,0.1663
428.0,0.161
429.0,0.1515
430.0,0.1318
431.0,0.1297
432.0,0.1663
433.0,0.166
434.0,0.1532
435.0,0.1589
436.0,0.178
437.0,0.1745
438.0,0.1578
439.0,0.162
440.0,0.166
441.0,0.1707
442.0,0.1817
443.0,0.1758
444.0,0.1785
445.0,0.1736
446.0,0.1647
447.0,0.177
448.0,0.1784
449.0,0.1778
450.0,0.1814
451.0,0.1868
452.0,0.1788
453.0,0.1671
454.0,0.1734
455.0,0.1732
456.0,0.1759
457.0,0.1774
458.0,0.17
459.0,0.1677
460.0,0.1668
461.0,0.1693
462.0,0.1695
463.0,0.1674
464.0,0.1639
465.0,0.1609
466.0,0.1615
467.0,0.1574
468.0,0.1579
469.0,0.1575
470.0,0.1514
471.0,0.1502
472.0,0.1573
473.0,0.1542
474.0,0.1533
475.0,0.1534
476.0,0.1475
477.0,0.1466
478.0,0.1493
479.0,0.147
480.0,0.1459
481.0,0.1473
482.0,0.147
483.0,0.1443
484.0,0.1405
485.0,0.1332
486.0,0.1158
487.0,0.1207
488.0,0.1315
489.0,0.1309
490.0,0.1366
491.0,0.1332
492.0,0.1249
493.0,0.128
494.0,0.1284
495.0,0.1286
496.0,0.1284
497.0,0.1293
498.0,0.1221
499.0,0.1224
500.0,0.1176
501.0,0.1143
502.0,0.1115
503.0,0.1148
504.0,0.1108
505.0,0.1139
506.0,0.1168
507.0,0.1104
508.0,0.1064
509.0,0.1088
510.0,0.1076
511.0,0.1098
512.0,0.1102
513.0,0.1035
514.0,0.102
515.0,0.1002
516.0,0.09921
517.0,0.0875
518.0,0.09131
519.0,0.09505
520.0,0.09772
521.0,0.09783
522.0,0.09708
523.0,0.09459
524.0,0.09709
525.0,0.09731
526.0,0.09212
527.0,0.08594
528.0,0.09001
529.0,0.09404
530.0,0.09191
531.0,0.0925
532.0,0.08861
533.0,0.0854
534.0,0.08734
535.0,0.0887
536.0,0.08896
537.0,0.08491
538.0,0.08582
539.0,0.08452
540.0,0.08046
541.0,0.08033
542.0,0.08215
543.0,0.08065
544.0,0.08145
545.0,0.08066
546.0,0.08039
547.0,0.07978
548.0,0.07827
549.0,0.07798
550.0,0.07836
551.0,0.07686
552.0,0.07683
553.0,0.07491
554.0,0.07614
555.0,0.07571
556.0,0.07414
557.0,0.07124
558.0,0.07007
559.0,0.06814
560.0,0.06838
561.0,0.06865
562.0,0.06753
563.0,0.06877
564.0,0.06636
565.0,0.06527
566.0,0.0638
567.0,0.06448
568.0,0.06337
569.0,0.06129
570.0,0.06084
571.0,0.06005
572.0,0.06096
573.0,0.06119
574.0,0.06062
575.0,0.05912
576.0,0.05825
577.0,0.05858
578.0,0.05744
579.0,0.05744
580.0,0.05832
581.0,0.05838
582.0,0.05923
583.0,0.05913
584.0,0.05938
585.0,0.05764
586.0,0.05611
587.0,0.05695
588.0,0.0551
589.0,0.04827
590.0,0.05019
591.0,0.05292
592.0,0.05179
593.0,0.05226
594.0,0.05143
595.0,0.04968
596.0,0.05146
597.0,0.05047
598.0,0.04999
599.0,0.04967
600.0,0.04944
601.0,0.04876
602.0,0.04814
603.0,0.04867
604.0,0.04922
605.0,0.04874
606.0,0.04836
607.0,0.04867
608.0,0.04795
609.0,0.04787
610.0,0.04737
611.0,0.04746
612.0,0.04717
613.0,0.0464
614.0,0.04561
615.0,0.04644
616.0,0.04475
617.0,0.04449
618.0,0.04603
619.0,0.04538
620.0,0.04547
621.0,0.04529
622.0,0.04454
623.0,0.04364
624.0,0.04269
625.0,0.04242
626.0,0.04287
627.0,0.04312
628.0,0.03955
629.0,0.04153
630.0,0.04037
631.0,0.04128
632.0,0.04065
633.0,0.0418
634.0,0.04129
635.0,0.04179
636.0,0.04109
637.0,0.04162
638.0,0.0419
639.0,0.04129
640.0,0.04075
641.0,0.04057
642.0,0.04025
643.0,0.04065
644.0,0.04038
645.0,0.04025
646.0,0.03907
647.0,0.03831
648.0,0.03816
649.0,0.03725
650.0,0.03744
651.0,0.03892
652.0,0.03693
653.0,0.03808
654.0,0.03751
655.0,0.03585
656.0,0.0317
657.0,0.03244
658.0,0.03627
659.0,0.0364
660.0,0.0364
661.0,0.03649
662.0,0.03638
663.0,0.03554
664.0,0.03586
665.0,0.03577
666.0,0.03566
667.0,0.03551
668.0,0.0354
669.0,0.03581
670.0,0.0355
671.0,0.03536
672.0,0.03494
673.0,0.03536
674.0,0.03507
675.0,0.03461
676.0,0.03471
677.0,0.03424
678.0,0.03421
679.0,0.03352
680.0,0.03364
681.0,0.03327
682.0,0.03308
683.0,0.03287
684.0,0.03254
685.0,0.03267
686.0,0.03233
687.0,0.01971
688.0,0.02365
689.0,0.02366
690.0,0.02496
691.0,0.02648
692.0,0.02761
693.0,0.02723
694.0,0.02688
695.0,0.0281
696.0,0.02802
697.0,0.02996
698.0,0.02936
699.0,0.02832
700.0,0.02784
701.0,0.02738
702.0,0.02753
703.0,0.02747
704.0,0.02833
705.0,0.02824
706.0,0.02814
707.0,0.02805
708.0,0.02797
709.0,0.02795
710.0,0.02778
711.0,0.02767
712.0,0.02752
713.0,0.02708
714.0,0.02704
715.0,0.02598
716.0,0.02586
717.0,0.02165
718.0,0.01964
719.0,0.01778
720.0,0.01856
721.0,0.02078
722.0,0.02422
723.0,0.02215
724.0,0.01956
725.0,0.0191
726.0,0.02
727.0,0.02028
728.0,0.01879
729.0,0.01962
730.0,0.02071
731.0,0.01963
732.0,0.02116
733.0,0.02254
734.0,0.02303
735.0,0.02242
736.0,0.02228
737.0,0.02226
738.0,0.02266
739.0,0.0221
740.0,0.02262
741.0,0.02232
742.0,0.02226
743.0,0.02271
744.0,0.02254
745.0,0.02245
746.0,0.02245
747.0,0.02239
748.0,0.02223
749.0,0.02187
750.0,0.02177
751.0,0.02146
752.0,0.02147
753.0,0.02148
754.0,0.02143
755.0,0.02122
756.0,0.02112
757.0,0.02106
758.0,0.0207
759.0,0.02009
760.0,0.002754
761.0,0.00144
762.0,0.008912
763.0,0.004187
764.0,0.006422
765.0,0.008778
766.0,0.01114
767.0,0.01456
768.0,0.0173
769.0,0.01773
770.0,0.01842
771.0,0.01856
772.0,0.01853
773.0,0.01856
774.0,0.01838
775.0,0.01815
776.0,0.01828
777.0,0.01795
778.0,0.01774
779.0,0.01767
780.0,0.01749
781.0,0.01743
782.0,0.01747
783.0,0.01709
784.0,0.01711
785.0,0.01691
786.0,0.01702
787.0,0.01658
788.0,0.01627
789.0,0.01618
790.0,0.01559
791.0,0.01575
792.0,0.01557
793.0,0.01524
794.0,0.01553
795.0,0.0157
796.0,0.01502
797.0,0.01497
798.0,0.01546
799.0,0.01527
800.0,0.0149
801.0,0.01476
802.0,0.01465
803.0,0.01445
804.0,0.01442
805.0,0.01434
806.0,0.01473
807.0,0.01447
808.0,0.01442
809.0,0.01404
810.0,0.01382
811.0,0.01372
812.0,0.01317
813.0,0.01279
814.0,0.01093
815.0,0.01082
816.0,0.009928
817.0,0.01009
818.0,0.00963
819.0,0.01095
820.0,0.01018
821.0,0.0122
822.0,0.01174
823.0,0.007446
824.0,0.01121
825.0,0.01177
826.0,0.01117
827.0,0.01187
828.0,0.009711
829.0,0.01099
830.0,0.01077
831.0,0.01077
832.0,0.01034
833.0,0.01114
834.0,0.0106
835.0,0.01181
836.0,0.01112
837.0,0.01174
838.0,0.01127
839.0,0.01147
840.0,0.01169
841.0,0.01144
842.0,0.01146
843.0,0.01144
844.0,0.01121
845.0,0.01156
846.0,0.01147
847.0,0.01121
848.0,0.01107
849.0,0.01071
850.0,0.01021
851.0,0.01074
852.0,0.01061
853.0,0.01018
854.0,0.00874
855.0,0.009582
856.0,0.01042
857.0,0.01063
858.0,0.0105
859.0,0.01048
860.0,0.01046
861.0,0.01036
862.0,0.01049
863.0,0.0107
864.0,0.01012
865.0,0.009995
866.0,0.008951
867.0,0.009304
868.0,0.01008
869.0,0.009835
870.0,0.01007
871.0,0.009897
872.0,0.009822
873.0,0.009762
874.0,0.009603
875.0,0.009365
876.0,0.00942
877.0,0.009477
878.0,0.009536
879.0,0.00935
880.0,0.009111
881.0,0.008928
882.0,0.009082
883.0,0.009081
884.0,0.008995
885.0,0.009021
886.0,0.008532
887.0,0.008611
888.0,0.008686
889.0,0.008774
890.0,0.008629
891.0,0.008597
892.0,0.008278
893.0,0.007935
894.0,0.007533
895.0,0.006978
896.0,0.00647
897.0,0.005386
898.0,0.005938
899.0,0.004306
900.0,0.006107
901.0,0.004526
902.0,0.005465
903.0,0.00545
904.0,0.00717
905.0,0.006846
906.0,0.00633
907.0,0.0049
908.0,0.005017
909.0,0.005512
910.0,0.004707
911.0,0.005089
912.0,0.005331
913.0,0.004716
914.0,0.004672
915.0,0.005087
916.0,0.004201
917.0,0.005532
918.0,0.004284
919.0,0.005618
920.0,0.005721
921.0,0.005974
922.0,0.005195
923.0,0.00573
924.0,0.005279
925.0,0.005132
926.0,0.005174
927.0,0.005882
928.0,0.004004
929.0,0.003578
930.0,0.00269
931.0,0.002529
932.0,0.001732
933.0,0.00137
934.0,0.0007057
935.0,0.001405
936.0,0.0008369
937.0,0.0008438
938.0,0.001048
939.0,0.002365
940.0,0.002916
941.0,0.002104
942.0,0.002471
943.0,0.00154
944.0,0.001649
945.0,0.002142
946.0,0.001008
947.0,0.002123
948.0,0.001517
949.0,0.002933
950.0,0.0007072
951.0,0.002872
952.0,0.001419
953.0,0.001887
954.0,0.002388
955.0,0.001906
956.0,0.001869
957.0,0.001392
958.0,0.002755
959.0,0.002084
960.0,0.002352
961.0,0.002697
962.0,0.002528
963.0,0.002983
964.0,0.002687
965.0,0.002948
966.0,0.002934
967.0,0.0029
968.0,0.004173
969.0,0.004342
970.0,0.003914
971.0,0.004621
972.0,0.004358
973.0,0.003642
974.0,0.003421
975.0,0.003571
976.0,0.003319
977.0,0.003909
978.0,0.00364
979.0,0.003844
980.0,0.003558
981.0,0.004422
982.0,0.004159
983.0,0.003944
984.0,0.004566
985.0,0.004096
986.0,0.004648
987.0,0.0045
988.0,0.004474
989.0,0.004602
990.0,0.004414
991.0,0.004568
992.0,0.004582
993.0,0.004426
994.0,0.004553
995.0,0.004537
996.0,0.004493
997.0,0.004487
998.0,0.004447
999.0,0.004417
1000.0,0.00436
1001.0,0.004409
1002.0,0.004232
1003.0,0.004295
1004.0,0.004163
1005.0,0.00401
1006.0,0.004142
1007.0,0.004217
1008.0,0.004172
1009.0,0.004127
1010.0,0.00409
1011.0,0.004135
1012.0,0.004075
1013.0,0.004096
1014.0,0.004052
1015.0,0.004009
1016.0,0.003975
1017.0,0.003968
1018.0,0.003942
1019.0,0.003829
1020.0,0.003888
1021.0,0.003871
1022.0,0.00382
1023.0,0.003846
1024.0,0.003768
1025.0,0.00382
1026.0,0.003786
1027.0,0.003763
1028.0,0.00374
1029.0,0.003681
1030.0,0.003698
1031.0,0.003667
1032.0,0.003644
1033.0,0.003574
1034.0,0.003561
1035.0,0.003559
1036.0,0.003562
1037.0,0.003491
1038.0,0.003494
1039.0,0.003478
1040.0,0.003451
1041.0,0.00345
1042.0,0.003413
1043.0,0.003389
1044.0,0.003388
1045.0,0.003329
1046.0,0.003278
1047.0,0.003295
1048.0,0.0033
1049.0,0.003276
1050.0,0.003247
1051.0,0.003229
1052.0,0.003203
1053.0,0.003165
1054.0,0.003159
1055.0,0.003147
1056.0,0.003123
1057.0,0.0031
1058.0,0.003011
1059.0,0.003002
1060.0,0.002985
1061.0,0.00297
1062.0,0.002972
1063.0,0.002931
1064.0,0.002956
1065.0,0.002919
1066.0,0.002855
1067.0,0.00288
1068.0,0.002803
1069.0,0.002709
1070.0,0.002787
1071.0,0.002831
1072.0,0.00278
1073.0,0.002732
1074.0,0.002805
1075.0,0.002624
1076.0,0.00278
1077.0,0.002703
1078.0,0.002635
1079.0,0.002711
1080.0,0.002629
1081.0,0.002525
1082.0,0.002582
1083.0,0.002586
1084.0,0.002482
1085.0,0.002594
1086.0,0.002307
1087.0,0.002411
1088.0,0.002531
1089.0,0.002416
1090.0,0.002334
1091.0,0.002487
1092.0,0.002478
1093.0,0.002011
1094.0,0.002242
1095.0,0.002094
1096.0,0.001975
1097.0,0.00238
1098.0,0.001922
1099.0,0.002009
1100.0,0.001826
1101.0,0.001854
1102.0,0.001746
1103.0,0.00171
1104.0,0.001708
1105.0,0.001914
1106.0,0.001355
1107.0,0.001783
1108.0,0.001441
1109.0,0.001445
1110.0,0.001739
1111.0,0.001084
1112.0,0.001422
1113.0,0.0008254
1114.0,0.0009291
1115.0,0.0007535
1116.0,0.0005737
1117.0,0.00019
1118.0,0.0006274
1119.0,0.0002881
1120.0,0.0003635
1121.0,0.0004931
1122.0,0.0001925
1123.0,0.0003239
1124.0,0.0002706
1125.0,0.0003586
1126.0,0.0001143
1127.0,0.0004043
1128.0,0.0002282
1129.0,0.0002426
1130.0,0.0001556
1131.0,0.0008168
1132.0,0.000621
1133.0,0.0003686
1134.0,8.605e-05
1135.0,3.197e-05
1136.0,0.0002978
1137.0,0.0007788
1138.0,0.000531
1139.0,0.0008502
1140.0,0.0006832
1141.0,0.0004982
1142.0,0.0005823
1143.0,0.0008632
1144.0,0.0002678
1145.0,0.0003405
1146.0,0.0003669
1147.0,0.0001188
1148.0,0.0007232
1149.0,0.0005563
1150.0,0.000285
1151.0,0.0005034
1152.0,0.0006379
1153.0,0.0006271
1154.0,0.0003197
1155.0,0.0008427
1156.0,0.0007418
1157.0,0.0008537
1158.0,0.0008403
1159.0,0.0009207
1160.0,0.000765
1161.0,0.0009831
1162.0,0.0009799
1163.0,0.001412
1164.0,0.001169
1165.0,0.001076
1166.0,0.001077
1167.0,0.001188
1168.0,0.001195
1169.0,0.00123
1170.0,0.001357
1171.0,0.001313
1172.0,0.001344
1173.0,0.00134
1174.0,0.0008896
1175.0,0.001309
1176.0,0.001468
1177.0,0.001384
1178.0,0.0009792
1179.0,0.001466
1180.0,0.001264
1181.0,0.001307
1182.0,0.0008384
1183.0,0.001287
1184.0,0.001178
1185.0,0.00112
1186.0,0.001379
1187.0,0.001292
1188.0,0.0008362
1189.0,0.001189
1190.0,0.001329
1191.0,0.001232
1192.0,0.001343
1193.0,0.00127
1194.0,0.001314
1195.0,0.001221
1196.0,0.001161
1197.0,0.001314
1198.0,0.001181
1199.0,0.0009619
1200.0,0.001229
1201.0,0.001167
1202.0,0.001164
1203.0,0.001152
1204.0,0.0009754
1205.0,0.001191
1206.0,0.001342
1207.0,0.001142
1208.0,0.001132
1209.0,0.001153
1210.0,0.001209
1211.0,0.001132
1212.0,0.0011
1213.0,0.001261
1214.0,0.001127
1215.0,0.001098
1216.0,0.001246
1217.0,0.001201
1218.0,0.001227
1219.0,0.001204
1220.0,0.001221
1221.0,0.001234
1222.0,0.001192
1223.0,0.001175
1224.0,0.001158
1225.0,0.00121
1226.0,0.001219
1227.0,0.0011
1228.0,0.001221
1229.0,0.001208
1230.0,0.001179
1231.0,0.001221
1232.0,0.00121
1233.0,0.001149
1234.0,0.001212
1235.0,0.001198
1236.0,0.001205
1237.0,0.001178
1238.0,0.001193
1239.0,0.001174
1240.0,0.001175
1241.0,0.001162
1242.0,0.001159
1243.0,0.001146
1244.0,0.001149
1245.0,0.001151
1246.0,0.001141
1247.0,0.001131
1248.0,0.001125
1249.0,0.001127
1250.0,0.001115
1251.0,0.001095
1252.0,0.001095
1253.0,0.001077
1254.0,0.001059
1255.0,0.001082
1256.0,0.001038
1257.0,0.001027
1258.0,0.001051
1259.0,0.0009951
1260.0,0.0009991
1261.0,0.0009229
1262.0,0.0008839
1263.0,0.0008825
1264.0,0.0007936
1265.0,0.0008721
1266.0,0.0008255
1267.0,0.0008451
1268.0,0.0007869
1269.0,0.0004302
1270.0,0.000832
1271.0,0.0008961
1272.0,0.0008981
1273.0,0.0008839
1274.0,0.0008864
1275.0,0.0008996
1276.0,0.0009087
1277.0,0.0009156
1278.0,0.0009373
1279.0,0.0009254
1280.0,0.0009112
1281.0,0.0008699
1282.0,0.000841
1283.0,0.0009018
1284.0,0.0009194
1285.0,0.0009234
1286.0,0.000936
1287.0,0.0009131
1288.0,0.0009115
1289.0,0.0008695
1290.0,0.0008984
1291.0,0.0009098
1292.0,0.0008329
1293.0,0.0008816
1294.0,0.0008716
1295.0,0.0008598
1296.0,0.0008065
1297.0,0.0007512
1298.0,0.0008246
1299.0,0.000868
1300.0,0.0007001
1301.0,0.0007255
1302.0,0.0008129
1303.0,0.0006865
1304.0,0.0005591
1305.0,0.0007857
1306.0,0.0007818
1307.0,0.0005719
1308.0,0.0006791
1309.0,0.0007657
1310.0,0.0005537
1311.0,0.000639
1312.0,0.0006179
1313.0,0.0005986
1314.0,0.0005218
1315.0,0.0005119
1316.0,0.0006166
1317.0,0.000576
1318.0,0.0006369
1319.0,0.0004668
1320.0,0.000452
1321.0,0.0005397
1322.0,0.0005411
1323.0,0.0003829
1324.0,0.0004507
1325.0,0.0005884
1326.0,0.0004874
1327.0,0.0004589
1328.0,0.0003849
1329.0,0.000273
1330.0,0.0003666
1331.0,0.0002044
1332.0,0.0002129
1333.0,0.0003041
1334.0,0.0002582
1335.0,0.0003672
1336.0,0.0002786
1337.0,0.000242
1338.0,0.0002623
1339.0,0.0002616
1340.0,0.000255
1341.0,0.0002426
1342.0,0.0002557
1343.0,0.0001614
1344.0,9.467e-05
1345.0,0.000138
1346.0,6.441e-05
1347.0,6.499e-05
1348.0,4.044e-06
1349.0,1.458e-05
1350.0,1.514e-05
1351.0,3.628e-06
1352.0,9.744e-07
1353.0,4.958e-08
1354.0,1.704e-07
1355.0,1.372e-09
1356.0,2.401e-08
1357.0,3.648e-08
1358.0,1.611e-09
