interpolation:linear
wavelength,value
280.0,1.473e-22
280.5,4.886e-21
281.0,2.6280000000000002e-20
281.5,3.986e-19
282.0,5.685e-19
282.5,1.399e-18
283.0,4.416e-18
283.5,7.193e-18
284.0,1.189e-16
284.5,3.479e-16
285.0,5.834e-16
285.5,2.884e-15
286.0,1.162e-14
286.5,5.234e-14
287.0,1.504e-13
287.5,5.813e-13
288.0,2.067e-12
288.5,6.102e-12
289.0,1.602e-11
289.5,4.795e-11
290.0,1.326e-10
290.5,2.699e-10
291.0,5.788e-10
291.5,1.662e-09
292.0,3.338e-09
292.5,4.675e-09
293.0,1.001e-08
293.5,2.429e-08
294.0,3.796e-08
294.5,5.126e-08
295.0,8.674e-08
295.5,1.437e-07
296.0,2.764e-07
296.5,3.851e-07
297.0,5.191e-07
297.5,1.384e-06
298.0,2.169e-06
298.5,2.169e-06
299.0,4.754e-06
299.5,7.798e-06
300.0,8.503e-06
300.5,1.219e-05
301.0,2.166e-05
301.5,3.382e-05
302.0,2.857e-05
302.5,5.679e-05
303.0,0.0001037
303.5,0.000133
304.0,0.0001287
304.5,0.0002087
305.0,0.0003569
305.5,0.000442
306.0,0.0004407
306.5,0.0005777
307.0,0.0009631
307.5,0.001436
308.0,0.001544
308.5,0.00193
309.0,0.002199
309.5,0.002874
310.0,0.003067
310.5,0.005114
311.0,0.006739
311.5,0.006637
312.0,0.007384
312.5,0.009637
313.0,0.01083
313.5,0.01014
314.0,0.0138
314.5,0.0137
315.0,0.01834
315.5,0.01448
316.0,0.01386
316.5,0.02153
317.0,0.02665
317.5,0.02705
318.0,0.02226
318.5,0.03068
319.0,0.03835
319.5,0.02861
320.0,0.03406
320.5,0.04745
321.0,0.04658
321.5,0.04503
322.0,0.04305
322.5,0.03759
323.0,0.04005
323.5,0.05271
324.0,0.0621
324.5,0.06118
325.0,0.05063
325.5,0.0688
326.0,0.08573
326.5,0.08893
327.0,0.08725
327.5,0.08266
328.0,0.07
328.5,0.07786
329.0,0.09765
329.5,0.1123
330.0,0.1117
330.5,0.08594
331.0,0.0863
331.5,0.08999
332.0,0.1011
332.5,0.1017
333.0,0.1001
333.5,0.08771
334.0,0.08924
334.5,0.1064
335.0,0.1019
335.5,0.1199
336.0,0.08284
336.5,0.09486
337.0,0.07652
337.5,0.09447
338.0,0.09479
338.5,0.1106
339.0,0.1093
339.5,0.1049
340.0,0.1216
340.5,0.1098
341.0,0.1078
341.5,0.09888
342.0,0.118
342.5,0.1102
343.0,0.1209
343.5,0.1136
344.0,0.08309
344.5,0.08442
345.0,0.1116
345.5,0.1137
346.0,0.09653
346.5,0.1091
347.0,0.1168
347.5,0.09423
348.0,0.1073
348.5,0.1071
349.0,0.09924
349.5,0.09804
350.0,0.121
350.5,0.1274
351.0,0.1135
351.5,0.1099
352.0,0.1179
352.5,0.09188
353.0,0.1156
353.5,0.1234
354.0,0.1278
354.5,0.1294
355.0,0.1286
355.5,0.116
356.0,0.1211
356.5,0.1032
357.0,0.08507
357.5,0.1039
358.0,0.0822
358.5,0.0701
359.0,0.09781
359.5,0.1243
360.0,0.1315
360.5,0.1049
361.0,0.09543
361.5,0.1097
362.0,0.09465
362.5,0.1307
363.0,0.1171
363.5,0.1077
364.0,0.1314
364.5,0.112
365.0,0.1138
365.5,0.1426
366.0,0.1507
366.5,0.1413
367.0,0.1373
367.5,0.1422
368.0,0.1241
368.5,0.1249
369.0,0.1346
369.5,0.1432
370.0,0.1523
370.5,0.1179
371.0,0.1257
371.5,0.1569
372.0,0.1039
372.5,0.1243
373.0,0.1261
373.5,0.08188
374.0,0.1187
374.5,0.09807
375.0,0.09511
375.5,0.1417
376.0,0.1172
376.5,0.1211
377.0,0.1279
377.5,0.1493
378.0,0.1615
378.5,0.1522
379.0,0.1253
379.5,0.1141
380.0,0.1184
380.5,0.143
381.0,0.143
381.5,0.113
382.0,0.1001
382.5,0.08515
383.0,0.07863
383.5,0.07555
384.0,0.08313
384.5,0.122
385.0,0.1206
385.5,0.1121
386.0,0.09575
386.5,0.1255
387.0,0.104
387.5,0.1165
388.0,0.1073
388.5,0.1058
389.0,0.1139
389.5,0.1376
390.0,0.1377
390.5,0.1264
391.0,0.1484
391.5,0.1509
392.0,0.1268
392.5,0.1132
393.0,0.06283
393.5,0.04556
394.0,0.09246
394.5,0.1173
395.0,0.1427
395.5,0.1446
396.0,0.125
396.5,0.07289
397.0,0.05456
397.5,0.1107
398.0,0.1545
398.5,0.1593
399.0,0.1721
399.5,0.1711
400.0,0.1771
401.0,0.1742
402.0,0.1828
403.0,0.1726
404.0,0.1691
405.0,0.1681
406.0,0.1644
407.0,0.1608
408.0,0.1661
409.0,0.1768
410.0,0.1536
411.0,0.1655
412.0,0.1768
413.0,0.1714
414.0,0.1726
415.0,0.172
416.0,0.1739
417.0,0.1686
418.0,0.1645
419.0,0.1657
420.0,0.164
421.0,0.1706
422.0,0.1611
423.0,0.1563
424.0,0.1642
425.0,0.1629
426.0,0.1578
427.0,0.1539
428.0,0.1491
429.0,0.1405
430.0,0.1222
431.0,0.1203
432.0,0.1543
433.0,0.1542
434.0,0.1423
435.0,0.1477
436.0,0.1655
437.0,0.1623
438.0,0.1468
439.0,0.1508
440.0,0.1545
441.0,0.159
442.0,0.1693
443.0,0.1639
444.0,0.1665
445.0,0.162
446.0,0.1538
447.0,0.1653
448.0,0.1667
449.0,0.1662
450.0,0.1696
451.0,0.1747
452.0,0.1673
453.0,0.1564
454.0,0.1623
455.0,0.1622
456.0,0.1648
457.0,0.1662
458.0,0.1593
459.0,0.1572
460.0,0.1563
461.0,0.1587
462.0,0.159
463.0,0.1571
464.0,0.1538
465.0,0.1511
466.0,0.1517
467.0,0.1479
468.0,0.1485
469.0,0.1481
470.0,0.1423
471.0,0.1413
472.0,0.148
473.0,0.1451
474.0,0.1443
475.0,0.1444
476.0,0.1389
477.0,0.138
478.0,0.1405
479.0,0.1384
480.0,0.1374
481.0,0.1386
482.0,0.1384
483.0,0.1359
484.0,0.1324
485.0,0.1256
486.0,0.1093
487.0,0.1139
488.0,0.1241
489.0,0.1236
490.0,0.129
491.0,0.1259
492.0,0.1181
493.0,0.1211
494.0,0.1215
495.0,0.1217
496.0,0.1215
497.0,0.1223
498.0,0.1155
499.0,0.1158
500.0,0.1113
501.0,0.1081
502.0,0.1054
503.0,0.1085
504.0,0.1046
505.0,0.1076
506.0,0.1103
507.0,0.1043
508.0,0.1005
509.0,0.1029
510.0,0.1018
511.0,0.1039
512.0,0.1043
513.0,0.09794
514.0,0.0965
515.0,0.09479
516.0,0.09383
517.0,0.08276
518.0,0.08636
519.0,0.0899
520.0,0.09242
521.0,0.09251
522.0,0.09178
523.0,0.08942
524.0,0.09175
525.0,0.09192
526.0,0.08698
527.0,0.08112
528.0,0.08492
529.0,0.0887
530.0,0.08667
531.0,0.0872
532.0,0.08352
533.0,0.0805
534.0,0.08233
535.0,0.08362
536.0,0.08388
537.0,0.08007
538.0,0.08094
539.0,0.07971
540.0,0.07587
541.0,0.07574
542.0,0.07743
543.0,0.07601
544.0,0.07675
545.0,0.07599
546.0,0.07573
547.0,0.07515
548.0,0.07374
549.0,0.07346
550.0,0.07381
551.0,0.07239
552.0,0.07237
553.0,0.07055
554.0,0.0717
555.0,0.07129
556.0,0.0698
557.0,0.06706
558.0,0.06594
559.0,0.0641
560.0,0.0643
561.0,0.06454
562.0,0.06346
563.0,0.06461
564.0,0.06232
565.0,0.06129
566.0,0.0599
567.0,0.06052
568.0,0.05946
569.0,0.05749
570.0,0.05707
571.0,0.05632
572.0,0.05716
573.0,0.05737
574.0,0.05683
575.0,0.05542
576.0,0.05462
577.0,0.05494
578.0,0.05389
579.0,0.0539
580.0,0.05475
581.0,0.05483
582.0,0.05565
583.0,0.05558
584.0,0.05583
585.0,0.0542
586.0,0.05277
587.0,0.05356
588.0,0.05181
589.0,0.04536
590.0,0.04716
591.0,0.04974
592.0,0.04866
593.0,0.04911
594.0,0.04831
595.0,0.04664
596.0,0.04832
597.0,0.04736
598.0,0.04691
599.0,0.0466
600.0,0.04638
601.0,0.04574
602.0,0.04516
603.0,0.04567
604.0,0.04619
605.0,0.04576
606.0,0.04541
607.0,0.04572
608.0,0.04507
609.0,0.04501
610.0,0.04457
611.0,0.04467
612.0,0.04441
613.0,0.04371
614.0,0.04298
615.0,0.04378
616.0,0.04221
617.0,0.04198
618.0,0.04344
619.0,0.04284
620.0,0.04294
621.0,0.04278
622.0,0.04208
623.0,0.04123
624.0,0.04035
625.0,0.04011
626.0,0.04054
627.0,0.04077
628.0,0.03735
629.0,0.03927
630.0,0.03818
631.0,0.03907
632.0,0.03849
633.0,0.0396
634.0,0.03913
635.0,0.03962
636.0,0.03898
637.0,0.0395
638.0,0.03978
639.0,0.03921
640.0,0.03871
641.0,0.03855
642.0,0.03827
643.0,0.03866
644.0,0.03841
645.0,0.0383
646.0,0.03718
647.0,0.03644
648.0,0.03631
649.0,0.03545
650.0,0.03566
651.0,0.03708
652.0,0.03518
653.0,0.0363
654.0,0.03576
655.0,0.03418
656.0,0.03024
657.0,0.03094
658.0,0.03461
659.0,0.03474
660.0,0.03475
661.0,0.03485
662.0,0.03475
663.0,0.03395
664.0,0.03427
665.0,0.0342
666.0,0.0341
667.0,0.03397
668.0,0.03387
669.0,0.03427
670.0,0.03398
671.0,0.03386
672.0,0.03346
673.0,0.03387
674.0,0.03361
675.0,0.03317
676.0,0.03327
677.0,0.03282
678.0,0.0328
679.0,0.03214
680.0,0.03227
681.0,0.03192
682.0,0.03174
683.0,0.03153
684.0,0.03123
685.0,0.03136
686.0,0.03103
687.0,0.01879
688.0,0.02258
689.0,0.02259
690.0,0.02386
691.0,0.02534
692.0,0.02645
693.0,0.0261
694.0,0.02578
695.0,0.02698
696.0,0.02691
697.0,0.0288
698.0,0.02823
699.0,0.02721
700.0,0.02675
701.0,0.0263
702.0,0.02646
703.0,0.0264
704.0,0.02725
705.0,0.02716
706.0,0.02706
707.0,0.02698
708.0,0.02691
709.0,0.0269
710.0,0.02673
711.0,0.02663
712.0,0.02649
713.0,0.02606
714.0,0.02603
715.0,0.025
716.0,0.02488
717.0,0.02079
718.0,0.01887
719.0,0.01709
720.0,0.01783
721.0,0.01999
722.0,0.0233
723.0,0.02131
724.0,0.01881
725.0,0.01837
726.0,0.01923
727.0,0.01952
728.0,0.01808
729.0,0.01888
730.0,0.01991
731.0,0.01889
732.0,0.02037
733.0,0.02171
734.0,0.0222
735.0,0.0216
736.0,0.02147
737.0,0.02145
738.0,0.02185
739.0,0.02132
740.0,0.02182
741.0,0.02153
742.0,0.02148
743.0,0.02192
744.0,0.02176
745.0,0.02167
746.0,0.02166
747.0,0.02161
748.0,0.02146
749.0,0.02112
750.0,0.02102
751.0,0.02072
752.0,0.02073
753.0,0.02075
754.0,0.0207
755.0,0.0205
756.0,0.02041
757.0,0.02035
758.0,0.02
759.0,0.0194
760.0,0.002683
761.0,0.001413
762.0,0.008547
763.0,0.004056
764.0,0.006181
765.0,0.008419
766.0,0.01068
767.0,0.01398
768.0,0.01668
769.0,0.0171
770.0,0.01779
771.0,0.01793
772.0,0.01791
773.0,0.01794
774.0,0.01776
775.0,0.01754
776.0,0.01767
777.0,0.01734
778.0,0.01714
779.0,0.01707
780.0,0.0169
781.0,0.01684
782.0,0.01688
783.0,0.01652
784.0,0.01654
785.0,0.01635
786.0,0.01645
787.0,0.01603
788.0,0.01573
789.0,0.01564
790.0,0.01506
791.0,0.01522
792.0,0.01506
793.0,0.01473
794.0,0.01503
795.0,0.01518
796.0,0.01451
797.0,0.01446
798.0,0.01496
799.0,0.01477
800.0,0.01441
801.0,0.01427
802.0,0.01416
803.0,0.01397
804.0,0.01394
805.0,0.01387
806.0,0.01425
807.0,0.014
808.0,0.01395
809.0,0.01357
810.0,0.01336
811.0,0.01326
812.0,0.01271
813.0,0.01234
814.0,0.01054
815.0,0.01044
816.0,0.00958
817.0,0.009736
818.0,0.009288
819.0,0.01056
820.0,0.00982
821.0,0.01179
822.0,0.01134
823.0,0.007188
824.0,0.01082
825.0,0.01138
826.0,0.0108
827.0,0.01148
828.0,0.009377
829.0,0.01062
830.0,0.01042
831.0,0.01042
832.0,0.009992
833.0,0.01077
834.0,0.01025
835.0,0.01143
836.0,0.01075
837.0,0.01136
838.0,0.0109
839.0,0.0111
840.0,0.01131
841.0,0.01107
842.0,0.01109
843.0,0.01108
844.0,0.01085
845.0,0.0112
846.0,0.0111
847.0,0.01086
848.0,0.01072
849.0,0.01036
850.0,0.009884
851.0,0.01039
852.0,0.01027
853.0,0.009856
854.0,0.008458
855.0,0.009275
856.0,0.01009
857.0,0.01029
858.0,0.01017
859.0,0.01014
860.0,0.01013
861.0,0.01003
862.0,0.01015
863.0,0.01036
864.0,0.009804
865.0,0.009682
866.0,0.008671
867.0,0.009013
868.0,0.009769
869.0,0.009529
870.0,0.009762
871.0,0.009589
872.0,0.009517
873.0,0.009459
874.0,0.009305
875.0,0.009075
876.0,0.009128
877.0,0.009183
878.0,0.00924
879.0,0.00906
880.0,0.008828
881.0,0.00865
882.0,0.008798
883.0,0.008798
884.0,0.008714
885.0,0.008739
886.0,0.008261
887.0,0.008341
888.0,0.008412
889.0,0.008499
890.0,0.008356
891.0,0.008326
892.0,0.008013
893.0,0.00768
894.0,0.007283
895.0,0.006738
896.0,0.00625
897.0,0.005201
898.0,0.005732
899.0,0.00416
900.0,0.005898
901.0,0.004368
902.0,0.005276
903.0,0.005258
904.0,0.006931
905.0,0.006618
906.0,0.006118
907.0,0.004729
908.0,0.004846
909.0,0.005323
910.0,0.004543
911.0,0.004918
912.0,0.005146
913.0,0.004552
914.0,0.004511
915.0,0.004904
916.0,0.004058
917.0,0.005337
918.0,0.004135
919.0,0.005423
920.0,0.005534
921.0,0.005771
922.0,0.005017
923.0,0.005537
924.0,0.005093
925.0,0.004953
926.0,0.004989
927.0,0.005674
928.0,0.003858
929.0,0.003447
930.0,0.002594
931.0,0.002439
932.0,0.001674
933.0,0.001328
934.0,0.0006888
935.0,0.00136
936.0,0.0008146
937.0,0.0008215
938.0,0.001018
939.0,0.00228
940.0,0.002807
941.0,0.002029
942.0,0.002379
943.0,0.001489
944.0,0.001595
945.0,0.002065
946.0,0.0009784
947.0,0.002047
948.0,0.001468
949.0,0.002822
950.0,0.0006894
951.0,0.002762
952.0,0.001373
953.0,0.001822
954.0,0.002301
955.0,0.00184
956.0,0.001811
957.0,0.001347
958.0,0.002658
959.0,0.002013
960.0,0.002268
961.0,0.002601
962.0,0.00244
963.0,0.002878
964.0,0.002594
965.0,0.002843
966.0,0.00283
967.0,0.002796
968.0,0.004034
969.0,0.004189
970.0,0.003779
971.0,0.004467
972.0,0.004211
973.0,0.003514
974.0,0.003302
975.0,0.003449
976.0,0.003201
977.0,0.003779
978.0,0.003514
979.0,0.003711
980.0,0.003437
981.0,0.004274
982.0,0.004018
983.0,0.00381
984.0,0.004418
985.0,0.003956
986.0,0.0045
987.0,0.004355
988.0,0.00433
989.0,0.004458
990.0,0.004271
991.0,0.004424
992.0,0.004438
993.0,0.004285
994.0,0.004411
995.0,0.004396
996.0,0.004353
997.0,0.004348
998.0,0.004309
999.0,0.00428
1000.0,0.004224
1001.0,0.004272
1002.0,0.004096
1003.0,0.004162
1004.0,0.004033
1005.0,0.003886
1006.0,0.004014
1007.0,0.004087
1008.0,0.004042
1009.0,0.003998
1010.0,0.003961
1011.0,0.004007
1012.0,0.003948
1013.0,0.003969
1014.0,0.003927
1015.0,0.003885
1016.0,0.003852
1017.0,0.003845
1018.0,0.003821
1019.0,0.003709
1020.0,0.003768
1021.0,0.003752
1022.0,0.003702
1023.0,0.003727
1024.0,0.00365
1025.0,0.003702
1026.0,0.003668
1027.0,0.003646
1028.0,0.003624
1029.0,0.003567
1030.0,0.003584
1031.0,0.003553
1032.0,0.003531
1033.0,0.003464
1034.0,0.003451
1035.0,0.003449
1036.0,0.003452
1037.0,0.003383
1038.0,0.003386
1039.0,0.003371
1040.0,0.003344
1041.0,0.003343
1042.0,0.003307
1043.0,0.003284
1044.0,0.003283
1045.0,0.003225
1046.0,0.003176
1047.0,0.003192
1048.0,0.003197
1049.0,0.003173
1050.0,0.003146
1051.0,0.003128
1052.0,0.003103
1053.0,0.003066
1054.0,0.00306
1055.0,0.003048
1056.0,0.003024
1057.0,0.003001
1058.0,0.002916
1059.0,0.002906
1060.0,0.00289
1061.0,0.002875
1062.0,0.002877
1063.0,0.002837
1064.0,0.002861
1065.0,0.002825
1066.0,0.002763
1067.0,0.002787
1068.0,0.002712
1069.0,0.002622
1070.0,0.002697
1071.0,0.00274
1072.0,0.00269
1073.0,0.002644
1074.0,0.002716
1075.0,0.002539
1076.0,0.002692
1077.0,0.002616
1078.0,0.002549
1079.0,0.002625
1080.0,0.002545
1081.0,0.002442
1082.0,0.002499
1083.0,0.002505
1084.0,0.002401
1085.0,0.00251
1086.0,0.002232
1087.0,0.002333
1088.0,0.002451
1089.0,0.002337
1090.0,0.002257
1091.0,0.002408
1092.0,0.002399
1093.0,0.001943
1094.0,0.00217
1095.0,0.002022
1096.0,0.001906
1097.0,0.002304
1098.0,0.001855
1099.0,0.001939
1100.0,0.001762
1101.0,0.00179
1102.0,0.001684
1103.0,0.001648
1104.0,0.001647
1105.0,0.001847
1106.0,0.001305
1107.0,0.00172
1108.0,0.001389
1109.0,0.001392
1110.0,0.001676
1111.0,0.001044
1112.0,0.00137
1113.0,0.0007966
1114.0,0.0008952
1115.0,0.0007272
1116.0,0.0005547
1117.0,0.000186
1118.0,0.0006057
1119.0,0.0002804
1120.0,0.0003529
1121.0,0.0004767
1122.0,0.0001882
1123.0,0.0003148
1124.0,0.0002634
1125.0,0.0003479
1126.0,0.0001124
1127.0,0.0003918
1128.0,0.0002227
1129.0,0.0002365
1130.0,0.0001524
1131.0,0.0007849
1132.0,0.0005987
1133.0,0.0003574
1134.0,8.472e-05
1135.0,3.16e-05
1136.0,0.0002896
1137.0,0.0007484
1138.0,0.0005125
1139.0,0.0008181
1140.0,0.0006581
1141.0,0.0004812
1142.0,0.0005615
1143.0,0.0008295
1144.0,0.0002605
1145.0,0.0003302
1146.0,0.0003555
1147.0,0.0001166
1148.0,0.0006959
1149.0,0.0005367
1150.0,0.0002772
1151.0,0.0004859
1152.0,0.0006143
1153.0,0.0006047
1154.0,0.0003105
1155.0,0.0008103
1156.0,0.0007138
1157.0,0.0008223
1158.0,0.0008094
1159.0,0.0008857
1160.0,0.000738
1161.0,0.0009476
1162.0,0.0009444
1163.0,0.001361
1164.0,0.001128
1165.0,0.001037
1166.0,0.00104
1167.0,0.001146
1168.0,0.001153
1169.0,0.001186
1170.0,0.001309
1171.0,0.001268
1172.0,0.0013
1173.0,0.001293
1174.0,0.000859
1175.0,0.001265
1176.0,0.001421
1177.0,0.001338
1178.0,0.0009468
1179.0,0.001419
1180.0,0.001222
1181.0,0.001263
1182.0,0.00081
1183.0,0.001243
1184.0,0.001138
1185.0,0.001081
1186.0,0.001333
1187.0,0.001248
1188.0,0.0008066
1189.0,0.001149
1190.0,0.001286
1191.0,0.001189
1192.0,0.001299
1193.0,0.001228
1194.0,0.001271
1195.0,0.001179
1196.0,0.001121
1197.0,0.001271
1198.0,0.001143
1199.0,0.0009286
1200.0,0.001188
1201.0,0.001127
1202.0,0.001126
1203.0,0.001112
1204.0,0.0009425
1205.0,0.001153
1206.0,0.001299
1207.0,0.001104
1208.0,0.001095
1209.0,0.001116
1210.0,0.00117
1211.0,0.001095
1212.0,0.001061
1213.0,0.001219
1214.0,0.001088
1215.0,0.00106
1216.0,0.001205
1217.0,0.001161
1218.0,0.001187
1219.0,0.001164
1220.0,0.001181
1221.0,0.001194
1222.0,0.001154
1223.0,0.001137
1224.0,0.001119
1225.0,0.00117
1226.0,0.00118
1227.0,0.001064
1228.0,0.001183
1229.0,0.001169
1230.0,0.001141
1231.0,0.001183
1232.0,0.001172
1233.0,0.001111
1234.0,0.001175
1235.0,0.001161
1236.0,0.001168
1237.0,0.001141
1238.0,0.001156
1239.0,0.001138
1240.0,0.001139
1241.0,0.001126
1242.0,0.001123
1243.0,0.001111
1244.0,0.001113
1245.0,0.001115
1246.0,0.001106
1247.0,0.001097
1248.0,0.00109
1249.0,0.001092
1250.0,0.001081
1251.0,0.001061
1252.0,0.001061
1253.0,0.001043
1254.0,0.001025
1255.0,0.001048
1256.0,0.001005
1257.0,0.0009939
1258.0,0.001018
1259.0,0.0009618
1260.0,0.0009659
1261.0,0.0008902
1262.0,0.0008516
1263.0,0.0008503
1264.0,0.0007628
1265.0,0.0008402
1266.0,0.0007942
1267.0,0.0008139
1268.0,0.0007566
1269.0,0.0004123
1270.0,0.0008008
1271.0,0.0008645
1272.0,0.0008665
1273.0,0.0008526
1274.0,0.0008553
1275.0,0.0008684
1276.0,0.0008777
1277.0,0.000885
1278.0,0.0009066
1279.0,0.0008952
1280.0,0.0008814
1281.0,0.000842
1282.0,0.0008146
1283.0,0.0008734
1284.0,0.0008903
1285.0,0.0008944
1286.0,0.0009069
1287.0,0.000884
1288.0,0.0008828
1289.0,0.0008408
1290.0,0.0008701
1291.0,0.0008815
1292.0,0.0008049
1293.0,0.0008537
1294.0,0.000844
1295.0,0.0008316
1296.0,0.0007791
1297.0,0.0007252
1298.0,0.0007975
1299.0,0.0008407
1300.0,0.0006762
1301.0,0.0007008
1302.0,0.0007863
1303.0,0.0006632
1304.0,0.000539
1305.0,0.00076
1306.0,0.0007557
1307.0,0.0005519
1308.0,0.0006565
1309.0,0.0007395
1310.0,0.0005342
1311.0,0.0006174
1312.0,0.0005969
1313.0,0.0005775
1314.0,0.0005033
1315.0,0.0004933
1316.0,0.0005953
1317.0,0.000556
1318.0,0.0006153
1319.0,0.00045
1320.0,0.0004361
1321.0,0.0005207
1322.0,0.0005215
1323.0,0.0003688
1324.0,0.0004347
1325.0,0.0005676
1326.0,0.00047
1327.0,0.0004425
1328.0,0.0003711
1329.0,0.0002633
1330.0,0.000353
1331.0,0.0001975
1332.0,0.0002056
1333.0,0.0002925
1334.0,0.0002497
1335.0,0.0003534
1336.0,0.0002684
1337.0,0.0002338
1338.0,0.000253
1339.0,0.0002522
1340.0,0.0002462
1341.0,0.0002338
1342.0,0.0002464
1343.0,0.0001563
1344.0,9.223e-05
1345.0,0.0001337
1346.0,6.31e-05
1347.0,6.37e-05
1348.0,4.02e-06
1349.0,1.445e-05
1350.0,1.5e-05
1351.0,3.61e-06
1352.0,9.705e-07
1353.0,4.939e-08
1354.0,1.697e-07
1355.0,1.367e-09
1356.0,2.392e-08
