interpolation:linear
wavelength,value
280.0,1.07e-21
280.5,3.4400000000000004e-20
281.0,1.83e-19
281.5,5.229e-19
282.0,9.501e-19
282.5,2.363e-18
283.0,7.45e-18
283.5,1.21e-17
284.0,1.959e-16
284.5,5.665e-16
285.0,1.117e-15
285.5,5.385e-15
286.0,2.152e-14
286.5,9.523e-14
287.0,2.704e-13
287.5,1.029e-12
288.0,3.167e-12
288.5,9.903e-12
289.0,2.692e-11
289.5,8.24e-11
290.0,2.304e-10
290.5,4.72e-10
291.0,1.017e-09
291.5,2.927e-09
292.0,6.059e-09
292.5,8.73e-09
293.0,1.932e-08
293.5,4.887e-08
294.0,7.834e-08
294.5,1.028e-07
295.0,1.773e-07
295.5,4.009e-07
296.0,7.163e-07
296.5,1.025e-06
297.0,1.418e-06
297.5,3.958e-06
298.0,6.496e-06
298.5,6.775e-06
299.0,1.555e-05
299.5,2.813e-05
300.0,3.274e-05
300.5,5.068e-05
301.0,0.0001045
301.5,0.0001936
302.0,0.0001816
302.5,0.0003577
303.0,0.0006501
303.5,0.000828
304.0,0.0007908
304.5,0.001239
305.0,0.002016
305.5,0.002415
306.0,0.002375
306.5,0.003043
307.0,0.004832
307.5,0.006867
308.0,0.007315
308.5,0.00892
309.0,0.009093
309.5,0.01066
310.0,0.01082
310.5,0.0176
311.0,0.02228
311.5,0.02155
312.0,0.02205
312.5,0.02724
313.0,0.02975
313.5,0.02854
314.0,0.03639
314.5,0.03321
315.0,0.04376
315.5,0.03591
316.0,0.03212
316.5,0.0471
317.0,0.05827
317.5,0.06003
318.0,0.04748
318.5,0.06077
319.0,0.07317
319.5,0.0578
320.0,0.06934
320.5,0.08962
321.0,0.08226
321.5,0.07889
322.0,0.08085
322.5,0.07024
323.0,0.07138
323.5,0.08944
324.0,0.1044
324.5,0.1048
325.0,0.08906
325.5,0.1165
326.0,0.1426
326.5,0.144
327.0,0.1425
327.5,0.1364
328.0,0.1194
328.5,0.1273
329.0,0.1544
329.5,0.1756
330.0,0.1758
330.5,0.1385
331.0,0.1401
331.5,0.1432
332.0,0.1565
332.5,0.1554
333.0,0.1538
333.5,0.1372
334.0,0.1399
334.5,0.1629
335.0,0.1538
335.5,0.1812
336.0,0.125
336.5,0.1436
337.0,0.1168
337.5,0.1445
338.0,0.1422
338.5,0.1653
339.0,0.1627
339.5,0.1563
340.0,0.1814
340.5,0.1632
341.0,0.1598
341.5,0.1456
342.0,0.1733
342.5,0.1615
343.0,0.1774
343.5,0.1668
344.0,0.1224
344.5,0.1243
345.0,0.163
345.5,0.1656
346.0,0.1401
346.5,0.1581
347.0,0.1694
347.5,0.1366
348.0,0.1549
348.5,0.1542
349.0,0.1426
349.5,0.1407
350.0,0.1734
350.5,0.1824
351.0,0.1625
351.5,0.1578
352.0,0.1686
352.5,0.131
353.0,0.1644
353.5,0.1752
354.0,0.1812
354.5,0.1832
355.0,0.182
355.5,0.1638
356.0,0.1708
356.5,0.1454
357.0,0.1197
357.5,0.1461
358.0,0.1154
358.5,0.09824
359.0,0.137
359.5,0.174
360.0,0.1838
360.5,0.1464
361.0,0.133
361.5,0.1526
362.0,0.1316
362.5,0.1815
363.0,0.1624
363.5,0.1491
364.0,0.1818
364.5,0.1548
365.0,0.1572
365.5,0.1966
366.0,0.2076
366.5,0.1944
367.0,0.1887
367.5,0.1951
368.0,0.1702
368.5,0.1712
369.0,0.1842
369.5,0.1957
370.0,0.2079
370.5,0.1608
371.0,0.1712
371.5,0.2135
372.0,0.1412
372.5,0.1688
373.0,0.1711
373.5,0.1109
374.0,0.1606
374.5,0.1326
375.0,0.1285
375.5,0.1911
376.0,0.1579
376.5,0.1631
377.0,0.172
377.5,0.2006
378.0,0.2167
378.5,0.2041
379.0,0.1678
379.5,0.1527
380.0,0.1582
380.5,0.1909
381.0,0.1906
381.5,0.1506
382.0,0.1332
382.5,0.1132
383.0,0.1044
383.5,0.1002
384.0,0.1101
384.5,0.1614
385.0,0.1595
385.5,0.148
386.0,0.1263
386.5,0.1654
387.0,0.1369
387.5,0.1532
388.0,0.141
388.5,0.1389
389.0,0.1493
389.5,0.1802
390.0,0.1802
390.5,0.1653
391.0,0.1938
391.5,0.197
392.0,0.1653
392.5,0.1475
393.0,0.08176
393.5,0.05923
394.0,0.1201
394.5,0.1522
395.0,0.185
395.5,0.1873
396.0,0.1618
396.5,0.09424
397.0,0.07047
397.5,0.1428
398.0,0.1992
398.5,0.2052
399.0,0.2214
399.5,0.2199
400.0,0.2276
401.0,0.2236
402.0,0.2341
403.0,0.2208
404.0,0.2158
405.0,0.2142
406.0,0.2092
407.0,0.2043
408.0,0.2107
409.0,0.2239
410.0,0.1943
411.0,0.2089
412.0,0.2228
413.0,0.2157
414.0,0.2168
415.0,0.2158
416.0,0.2179
417.0,0.211
418.0,0.2055
419.0,0.2067
420.0,0.2042
421.0,0.2121
422.0,0.2
423.0,0.1938
424.0,0.2034
425.0,0.2015
426.0,0.1949
427.0,0.1899
428.0,0.1837
429.0,0.1728
430.0,0.1501
431.0,0.1476
432.0,0.1891
433.0,0.1887
434.0,0.1739
435.0,0.1803
436.0,0.2018
437.0,0.1976
438.0,0.1787
439.0,0.1834
440.0,0.1878
441.0,0.193
442.0,0.2054
443.0,0.1986
444.0,0.2015
445.0,0.1957
446.0,0.1855
447.0,0.1991
448.0,0.2006
449.0,0.1998
450.0,0.2038
451.0,0.2098
452.0,0.2006
453.0,0.1874
454.0,0.1942
455.0,0.1939
456.0,0.1969
457.0,0.1985
458.0,0.1902
459.0,0.1876
460.0,0.1866
461.0,0.1894
462.0,0.1895
463.0,0.187
464.0,0.1828
465.0,0.1794
466.0,0.1799
467.0,0.1752
468.0,0.1758
469.0,0.1752
470.0,0.1684
471.0,0.167
472.0,0.1747
473.0,0.1712
474.0,0.1701
475.0,0.1702
476.0,0.1637
477.0,0.1627
478.0,0.1658
479.0,0.1633
480.0,0.1622
481.0,0.1637
482.0,0.1633
483.0,0.1602
484.0,0.1558
485.0,0.1475
486.0,0.1281
487.0,0.1334
488.0,0.1452
489.0,0.1445
490.0,0.1509
491.0,0.1471
492.0,0.1379
493.0,0.1413
494.0,0.1417
495.0,0.1419
496.0,0.1417
497.0,0.1427
498.0,0.1348
499.0,0.1353
500.0,0.1301
501.0,0.1265
502.0,0.1236
503.0,0.1274
504.0,0.123
505.0,0.1265
506.0,0.1296
507.0,0.1225
508.0,0.1179
509.0,0.1205
510.0,0.1192
511.0,0.1216
512.0,0.122
513.0,0.1146
514.0,0.1129
515.0,0.1109
516.0,0.1098
517.0,0.09689
518.0,0.1011
519.0,0.1053
520.0,0.1082
521.0,0.1084
522.0,0.1076
523.0,0.1049
524.0,0.1078
525.0,0.1081
526.0,0.1024
527.0,0.09563
528.0,0.1002
529.0,0.1048
530.0,0.1025
531.0,0.1032
532.0,0.09892
533.0,0.09535
534.0,0.09751
535.0,0.099
536.0,0.09926
537.0,0.09471
538.0,0.09572
539.0,0.09429
540.0,0.08978
541.0,0.08968
542.0,0.09175
543.0,0.0901
544.0,0.09105
545.0,0.09019
546.0,0.08992
547.0,0.08924
548.0,0.08756
549.0,0.08724
550.0,0.08767
551.0,0.086
552.0,0.08598
553.0,0.08384
554.0,0.08524
555.0,0.0848
556.0,0.08306
557.0,0.07985
558.0,0.0786
559.0,0.07649
560.0,0.07681
561.0,0.07717
562.0,0.07597
563.0,0.07742
564.0,0.07475
565.0,0.07356
566.0,0.07194
567.0,0.07274
568.0,0.07152
569.0,0.06924
570.0,0.06876
571.0,0.06787
572.0,0.06895
573.0,0.06922
574.0,0.06858
575.0,0.06689
576.0,0.06589
577.0,0.06623
578.0,0.0649
579.0,0.06485
580.0,0.06579
581.0,0.0658
582.0,0.06671
583.0,0.06656
584.0,0.06682
585.0,0.06483
586.0,0.06309
587.0,0.06403
588.0,0.062
589.0,0.05438
590.0,0.05655
591.0,0.05959
592.0,0.05837
593.0,0.05889
594.0,0.05801
595.0,0.0561
596.0,0.05808
597.0,0.05701
598.0,0.05648
599.0,0.05615
600.0,0.05589
601.0,0.05512
602.0,0.05442
603.0,0.05501
604.0,0.05561
605.0,0.05504
606.0,0.05457
607.0,0.05487
608.0,0.05402
609.0,0.05387
610.0,0.05326
611.0,0.05332
612.0,0.05294
613.0,0.05204
614.0,0.0511
615.0,0.05199
616.0,0.05006
617.0,0.04974
618.0,0.05142
619.0,0.05067
620.0,0.05074
621.0,0.05053
622.0,0.04967
623.0,0.04865
624.0,0.04757
625.0,0.04725
626.0,0.04774
627.0,0.048
628.0,0.04417
629.0,0.04624
630.0,0.04494
631.0,0.04587
632.0,0.04513
633.0,0.04637
634.0,0.04576
635.0,0.04627
636.0,0.04547
637.0,0.04602
638.0,0.04629
639.0,0.04558
640.0,0.04494
641.0,0.04471
642.0,0.04434
643.0,0.04476
644.0,0.04443
645.0,0.04427
646.0,0.04297
647.0,0.04216
648.0,0.04196
649.0,0.04095
650.0,0.0411
651.0,0.0427
652.0,0.04055
653.0,0.04174
654.0,0.0411
655.0,0.03928
656.0,0.03471
657.0,0.03549
658.0,0.03965
659.0,0.03978
660.0,0.03975
661.0,0.03984
662.0,0.03972
663.0,0.03878
664.0,0.0391
665.0,0.03898
666.0,0.03884
667.0,0.03865
668.0,0.03851
669.0,0.03893
670.0,0.03858
671.0,0.03841
672.0,0.03794
673.0,0.03838
674.0,0.03805
675.0,0.03753
676.0,0.03762
677.0,0.0371
678.0,0.03706
679.0,0.0363
680.0,0.03642
681.0,0.03602
682.0,0.0358
683.0,0.03556
684.0,0.0352
685.0,0.03533
686.0,0.03496
687.0,0.02171
688.0,0.02592
689.0,0.02591
690.0,0.02726
691.0,0.02883
692.0,0.02997
693.0,0.02956
694.0,0.02914
695.0,0.03039
696.0,0.03028
697.0,0.03232
698.0,0.03167
699.0,0.03058
700.0,0.03006
701.0,0.02958
702.0,0.02972
703.0,0.02963
704.0,0.03054
705.0,0.03043
706.0,0.03031
707.0,0.0302
708.0,0.03012
709.0,0.03007
710.0,0.02989
711.0,0.02977
712.0,0.0296
713.0,0.02913
714.0,0.02909
715.0,0.02796
716.0,0.02783
717.0,0.02344
718.0,0.02125
719.0,0.01922
720.0,0.02009
721.0,0.02243
722.0,0.02607
723.0,0.02387
724.0,0.02111
725.0,0.02063
726.0,0.02161
727.0,0.02186
728.0,0.02029
729.0,0.02114
730.0,0.02234
731.0,0.02118
732.0,0.02278
733.0,0.02422
734.0,0.02473
735.0,0.02408
736.0,0.02394
737.0,0.02391
738.0,0.0243
739.0,0.0237
740.0,0.02424
741.0,0.02391
742.0,0.02383
743.0,0.02432
744.0,0.02413
745.0,0.02403
746.0,0.02402
747.0,0.02397
748.0,0.02379
749.0,0.0234
750.0,0.02329
751.0,0.02296
752.0,0.02296
753.0,0.02296
754.0,0.0229
755.0,0.02267
756.0,0.02257
757.0,0.0225
758.0,0.02211
759.0,0.02149
760.0,0.002955
761.0,0.001521
762.0,0.009759
763.0,0.004542
764.0,0.007021
765.0,0.00961
766.0,0.01215
767.0,0.01577
768.0,0.01859
769.0,0.019
770.0,0.01969
771.0,0.01982
772.0,0.01978
773.0,0.01982
774.0,0.01962
775.0,0.01938
776.0,0.01953
777.0,0.01917
778.0,0.01895
779.0,0.01887
780.0,0.01868
781.0,0.01862
782.0,0.01865
783.0,0.01825
784.0,0.01826
785.0,0.01804
786.0,0.01816
787.0,0.01771
788.0,0.01739
789.0,0.01729
790.0,0.01667
791.0,0.01682
792.0,0.01662
793.0,0.01627
794.0,0.01656
795.0,0.01674
796.0,0.01604
797.0,0.016
798.0,0.01649
799.0,0.01629
800.0,0.0159
801.0,0.01576
802.0,0.01564
803.0,0.01544
804.0,0.0154
805.0,0.01531
806.0,0.01571
807.0,0.01543
808.0,0.01538
809.0,0.01498
810.0,0.01476
811.0,0.01467
812.0,0.01411
813.0,0.0137
814.0,0.01175
815.0,0.01162
816.0,0.01066
817.0,0.01084
818.0,0.01035
819.0,0.01174
820.0,0.01092
821.0,0.01305
822.0,0.01256
823.0,0.007999
824.0,0.01201
825.0,0.01257
826.0,0.01195
827.0,0.01268
828.0,0.01041
829.0,0.01174
830.0,0.01151
831.0,0.01151
832.0,0.01105
833.0,0.0119
834.0,0.01134
835.0,0.01259
836.0,0.01189
837.0,0.01252
838.0,0.01203
839.0,0.01223
840.0,0.01246
841.0,0.01221
842.0,0.01221
843.0,0.01218
844.0,0.01194
845.0,0.01231
846.0,0.01221
847.0,0.01193
848.0,0.01179
849.0,0.0114
850.0,0.01088
851.0,0.01144
852.0,0.01131
853.0,0.01085
854.0,0.009316
855.0,0.01021
856.0,0.0111
857.0,0.01132
858.0,0.01119
859.0,0.01116
860.0,0.01113
861.0,0.01102
862.0,0.01116
863.0,0.01138
864.0,0.01077
865.0,0.01063
866.0,0.009521
867.0,0.009895
868.0,0.01072
869.0,0.01046
870.0,0.01071
871.0,0.01052
872.0,0.01044
873.0,0.01038
874.0,0.01021
875.0,0.009957
876.0,0.01002
877.0,0.01008
878.0,0.01014
879.0,0.009942
880.0,0.009687
881.0,0.009496
882.0,0.009661
883.0,0.009659
884.0,0.009569
885.0,0.009597
886.0,0.009084
887.0,0.009163
888.0,0.009246
889.0,0.009334
890.0,0.009187
891.0,0.009149
892.0,0.00882
893.0,0.008462
894.0,0.008053
895.0,0.007481
896.0,0.006931
897.0,0.005781
898.0,0.006373
899.0,0.00462
900.0,0.006542
901.0,0.004869
902.0,0.005862
903.0,0.005856
904.0,0.007666
905.0,0.007323
906.0,0.006773
907.0,0.005263
908.0,0.005383
909.0,0.005913
910.0,0.005062
911.0,0.005455
912.0,0.005722
913.0,0.005073
914.0,0.005019
915.0,0.005482
916.0,0.00451
917.0,0.005947
918.0,0.004606
919.0,0.006028
920.0,0.006114
921.0,0.006398
922.0,0.005574
923.0,0.006133
924.0,0.005676
925.0,0.005512
926.0,0.005566
927.0,0.006318
928.0,0.004328
929.0,0.003873
930.0,0.002912
931.0,0.002735
932.0,0.00187
933.0,0.001474
934.0,0.0007519
935.0,0.00151
936.0,0.0008929
937.0,0.0009003
938.0,0.001123
939.0,0.002559
940.0,0.003158
941.0,0.002278
942.0,0.00268
943.0,0.001659
944.0,0.001771
945.0,0.002316
946.0,0.00108
947.0,0.002299
948.0,0.001629
949.0,0.003189
950.0,0.0007529
951.0,0.00312
952.0,0.001527
953.0,0.002039
954.0,0.002585
955.0,0.002062
956.0,0.002
957.0,0.0015
958.0,0.002964
959.0,0.002246
960.0,0.002544
961.0,0.002911
962.0,0.002724
963.0,0.003213
964.0,0.002892
965.0,0.003178
966.0,0.003163
967.0,0.003129
968.0,0.004465
969.0,0.004664
970.0,0.0042
971.0,0.004942
972.0,0.004663
973.0,0.003917
974.0,0.003676
975.0,0.003832
976.0,0.003575
977.0,0.004185
978.0,0.003908
979.0,0.004124
980.0,0.003815
981.0,0.004729
982.0,0.004455
983.0,0.004228
984.0,0.004871
985.0,0.00439
986.0,0.00495
987.0,0.004803
988.0,0.004774
989.0,0.004897
990.0,0.004712
991.0,0.004864
992.0,0.004877
993.0,0.004721
994.0,0.004845
995.0,0.004826
996.0,0.004781
997.0,0.004773
998.0,0.004731
999.0,0.004698
1000.0,0.00464
1001.0,0.004689
1002.0,0.004511
1003.0,0.004569
1004.0,0.004431
1005.0,0.004264
1006.0,0.004407
1007.0,0.004486
1008.0,0.004439
1009.0,0.004393
1010.0,0.004354
1011.0,0.004398
1012.0,0.004336
1013.0,0.004356
1014.0,0.00431
1015.0,0.004264
1016.0,0.004227
1017.0,0.004221
1018.0,0.004192
1019.0,0.004075
1020.0,0.004136
1021.0,0.004116
1022.0,0.004064
1023.0,0.004091
1024.0,0.004012
1025.0,0.004063
1026.0,0.004027
1027.0,0.004002
1028.0,0.003979
1029.0,0.003916
1030.0,0.003933
1031.0,0.0039
1032.0,0.003875
1033.0,0.003802
1034.0,0.003788
1035.0,0.003785
1036.0,0.003788
1037.0,0.003713
1038.0,0.003716
1039.0,0.0037
1040.0,0.003671
1041.0,0.003671
1042.0,0.003631
1043.0,0.003606
1044.0,0.003605
1045.0,0.003542
1046.0,0.003489
1047.0,0.003506
1048.0,0.003512
1049.0,0.003487
1050.0,0.003457
1051.0,0.003438
1052.0,0.003411
1053.0,0.003371
1054.0,0.003365
1055.0,0.003353
1056.0,0.003327
1057.0,0.003303
1058.0,0.003209
1059.0,0.0032
1060.0,0.003182
1061.0,0.003166
1062.0,0.003169
1063.0,0.003126
1064.0,0.003152
1065.0,0.003114
1066.0,0.003044
1067.0,0.003071
1068.0,0.00299
1069.0,0.002889
1070.0,0.002973
1071.0,0.003017
1072.0,0.002964
1073.0,0.002913
1074.0,0.002988
1075.0,0.002802
1076.0,0.002962
1077.0,0.002883
1078.0,0.002813
1079.0,0.002887
1080.0,0.002804
1081.0,0.002697
1082.0,0.002752
1083.0,0.002755
1084.0,0.002651
1085.0,0.002766
1086.0,0.002466
1087.0,0.002575
1088.0,0.002697
1089.0,0.002581
1090.0,0.002494
1091.0,0.002652
1092.0,0.002641
1093.0,0.002156
1094.0,0.002391
1095.0,0.002246
1096.0,0.00212
1097.0,0.002537
1098.0,0.002067
1099.0,0.002159
1100.0,0.001965
1101.0,0.001993
1102.0,0.001881
1103.0,0.001843
1104.0,0.001841
1105.0,0.002058
1106.0,0.001469
1107.0,0.001918
1108.0,0.001557
1109.0,0.00156
1110.0,0.001875
1111.0,0.001172
1112.0,0.001534
1113.0,0.0008921
1114.0,0.001007
1115.0,0.0008139
1116.0,0.0006198
1117.0,0.0002013
1118.0,0.0006793
1119.0,0.000308
1120.0,0.0003916
1121.0,0.000535
1122.0,0.0002046
1123.0,0.0003478
1124.0,0.0002892
1125.0,0.0003859
1126.0,0.0001203
1127.0,0.0004364
1128.0,0.0002437
1129.0,0.0002597
1130.0,0.0001644
1131.0,0.0008932
1132.0,0.0006754
1133.0,0.0003982
1134.0,9.002e-05
1135.0,3.296e-05
1136.0,0.0003205
1137.0,0.0008534
1138.0,0.0005762
1139.0,0.0009228
1140.0,0.000742
1141.0,0.0005396
1142.0,0.000632
1143.0,0.0009418
1144.0,0.0002863
1145.0,0.0003676
1146.0,0.000397
1147.0,0.0001253
1148.0,0.0007868
1149.0,0.0006035
1150.0,0.0003044
1151.0,0.0005461
1152.0,0.0006938
1153.0,0.0006788
1154.0,0.0003442
1155.0,0.0009163
1156.0,0.0008066
1157.0,0.0009249
1158.0,0.0009105
1159.0,0.0009983
1160.0,0.0008266
1161.0,0.001061
1162.0,0.001058
1163.0,0.001518
1164.0,0.001259
1165.0,0.001163
1166.0,0.001159
1167.0,0.001277
1168.0,0.001286
1169.0,0.001325
1170.0,0.001457
1171.0,0.001409
1172.0,0.001439
1173.0,0.001439
1174.0,0.0009582
1175.0,0.001402
1176.0,0.001566
1177.0,0.001481
1178.0,0.00105
1179.0,0.001564
1180.0,0.001354
1181.0,0.001401
1182.0,0.0009007
1183.0,0.001378
1184.0,0.001263
1185.0,0.001203
1186.0,0.001475
1187.0,0.001384
1188.0,0.0009015
1189.0,0.001274
1190.0,0.00142
1191.0,0.001322
1192.0,0.001434
1193.0,0.001358
1194.0,0.001404
1195.0,0.001309
1196.0,0.001246
1197.0,0.001404
1198.0,0.001261
1199.0,0.001034
1200.0,0.001314
1201.0,0.001252
1202.0,0.001244
1203.0,0.001235
1204.0,0.001046
1205.0,0.001272
1206.0,0.00143
1207.0,0.001223
1208.0,0.001211
1209.0,0.001233
1210.0,0.00129
1211.0,0.001211
1212.0,0.001182
1213.0,0.001347
1214.0,0.00121
1215.0,0.001179
1216.0,0.00133
1217.0,0.001283
1218.0,0.00131
1219.0,0.001287
1220.0,0.001304
1221.0,0.001317
1222.0,0.001272
1223.0,0.001254
1224.0,0.001239
1225.0,0.001291
1226.0,0.0013
1227.0,0.001177
1228.0,0.001301
1229.0,0.001288
1230.0,0.001258
1231.0,0.0013
1232.0,0.001288
1233.0,0.001227
1234.0,0.001289
1235.0,0.001275
1236.0,0.001281
1237.0,0.001255
1238.0,0.001269
1239.0,0.001248
1240.0,0.00125
1241.0,0.001237
1242.0,0.001233
1243.0,0.001218
1244.0,0.001222
1245.0,0.001224
1246.0,0.001213
1247.0,0.001203
1248.0,0.001197
1249.0,0.001199
1250.0,0.001187
1251.0,0.001166
1252.0,0.001165
1253.0,0.001147
1254.0,0.001129
1255.0,0.001151
1256.0,0.001108
1257.0,0.001097
1258.0,0.00112
1259.0,0.001064
1260.0,0.001068
1261.0,0.0009913
1262.0,0.0009518
1263.0,0.0009505
1264.0,0.0008593
1265.0,0.0009393
1266.0,0.0008919
1267.0,0.0009112
1268.0,0.0008514
1269.0,0.000474
1270.0,0.0008979
1271.0,0.0009625
1272.0,0.0009642
1273.0,0.0009494
1274.0,0.0009514
1275.0,0.0009647
1276.0,0.0009736
1277.0,0.0009796
1278.0,0.001001
1279.0,0.0009883
1280.0,0.000973
1281.0,0.0009281
1282.0,0.0008957
1283.0,0.0009608
1284.0,0.0009797
1285.0,0.0009838
1286.0,0.0009964
1287.0,0.0009734
1288.0,0.0009712
1289.0,0.0009293
1290.0,0.0009571
1291.0,0.0009687
1292.0,0.0008916
1293.0,0.0009397
1294.0,0.0009292
1295.0,0.0009187
1296.0,0.0008643
1297.0,0.0008064
1298.0,0.0008813
1299.0,0.0009247
1300.0,0.0007512
1301.0,0.000778
1302.0,0.0008687
1303.0,0.000736
1304.0,0.0006034
1305.0,0.0008395
1306.0,0.0008364
1307.0,0.0006152
1308.0,0.0007269
1309.0,0.0008206
1310.0,0.0005962
1311.0,0.000685
1312.0,0.0006631
1313.0,0.0006438
1314.0,0.0005618
1315.0,0.0005526
1316.0,0.0006622
1317.0,0.0006188
1318.0,0.0006828
1319.0,0.000504
1320.0,0.0004866
1321.0,0.0005808
1322.0,0.0005838
1323.0,0.0004148
1324.0,0.0004861
1325.0,0.0006327
1326.0,0.0005254
1327.0,0.000495
1328.0,0.0004153
1329.0,0.0002957
1330.0,0.000398
1331.0,0.0002212
1332.0,0.0002302
1333.0,0.0003317
1334.0,0.0002779
1335.0,0.0003984
1336.0,0.0003021
1337.0,0.0002616
1338.0,0.0002846
1339.0,0.0002835
1340.0,0.0002752
1341.0,0.0002637
1342.0,0.000278
1343.0,0.0001752
1344.0,0.000101
1345.0,0.0001491
1346.0,6.848e-05
1347.0,6.912e-05
1348.0,4.112e-06
1349.0,1.501e-05
1350.0,1.562e-05
1351.0,3.681e-06
1352.0,9.824e-07
1353.0,4.985e-08
1354.0,1.715e-07
1355.0,1.379e-09
1356.0,2.414e-08
1357.0,3.668e-08
1358.0,1.619e-09
1359.0,2.039e-10
1360.0,7.37e-10
1361.0,8.244e-13
