interpolation:linear
wavelength,value
280.0,1.441e-21
280.5,4.604e-20
281.0,2.444e-19
281.5,4.873e-19
282.0,9.981e-19
282.5,2.511e-18
283.0,7.953e-18
283.5,1.294e-17
284.0,2.093e-16
284.5,6.046e-16
285.0,1.252e-15
285.5,6.009e-15
286.0,2.398e-14
286.5,1.058e-13
287.0,2.997e-13
287.5,1.137e-12
288.0,3.357e-12
288.5,1.066e-11
289.0,2.929e-11
289.5,9.037e-11
290.0,2.539e-10
290.5,5.219e-10
291.0,1.128e-09
291.5,3.255e-09
292.0,6.607e-09
292.5,9.659e-09
293.0,2.177e-08
293.5,5.641e-08
294.0,9.189e-08
294.5,1.192e-07
295.0,2.084e-07
295.5,4.933e-07
296.0,9.001e-07
296.5,1.289e-06
297.0,1.782e-06
297.5,4.977e-06
298.0,8.174e-06
298.5,8.53e-06
299.0,1.96e-05
299.5,3.555e-05
300.0,4.146e-05
300.5,6.437e-05
301.0,0.0001337
301.5,0.00025
302.0,0.0002361
302.5,0.0004627
303.0,0.0008352
303.5,0.001058
304.0,0.001006
304.5,0.001559
305.0,0.002497
305.5,0.00296
306.0,0.002899
306.5,0.003689
307.0,0.005768
307.5,0.008073
308.0,0.008577
308.5,0.01038
309.0,0.01053
309.5,0.01221
310.0,0.01233
310.5,0.01999
311.0,0.0252
311.5,0.02433
312.0,0.02468
312.5,0.03032
313.0,0.033
313.5,0.03174
314.0,0.0402
314.5,0.03636
315.0,0.04783
315.5,0.03941
316.0,0.03499
316.5,0.05101
317.0,0.0631
317.5,0.0651
318.0,0.05127
318.5,0.06511
319.0,0.07807
319.5,0.06206
320.0,0.0745
320.5,0.09551
321.0,0.08704
321.5,0.0834
322.0,0.08611
322.5,0.07477
323.0,0.0756
323.5,0.09441
324.0,0.1101
324.5,0.1107
325.0,0.09418
325.5,0.1226
326.0,0.1502
326.5,0.1513
327.0,0.1498
327.5,0.1436
328.0,0.1261
328.5,0.1338
329.0,0.1617
329.5,0.1838
330.0,0.1841
330.5,0.1454
331.0,0.1472
331.5,0.1502
332.0,0.1636
332.5,0.1622
333.0,0.1607
333.5,0.1436
334.0,0.1465
334.5,0.1701
335.0,0.1604
335.5,0.1891
336.0,0.1304
336.5,0.1498
337.0,0.1219
337.5,0.1509
338.0,0.1481
338.5,0.1723
339.0,0.1695
339.5,0.1629
340.0,0.1889
340.5,0.1699
341.0,0.1663
341.5,0.1515
342.0,0.1803
342.5,0.1679
343.0,0.1845
343.5,0.1735
344.0,0.1272
344.5,0.1293
345.0,0.1694
345.5,0.172
346.0,0.1455
346.5,0.1641
347.0,0.1759
347.5,0.1419
348.0,0.1608
348.5,0.16
349.0,0.1479
349.5,0.146
350.0,0.1799
350.5,0.1891
351.0,0.1685
351.5,0.1637
352.0,0.1749
352.5,0.1358
353.0,0.1704
353.5,0.1815
354.0,0.1877
354.5,0.1897
355.0,0.1885
355.5,0.1696
356.0,0.1768
356.5,0.1505
357.0,0.1239
357.5,0.1511
358.0,0.1194
358.5,0.1016
359.0,0.1417
359.5,0.18
360.0,0.1901
360.5,0.1514
361.0,0.1375
361.5,0.1578
362.0,0.136
362.5,0.1875
363.0,0.1678
363.5,0.1541
364.0,0.1878
364.5,0.1599
365.0,0.1623
365.5,0.203
366.0,0.2143
366.5,0.2007
367.0,0.1948
367.5,0.2014
368.0,0.1756
368.5,0.1766
369.0,0.1901
369.5,0.2019
370.0,0.2144
370.5,0.1658
371.0,0.1766
371.5,0.2201
372.0,0.1456
372.5,0.174
373.0,0.1763
373.5,0.1143
374.0,0.1655
374.5,0.1366
375.0,0.1323
375.5,0.1969
376.0,0.1626
376.5,0.1679
377.0,0.1772
377.5,0.2065
378.0,0.2231
378.5,0.2101
379.0,0.1727
379.5,0.1572
380.0,0.1628
380.5,0.1964
381.0,0.1961
381.5,0.1549
382.0,0.137
382.5,0.1164
383.0,0.1073
383.5,0.103
384.0,0.1132
384.5,0.1659
385.0,0.164
385.5,0.1522
386.0,0.1298
386.5,0.1699
387.0,0.1407
387.5,0.1574
388.0,0.1448
388.5,0.1426
389.0,0.1534
389.5,0.1851
390.0,0.1851
390.5,0.1697
391.0,0.199
391.5,0.2022
392.0,0.1697
392.5,0.1513
393.0,0.0839
393.5,0.06077
394.0,0.1232
394.5,0.1561
395.0,0.1898
395.5,0.1921
396.0,0.1659
396.5,0.09664
397.0,0.07225
397.5,0.1464
398.0,0.2042
398.5,0.2103
399.0,0.227
399.5,0.2254
400.0,0.2332
401.0,0.2291
402.0,0.2399
403.0,0.2261
404.0,0.221
405.0,0.2194
406.0,0.2142
407.0,0.2091
408.0,0.2156
409.0,0.2291
410.0,0.1988
411.0,0.2137
412.0,0.2279
413.0,0.2206
414.0,0.2217
415.0,0.2206
416.0,0.2228
417.0,0.2156
418.0,0.21
419.0,0.2112
420.0,0.2086
421.0,0.2166
422.0,0.2043
423.0,0.1979
424.0,0.2077
425.0,0.2057
426.0,0.1989
427.0,0.1938
428.0,0.1874
429.0,0.1763
430.0,0.1531
431.0,0.1506
432.0,0.1929
433.0,0.1924
434.0,0.1773
435.0,0.1838
436.0,0.2057
437.0,0.2015
438.0,0.1821
439.0,0.1869
440.0,0.1914
441.0,0.1967
442.0,0.2093
443.0,0.2023
444.0,0.2052
445.0,0.1994
446.0,0.1889
447.0,0.2028
448.0,0.2043
449.0,0.2035
450.0,0.2075
451.0,0.2135
452.0,0.2042
453.0,0.1907
454.0,0.1976
455.0,0.1973
456.0,0.2004
457.0,0.202
458.0,0.1935
459.0,0.1909
460.0,0.1898
461.0,0.1927
462.0,0.1928
463.0,0.1902
464.0,0.186
465.0,0.1824
466.0,0.1829
467.0,0.1781
468.0,0.1787
469.0,0.1781
470.0,0.1712
471.0,0.1698
472.0,0.1776
473.0,0.174
474.0,0.1729
475.0,0.173
476.0,0.1664
477.0,0.1654
478.0,0.1685
479.0,0.166
480.0,0.1649
481.0,0.1664
482.0,0.166
483.0,0.1628
484.0,0.1584
485.0,0.1499
486.0,0.1302
487.0,0.1355
488.0,0.1475
489.0,0.1468
490.0,0.1532
491.0,0.1495
492.0,0.1401
493.0,0.1436
494.0,0.1439
495.0,0.1441
496.0,0.1439
497.0,0.1449
498.0,0.137
499.0,0.1375
500.0,0.1323
501.0,0.1286
502.0,0.1256
503.0,0.1295
504.0,0.1251
505.0,0.1286
506.0,0.1318
507.0,0.1246
508.0,0.1199
509.0,0.1225
510.0,0.1211
511.0,0.1235
512.0,0.124
513.0,0.1164
514.0,0.1148
515.0,0.1128
516.0,0.1117
517.0,0.09849
518.0,0.1028
519.0,0.107
520.0,0.11
521.0,0.1102
522.0,0.1094
523.0,0.1067
524.0,0.1096
525.0,0.11
526.0,0.1042
527.0,0.0973
528.0,0.102
529.0,0.1067
530.0,0.1043
531.0,0.1051
532.0,0.1007
533.0,0.09708
534.0,0.09927
535.0,0.1008
536.0,0.1011
537.0,0.09641
538.0,0.09744
539.0,0.09598
540.0,0.0914
541.0,0.09131
542.0,0.09342
543.0,0.09175
544.0,0.09272
545.0,0.09185
546.0,0.09159
547.0,0.09089
548.0,0.08918
549.0,0.08886
550.0,0.0893
551.0,0.0876
552.0,0.08758
553.0,0.08541
554.0,0.08684
555.0,0.08639
556.0,0.08463
557.0,0.08136
558.0,0.08009
559.0,0.07795
560.0,0.0783
561.0,0.07867
562.0,0.07746
563.0,0.07895
564.0,0.07623
565.0,0.07503
566.0,0.07338
567.0,0.0742
568.0,0.07297
569.0,0.07066
570.0,0.07016
571.0,0.06926
572.0,0.07037
573.0,0.07065
574.0,0.07
575.0,0.06828
576.0,0.06725
577.0,0.06759
578.0,0.06623
579.0,0.06617
580.0,0.06712
581.0,0.06712
582.0,0.06803
583.0,0.06788
584.0,0.06813
585.0,0.06611
586.0,0.06433
587.0,0.06528
588.0,0.06322
589.0,0.05547
590.0,0.05769
591.0,0.06078
592.0,0.05954
593.0,0.06007
594.0,0.05918
595.0,0.05725
596.0,0.05926
597.0,0.05818
598.0,0.05764
599.0,0.0573
600.0,0.05705
601.0,0.05626
602.0,0.05554
603.0,0.05614
604.0,0.05675
605.0,0.05617
606.0,0.05568
607.0,0.05598
608.0,0.0551
609.0,0.05494
610.0,0.05431
611.0,0.05436
612.0,0.05397
613.0,0.05304
614.0,0.05207
615.0,0.05297
616.0,0.051
617.0,0.05067
618.0,0.05238
619.0,0.0516
620.0,0.05167
621.0,0.05146
622.0,0.05058
623.0,0.04953
624.0,0.04844
625.0,0.04811
626.0,0.0486
627.0,0.04887
628.0,0.045
629.0,0.04708
630.0,0.04575
631.0,0.04668
632.0,0.04593
633.0,0.04717
634.0,0.04655
635.0,0.04707
636.0,0.04624
637.0,0.0468
638.0,0.04706
639.0,0.04633
640.0,0.04568
641.0,0.04544
642.0,0.04506
643.0,0.04548
644.0,0.04514
645.0,0.04498
646.0,0.04366
647.0,0.04283
648.0,0.04263
649.0,0.04161
650.0,0.04174
651.0,0.04336
652.0,0.04118
653.0,0.04238
654.0,0.04172
655.0,0.03988
656.0,0.03523
657.0,0.03603
658.0,0.04024
659.0,0.04037
660.0,0.04034
661.0,0.04043
662.0,0.04031
663.0,0.03935
664.0,0.03967
665.0,0.03954
666.0,0.03939
667.0,0.03919
668.0,0.03905
669.0,0.03947
670.0,0.03912
671.0,0.03894
672.0,0.03846
673.0,0.03891
674.0,0.03857
675.0,0.03804
676.0,0.03813
677.0,0.0376
678.0,0.03755
679.0,0.03678
680.0,0.03691
681.0,0.03649
682.0,0.03627
683.0,0.03603
684.0,0.03567
685.0,0.03579
686.0,0.03541
687.0,0.02208
688.0,0.02632
689.0,0.02631
690.0,0.02767
691.0,0.02924
692.0,0.03039
693.0,0.02997
694.0,0.02954
695.0,0.03079
696.0,0.03068
697.0,0.03273
698.0,0.03207
699.0,0.03097
700.0,0.03045
701.0,0.02997
702.0,0.0301
703.0,0.03001
704.0,0.03092
705.0,0.03081
706.0,0.03068
707.0,0.03058
708.0,0.03049
709.0,0.03044
710.0,0.03026
711.0,0.03014
712.0,0.02996
713.0,0.02949
714.0,0.02944
715.0,0.02831
716.0,0.02818
717.0,0.02376
718.0,0.02154
719.0,0.01947
720.0,0.02036
721.0,0.02273
722.0,0.0264
723.0,0.02417
724.0,0.02138
725.0,0.0209
726.0,0.0219
727.0,0.02214
728.0,0.02056
729.0,0.02141
730.0,0.02263
731.0,0.02145
732.0,0.02306
733.0,0.02452
734.0,0.02503
735.0,0.02437
736.0,0.02423
737.0,0.0242
738.0,0.02459
739.0,0.02398
740.0,0.02452
741.0,0.02418
742.0,0.02411
743.0,0.0246
744.0,0.02441
745.0,0.0243
746.0,0.0243
747.0,0.02424
748.0,0.02406
749.0,0.02367
750.0,0.02355
751.0,0.02321
752.0,0.02321
753.0,0.02322
754.0,0.02316
755.0,0.02293
756.0,0.02282
757.0,0.02275
758.0,0.02236
759.0,0.02173
760.0,0.003
761.0,0.00154
762.0,0.009922
763.0,0.004618
764.0,0.007141
765.0,0.00977
766.0,0.01234
767.0,0.01598
768.0,0.01881
769.0,0.01923
770.0,0.01991
771.0,0.02004
772.0,0.02
773.0,0.02004
774.0,0.01984
775.0,0.0196
776.0,0.01974
777.0,0.01939
778.0,0.01917
779.0,0.01908
780.0,0.01889
781.0,0.01882
782.0,0.01886
783.0,0.01845
784.0,0.01846
785.0,0.01824
786.0,0.01836
787.0,0.01791
788.0,0.01758
789.0,0.01748
790.0,0.01686
791.0,0.017
792.0,0.01681
793.0,0.01645
794.0,0.01673
795.0,0.01692
796.0,0.01622
797.0,0.01618
798.0,0.01667
799.0,0.01647
800.0,0.01608
801.0,0.01593
802.0,0.01581
803.0,0.01561
804.0,0.01557
805.0,0.01548
806.0,0.01588
807.0,0.0156
808.0,0.01555
809.0,0.01515
810.0,0.01493
811.0,0.01484
812.0,0.01428
813.0,0.01386
814.0,0.0119
815.0,0.01176
816.0,0.01079
817.0,0.01097
818.0,0.01048
819.0,0.01188
820.0,0.01105
821.0,0.0132
822.0,0.01271
823.0,0.0081
824.0,0.01215
825.0,0.01271
826.0,0.01208
827.0,0.01282
828.0,0.01054
829.0,0.01187
830.0,0.01164
831.0,0.01165
832.0,0.01118
833.0,0.01203
834.0,0.01147
835.0,0.01273
836.0,0.01202
837.0,0.01266
838.0,0.01217
839.0,0.01237
840.0,0.01259
841.0,0.01234
842.0,0.01234
843.0,0.01231
844.0,0.01206
845.0,0.01244
846.0,0.01234
847.0,0.01206
848.0,0.01192
849.0,0.01152
850.0,0.01099
851.0,0.01157
852.0,0.01144
853.0,0.01097
854.0,0.009417
855.0,0.01032
856.0,0.01122
857.0,0.01144
858.0,0.01131
859.0,0.01128
860.0,0.01125
861.0,0.01114
862.0,0.01128
863.0,0.0115
864.0,0.01088
865.0,0.01074
866.0,0.009621
867.0,0.009999
868.0,0.01084
869.0,0.01057
870.0,0.01082
871.0,0.01063
872.0,0.01055
873.0,0.01049
874.0,0.01032
875.0,0.01006
876.0,0.01012
877.0,0.01018
878.0,0.01024
879.0,0.01005
880.0,0.009789
881.0,0.009596
882.0,0.009763
883.0,0.00976
884.0,0.009669
885.0,0.009698
886.0,0.009182
887.0,0.00926
888.0,0.009344
889.0,0.009432
890.0,0.009286
891.0,0.009246
892.0,0.008916
893.0,0.008555
894.0,0.008145
895.0,0.007571
896.0,0.007014
897.0,0.005853
898.0,0.006452
899.0,0.004678
900.0,0.00662
901.0,0.004932
902.0,0.005933
903.0,0.005929
904.0,0.007754
905.0,0.007408
906.0,0.006853
907.0,0.005329
908.0,0.00545
909.0,0.005985
910.0,0.005127
911.0,0.005522
912.0,0.005793
913.0,0.005139
914.0,0.005083
915.0,0.005554
916.0,0.004567
917.0,0.006022
918.0,0.004665
919.0,0.006102
920.0,0.006184
921.0,0.006473
922.0,0.005642
923.0,0.006205
924.0,0.005747
925.0,0.005581
926.0,0.005637
927.0,0.006396
928.0,0.004388
929.0,0.003929
930.0,0.002954
931.0,0.002774
932.0,0.001897
933.0,0.001495
934.0,0.0007619
935.0,0.001531
936.0,0.0009044
937.0,0.000912
938.0,0.001139
939.0,0.002595
940.0,0.003204
941.0,0.002312
942.0,0.00272
943.0,0.001682
944.0,0.001794
945.0,0.00235
946.0,0.001094
947.0,0.002333
948.0,0.001651
949.0,0.003237
950.0,0.0007625
951.0,0.003167
952.0,0.001549
953.0,0.002068
954.0,0.002622
955.0,0.002092
956.0,0.002026
957.0,0.001521
958.0,0.003003
959.0,0.002277
960.0,0.00258
961.0,0.002951
962.0,0.002761
963.0,0.003256
964.0,0.00293
965.0,0.00322
966.0,0.003206
967.0,0.003171
968.0,0.004518
969.0,0.004721
970.0,0.004252
971.0,0.004999
972.0,0.004718
973.0,0.003967
974.0,0.003722
975.0,0.003879
976.0,0.003621
977.0,0.004235
978.0,0.003956
979.0,0.004175
980.0,0.003862
981.0,0.004783
982.0,0.004508
983.0,0.00428
984.0,0.004925
985.0,0.004442
986.0,0.005004
987.0,0.004857
988.0,0.004828
989.0,0.004949
990.0,0.004765
991.0,0.004916
992.0,0.00493
993.0,0.004773
994.0,0.004897
995.0,0.004877
996.0,0.004832
997.0,0.004823
998.0,0.004781
999.0,0.004748
1000.0,0.00469
1001.0,0.004739
1002.0,0.00456
1003.0,0.004618
1004.0,0.004479
1005.0,0.004309
1006.0,0.004454
1007.0,0.004533
1008.0,0.004487
1009.0,0.00444
1010.0,0.004401
1011.0,0.004444
1012.0,0.004382
1013.0,0.004402
1014.0,0.004355
1015.0,0.004309
1016.0,0.004272
1017.0,0.004265
1018.0,0.004236
1019.0,0.004118
1020.0,0.004179
1021.0,0.004159
1022.0,0.004107
1023.0,0.004135
1024.0,0.004055
1025.0,0.004106
1026.0,0.004069
1027.0,0.004045
1028.0,0.004021
1029.0,0.003958
1030.0,0.003974
1031.0,0.003941
1032.0,0.003916
1033.0,0.003842
1034.0,0.003828
1035.0,0.003825
1036.0,0.003829
1037.0,0.003752
1038.0,0.003755
1039.0,0.003739
1040.0,0.00371
1041.0,0.003709
1042.0,0.003669
1043.0,0.003644
1044.0,0.003643
1045.0,0.00358
1046.0,0.003526
1047.0,0.003544
1048.0,0.00355
1049.0,0.003524
1050.0,0.003494
1051.0,0.003475
1052.0,0.003447
1053.0,0.003407
1054.0,0.003401
1055.0,0.003389
1056.0,0.003363
1057.0,0.003339
1058.0,0.003244
1059.0,0.003235
1060.0,0.003217
1061.0,0.0032
1062.0,0.003204
1063.0,0.00316
1064.0,0.003187
1065.0,0.003149
1066.0,0.003078
1067.0,0.003105
1068.0,0.003023
1069.0,0.002921
1070.0,0.003006
1071.0,0.00305
1072.0,0.002997
1073.0,0.002946
1074.0,0.003021
1075.0,0.002833
1076.0,0.002994
1077.0,0.002915
1078.0,0.002845
1079.0,0.002918
1080.0,0.002835
1081.0,0.002728
1082.0,0.002782
1083.0,0.002785
1084.0,0.002682
1085.0,0.002797
1086.0,0.002495
1087.0,0.002604
1088.0,0.002727
1089.0,0.00261
1090.0,0.002523
1091.0,0.002681
1092.0,0.00267
1093.0,0.002182
1094.0,0.002418
1095.0,0.002273
1096.0,0.002147
1097.0,0.002565
1098.0,0.002093
1099.0,0.002186
1100.0,0.00199
1101.0,0.002019
1102.0,0.001905
1103.0,0.001867
1104.0,0.001865
1105.0,0.002084
1106.0,0.00149
1107.0,0.001943
1108.0,0.001579
1109.0,0.001581
1110.0,0.001899
1111.0,0.001189
1112.0,0.001555
1113.0,0.000905
1114.0,0.001022
1115.0,0.0008255
1116.0,0.000629
1117.0,0.0002038
1118.0,0.0006894
1119.0,0.0003121
1120.0,0.0003975
1121.0,0.0005436
1122.0,0.0002073
1123.0,0.0003528
1124.0,0.0002931
1125.0,0.0003916
1126.0,0.0001217
1127.0,0.0004431
1128.0,0.0002472
1129.0,0.0002634
1130.0,0.0001665
1131.0,0.0009083
1132.0,0.0006862
1133.0,0.0004044
1134.0,9.095e-05
1135.0,3.317e-05
1136.0,0.0003253
1137.0,0.0008682
1138.0,0.0005852
1139.0,0.0009365
1140.0,0.0007534
1141.0,0.0005479
1142.0,0.0006417
1143.0,0.000957
1144.0,0.0002901
1145.0,0.0003733
1146.0,0.0004034
1147.0,0.0001268
1148.0,0.000799
1149.0,0.0006128
1150.0,0.0003084
1151.0,0.0005546
1152.0,0.0007047
1153.0,0.0006886
1154.0,0.0003494
1155.0,0.0009302
1156.0,0.000819
1157.0,0.0009384
1158.0,0.0009238
1159.0,0.001013
1160.0,0.0008383
1161.0,0.001076
1162.0,0.001073
1163.0,0.001537
1164.0,0.001276
1165.0,0.001179
1166.0,0.001174
1167.0,0.001294
1168.0,0.001303
1169.0,0.001342
1170.0,0.001475
1171.0,0.001426
1172.0,0.001456
1173.0,0.001457
1174.0,0.0009711
1175.0,0.001419
1176.0,0.001583
1177.0,0.001498
1178.0,0.001063
1179.0,0.001581
1180.0,0.00137
1181.0,0.001418
1182.0,0.0009122
1183.0,0.001395
1184.0,0.001279
1185.0,0.001218
1186.0,0.001492
1187.0,0.001401
1188.0,0.0009136
1189.0,0.001289
1190.0,0.001436
1191.0,0.001339
1192.0,0.00145
1193.0,0.001374
1194.0,0.00142
1195.0,0.001325
1196.0,0.001262
1197.0,0.00142
1198.0,0.001276
1199.0,0.001047
1200.0,0.00133
1201.0,0.001267
1202.0,0.001258
1203.0,0.00125
1204.0,0.001059
1205.0,0.001286
1206.0,0.001446
1207.0,0.001238
1208.0,0.001225
1209.0,0.001247
1210.0,0.001305
1211.0,0.001225
1212.0,0.001197
1213.0,0.001363
1214.0,0.001225
1215.0,0.001194
1216.0,0.001345
1217.0,0.001298
1218.0,0.001325
1219.0,0.001302
1220.0,0.001318
1221.0,0.001331
1222.0,0.001287
1223.0,0.001268
1224.0,0.001253
1225.0,0.001306
1226.0,0.001314
1227.0,0.001191
1228.0,0.001315
1229.0,0.001302
1230.0,0.001272
1231.0,0.001314
1232.0,0.001301
1233.0,0.001241
1234.0,0.001303
1235.0,0.001288
1236.0,0.001295
1237.0,0.001268
1238.0,0.001282
1239.0,0.001262
1240.0,0.001263
1241.0,0.00125
1242.0,0.001246
1243.0,0.001231
1244.0,0.001235
1245.0,0.001237
1246.0,0.001226
1247.0,0.001216
1248.0,0.00121
1249.0,0.001211
1250.0,0.001199
1251.0,0.001178
1252.0,0.001177
1253.0,0.00116
1254.0,0.001142
1255.0,0.001164
1256.0,0.00112
1257.0,0.001109
1258.0,0.001132
1259.0,0.001077
1260.0,0.00108
1261.0,0.001004
1262.0,0.000964
1263.0,0.0009627
1264.0,0.0008712
1265.0,0.0009513
1266.0,0.0009039
1267.0,0.000923
1268.0,0.000863
1269.0,0.0004826
1270.0,0.0009098
1271.0,0.0009743
1272.0,0.000976
1273.0,0.0009611
1274.0,0.000963
1275.0,0.0009763
1276.0,0.0009852
1277.0,0.000991
1278.0,0.001012
1279.0,0.0009996
1280.0,0.000984
1281.0,0.0009384
1282.0,0.0009054
1283.0,0.0009712
1284.0,0.0009904
1285.0,0.0009945
1286.0,0.001007
1287.0,0.0009841
1288.0,0.0009818
1289.0,0.00094
1290.0,0.0009675
1291.0,0.0009792
1292.0,0.0009021
1293.0,0.0009501
1294.0,0.0009394
1295.0,0.0009291
1296.0,0.0008746
1297.0,0.0008163
1298.0,0.0008914
1299.0,0.0009348
1300.0,0.0007605
1301.0,0.0007874
1302.0,0.0008787
1303.0,0.000745
1304.0,0.0006116
1305.0,0.0008492
1306.0,0.0008462
1307.0,0.0006232
1308.0,0.0007356
1309.0,0.0008305
1310.0,0.000604
1311.0,0.0006934
1312.0,0.0006714
1313.0,0.000652
1314.0,0.0005691
1315.0,0.0005601
1316.0,0.0006705
1317.0,0.0006266
1318.0,0.000691
1319.0,0.000511
1320.0,0.000493
1321.0,0.0005883
1322.0,0.0005917
1323.0,0.0004208
1324.0,0.0004927
1325.0,0.0006408
1326.0,0.0005324
1327.0,0.0005017
1328.0,0.000421
1329.0,0.0003001
1330.0,0.000404
1331.0,0.0002246
1332.0,0.0002337
1333.0,0.0003371
1334.0,0.0002817
1335.0,0.0004043
1336.0,0.0003066
1337.0,0.0002654
1338.0,0.0002889
1339.0,0.0002877
1340.0,0.0002791
1341.0,0.0002678
1342.0,0.0002823
1343.0,0.0001781
1344.0,0.0001023
1345.0,0.0001515
1346.0,6.944e-05
1347.0,7.012e-05
1348.0,4.13e-06
1349.0,1.513e-05
1350.0,1.575e-05
1351.0,3.697e-06
1352.0,9.845e-07
1353.0,4.989e-08
1354.0,1.717e-07
1355.0,1.38e-09
1356.0,2.416e-08
1357.0,3.671e-08
1358.0,1.62e-09
1359.0,2.041e-10
1360.0,7.375e-10
1361.0,8.249e-13
1362.0,2.256e-15
1363.0,9.916e-10
