interpolation:linear
wavelength,value
280.0,8.093999999999999e-22
280.5,2.6170000000000003e-20
281.0,1.395e-19
281.5,5.237e-19
282.0,8.916e-19
282.5,2.208e-18
283.0,6.949e-18
283.5,1.129e-17
284.0,1.831e-16
284.5,5.305e-16
285.0,9.968e-16
285.5,4.845e-15
286.0,1.94e-14
286.5,8.62e-14
287.0,2.453e-13
287.5,9.364e-13
288.0,2.976e-12
288.5,9.204e-12
289.0,2.484e-11
289.5,7.564e-11
290.0,2.109e-10
290.5,4.312e-10
291.0,9.274e-10
291.5,2.665e-09
292.0,5.847e-09
292.5,8.276e-09
293.0,1.793e-08
293.5,4.415e-08
294.0,6.955e-08
294.5,9.191e-08
295.0,1.563e-07
295.5,3.275e-07
296.0,6.004e-07
296.5,8.588e-07
297.0,1.186e-06
297.5,3.304e-06
298.0,5.409e-06
298.5,5.625e-06
299.0,1.287e-05
299.5,2.31e-05
300.0,2.674e-05
300.5,4.11e-05
301.0,8.346e-05
301.5,0.0001514
302.0,0.0001399
302.5,0.0002769
303.0,0.0005064
303.5,0.0006478
304.0,0.0006213
304.5,0.000983
305.0,0.001624
305.5,0.001964
306.0,0.00194
306.5,0.002502
307.0,0.004032
307.5,0.005814
308.0,0.00621
308.5,0.00763
309.0,0.007823
309.5,0.00928
310.0,0.009471
310.5,0.01544
311.0,0.01963
311.5,0.01903
312.0,0.01965
312.5,0.02442
313.0,0.02675
313.5,0.02559
314.0,0.03286
314.5,0.03026
315.0,0.03995
315.5,0.03265
316.0,0.02941
316.5,0.04341
317.0,0.0537
317.5,0.05524
318.0,0.04387
318.5,0.05661
319.0,0.06844
319.5,0.05374
320.0,0.06441
320.5,0.08393
321.0,0.07761
321.5,0.0745
322.0,0.07577
322.5,0.06586
323.0,0.06729
323.5,0.08461
324.0,0.09887
324.5,0.09908
325.0,0.08408
325.5,0.1104
326.0,0.1352
326.5,0.1369
327.0,0.1353
327.5,0.1294
328.0,0.113
328.5,0.1209
329.0,0.1471
329.5,0.1675
330.0,0.1677
330.5,0.1318
331.0,0.1332
331.5,0.1364
332.0,0.1495
332.5,0.1486
333.0,0.147
333.5,0.131
334.0,0.1335
334.5,0.1558
335.0,0.1473
335.5,0.1734
336.0,0.1197
336.5,0.1375
337.0,0.1118
337.5,0.1383
338.0,0.1363
338.5,0.1585
339.0,0.156
339.5,0.1499
340.0,0.1741
340.5,0.1566
341.0,0.1533
341.5,0.1398
342.0,0.1665
342.5,0.1552
343.0,0.1704
343.5,0.1602
344.0,0.1176
344.5,0.1193
345.0,0.1566
345.5,0.1592
346.0,0.1348
346.5,0.1521
347.0,0.1629
347.5,0.1314
348.0,0.1491
348.5,0.1485
349.0,0.1373
349.5,0.1355
350.0,0.1671
350.5,0.1757
351.0,0.1565
351.5,0.152
352.0,0.1625
352.5,0.1263
353.0,0.1585
353.5,0.1689
354.0,0.1748
354.5,0.1767
355.0,0.1755
355.5,0.1581
356.0,0.1648
356.5,0.1403
357.0,0.1156
357.5,0.141
358.0,0.1114
358.5,0.09487
359.0,0.1323
359.5,0.1681
360.0,0.1776
360.5,0.1414
361.0,0.1285
361.5,0.1475
362.0,0.1272
362.5,0.1754
363.0,0.1571
363.5,0.1442
364.0,0.1758
364.5,0.1498
365.0,0.152
365.5,0.1902
366.0,0.2009
366.5,0.1881
367.0,0.1826
367.5,0.1889
368.0,0.1648
368.5,0.1657
369.0,0.1784
369.5,0.1895
370.0,0.2014
370.5,0.1558
371.0,0.1659
371.5,0.2069
372.0,0.1368
372.5,0.1636
373.0,0.1658
373.5,0.1075
374.0,0.1557
374.5,0.1286
375.0,0.1246
375.5,0.1853
376.0,0.1531
376.5,0.1582
377.0,0.1669
377.5,0.1946
378.0,0.2103
378.5,0.198
379.0,0.1629
379.5,0.1482
380.0,0.1536
380.5,0.1854
381.0,0.1851
381.5,0.1462
382.0,0.1294
382.5,0.1099
383.0,0.1014
383.5,0.09735
384.0,0.107
384.5,0.1569
385.0,0.155
385.5,0.1439
386.0,0.1228
386.5,0.1608
387.0,0.1331
387.5,0.149
388.0,0.1371
388.5,0.1351
389.0,0.1453
389.5,0.1754
390.0,0.1754
390.5,0.1608
391.0,0.1887
391.5,0.1917
392.0,0.1609
392.5,0.1436
393.0,0.07961
393.5,0.05767
394.0,0.117
394.5,0.1482
395.0,0.1802
395.5,0.1824
396.0,0.1576
396.5,0.09182
397.0,0.06866
397.5,0.1391
398.0,0.1942
398.5,0.2
399.0,0.2159
399.5,0.2144
400.0,0.2219
401.0,0.218
402.0,0.2283
403.0,0.2154
404.0,0.2106
405.0,0.2091
406.0,0.2042
407.0,0.1994
408.0,0.2057
409.0,0.2186
410.0,0.1897
411.0,0.2041
412.0,0.2177
413.0,0.2108
414.0,0.2119
415.0,0.2109
416.0,0.213
417.0,0.2063
418.0,0.201
419.0,0.2021
420.0,0.1998
421.0,0.2075
422.0,0.1957
423.0,0.1897
424.0,0.1991
425.0,0.1972
426.0,0.1908
427.0,0.1859
428.0,0.1799
429.0,0.1692
430.0,0.147
431.0,0.1446
432.0,0.1853
433.0,0.1849
434.0,0.1704
435.0,0.1767
436.0,0.1978
437.0,0.1938
438.0,0.1752
439.0,0.1798
440.0,0.1841
441.0,0.1893
442.0,0.2014
443.0,0.1948
444.0,0.1976
445.0,0.192
446.0,0.182
447.0,0.1954
448.0,0.1969
449.0,0.1962
450.0,0.2001
451.0,0.2059
452.0,0.197
453.0,0.184
454.0,0.1908
455.0,0.1904
456.0,0.1934
457.0,0.195
458.0,0.1868
459.0,0.1843
460.0,0.1833
461.0,0.186
462.0,0.1862
463.0,0.1837
464.0,0.1797
465.0,0.1763
466.0,0.1768
467.0,0.1722
468.0,0.1728
469.0,0.1722
470.0,0.1655
471.0,0.1642
472.0,0.1718
473.0,0.1684
474.0,0.1673
475.0,0.1674
476.0,0.161
477.0,0.16
478.0,0.163
479.0,0.1605
480.0,0.1594
481.0,0.1609
482.0,0.1605
483.0,0.1575
484.0,0.1533
485.0,0.1451
486.0,0.1261
487.0,0.1312
488.0,0.1429
489.0,0.1422
490.0,0.1484
491.0,0.1448
492.0,0.1357
493.0,0.1391
494.0,0.1395
495.0,0.1396
496.0,0.1394
497.0,0.1404
498.0,0.1327
499.0,0.1331
500.0,0.128
501.0,0.1245
502.0,0.1215
503.0,0.1252
504.0,0.1209
505.0,0.1243
506.0,0.1274
507.0,0.1204
508.0,0.116
509.0,0.1185
510.0,0.1172
511.0,0.1195
512.0,0.12
513.0,0.1127
514.0,0.111
515.0,0.1091
516.0,0.108
517.0,0.09528
518.0,0.09944
519.0,0.1035
520.0,0.1064
521.0,0.1066
522.0,0.1058
523.0,0.1031
524.0,0.1059
525.0,0.1062
526.0,0.1006
527.0,0.09396
528.0,0.09847
529.0,0.1029
530.0,0.1007
531.0,0.1014
532.0,0.09713
533.0,0.09362
534.0,0.09574
535.0,0.09721
536.0,0.09748
537.0,0.09301
538.0,0.094
539.0,0.09259
540.0,0.08816
541.0,0.08806
542.0,0.09008
543.0,0.08846
544.0,0.08938
545.0,0.08853
546.0,0.08826
547.0,0.08759
548.0,0.08594
549.0,0.08562
550.0,0.08605
551.0,0.0844
552.0,0.08438
553.0,0.08228
554.0,0.08365
555.0,0.08321
556.0,0.0815
557.0,0.07834
558.0,0.0771
559.0,0.07502
560.0,0.07533
561.0,0.07567
562.0,0.07449
563.0,0.0759
564.0,0.07328
565.0,0.0721
566.0,0.07051
567.0,0.07128
568.0,0.07009
569.0,0.06784
570.0,0.06736
571.0,0.06649
572.0,0.06754
573.0,0.06781
574.0,0.06718
575.0,0.06552
576.0,0.06454
577.0,0.06488
578.0,0.06358
579.0,0.06354
580.0,0.06447
581.0,0.06449
582.0,0.06539
583.0,0.06525
584.0,0.06551
585.0,0.06357
586.0,0.06186
587.0,0.06278
588.0,0.06078
589.0,0.0533
590.0,0.05543
591.0,0.05841
592.0,0.0572
593.0,0.05772
594.0,0.05684
595.0,0.05497
596.0,0.05691
597.0,0.05585
598.0,0.05533
599.0,0.055
600.0,0.05475
601.0,0.05399
602.0,0.05331
603.0,0.05388
604.0,0.05448
605.0,0.05393
606.0,0.05347
607.0,0.05377
608.0,0.05295
609.0,0.05281
610.0,0.05222
611.0,0.05229
612.0,0.05192
613.0,0.05104
614.0,0.05013
615.0,0.05101
616.0,0.04912
617.0,0.04881
618.0,0.05047
619.0,0.04974
620.0,0.04981
621.0,0.04961
622.0,0.04877
623.0,0.04776
624.0,0.04671
625.0,0.0464
626.0,0.04688
627.0,0.04714
628.0,0.04336
629.0,0.04541
630.0,0.04413
631.0,0.04506
632.0,0.04434
633.0,0.04557
634.0,0.04498
635.0,0.04549
636.0,0.0447
637.0,0.04525
638.0,0.04552
639.0,0.04483
640.0,0.04421
641.0,0.04399
642.0,0.04363
643.0,0.04404
644.0,0.04372
645.0,0.04357
646.0,0.04229
647.0,0.04148
648.0,0.0413
649.0,0.04031
650.0,0.04046
651.0,0.04204
652.0,0.03991
653.0,0.0411
654.0,0.04047
655.0,0.03868
656.0,0.03418
657.0,0.03496
658.0,0.03906
659.0,0.03919
660.0,0.03917
661.0,0.03926
662.0,0.03914
663.0,0.03821
664.0,0.03854
665.0,0.03842
666.0,0.03828
667.0,0.0381
668.0,0.03797
669.0,0.03839
670.0,0.03804
671.0,0.03788
672.0,0.03742
673.0,0.03785
674.0,0.03754
675.0,0.03703
676.0,0.03712
677.0,0.0366
678.0,0.03656
679.0,0.03582
680.0,0.03594
681.0,0.03554
682.0,0.03533
683.0,0.03509
684.0,0.03474
685.0,0.03487
686.0,0.0345
687.0,0.02135
688.0,0.02552
689.0,0.02551
690.0,0.02686
691.0,0.02842
692.0,0.02956
693.0,0.02915
694.0,0.02874
695.0,0.02999
696.0,0.02989
697.0,0.03191
698.0,0.03127
699.0,0.03018
700.0,0.02967
701.0,0.0292
702.0,0.02934
703.0,0.02926
704.0,0.03015
705.0,0.03005
706.0,0.02993
707.0,0.02983
708.0,0.02975
709.0,0.02971
710.0,0.02953
711.0,0.0294
712.0,0.02924
713.0,0.02878
714.0,0.02873
715.0,0.02762
716.0,0.02749
717.0,0.02313
718.0,0.02097
719.0,0.01896
720.0,0.01982
721.0,0.02214
722.0,0.02575
723.0,0.02357
724.0,0.02083
725.0,0.02036
726.0,0.02132
727.0,0.02158
728.0,0.02003
729.0,0.02087
730.0,0.02206
731.0,0.0209
732.0,0.02249
733.0,0.02393
734.0,0.02444
735.0,0.02379
736.0,0.02365
737.0,0.02363
738.0,0.02402
739.0,0.02342
740.0,0.02396
741.0,0.02363
742.0,0.02356
743.0,0.02404
744.0,0.02386
745.0,0.02376
746.0,0.02375
747.0,0.02369
748.0,0.02352
749.0,0.02314
750.0,0.02302
751.0,0.0227
752.0,0.0227
753.0,0.02271
754.0,0.02265
755.0,0.02242
756.0,0.02232
757.0,0.02225
758.0,0.02187
759.0,0.02124
760.0,0.002913
761.0,0.001503
762.0,0.009602
763.0,0.00447
764.0,0.006905
765.0,0.009455
766.0,0.01197
767.0,0.01555
768.0,0.01836
769.0,0.01878
770.0,0.01947
771.0,0.0196
772.0,0.01956
773.0,0.0196
774.0,0.0194
775.0,0.01917
776.0,0.01931
777.0,0.01896
778.0,0.01874
779.0,0.01866
780.0,0.01847
781.0,0.01841
782.0,0.01844
783.0,0.01805
784.0,0.01806
785.0,0.01784
786.0,0.01796
787.0,0.01752
788.0,0.01719
789.0,0.0171
790.0,0.01648
791.0,0.01663
792.0,0.01644
793.0,0.01609
794.0,0.01638
795.0,0.01656
796.0,0.01586
797.0,0.01582
798.0,0.01631
799.0,0.01611
800.0,0.01573
801.0,0.01558
802.0,0.01547
803.0,0.01527
804.0,0.01523
805.0,0.01514
806.0,0.01554
807.0,0.01527
808.0,0.01521
809.0,0.01482
810.0,0.0146
811.0,0.01451
812.0,0.01395
813.0,0.01354
814.0,0.0116
815.0,0.01148
816.0,0.01053
817.0,0.0107
818.0,0.01022
819.0,0.0116
820.0,0.01079
821.0,0.0129
822.0,0.01242
823.0,0.0079
824.0,0.01187
825.0,0.01243
826.0,0.01181
827.0,0.01253
828.0,0.01029
829.0,0.01161
830.0,0.01138
831.0,0.01138
832.0,0.01093
833.0,0.01176
834.0,0.01121
835.0,0.01245
836.0,0.01175
837.0,0.01239
838.0,0.0119
839.0,0.0121
840.0,0.01233
841.0,0.01207
842.0,0.01208
843.0,0.01205
844.0,0.01181
845.0,0.01218
846.0,0.01208
847.0,0.01181
848.0,0.01167
849.0,0.01128
850.0,0.01076
851.0,0.01132
852.0,0.01119
853.0,0.01073
854.0,0.009215
855.0,0.0101
856.0,0.01098
857.0,0.0112
858.0,0.01107
859.0,0.01104
860.0,0.01101
861.0,0.01091
862.0,0.01104
863.0,0.01126
864.0,0.01066
865.0,0.01052
866.0,0.009421
867.0,0.009792
868.0,0.01061
869.0,0.01035
870.0,0.0106
871.0,0.01041
872.0,0.01033
873.0,0.01027
874.0,0.0101
875.0,0.009854
876.0,0.009912
877.0,0.009971
878.0,0.01003
879.0,0.009838
880.0,0.009587
881.0,0.009397
882.0,0.00956
883.0,0.009558
884.0,0.009469
885.0,0.009496
886.0,0.008988
887.0,0.009066
888.0,0.009148
889.0,0.009236
890.0,0.00909
891.0,0.009052
892.0,0.008725
893.0,0.00837
894.0,0.007961
895.0,0.007392
896.0,0.006849
897.0,0.005711
898.0,0.006296
899.0,0.004564
900.0,0.006465
901.0,0.004807
902.0,0.005792
903.0,0.005783
904.0,0.007579
905.0,0.007239
906.0,0.006695
907.0,0.005198
908.0,0.005318
909.0,0.005841
910.0,0.004998
911.0,0.005389
912.0,0.005652
913.0,0.005009
914.0,0.004957
915.0,0.005411
916.0,0.004455
917.0,0.005873
918.0,0.004548
919.0,0.005955
920.0,0.006044
921.0,0.006323
922.0,0.005506
923.0,0.006062
924.0,0.005605
925.0,0.005444
926.0,0.005496
927.0,0.006241
928.0,0.004269
929.0,0.003819
930.0,0.00287
931.0,0.002697
932.0,0.001844
933.0,0.001454
934.0,0.0007425
935.0,0.00149
936.0,0.000882
937.0,0.0008893
938.0,0.001109
939.0,0.002523
940.0,0.003114
941.0,0.002246
942.0,0.002642
943.0,0.001636
944.0,0.001748
945.0,0.002284
946.0,0.001066
947.0,0.002266
948.0,0.001608
949.0,0.003141
950.0,0.0007439
951.0,0.003074
952.0,0.001507
953.0,0.002011
954.0,0.002549
955.0,0.002033
956.0,0.001976
957.0,0.001479
958.0,0.002926
959.0,0.002216
960.0,0.002508
961.0,0.002872
962.0,0.002688
963.0,0.003172
964.0,0.002854
965.0,0.003136
966.0,0.003121
967.0,0.003087
968.0,0.004413
969.0,0.004606
970.0,0.004149
971.0,0.004885
972.0,0.004609
973.0,0.003868
974.0,0.00363
975.0,0.003786
976.0,0.003529
977.0,0.004136
978.0,0.00386
979.0,0.004074
980.0,0.003769
981.0,0.004674
982.0,0.004402
983.0,0.004178
984.0,0.004818
985.0,0.004338
986.0,0.004897
987.0,0.004749
988.0,0.004721
989.0,0.004845
990.0,0.004659
991.0,0.004812
992.0,0.004825
993.0,0.004669
994.0,0.004794
995.0,0.004775
996.0,0.004731
997.0,0.004722
998.0,0.004681
999.0,0.004649
1000.0,0.004591
1001.0,0.00464
1002.0,0.004462
1003.0,0.004521
1004.0,0.004384
1005.0,0.004219
1006.0,0.00436
1007.0,0.004439
1008.0,0.004392
1009.0,0.004346
1010.0,0.004308
1011.0,0.004352
1012.0,0.00429
1013.0,0.00431
1014.0,0.004265
1015.0,0.004219
1016.0,0.004183
1017.0,0.004176
1018.0,0.004148
1019.0,0.004032
1020.0,0.004092
1021.0,0.004073
1022.0,0.004021
1023.0,0.004048
1024.0,0.003969
1025.0,0.00402
1026.0,0.003984
1027.0,0.00396
1028.0,0.003937
1029.0,0.003875
1030.0,0.003891
1031.0,0.003859
1032.0,0.003834
1033.0,0.003762
1034.0,0.003748
1035.0,0.003745
1036.0,0.003749
1037.0,0.003674
1038.0,0.003677
1039.0,0.003661
1040.0,0.003632
1041.0,0.003632
1042.0,0.003593
1043.0,0.003568
1044.0,0.003567
1045.0,0.003505
1046.0,0.003452
1047.0,0.003469
1048.0,0.003475
1049.0,0.00345
1050.0,0.00342
1051.0,0.003402
1052.0,0.003374
1053.0,0.003334
1054.0,0.003329
1055.0,0.003317
1056.0,0.003291
1057.0,0.003267
1058.0,0.003174
1059.0,0.003165
1060.0,0.003148
1061.0,0.003131
1062.0,0.003134
1063.0,0.003091
1064.0,0.003118
1065.0,0.00308
1066.0,0.003011
1067.0,0.003037
1068.0,0.002957
1069.0,0.002857
1070.0,0.00294
1071.0,0.002984
1072.0,0.002932
1073.0,0.002882
1074.0,0.002956
1075.0,0.00277
1076.0,0.00293
1077.0,0.002851
1078.0,0.002782
1079.0,0.002856
1080.0,0.002773
1081.0,0.002667
1082.0,0.002722
1083.0,0.002725
1084.0,0.002621
1085.0,0.002736
1086.0,0.002438
1087.0,0.002546
1088.0,0.002668
1089.0,0.002552
1090.0,0.002466
1091.0,0.002623
1092.0,0.002612
1093.0,0.00213
1094.0,0.002365
1095.0,0.002219
1096.0,0.002094
1097.0,0.002509
1098.0,0.002041
1099.0,0.002133
1100.0,0.00194
1101.0,0.001968
1102.0,0.001856
1103.0,0.001819
1104.0,0.001817
1105.0,0.002032
1106.0,0.001448
1107.0,0.001894
1108.0,0.001536
1109.0,0.001539
1110.0,0.00185
1111.0,0.001156
1112.0,0.001514
1113.0,0.0008797
1114.0,0.0009927
1115.0,0.0008027
1116.0,0.000611
1117.0,0.000199
1118.0,0.0006695
1119.0,0.0003041
1120.0,0.000386
1121.0,0.0005268
1122.0,0.0002021
1123.0,0.0003431
1124.0,0.0002855
1125.0,0.0003806
1126.0,0.000119
1127.0,0.0004301
1128.0,0.0002405
1129.0,0.0002562
1130.0,0.0001626
1131.0,0.0008788
1132.0,0.0006651
1133.0,0.0003923
1134.0,8.918e-05
1135.0,3.276e-05
1136.0,0.0003159
1137.0,0.0008391
1138.0,0.0005675
1139.0,0.0009095
1140.0,0.000731
1141.0,0.0005317
1142.0,0.0006226
1143.0,0.0009271
1144.0,0.0002827
1145.0,0.0003622
1146.0,0.000391
1147.0,0.0001239
1148.0,0.000775
1149.0,0.0005946
1150.0,0.0003007
1151.0,0.0005379
1152.0,0.0006833
1153.0,0.0006692
1154.0,0.0003393
1155.0,0.0009028
1156.0,0.0007946
1157.0,0.0009118
1158.0,0.0008976
1159.0,0.0009842
1160.0,0.0008151
1161.0,0.001047
1162.0,0.001044
1163.0,0.001499
1164.0,0.001243
1165.0,0.001147
1166.0,0.001144
1167.0,0.001261
1168.0,0.00127
1169.0,0.001308
1170.0,0.001439
1171.0,0.001392
1172.0,0.001422
1173.0,0.001421
1174.0,0.0009456
1175.0,0.001385
1176.0,0.001548
1177.0,0.001463
1178.0,0.001037
1179.0,0.001547
1180.0,0.001338
1181.0,0.001384
1182.0,0.0008894
1183.0,0.001362
1184.0,0.001248
1185.0,0.001188
1186.0,0.001458
1187.0,0.001368
1188.0,0.0008896
1189.0,0.001259
1190.0,0.001404
1191.0,0.001306
1192.0,0.001418
1193.0,0.001342
1194.0,0.001388
1195.0,0.001293
1196.0,0.001231
1197.0,0.001388
1198.0,0.001247
1199.0,0.001021
1200.0,0.001299
1201.0,0.001237
1202.0,0.00123
1203.0,0.00122
1204.0,0.001033
1205.0,0.001258
1206.0,0.001415
1207.0,0.001209
1208.0,0.001197
1209.0,0.001219
1210.0,0.001276
1211.0,0.001197
1212.0,0.001167
1213.0,0.001332
1214.0,0.001195
1215.0,0.001165
1216.0,0.001315
1217.0,0.001269
1218.0,0.001295
1219.0,0.001272
1220.0,0.001289
1221.0,0.001302
1222.0,0.001258
1223.0,0.00124
1224.0,0.001224
1225.0,0.001277
1226.0,0.001285
1227.0,0.001164
1228.0,0.001287
1229.0,0.001273
1230.0,0.001244
1231.0,0.001286
1232.0,0.001274
1233.0,0.001213
1234.0,0.001275
1235.0,0.001261
1236.0,0.001268
1237.0,0.001241
1238.0,0.001255
1239.0,0.001235
1240.0,0.001237
1241.0,0.001224
1242.0,0.00122
1243.0,0.001206
1244.0,0.001209
1245.0,0.001211
1246.0,0.0012
1247.0,0.001191
1248.0,0.001185
1249.0,0.001186
1250.0,0.001174
1251.0,0.001153
1252.0,0.001152
1253.0,0.001135
1254.0,0.001117
1255.0,0.001139
1256.0,0.001096
1257.0,0.001084
1258.0,0.001108
1259.0,0.001052
1260.0,0.001056
1261.0,0.0009792
1262.0,0.0009398
1263.0,0.0009384
1264.0,0.0008476
1265.0,0.0009274
1266.0,0.0008801
1267.0,0.0008994
1268.0,0.0008399
1269.0,0.0004657
1270.0,0.0008862
1271.0,0.0009507
1272.0,0.0009525
1273.0,0.0009378
1274.0,0.0009399
1275.0,0.0009532
1276.0,0.0009622
1277.0,0.0009683
1278.0,0.0009898
1279.0,0.0009772
1280.0,0.0009621
1281.0,0.0009178
1282.0,0.000886
1283.0,0.0009504
1284.0,0.0009691
1285.0,0.0009731
1286.0,0.0009857
1287.0,0.0009628
1288.0,0.0009607
1289.0,0.0009188
1290.0,0.0009467
1291.0,0.0009584
1292.0,0.0008812
1293.0,0.0009295
1294.0,0.000919
1295.0,0.0009083
1296.0,0.000854
1297.0,0.0007965
1298.0,0.0008713
1299.0,0.0009147
1300.0,0.0007421
1301.0,0.0007686
1302.0,0.0008588
1303.0,0.0007272
1304.0,0.0005954
1305.0,0.00083
1306.0,0.0008267
1307.0,0.0006074
1308.0,0.0007184
1309.0,0.0008109
1310.0,0.0005885
1311.0,0.0006768
1312.0,0.000655
1313.0,0.0006357
1314.0,0.0005546
1315.0,0.0005452
1316.0,0.000654
1317.0,0.0006112
1318.0,0.0006746
1319.0,0.0004973
1320.0,0.0004804
1321.0,0.0005734
1322.0,0.0005761
1323.0,0.0004089
1324.0,0.0004796
1325.0,0.0006248
1326.0,0.0005185
1327.0,0.0004885
1328.0,0.0004098
1329.0,0.0002915
1330.0,0.0003922
1331.0,0.000218
1332.0,0.000227
1333.0,0.0003265
1334.0,0.0002742
1335.0,0.0003927
1336.0,0.0002977
1337.0,0.0002579
1338.0,0.0002804
1339.0,0.0002794
1340.0,0.0002715
1341.0,0.0002597
1342.0,0.0002737
1343.0,0.0001724
1344.0,9.975e-05
1345.0,0.0001469
1346.0,6.76e-05
1347.0,6.822e-05
1348.0,4.096e-06
1349.0,1.491e-05
1350.0,1.551e-05
1351.0,3.669e-06
1352.0,9.806e-07
1353.0,4.981e-08
1354.0,1.713e-07
1355.0,1.378e-09
1356.0,2.412e-08
1357.0,3.665e-08
1358.0,1.618e-09
1359.0,2.038e-10
1360.0,7.365e-10
