interpolation:linear
wavelength,value
280.0,1.6059999999999998e-22
280.5,5.321e-21
281.0,2.8610000000000004e-20
281.5,3.92e-19
282.0,5.785e-19
282.5,1.426e-18
283.0,4.506e-18
283.5,7.342e-18
284.0,1.214e-16
284.5,3.55e-16
285.0,5.898e-16
285.5,2.926e-15
286.0,1.18e-14
286.5,5.317e-14
287.0,1.528e-13
287.5,5.906e-13
288.0,2.097e-12
288.5,6.211e-12
289.0,1.633e-11
289.5,4.893e-11
290.0,1.354e-10
290.5,2.755e-10
291.0,5.91e-10
291.5,1.696e-09
292.0,3.405e-09
292.5,4.771e-09
293.0,1.022e-08
293.5,2.483e-08
294.0,3.882e-08
294.5,5.263e-08
295.0,8.91e-08
295.5,1.477e-07
296.0,2.845e-07
296.5,3.973e-07
297.0,5.367e-07
297.5,1.436e-06
298.0,2.257e-06
298.5,2.264e-06
299.0,4.976e-06
299.5,8.209e-06
300.0,8.983e-06
300.5,1.293e-05
301.0,2.312e-05
301.5,3.633e-05
302.0,3.079e-05
302.5,6.103e-05
303.0,0.0001118
303.5,0.0001437
304.0,0.0001393
304.5,0.0002263
305.0,0.0003885
305.5,0.0004821
306.0,0.0004812
306.5,0.0006317
307.0,0.001057
307.5,0.001582
308.0,0.001702
308.5,0.002131
309.0,0.002385
309.5,0.0031
310.0,0.003299
310.5,0.005494
311.0,0.007223
311.5,0.007108
312.0,0.007871
312.5,0.01024
313.0,0.0115
313.5,0.01078
314.0,0.01461
314.5,0.01443
315.0,0.01931
315.5,0.01528
316.0,0.01457
316.5,0.02256
317.0,0.02792
317.5,0.02836
318.0,0.02329
318.5,0.03197
319.0,0.03988
319.5,0.02985
320.0,0.03555
320.5,0.04932
321.0,0.04823
321.5,0.0466
322.0,0.04473
322.5,0.03904
323.0,0.04149
323.5,0.05438
324.0,0.06404
324.5,0.06316
325.0,0.05241
325.5,0.07107
326.0,0.08835
326.5,0.0915
327.0,0.08981
327.5,0.08515
328.0,0.07226
328.5,0.08015
329.0,0.1003
329.5,0.1153
330.0,0.1147
330.5,0.08841
331.0,0.08882
331.5,0.0925
332.0,0.1037
332.5,0.1043
333.0,0.1027
333.5,0.09008
334.0,0.09165
334.5,0.1091
335.0,0.1044
335.5,0.1229
336.0,0.08487
336.5,0.09723
337.0,0.07847
337.5,0.09689
338.0,0.09711
338.5,0.1132
339.0,0.1119
339.5,0.1074
340.0,0.1246
340.5,0.1124
341.0,0.1103
341.5,0.1012
342.0,0.1207
342.5,0.1128
343.0,0.1237
343.5,0.1162
344.0,0.08504
344.5,0.08637
345.0,0.1141
345.5,0.1163
346.0,0.0987
346.5,0.1116
347.0,0.1194
347.5,0.09634
348.0,0.1097
348.5,0.1095
349.0,0.1014
349.5,0.1002
350.0,0.1237
350.5,0.1302
351.0,0.1159
351.5,0.1123
352.0,0.1204
352.5,0.09385
353.0,0.118
353.5,0.126
354.0,0.1305
354.5,0.1321
355.0,0.1313
355.5,0.1184
356.0,0.1236
356.5,0.1053
357.0,0.08683
357.5,0.1061
358.0,0.08389
358.5,0.07154
359.0,0.09981
359.5,0.1268
360.0,0.1342
360.5,0.107
361.0,0.09736
361.5,0.1119
362.0,0.09655
362.5,0.1333
363.0,0.1195
363.5,0.1098
364.0,0.134
364.5,0.1143
365.0,0.1161
365.5,0.1454
366.0,0.1537
366.5,0.1441
367.0,0.14
367.5,0.1449
368.0,0.1265
368.5,0.1274
369.0,0.1372
369.5,0.1459
370.0,0.1552
370.5,0.1202
371.0,0.1281
371.5,0.1599
372.0,0.1059
372.5,0.1266
373.0,0.1285
373.5,0.08341
374.0,0.1209
374.5,0.09989
375.0,0.09687
375.5,0.1443
376.0,0.1193
376.5,0.1233
377.0,0.1303
377.5,0.152
378.0,0.1644
378.5,0.155
379.0,0.1275
379.5,0.1162
380.0,0.1205
380.5,0.1456
381.0,0.1455
381.5,0.115
382.0,0.1019
382.5,0.08664
383.0,0.08
383.5,0.07686
384.0,0.08457
384.5,0.1241
385.0,0.1227
385.5,0.114
386.0,0.09739
386.5,0.1276
387.0,0.1057
387.5,0.1185
388.0,0.1091
388.5,0.1075
389.0,0.1158
389.5,0.1399
390.0,0.14
390.5,0.1285
391.0,0.1508
391.5,0.1534
392.0,0.1289
392.5,0.1151
393.0,0.06386
393.5,0.0463
394.0,0.09396
394.5,0.1191
395.0,0.145
395.5,0.1469
396.0,0.127
396.5,0.07405
397.0,0.05542
397.5,0.1124
398.0,0.157
398.5,0.1618
399.0,0.1748
399.5,0.1737
400.0,0.1799
401.0,0.1769
402.0,0.1856
403.0,0.1753
404.0,0.1716
405.0,0.1706
406.0,0.1669
407.0,0.1632
408.0,0.1686
409.0,0.1794
410.0,0.1559
411.0,0.1679
412.0,0.1793
413.0,0.1739
414.0,0.175
415.0,0.1744
416.0,0.1764
417.0,0.171
418.0,0.1668
419.0,0.168
420.0,0.1663
421.0,0.1729
422.0,0.1633
423.0,0.1584
424.0,0.1664
425.0,0.1651
426.0,0.1598
427.0,0.156
428.0,0.1511
429.0,0.1423
430.0,0.1238
431.0,0.1219
432.0,0.1563
433.0,0.1561
434.0,0.1441
435.0,0.1496
436.0,0.1676
437.0,0.1643
438.0,0.1486
439.0,0.1526
440.0,0.1564
441.0,0.1609
442.0,0.1714
443.0,0.1658
444.0,0.1685
445.0,0.1639
446.0,0.1556
447.0,0.1672
448.0,0.1686
449.0,0.1681
450.0,0.1715
451.0,0.1767
452.0,0.1692
453.0,0.1582
454.0,0.1642
455.0,0.164
456.0,0.1667
457.0,0.1681
458.0,0.161
459.0,0.1589
460.0,0.158
461.0,0.1605
462.0,0.1607
463.0,0.1588
464.0,0.1555
465.0,0.1527
466.0,0.1533
467.0,0.1495
468.0,0.15
469.0,0.1496
470.0,0.1438
471.0,0.1428
472.0,0.1495
473.0,0.1466
474.0,0.1458
475.0,0.1459
476.0,0.1403
477.0,0.1394
478.0,0.142
479.0,0.1398
480.0,0.1388
481.0,0.1401
482.0,0.1398
483.0,0.1373
484.0,0.1338
485.0,0.1268
486.0,0.1104
487.0,0.115
488.0,0.1253
489.0,0.1248
490.0,0.1303
491.0,0.1271
492.0,0.1192
493.0,0.1223
494.0,0.1227
495.0,0.1228
496.0,0.1226
497.0,0.1235
498.0,0.1166
499.0,0.1169
500.0,0.1123
501.0,0.1091
502.0,0.1064
503.0,0.1095
504.0,0.1056
505.0,0.1086
506.0,0.1114
507.0,0.1053
508.0,0.1015
509.0,0.1038
510.0,0.1027
511.0,0.1049
512.0,0.1052
513.0,0.09885
514.0,0.0974
515.0,0.09568
516.0,0.09471
517.0,0.08353
518.0,0.08717
519.0,0.09074
520.0,0.09328
521.0,0.09338
522.0,0.09265
523.0,0.09026
524.0,0.09262
525.0,0.0928
526.0,0.08782
527.0,0.0819
528.0,0.08575
529.0,0.08957
530.0,0.08752
531.0,0.08806
532.0,0.08435
533.0,0.08129
534.0,0.08314
535.0,0.08445
536.0,0.08471
537.0,0.08085
538.0,0.08173
539.0,0.08049
540.0,0.07661
541.0,0.07648
542.0,0.0782
543.0,0.07676
544.0,0.07751
545.0,0.07674
546.0,0.07649
547.0,0.0759
548.0,0.07447
549.0,0.07419
550.0,0.07455
551.0,0.07312
552.0,0.07309
553.0,0.07126
554.0,0.07242
555.0,0.07201
556.0,0.0705
557.0,0.06773
558.0,0.06661
559.0,0.06475
560.0,0.06496
561.0,0.0652
562.0,0.06412
563.0,0.06527
564.0,0.06297
565.0,0.06193
566.0,0.06053
567.0,0.06116
568.0,0.06009
569.0,0.0581
570.0,0.05767
571.0,0.05692
572.0,0.05777
573.0,0.05798
574.0,0.05743
575.0,0.05602
576.0,0.0552
577.0,0.05553
578.0,0.05446
579.0,0.05447
580.0,0.05533
581.0,0.0554
582.0,0.05623
583.0,0.05615
584.0,0.0564
585.0,0.05475
586.0,0.0533
587.0,0.0541
588.0,0.05234
589.0,0.04582
590.0,0.04765
591.0,0.05025
592.0,0.04916
593.0,0.04961
594.0,0.04881
595.0,0.04713
596.0,0.04882
597.0,0.04786
598.0,0.0474
599.0,0.04709
600.0,0.04687
601.0,0.04622
602.0,0.04564
603.0,0.04615
604.0,0.04668
605.0,0.04624
606.0,0.04588
607.0,0.04619
608.0,0.04553
609.0,0.04547
610.0,0.04502
611.0,0.04512
612.0,0.04486
613.0,0.04414
614.0,0.0434
615.0,0.04421
616.0,0.04262
617.0,0.04238
618.0,0.04386
619.0,0.04325
620.0,0.04334
621.0,0.04318
622.0,0.04247
623.0,0.04162
624.0,0.04073
625.0,0.04048
626.0,0.04091
627.0,0.04115
628.0,0.0377
629.0,0.03963
630.0,0.03853
631.0,0.03942
632.0,0.03884
633.0,0.03995
634.0,0.03948
635.0,0.03997
636.0,0.03932
637.0,0.03984
638.0,0.04012
639.0,0.03954
640.0,0.03904
641.0,0.03888
642.0,0.03859
643.0,0.03898
644.0,0.03873
645.0,0.03861
646.0,0.03748
647.0,0.03674
648.0,0.03661
649.0,0.03574
650.0,0.03595
651.0,0.03738
652.0,0.03546
653.0,0.03659
654.0,0.03605
655.0,0.03445
656.0,0.03047
657.0,0.03119
658.0,0.03488
659.0,0.03501
660.0,0.03502
661.0,0.03512
662.0,0.03502
663.0,0.03421
664.0,0.03452
665.0,0.03445
666.0,0.03435
667.0,0.03422
668.0,0.03412
669.0,0.03452
670.0,0.03423
671.0,0.0341
672.0,0.0337
673.0,0.03411
674.0,0.03384
675.0,0.0334
676.0,0.0335
677.0,0.03305
678.0,0.03303
679.0,0.03237
680.0,0.03249
681.0,0.03214
682.0,0.03195
683.0,0.03175
684.0,0.03144
685.0,0.03157
686.0,0.03124
687.0,0.01894
688.0,0.02275
689.0,0.02276
690.0,0.02403
691.0,0.02552
692.0,0.02664
693.0,0.02628
694.0,0.02596
695.0,0.02716
696.0,0.02709
697.0,0.02899
698.0,0.02841
699.0,0.02739
700.0,0.02693
701.0,0.02648
702.0,0.02663
703.0,0.02657
704.0,0.02742
705.0,0.02733
706.0,0.02724
707.0,0.02716
708.0,0.02708
709.0,0.02707
710.0,0.0269
711.0,0.0268
712.0,0.02666
713.0,0.02623
714.0,0.0262
715.0,0.02516
716.0,0.02504
717.0,0.02092
718.0,0.019
719.0,0.0172
720.0,0.01795
721.0,0.02011
722.0,0.02345
723.0,0.02145
724.0,0.01893
725.0,0.01849
726.0,0.01935
727.0,0.01964
728.0,0.01819
729.0,0.019
730.0,0.02004
731.0,0.01901
732.0,0.0205
733.0,0.02185
734.0,0.02233
735.0,0.02173
736.0,0.0216
737.0,0.02158
738.0,0.02199
739.0,0.02144
740.0,0.02195
741.0,0.02166
742.0,0.0216
743.0,0.02205
744.0,0.02189
745.0,0.0218
746.0,0.02179
747.0,0.02174
748.0,0.02159
749.0,0.02124
750.0,0.02114
751.0,0.02085
752.0,0.02085
753.0,0.02087
754.0,0.02082
755.0,0.02062
756.0,0.02053
757.0,0.02047
758.0,0.02012
759.0,0.01951
760.0,0.002694
761.0,0.001417
762.0,0.008604
763.0,0.004076
764.0,0.006218
765.0,0.008475
766.0,0.01075
767.0,0.01408
768.0,0.01678
769.0,0.0172
770.0,0.01789
771.0,0.01803
772.0,0.01801
773.0,0.01804
774.0,0.01786
775.0,0.01764
776.0,0.01777
777.0,0.01744
778.0,0.01724
779.0,0.01717
780.0,0.01699
781.0,0.01694
782.0,0.01698
783.0,0.01662
784.0,0.01663
785.0,0.01644
786.0,0.01655
787.0,0.01612
788.0,0.01582
789.0,0.01573
790.0,0.01515
791.0,0.01531
792.0,0.01514
793.0,0.01481
794.0,0.01511
795.0,0.01527
796.0,0.01459
797.0,0.01455
798.0,0.01504
799.0,0.01485
800.0,0.01449
801.0,0.01435
802.0,0.01424
803.0,0.01405
804.0,0.01402
805.0,0.01395
806.0,0.01433
807.0,0.01407
808.0,0.01402
809.0,0.01364
810.0,0.01343
811.0,0.01333
812.0,0.01279
813.0,0.01241
814.0,0.01061
815.0,0.0105
816.0,0.009636
817.0,0.009793
818.0,0.009343
819.0,0.01062
820.0,0.009877
821.0,0.01186
822.0,0.01141
823.0,0.007229
824.0,0.01089
825.0,0.01145
826.0,0.01086
827.0,0.01154
828.0,0.009431
829.0,0.01068
830.0,0.01047
831.0,0.01047
832.0,0.01005
833.0,0.01083
834.0,0.01031
835.0,0.01149
836.0,0.01081
837.0,0.01143
838.0,0.01096
839.0,0.01116
840.0,0.01137
841.0,0.01113
842.0,0.01115
843.0,0.01114
844.0,0.01091
845.0,0.01126
846.0,0.01116
847.0,0.01092
848.0,0.01078
849.0,0.01042
850.0,0.009937
851.0,0.01044
852.0,0.01033
853.0,0.009909
854.0,0.008504
855.0,0.009325
856.0,0.01014
857.0,0.01034
858.0,0.01022
859.0,0.0102
860.0,0.01018
861.0,0.01008
862.0,0.01021
863.0,0.01041
864.0,0.009856
865.0,0.009733
866.0,0.008717
867.0,0.009061
868.0,0.00982
869.0,0.009579
870.0,0.009812
871.0,0.009639
872.0,0.009566
873.0,0.009508
874.0,0.009353
875.0,0.009122
876.0,0.009176
877.0,0.009231
878.0,0.009288
879.0,0.009107
880.0,0.008874
881.0,0.008695
882.0,0.008844
883.0,0.008844
884.0,0.00876
885.0,0.008785
886.0,0.008305
887.0,0.008384
888.0,0.008457
889.0,0.008544
890.0,0.0084
891.0,0.00837
892.0,0.008056
893.0,0.007721
894.0,0.007323
895.0,0.006777
896.0,0.006286
897.0,0.005231
898.0,0.005765
899.0,0.004184
900.0,0.005932
901.0,0.004393
902.0,0.005307
903.0,0.005289
904.0,0.006969
905.0,0.006654
906.0,0.006152
907.0,0.004757
908.0,0.004873
909.0,0.005353
910.0,0.004569
911.0,0.004945
912.0,0.005176
913.0,0.004578
914.0,0.004537
915.0,0.004934
916.0,0.004081
917.0,0.005368
918.0,0.004159
919.0,0.005455
920.0,0.005564
921.0,0.005804
922.0,0.005046
923.0,0.005568
924.0,0.005122
925.0,0.004982
926.0,0.005019
927.0,0.005707
928.0,0.003881
929.0,0.003468
930.0,0.002609
931.0,0.002453
932.0,0.001683
933.0,0.001334
934.0,0.0006913
935.0,0.001367
936.0,0.000818
937.0,0.0008249
938.0,0.001022
939.0,0.002294
940.0,0.002824
941.0,0.00204
942.0,0.002394
943.0,0.001497
944.0,0.001604
945.0,0.002077
946.0,0.0009829
947.0,0.002059
948.0,0.001476
949.0,0.002839
950.0,0.0006921
951.0,0.002779
952.0,0.00138
953.0,0.001833
954.0,0.002315
955.0,0.00185
956.0,0.00182
957.0,0.001354
958.0,0.002674
959.0,0.002024
960.0,0.002281
961.0,0.002617
962.0,0.002454
963.0,0.002895
964.0,0.002609
965.0,0.002859
966.0,0.002846
967.0,0.002813
968.0,0.004057
969.0,0.004213
970.0,0.003801
971.0,0.004492
972.0,0.004235
973.0,0.003535
974.0,0.003321
975.0,0.003468
976.0,0.00322
977.0,0.0038
978.0,0.003534
979.0,0.003732
980.0,0.003457
981.0,0.004298
982.0,0.00404
983.0,0.003832
984.0,0.004442
985.0,0.003978
986.0,0.004524
987.0,0.004379
988.0,0.004354
989.0,0.004482
990.0,0.004294
991.0,0.004447
992.0,0.004461
993.0,0.004308
994.0,0.004434
995.0,0.004419
996.0,0.004376
997.0,0.00437
998.0,0.004331
999.0,0.004302
1000.0,0.004246
1001.0,0.004294
1002.0,0.004118
1003.0,0.004184
1004.0,0.004054
1005.0,0.003906
1006.0,0.004035
1007.0,0.004108
1008.0,0.004063
1009.0,0.004018
1010.0,0.003982
1011.0,0.004027
1012.0,0.003969
1013.0,0.00399
1014.0,0.003947
1015.0,0.003905
1016.0,0.003872
1017.0,0.003865
1018.0,0.00384
1019.0,0.003728
1020.0,0.003788
1021.0,0.003771
1022.0,0.003721
1023.0,0.003746
1024.0,0.003669
1025.0,0.003721
1026.0,0.003687
1027.0,0.003665
1028.0,0.003643
1029.0,0.003586
1030.0,0.003602
1031.0,0.003572
1032.0,0.003549
1033.0,0.003482
1034.0,0.003469
1035.0,0.003467
1036.0,0.00347
1037.0,0.003401
1038.0,0.003403
1039.0,0.003388
1040.0,0.003361
1041.0,0.003361
1042.0,0.003324
1043.0,0.003301
1044.0,0.0033
1045.0,0.003242
1046.0,0.003192
1047.0,0.003208
1048.0,0.003214
1049.0,0.00319
1050.0,0.003162
1051.0,0.003145
1052.0,0.003119
1053.0,0.003082
1054.0,0.003076
1055.0,0.003064
1056.0,0.00304
1057.0,0.003017
1058.0,0.002931
1059.0,0.002922
1060.0,0.002906
1061.0,0.00289
1062.0,0.002892
1063.0,0.002852
1064.0,0.002876
1065.0,0.00284
1066.0,0.002778
1067.0,0.002802
1068.0,0.002727
1069.0,0.002636
1070.0,0.002712
1071.0,0.002755
1072.0,0.002705
1073.0,0.002659
1074.0,0.00273
1075.0,0.002552
1076.0,0.002706
1077.0,0.00263
1078.0,0.002563
1079.0,0.002639
1080.0,0.002558
1081.0,0.002456
1082.0,0.002513
1083.0,0.002518
1084.0,0.002414
1085.0,0.002524
1086.0,0.002244
1087.0,0.002345
1088.0,0.002464
1089.0,0.00235
1090.0,0.00227
1091.0,0.002421
1092.0,0.002412
1093.0,0.001954
1094.0,0.002181
1095.0,0.002033
1096.0,0.001917
1097.0,0.002317
1098.0,0.001865
1099.0,0.00195
1100.0,0.001772
1101.0,0.0018
1102.0,0.001694
1103.0,0.001658
1104.0,0.001657
1105.0,0.001858
1106.0,0.001313
1107.0,0.00173
1108.0,0.001397
1109.0,0.001401
1110.0,0.001686
1111.0,0.001051
1112.0,0.001378
1113.0,0.0008011
1114.0,0.0009005
1115.0,0.0007314
1116.0,0.0005576
1117.0,0.0001866
1118.0,0.0006091
1119.0,0.0002816
1120.0,0.0003545
1121.0,0.0004792
1122.0,0.0001888
1123.0,0.0003162
1124.0,0.0002645
1125.0,0.0003495
1126.0,0.0001126
1127.0,0.0003937
1128.0,0.0002235
1129.0,0.0002374
1130.0,0.0001529
1131.0,0.0007898
1132.0,0.0006021
1133.0,0.0003591
1134.0,8.492e-05
1135.0,3.166e-05
1136.0,0.0002908
1137.0,0.000753
1138.0,0.0005153
1139.0,0.0008231
1140.0,0.000662
1141.0,0.0004838
1142.0,0.0005647
1143.0,0.0008347
1144.0,0.0002616
1145.0,0.0003317
1146.0,0.0003572
1147.0,0.000117
1148.0,0.0007002
1149.0,0.0005397
1150.0,0.0002784
1151.0,0.0004886
1152.0,0.000618
1153.0,0.0006082
1154.0,0.0003119
1155.0,0.0008154
1156.0,0.0007182
1157.0,0.0008272
1158.0,0.0008142
1159.0,0.0008913
1160.0,0.0007422
1161.0,0.0009532
1162.0,0.00095
1163.0,0.001369
1164.0,0.001134
1165.0,0.001043
1166.0,0.001046
1167.0,0.001153
1168.0,0.001159
1169.0,0.001193
1170.0,0.001317
1171.0,0.001275
1172.0,0.001307
1173.0,0.001301
1174.0,0.0008638
1175.0,0.001272
1176.0,0.001428
1177.0,0.001345
1178.0,0.000952
1179.0,0.001426
1180.0,0.001228
1181.0,0.00127
1182.0,0.0008145
1183.0,0.00125
1184.0,0.001145
1185.0,0.001087
1186.0,0.00134
1187.0,0.001255
1188.0,0.0008113
1189.0,0.001156
1190.0,0.001293
1191.0,0.001196
1192.0,0.001306
1193.0,0.001235
1194.0,0.001278
1195.0,0.001186
1196.0,0.001127
1197.0,0.001278
1198.0,0.001149
1199.0,0.0009339
1200.0,0.001195
1201.0,0.001134
1202.0,0.001132
1203.0,0.001119
1204.0,0.0009478
1205.0,0.001159
1206.0,0.001306
1207.0,0.00111
1208.0,0.001101
1209.0,0.001122
1210.0,0.001176
1211.0,0.001101
1212.0,0.001067
1213.0,0.001226
1214.0,0.001094
1215.0,0.001066
1216.0,0.001212
1217.0,0.001168
1218.0,0.001193
1219.0,0.001171
1220.0,0.001188
1221.0,0.001201
1222.0,0.00116
1223.0,0.001143
1224.0,0.001125
1225.0,0.001177
1226.0,0.001187
1227.0,0.00107
1228.0,0.001189
1229.0,0.001175
1230.0,0.001148
1231.0,0.00119
1232.0,0.001178
1233.0,0.001117
1234.0,0.001181
1235.0,0.001167
1236.0,0.001174
1237.0,0.001147
1238.0,0.001162
1239.0,0.001143
1240.0,0.001145
1241.0,0.001132
1242.0,0.001129
1243.0,0.001116
1244.0,0.001119
1245.0,0.001121
1246.0,0.001111
1247.0,0.001102
1248.0,0.001096
1249.0,0.001098
1250.0,0.001086
1251.0,0.001066
1252.0,0.001066
1253.0,0.001049
1254.0,0.00103
1255.0,0.001054
1256.0,0.00101
1257.0,0.0009993
1258.0,0.001023
1259.0,0.0009672
1260.0,0.0009712
1261.0,0.0008954
1262.0,0.0008568
1263.0,0.0008554
1264.0,0.0007677
1265.0,0.0008454
1266.0,0.0007992
1267.0,0.0008189
1268.0,0.0007615
1269.0,0.000415
1270.0,0.0008058
1271.0,0.0008696
1272.0,0.0008716
1273.0,0.0008576
1274.0,0.0008603
1275.0,0.0008734
1276.0,0.0008827
1277.0,0.0008899
1278.0,0.0009116
1279.0,0.0009
1280.0,0.0008862
1281.0,0.0008465
1282.0,0.0008188
1283.0,0.000878
1284.0,0.000895
1285.0,0.000899
1286.0,0.0009116
1287.0,0.0008887
1288.0,0.0008874
1289.0,0.0008454
1290.0,0.0008746
1291.0,0.000886
1292.0,0.0008094
1293.0,0.0008582
1294.0,0.0008484
1295.0,0.0008362
1296.0,0.0007835
1297.0,0.0007294
1298.0,0.0008018
1299.0,0.0008451
1300.0,0.00068
1301.0,0.0007048
1302.0,0.0007905
1303.0,0.0006669
1304.0,0.0005422
1305.0,0.0007641
1306.0,0.0007599
1307.0,0.0005551
1308.0,0.0006601
1309.0,0.0007437
1310.0,0.0005373
1311.0,0.0006208
1312.0,0.0006003
1313.0,0.0005809
1314.0,0.0005062
1315.0,0.0004963
1316.0,0.0005987
1317.0,0.0005592
1318.0,0.0006187
1319.0,0.0004527
1320.0,0.0004386
1321.0,0.0005237
1322.0,0.0005246
1323.0,0.0003711
1324.0,0.0004372
1325.0,0.000571
1326.0,0.0004728
1327.0,0.0004451
1328.0,0.0003733
1329.0,0.0002648
1330.0,0.0003551
1331.0,0.0001985
1332.0,0.0002067
1333.0,0.0002943
1334.0,0.000251
1335.0,0.0003556
1336.0,0.00027
1337.0,0.000235
1338.0,0.0002544
1339.0,0.0002536
1340.0,0.0002476
1341.0,0.0002352
1342.0,0.0002478
1343.0,0.000157
1344.0,9.26e-05
1345.0,0.0001344
1346.0,6.329e-05
1347.0,6.389e-05
1348.0,4.024e-06
1349.0,1.447e-05
1350.0,1.502e-05
1351.0,3.613e-06
1352.0,9.712e-07
1353.0,4.942e-08
1354.0,1.699e-07
1355.0,1.368e-09
