interpolation:linear
wavelength,value
280.0,3.752e-21
280.5,1.167e-19
281.0,6.144e-19
281.5,4.054e-19
282.0,1.156e-18
282.5,3.027e-18
283.0,9.758e-18
283.5,1.595e-17
284.0,2.577e-16
284.5,7.412e-16
285.0,1.643e-15
285.5,8.085e-15
286.0,3.242e-14
286.5,1.433e-13
287.0,4.058e-13
287.5,1.534e-12
288.0,3.988e-12
288.5,1.348e-11
289.0,3.877e-11
289.5,1.241e-10
290.0,3.57e-10
290.5,7.458e-10
291.0,1.638e-09
291.5,4.994e-09
292.0,1.087e-08
292.5,1.645e-08
293.0,3.884e-08
293.5,1.075e-07
294.0,1.84e-07
294.5,2.285e-07
295.0,4.182e-07
295.5,1.084e-06
296.0,2.119e-06
296.5,3.014e-06
297.0,4.146e-06
297.5,1.148e-05
298.0,1.871e-05
298.5,1.94e-05
299.0,4.426e-05
299.5,7.922e-05
300.0,9.159e-05
300.5,0.0001407
301.0,0.0002864
301.5,0.0005223
302.0,0.0004849
302.5,0.0009341
303.0,0.001648
303.5,0.002054
304.0,0.001928
304.5,0.002888
305.0,0.004412
305.5,0.005074
306.0,0.004909
306.5,0.006123
307.0,0.009163
307.5,0.01229
308.0,0.01296
308.5,0.01535
309.0,0.01549
309.5,0.01745
310.0,0.01739
310.5,0.02801
311.0,0.03492
311.5,0.03355
312.0,0.03326
312.5,0.04024
313.0,0.04345
313.5,0.04206
314.0,0.05232
314.5,0.04623
315.0,0.06053
315.5,0.05041
316.0,0.04391
316.5,0.06295
317.0,0.07786
317.5,0.08066
318.0,0.0628
318.5,0.07807
319.0,0.0926
319.5,0.07482
320.0,0.09001
320.5,0.1129
321.0,0.1009
321.5,0.09647
322.0,0.1016
322.5,0.0881
323.0,0.08786
323.5,0.1089
324.0,0.1267
324.5,0.1279
325.0,0.109
325.5,0.1403
326.0,0.1722
326.5,0.1723
327.0,0.1709
327.5,0.1643
328.0,0.1454
328.5,0.1527
329.0,0.1829
329.5,0.2072
330.0,0.208
330.5,0.1652
331.0,0.1675
331.5,0.1701
332.0,0.1838
332.5,0.1816
333.0,0.1802
333.5,0.1619
334.0,0.1651
334.5,0.1906
335.0,0.1789
335.5,0.2117
336.0,0.146
336.5,0.1672
337.0,0.1364
337.5,0.1689
338.0,0.1649
338.5,0.1923
339.0,0.1889
339.5,0.1815
340.0,0.2099
340.5,0.1886
341.0,0.1851
341.5,0.1682
342.0,0.2
342.5,0.1862
343.0,0.2047
343.5,0.1926
344.0,0.1408
344.5,0.1436
345.0,0.1876
345.5,0.1903
346.0,0.1608
346.5,0.1813
347.0,0.1944
347.5,0.1568
348.0,0.1774
348.5,0.1764
349.0,0.1629
349.5,0.1607
350.0,0.198
350.5,0.2081
351.0,0.1854
351.5,0.1803
352.0,0.1924
352.5,0.1493
353.0,0.1871
353.5,0.1992
354.0,0.2059
354.5,0.208
355.0,0.2066
355.5,0.1859
356.0,0.1937
356.5,0.1647
357.0,0.1356
357.5,0.1654
358.0,0.1305
358.5,0.1111
359.0,0.1548
359.5,0.1967
360.0,0.2076
360.5,0.1653
361.0,0.1501
361.5,0.1721
362.0,0.1483
362.5,0.2044
363.0,0.1829
363.5,0.1678
364.0,0.2044
364.5,0.1741
365.0,0.1766
365.5,0.2208
366.0,0.2331
366.5,0.2181
367.0,0.2116
367.5,0.2188
368.0,0.1907
368.5,0.1917
369.0,0.2063
369.5,0.219
370.0,0.2325
370.5,0.1798
371.0,0.1914
371.5,0.2385
372.0,0.1577
372.5,0.1884
373.0,0.1909
373.5,0.1237
374.0,0.1791
374.5,0.1477
375.0,0.1431
375.5,0.2128
376.0,0.1757
376.5,0.1814
377.0,0.1913
377.5,0.223
378.0,0.2408
378.5,0.2266
379.0,0.1863
379.5,0.1694
380.0,0.1754
380.5,0.2116
381.0,0.2112
381.5,0.1668
382.0,0.1475
382.5,0.1252
383.0,0.1155
383.5,0.1108
384.0,0.1217
384.5,0.1784
385.0,0.1762
385.5,0.1634
386.0,0.1394
386.5,0.1824
387.0,0.151
387.5,0.1689
388.0,0.1553
388.5,0.1529
389.0,0.1644
389.5,0.1984
390.0,0.1983
390.5,0.1818
391.0,0.2131
391.5,0.2165
392.0,0.1816
392.5,0.1619
393.0,0.08974
393.5,0.06498
394.0,0.1317
394.5,0.1668
395.0,0.2028
395.5,0.2052
396.0,0.1772
396.5,0.1032
397.0,0.07712
397.5,0.1562
398.0,0.2179
398.5,0.2244
399.0,0.242
399.5,0.2403
400.0,0.2485
401.0,0.2441
402.0,0.2555
403.0,0.2408
404.0,0.2352
405.0,0.2333
406.0,0.2277
407.0,0.2222
408.0,0.229
409.0,0.2433
410.0,0.211
411.0,0.2268
412.0,0.2417
413.0,0.2339
414.0,0.2349
415.0,0.2337
416.0,0.2359
417.0,0.2282
418.0,0.2222
419.0,0.2233
420.0,0.2205
421.0,0.2289
422.0,0.2157
423.0,0.209
424.0,0.2192
425.0,0.2171
426.0,0.2098
427.0,0.2043
428.0,0.1975
429.0,0.1857
430.0,0.1613
431.0,0.1585
432.0,0.203
433.0,0.2025
434.0,0.1865
435.0,0.1933
436.0,0.2162
437.0,0.2118
438.0,0.1914
439.0,0.1964
440.0,0.201
441.0,0.2066
442.0,0.2198
443.0,0.2124
444.0,0.2154
445.0,0.2092
446.0,0.1981
447.0,0.2126
448.0,0.2141
449.0,0.2132
450.0,0.2174
451.0,0.2237
452.0,0.2138
453.0,0.1996
454.0,0.2069
455.0,0.2064
456.0,0.2096
457.0,0.2113
458.0,0.2025
459.0,0.1998
460.0,0.1986
461.0,0.2016
462.0,0.2017
463.0,0.1989
464.0,0.1944
465.0,0.1906
466.0,0.191
467.0,0.186
468.0,0.1866
469.0,0.186
470.0,0.1787
471.0,0.1772
472.0,0.1854
473.0,0.1816
474.0,0.1804
475.0,0.1805
476.0,0.1737
477.0,0.1727
478.0,0.1759
479.0,0.1733
480.0,0.1722
481.0,0.1738
482.0,0.1733
483.0,0.1699
484.0,0.1653
485.0,0.1564
486.0,0.1358
487.0,0.1413
488.0,0.1538
489.0,0.153
490.0,0.1598
491.0,0.1558
492.0,0.146
493.0,0.1497
494.0,0.15
495.0,0.1502
496.0,0.15
497.0,0.1511
498.0,0.1429
499.0,0.1435
500.0,0.1381
501.0,0.1343
502.0,0.1312
503.0,0.1354
504.0,0.1308
505.0,0.1345
506.0,0.1378
507.0,0.1302
508.0,0.1253
509.0,0.128
510.0,0.1265
511.0,0.129
512.0,0.1295
513.0,0.1216
514.0,0.1199
515.0,0.1178
516.0,0.1167
517.0,0.1029
518.0,0.1074
519.0,0.1118
520.0,0.115
521.0,0.1152
522.0,0.1144
523.0,0.1115
524.0,0.1146
525.0,0.1151
526.0,0.1091
527.0,0.1019
528.0,0.1069
529.0,0.1118
530.0,0.1094
531.0,0.1102
532.0,0.1057
533.0,0.1019
534.0,0.1042
535.0,0.1058
536.0,0.106
537.0,0.1011
538.0,0.1022
539.0,0.1007
540.0,0.09591
541.0,0.09583
542.0,0.09807
543.0,0.09633
544.0,0.09738
545.0,0.09649
546.0,0.09622
547.0,0.0955
548.0,0.0937
549.0,0.09336
550.0,0.09384
551.0,0.09206
552.0,0.09204
553.0,0.08977
554.0,0.09129
555.0,0.09083
556.0,0.089
557.0,0.08558
558.0,0.08428
559.0,0.08206
560.0,0.08245
561.0,0.08287
562.0,0.08163
563.0,0.08323
564.0,0.08039
565.0,0.07914
566.0,0.07741
567.0,0.0783
568.0,0.07703
569.0,0.07462
570.0,0.07411
571.0,0.07317
572.0,0.07436
573.0,0.07467
574.0,0.07399
575.0,0.07216
576.0,0.07107
577.0,0.07141
578.0,0.06995
579.0,0.06987
580.0,0.07084
581.0,0.07082
582.0,0.07176
583.0,0.07157
584.0,0.07183
585.0,0.06969
586.0,0.0678
587.0,0.06881
588.0,0.06666
589.0,0.05854
590.0,0.06087
591.0,0.06412
592.0,0.06283
593.0,0.06339
594.0,0.06248
595.0,0.06047
596.0,0.06258
597.0,0.06146
598.0,0.06091
599.0,0.06056
600.0,0.06029
601.0,0.05946
602.0,0.0587
603.0,0.05932
604.0,0.05996
605.0,0.05933
606.0,0.0588
607.0,0.05909
608.0,0.05814
609.0,0.05794
610.0,0.05726
611.0,0.05729
612.0,0.05685
613.0,0.05585
614.0,0.05481
615.0,0.05574
616.0,0.05364
617.0,0.05327
618.0,0.05506
619.0,0.05423
620.0,0.05429
621.0,0.05406
622.0,0.05313
623.0,0.05202
624.0,0.05086
625.0,0.05051
626.0,0.05101
627.0,0.05129
628.0,0.04731
629.0,0.04942
630.0,0.04802
631.0,0.04895
632.0,0.04815
633.0,0.04943
634.0,0.04876
635.0,0.04928
636.0,0.0484
637.0,0.04896
638.0,0.04922
639.0,0.04844
640.0,0.04774
641.0,0.04748
642.0,0.04706
643.0,0.04749
644.0,0.04713
645.0,0.04695
646.0,0.04557
647.0,0.04472
648.0,0.04451
649.0,0.04343
650.0,0.04353
651.0,0.04521
652.0,0.04296
653.0,0.04417
654.0,0.04348
655.0,0.04156
656.0,0.0367
657.0,0.03752
658.0,0.0419
659.0,0.04202
660.0,0.04198
661.0,0.04206
662.0,0.04193
663.0,0.04093
664.0,0.04125
665.0,0.0411
666.0,0.04094
667.0,0.04072
668.0,0.04056
669.0,0.04099
670.0,0.04061
671.0,0.04042
672.0,0.03992
673.0,0.04037
674.0,0.04002
675.0,0.03946
676.0,0.03955
677.0,0.03899
678.0,0.03893
679.0,0.03813
680.0,0.03825
681.0,0.03782
682.0,0.03759
683.0,0.03733
684.0,0.03695
685.0,0.03708
686.0,0.03669
687.0,0.02312
688.0,0.02746
689.0,0.02744
690.0,0.02881
691.0,0.0304
692.0,0.03154
693.0,0.03111
694.0,0.03065
695.0,0.03191
696.0,0.03179
697.0,0.03387
698.0,0.03319
699.0,0.03207
700.0,0.03153
701.0,0.03104
702.0,0.03117
703.0,0.03107
704.0,0.03199
705.0,0.03188
706.0,0.03174
707.0,0.03163
708.0,0.03154
709.0,0.03147
710.0,0.03129
711.0,0.03115
712.0,0.03097
713.0,0.03049
714.0,0.03044
715.0,0.02927
716.0,0.02914
717.0,0.02466
718.0,0.02235
719.0,0.0202
720.0,0.02114
721.0,0.02355
722.0,0.02731
723.0,0.02502
724.0,0.02216
725.0,0.02167
726.0,0.0227
727.0,0.02293
728.0,0.02132
729.0,0.02217
730.0,0.02345
731.0,0.02222
732.0,0.02387
733.0,0.02534
734.0,0.02586
735.0,0.02518
736.0,0.02504
737.0,0.02501
738.0,0.02538
739.0,0.02475
740.0,0.02531
741.0,0.02496
742.0,0.02487
743.0,0.02538
744.0,0.02518
745.0,0.02507
746.0,0.02507
747.0,0.025
748.0,0.02482
749.0,0.02441
750.0,0.02429
751.0,0.02394
752.0,0.02394
753.0,0.02394
754.0,0.02387
755.0,0.02363
756.0,0.02352
757.0,0.02345
758.0,0.02304
759.0,0.02241
760.0,0.003149
761.0,0.001607
762.0,0.0104
763.0,0.004856
764.0,0.007504
765.0,0.01024
766.0,0.01287
767.0,0.01659
768.0,0.01944
769.0,0.01985
770.0,0.02054
771.0,0.02065
772.0,0.02061
773.0,0.02065
774.0,0.02044
775.0,0.0202
776.0,0.02035
777.0,0.01998
778.0,0.01976
779.0,0.01967
780.0,0.01947
781.0,0.0194
782.0,0.01943
783.0,0.01901
784.0,0.01902
785.0,0.01879
786.0,0.01891
787.0,0.01846
788.0,0.01813
789.0,0.01802
790.0,0.0174
791.0,0.01753
792.0,0.01732
793.0,0.01695
794.0,0.01723
795.0,0.01743
796.0,0.01673
797.0,0.01668
798.0,0.01717
799.0,0.01697
800.0,0.01657
801.0,0.01642
802.0,0.0163
803.0,0.01609
804.0,0.01605
805.0,0.01595
806.0,0.01636
807.0,0.01607
808.0,0.01602
809.0,0.01562
810.0,0.01539
811.0,0.01531
812.0,0.01474
813.0,0.01432
814.0,0.01231
815.0,0.01217
816.0,0.01116
817.0,0.01135
818.0,0.01085
819.0,0.01228
820.0,0.01143
821.0,0.01362
822.0,0.01311
823.0,0.008391
824.0,0.01255
825.0,0.01311
826.0,0.01247
827.0,0.01322
828.0,0.01089
829.0,0.01225
830.0,0.01201
831.0,0.01202
832.0,0.01154
833.0,0.01241
834.0,0.01184
835.0,0.01312
836.0,0.0124
837.0,0.01304
838.0,0.01255
839.0,0.01274
840.0,0.01297
841.0,0.01271
842.0,0.01271
843.0,0.01267
844.0,0.01242
845.0,0.01281
846.0,0.0127
847.0,0.01241
848.0,0.01227
849.0,0.01187
850.0,0.01132
851.0,0.01191
852.0,0.01178
853.0,0.01129
854.0,0.0097
855.0,0.01062
856.0,0.01156
857.0,0.01178
858.0,0.01164
859.0,0.01161
860.0,0.01158
861.0,0.01147
862.0,0.01161
863.0,0.01184
864.0,0.0112
865.0,0.01106
866.0,0.009901
867.0,0.01029
868.0,0.01115
869.0,0.01087
870.0,0.01114
871.0,0.01094
872.0,0.01086
873.0,0.01079
874.0,0.01061
875.0,0.01035
876.0,0.01041
877.0,0.01047
878.0,0.01054
879.0,0.01034
880.0,0.01007
881.0,0.009875
882.0,0.01005
883.0,0.01004
884.0,0.009952
885.0,0.009981
886.0,0.009454
887.0,0.009532
888.0,0.009621
889.0,0.009708
890.0,0.009561
891.0,0.009518
892.0,0.009184
893.0,0.008817
894.0,0.008405
895.0,0.007826
896.0,0.00725
897.0,0.006059
898.0,0.006676
899.0,0.004845
900.0,0.006842
901.0,0.005113
902.0,0.006136
903.0,0.006139
904.0,0.008002
905.0,0.007648
906.0,0.007077
907.0,0.005519
908.0,0.005641
909.0,0.006189
910.0,0.005314
911.0,0.005714
912.0,0.005994
913.0,0.005328
914.0,0.005266
915.0,0.005761
916.0,0.004731
917.0,0.006236
918.0,0.004836
919.0,0.006312
920.0,0.006384
921.0,0.006687
922.0,0.005838
923.0,0.006408
924.0,0.005951
925.0,0.005777
926.0,0.005839
927.0,0.006615
928.0,0.004562
929.0,0.00409
930.0,0.003079
931.0,0.002888
932.0,0.001977
933.0,0.001557
934.0,0.0007935
935.0,0.001593
936.0,0.0009394
937.0,0.0009477
938.0,0.001185
939.0,0.002703
940.0,0.003336
941.0,0.002411
942.0,0.002835
943.0,0.00175
944.0,0.001861
945.0,0.002448
946.0,0.001138
947.0,0.002434
948.0,0.001716
949.0,0.003379
950.0,0.0007923
951.0,0.003304
952.0,0.001614
953.0,0.002155
954.0,0.002731
955.0,0.00218
956.0,0.002101
957.0,0.001586
958.0,0.003114
959.0,0.002368
960.0,0.002687
961.0,0.003067
962.0,0.002869
963.0,0.00338
964.0,0.003041
965.0,0.003343
966.0,0.003329
967.0,0.003294
968.0,0.004666
969.0,0.004885
970.0,0.0044
971.0,0.005161
972.0,0.004872
973.0,0.00411
974.0,0.003856
975.0,0.004014
976.0,0.003755
977.0,0.004376
978.0,0.004095
979.0,0.004318
980.0,0.003995
981.0,0.004938
982.0,0.004659
983.0,0.004425
984.0,0.005078
985.0,0.004592
986.0,0.005155
987.0,0.005009
988.0,0.004978
989.0,0.005096
990.0,0.004914
991.0,0.005063
992.0,0.005076
993.0,0.00492
994.0,0.005042
995.0,0.005021
996.0,0.004975
997.0,0.004965
998.0,0.004922
999.0,0.004888
1000.0,0.004829
1001.0,0.004878
1002.0,0.004699
1003.0,0.004754
1004.0,0.004612
1005.0,0.004435
1006.0,0.004585
1007.0,0.004667
1008.0,0.004619
1009.0,0.004573
1010.0,0.004533
1011.0,0.004575
1012.0,0.004512
1013.0,0.004531
1014.0,0.004483
1015.0,0.004436
1016.0,0.004398
1017.0,0.004391
1018.0,0.00436
1019.0,0.004241
1020.0,0.004302
1021.0,0.004281
1022.0,0.004228
1023.0,0.004256
1024.0,0.004176
1025.0,0.004226
1026.0,0.004189
1027.0,0.004164
1028.0,0.004139
1029.0,0.004075
1030.0,0.004091
1031.0,0.004057
1032.0,0.004031
1033.0,0.003955
1034.0,0.00394
1035.0,0.003937
1036.0,0.003941
1037.0,0.003863
1038.0,0.003866
1039.0,0.003849
1040.0,0.003819
1041.0,0.003819
1042.0,0.003778
1043.0,0.003752
1044.0,0.003751
1045.0,0.003686
1046.0,0.003631
1047.0,0.003649
1048.0,0.003656
1049.0,0.003629
1050.0,0.003598
1051.0,0.003579
1052.0,0.00355
1053.0,0.003509
1054.0,0.003503
1055.0,0.003491
1056.0,0.003464
1057.0,0.00344
1058.0,0.003342
1059.0,0.003333
1060.0,0.003315
1061.0,0.003298
1062.0,0.003302
1063.0,0.003257
1064.0,0.003284
1065.0,0.003246
1066.0,0.003172
1067.0,0.0032
1068.0,0.003116
1069.0,0.00301
1070.0,0.003098
1071.0,0.003143
1072.0,0.003089
1073.0,0.003036
1074.0,0.003112
1075.0,0.002923
1076.0,0.003085
1077.0,0.003005
1078.0,0.002934
1079.0,0.003006
1080.0,0.002923
1081.0,0.002814
1082.0,0.002867
1083.0,0.002869
1084.0,0.002767
1085.0,0.002883
1086.0,0.002576
1087.0,0.002686
1088.0,0.00281
1089.0,0.002693
1090.0,0.002604
1091.0,0.002763
1092.0,0.002751
1093.0,0.002256
1094.0,0.002493
1095.0,0.002351
1096.0,0.002221
1097.0,0.002643
1098.0,0.002168
1099.0,0.002263
1100.0,0.002062
1101.0,0.002091
1102.0,0.001975
1103.0,0.001937
1104.0,0.001935
1105.0,0.002157
1106.0,0.001552
1107.0,0.002014
1108.0,0.001642
1109.0,0.001642
1110.0,0.00197
1111.0,0.001237
1112.0,0.001615
1113.0,0.0009431
1114.0,0.001066
1115.0,0.0008594
1116.0,0.0006566
1117.0,0.0002118
1118.0,0.0007197
1119.0,0.0003248
1120.0,0.0004157
1121.0,0.0005697
1122.0,0.0002158
1123.0,0.0003681
1124.0,0.000305
1125.0,0.0004089
1126.0,0.0001262
1127.0,0.0004633
1128.0,0.0002581
1129.0,0.0002752
1130.0,0.000173
1131.0,0.0009528
1132.0,0.0007184
1133.0,0.0004236
1134.0,9.403e-05
1135.0,3.388e-05
1136.0,0.0003406
1137.0,0.0009125
1138.0,0.0006121
1139.0,0.0009763
1140.0,0.000787
1141.0,0.0005725
1142.0,0.0006706
1143.0,0.001002
1144.0,0.0003017
1145.0,0.0003908
1146.0,0.0004228
1147.0,0.0001318
1148.0,0.0008348
1149.0,0.0006403
1150.0,0.0003206
1151.0,0.0005801
1152.0,0.0007369
1153.0,0.0007174
1154.0,0.0003656
1155.0,0.0009707
1156.0,0.0008552
1157.0,0.0009778
1158.0,0.0009626
1159.0,0.001054
1160.0,0.0008729
1161.0,0.001118
1162.0,0.001115
1163.0,0.001592
1164.0,0.001323
1165.0,0.001226
1166.0,0.001217
1167.0,0.001341
1168.0,0.001352
1169.0,0.001391
1170.0,0.001527
1171.0,0.001476
1172.0,0.001505
1173.0,0.001508
1174.0,0.001009
1175.0,0.001466
1176.0,0.001633
1177.0,0.001548
1178.0,0.001101
1179.0,0.001631
1180.0,0.001416
1181.0,0.001466
1182.0,0.0009457
1183.0,0.001441
1184.0,0.001323
1185.0,0.001261
1186.0,0.00154
1187.0,0.001448
1188.0,0.0009486
1189.0,0.001332
1190.0,0.001482
1191.0,0.001385
1192.0,0.001497
1193.0,0.001418
1194.0,0.001466
1195.0,0.00137
1196.0,0.001306
1197.0,0.001465
1198.0,0.001317
1199.0,0.001085
1200.0,0.001374
1201.0,0.00131
1202.0,0.0013
1203.0,0.001293
1204.0,0.001096
1205.0,0.001328
1206.0,0.001491
1207.0,0.00128
1208.0,0.001265
1209.0,0.001287
1210.0,0.001346
1211.0,0.001265
1212.0,0.001239
1213.0,0.001406
1214.0,0.001268
1215.0,0.001235
1216.0,0.001388
1217.0,0.00134
1218.0,0.001367
1219.0,0.001344
1220.0,0.00136
1221.0,0.001373
1222.0,0.001327
1223.0,0.001309
1224.0,0.001294
1225.0,0.001347
1226.0,0.001354
1227.0,0.00123
1228.0,0.001355
1229.0,0.001342
1230.0,0.001312
1231.0,0.001353
1232.0,0.00134
1233.0,0.00128
1234.0,0.001341
1235.0,0.001327
1236.0,0.001333
1237.0,0.001307
1238.0,0.00132
1239.0,0.001299
1240.0,0.0013
1241.0,0.001287
1242.0,0.001282
1243.0,0.001268
1244.0,0.001272
1245.0,0.001273
1246.0,0.001262
1247.0,0.001252
1248.0,0.001246
1249.0,0.001247
1250.0,0.001235
1251.0,0.001214
1252.0,0.001212
1253.0,0.001195
1254.0,0.001177
1255.0,0.001198
1256.0,0.001155
1257.0,0.001144
1258.0,0.001166
1259.0,0.001111
1260.0,0.001115
1261.0,0.001038
1262.0,0.0009984
1263.0,0.0009971
1264.0,0.000905
1265.0,0.0009854
1266.0,0.0009378
1267.0,0.0009566
1268.0,0.0008961
1269.0,0.0005081
1270.0,0.0009434
1271.0,0.001008
1272.0,0.001009
1273.0,0.0009942
1274.0,0.0009957
1275.0,0.001009
1276.0,0.001018
1277.0,0.001023
1278.0,0.001044
1279.0,0.001031
1280.0,0.001015
1281.0,0.0009676
1282.0,0.0009327
1283.0,0.001001
1284.0,0.001021
1285.0,0.001025
1286.0,0.001037
1287.0,0.001014
1288.0,0.001012
1289.0,0.0009701
1290.0,0.0009969
1291.0,0.001009
1292.0,0.0009318
1293.0,0.0009792
1294.0,0.0009684
1295.0,0.0009587
1296.0,0.0009039
1297.0,0.0008446
1298.0,0.00092
1299.0,0.0009633
1300.0,0.0007871
1301.0,0.0008144
1302.0,0.0009069
1303.0,0.0007706
1304.0,0.0006354
1305.0,0.0008765
1306.0,0.0008738
1307.0,0.0006461
1308.0,0.0007601
1309.0,0.0008581
1310.0,0.0006264
1311.0,0.0007171
1312.0,0.000695
1313.0,0.0006755
1314.0,0.0005901
1315.0,0.0005817
1316.0,0.0006942
1317.0,0.0006488
1318.0,0.0007146
1319.0,0.0005311
1320.0,0.0005113
1321.0,0.0006099
1322.0,0.0006142
1323.0,0.0004383
1324.0,0.0005118
1325.0,0.0006637
1326.0,0.0005526
1327.0,0.000521
1328.0,0.0004375
1329.0,0.0003129
1330.0,0.0004216
1331.0,0.0002349
1332.0,0.0002438
1333.0,0.0003531
1334.0,0.0002928
1335.0,0.0004213
1336.0,0.0003198
1337.0,0.0002768
1338.0,0.0003018
1339.0,0.0003002
1340.0,0.0002904
1341.0,0.0002801
1342.0,0.0002953
1343.0,0.0001873
1344.0,0.0001064
1345.0,0.0001587
1346.0,7.259e-05
1347.0,7.344e-05
1348.0,4.2e-06
1349.0,1.558e-05
1350.0,1.621e-05
1351.0,3.759e-06
1352.0,9.939e-07
1353.0,5.005e-08
1354.0,1.725e-07
1355.0,1.382e-09
1356.0,2.422e-08
1357.0,3.682e-08
1358.0,1.623e-09
1359.0,2.044e-10
1360.0,7.387e-10
1361.0,8.261e-13
1362.0,2.26e-15
1363.0,9.932e-10
