interpolation:linear
wavelength,value
280.0,5.258e-23
280.5,1.768e-21
281.0,9.574e-21
281.5,3.111e-19
282.0,4.975e-19
282.5,1.16e-18
283.0,3.58e-18
283.5,5.811e-18
284.0,9.515e-17
284.5,2.792e-16
285.0,6.86e-16
285.5,2.927e-15
286.0,1.149e-14
286.5,4.991e-14
287.0,1.414e-13
287.5,5.397e-13
288.0,1.747e-12
288.5,4.987e-12
289.0,1.287e-11
289.5,3.816e-11
290.0,1.053e-10
290.5,2.145e-10
291.0,4.608e-10
291.5,1.327e-09
292.0,2.718e-09
292.5,3.781e-09
293.0,8.027e-09
293.5,1.93e-08
294.0,3.008e-08
294.5,3.717e-08
295.0,6.251e-08
295.5,1.06e-07
296.0,1.989e-07
296.5,2.699e-07
297.0,3.556e-07
297.5,9.142e-07
298.0,1.385e-06
298.5,1.348e-06
299.0,2.873e-06
299.5,4.475e-06
300.0,4.735e-06
300.5,6.579e-06
301.0,1.109e-05
301.5,1.651e-05
302.0,1.361e-05
302.5,2.605e-05
303.0,4.541e-05
303.5,5.663e-05
304.0,5.407e-05
304.5,8.456e-05
305.0,0.0001379
305.5,0.0001661
306.0,0.0001639
306.5,0.0002111
307.0,0.0003391
307.5,0.0004887
308.0,0.0005227
308.5,0.000643
309.0,0.0007169
309.5,0.0009978
310.0,0.001097
310.5,0.001858
311.0,0.002511
311.5,0.002501
312.0,0.002938
312.5,0.003978
313.0,0.004562
313.5,0.0042
314.0,0.005972
314.5,0.00629
315.0,0.008516
315.5,0.006541
316.0,0.00657
316.5,0.01065
317.0,0.01318
317.5,0.01323
318.0,0.0112
318.5,0.01632
319.0,0.02099
319.5,0.01499
320.0,0.01774
320.5,0.02615
321.0,0.02702
321.5,0.02626
322.0,0.02381
322.5,0.02086
323.0,0.02304
323.5,0.03293
324.0,0.03913
324.5,0.03779
325.0,0.02939
325.5,0.04112
326.0,0.05448
326.5,0.05795
327.0,0.05639
327.5,0.05284
328.0,0.04325
328.5,0.05019
329.0,0.06493
329.5,0.07539
330.0,0.07451
330.5,0.05605
331.0,0.05587
331.5,0.05933
332.0,0.06834
332.5,0.06955
333.0,0.06809
333.5,0.05865
334.0,0.05954
334.5,0.07248
335.0,0.07023
335.5,0.08329
336.0,0.05757
336.5,0.06519
337.0,0.05219
337.5,0.06429
338.0,0.0656
338.5,0.07732
339.0,0.07663
339.5,0.07351
340.0,0.08452
340.5,0.07644
341.0,0.07578
341.5,0.06982
342.0,0.08346
342.5,0.07811
343.0,0.08553
343.5,0.08029
344.0,0.05824
344.5,0.0596
345.0,0.07917
345.5,0.08093
346.0,0.06882
346.5,0.07792
347.0,0.08331
347.5,0.06722
348.0,0.07679
348.5,0.07682
349.0,0.07125
349.5,0.07043
350.0,0.08703
350.5,0.09168
351.0,0.08165
351.5,0.07893
352.0,0.08488
352.5,0.0663
353.0,0.08352
353.5,0.08928
354.0,0.09263
354.5,0.09382
355.0,0.09331
355.5,0.08423
356.0,0.08806
356.5,0.0751
357.0,0.06196
357.5,0.07577
358.0,0.05999
358.5,0.0512
359.0,0.07149
359.5,0.09085
360.0,0.09621
360.5,0.07684
361.0,0.06999
361.5,0.08051
362.0,0.06955
362.5,0.09613
363.0,0.08623
363.5,0.07931
364.0,0.09687
364.5,0.08267
365.0,0.08407
365.5,0.1054
366.0,0.1115
366.5,0.1046
367.0,0.1018
367.5,0.1054
368.0,0.09213
368.5,0.09282
369.0,0.1001
369.5,0.1065
370.0,0.1134
370.5,0.0879
371.0,0.09379
371.5,0.1172
372.0,0.07764
372.5,0.09296
373.0,0.09442
373.5,0.06133
374.0,0.08899
374.5,0.07358
375.0,0.07142
375.5,0.1065
376.0,0.08811
376.5,0.09117
377.0,0.09638
377.5,0.1126
378.0,0.1218
378.5,0.115
379.0,0.09471
379.5,0.08636
380.0,0.08964
380.5,0.1084
381.0,0.1084
381.5,0.08581
382.0,0.07608
382.5,0.06475
383.0,0.05984
383.5,0.05754
384.0,0.06337
384.5,0.09305
385.0,0.09212
385.5,0.08565
386.0,0.07323
386.5,0.09602
387.0,0.07965
387.5,0.0893
388.0,0.0823
388.5,0.08121
389.0,0.08751
389.5,0.1058
390.0,0.106
390.5,0.09736
391.0,0.1144
391.5,0.1165
392.0,0.09792
392.5,0.0875
393.0,0.0486
393.5,0.03526
394.0,0.07163
394.5,0.0909
395.0,0.1107
395.5,0.1123
396.0,0.09714
396.5,0.05669
397.0,0.04246
397.5,0.08619
398.0,0.1205
398.5,0.1243
399.0,0.1343
399.5,0.1336
400.0,0.1385
401.0,0.1363
402.0,0.1432
403.0,0.1355
404.0,0.1329
405.0,0.1323
406.0,0.1296
407.0,0.127
408.0,0.1313
409.0,0.14
410.0,0.1218
411.0,0.1314
412.0,0.1405
413.0,0.1365
414.0,0.1376
415.0,0.1373
416.0,0.139
417.0,0.135
418.0,0.1319
419.0,0.133
420.0,0.1318
421.0,0.1372
422.0,0.1298
423.0,0.1261
424.0,0.1326
425.0,0.1317
426.0,0.1277
427.0,0.1248
428.0,0.121
429.0,0.1142
430.0,0.09943
431.0,0.09802
432.0,0.1259
433.0,0.1259
434.0,0.1163
435.0,0.1209
436.0,0.1356
437.0,0.1331
438.0,0.1205
439.0,0.1239
440.0,0.127
441.0,0.1308
442.0,0.1394
443.0,0.1351
444.0,0.1374
445.0,0.1339
446.0,0.1273
447.0,0.137
448.0,0.1383
449.0,0.1379
450.0,0.1409
451.0,0.1453
452.0,0.1393
453.0,0.1304
454.0,0.1355
455.0,0.1354
456.0,0.1377
457.0,0.139
458.0,0.1332
459.0,0.1315
460.0,0.1308
461.0,0.1329
462.0,0.1332
463.0,0.1318
464.0,0.1292
465.0,0.1272
466.0,0.1278
467.0,0.1247
468.0,0.1253
469.0,0.125
470.0,0.1202
471.0,0.1194
472.0,0.1252
473.0,0.1229
474.0,0.1223
475.0,0.1224
476.0,0.1177
477.0,0.117
478.0,0.1192
479.0,0.1173
480.0,0.1164
481.0,0.1176
482.0,0.1174
483.0,0.1154
484.0,0.1126
485.0,0.1069
486.0,0.09318
487.0,0.09723
488.0,0.106
489.0,0.1056
490.0,0.1103
491.0,0.1077
492.0,0.101
493.0,0.1037
494.0,0.1042
495.0,0.1044
496.0,0.1043
497.0,0.1051
498.0,0.09924
499.0,0.09949
500.0,0.09559
501.0,0.09284
502.0,0.0905
503.0,0.09317
504.0,0.08986
505.0,0.09248
506.0,0.09491
507.0,0.08988
508.0,0.08679
509.0,0.08887
510.0,0.08801
511.0,0.08988
512.0,0.09026
513.0,0.08479
514.0,0.08354
515.0,0.08206
516.0,0.08123
517.0,0.07165
518.0,0.07478
519.0,0.07785
520.0,0.08003
521.0,0.0801
522.0,0.07944
523.0,0.07738
524.0,0.07935
525.0,0.07943
526.0,0.07512
527.0,0.07001
528.0,0.07324
529.0,0.07646
530.0,0.07467
531.0,0.07508
532.0,0.0719
533.0,0.0693
534.0,0.07089
535.0,0.07204
536.0,0.07229
537.0,0.06904
538.0,0.06981
539.0,0.06875
540.0,0.06542
541.0,0.06529
542.0,0.06673
543.0,0.06549
544.0,0.0661
545.0,0.06543
546.0,0.0652
547.0,0.06471
548.0,0.0635
549.0,0.06327
550.0,0.06357
551.0,0.06235
552.0,0.06233
553.0,0.06076
554.0,0.06174
555.0,0.06138
556.0,0.06008
557.0,0.0577
558.0,0.05671
559.0,0.05509
560.0,0.05523
561.0,0.0554
562.0,0.05444
563.0,0.05539
564.0,0.05341
565.0,0.05249
566.0,0.05129
567.0,0.05181
568.0,0.05088
569.0,0.04916
570.0,0.04879
571.0,0.04814
572.0,0.04883
573.0,0.04901
574.0,0.04855
575.0,0.04735
576.0,0.04669
577.0,0.04699
578.0,0.04612
579.0,0.04617
580.0,0.04694
581.0,0.04706
582.0,0.0478
583.0,0.04776
584.0,0.048
585.0,0.04662
586.0,0.04541
587.0,0.0461
588.0,0.04459
589.0,0.039
590.0,0.04055
591.0,0.04278
592.0,0.04183
593.0,0.04222
594.0,0.04151
595.0,0.04003
596.0,0.04148
597.0,0.04062
598.0,0.04022
599.0,0.03995
600.0,0.03975
601.0,0.0392
602.0,0.03871
603.0,0.03916
604.0,0.03963
605.0,0.03928
606.0,0.03901
607.0,0.03931
608.0,0.03879
609.0,0.03878
610.0,0.03844
611.0,0.03857
612.0,0.03838
613.0,0.03782
614.0,0.03722
615.0,0.03795
616.0,0.03662
617.0,0.03645
618.0,0.03775
619.0,0.03725
620.0,0.03736
621.0,0.03724
622.0,0.03665
623.0,0.03594
624.0,0.03519
625.0,0.03499
626.0,0.03538
627.0,0.03559
628.0,0.03253
629.0,0.03428
630.0,0.03335
631.0,0.03418
632.0,0.0337
633.0,0.03471
634.0,0.03433
635.0,0.03479
636.0,0.03426
637.0,0.03474
638.0,0.03502
639.0,0.03455
640.0,0.03414
641.0,0.03403
642.0,0.03381
643.0,0.03417
644.0,0.03398
645.0,0.0339
646.0,0.03291
647.0,0.03225
648.0,0.03217
649.0,0.0314
650.0,0.03165
651.0,0.03293
652.0,0.03123
653.0,0.03227
654.0,0.03181
655.0,0.0304
656.0,0.02692
657.0,0.02757
658.0,0.03086
659.0,0.031
660.0,0.03102
661.0,0.03113
662.0,0.03106
663.0,0.03035
664.0,0.03066
665.0,0.03061
666.0,0.03055
667.0,0.03045
668.0,0.03038
669.0,0.03076
670.0,0.03052
671.0,0.03042
672.0,0.03008
673.0,0.03045
674.0,0.03023
675.0,0.02986
676.0,0.02996
677.0,0.02957
678.0,0.02956
679.0,0.02898
680.0,0.02911
681.0,0.0288
682.0,0.02864
683.0,0.02847
684.0,0.0282
685.0,0.02833
686.0,0.02804
687.0,0.01684
688.0,0.02022
689.0,0.02024
690.0,0.0214
691.0,0.02278
692.0,0.02383
693.0,0.02353
694.0,0.02329
695.0,0.02442
696.0,0.02437
697.0,0.02611
698.0,0.0256
699.0,0.02466
700.0,0.02425
701.0,0.02383
702.0,0.02399
703.0,0.02396
704.0,0.02475
705.0,0.02467
706.0,0.02459
707.0,0.02453
708.0,0.02446
709.0,0.02448
710.0,0.02431
711.0,0.02423
712.0,0.02411
713.0,0.02371
714.0,0.02369
715.0,0.02274
716.0,0.02264
717.0,0.01885
718.0,0.01715
719.0,0.01555
720.0,0.0162
721.0,0.01817
722.0,0.02121
723.0,0.01941
724.0,0.01712
725.0,0.01673
726.0,0.01749
727.0,0.01778
728.0,0.01646
729.0,0.01722
730.0,0.01813
731.0,0.01721
732.0,0.01858
733.0,0.01982
734.0,0.02027
735.0,0.01972
736.0,0.01959
737.0,0.01958
738.0,0.01998
739.0,0.0195
740.0,0.01997
741.0,0.01971
742.0,0.01967
743.0,0.02007
744.0,0.01993
745.0,0.01986
746.0,0.01985
747.0,0.01981
748.0,0.01967
749.0,0.01936
750.0,0.01927
751.0,0.01901
752.0,0.01902
753.0,0.01905
754.0,0.01901
755.0,0.01883
756.0,0.01875
757.0,0.01869
758.0,0.01838
759.0,0.0178
760.0,0.002553
761.0,0.001356
762.0,0.007827
763.0,0.003818
764.0,0.005732
765.0,0.007714
766.0,0.009709
767.0,0.01271
768.0,0.01524
769.0,0.01566
770.0,0.01633
771.0,0.01648
772.0,0.01647
773.0,0.0165
774.0,0.01633
775.0,0.01613
776.0,0.01624
777.0,0.01594
778.0,0.01576
779.0,0.01569
780.0,0.01553
781.0,0.01548
782.0,0.01553
783.0,0.0152
784.0,0.01522
785.0,0.01504
786.0,0.01515
787.0,0.01474
788.0,0.01446
789.0,0.01439
790.0,0.01384
791.0,0.01401
792.0,0.01386
793.0,0.01357
794.0,0.01385
795.0,0.014
796.0,0.01336
797.0,0.0133
798.0,0.01378
799.0,0.01361
800.0,0.01327
801.0,0.01314
802.0,0.01303
803.0,0.01286
804.0,0.01283
805.0,0.01278
806.0,0.01314
807.0,0.0129
808.0,0.01286
809.0,0.01249
810.0,0.01229
811.0,0.0122
812.0,0.01167
813.0,0.01134
814.0,0.00968
815.0,0.009587
816.0,0.008805
817.0,0.00894
818.0,0.008528
819.0,0.009694
820.0,0.009022
821.0,0.01085
822.0,0.01044
823.0,0.006621
824.0,0.009951
825.0,0.01049
826.0,0.009945
827.0,0.01058
828.0,0.008627
829.0,0.009792
830.0,0.009606
831.0,0.009602
832.0,0.00921
833.0,0.009923
834.0,0.009447
835.0,0.01056
836.0,0.009904
837.0,0.0105
838.0,0.01005
839.0,0.01025
840.0,0.01044
841.0,0.01022
842.0,0.01024
843.0,0.01024
844.0,0.01002
845.0,0.01035
846.0,0.01027
847.0,0.01004
848.0,0.009907
849.0,0.009577
850.0,0.009131
851.0,0.009591
852.0,0.009485
853.0,0.009102
854.0,0.007809
855.0,0.008568
856.0,0.009318
857.0,0.009507
858.0,0.009396
859.0,0.009377
860.0,0.009363
861.0,0.009276
862.0,0.009394
863.0,0.009584
864.0,0.009072
865.0,0.008961
866.0,0.008026
867.0,0.008344
868.0,0.009045
869.0,0.008823
870.0,0.009039
871.0,0.00888
872.0,0.008814
873.0,0.00876
874.0,0.008619
875.0,0.008406
876.0,0.008455
877.0,0.008506
878.0,0.008558
879.0,0.008391
880.0,0.008177
881.0,0.008009
882.0,0.008144
883.0,0.008146
884.0,0.008068
885.0,0.008091
886.0,0.007643
887.0,0.00772
888.0,0.007785
889.0,0.007869
890.0,0.00773
891.0,0.007706
892.0,0.007409
893.0,0.007098
894.0,0.006718
895.0,0.006204
896.0,0.005761
897.0,0.004796
898.0,0.005277
899.0,0.003844
900.0,0.005433
901.0,0.004027
902.0,0.004856
903.0,0.004838
904.0,0.00639
905.0,0.006104
906.0,0.005642
907.0,0.004357
908.0,0.00447
909.0,0.004902
910.0,0.004189
911.0,0.004544
912.0,0.004741
913.0,0.004197
914.0,0.004163
915.0,0.004511
916.0,0.003749
917.0,0.00491
918.0,0.003814
919.0,0.004994
920.0,0.005113
921.0,0.005318
922.0,0.004626
923.0,0.005105
924.0,0.004685
925.0,0.00456
926.0,0.004586
927.0,0.005212
928.0,0.00355
929.0,0.003175
930.0,0.002399
931.0,0.002255
932.0,0.001562
933.0,0.001246
934.0,0.0006584
935.0,0.001274
936.0,0.0007726
937.0,0.0007792
938.0,0.0009607
939.0,0.002108
940.0,0.002583
941.0,0.001878
942.0,0.002193
943.0,0.001388
944.0,0.001484
945.0,0.001912
946.0,0.0009219
947.0,0.001896
948.0,0.001371
949.0,0.002596
950.0,0.0006558
951.0,0.002538
952.0,0.001285
953.0,0.001692
954.0,0.002122
955.0,0.001707
956.0,0.001689
957.0,0.001261
958.0,0.002453
959.0,0.001866
960.0,0.002096
961.0,0.0024
962.0,0.002255
963.0,0.002654
964.0,0.002397
965.0,0.002618
966.0,0.002609
967.0,0.002577
968.0,0.003725
969.0,0.003852
970.0,0.003484
971.0,0.004122
972.0,0.003883
973.0,0.003236
974.0,0.003046
975.0,0.003179
976.0,0.002945
977.0,0.003491
978.0,0.003239
979.0,0.003418
980.0,0.003172
981.0,0.003944
982.0,0.003706
983.0,0.003514
984.0,0.004084
985.0,0.003645
986.0,0.004166
987.0,0.004031
988.0,0.004009
989.0,0.004132
990.0,0.003951
991.0,0.004096
992.0,0.004111
993.0,0.003967
994.0,0.004087
995.0,0.004075
996.0,0.004035
997.0,0.004031
998.0,0.003995
999.0,0.003968
1000.0,0.003915
1001.0,0.003961
1002.0,0.00379
1003.0,0.003859
1004.0,0.003737
1005.0,0.003604
1006.0,0.003721
1007.0,0.00379
1008.0,0.003747
1009.0,0.003704
1010.0,0.00367
1011.0,0.003716
1012.0,0.00366
1013.0,0.003681
1014.0,0.003642
1015.0,0.003603
1016.0,0.003572
1017.0,0.003565
1018.0,0.003544
1019.0,0.003437
1020.0,0.003495
1021.0,0.00348
1022.0,0.003433
1023.0,0.003456
1024.0,0.003382
1025.0,0.003434
1026.0,0.003402
1027.0,0.003382
1028.0,0.003361
1029.0,0.003308
1030.0,0.003324
1031.0,0.003296
1032.0,0.003275
1033.0,0.003213
1034.0,0.003202
1035.0,0.003199
1036.0,0.003202
1037.0,0.003138
1038.0,0.00314
1039.0,0.003126
1040.0,0.003101
1041.0,0.0031
1042.0,0.003067
1043.0,0.003045
1044.0,0.003044
1045.0,0.00299
1046.0,0.002944
1047.0,0.002958
1048.0,0.002963
1049.0,0.002941
1050.0,0.002915
1051.0,0.002898
1052.0,0.002875
1053.0,0.00284
1054.0,0.002834
1055.0,0.002823
1056.0,0.0028
1057.0,0.002779
1058.0,0.002699
1059.0,0.00269
1060.0,0.002674
1061.0,0.00266
1062.0,0.002661
1063.0,0.002624
1064.0,0.002646
1065.0,0.002612
1066.0,0.002555
1067.0,0.002577
1068.0,0.002508
1069.0,0.002425
1070.0,0.002494
1071.0,0.002536
1072.0,0.002488
1073.0,0.002446
1074.0,0.002515
1075.0,0.002348
1076.0,0.002492
1077.0,0.002421
1078.0,0.002358
1079.0,0.002432
1080.0,0.002355
1081.0,0.002258
1082.0,0.002313
1083.0,0.00232
1084.0,0.002219
1085.0,0.002323
1086.0,0.002063
1087.0,0.002157
1088.0,0.00227
1089.0,0.002159
1090.0,0.002087
1091.0,0.002229
1092.0,0.002221
1093.0,0.001794
1094.0,0.002008
1095.0,0.001863
1096.0,0.001757
1097.0,0.002133
1098.0,0.001707
1099.0,0.001784
1100.0,0.001623
1101.0,0.001649
1102.0,0.001551
1103.0,0.001517
1104.0,0.001516
1105.0,0.001699
1106.0,0.001202
1107.0,0.001583
1108.0,0.001279
1109.0,0.001281
1110.0,0.001539
1111.0,0.0009629
1112.0,0.00126
1113.0,0.000739
1114.0,0.0008274
1115.0,0.0006747
1116.0,0.0005184
1117.0,0.0001788
1118.0,0.0005641
1119.0,0.0002665
1120.0,0.0003341
1121.0,0.0004476
1122.0,0.0001809
1123.0,0.0002986
1124.0,0.0002506
1125.0,0.0003288
1126.0,0.000109
1127.0,0.0003693
1128.0,0.0002134
1129.0,0.0002263
1130.0,0.000147
1131.0,0.0007247
1132.0,0.0005568
1133.0,0.000338
1134.0,8.235e-05
1135.0,3.084e-05
1136.0,0.0002756
1137.0,0.0006922
1138.0,0.0004781
1139.0,0.0007532
1140.0,0.0006092
1141.0,0.0004495
1142.0,0.000522
1143.0,0.0007636
1144.0,0.0002471
1145.0,0.0003123
1146.0,0.0003359
1147.0,0.0001131
1148.0,0.0006425
1149.0,0.0004992
1150.0,0.0002625
1151.0,0.0004535
1152.0,0.000569
1153.0,0.0005602
1154.0,0.0002941
1155.0,0.0007453
1156.0,0.0006585
1157.0,0.0007582
1158.0,0.0007465
1159.0,0.0008135
1160.0,0.000683
1161.0,0.0008731
1162.0,0.0008701
1163.0,0.001252
1164.0,0.001038
1165.0,0.0009547
1166.0,0.0009594
1167.0,0.001056
1168.0,0.001063
1169.0,0.001092
1170.0,0.001207
1171.0,0.001169
1172.0,0.001201
1173.0,0.001192
1174.0,0.0007949
1175.0,0.001169
1176.0,0.001316
1177.0,0.001236
1178.0,0.0008771
1179.0,0.001313
1180.0,0.001128
1181.0,0.001165
1182.0,0.0007495
1183.0,0.001147
1184.0,0.001051
1185.0,0.0009975
1186.0,0.001232
1187.0,0.001152
1188.0,0.0007441
1189.0,0.001061
1190.0,0.001189
1191.0,0.001096
1192.0,0.001202
1193.0,0.001135
1194.0,0.001176
1195.0,0.001088
1196.0,0.001033
1197.0,0.001175
1198.0,0.001059
1199.0,0.0008568
1200.0,0.001098
1201.0,0.00104
1202.0,0.001042
1203.0,0.001026
1204.0,0.000871
1205.0,0.001068
1206.0,0.001203
1207.0,0.00102
1208.0,0.001014
1209.0,0.001032
1210.0,0.001083
1211.0,0.001013
1212.0,0.0009771
1213.0,0.001127
1214.0,0.001002
1215.0,0.0009777
1216.0,0.001115
1217.0,0.001074
1218.0,0.001098
1219.0,0.001076
1220.0,0.001093
1221.0,0.001107
1222.0,0.001069
1223.0,0.001052
1224.0,0.001034
1225.0,0.001083
1226.0,0.001094
1227.0,0.0009825
1228.0,0.001096
1229.0,0.001084
1230.0,0.001057
1231.0,0.001098
1232.0,0.001087
1233.0,0.001029
1234.0,0.001091
1235.0,0.001077
1236.0,0.001084
1237.0,0.001059
1238.0,0.001074
1239.0,0.001056
1240.0,0.001058
1241.0,0.001044
1242.0,0.001043
1243.0,0.001031
1244.0,0.001034
1245.0,0.001036
1246.0,0.001027
1247.0,0.001018
1248.0,0.001011
1249.0,0.001014
1250.0,0.001003
1251.0,0.0009836
1252.0,0.0009846
1253.0,0.0009666
1254.0,0.0009487
1255.0,0.0009724
1256.0,0.0009295
1257.0,0.000919
1258.0,0.0009431
1259.0,0.0008875
1260.0,0.0008917
1261.0,0.000818
1262.0,0.0007809
1263.0,0.0007796
1264.0,0.0006968
1265.0,0.0007704
1266.0,0.0007264
1267.0,0.0007456
1268.0,0.0006915
1269.0,0.0003794
1270.0,0.000733
1271.0,0.0007947
1272.0,0.0007966
1273.0,0.0007834
1274.0,0.0007866
1275.0,0.0007991
1276.0,0.0008084
1277.0,0.0008166
1278.0,0.0008379
1279.0,0.0008278
1280.0,0.0008148
1281.0,0.0007792
1282.0,0.0007552
1283.0,0.0008094
1284.0,0.0008249
1285.0,0.000829
1286.0,0.0008412
1287.0,0.0008188
1288.0,0.0008183
1289.0,0.000777
1290.0,0.0008065
1291.0,0.0008175
1292.0,0.0007432
1293.0,0.0007912
1294.0,0.0007822
1295.0,0.0007687
1296.0,0.0007188
1297.0,0.0006685
1298.0,0.0007371
1299.0,0.0007793
1300.0,0.0006243
1301.0,0.0006467
1302.0,0.0007272
1303.0,0.0006122
1304.0,0.0004967
1305.0,0.0007028
1306.0,0.0006977
1307.0,0.0005091
1308.0,0.0006066
1309.0,0.0006815
1310.0,0.0004923
1311.0,0.0005701
1312.0,0.0005515
1313.0,0.0005319
1314.0,0.0004635
1315.0,0.0004541
1316.0,0.0005491
1317.0,0.0005127
1318.0,0.0005677
1319.0,0.0004148
1320.0,0.0004023
1321.0,0.0004799
1322.0,0.0004797
1323.0,0.0003401
1324.0,0.0004012
1325.0,0.0005225
1326.0,0.0004331
1327.0,0.0004077
1328.0,0.0003423
1329.0,0.0002439
1330.0,0.0003256
1331.0,0.0001846
1332.0,0.0001917
1333.0,0.0002703
1334.0,0.0002323
1335.0,0.0003252
1336.0,0.0002484
1337.0,0.0002175
1338.0,0.0002348
1339.0,0.0002338
1340.0,0.0002285
1341.0,0.0002171
1342.0,0.0002286
1343.0,0.0001476
1344.0,8.78e-05
1345.0,0.0001264
1346.0,6.102e-05
1347.0,6.172e-05
1348.0,3.959e-06
