interpolation:linear
wavelength,value
280.0,7.088999999999999e-22
280.5,2.298e-20
281.0,1.226e-19
281.5,5.142e-19
282.0,8.615e-19
282.5,2.131e-18
283.0,6.71e-18
283.5,1.09e-17
284.0,1.771e-16
284.5,5.136e-16
285.0,9.439e-16
285.5,4.608e-15
286.0,1.847e-14
286.5,8.223e-14
287.0,2.343e-13
287.5,8.957e-13
288.0,2.884e-12
288.5,8.883e-12
289.0,2.391e-11
289.5,7.268e-11
290.0,2.024e-10
290.5,4.135e-10
291.0,8.89e-10
291.5,2.554e-09
292.0,5.847e-09
292.5,8.191e-09
293.0,1.753e-08
293.5,4.253e-08
294.0,6.64e-08
294.5,8.79e-08
295.0,1.485e-07
295.5,2.968e-07
296.0,5.549e-07
296.5,7.931e-07
297.0,1.095e-06
297.5,3.044e-06
298.0,4.974e-06
298.5,5.164e-06
299.0,1.179e-05
299.5,2.107e-05
300.0,2.43e-05
300.5,3.72e-05
301.0,7.487e-05
301.5,0.0001342
302.0,0.0001231
302.5,0.0002441
303.0,0.0004477
303.5,0.0005739
304.0,0.0005514
304.5,0.0008766
305.0,0.001458
305.5,0.001772
306.0,0.001753
306.5,0.002268
307.0,0.00368
307.5,0.005345
308.0,0.005716
308.5,0.007049
309.0,0.007248
309.5,0.008649
310.0,0.008852
310.5,0.01445
311.0,0.01841
311.5,0.01786
312.0,0.01853
312.5,0.0231
313.0,0.02534
313.5,0.02422
314.0,0.03121
314.5,0.02887
315.0,0.03814
315.5,0.03111
316.0,0.02813
316.5,0.04164
317.0,0.05152
317.5,0.05295
318.0,0.04215
318.5,0.05461
319.0,0.06616
319.5,0.05178
320.0,0.06204
320.5,0.08118
321.0,0.07535
321.5,0.07236
322.0,0.07332
322.5,0.06375
323.0,0.06529
323.5,0.08226
324.0,0.09617
324.5,0.09629
325.0,0.08165
325.5,0.1074
326.0,0.1316
326.5,0.1334
327.0,0.1318
327.5,0.126
328.0,0.1098
328.5,0.1178
329.0,0.1436
329.5,0.1636
330.0,0.1637
330.5,0.1285
331.0,0.1298
331.5,0.1331
332.0,0.146
332.5,0.1453
333.0,0.1437
333.5,0.1279
334.0,0.1304
334.5,0.1524
335.0,0.1441
335.5,0.1696
336.0,0.1171
336.5,0.1346
337.0,0.1093
337.5,0.1352
338.0,0.1334
338.5,0.1551
339.0,0.1527
339.5,0.1467
340.0,0.1704
340.5,0.1534
341.0,0.1501
341.5,0.137
342.0,0.1631
342.5,0.152
343.0,0.167
343.5,0.157
344.0,0.1152
344.5,0.1169
345.0,0.1535
345.5,0.156
346.0,0.1321
346.5,0.1491
347.0,0.1598
347.5,0.1289
348.0,0.1462
348.5,0.1456
349.0,0.1347
349.5,0.1329
350.0,0.1639
350.5,0.1724
351.0,0.1536
351.5,0.1491
352.0,0.1594
352.5,0.1239
353.0,0.1556
353.5,0.1658
354.0,0.1716
354.5,0.1735
355.0,0.1724
355.5,0.1552
356.0,0.1619
356.5,0.1378
357.0,0.1135
357.5,0.1385
358.0,0.1094
358.5,0.09321
359.0,0.13
359.5,0.1651
360.0,0.1745
360.5,0.139
361.0,0.1263
361.5,0.145
362.0,0.125
362.5,0.1724
363.0,0.1544
363.5,0.1418
364.0,0.1728
364.5,0.1473
365.0,0.1495
365.5,0.187
366.0,0.1975
366.5,0.185
367.0,0.1796
367.5,0.1858
368.0,0.1621
368.5,0.163
369.0,0.1755
369.5,0.1864
370.0,0.1981
370.5,0.1533
371.0,0.1632
371.5,0.2036
372.0,0.1347
372.5,0.161
373.0,0.1632
373.5,0.1059
374.0,0.1533
374.5,0.1266
375.0,0.1226
375.5,0.1825
376.0,0.1508
376.5,0.1557
377.0,0.1644
377.5,0.1917
378.0,0.2071
378.5,0.195
379.0,0.1604
379.5,0.146
380.0,0.1513
380.5,0.1826
381.0,0.1823
381.5,0.1441
382.0,0.1275
382.5,0.1083
383.0,0.09993
383.5,0.09593
384.0,0.1055
384.5,0.1546
385.0,0.1528
385.5,0.1418
386.0,0.1211
386.5,0.1585
387.0,0.1313
387.5,0.1469
388.0,0.1352
388.5,0.1332
389.0,0.1433
389.5,0.1729
390.0,0.1729
390.5,0.1586
391.0,0.1861
391.5,0.1891
392.0,0.1587
392.5,0.1416
393.0,0.07853
393.5,0.05689
394.0,0.1154
394.5,0.1462
395.0,0.1778
395.5,0.18
396.0,0.1555
396.5,0.09061
397.0,0.06776
397.5,0.1373
398.0,0.1916
398.5,0.1974
399.0,0.2131
399.5,0.2116
400.0,0.219
401.0,0.2152
402.0,0.2254
403.0,0.2126
404.0,0.2079
405.0,0.2065
406.0,0.2017
407.0,0.197
408.0,0.2032
409.0,0.216
410.0,0.1875
411.0,0.2016
412.0,0.2151
413.0,0.2083
414.0,0.2094
415.0,0.2085
416.0,0.2106
417.0,0.2039
418.0,0.1987
419.0,0.1999
420.0,0.1975
421.0,0.2052
422.0,0.1935
423.0,0.1876
424.0,0.1969
425.0,0.1951
426.0,0.1887
427.0,0.1839
428.0,0.1779
429.0,0.1674
430.0,0.1455
431.0,0.1431
432.0,0.1834
433.0,0.183
434.0,0.1687
435.0,0.1749
436.0,0.1958
437.0,0.1918
438.0,0.1734
439.0,0.178
440.0,0.1823
441.0,0.1874
442.0,0.1994
443.0,0.1928
444.0,0.1957
445.0,0.1902
446.0,0.1803
447.0,0.1936
448.0,0.1951
449.0,0.1943
450.0,0.1982
451.0,0.204
452.0,0.1952
453.0,0.1823
454.0,0.189
455.0,0.1887
456.0,0.1917
457.0,0.1933
458.0,0.1851
459.0,0.1826
460.0,0.1816
461.0,0.1844
462.0,0.1845
463.0,0.1821
464.0,0.1781
465.0,0.1748
466.0,0.1753
467.0,0.1707
468.0,0.1713
469.0,0.1708
470.0,0.1641
471.0,0.1628
472.0,0.1704
473.0,0.1669
474.0,0.1659
475.0,0.166
476.0,0.1596
477.0,0.1587
478.0,0.1616
479.0,0.1592
480.0,0.1581
481.0,0.1595
482.0,0.1592
483.0,0.1562
484.0,0.152
485.0,0.1439
486.0,0.1251
487.0,0.1302
488.0,0.1417
489.0,0.1411
490.0,0.1472
491.0,0.1436
492.0,0.1346
493.0,0.138
494.0,0.1383
495.0,0.1385
496.0,0.1383
497.0,0.1393
498.0,0.1316
499.0,0.132
500.0,0.127
501.0,0.1234
502.0,0.1205
503.0,0.1242
504.0,0.1198
505.0,0.1232
506.0,0.1263
507.0,0.1194
508.0,0.115
509.0,0.1175
510.0,0.1162
511.0,0.1185
512.0,0.119
513.0,0.1117
514.0,0.1101
515.0,0.1082
516.0,0.1071
517.0,0.09448
518.0,0.0986
519.0,0.1026
520.0,0.1055
521.0,0.1057
522.0,0.1049
523.0,0.1022
524.0,0.105
525.0,0.1053
526.0,0.09975
527.0,0.09312
528.0,0.09759
529.0,0.102
530.0,0.09976
531.0,0.1004
532.0,0.09625
533.0,0.09277
534.0,0.09487
535.0,0.09633
536.0,0.09659
537.0,0.09217
538.0,0.09315
539.0,0.09175
540.0,0.08736
541.0,0.08725
542.0,0.08925
543.0,0.08764
544.0,0.08855
545.0,0.08771
546.0,0.08744
547.0,0.08677
548.0,0.08514
549.0,0.08482
550.0,0.08524
551.0,0.08361
552.0,0.08359
553.0,0.08151
554.0,0.08286
555.0,0.08242
556.0,0.08073
557.0,0.0776
558.0,0.07636
559.0,0.0743
560.0,0.0746
561.0,0.07493
562.0,0.07376
563.0,0.07515
564.0,0.07254
565.0,0.07138
566.0,0.0698
567.0,0.07056
568.0,0.06938
569.0,0.06715
570.0,0.06667
571.0,0.06581
572.0,0.06684
573.0,0.0671
574.0,0.06648
575.0,0.06484
576.0,0.06387
577.0,0.06421
578.0,0.06293
579.0,0.06289
580.0,0.06382
581.0,0.06385
582.0,0.06474
583.0,0.0646
584.0,0.06486
585.0,0.06294
586.0,0.06125
587.0,0.06216
588.0,0.06018
589.0,0.05277
590.0,0.05487
591.0,0.05783
592.0,0.05663
593.0,0.05714
594.0,0.05627
595.0,0.05441
596.0,0.05633
597.0,0.05528
598.0,0.05477
599.0,0.05443
600.0,0.05419
601.0,0.05344
602.0,0.05276
603.0,0.05333
604.0,0.05392
605.0,0.05338
606.0,0.05293
607.0,0.05323
608.0,0.05242
609.0,0.05228
610.0,0.05171
611.0,0.05177
612.0,0.05142
613.0,0.05055
614.0,0.04965
615.0,0.05053
616.0,0.04866
617.0,0.04836
618.0,0.05
619.0,0.04928
620.0,0.04935
621.0,0.04915
622.0,0.04832
623.0,0.04733
624.0,0.04629
625.0,0.04598
626.0,0.04646
627.0,0.04672
628.0,0.04295
629.0,0.045
630.0,0.04373
631.0,0.04466
632.0,0.04395
633.0,0.04517
634.0,0.04459
635.0,0.0451
636.0,0.04432
637.0,0.04487
638.0,0.04514
639.0,0.04446
640.0,0.04384
641.0,0.04363
642.0,0.04327
643.0,0.04368
644.0,0.04337
645.0,0.04322
646.0,0.04195
647.0,0.04115
648.0,0.04097
649.0,0.03998
650.0,0.04014
651.0,0.04171
652.0,0.0396
653.0,0.04078
654.0,0.04016
655.0,0.03838
656.0,0.03392
657.0,0.0347
658.0,0.03877
659.0,0.03889
660.0,0.03888
661.0,0.03897
662.0,0.03885
663.0,0.03793
664.0,0.03825
665.0,0.03814
666.0,0.03801
667.0,0.03783
668.0,0.0377
669.0,0.03812
670.0,0.03778
671.0,0.03761
672.0,0.03716
673.0,0.03759
674.0,0.03728
675.0,0.03677
676.0,0.03686
677.0,0.03636
678.0,0.03632
679.0,0.03558
680.0,0.0357
681.0,0.0353
682.0,0.03509
683.0,0.03486
684.0,0.03451
685.0,0.03464
686.0,0.03427
687.0,0.02118
688.0,0.02532
689.0,0.02531
690.0,0.02665
691.0,0.02821
692.0,0.02935
693.0,0.02895
694.0,0.02855
695.0,0.0298
696.0,0.02969
697.0,0.03171
698.0,0.03107
699.0,0.02999
700.0,0.02948
701.0,0.02901
702.0,0.02915
703.0,0.02907
704.0,0.02996
705.0,0.02986
706.0,0.02974
707.0,0.02964
708.0,0.02956
709.0,0.02952
710.0,0.02934
711.0,0.02922
712.0,0.02906
713.0,0.0286
714.0,0.02856
715.0,0.02744
716.0,0.02732
717.0,0.02297
718.0,0.02083
719.0,0.01884
720.0,0.01969
721.0,0.022
722.0,0.02559
723.0,0.02342
724.0,0.0207
725.0,0.02023
726.0,0.02118
727.0,0.02145
728.0,0.0199
729.0,0.02074
730.0,0.02191
731.0,0.02077
732.0,0.02235
733.0,0.02379
734.0,0.02429
735.0,0.02364
736.0,0.02351
737.0,0.02348
738.0,0.02388
739.0,0.02328
740.0,0.02382
741.0,0.02349
742.0,0.02342
743.0,0.0239
744.0,0.02372
745.0,0.02362
746.0,0.02361
747.0,0.02356
748.0,0.02339
749.0,0.02301
750.0,0.02289
751.0,0.02257
752.0,0.02257
753.0,0.02258
754.0,0.02252
755.0,0.0223
756.0,0.02219
757.0,0.02213
758.0,0.02174
759.0,0.02112
760.0,0.002893
761.0,0.001495
762.0,0.009525
763.0,0.004436
764.0,0.00685
765.0,0.00938
766.0,0.01188
767.0,0.01545
768.0,0.01825
769.0,0.01867
770.0,0.01936
771.0,0.01949
772.0,0.01946
773.0,0.01949
774.0,0.0193
775.0,0.01906
776.0,0.0192
777.0,0.01885
778.0,0.01864
779.0,0.01856
780.0,0.01837
781.0,0.01831
782.0,0.01834
783.0,0.01795
784.0,0.01796
785.0,0.01775
786.0,0.01786
787.0,0.01742
788.0,0.0171
789.0,0.017
790.0,0.01639
791.0,0.01654
792.0,0.01635
793.0,0.016
794.0,0.01629
795.0,0.01647
796.0,0.01577
797.0,0.01573
798.0,0.01622
799.0,0.01602
800.0,0.01564
801.0,0.0155
802.0,0.01538
803.0,0.01518
804.0,0.01514
805.0,0.01506
806.0,0.01546
807.0,0.01518
808.0,0.01513
809.0,0.01474
810.0,0.01451
811.0,0.01442
812.0,0.01386
813.0,0.01346
814.0,0.01153
815.0,0.01141
816.0,0.01046
817.0,0.01064
818.0,0.01016
819.0,0.01153
820.0,0.01072
821.0,0.01283
822.0,0.01235
823.0,0.007851
824.0,0.0118
825.0,0.01236
826.0,0.01174
827.0,0.01246
828.0,0.01023
829.0,0.01154
830.0,0.01132
831.0,0.01132
832.0,0.01086
833.0,0.0117
834.0,0.01115
835.0,0.01239
836.0,0.01168
837.0,0.01232
838.0,0.01183
839.0,0.01204
840.0,0.01226
841.0,0.01201
842.0,0.01201
843.0,0.01199
844.0,0.01175
845.0,0.01212
846.0,0.01201
847.0,0.01175
848.0,0.0116
849.0,0.01122
850.0,0.0107
851.0,0.01126
852.0,0.01113
853.0,0.01068
854.0,0.009166
855.0,0.01004
856.0,0.01093
857.0,0.01114
858.0,0.01101
859.0,0.01098
860.0,0.01096
861.0,0.01085
862.0,0.01098
863.0,0.0112
864.0,0.0106
865.0,0.01047
866.0,0.009372
867.0,0.009741
868.0,0.01056
869.0,0.0103
870.0,0.01055
871.0,0.01036
872.0,0.01028
873.0,0.01022
874.0,0.01005
875.0,0.009802
876.0,0.00986
877.0,0.009919
878.0,0.009981
879.0,0.009787
880.0,0.009537
881.0,0.009348
882.0,0.00951
883.0,0.009508
884.0,0.009419
885.0,0.009446
886.0,0.00894
887.0,0.009018
888.0,0.0091
889.0,0.009187
890.0,0.009041
891.0,0.009005
892.0,0.008678
893.0,0.008324
894.0,0.007916
895.0,0.007348
896.0,0.006809
897.0,0.005676
898.0,0.006258
899.0,0.004536
900.0,0.006427
901.0,0.004776
902.0,0.005757
903.0,0.005748
904.0,0.007536
905.0,0.007197
906.0,0.006656
907.0,0.005166
908.0,0.005285
909.0,0.005806
910.0,0.004966
911.0,0.005357
912.0,0.005618
913.0,0.004977
914.0,0.004926
915.0,0.005376
916.0,0.004427
917.0,0.005836
918.0,0.004519
919.0,0.005919
920.0,0.00601
921.0,0.006286
922.0,0.005473
923.0,0.006027
924.0,0.00557
925.0,0.005411
926.0,0.005462
927.0,0.006203
928.0,0.00424
929.0,0.003792
930.0,0.00285
931.0,0.002678
932.0,0.001831
933.0,0.001444
934.0,0.0007381
935.0,0.001481
936.0,0.0008768
937.0,0.000884
938.0,0.001102
939.0,0.002506
940.0,0.003092
941.0,0.00223
942.0,0.002623
943.0,0.001626
944.0,0.001737
945.0,0.002268
946.0,0.001059
947.0,0.00225
948.0,0.001598
949.0,0.003118
950.0,0.0007395
951.0,0.003052
952.0,0.001497
953.0,0.001997
954.0,0.002531
955.0,0.002018
956.0,0.001964
957.0,0.001469
958.0,0.002908
959.0,0.002202
960.0,0.002491
961.0,0.002853
962.0,0.002671
963.0,0.003151
964.0,0.002836
965.0,0.003116
966.0,0.003101
967.0,0.003067
968.0,0.004388
969.0,0.004578
970.0,0.004124
971.0,0.004857
972.0,0.004582
973.0,0.003843
974.0,0.003607
975.0,0.003763
976.0,0.003506
977.0,0.004112
978.0,0.003836
979.0,0.00405
980.0,0.003747
981.0,0.004648
982.0,0.004376
983.0,0.004153
984.0,0.004791
985.0,0.004312
986.0,0.004871
987.0,0.004723
988.0,0.004695
989.0,0.00482
990.0,0.004633
991.0,0.004786
992.0,0.0048
993.0,0.004643
994.0,0.004768
995.0,0.00475
996.0,0.004706
997.0,0.004698
998.0,0.004657
999.0,0.004624
1000.0,0.004567
1001.0,0.004616
1002.0,0.004437
1003.0,0.004498
1004.0,0.004361
1005.0,0.004197
1006.0,0.004337
1007.0,0.004416
1008.0,0.004369
1009.0,0.004323
1010.0,0.004285
1011.0,0.004329
1012.0,0.004267
1013.0,0.004288
1014.0,0.004242
1015.0,0.004197
1016.0,0.004161
1017.0,0.004154
1018.0,0.004126
1019.0,0.00401
1020.0,0.004071
1021.0,0.004052
1022.0,0.004
1023.0,0.004027
1024.0,0.003948
1025.0,0.003999
1026.0,0.003963
1027.0,0.003939
1028.0,0.003916
1029.0,0.003855
1030.0,0.003871
1031.0,0.003839
1032.0,0.003814
1033.0,0.003742
1034.0,0.003728
1035.0,0.003725
1036.0,0.003729
1037.0,0.003655
1038.0,0.003658
1039.0,0.003642
1040.0,0.003613
1041.0,0.003613
1042.0,0.003574
1043.0,0.003549
1044.0,0.003548
1045.0,0.003486
1046.0,0.003433
1047.0,0.003451
1048.0,0.003457
1049.0,0.003431
1050.0,0.003402
1051.0,0.003383
1052.0,0.003356
1053.0,0.003317
1054.0,0.003311
1055.0,0.003299
1056.0,0.003273
1057.0,0.003249
1058.0,0.003157
1059.0,0.003148
1060.0,0.003131
1061.0,0.003114
1062.0,0.003117
1063.0,0.003074
1064.0,0.003101
1065.0,0.003063
1066.0,0.002994
1067.0,0.003021
1068.0,0.002941
1069.0,0.002841
1070.0,0.002924
1071.0,0.002968
1072.0,0.002916
1073.0,0.002866
1074.0,0.00294
1075.0,0.002755
1076.0,0.002914
1077.0,0.002835
1078.0,0.002766
1079.0,0.002841
1080.0,0.002758
1081.0,0.002652
1082.0,0.002707
1083.0,0.002711
1084.0,0.002607
1085.0,0.002721
1086.0,0.002424
1087.0,0.002532
1088.0,0.002653
1089.0,0.002538
1090.0,0.002452
1091.0,0.002608
1092.0,0.002598
1093.0,0.002117
1094.0,0.002352
1095.0,0.002206
1096.0,0.002081
1097.0,0.002496
1098.0,0.002028
1099.0,0.002119
1100.0,0.001928
1101.0,0.001956
1102.0,0.001845
1103.0,0.001807
1104.0,0.001805
1105.0,0.002019
1106.0,0.001438
1107.0,0.001882
1108.0,0.001526
1109.0,0.001529
1110.0,0.001838
1111.0,0.001148
1112.0,0.001504
1113.0,0.0008736
1114.0,0.0009857
1115.0,0.0007972
1116.0,0.0006068
1117.0,0.0001979
1118.0,0.0006647
1119.0,0.0003022
1120.0,0.0003834
1121.0,0.0005229
1122.0,0.000201
1123.0,0.0003408
1124.0,0.0002838
1125.0,0.000378
1126.0,0.0001184
1127.0,0.0004271
1128.0,0.000239
1129.0,0.0002545
1130.0,0.0001617
1131.0,0.0008718
1132.0,0.0006601
1133.0,0.0003895
1134.0,8.878e-05
1135.0,3.266e-05
1136.0,0.0003137
1137.0,0.0008322
1138.0,0.0005634
1139.0,0.000903
1140.0,0.0007256
1141.0,0.0005279
1142.0,0.000618
1143.0,0.00092
1144.0,0.0002809
1145.0,0.0003597
1146.0,0.0003882
1147.0,0.0001232
1148.0,0.0007692
1149.0,0.0005902
1150.0,0.0002988
1151.0,0.000534
1152.0,0.0006782
1153.0,0.0006645
1154.0,0.000337
1155.0,0.0008962
1156.0,0.0007887
1157.0,0.0009054
1158.0,0.0008912
1159.0,0.0009773
1160.0,0.0008096
1161.0,0.00104
1162.0,0.001037
1163.0,0.00149
1164.0,0.001235
1165.0,0.001139
1166.0,0.001137
1167.0,0.001253
1168.0,0.001262
1169.0,0.001299
1170.0,0.00143
1171.0,0.001383
1172.0,0.001414
1173.0,0.001412
1174.0,0.0009395
1175.0,0.001377
1176.0,0.00154
1177.0,0.001455
1178.0,0.001031
1179.0,0.001538
1180.0,0.00133
1181.0,0.001376
1182.0,0.0008838
1183.0,0.001354
1184.0,0.001241
1185.0,0.00118
1186.0,0.001449
1187.0,0.00136
1188.0,0.0008838
1189.0,0.001251
1190.0,0.001396
1191.0,0.001298
1192.0,0.00141
1193.0,0.001334
1194.0,0.00138
1195.0,0.001286
1196.0,0.001223
1197.0,0.00138
1198.0,0.00124
1199.0,0.001015
1200.0,0.001292
1201.0,0.001229
1202.0,0.001223
1203.0,0.001213
1204.0,0.001027
1205.0,0.00125
1206.0,0.001407
1207.0,0.001201
1208.0,0.00119
1209.0,0.001212
1210.0,0.001269
1211.0,0.00119
1212.0,0.00116
1213.0,0.001324
1214.0,0.001188
1215.0,0.001157
1216.0,0.001308
1217.0,0.001262
1218.0,0.001288
1219.0,0.001265
1220.0,0.001282
1221.0,0.001295
1222.0,0.001251
1223.0,0.001233
1224.0,0.001217
1225.0,0.00127
1226.0,0.001278
1227.0,0.001157
1228.0,0.00128
1229.0,0.001266
1230.0,0.001237
1231.0,0.001279
1232.0,0.001267
1233.0,0.001206
1234.0,0.001269
1235.0,0.001255
1236.0,0.001261
1237.0,0.001234
1238.0,0.001249
1239.0,0.001229
1240.0,0.00123
1241.0,0.001217
1242.0,0.001213
1243.0,0.001199
1244.0,0.001203
1245.0,0.001205
1246.0,0.001194
1247.0,0.001185
1248.0,0.001178
1249.0,0.00118
1250.0,0.001168
1251.0,0.001147
1252.0,0.001146
1253.0,0.001129
1254.0,0.001111
1255.0,0.001133
1256.0,0.00109
1257.0,0.001078
1258.0,0.001102
1259.0,0.001046
1260.0,0.00105
1261.0,0.0009732
1262.0,0.0009338
1263.0,0.0009325
1264.0,0.0008418
1265.0,0.0009215
1266.0,0.0008743
1267.0,0.0008937
1268.0,0.0008342
1269.0,0.0004617
1270.0,0.0008804
1271.0,0.0009449
1272.0,0.0009467
1273.0,0.0009321
1274.0,0.0009342
1275.0,0.0009475
1276.0,0.0009565
1277.0,0.0009627
1278.0,0.0009842
1279.0,0.0009717
1280.0,0.0009567
1281.0,0.0009128
1282.0,0.0008813
1283.0,0.0009453
1284.0,0.0009638
1285.0,0.0009679
1286.0,0.0009805
1287.0,0.0009575
1288.0,0.0009555
1289.0,0.0009135
1290.0,0.0009416
1291.0,0.0009532
1292.0,0.000876
1293.0,0.0009244
1294.0,0.000914
1295.0,0.0009032
1296.0,0.000849
1297.0,0.0007917
1298.0,0.0008663
1299.0,0.0009098
1300.0,0.0007375
1301.0,0.000764
1302.0,0.000854
1303.0,0.0007228
1304.0,0.0005914
1305.0,0.0008253
1306.0,0.000822
1307.0,0.0006035
1308.0,0.0007142
1309.0,0.0008061
1310.0,0.0005848
1311.0,0.0006728
1312.0,0.000651
1313.0,0.0006317
1314.0,0.000551
1315.0,0.0005416
1316.0,0.00065
1317.0,0.0006074
1318.0,0.0006706
1319.0,0.0004939
1320.0,0.0004773
1321.0,0.0005698
1322.0,0.0005723
1323.0,0.000406
1324.0,0.0004765
1325.0,0.0006209
1326.0,0.0005151
1327.0,0.0004853
1328.0,0.0004071
1329.0,0.0002894
1330.0,0.0003893
1331.0,0.0002164
1332.0,0.0002254
1333.0,0.0003239
1334.0,0.0002725
1335.0,0.0003899
1336.0,0.0002956
1337.0,0.0002561
1338.0,0.0002783
1339.0,0.0002774
1340.0,0.0002696
1341.0,0.0002578
1342.0,0.0002717
1343.0,0.0001711
1344.0,9.915e-05
1345.0,0.0001459
1346.0,6.72e-05
1347.0,6.78e-05
1348.0,4.089e-06
1349.0,1.486e-05
1350.0,1.546e-05
1351.0,3.663e-06
1352.0,9.799e-07
1353.0,4.979e-08
1354.0,1.712e-07
1355.0,1.378e-09
1356.0,2.411e-08
1357.0,3.663e-08
1358.0,1.617e-09
1359.0,2.037e-10
1360.0,7.363e-10
1361.0,8.235e-13
