interpolation:linear
wavelength,value
280.0,3.7649999999999997e-23
280.5,1.272e-21
281.0,6.905e-21
281.5,2.254e-19
282.0,4.787e-19
282.5,1.094e-18
283.0,3.353e-18
283.5,5.437e-18
284.0,8.88e-17
284.5,2.608e-16
285.0,8.639e-16
285.5,3.22e-15
286.0,1.237e-14
286.5,5.22e-14
287.0,1.461e-13
287.5,5.522e-13
288.0,1.644e-12
288.5,4.661e-12
289.0,1.2e-11
289.5,3.553e-11
290.0,9.808e-11
290.5,2e-10
291.0,4.304e-10
291.5,1.241e-09
292.0,2.547e-09
292.5,3.539e-09
293.0,7.505e-09
293.5,1.802e-08
294.0,2.808e-08
294.5,3.34e-08
295.0,5.61e-08
295.5,9.438e-08
296.0,1.76e-07
296.5,2.375e-07
297.0,3.113e-07
297.5,7.941e-07
298.0,1.195e-06
298.5,1.157e-06
299.0,2.452e-06
299.5,3.784e-06
300.0,3.984e-06
300.5,5.507e-06
301.0,9.21e-06
301.5,1.361e-05
302.0,1.118e-05
302.5,2.122e-05
303.0,3.633e-05
303.5,4.48e-05
304.0,4.247e-05
304.5,6.525e-05
305.0,0.0001041
305.5,0.0001238
306.0,0.0001216
306.5,0.0001556
307.0,0.0002464
307.5,0.000351
308.0,0.0003748
308.5,0.0004588
309.0,0.0004713
309.5,0.0006651
310.0,0.0007365
310.5,0.001252
311.0,0.001702
311.5,0.001701
312.0,0.002026
312.5,0.002771
313.0,0.003195
313.5,0.002927
314.0,0.004215
314.5,0.004516
315.0,0.006135
315.5,0.004674
316.0,0.004763
316.5,0.00782
317.0,0.009677
317.5,0.009681
318.0,0.008275
318.5,0.01227
319.0,0.01593
319.5,0.01121
320.0,0.01324
320.5,0.01989
321.0,0.0209
321.5,0.02036
322.0,0.01813
322.5,0.0159
323.0,0.01777
323.5,0.02663
324.0,0.03177
324.5,0.0304
325.0,0.02274
325.5,0.03214
326.0,0.04439
326.5,0.04777
327.0,0.0463
327.5,0.04317
328.0,0.03476
328.5,0.04114
329.0,0.05398
329.5,0.06295
330.0,0.06203
330.5,0.04618
331.0,0.04587
331.5,0.04912
332.0,0.05721
332.5,0.05852
333.0,0.05715
333.5,0.04885
334.0,0.04953
334.5,0.06086
335.0,0.05928
335.5,0.07061
336.0,0.04881
336.5,0.05493
337.0,0.04383
337.5,0.05392
338.0,0.05544
338.5,0.0657
339.0,0.06518
339.5,0.06251
340.0,0.07152
340.5,0.06475
341.0,0.06451
341.5,0.05954
342.0,0.07122
342.5,0.06669
343.0,0.07299
343.5,0.06849
344.0,0.04944
344.5,0.05081
345.0,0.06763
345.5,0.0692
346.0,0.05888
346.5,0.0667
347.0,0.07129
347.5,0.05752
348.0,0.06579
348.5,0.06587
349.0,0.06112
349.5,0.06042
350.0,0.0747
350.5,0.0787
351.0,0.07009
351.5,0.0677
352.0,0.07287
352.5,0.05697
353.0,0.07181
353.5,0.0768
354.0,0.07972
354.5,0.08076
355.0,0.08034
355.5,0.07255
356.0,0.07588
356.5,0.06473
357.0,0.05342
357.5,0.06535
358.0,0.05176
358.5,0.04419
359.0,0.06172
359.5,0.07844
360.0,0.0831
360.5,0.0664
361.0,0.0605
361.5,0.06962
362.0,0.06016
362.5,0.08319
363.0,0.07464
363.5,0.06868
364.0,0.08391
364.5,0.07163
365.0,0.07286
365.5,0.09135
366.0,0.0967
366.5,0.09077
367.0,0.08831
367.5,0.09154
368.0,0.08001
368.5,0.08062
369.0,0.08697
369.5,0.09261
370.0,0.09862
370.5,0.07646
371.0,0.0816
371.5,0.102
372.0,0.0676
372.5,0.08096
373.0,0.08225
373.5,0.05345
374.0,0.07757
374.5,0.06416
375.0,0.0623
375.5,0.09289
376.0,0.07691
376.5,0.0796
377.0,0.08418
377.5,0.09836
378.0,0.1065
378.5,0.1005
379.0,0.08283
379.5,0.07556
380.0,0.07845
380.5,0.09489
381.0,0.09496
381.5,0.07518
382.0,0.06668
382.5,0.05676
383.0,0.05248
383.5,0.05048
384.0,0.05561
384.5,0.08168
385.0,0.08089
385.5,0.07523
386.0,0.06434
386.5,0.0844
387.0,0.07003
387.5,0.07855
388.0,0.07241
388.5,0.07148
389.0,0.07705
389.5,0.09318
390.0,0.09338
390.5,0.08581
391.0,0.1009
391.5,0.1027
392.0,0.08638
392.5,0.07722
393.0,0.0429
393.5,0.03114
394.0,0.06327
394.5,0.08032
395.0,0.09786
395.5,0.09926
396.0,0.08592
396.5,0.05015
397.0,0.03758
397.5,0.07631
398.0,0.1067
398.5,0.1101
399.0,0.1191
399.5,0.1185
400.0,0.1228
401.0,0.1209
402.0,0.1272
403.0,0.1204
404.0,0.1181
405.0,0.1177
406.0,0.1154
407.0,0.1131
408.0,0.117
409.0,0.1248
410.0,0.1086
411.0,0.1173
412.0,0.1255
413.0,0.122
414.0,0.123
415.0,0.1228
416.0,0.1245
417.0,0.1209
418.0,0.1182
419.0,0.1193
420.0,0.1183
421.0,0.1232
422.0,0.1166
423.0,0.1133
424.0,0.1193
425.0,0.1185
426.0,0.115
427.0,0.1124
428.0,0.1091
429.0,0.103
430.0,0.08974
431.0,0.08851
432.0,0.1137
433.0,0.1138
434.0,0.1052
435.0,0.1094
436.0,0.1228
437.0,0.1206
438.0,0.1092
439.0,0.1123
440.0,0.1152
441.0,0.1187
442.0,0.1266
443.0,0.1227
444.0,0.1248
445.0,0.1217
446.0,0.1158
447.0,0.1247
448.0,0.1259
449.0,0.1257
450.0,0.1284
451.0,0.1325
452.0,0.1271
453.0,0.119
454.0,0.1237
455.0,0.1237
456.0,0.1258
457.0,0.127
458.0,0.1218
459.0,0.1202
460.0,0.1196
461.0,0.1216
462.0,0.122
463.0,0.1207
464.0,0.1184
465.0,0.1166
466.0,0.1172
467.0,0.1144
468.0,0.115
469.0,0.1148
470.0,0.1104
471.0,0.1098
472.0,0.1151
473.0,0.113
474.0,0.1125
475.0,0.1127
476.0,0.1084
477.0,0.1077
478.0,0.1097
479.0,0.108
480.0,0.1072
481.0,0.1083
482.0,0.1081
483.0,0.1063
484.0,0.1038
485.0,0.09865
486.0,0.086
487.0,0.08978
488.0,0.09794
489.0,0.09758
490.0,0.102
491.0,0.09952
492.0,0.09341
493.0,0.09594
494.0,0.09637
495.0,0.09664
496.0,0.09658
497.0,0.09728
498.0,0.09187
499.0,0.09209
500.0,0.08848
501.0,0.08592
502.0,0.08374
503.0,0.08621
504.0,0.08314
505.0,0.08558
506.0,0.08785
507.0,0.08322
508.0,0.08038
509.0,0.0824
510.0,0.08169
511.0,0.08351
512.0,0.08393
513.0,0.07891
514.0,0.07782
515.0,0.0765
516.0,0.07579
517.0,0.06686
518.0,0.06979
519.0,0.07266
520.0,0.0747
521.0,0.07477
522.0,0.07415
523.0,0.07223
524.0,0.07405
525.0,0.07411
526.0,0.07007
527.0,0.06529
528.0,0.06829
529.0,0.07128
530.0,0.0696
531.0,0.06998
532.0,0.06702
533.0,0.06459
534.0,0.06609
535.0,0.06717
536.0,0.06743
537.0,0.0644
538.0,0.06513
539.0,0.06414
540.0,0.06104
541.0,0.06091
542.0,0.06225
543.0,0.0611
544.0,0.06166
545.0,0.06103
546.0,0.06082
547.0,0.06037
548.0,0.05924
549.0,0.05903
550.0,0.05931
551.0,0.05818
552.0,0.05817
553.0,0.05671
554.0,0.05762
555.0,0.05728
556.0,0.05606
557.0,0.05384
558.0,0.0529
559.0,0.05138
560.0,0.05151
561.0,0.05165
562.0,0.05075
563.0,0.05162
564.0,0.04977
565.0,0.04892
566.0,0.04779
567.0,0.04827
568.0,0.0474
569.0,0.0458
570.0,0.04544
571.0,0.04484
572.0,0.04548
573.0,0.04564
574.0,0.04522
575.0,0.04411
576.0,0.0435
577.0,0.04379
578.0,0.04299
579.0,0.04305
580.0,0.04379
581.0,0.04391
582.0,0.04462
583.0,0.0446
584.0,0.04483
585.0,0.04355
586.0,0.04243
587.0,0.04308
588.0,0.04166
589.0,0.03644
590.0,0.03789
591.0,0.03998
592.0,0.03909
593.0,0.03944
594.0,0.03877
595.0,0.03738
596.0,0.03874
597.0,0.03793
598.0,0.03755
599.0,0.03728
600.0,0.0371
601.0,0.03659
602.0,0.03613
603.0,0.03655
604.0,0.037
605.0,0.03669
606.0,0.03645
607.0,0.03674
608.0,0.03627
609.0,0.03628
610.0,0.03597
611.0,0.03611
612.0,0.03595
613.0,0.03543
614.0,0.03489
615.0,0.03559
616.0,0.03435
617.0,0.0342
618.0,0.03543
619.0,0.03498
620.0,0.03508
621.0,0.03498
622.0,0.03444
623.0,0.03378
624.0,0.03309
625.0,0.0329
626.0,0.03327
627.0,0.03348
628.0,0.03058
629.0,0.03226
630.0,0.03139
631.0,0.03219
632.0,0.03174
633.0,0.0327
634.0,0.03236
635.0,0.0328
636.0,0.03231
637.0,0.03278
638.0,0.03306
639.0,0.03262
640.0,0.03225
641.0,0.03216
642.0,0.03196
643.0,0.03231
644.0,0.03214
645.0,0.03206
646.0,0.03114
647.0,0.03051
648.0,0.03045
649.0,0.02972
650.0,0.02997
651.0,0.0312
652.0,0.02959
653.0,0.03059
654.0,0.03016
655.0,0.02883
656.0,0.02553
657.0,0.02615
658.0,0.02928
659.0,0.02942
660.0,0.02946
661.0,0.02957
662.0,0.02951
663.0,0.02884
664.0,0.02913
665.0,0.0291
666.0,0.02904
667.0,0.02895
668.0,0.0289
669.0,0.02927
670.0,0.02904
671.0,0.02896
672.0,0.02864
673.0,0.029
674.0,0.0288
675.0,0.02845
676.0,0.02855
677.0,0.02818
678.0,0.02818
679.0,0.02763
680.0,0.02776
681.0,0.02747
682.0,0.02732
683.0,0.02716
684.0,0.02691
685.0,0.02703
686.0,0.02676
687.0,0.01608
688.0,0.01927
689.0,0.01929
690.0,0.02039
691.0,0.02171
692.0,0.02273
693.0,0.02245
694.0,0.02224
695.0,0.02333
696.0,0.02329
697.0,0.02496
698.0,0.02448
699.0,0.02357
700.0,0.02319
701.0,0.02278
702.0,0.02293
703.0,0.02291
704.0,0.02367
705.0,0.0236
706.0,0.02353
707.0,0.02347
708.0,0.02341
709.0,0.02343
710.0,0.02327
711.0,0.02319
712.0,0.02308
713.0,0.0227
714.0,0.02269
715.0,0.02178
716.0,0.02168
717.0,0.01804
718.0,0.01643
719.0,0.0149
720.0,0.01552
721.0,0.01741
722.0,0.02031
723.0,0.01859
724.0,0.01641
725.0,0.01604
726.0,0.01677
727.0,0.01705
728.0,0.01579
729.0,0.01651
730.0,0.01737
731.0,0.0165
732.0,0.01782
733.0,0.019
734.0,0.01945
735.0,0.01891
736.0,0.01879
737.0,0.01878
738.0,0.01918
739.0,0.01872
740.0,0.01917
741.0,0.01892
742.0,0.01888
743.0,0.01927
744.0,0.01914
745.0,0.01907
746.0,0.01906
747.0,0.01902
748.0,0.01889
749.0,0.0186
750.0,0.01852
751.0,0.01827
752.0,0.01828
753.0,0.01831
754.0,0.01828
755.0,0.0181
756.0,0.01802
757.0,0.01798
758.0,0.01767
759.0,0.01711
760.0,0.002499
761.0,0.00133
762.0,0.007559
763.0,0.003728
764.0,0.005567
765.0,0.007451
766.0,0.009334
767.0,0.01219
768.0,0.01463
769.0,0.01505
770.0,0.0157
771.0,0.01586
772.0,0.01584
773.0,0.01587
774.0,0.01571
775.0,0.01552
776.0,0.01563
777.0,0.01534
778.0,0.01516
779.0,0.01509
780.0,0.01495
781.0,0.0149
782.0,0.01494
783.0,0.01463
784.0,0.01465
785.0,0.01448
786.0,0.01458
787.0,0.01419
788.0,0.01392
789.0,0.01385
790.0,0.01332
791.0,0.01349
792.0,0.01335
793.0,0.01307
794.0,0.01334
795.0,0.01348
796.0,0.01286
797.0,0.01281
798.0,0.01328
799.0,0.01311
800.0,0.01279
801.0,0.01265
802.0,0.01255
803.0,0.01238
804.0,0.01236
805.0,0.0123
806.0,0.01266
807.0,0.01243
808.0,0.01238
809.0,0.01203
810.0,0.01184
811.0,0.01175
812.0,0.01123
813.0,0.01091
814.0,0.00932
815.0,0.009232
816.0,0.00848
817.0,0.008607
818.0,0.008211
819.0,0.009328
820.0,0.008687
821.0,0.01045
822.0,0.01005
823.0,0.006387
824.0,0.009581
825.0,0.01011
826.0,0.009582
827.0,0.01019
828.0,0.008312
829.0,0.009438
830.0,0.009262
831.0,0.009256
832.0,0.008878
833.0,0.009563
834.0,0.009108
835.0,0.01019
836.0,0.009546
837.0,0.01012
838.0,0.009697
839.0,0.009878
840.0,0.01007
841.0,0.009848
842.0,0.009874
843.0,0.009879
844.0,0.009668
845.0,0.009985
846.0,0.009904
847.0,0.009688
848.0,0.009557
849.0,0.009238
850.0,0.008807
851.0,0.009248
852.0,0.009147
853.0,0.008779
854.0,0.00753
855.0,0.008264
856.0,0.008987
857.0,0.009171
858.0,0.009063
859.0,0.009046
860.0,0.009035
861.0,0.008951
862.0,0.009066
863.0,0.00925
864.0,0.008757
865.0,0.00865
866.0,0.007748
867.0,0.008055
868.0,0.008733
869.0,0.008519
870.0,0.008728
871.0,0.008574
872.0,0.008511
873.0,0.008459
874.0,0.008323
875.0,0.008118
876.0,0.008165
877.0,0.008215
878.0,0.008264
879.0,0.008103
880.0,0.007896
881.0,0.007733
882.0,0.007863
883.0,0.007866
884.0,0.00779
885.0,0.007812
886.0,0.007378
887.0,0.007453
888.0,0.007515
889.0,0.007598
890.0,0.007462
891.0,0.00744
892.0,0.007151
893.0,0.00685
894.0,0.00648
895.0,0.005982
896.0,0.005556
897.0,0.004629
898.0,0.005089
899.0,0.003715
900.0,0.005239
901.0,0.003888
902.0,0.004681
903.0,0.004665
904.0,0.006162
905.0,0.005887
906.0,0.005442
907.0,0.004205
908.0,0.004315
909.0,0.004727
910.0,0.004045
911.0,0.004389
912.0,0.004574
913.0,0.004052
914.0,0.004021
915.0,0.004352
916.0,0.003623
917.0,0.004735
918.0,0.003684
919.0,0.004816
920.0,0.004936
921.0,0.005129
922.0,0.004464
923.0,0.004924
924.0,0.004518
925.0,0.004399
926.0,0.004421
927.0,0.005021
928.0,0.003427
929.0,0.003069
930.0,0.002324
931.0,0.002184
932.0,0.00152
933.0,0.001216
934.0,0.000647
935.0,0.001242
936.0,0.0007567
937.0,0.0007633
938.0,0.0009395
939.0,0.002042
940.0,0.002496
941.0,0.001821
942.0,0.002123
943.0,0.001351
944.0,0.001441
945.0,0.001853
946.0,0.0009007
947.0,0.001839
948.0,0.001333
949.0,0.002509
950.0,0.000643
951.0,0.002452
952.0,0.001252
953.0,0.001643
954.0,0.002053
955.0,0.001656
956.0,0.00164
957.0,0.001229
958.0,0.00237
959.0,0.001809
960.0,0.00203
961.0,0.00232
962.0,0.002182
963.0,0.002564
964.0,0.002318
965.0,0.002528
966.0,0.002521
967.0,0.002491
968.0,0.003596
969.0,0.003714
970.0,0.003362
971.0,0.003978
972.0,0.003746
973.0,0.003122
974.0,0.002941
975.0,0.003068
976.0,0.002842
977.0,0.003371
978.0,0.003126
979.0,0.003297
980.0,0.003062
981.0,0.003806
982.0,0.003576
983.0,0.003392
984.0,0.003943
985.0,0.003517
986.0,0.004024
987.0,0.003894
988.0,0.003875
989.0,0.003992
990.0,0.003816
991.0,0.003957
992.0,0.003972
993.0,0.003833
994.0,0.003949
995.0,0.003938
996.0,0.003899
997.0,0.003896
998.0,0.003861
999.0,0.003835
1000.0,0.003783
1001.0,0.003829
1002.0,0.00366
1003.0,0.00373
1004.0,0.003611
1005.0,0.003483
1006.0,0.003597
1007.0,0.003663
1008.0,0.003622
1009.0,0.003579
1010.0,0.003546
1011.0,0.003592
1012.0,0.003538
1013.0,0.003559
1014.0,0.003521
1015.0,0.003483
1016.0,0.003453
1017.0,0.003446
1018.0,0.003426
1019.0,0.003322
1020.0,0.003379
1021.0,0.003365
1022.0,0.003319
1023.0,0.003341
1024.0,0.003268
1025.0,0.00332
1026.0,0.003289
1027.0,0.00327
1028.0,0.003249
1029.0,0.003197
1030.0,0.003214
1031.0,0.003186
1032.0,0.003166
1033.0,0.003106
1034.0,0.003095
1035.0,0.003093
1036.0,0.003095
1037.0,0.003034
1038.0,0.003036
1039.0,0.003022
1040.0,0.002998
1041.0,0.002997
1042.0,0.002965
1043.0,0.002944
1044.0,0.002942
1045.0,0.00289
1046.0,0.002845
1047.0,0.002859
1048.0,0.002864
1049.0,0.002842
1050.0,0.002817
1051.0,0.002801
1052.0,0.002778
1053.0,0.002744
1054.0,0.002738
1055.0,0.002727
1056.0,0.002705
1057.0,0.002684
1058.0,0.002607
1059.0,0.002598
1060.0,0.002583
1061.0,0.002569
1062.0,0.00257
1063.0,0.002534
1064.0,0.002556
1065.0,0.002522
1066.0,0.002468
1067.0,0.002489
1068.0,0.002422
1069.0,0.002342
1070.0,0.002409
1071.0,0.00245
1072.0,0.002403
1073.0,0.002363
1074.0,0.00243
1075.0,0.002269
1076.0,0.002408
1077.0,0.002339
1078.0,0.002278
1079.0,0.00235
1080.0,0.002275
1081.0,0.002181
1082.0,0.002235
1083.0,0.002242
1084.0,0.002143
1085.0,0.002244
1086.0,0.001993
1087.0,0.002084
1088.0,0.002194
1089.0,0.002085
1090.0,0.002015
1091.0,0.002154
1092.0,0.002146
1093.0,0.001733
1094.0,0.00194
1095.0,0.001798
1096.0,0.001696
1097.0,0.002061
1098.0,0.001647
1099.0,0.001721
1100.0,0.001566
1101.0,0.001592
1102.0,0.001497
1103.0,0.001464
1104.0,0.001464
1105.0,0.001638
1106.0,0.001162
1107.0,0.001528
1108.0,0.001236
1109.0,0.001237
1110.0,0.001484
1111.0,0.0009315
1112.0,0.001217
1113.0,0.0007172
1114.0,0.000802
1115.0,0.0006549
1116.0,0.0005053
1117.0,0.0001761
1118.0,0.000549
1119.0,0.0002614
1120.0,0.0003277
1121.0,0.0004377
1122.0,0.0001782
1123.0,0.0002929
1124.0,0.000246
1125.0,0.0003221
1126.0,0.0001076
1127.0,0.0003615
1128.0,0.0002102
1129.0,0.0002227
1130.0,0.0001449
1131.0,0.0007034
1132.0,0.0005421
1133.0,0.0003313
1134.0,8.137e-05
1135.0,3.048e-05
1136.0,0.0002708
1137.0,0.0006727
1138.0,0.000466
1139.0,0.0007289
1140.0,0.0005914
1141.0,0.0004382
1142.0,0.0005079
1143.0,0.0007396
1144.0,0.0002422
1145.0,0.0003063
1146.0,0.0003293
1147.0,0.0001117
1148.0,0.0006231
1149.0,0.0004859
1150.0,0.0002571
1151.0,0.0004421
1152.0,0.0005528
1153.0,0.0005437
1154.0,0.0002883
1155.0,0.000721
1156.0,0.0006382
1157.0,0.0007337
1158.0,0.0007227
1159.0,0.0007858
1160.0,0.0006619
1161.0,0.0008438
1162.0,0.000841
1163.0,0.001207
1164.0,0.001002
1165.0,0.0009225
1166.0,0.0009272
1167.0,0.00102
1168.0,0.001027
1169.0,0.001055
1170.0,0.001165
1171.0,0.001129
1172.0,0.00116
1173.0,0.00115
1174.0,0.0007696
1175.0,0.001129
1176.0,0.001272
1177.0,0.001194
1178.0,0.0008489
1179.0,0.001269
1180.0,0.00109
1181.0,0.001125
1182.0,0.0007253
1183.0,0.001108
1184.0,0.001015
1185.0,0.0009636
1186.0,0.00119
1187.0,0.001112
1188.0,0.0007194
1189.0,0.001025
1190.0,0.001149
1191.0,0.001059
1192.0,0.001162
1193.0,0.001097
1194.0,0.001136
1195.0,0.001051
1196.0,0.0009981
1197.0,0.001135
1198.0,0.001024
1199.0,0.0008278
1200.0,0.001061
1201.0,0.001004
1202.0,0.001008
1203.0,0.0009901
1204.0,0.0008419
1205.0,0.001032
1206.0,0.001163
1207.0,0.0009856
1208.0,0.0009796
1209.0,0.0009967
1210.0,0.001047
1211.0,0.0009791
1212.0,0.000943
1213.0,0.001088
1214.0,0.0009675
1215.0,0.000944
1216.0,0.001077
1217.0,0.001037
1218.0,0.001061
1219.0,0.001039
1220.0,0.001056
1221.0,0.00107
1222.0,0.001033
1223.0,0.001017
1224.0,0.0009986
1225.0,0.001047
1226.0,0.001058
1227.0,0.0009489
1228.0,0.00106
1229.0,0.001048
1230.0,0.001022
1231.0,0.001062
1232.0,0.001052
1233.0,0.0009945
1234.0,0.001055
1235.0,0.001042
1236.0,0.001049
1237.0,0.001024
1238.0,0.001039
1239.0,0.001022
1240.0,0.001023
1241.0,0.00101
1242.0,0.001009
1243.0,0.0009979
1244.0,0.001
1245.0,0.001002
1246.0,0.0009933
1247.0,0.0009847
1248.0,0.0009783
1249.0,0.0009806
1250.0,0.0009699
1251.0,0.0009511
1252.0,0.0009524
1253.0,0.0009344
1254.0,0.0009168
1255.0,0.0009405
1256.0,0.000898
1257.0,0.0008876
1258.0,0.0009117
1259.0,0.0008565
1260.0,0.0008607
1261.0,0.0007884
1262.0,0.0007522
1263.0,0.0007509
1264.0,0.0006707
1265.0,0.0007419
1266.0,0.0006993
1267.0,0.0007179
1268.0,0.0006655
1269.0,0.0003684
1270.0,0.0007056
1271.0,0.0007661
1272.0,0.0007678
1273.0,0.000755
1274.0,0.0007583
1275.0,0.0007705
1276.0,0.0007798
1277.0,0.0007881
1278.0,0.0008091
1279.0,0.0007998
1280.0,0.000787
1281.0,0.0007529
1282.0,0.0007302
1283.0,0.0007825
1284.0,0.0007975
1285.0,0.0008015
1286.0,0.0008136
1287.0,0.0007915
1288.0,0.0007912
1289.0,0.0007505
1290.0,0.0007798
1291.0,0.0007907
1292.0,0.0007178
1293.0,0.0007651
1294.0,0.0007563
1295.0,0.0007426
1296.0,0.0006941
1297.0,0.0006455
1298.0,0.000712
1299.0,0.0007536
1300.0,0.0006032
1301.0,0.0006245
1302.0,0.0007028
1303.0,0.0005914
1304.0,0.0004801
1305.0,0.0006791
1306.0,0.0006737
1307.0,0.0004919
1308.0,0.000586
1309.0,0.0006577
1310.0,0.0004755
1311.0,0.0005507
1312.0,0.0005331
1313.0,0.0005135
1314.0,0.0004476
1315.0,0.0004385
1316.0,0.0005303
1317.0,0.0004952
1318.0,0.0005483
1319.0,0.000401
1320.0,0.0003888
1321.0,0.0004635
1322.0,0.000463
1323.0,0.0003291
1324.0,0.000388
1325.0,0.0005041
1326.0,0.0004185
1327.0,0.000394
1328.0,0.000331
1329.0,0.0002368
1330.0,0.0003153
1331.0,0.0001801
1332.0,0.0001866
1333.0,0.0002624
1334.0,0.0002256
1335.0,0.0003145
1336.0,0.0002411
1337.0,0.0002115
1338.0,0.0002282
1339.0,0.0002271
1340.0,0.0002219
1341.0,0.0002112
1342.0,0.0002222
1343.0,0.0001447
1344.0,8.62e-05
1345.0,0.0001239
