interpolation:linear
wavelength,value
280.0,7.859999999999999e-22
280.5,2.543e-20
281.0,1.355e-19
281.5,5.22e-19
282.0,8.85e-19
282.5,2.191e-18
283.0,6.896e-18
283.5,1.12e-17
284.0,1.818e-16
284.5,5.267e-16
285.0,9.849e-16
285.5,4.791e-15
286.0,1.919e-14
286.5,8.53e-14
287.0,2.428e-13
287.5,9.272e-13
288.0,2.956e-12
288.5,9.132e-12
289.0,2.463e-11
289.5,7.497e-11
290.0,2.09e-10
290.5,4.272e-10
291.0,9.187e-10
291.5,2.64e-09
292.0,5.841e-09
292.5,8.25e-09
293.0,1.783e-08
293.5,4.376e-08
294.0,6.881e-08
294.5,9.097e-08
295.0,1.545e-07
295.5,3.205e-07
296.0,5.899e-07
296.5,8.437e-07
297.0,1.165e-06
297.5,3.244e-06
298.0,5.309e-06
298.5,5.519e-06
299.0,1.262e-05
299.5,2.264e-05
300.0,2.618e-05
300.5,4.021e-05
301.0,8.149e-05
301.5,0.0001474
302.0,0.000136
302.5,0.0002693
303.0,0.0004929
303.5,0.0006308
304.0,0.0006052
304.5,0.0009587
305.0,0.001586
305.5,0.001921
306.0,0.001897
306.5,0.002449
307.0,0.003952
307.5,0.005708
308.0,0.006098
308.5,0.0075
309.0,0.007694
309.5,0.009139
310.0,0.009333
310.5,0.01522
311.0,0.01936
311.5,0.01877
312.0,0.0194
312.5,0.02412
313.0,0.02644
313.5,0.02529
314.0,0.03249
314.5,0.02996
315.0,0.03955
315.5,0.03231
316.0,0.02913
316.5,0.04302
317.0,0.05322
317.5,0.05473
318.0,0.04349
318.5,0.05617
319.0,0.06794
319.5,0.05331
320.0,0.06389
320.5,0.08333
321.0,0.07711
321.5,0.07403
322.0,0.07523
322.5,0.0654
323.0,0.06685
323.5,0.08409
324.0,0.09828
324.5,0.09847
325.0,0.08354
325.5,0.1098
326.0,0.1344
326.5,0.1361
327.0,0.1346
327.5,0.1287
328.0,0.1123
328.5,0.1202
329.0,0.1463
329.5,0.1667
330.0,0.1668
330.5,0.131
331.0,0.1324
331.5,0.1357
332.0,0.1487
332.5,0.1479
333.0,0.1463
333.5,0.1303
334.0,0.1328
334.5,0.1551
335.0,0.1466
335.5,0.1726
336.0,0.1191
336.5,0.1369
337.0,0.1112
337.5,0.1376
338.0,0.1357
338.5,0.1577
339.0,0.1553
339.5,0.1492
340.0,0.1733
340.5,0.1559
341.0,0.1526
341.5,0.1392
342.0,0.1657
342.5,0.1545
343.0,0.1697
343.5,0.1595
344.0,0.117
344.5,0.1188
345.0,0.1559
345.5,0.1585
346.0,0.1342
346.5,0.1514
347.0,0.1622
347.5,0.1309
348.0,0.1485
348.5,0.1478
349.0,0.1367
349.5,0.1349
350.0,0.1664
350.5,0.1749
351.0,0.1559
351.5,0.1514
352.0,0.1618
352.5,0.1258
353.0,0.1578
353.5,0.1682
354.0,0.1741
354.5,0.176
355.0,0.1748
355.5,0.1574
356.0,0.1642
356.5,0.1398
357.0,0.1151
357.5,0.1405
358.0,0.111
358.5,0.09451
359.0,0.1318
359.5,0.1674
360.0,0.1769
360.5,0.1409
361.0,0.128
361.5,0.147
362.0,0.1267
362.5,0.1748
363.0,0.1565
363.5,0.1437
364.0,0.1751
364.5,0.1492
365.0,0.1515
365.5,0.1895
366.0,0.2001
366.5,0.1874
367.0,0.182
367.5,0.1882
368.0,0.1642
368.5,0.1651
369.0,0.1777
369.5,0.1888
370.0,0.2006
370.5,0.1552
371.0,0.1653
371.5,0.2061
372.0,0.1364
372.5,0.163
373.0,0.1653
373.5,0.1072
374.0,0.1552
374.5,0.1281
375.0,0.1241
375.5,0.1847
376.0,0.1526
376.5,0.1576
377.0,0.1664
377.5,0.194
378.0,0.2096
378.5,0.1974
379.0,0.1623
379.5,0.1477
380.0,0.1531
380.5,0.1847
381.0,0.1845
381.5,0.1457
382.0,0.129
382.5,0.1096
383.0,0.1011
383.5,0.09704
384.0,0.1067
384.5,0.1564
385.0,0.1546
385.5,0.1435
386.0,0.1224
386.5,0.1603
387.0,0.1327
387.5,0.1486
388.0,0.1367
388.5,0.1347
389.0,0.1448
389.5,0.1748
390.0,0.1748
390.5,0.1603
391.0,0.1881
391.5,0.1912
392.0,0.1604
392.5,0.1431
393.0,0.07937
393.5,0.0575
394.0,0.1166
394.5,0.1478
395.0,0.1797
395.5,0.1819
396.0,0.1572
396.5,0.09155
397.0,0.06847
397.5,0.1388
398.0,0.1936
398.5,0.1994
399.0,0.2152
399.5,0.2138
400.0,0.2212
401.0,0.2174
402.0,0.2277
403.0,0.2148
404.0,0.21
405.0,0.2085
406.0,0.2036
407.0,0.1989
408.0,0.2051
409.0,0.218
410.0,0.1892
411.0,0.2035
412.0,0.2171
413.0,0.2103
414.0,0.2113
415.0,0.2104
416.0,0.2125
417.0,0.2057
418.0,0.2005
419.0,0.2017
420.0,0.1993
421.0,0.207
422.0,0.1952
423.0,0.1892
424.0,0.1986
425.0,0.1968
426.0,0.1903
427.0,0.1855
428.0,0.1794
429.0,0.1688
430.0,0.1467
431.0,0.1443
432.0,0.1849
433.0,0.1845
434.0,0.17
435.0,0.1763
436.0,0.1973
437.0,0.1933
438.0,0.1748
439.0,0.1794
440.0,0.1837
441.0,0.1889
442.0,0.201
443.0,0.1943
444.0,0.1972
445.0,0.1916
446.0,0.1817
447.0,0.195
448.0,0.1965
449.0,0.1958
450.0,0.1997
451.0,0.2055
452.0,0.1966
453.0,0.1836
454.0,0.1904
455.0,0.19
456.0,0.193
457.0,0.1946
458.0,0.1864
459.0,0.1839
460.0,0.1829
461.0,0.1857
462.0,0.1858
463.0,0.1834
464.0,0.1793
465.0,0.176
466.0,0.1765
467.0,0.1719
468.0,0.1725
469.0,0.1719
470.0,0.1652
471.0,0.1639
472.0,0.1715
473.0,0.1681
474.0,0.167
475.0,0.1671
476.0,0.1607
477.0,0.1597
478.0,0.1627
479.0,0.1602
480.0,0.1592
481.0,0.1606
482.0,0.1602
483.0,0.1572
484.0,0.153
485.0,0.1449
486.0,0.1259
487.0,0.131
488.0,0.1427
489.0,0.142
490.0,0.1482
491.0,0.1445
492.0,0.1354
493.0,0.1388
494.0,0.1392
495.0,0.1394
496.0,0.1392
497.0,0.1402
498.0,0.1324
499.0,0.1329
500.0,0.1278
501.0,0.1242
502.0,0.1213
503.0,0.125
504.0,0.1207
505.0,0.1241
506.0,0.1272
507.0,0.1202
508.0,0.1158
509.0,0.1183
510.0,0.117
511.0,0.1193
512.0,0.1197
513.0,0.1125
514.0,0.1108
515.0,0.1089
516.0,0.1078
517.0,0.09511
518.0,0.09926
519.0,0.1033
520.0,0.1062
521.0,0.1064
522.0,0.1056
523.0,0.1029
524.0,0.1057
525.0,0.106
526.0,0.1004
527.0,0.09377
528.0,0.09828
529.0,0.1027
530.0,0.1005
531.0,0.1012
532.0,0.09694
533.0,0.09344
534.0,0.09555
535.0,0.09702
536.0,0.09728
537.0,0.09283
538.0,0.09381
539.0,0.09241
540.0,0.08799
541.0,0.08788
542.0,0.0899
543.0,0.08828
544.0,0.08919
545.0,0.08835
546.0,0.08808
547.0,0.08741
548.0,0.08576
549.0,0.08545
550.0,0.08587
551.0,0.08423
552.0,0.08421
553.0,0.08211
554.0,0.08348
555.0,0.08304
556.0,0.08133
557.0,0.07818
558.0,0.07694
559.0,0.07487
560.0,0.07517
561.0,0.07551
562.0,0.07433
563.0,0.07574
564.0,0.07312
565.0,0.07194
566.0,0.07035
567.0,0.07113
568.0,0.06993
569.0,0.06769
570.0,0.06721
571.0,0.06635
572.0,0.06738
573.0,0.06765
574.0,0.06702
575.0,0.06537
576.0,0.06439
577.0,0.06473
578.0,0.06344
579.0,0.0634
580.0,0.06433
581.0,0.06435
582.0,0.06525
583.0,0.06511
584.0,0.06537
585.0,0.06343
586.0,0.06173
587.0,0.06265
588.0,0.06065
589.0,0.05319
590.0,0.05531
591.0,0.05829
592.0,0.05708
593.0,0.05759
594.0,0.05672
595.0,0.05484
596.0,0.05678
597.0,0.05573
598.0,0.05521
599.0,0.05488
600.0,0.05463
601.0,0.05387
602.0,0.05319
603.0,0.05376
604.0,0.05435
605.0,0.05381
606.0,0.05335
607.0,0.05366
608.0,0.05283
609.0,0.05269
610.0,0.05211
611.0,0.05217
612.0,0.05181
613.0,0.05094
614.0,0.05003
615.0,0.0509
616.0,0.04902
617.0,0.04871
618.0,0.05037
619.0,0.04964
620.0,0.04971
621.0,0.04951
622.0,0.04867
623.0,0.04767
624.0,0.04662
625.0,0.04631
626.0,0.04679
627.0,0.04705
628.0,0.04327
629.0,0.04532
630.0,0.04405
631.0,0.04497
632.0,0.04426
633.0,0.04548
634.0,0.04489
635.0,0.0454
636.0,0.04462
637.0,0.04517
638.0,0.04544
639.0,0.04475
640.0,0.04413
641.0,0.04391
642.0,0.04355
643.0,0.04396
644.0,0.04365
645.0,0.04349
646.0,0.04222
647.0,0.04141
648.0,0.04123
649.0,0.04024
650.0,0.04039
651.0,0.04197
652.0,0.03985
653.0,0.04103
654.0,0.0404
655.0,0.03862
656.0,0.03413
657.0,0.0349
658.0,0.039
659.0,0.03912
660.0,0.0391
661.0,0.03919
662.0,0.03908
663.0,0.03815
664.0,0.03847
665.0,0.03836
666.0,0.03822
667.0,0.03804
668.0,0.03791
669.0,0.03833
670.0,0.03799
671.0,0.03782
672.0,0.03736
673.0,0.0378
674.0,0.03748
675.0,0.03697
676.0,0.03706
677.0,0.03655
678.0,0.03651
679.0,0.03576
680.0,0.03589
681.0,0.03549
682.0,0.03528
683.0,0.03504
684.0,0.03469
685.0,0.03482
686.0,0.03445
687.0,0.02131
688.0,0.02547
689.0,0.02547
690.0,0.02681
691.0,0.02837
692.0,0.02951
693.0,0.02911
694.0,0.0287
695.0,0.02995
696.0,0.02984
697.0,0.03186
698.0,0.03122
699.0,0.03014
700.0,0.02963
701.0,0.02916
702.0,0.0293
703.0,0.02922
704.0,0.03011
705.0,0.03001
706.0,0.02989
707.0,0.02979
708.0,0.02971
709.0,0.02967
710.0,0.02949
711.0,0.02937
712.0,0.0292
713.0,0.02874
714.0,0.02869
715.0,0.02758
716.0,0.02745
717.0,0.02309
718.0,0.02094
719.0,0.01893
720.0,0.01979
721.0,0.02211
722.0,0.02571
723.0,0.02354
724.0,0.0208
725.0,0.02033
726.0,0.02129
727.0,0.02155
728.0,0.02
729.0,0.02084
730.0,0.02203
731.0,0.02087
732.0,0.02246
733.0,0.0239
734.0,0.02441
735.0,0.02376
736.0,0.02362
737.0,0.0236
738.0,0.02399
739.0,0.02339
740.0,0.02393
741.0,0.0236
742.0,0.02353
743.0,0.02401
744.0,0.02383
745.0,0.02373
746.0,0.02372
747.0,0.02366
748.0,0.02349
749.0,0.02311
750.0,0.02299
751.0,0.02267
752.0,0.02267
753.0,0.02268
754.0,0.02262
755.0,0.02239
756.0,0.02229
757.0,0.02222
758.0,0.02184
759.0,0.02122
760.0,0.002908
761.0,0.001502
762.0,0.009585
763.0,0.004463
764.0,0.006893
765.0,0.009439
766.0,0.01195
767.0,0.01553
768.0,0.01834
769.0,0.01876
770.0,0.01945
771.0,0.01958
772.0,0.01954
773.0,0.01958
774.0,0.01938
775.0,0.01914
776.0,0.01929
777.0,0.01894
778.0,0.01872
779.0,0.01864
780.0,0.01845
781.0,0.01839
782.0,0.01842
783.0,0.01803
784.0,0.01804
785.0,0.01782
786.0,0.01794
787.0,0.01749
788.0,0.01717
789.0,0.01708
790.0,0.01646
791.0,0.01661
792.0,0.01642
793.0,0.01607
794.0,0.01636
795.0,0.01654
796.0,0.01584
797.0,0.0158
798.0,0.01629
799.0,0.01609
800.0,0.01571
801.0,0.01556
802.0,0.01545
803.0,0.01525
804.0,0.01521
805.0,0.01512
806.0,0.01552
807.0,0.01525
808.0,0.01519
809.0,0.0148
810.0,0.01458
811.0,0.01449
812.0,0.01393
813.0,0.01352
814.0,0.01159
815.0,0.01146
816.0,0.01051
817.0,0.01069
818.0,0.01021
819.0,0.01159
820.0,0.01077
821.0,0.01289
822.0,0.0124
823.0,0.007889
824.0,0.01185
825.0,0.01242
826.0,0.0118
827.0,0.01252
828.0,0.01027
829.0,0.01159
830.0,0.01137
831.0,0.01137
832.0,0.01091
833.0,0.01175
834.0,0.0112
835.0,0.01244
836.0,0.01174
837.0,0.01237
838.0,0.01189
839.0,0.01209
840.0,0.01231
841.0,0.01206
842.0,0.01206
843.0,0.01204
844.0,0.0118
845.0,0.01217
846.0,0.01206
847.0,0.0118
848.0,0.01165
849.0,0.01127
850.0,0.01075
851.0,0.01131
852.0,0.01118
853.0,0.01072
854.0,0.009205
855.0,0.01009
856.0,0.01097
857.0,0.01118
858.0,0.01106
859.0,0.01102
860.0,0.011
861.0,0.01089
862.0,0.01103
863.0,0.01125
864.0,0.01064
865.0,0.01051
866.0,0.009411
867.0,0.009781
868.0,0.0106
869.0,0.01034
870.0,0.01059
871.0,0.0104
872.0,0.01032
873.0,0.01026
874.0,0.01009
875.0,0.009842
876.0,0.0099
877.0,0.009959
878.0,0.01002
879.0,0.009827
880.0,0.009576
881.0,0.009386
882.0,0.009549
883.0,0.009547
884.0,0.009458
885.0,0.009485
886.0,0.008977
887.0,0.009056
888.0,0.009137
889.0,0.009225
890.0,0.009079
891.0,0.009042
892.0,0.008715
893.0,0.00836
894.0,0.007951
895.0,0.007383
896.0,0.006841
897.0,0.005703
898.0,0.006287
899.0,0.004558
900.0,0.006457
901.0,0.0048
902.0,0.005784
903.0,0.005776
904.0,0.007569
905.0,0.00723
906.0,0.006687
907.0,0.005191
908.0,0.005311
909.0,0.005834
910.0,0.004991
911.0,0.005382
912.0,0.005644
913.0,0.005002
914.0,0.00495
915.0,0.005403
916.0,0.004449
917.0,0.005865
918.0,0.004541
919.0,0.005947
920.0,0.006037
921.0,0.006315
922.0,0.005499
923.0,0.006054
924.0,0.005597
925.0,0.005437
926.0,0.005489
927.0,0.006233
928.0,0.004263
929.0,0.003813
930.0,0.002866
931.0,0.002693
932.0,0.001841
933.0,0.001452
934.0,0.0007415
935.0,0.001488
936.0,0.0008808
937.0,0.0008881
938.0,0.001107
939.0,0.002519
940.0,0.003109
941.0,0.002242
942.0,0.002637
943.0,0.001634
944.0,0.001746
945.0,0.00228
946.0,0.001064
947.0,0.002263
948.0,0.001606
949.0,0.003136
950.0,0.0007429
951.0,0.00307
952.0,0.001504
953.0,0.002008
954.0,0.002545
955.0,0.002029
956.0,0.001973
957.0,0.001477
958.0,0.002922
959.0,0.002213
960.0,0.002504
961.0,0.002868
962.0,0.002685
963.0,0.003167
964.0,0.00285
965.0,0.003132
966.0,0.003117
967.0,0.003082
968.0,0.004408
969.0,0.0046
970.0,0.004143
971.0,0.004879
972.0,0.004603
973.0,0.003862
974.0,0.003625
975.0,0.003781
976.0,0.003524
977.0,0.004131
978.0,0.003854
979.0,0.004069
980.0,0.003764
981.0,0.004669
982.0,0.004397
983.0,0.004172
984.0,0.004812
985.0,0.004332
986.0,0.004892
987.0,0.004744
988.0,0.004715
989.0,0.00484
990.0,0.004653
991.0,0.004806
992.0,0.00482
993.0,0.004663
994.0,0.004788
995.0,0.00477
996.0,0.004725
997.0,0.004717
998.0,0.004676
999.0,0.004643
1000.0,0.004586
1001.0,0.004635
1002.0,0.004456
1003.0,0.004516
1004.0,0.004379
1005.0,0.004215
1006.0,0.004355
1007.0,0.004434
1008.0,0.004387
1009.0,0.004341
1010.0,0.004303
1011.0,0.004347
1012.0,0.004285
1013.0,0.004305
1014.0,0.00426
1015.0,0.004215
1016.0,0.004178
1017.0,0.004171
1018.0,0.004143
1019.0,0.004027
1020.0,0.004087
1021.0,0.004068
1022.0,0.004016
1023.0,0.004044
1024.0,0.003964
1025.0,0.004016
1026.0,0.00398
1027.0,0.003956
1028.0,0.003932
1029.0,0.003871
1030.0,0.003887
1031.0,0.003855
1032.0,0.00383
1033.0,0.003757
1034.0,0.003744
1035.0,0.003741
1036.0,0.003744
1037.0,0.00367
1038.0,0.003673
1039.0,0.003657
1040.0,0.003628
1041.0,0.003628
1042.0,0.003589
1043.0,0.003564
1044.0,0.003563
1045.0,0.003501
1046.0,0.003448
1047.0,0.003465
1048.0,0.003471
1049.0,0.003446
1050.0,0.003416
1051.0,0.003398
1052.0,0.00337
1053.0,0.003331
1054.0,0.003325
1055.0,0.003313
1056.0,0.003287
1057.0,0.003263
1058.0,0.003171
1059.0,0.003161
1060.0,0.003144
1061.0,0.003127
1062.0,0.003131
1063.0,0.003088
1064.0,0.003114
1065.0,0.003076
1066.0,0.003007
1067.0,0.003034
1068.0,0.002954
1069.0,0.002854
1070.0,0.002937
1071.0,0.002981
1072.0,0.002928
1073.0,0.002878
1074.0,0.002953
1075.0,0.002767
1076.0,0.002927
1077.0,0.002848
1078.0,0.002778
1079.0,0.002853
1080.0,0.00277
1081.0,0.002663
1082.0,0.002719
1083.0,0.002722
1084.0,0.002618
1085.0,0.002732
1086.0,0.002435
1087.0,0.002543
1088.0,0.002665
1089.0,0.002549
1090.0,0.002463
1091.0,0.00262
1092.0,0.002609
1093.0,0.002127
1094.0,0.002362
1095.0,0.002216
1096.0,0.002091
1097.0,0.002506
1098.0,0.002038
1099.0,0.00213
1100.0,0.001937
1101.0,0.001966
1102.0,0.001854
1103.0,0.001816
1104.0,0.001814
1105.0,0.002029
1106.0,0.001445
1107.0,0.001892
1108.0,0.001534
1109.0,0.001537
1110.0,0.001848
1111.0,0.001154
1112.0,0.001512
1113.0,0.0008783
1114.0,0.0009912
1115.0,0.0008015
1116.0,0.0006101
1117.0,0.0001987
1118.0,0.0006684
1119.0,0.0003036
1120.0,0.0003855
1121.0,0.000526
1122.0,0.0002019
1123.0,0.0003426
1124.0,0.0002851
1125.0,0.00038
1126.0,0.0001189
1127.0,0.0004295
1128.0,0.0002402
1129.0,0.0002558
1130.0,0.0001624
1131.0,0.0008772
1132.0,0.000664
1133.0,0.0003917
1134.0,8.909e-05
1135.0,3.273e-05
1136.0,0.0003154
1137.0,0.0008376
1138.0,0.0005666
1139.0,0.000908
1140.0,0.0007298
1141.0,0.0005309
1142.0,0.0006216
1143.0,0.0009255
1144.0,0.0002823
1145.0,0.0003617
1146.0,0.0003904
1147.0,0.0001237
1148.0,0.0007737
1149.0,0.0005936
1150.0,0.0003003
1151.0,0.000537
1152.0,0.0006822
1153.0,0.0006682
1154.0,0.0003388
1155.0,0.0009013
1156.0,0.0007933
1157.0,0.0009104
1158.0,0.0008962
1159.0,0.0009826
1160.0,0.0008139
1161.0,0.001046
1162.0,0.001042
1163.0,0.001497
1164.0,0.001241
1165.0,0.001146
1166.0,0.001142
1167.0,0.001259
1168.0,0.001268
1169.0,0.001306
1170.0,0.001437
1171.0,0.00139
1172.0,0.001421
1173.0,0.001419
1174.0,0.0009443
1175.0,0.001384
1176.0,0.001547
1177.0,0.001462
1178.0,0.001036
1179.0,0.001545
1180.0,0.001336
1181.0,0.001382
1182.0,0.0008882
1183.0,0.00136
1184.0,0.001247
1185.0,0.001186
1186.0,0.001456
1187.0,0.001366
1188.0,0.0008884
1189.0,0.001257
1190.0,0.001402
1191.0,0.001305
1192.0,0.001416
1193.0,0.00134
1194.0,0.001387
1195.0,0.001292
1196.0,0.001229
1197.0,0.001386
1198.0,0.001245
1199.0,0.00102
1200.0,0.001297
1201.0,0.001235
1202.0,0.001228
1203.0,0.001219
1204.0,0.001032
1205.0,0.001256
1206.0,0.001413
1207.0,0.001207
1208.0,0.001195
1209.0,0.001217
1210.0,0.001274
1211.0,0.001195
1212.0,0.001166
1213.0,0.00133
1214.0,0.001194
1215.0,0.001163
1216.0,0.001314
1217.0,0.001267
1218.0,0.001294
1219.0,0.001271
1220.0,0.001287
1221.0,0.0013
1222.0,0.001257
1223.0,0.001239
1224.0,0.001223
1225.0,0.001275
1226.0,0.001284
1227.0,0.001162
1228.0,0.001285
1229.0,0.001272
1230.0,0.001243
1231.0,0.001285
1232.0,0.001272
1233.0,0.001212
1234.0,0.001274
1235.0,0.00126
1236.0,0.001266
1237.0,0.00124
1238.0,0.001254
1239.0,0.001234
1240.0,0.001235
1241.0,0.001222
1242.0,0.001218
1243.0,0.001204
1244.0,0.001208
1245.0,0.00121
1246.0,0.001199
1247.0,0.001189
1248.0,0.001183
1249.0,0.001185
1250.0,0.001173
1251.0,0.001152
1252.0,0.001151
1253.0,0.001134
1254.0,0.001115
1255.0,0.001138
1256.0,0.001094
1257.0,0.001083
1258.0,0.001106
1259.0,0.001051
1260.0,0.001055
1261.0,0.0009779
1262.0,0.0009385
1263.0,0.0009371
1264.0,0.0008463
1265.0,0.0009261
1266.0,0.0008788
1267.0,0.0008982
1268.0,0.0008386
1269.0,0.0004648
1270.0,0.0008849
1271.0,0.0009495
1272.0,0.0009512
1273.0,0.0009365
1274.0,0.0009386
1275.0,0.000952
1276.0,0.0009609
1277.0,0.0009671
1278.0,0.0009885
1279.0,0.000976
1280.0,0.0009609
1281.0,0.0009167
1282.0,0.000885
1283.0,0.0009493
1284.0,0.0009679
1285.0,0.000972
1286.0,0.0009846
1287.0,0.0009616
1288.0,0.0009596
1289.0,0.0009176
1290.0,0.0009456
1291.0,0.0009572
1292.0,0.0008801
1293.0,0.0009284
1294.0,0.0009179
1295.0,0.0009072
1296.0,0.0008529
1297.0,0.0007955
1298.0,0.0008702
1299.0,0.0009136
1300.0,0.0007411
1301.0,0.0007676
1302.0,0.0008578
1303.0,0.0007262
1304.0,0.0005945
1305.0,0.000829
1306.0,0.0008257
1307.0,0.0006065
1308.0,0.0007175
1309.0,0.0008099
1310.0,0.0005877
1311.0,0.0006759
1312.0,0.0006541
1313.0,0.0006348
1314.0,0.0005538
1315.0,0.0005444
1316.0,0.0006531
1317.0,0.0006103
1318.0,0.0006737
1319.0,0.0004965
1320.0,0.0004797
1321.0,0.0005726
1322.0,0.0005753
1323.0,0.0004083
1324.0,0.0004789
1325.0,0.000624
1326.0,0.0005178
1327.0,0.0004878
1328.0,0.0004092
1329.0,0.000291
1330.0,0.0003916
1331.0,0.0002177
1332.0,0.0002266
1333.0,0.0003259
1334.0,0.0002739
1335.0,0.0003921
1336.0,0.0002972
1337.0,0.0002575
1338.0,0.0002799
1339.0,0.0002789
1340.0,0.0002711
1341.0,0.0002593
1342.0,0.0002733
1343.0,0.0001721
1344.0,9.962e-05
1345.0,0.0001467
1346.0,6.751e-05
1347.0,6.812e-05
1348.0,4.094e-06
1349.0,1.49e-05
1350.0,1.549e-05
1351.0,3.667e-06
1352.0,9.805e-07
1353.0,4.98e-08
1354.0,1.713e-07
1355.0,1.378e-09
1356.0,2.412e-08
1357.0,3.664e-08
1358.0,1.618e-09
1359.0,2.038e-10
1360.0,7.365e-10
