interpolation:linear
wavelength,value
280.0,5.002e-23
280.5,1.683e-21
281.0,9.117e-21
281.5,2.965e-19
282.0,4.95e-19
282.5,1.15e-18
283.0,3.546e-18
283.5,5.755e-18
284.0,9.418e-17
284.5,2.764e-16
285.0,7.048e-16
285.5,2.96e-15
286.0,1.159e-14
286.5,5.016e-14
287.0,1.418e-13
287.5,5.409e-13
288.0,1.732e-12
288.5,4.937e-12
289.0,1.274e-11
289.5,3.775e-11
290.0,1.042e-10
290.5,2.122e-10
291.0,4.561e-10
291.5,1.313e-09
292.0,2.692e-09
292.5,3.744e-09
293.0,7.947e-09
293.5,1.91e-08
294.0,2.977e-08
294.5,3.659e-08
295.0,6.151e-08
295.5,1.042e-07
296.0,1.952e-07
296.5,2.647e-07
297.0,3.485e-07
297.5,8.946e-07
298.0,1.353e-06
298.5,1.316e-06
299.0,2.802e-06
299.5,4.358e-06
300.0,4.607e-06
300.5,6.396e-06
301.0,1.077e-05
301.5,1.6e-05
302.0,1.318e-05
302.5,2.521e-05
303.0,4.385e-05
303.5,5.459e-05
304.0,5.208e-05
304.5,8.125e-05
305.0,0.0001322
305.5,0.0001588
306.0,0.0001567
306.5,0.0002016
307.0,0.0003232
307.5,0.000465
308.0,0.0004972
308.5,0.0006113
309.0,0.0006744
309.5,0.000941
310.0,0.001036
310.5,0.001756
311.0,0.002374
311.5,0.002367
312.0,0.002786
312.5,0.003779
313.0,0.004338
313.5,0.00399
314.0,0.005685
314.5,0.006004
315.0,0.008133
315.5,0.006239
316.0,0.006281
316.5,0.0102
317.0,0.01262
317.5,0.01266
318.0,0.01074
318.5,0.01569
319.0,0.02021
319.5,0.0144
320.0,0.01704
320.5,0.02519
321.0,0.02609
321.5,0.02537
322.0,0.02294
322.5,0.0201
323.0,0.02224
323.5,0.03198
324.0,0.03803
324.5,0.03668
325.0,0.02838
325.5,0.03977
326.0,0.05297
326.5,0.05643
327.0,0.05489
327.5,0.0514
328.0,0.04198
328.5,0.04884
329.0,0.06331
329.5,0.07356
330.0,0.07266
330.5,0.05458
331.0,0.05438
331.5,0.05782
332.0,0.06669
332.5,0.06792
333.0,0.06648
333.5,0.0572
334.0,0.05806
334.5,0.07077
335.0,0.06862
335.5,0.08143
336.0,0.05628
336.5,0.06368
337.0,0.05096
337.5,0.06276
338.0,0.06411
338.5,0.07562
339.0,0.07495
339.5,0.0719
340.0,0.08262
340.5,0.07473
341.0,0.07413
341.5,0.06832
342.0,0.08168
342.5,0.07645
343.0,0.0837
343.5,0.07857
344.0,0.05696
344.5,0.05831
345.0,0.07749
345.5,0.07922
346.0,0.06737
346.5,0.07629
347.0,0.08157
347.5,0.06581
348.0,0.07519
348.5,0.07523
349.0,0.06978
349.5,0.06897
350.0,0.08524
350.5,0.0898
351.0,0.07997
351.5,0.0773
352.0,0.08314
352.5,0.06494
353.0,0.08182
353.5,0.08747
354.0,0.09076
354.5,0.09193
355.0,0.09143
355.5,0.08254
356.0,0.0863
356.5,0.0736
357.0,0.06072
357.5,0.07426
358.0,0.0588
358.5,0.05019
359.0,0.07008
359.5,0.08906
360.0,0.09432
360.5,0.07533
361.0,0.06862
361.5,0.07894
362.0,0.0682
362.5,0.09427
363.0,0.08456
363.5,0.07778
364.0,0.095
364.5,0.08108
365.0,0.08246
365.5,0.1034
366.0,0.1094
366.5,0.1026
367.0,0.09982
367.5,0.1034
368.0,0.09039
368.5,0.09106
369.0,0.09821
369.5,0.1045
370.0,0.1113
370.5,0.08626
371.0,0.09204
371.5,0.115
372.0,0.07621
372.5,0.09124
373.0,0.09267
373.5,0.06021
374.0,0.08735
374.5,0.07223
375.0,0.07011
375.5,0.1045
376.0,0.08651
376.5,0.08951
377.0,0.09463
377.5,0.1105
378.0,0.1196
378.5,0.1129
379.0,0.09301
379.5,0.08482
380.0,0.08804
380.5,0.1065
381.0,0.1065
381.5,0.0843
382.0,0.07474
382.5,0.06361
383.0,0.05879
383.5,0.05654
384.0,0.06226
384.5,0.09143
385.0,0.09052
385.5,0.08417
386.0,0.07196
386.5,0.09437
387.0,0.07828
387.5,0.08777
388.0,0.0809
388.5,0.07983
389.0,0.08602
389.5,0.104
390.0,0.1042
390.5,0.09572
391.0,0.1125
391.5,0.1145
392.0,0.09628
392.5,0.08605
393.0,0.04779
393.5,0.03468
394.0,0.07044
394.5,0.0894
395.0,0.1089
395.5,0.1104
396.0,0.09556
396.5,0.05576
397.0,0.04177
397.5,0.0848
398.0,0.1185
398.5,0.1223
399.0,0.1322
399.5,0.1315
400.0,0.1363
401.0,0.1342
402.0,0.141
403.0,0.1334
404.0,0.1308
405.0,0.1303
406.0,0.1276
407.0,0.125
408.0,0.1293
409.0,0.1378
410.0,0.1199
411.0,0.1294
412.0,0.1384
413.0,0.1344
414.0,0.1355
415.0,0.1353
416.0,0.137
417.0,0.133
418.0,0.1299
419.0,0.1311
420.0,0.1299
421.0,0.1353
422.0,0.1279
423.0,0.1243
424.0,0.1308
425.0,0.1299
426.0,0.1259
427.0,0.123
428.0,0.1194
429.0,0.1126
430.0,0.09808
431.0,0.0967
432.0,0.1242
433.0,0.1242
434.0,0.1148
435.0,0.1193
436.0,0.1338
437.0,0.1314
438.0,0.119
439.0,0.1223
440.0,0.1254
441.0,0.1291
442.0,0.1377
443.0,0.1334
444.0,0.1357
445.0,0.1322
446.0,0.1257
447.0,0.1353
448.0,0.1365
449.0,0.1362
450.0,0.1392
451.0,0.1435
452.0,0.1376
453.0,0.1288
454.0,0.1338
455.0,0.1338
456.0,0.1361
457.0,0.1373
458.0,0.1316
459.0,0.1299
460.0,0.1293
461.0,0.1314
462.0,0.1317
463.0,0.1303
464.0,0.1277
465.0,0.1257
466.0,0.1264
467.0,0.1233
468.0,0.1238
469.0,0.1236
470.0,0.1189
471.0,0.1181
472.0,0.1238
473.0,0.1215
474.0,0.121
475.0,0.1211
476.0,0.1164
477.0,0.1157
478.0,0.1179
479.0,0.116
480.0,0.1152
481.0,0.1163
482.0,0.1161
483.0,0.1141
484.0,0.1114
485.0,0.1058
486.0,0.09219
487.0,0.0962
488.0,0.1049
489.0,0.1045
490.0,0.1092
491.0,0.1065
492.0,0.09998
493.0,0.1027
494.0,0.1031
495.0,0.1033
496.0,0.1033
497.0,0.104
498.0,0.09823
499.0,0.09847
500.0,0.09461
501.0,0.09188
502.0,0.08957
503.0,0.09221
504.0,0.08893
505.0,0.09153
506.0,0.09394
507.0,0.08897
508.0,0.0859
509.0,0.08803
510.0,0.08719
511.0,0.08905
512.0,0.08942
513.0,0.084
514.0,0.08277
515.0,0.0813
516.0,0.08048
517.0,0.07099
518.0,0.07409
519.0,0.07713
520.0,0.07929
521.0,0.07936
522.0,0.07871
523.0,0.07667
524.0,0.07861
525.0,0.0787
526.0,0.07442
527.0,0.06935
528.0,0.07255
529.0,0.07574
530.0,0.07396
531.0,0.07437
532.0,0.07123
533.0,0.06864
534.0,0.07023
535.0,0.07136
536.0,0.07162
537.0,0.0684
538.0,0.06916
539.0,0.06811
540.0,0.06481
541.0,0.06468
542.0,0.06611
543.0,0.06488
544.0,0.06548
545.0,0.06482
546.0,0.06459
547.0,0.06411
548.0,0.06291
549.0,0.06268
550.0,0.06298
551.0,0.06177
552.0,0.06175
553.0,0.0602
554.0,0.06117
555.0,0.06081
556.0,0.05952
557.0,0.05716
558.0,0.05618
559.0,0.05457
560.0,0.05471
561.0,0.05487
562.0,0.05392
563.0,0.05486
564.0,0.0529
565.0,0.05199
566.0,0.0508
567.0,0.05131
568.0,0.05039
569.0,0.04869
570.0,0.04832
571.0,0.04767
572.0,0.04836
573.0,0.04854
574.0,0.04808
575.0,0.0469
576.0,0.04624
577.0,0.04654
578.0,0.04568
579.0,0.04573
580.0,0.0465
581.0,0.04662
582.0,0.04735
583.0,0.04732
584.0,0.04756
585.0,0.04619
586.0,0.04499
587.0,0.04568
588.0,0.04418
589.0,0.03864
590.0,0.04018
591.0,0.04239
592.0,0.04145
593.0,0.04183
594.0,0.04112
595.0,0.03966
596.0,0.04109
597.0,0.04024
598.0,0.03985
599.0,0.03957
600.0,0.03938
601.0,0.03884
602.0,0.03835
603.0,0.03879
604.0,0.03926
605.0,0.03891
606.0,0.03865
607.0,0.03895
608.0,0.03844
609.0,0.03843
610.0,0.03809
611.0,0.03822
612.0,0.03804
613.0,0.03748
614.0,0.0369
615.0,0.03762
616.0,0.0363
617.0,0.03613
618.0,0.03743
619.0,0.03694
620.0,0.03704
621.0,0.03692
622.0,0.03634
623.0,0.03564
624.0,0.0349
625.0,0.03469
626.0,0.03508
627.0,0.0353
628.0,0.03226
629.0,0.034
630.0,0.03308
631.0,0.03391
632.0,0.03343
633.0,0.03443
634.0,0.03406
635.0,0.03451
636.0,0.03398
637.0,0.03447
638.0,0.03475
639.0,0.03428
640.0,0.03388
641.0,0.03377
642.0,0.03355
643.0,0.03391
644.0,0.03372
645.0,0.03364
646.0,0.03267
647.0,0.032
648.0,0.03193
649.0,0.03117
650.0,0.03141
651.0,0.03269
652.0,0.03101
653.0,0.03204
654.0,0.03158
655.0,0.03018
656.0,0.02673
657.0,0.02737
658.0,0.03064
659.0,0.03078
660.0,0.03081
661.0,0.03092
662.0,0.03084
663.0,0.03014
664.0,0.03044
665.0,0.0304
666.0,0.03034
667.0,0.03024
668.0,0.03018
669.0,0.03055
670.0,0.03031
671.0,0.03022
672.0,0.02988
673.0,0.03025
674.0,0.03004
675.0,0.02966
676.0,0.02976
677.0,0.02938
678.0,0.02937
679.0,0.0288
680.0,0.02892
681.0,0.02862
682.0,0.02846
683.0,0.02829
684.0,0.02802
685.0,0.02815
686.0,0.02786
687.0,0.01673
688.0,0.02009
689.0,0.02011
690.0,0.02126
691.0,0.02263
692.0,0.02368
693.0,0.02338
694.0,0.02315
695.0,0.02427
696.0,0.02422
697.0,0.02595
698.0,0.02545
699.0,0.02451
700.0,0.02411
701.0,0.02368
702.0,0.02384
703.0,0.02381
704.0,0.0246
705.0,0.02452
706.0,0.02444
707.0,0.02438
708.0,0.02432
709.0,0.02433
710.0,0.02417
711.0,0.02408
712.0,0.02397
713.0,0.02357
714.0,0.02356
715.0,0.02261
716.0,0.02251
717.0,0.01874
718.0,0.01705
719.0,0.01546
720.0,0.01611
721.0,0.01807
722.0,0.02108
723.0,0.01929
724.0,0.01703
725.0,0.01663
726.0,0.01739
727.0,0.01768
728.0,0.01637
729.0,0.01712
730.0,0.01802
731.0,0.01711
732.0,0.01848
733.0,0.0197
734.0,0.02016
735.0,0.01961
736.0,0.01948
737.0,0.01947
738.0,0.01987
739.0,0.01939
740.0,0.01986
741.0,0.0196
742.0,0.01956
743.0,0.01996
744.0,0.01982
745.0,0.01975
746.0,0.01974
747.0,0.0197
748.0,0.01956
749.0,0.01925
750.0,0.01917
751.0,0.01891
752.0,0.01892
753.0,0.01894
754.0,0.01891
755.0,0.01873
756.0,0.01865
757.0,0.0186
758.0,0.01828
759.0,0.0177
760.0,0.002546
761.0,0.001353
762.0,0.007789
763.0,0.003806
764.0,0.005708
765.0,0.007676
766.0,0.009656
767.0,0.01264
768.0,0.01516
769.0,0.01558
770.0,0.01625
771.0,0.0164
772.0,0.01638
773.0,0.01641
774.0,0.01625
775.0,0.01604
776.0,0.01616
777.0,0.01586
778.0,0.01568
779.0,0.01561
780.0,0.01545
781.0,0.0154
782.0,0.01544
783.0,0.01512
784.0,0.01514
785.0,0.01497
786.0,0.01507
787.0,0.01466
788.0,0.01439
789.0,0.01432
790.0,0.01377
791.0,0.01394
792.0,0.01379
793.0,0.0135
794.0,0.01378
795.0,0.01392
796.0,0.01329
797.0,0.01324
798.0,0.01371
799.0,0.01354
800.0,0.01321
801.0,0.01307
802.0,0.01297
803.0,0.01279
804.0,0.01277
805.0,0.01271
806.0,0.01308
807.0,0.01284
808.0,0.01279
809.0,0.01243
810.0,0.01223
811.0,0.01214
812.0,0.01161
813.0,0.01128
814.0,0.00963
815.0,0.009537
816.0,0.00876
817.0,0.008894
818.0,0.008484
819.0,0.009643
820.0,0.008976
821.0,0.01079
822.0,0.01038
823.0,0.006589
824.0,0.009899
825.0,0.01044
826.0,0.009895
827.0,0.01053
828.0,0.008583
829.0,0.009743
830.0,0.009559
831.0,0.009554
832.0,0.009164
833.0,0.009873
834.0,0.0094
835.0,0.01051
836.0,0.009854
837.0,0.01044
838.0,0.01001
839.0,0.0102
840.0,0.01039
841.0,0.01016
842.0,0.01019
843.0,0.01019
844.0,0.009974
845.0,0.0103
846.0,0.01022
847.0,0.009993
848.0,0.009859
849.0,0.00953
850.0,0.009086
851.0,0.009543
852.0,0.009438
853.0,0.009058
854.0,0.00777
855.0,0.008526
856.0,0.009272
857.0,0.009461
858.0,0.00935
859.0,0.009331
860.0,0.009318
861.0,0.009231
862.0,0.009348
863.0,0.009538
864.0,0.009029
865.0,0.008918
866.0,0.007988
867.0,0.008304
868.0,0.009002
869.0,0.008781
870.0,0.008997
871.0,0.008838
872.0,0.008772
873.0,0.008719
874.0,0.008578
875.0,0.008367
876.0,0.008415
877.0,0.008466
878.0,0.008517
879.0,0.008351
880.0,0.008138
881.0,0.007971
882.0,0.008106
883.0,0.008108
884.0,0.00803
885.0,0.008052
886.0,0.007606
887.0,0.007683
888.0,0.007747
889.0,0.007831
890.0,0.007693
891.0,0.007669
892.0,0.007373
893.0,0.007063
894.0,0.006685
895.0,0.006173
896.0,0.005732
897.0,0.004772
898.0,0.005251
899.0,0.003826
900.0,0.005406
901.0,0.004007
902.0,0.004832
903.0,0.004814
904.0,0.006359
905.0,0.006074
906.0,0.005615
907.0,0.004336
908.0,0.004448
909.0,0.004878
910.0,0.004169
911.0,0.004522
912.0,0.004718
913.0,0.004176
914.0,0.004143
915.0,0.004489
916.0,0.003732
917.0,0.004886
918.0,0.003796
919.0,0.004969
920.0,0.005089
921.0,0.005292
922.0,0.004603
923.0,0.00508
924.0,0.004661
925.0,0.004538
926.0,0.004563
927.0,0.005185
928.0,0.003532
929.0,0.00316
930.0,0.002388
931.0,0.002245
932.0,0.001556
933.0,0.001242
934.0,0.0006568
935.0,0.001269
936.0,0.0007703
937.0,0.000777
938.0,0.0009577
939.0,0.002098
940.0,0.002571
941.0,0.00187
942.0,0.002183
943.0,0.001383
944.0,0.001478
945.0,0.001903
946.0,0.0009189
947.0,0.001888
948.0,0.001365
949.0,0.002583
950.0,0.000654
951.0,0.002526
952.0,0.00128
953.0,0.001685
954.0,0.002112
955.0,0.001699
956.0,0.001682
957.0,0.001257
958.0,0.002441
959.0,0.001858
960.0,0.002087
961.0,0.002389
962.0,0.002245
963.0,0.002641
964.0,0.002386
965.0,0.002605
966.0,0.002597
967.0,0.002565
968.0,0.003707
969.0,0.003833
970.0,0.003467
971.0,0.004102
972.0,0.003864
973.0,0.00322
974.0,0.003031
975.0,0.003163
976.0,0.00293
977.0,0.003474
978.0,0.003223
979.0,0.003401
980.0,0.003156
981.0,0.003925
982.0,0.003688
983.0,0.003497
984.0,0.004065
985.0,0.003627
986.0,0.004147
987.0,0.004012
988.0,0.003991
989.0,0.004112
990.0,0.003932
991.0,0.004077
992.0,0.004092
993.0,0.003948
994.0,0.004068
995.0,0.004056
996.0,0.004016
997.0,0.004012
998.0,0.003976
999.0,0.00395
1000.0,0.003897
1001.0,0.003943
1002.0,0.003772
1003.0,0.003841
1004.0,0.00372
1005.0,0.003587
1006.0,0.003704
1007.0,0.003772
1008.0,0.00373
1009.0,0.003687
1010.0,0.003653
1011.0,0.003698
1012.0,0.003643
1013.0,0.003664
1014.0,0.003625
1015.0,0.003587
1016.0,0.003555
1017.0,0.003549
1018.0,0.003528
1019.0,0.003421
1020.0,0.003479
1021.0,0.003464
1022.0,0.003418
1023.0,0.00344
1024.0,0.003366
1025.0,0.003419
1026.0,0.003386
1027.0,0.003366
1028.0,0.003346
1029.0,0.003292
1030.0,0.003309
1031.0,0.00328
1032.0,0.00326
1033.0,0.003198
1034.0,0.003187
1035.0,0.003185
1036.0,0.003187
1037.0,0.003124
1038.0,0.003126
1039.0,0.003112
1040.0,0.003087
1041.0,0.003086
1042.0,0.003053
1043.0,0.003031
1044.0,0.003029
1045.0,0.002976
1046.0,0.00293
1047.0,0.002945
1048.0,0.002949
1049.0,0.002927
1050.0,0.002901
1051.0,0.002885
1052.0,0.002861
1053.0,0.002827
1054.0,0.002821
1055.0,0.002809
1056.0,0.002786
1057.0,0.002766
1058.0,0.002686
1059.0,0.002677
1060.0,0.002662
1061.0,0.002647
1062.0,0.002649
1063.0,0.002612
1064.0,0.002634
1065.0,0.0026
1066.0,0.002543
1067.0,0.002565
1068.0,0.002496
1069.0,0.002413
1070.0,0.002482
1071.0,0.002524
1072.0,0.002477
1073.0,0.002435
1074.0,0.002503
1075.0,0.002337
1076.0,0.002481
1077.0,0.00241
1078.0,0.002347
1079.0,0.002421
1080.0,0.002344
1081.0,0.002247
1082.0,0.002303
1083.0,0.002309
1084.0,0.002208
1085.0,0.002312
1086.0,0.002053
1087.0,0.002147
1088.0,0.00226
1089.0,0.002149
1090.0,0.002077
1091.0,0.002219
1092.0,0.002211
1093.0,0.001786
1094.0,0.001998
1095.0,0.001854
1096.0,0.001748
1097.0,0.002123
1098.0,0.001699
1099.0,0.001776
1100.0,0.001615
1101.0,0.001641
1102.0,0.001543
1103.0,0.001509
1104.0,0.001509
1105.0,0.00169
1106.0,0.001196
1107.0,0.001576
1108.0,0.001273
1109.0,0.001275
1110.0,0.001532
1111.0,0.0009584
1112.0,0.001254
1113.0,0.0007359
1114.0,0.0008238
1115.0,0.0006719
1116.0,0.0005165
1117.0,0.0001784
1118.0,0.0005619
1119.0,0.0002658
1120.0,0.0003332
1121.0,0.0004462
1122.0,0.0001805
1123.0,0.0002977
1124.0,0.0002499
1125.0,0.0003278
1126.0,0.0001088
1127.0,0.0003682
1128.0,0.000213
1129.0,0.0002258
1130.0,0.0001467
1131.0,0.0007216
1132.0,0.0005547
1133.0,0.000337
1134.0,8.222e-05
1135.0,3.079e-05
1136.0,0.0002749
1137.0,0.0006894
1138.0,0.0004763
1139.0,0.0007498
1140.0,0.0006066
1141.0,0.0004479
1142.0,0.00052
1143.0,0.0007602
1144.0,0.0002464
1145.0,0.0003115
1146.0,0.0003349
1147.0,0.0001129
1148.0,0.0006397
1149.0,0.0004973
1150.0,0.0002618
1151.0,0.0004518
1152.0,0.0005667
1153.0,0.0005578
1154.0,0.0002933
1155.0,0.0007418
1156.0,0.0006556
1157.0,0.0007547
1158.0,0.0007431
1159.0,0.0008096
1160.0,0.00068
1161.0,0.0008689
1162.0,0.000866
1163.0,0.001245
1164.0,0.001033
1165.0,0.0009501
1166.0,0.0009549
1167.0,0.001051
1168.0,0.001058
1169.0,0.001087
1170.0,0.001201
1171.0,0.001163
1172.0,0.001195
1173.0,0.001186
1174.0,0.0007913
1175.0,0.001164
1176.0,0.00131
1177.0,0.00123
1178.0,0.0008732
1179.0,0.001307
1180.0,0.001123
1181.0,0.00116
1182.0,0.0007461
1183.0,0.001142
1184.0,0.001046
1185.0,0.0009928
1186.0,0.001226
1187.0,0.001146
1188.0,0.0007406
1189.0,0.001056
1190.0,0.001184
1191.0,0.001091
1192.0,0.001197
1193.0,0.00113
1194.0,0.00117
1195.0,0.001083
1196.0,0.001029
1197.0,0.00117
1198.0,0.001054
1199.0,0.0008527
1200.0,0.001093
1201.0,0.001035
1202.0,0.001037
1203.0,0.001021
1204.0,0.0008669
1205.0,0.001063
1206.0,0.001198
1207.0,0.001015
1208.0,0.001009
1209.0,0.001027
1210.0,0.001078
1211.0,0.001008
1212.0,0.0009723
1213.0,0.001121
1214.0,0.0009975
1215.0,0.000973
1216.0,0.00111
1217.0,0.001069
1218.0,0.001093
1219.0,0.001071
1220.0,0.001088
1221.0,0.001102
1222.0,0.001064
1223.0,0.001047
1224.0,0.001029
1225.0,0.001078
1226.0,0.001089
1227.0,0.0009778
1228.0,0.001091
1229.0,0.001079
1230.0,0.001053
1231.0,0.001093
1232.0,0.001082
1233.0,0.001024
1234.0,0.001086
1235.0,0.001072
1236.0,0.001079
1237.0,0.001054
1238.0,0.001069
1239.0,0.001051
1240.0,0.001053
1241.0,0.00104
1242.0,0.001038
1243.0,0.001027
1244.0,0.001029
1245.0,0.001031
1246.0,0.001022
1247.0,0.001013
1248.0,0.001007
1249.0,0.001009
1250.0,0.0009982
1251.0,0.0009791
1252.0,0.0009801
1253.0,0.0009621
1254.0,0.0009443
1255.0,0.000968
1256.0,0.0009252
1257.0,0.0009146
1258.0,0.0009387
1259.0,0.0008832
1260.0,0.0008874
1261.0,0.0008138
1262.0,0.0007769
1263.0,0.0007756
1264.0,0.0006931
1265.0,0.0007664
1266.0,0.0007226
1267.0,0.0007417
1268.0,0.0006878
1269.0,0.0003778
1270.0,0.0007291
1271.0,0.0007907
1272.0,0.0007926
1273.0,0.0007794
1274.0,0.0007826
1275.0,0.0007951
1276.0,0.0008045
1277.0,0.0008126
1278.0,0.0008339
1279.0,0.0008239
1280.0,0.0008109
1281.0,0.0007755
1282.0,0.0007517
1283.0,0.0008056
1284.0,0.0008211
1285.0,0.0008252
1286.0,0.0008374
1287.0,0.000815
1288.0,0.0008145
1289.0,0.0007733
1290.0,0.0008028
1291.0,0.0008138
1292.0,0.0007396
1293.0,0.0007876
1294.0,0.0007786
1295.0,0.0007651
1296.0,0.0007153
1297.0,0.0006653
1298.0,0.0007336
1299.0,0.0007757
1300.0,0.0006214
1301.0,0.0006436
1302.0,0.0007238
1303.0,0.0006093
1304.0,0.0004944
1305.0,0.0006995
1306.0,0.0006943
1307.0,0.0005067
1308.0,0.0006037
1309.0,0.0006782
1310.0,0.0004899
1311.0,0.0005674
1312.0,0.0005489
1313.0,0.0005293
1314.0,0.0004613
1315.0,0.0004519
1316.0,0.0005465
1317.0,0.0005103
1318.0,0.000565
1319.0,0.0004128
1320.0,0.0004004
1321.0,0.0004776
1322.0,0.0004773
1323.0,0.0003385
1324.0,0.0003993
1325.0,0.0005199
1326.0,0.0004311
1327.0,0.0004058
1328.0,0.0003407
1329.0,0.0002429
1330.0,0.0003241
1331.0,0.000184
1332.0,0.0001909
1333.0,0.0002692
1334.0,0.0002314
1335.0,0.0003236
1336.0,0.0002474
1337.0,0.0002167
1338.0,0.0002339
1339.0,0.0002328
1340.0,0.0002276
1341.0,0.0002162
1342.0,0.0002277
1343.0,0.0001472
1344.0,8.757e-05
1345.0,0.000126
1346.0,6.091e-05
1347.0,6.162e-05
