interpolation:linear
wavelength,value
280.0,5.412e-23
280.5,1.819e-21
281.0,9.848e-21
281.5,3.199e-19
282.0,4.988e-19
282.5,1.165e-18
283.0,3.6e-18
283.5,5.844e-18
284.0,9.572e-17
284.5,2.808e-16
285.0,6.761e-16
285.5,2.91e-15
286.0,1.144e-14
286.5,4.978e-14
287.0,1.411e-13
287.5,5.392e-13
288.0,1.756e-12
288.5,5.015e-12
289.0,1.295e-11
289.5,3.839e-11
290.0,1.059e-10
290.5,2.158e-10
291.0,4.636e-10
291.5,1.334e-09
292.0,2.733e-09
292.5,3.802e-09
293.0,8.073e-09
293.5,1.941e-08
294.0,3.026e-08
294.5,3.752e-08
295.0,6.309e-08
295.5,1.071e-07
296.0,2.01e-07
296.5,2.729e-07
297.0,3.598e-07
297.5,9.258e-07
298.0,1.403e-06
298.5,1.367e-06
299.0,2.914e-06
299.5,4.544e-06
300.0,4.811e-06
300.5,6.689e-06
301.0,1.129e-05
301.5,1.681e-05
302.0,1.386e-05
302.5,2.655e-05
303.0,4.635e-05
303.5,5.785e-05
304.0,5.527e-05
304.5,8.654e-05
305.0,0.0001414
305.5,0.0001704
306.0,0.0001682
306.5,0.0002168
307.0,0.0003487
307.5,0.0005029
308.0,0.000538
308.5,0.0006622
309.0,0.0007424
309.5,0.001032
310.0,0.001134
310.5,0.00192
311.0,0.002592
311.5,0.002582
312.0,0.003028
312.5,0.004097
313.0,0.004695
313.5,0.004324
314.0,0.006142
314.5,0.006458
315.0,0.008741
315.5,0.006719
316.0,0.00674
316.5,0.01091
317.0,0.0135
317.5,0.01356
318.0,0.01147
318.5,0.01669
319.0,0.02144
319.5,0.01533
320.0,0.01815
320.5,0.02671
321.0,0.02755
321.5,0.02678
322.0,0.02432
322.5,0.0213
323.0,0.0235
323.5,0.03348
324.0,0.03977
324.5,0.03844
325.0,0.02997
325.5,0.0419
326.0,0.05535
326.5,0.05882
327.0,0.05726
327.5,0.05368
328.0,0.04399
328.5,0.05097
329.0,0.06586
329.5,0.07646
330.0,0.07558
330.5,0.0569
331.0,0.05673
331.5,0.06021
332.0,0.06928
332.5,0.07048
333.0,0.06902
333.5,0.05949
334.0,0.06039
334.5,0.07347
335.0,0.07115
335.5,0.08436
336.0,0.05831
336.5,0.06606
337.0,0.0529
337.5,0.06516
338.0,0.06646
338.5,0.0783
339.0,0.07759
339.5,0.07444
340.0,0.08562
340.5,0.07743
341.0,0.07673
341.5,0.07069
342.0,0.08449
342.5,0.07907
343.0,0.08658
343.5,0.08128
344.0,0.05898
344.5,0.06033
345.0,0.08014
345.5,0.08191
346.0,0.06965
346.5,0.07886
347.0,0.08432
347.5,0.06803
348.0,0.07771
348.5,0.07774
349.0,0.07209
349.5,0.07126
350.0,0.08806
350.5,0.09276
351.0,0.08261
351.5,0.07986
352.0,0.08588
352.5,0.06707
353.0,0.08449
353.5,0.09031
354.0,0.0937
354.5,0.0949
355.0,0.09439
355.5,0.0852
356.0,0.08907
356.5,0.07596
357.0,0.06266
357.5,0.07663
358.0,0.06067
358.5,0.05178
359.0,0.07229
359.5,0.09188
360.0,0.0973
360.5,0.0777
361.0,0.07078
361.5,0.08141
362.0,0.07032
362.5,0.0972
363.0,0.08719
363.5,0.08019
364.0,0.09794
364.5,0.08358
365.0,0.08499
365.5,0.1065
366.0,0.1127
366.5,0.1058
367.0,0.1029
367.5,0.1066
368.0,0.09313
368.5,0.09382
369.0,0.1012
369.5,0.1077
370.0,0.1146
370.5,0.08884
371.0,0.09479
371.5,0.1184
372.0,0.07847
372.5,0.09394
373.0,0.09541
373.5,0.06198
374.0,0.08992
374.5,0.07435
375.0,0.07217
375.5,0.1076
376.0,0.08903
376.5,0.09211
377.0,0.09737
377.5,0.1137
378.0,0.1231
378.5,0.1161
379.0,0.09568
379.5,0.08724
380.0,0.09055
380.5,0.1095
381.0,0.1095
381.5,0.08668
382.0,0.07685
382.5,0.0654
383.0,0.06044
383.5,0.05812
384.0,0.064
384.5,0.09398
385.0,0.09303
385.5,0.08649
386.0,0.07395
386.5,0.09697
387.0,0.08043
387.5,0.09017
388.0,0.0831
388.5,0.082
389.0,0.08835
389.5,0.1068
390.0,0.107
390.5,0.0983
391.0,0.1155
391.5,0.1176
392.0,0.09885
392.5,0.08833
393.0,0.04906
393.5,0.0356
394.0,0.0723
394.5,0.09176
395.0,0.1118
395.5,0.1133
396.0,0.09805
396.5,0.05721
397.0,0.04286
397.5,0.08699
398.0,0.1216
398.5,0.1254
399.0,0.1356
399.5,0.1349
400.0,0.1398
401.0,0.1376
402.0,0.1445
403.0,0.1367
404.0,0.1341
405.0,0.1335
406.0,0.1308
407.0,0.1281
408.0,0.1325
409.0,0.1412
410.0,0.1228
411.0,0.1325
412.0,0.1417
413.0,0.1376
414.0,0.1387
415.0,0.1384
416.0,0.1402
417.0,0.1361
418.0,0.1329
419.0,0.1341
420.0,0.1329
421.0,0.1383
422.0,0.1308
423.0,0.1271
424.0,0.1337
425.0,0.1327
426.0,0.1287
427.0,0.1258
428.0,0.122
429.0,0.115
430.0,0.1002
431.0,0.09877
432.0,0.1268
433.0,0.1268
434.0,0.1172
435.0,0.1218
436.0,0.1366
437.0,0.1341
438.0,0.1214
439.0,0.1248
440.0,0.128
441.0,0.1318
442.0,0.1405
443.0,0.1361
444.0,0.1384
445.0,0.1348
446.0,0.1282
447.0,0.1379
448.0,0.1392
449.0,0.1389
450.0,0.1419
451.0,0.1463
452.0,0.1403
453.0,0.1313
454.0,0.1364
455.0,0.1363
456.0,0.1387
457.0,0.1399
458.0,0.1341
459.0,0.1324
460.0,0.1317
461.0,0.1338
462.0,0.1341
463.0,0.1327
464.0,0.1301
465.0,0.128
466.0,0.1286
467.0,0.1255
468.0,0.1261
469.0,0.1258
470.0,0.121
471.0,0.1202
472.0,0.126
473.0,0.1237
474.0,0.1231
475.0,0.1232
476.0,0.1185
477.0,0.1177
478.0,0.1199
479.0,0.118
480.0,0.1172
481.0,0.1183
482.0,0.1181
483.0,0.1161
484.0,0.1133
485.0,0.1076
486.0,0.09374
487.0,0.09781
488.0,0.1067
489.0,0.1062
490.0,0.111
491.0,0.1083
492.0,0.1016
493.0,0.1043
494.0,0.1048
495.0,0.105
496.0,0.1049
497.0,0.1057
498.0,0.09981
499.0,0.1001
500.0,0.09614
501.0,0.09337
502.0,0.09102
503.0,0.09372
504.0,0.09038
505.0,0.09302
506.0,0.09546
507.0,0.09041
508.0,0.08726
509.0,0.08935
510.0,0.08848
511.0,0.09036
512.0,0.09073
513.0,0.08523
514.0,0.08398
515.0,0.08249
516.0,0.08166
517.0,0.07202
518.0,0.07517
519.0,0.07825
520.0,0.08045
521.0,0.08052
522.0,0.07986
523.0,0.07779
524.0,0.07976
525.0,0.07985
526.0,0.07552
527.0,0.07038
528.0,0.07363
529.0,0.07686
530.0,0.07507
531.0,0.07548
532.0,0.07229
533.0,0.06967
534.0,0.07127
535.0,0.07242
536.0,0.07268
537.0,0.06941
538.0,0.07018
539.0,0.06911
540.0,0.06577
541.0,0.06563
542.0,0.06709
543.0,0.06584
544.0,0.06645
545.0,0.06578
546.0,0.06555
547.0,0.06506
548.0,0.06384
549.0,0.0636
550.0,0.06391
551.0,0.06268
552.0,0.06266
553.0,0.06109
554.0,0.06207
555.0,0.0617
556.0,0.0604
557.0,0.05801
558.0,0.05701
559.0,0.05538
560.0,0.05553
561.0,0.0557
562.0,0.05473
563.0,0.05569
564.0,0.0537
565.0,0.05278
566.0,0.05157
567.0,0.05209
568.0,0.05115
569.0,0.04943
570.0,0.04905
571.0,0.0484
572.0,0.0491
573.0,0.04928
574.0,0.04881
575.0,0.04761
576.0,0.04694
577.0,0.04725
578.0,0.04637
579.0,0.04642
580.0,0.0472
581.0,0.04731
582.0,0.04806
583.0,0.04802
584.0,0.04826
585.0,0.04687
586.0,0.04565
587.0,0.04635
588.0,0.04482
589.0,0.03921
590.0,0.04077
591.0,0.04301
592.0,0.04205
593.0,0.04244
594.0,0.04173
595.0,0.04024
596.0,0.0417
597.0,0.04084
598.0,0.04044
599.0,0.04016
600.0,0.03997
601.0,0.03941
602.0,0.03892
603.0,0.03937
604.0,0.03984
605.0,0.03949
606.0,0.03922
607.0,0.03952
608.0,0.039
609.0,0.03898
610.0,0.03864
611.0,0.03877
612.0,0.03858
613.0,0.03801
614.0,0.03741
615.0,0.03814
616.0,0.0368
617.0,0.03663
618.0,0.03793
619.0,0.03744
620.0,0.03754
621.0,0.03742
622.0,0.03683
623.0,0.03611
624.0,0.03536
625.0,0.03515
626.0,0.03554
627.0,0.03576
628.0,0.03268
629.0,0.03445
630.0,0.03351
631.0,0.03434
632.0,0.03386
633.0,0.03487
634.0,0.03449
635.0,0.03495
636.0,0.03441
637.0,0.0349
638.0,0.03518
639.0,0.0347
640.0,0.03429
641.0,0.03418
642.0,0.03396
643.0,0.03432
644.0,0.03413
645.0,0.03404
646.0,0.03305
647.0,0.03238
648.0,0.0323
649.0,0.03154
650.0,0.03178
651.0,0.03307
652.0,0.03136
653.0,0.0324
654.0,0.03194
655.0,0.03053
656.0,0.02703
657.0,0.02768
658.0,0.03098
659.0,0.03112
660.0,0.03115
661.0,0.03126
662.0,0.03118
663.0,0.03047
664.0,0.03078
665.0,0.03073
666.0,0.03066
667.0,0.03056
668.0,0.0305
669.0,0.03088
670.0,0.03063
671.0,0.03053
672.0,0.03019
673.0,0.03057
674.0,0.03035
675.0,0.02997
676.0,0.03007
677.0,0.02968
678.0,0.02967
679.0,0.02909
680.0,0.02921
681.0,0.0289
682.0,0.02875
683.0,0.02857
684.0,0.0283
685.0,0.02843
686.0,0.02814
687.0,0.0169
688.0,0.0203
689.0,0.02032
690.0,0.02148
691.0,0.02286
692.0,0.02392
693.0,0.02362
694.0,0.02337
695.0,0.02451
696.0,0.02446
697.0,0.0262
698.0,0.02569
699.0,0.02475
700.0,0.02434
701.0,0.02391
702.0,0.02407
703.0,0.02404
704.0,0.02483
705.0,0.02475
706.0,0.02467
707.0,0.02461
708.0,0.02454
709.0,0.02456
710.0,0.0244
711.0,0.02431
712.0,0.02419
713.0,0.02379
714.0,0.02377
715.0,0.02282
716.0,0.02272
717.0,0.01891
718.0,0.01721
719.0,0.0156
720.0,0.01626
721.0,0.01823
722.0,0.02128
723.0,0.01947
724.0,0.01718
725.0,0.01678
726.0,0.01755
727.0,0.01784
728.0,0.01652
729.0,0.01727
730.0,0.01818
731.0,0.01726
732.0,0.01864
733.0,0.01988
734.0,0.02034
735.0,0.01978
736.0,0.01965
737.0,0.01964
738.0,0.02005
739.0,0.01956
740.0,0.02003
741.0,0.01977
742.0,0.01973
743.0,0.02013
744.0,0.01999
745.0,0.01992
746.0,0.01991
747.0,0.01987
748.0,0.01973
749.0,0.01942
750.0,0.01933
751.0,0.01907
752.0,0.01908
753.0,0.0191
754.0,0.01907
755.0,0.01888
756.0,0.0188
757.0,0.01875
758.0,0.01843
759.0,0.01785
760.0,0.002557
761.0,0.001358
762.0,0.007849
763.0,0.003825
764.0,0.005745
765.0,0.007735
766.0,0.00974
767.0,0.01276
768.0,0.01529
769.0,0.01571
770.0,0.01638
771.0,0.01653
772.0,0.01652
773.0,0.01655
774.0,0.01638
775.0,0.01618
776.0,0.01629
777.0,0.01599
778.0,0.01581
779.0,0.01574
780.0,0.01558
781.0,0.01553
782.0,0.01557
783.0,0.01525
784.0,0.01526
785.0,0.01509
786.0,0.01519
787.0,0.01478
788.0,0.0145
789.0,0.01443
790.0,0.01388
791.0,0.01405
792.0,0.0139
793.0,0.01361
794.0,0.01389
795.0,0.01404
796.0,0.01339
797.0,0.01334
798.0,0.01382
799.0,0.01365
800.0,0.01331
801.0,0.01317
802.0,0.01307
803.0,0.01289
804.0,0.01287
805.0,0.01281
806.0,0.01318
807.0,0.01294
808.0,0.01289
809.0,0.01253
810.0,0.01233
811.0,0.01223
812.0,0.01171
813.0,0.01137
814.0,0.009709
815.0,0.009615
816.0,0.008831
817.0,0.008966
818.0,0.008553
819.0,0.009723
820.0,0.009048
821.0,0.01088
822.0,0.01047
823.0,0.00664
824.0,0.00998
825.0,0.01052
826.0,0.009973
827.0,0.01061
828.0,0.008652
829.0,0.00982
830.0,0.009634
831.0,0.009629
832.0,0.009236
833.0,0.009951
834.0,0.009474
835.0,0.01059
836.0,0.009932
837.0,0.01053
838.0,0.01008
839.0,0.01027
840.0,0.01047
841.0,0.01024
842.0,0.01027
843.0,0.01027
844.0,0.01005
845.0,0.01038
846.0,0.01029
847.0,0.01007
848.0,0.009935
849.0,0.009604
850.0,0.009156
851.0,0.009617
852.0,0.009511
853.0,0.009128
854.0,0.007831
855.0,0.008592
856.0,0.009344
857.0,0.009533
858.0,0.009422
859.0,0.009403
860.0,0.009389
861.0,0.009301
862.0,0.009419
863.0,0.00961
864.0,0.009097
865.0,0.008985
866.0,0.008048
867.0,0.008367
868.0,0.009069
869.0,0.008847
870.0,0.009064
871.0,0.008904
872.0,0.008838
873.0,0.008784
874.0,0.008642
875.0,0.008429
876.0,0.008478
877.0,0.008529
878.0,0.008581
879.0,0.008414
880.0,0.008198
881.0,0.008031
882.0,0.008166
883.0,0.008168
884.0,0.00809
885.0,0.008113
886.0,0.007664
887.0,0.007741
888.0,0.007806
889.0,0.00789
890.0,0.007751
891.0,0.007727
892.0,0.007429
893.0,0.007117
894.0,0.006737
895.0,0.006222
896.0,0.005777
897.0,0.004809
898.0,0.005292
899.0,0.003854
900.0,0.005449
901.0,0.004038
902.0,0.00487
903.0,0.004852
904.0,0.006408
905.0,0.006121
906.0,0.005658
907.0,0.004369
908.0,0.004482
909.0,0.004916
910.0,0.0042
911.0,0.004556
912.0,0.004754
913.0,0.004208
914.0,0.004174
915.0,0.004524
916.0,0.003759
917.0,0.004924
918.0,0.003825
919.0,0.005008
920.0,0.005127
921.0,0.005333
922.0,0.004639
923.0,0.00512
924.0,0.004698
925.0,0.004573
926.0,0.004599
927.0,0.005227
928.0,0.003559
929.0,0.003184
930.0,0.002405
931.0,0.00226
932.0,0.001565
933.0,0.001249
934.0,0.0006593
935.0,0.001276
936.0,0.0007738
937.0,0.0007805
938.0,0.0009624
939.0,0.002113
940.0,0.00259
941.0,0.001883
942.0,0.002199
943.0,0.001391
944.0,0.001488
945.0,0.001916
946.0,0.0009236
947.0,0.0019
948.0,0.001374
949.0,0.002602
950.0,0.0006568
951.0,0.002545
952.0,0.001288
953.0,0.001696
954.0,0.002127
955.0,0.001711
956.0,0.001693
957.0,0.001264
958.0,0.002459
959.0,0.00187
960.0,0.002102
961.0,0.002406
962.0,0.002261
963.0,0.002661
964.0,0.002403
965.0,0.002625
966.0,0.002616
967.0,0.002584
968.0,0.003735
969.0,0.003863
970.0,0.003493
971.0,0.004134
972.0,0.003894
973.0,0.003245
974.0,0.003054
975.0,0.003188
976.0,0.002953
977.0,0.0035
978.0,0.003248
979.0,0.003428
980.0,0.00318
981.0,0.003955
982.0,0.003716
983.0,0.003524
984.0,0.004095
985.0,0.003655
986.0,0.004177
987.0,0.004042
988.0,0.00402
989.0,0.004142
990.0,0.003962
991.0,0.004107
992.0,0.004122
993.0,0.003977
994.0,0.004098
995.0,0.004086
996.0,0.004046
997.0,0.004041
998.0,0.004005
999.0,0.003978
1000.0,0.003925
1001.0,0.003971
1002.0,0.0038
1003.0,0.003869
1004.0,0.003747
1005.0,0.003613
1006.0,0.003731
1007.0,0.0038
1008.0,0.003757
1009.0,0.003714
1010.0,0.00368
1011.0,0.003725
1012.0,0.00367
1013.0,0.003691
1014.0,0.003652
1015.0,0.003613
1016.0,0.003581
1017.0,0.003575
1018.0,0.003553
1019.0,0.003446
1020.0,0.003504
1021.0,0.003489
1022.0,0.003442
1023.0,0.003465
1024.0,0.003391
1025.0,0.003443
1026.0,0.003411
1027.0,0.003391
1028.0,0.00337
1029.0,0.003316
1030.0,0.003333
1031.0,0.003304
1032.0,0.003284
1033.0,0.003222
1034.0,0.00321
1035.0,0.003208
1036.0,0.00321
1037.0,0.003147
1038.0,0.003148
1039.0,0.003134
1040.0,0.003109
1041.0,0.003108
1042.0,0.003075
1043.0,0.003053
1044.0,0.003052
1045.0,0.002998
1046.0,0.002952
1047.0,0.002966
1048.0,0.002971
1049.0,0.002948
1050.0,0.002923
1051.0,0.002906
1052.0,0.002882
1053.0,0.002847
1054.0,0.002841
1055.0,0.00283
1056.0,0.002807
1057.0,0.002786
1058.0,0.002706
1059.0,0.002697
1060.0,0.002682
1061.0,0.002667
1062.0,0.002669
1063.0,0.002631
1064.0,0.002654
1065.0,0.002619
1066.0,0.002562
1067.0,0.002584
1068.0,0.002515
1069.0,0.002431
1070.0,0.002501
1071.0,0.002543
1072.0,0.002495
1073.0,0.002453
1074.0,0.002522
1075.0,0.002355
1076.0,0.002499
1077.0,0.002427
1078.0,0.002364
1079.0,0.002439
1080.0,0.002361
1081.0,0.002264
1082.0,0.00232
1083.0,0.002326
1084.0,0.002225
1085.0,0.002329
1086.0,0.002069
1087.0,0.002163
1088.0,0.002276
1089.0,0.002165
1090.0,0.002092
1091.0,0.002235
1092.0,0.002227
1093.0,0.001799
1094.0,0.002013
1095.0,0.001868
1096.0,0.001761
1097.0,0.002139
1098.0,0.001712
1099.0,0.001789
1100.0,0.001627
1101.0,0.001654
1102.0,0.001555
1103.0,0.001521
1104.0,0.00152
1105.0,0.001704
1106.0,0.001205
1107.0,0.001588
1108.0,0.001283
1109.0,0.001285
1110.0,0.001544
1111.0,0.0009654
1112.0,0.001264
1113.0,0.0007407
1114.0,0.0008295
1115.0,0.0006763
1116.0,0.0005195
1117.0,0.000179
1118.0,0.0005653
1119.0,0.0002669
1120.0,0.0003347
1121.0,0.0004484
1122.0,0.0001811
1123.0,0.000299
1124.0,0.0002509
1125.0,0.0003294
1126.0,0.0001091
1127.0,0.00037
1128.0,0.0002137
1129.0,0.0002266
1130.0,0.0001471
1131.0,0.0007265
1132.0,0.000558
1133.0,0.0003385
1134.0,8.243e-05
1135.0,3.086e-05
1136.0,0.000276
1137.0,0.0006939
1138.0,0.0004791
1139.0,0.0007552
1140.0,0.0006107
1141.0,0.0004504
1142.0,0.0005232
1143.0,0.0007656
1144.0,0.0002475
1145.0,0.0003128
1146.0,0.0003364
1147.0,0.0001132
1148.0,0.0006441
1149.0,0.0005003
1150.0,0.000263
1151.0,0.0004544
1152.0,0.0005704
1153.0,0.0005615
1154.0,0.0002945
1155.0,0.0007472
1156.0,0.0006601
1157.0,0.0007601
1158.0,0.0007485
1159.0,0.0008158
1160.0,0.0006847
1161.0,0.0008754
1162.0,0.0008724
1163.0,0.001255
1164.0,0.001041
1165.0,0.0009573
1166.0,0.000962
1167.0,0.001059
1168.0,0.001066
1169.0,0.001095
1170.0,0.00121
1171.0,0.001172
1172.0,0.001204
1173.0,0.001195
1174.0,0.0007969
1175.0,0.001172
1176.0,0.001319
1177.0,0.001239
1178.0,0.0008794
1179.0,0.001317
1180.0,0.001131
1181.0,0.001168
1182.0,0.0007514
1183.0,0.001151
1184.0,0.001054
1185.0,0.001
1186.0,0.001235
1187.0,0.001155
1188.0,0.0007461
1189.0,0.001064
1190.0,0.001193
1191.0,0.001099
1192.0,0.001205
1193.0,0.001138
1194.0,0.001179
1195.0,0.001091
1196.0,0.001036
1197.0,0.001178
1198.0,0.001061
1199.0,0.0008591
1200.0,0.001101
1201.0,0.001043
1202.0,0.001045
1203.0,0.001028
1204.0,0.0008733
1205.0,0.00107
1206.0,0.001206
1207.0,0.001023
1208.0,0.001016
1209.0,0.001034
1210.0,0.001086
1211.0,0.001016
1212.0,0.0009798
1213.0,0.00113
1214.0,0.001005
1215.0,0.0009804
1216.0,0.001118
1217.0,0.001076
1218.0,0.001101
1219.0,0.001079
1220.0,0.001096
1221.0,0.001109
1222.0,0.001072
1223.0,0.001055
1224.0,0.001037
1225.0,0.001086
1226.0,0.001097
1227.0,0.0009851
1228.0,0.001099
1229.0,0.001087
1230.0,0.00106
1231.0,0.001101
1232.0,0.00109
1233.0,0.001032
1234.0,0.001094
1235.0,0.00108
1236.0,0.001087
1237.0,0.001062
1238.0,0.001076
1239.0,0.001059
1240.0,0.001061
1241.0,0.001047
1242.0,0.001046
1243.0,0.001034
1244.0,0.001036
1245.0,0.001038
1246.0,0.001029
1247.0,0.001021
1248.0,0.001014
1249.0,0.001016
1250.0,0.001005
1251.0,0.0009862
1252.0,0.0009871
1253.0,0.0009691
1254.0,0.0009513
1255.0,0.0009749
1256.0,0.000932
1257.0,0.0009215
1258.0,0.0009455
1259.0,0.0008899
1260.0,0.0008941
1261.0,0.0008203
1262.0,0.0007832
1263.0,0.0007819
1264.0,0.0006989
1265.0,0.0007726
1266.0,0.0007286
1267.0,0.0007478
1268.0,0.0006936
1269.0,0.0003804
1270.0,0.0007352
1271.0,0.000797
1272.0,0.0007989
1273.0,0.0007857
1274.0,0.0007888
1275.0,0.0008014
1276.0,0.0008107
1277.0,0.0008188
1278.0,0.0008401
1279.0,0.0008301
1280.0,0.000817
1281.0,0.0007812
1282.0,0.0007571
1283.0,0.0008115
1284.0,0.0008271
1285.0,0.0008311
1286.0,0.0008434
1287.0,0.000821
1288.0,0.0008204
1289.0,0.0007791
1290.0,0.0008086
1291.0,0.0008197
1292.0,0.0007452
1293.0,0.0007933
1294.0,0.0007842
1295.0,0.0007708
1296.0,0.0007207
1297.0,0.0006703
1298.0,0.0007391
1299.0,0.0007814
1300.0,0.000626
1301.0,0.0006484
1302.0,0.0007292
1303.0,0.0006138
1304.0,0.0004981
1305.0,0.0007047
1306.0,0.0006996
1307.0,0.0005105
1308.0,0.0006082
1309.0,0.0006834
1310.0,0.0004936
1311.0,0.0005716
1312.0,0.000553
1313.0,0.0005334
1314.0,0.0004648
1315.0,0.0004553
1316.0,0.0005506
1317.0,0.0005141
1318.0,0.0005693
1319.0,0.0004159
1320.0,0.0004034
1321.0,0.0004812
1322.0,0.000481
1323.0,0.000341
1324.0,0.0004022
1325.0,0.0005239
1326.0,0.0004343
1327.0,0.0004088
1328.0,0.0003432
1329.0,0.0002445
1330.0,0.0003264
1331.0,0.000185
1332.0,0.0001921
1333.0,0.000271
1334.0,0.0002328
1335.0,0.000326
1336.0,0.000249
1337.0,0.000218
1338.0,0.0002354
1339.0,0.0002344
1340.0,0.0002291
1341.0,0.0002176
1342.0,0.0002291
1343.0,0.0001478
1344.0,8.793e-05
1345.0,0.0001266
1346.0,6.108e-05
1347.0,6.177e-05
1348.0,3.962e-06
