interpolation:linear
wavelength,value
280.0,8.651999999999998e-22
280.5,2.794e-20
281.0,1.488e-19
281.5,5.263e-19
282.0,9.064e-19
282.5,2.246e-18
283.0,7.07e-18
283.5,1.148e-17
284.0,1.862e-16
284.5,5.391e-16
285.0,1.024e-15
285.5,4.969e-15
286.0,1.989e-14
286.5,8.828e-14
287.0,2.511e-13
287.5,9.577e-13
288.0,3.023e-12
288.5,9.369e-12
289.0,2.532e-11
289.5,7.72e-11
290.0,2.154e-10
290.5,4.405e-10
291.0,9.478e-10
291.5,2.724e-09
292.0,5.871e-09
292.5,8.35e-09
293.0,1.819e-08
293.5,4.51e-08
294.0,7.137e-08
294.5,9.418e-08
295.0,1.607e-07
295.5,3.44e-07
296.0,6.25e-07
296.5,8.944e-07
297.0,1.236e-06
297.5,3.445e-06
298.0,5.643e-06
298.5,5.874e-06
299.0,1.345e-05
299.5,2.42e-05
300.0,2.805e-05
300.5,4.32e-05
301.0,8.809e-05
301.5,0.0001606
302.0,0.0001491
302.5,0.0002947
303.0,0.0005382
303.5,0.0006878
304.0,0.000659
304.5,0.00104
305.0,0.001712
305.5,0.002066
306.0,0.002038
306.5,0.002625
307.0,0.004216
307.5,0.006058
308.0,0.006466
308.5,0.007931
309.0,0.008119
309.5,0.009603
310.0,0.009789
310.5,0.01595
311.0,0.02025
311.5,0.01962
312.0,0.02021
312.5,0.02509
313.0,0.02746
313.5,0.02629
314.0,0.0337
314.5,0.03097
315.0,0.04086
315.5,0.03343
316.0,0.03006
316.5,0.04429
317.0,0.0548
317.5,0.05638
318.0,0.04474
318.5,0.05761
319.0,0.06958
319.5,0.05472
320.0,0.06559
320.5,0.0853
321.0,0.07874
321.5,0.07556
322.0,0.077
322.5,0.06692
323.0,0.06828
323.5,0.08578
324.0,0.1002
324.5,0.1005
325.0,0.08529
325.5,0.1119
326.0,0.137
326.5,0.1386
327.0,0.137
327.5,0.1311
328.0,0.1145
328.5,0.1224
329.0,0.1489
329.5,0.1695
330.0,0.1696
330.5,0.1334
331.0,0.1349
331.5,0.1381
332.0,0.1512
332.5,0.1503
333.0,0.1487
333.5,0.1325
334.0,0.1351
334.5,0.1576
335.0,0.1489
335.5,0.1753
336.0,0.121
336.5,0.139
337.0,0.113
337.5,0.1398
338.0,0.1378
338.5,0.1601
339.0,0.1576
339.5,0.1514
340.0,0.1759
340.5,0.1582
341.0,0.1549
341.5,0.1412
342.0,0.1681
342.5,0.1567
343.0,0.1721
343.5,0.1618
344.0,0.1187
344.5,0.1205
345.0,0.1582
345.5,0.1607
346.0,0.1361
346.5,0.1535
347.0,0.1645
347.5,0.1327
348.0,0.1505
348.5,0.1499
349.0,0.1386
349.5,0.1368
350.0,0.1686
350.5,0.1773
351.0,0.158
351.5,0.1534
352.0,0.164
352.5,0.1274
353.0,0.1599
353.5,0.1704
354.0,0.1763
354.5,0.1783
355.0,0.1771
355.5,0.1595
356.0,0.1663
356.5,0.1415
357.0,0.1166
357.5,0.1422
358.0,0.1124
358.5,0.0957
359.0,0.1334
359.5,0.1695
360.0,0.1791
360.5,0.1427
361.0,0.1296
361.5,0.1488
362.0,0.1282
362.5,0.1769
363.0,0.1584
363.5,0.1454
364.0,0.1773
364.5,0.151
365.0,0.1533
365.5,0.1918
366.0,0.2025
366.5,0.1897
367.0,0.1841
367.5,0.1904
368.0,0.1661
368.5,0.167
369.0,0.1798
369.5,0.191
370.0,0.203
370.5,0.157
371.0,0.1672
371.5,0.2085
372.0,0.1379
372.5,0.1648
373.0,0.1671
373.5,0.1084
374.0,0.1569
374.5,0.1295
375.0,0.1255
375.5,0.1868
376.0,0.1543
376.5,0.1594
377.0,0.1682
377.5,0.1961
378.0,0.2118
378.5,0.1995
379.0,0.1641
379.5,0.1493
380.0,0.1547
380.5,0.1867
381.0,0.1864
381.5,0.1473
382.0,0.1303
382.5,0.1107
383.0,0.1021
383.5,0.09804
384.0,0.1078
384.5,0.158
385.0,0.1561
385.5,0.1449
386.0,0.1237
386.5,0.1619
387.0,0.1341
387.5,0.1501
388.0,0.1381
388.5,0.136
389.0,0.1463
389.5,0.1765
390.0,0.1766
390.5,0.1619
391.0,0.1899
391.5,0.193
392.0,0.162
392.5,0.1445
393.0,0.08014
393.5,0.05805
394.0,0.1177
394.5,0.1492
395.0,0.1814
395.5,0.1836
396.0,0.1586
396.5,0.09241
397.0,0.06911
397.5,0.14
398.0,0.1954
398.5,0.2013
399.0,0.2172
399.5,0.2158
400.0,0.2233
401.0,0.2194
402.0,0.2298
403.0,0.2167
404.0,0.2119
405.0,0.2103
406.0,0.2054
407.0,0.2006
408.0,0.2069
409.0,0.2199
410.0,0.1909
411.0,0.2053
412.0,0.2189
413.0,0.212
414.0,0.2131
415.0,0.2121
416.0,0.2142
417.0,0.2074
418.0,0.2021
419.0,0.2033
420.0,0.2009
421.0,0.2086
422.0,0.1968
423.0,0.1907
424.0,0.2002
425.0,0.1983
426.0,0.1918
427.0,0.1869
428.0,0.1808
429.0,0.1701
430.0,0.1478
431.0,0.1453
432.0,0.1862
433.0,0.1858
434.0,0.1713
435.0,0.1776
436.0,0.1988
437.0,0.1947
438.0,0.176
439.0,0.1807
440.0,0.185
441.0,0.1902
442.0,0.2024
443.0,0.1957
444.0,0.1986
445.0,0.1929
446.0,0.1829
447.0,0.1963
448.0,0.1978
449.0,0.1971
450.0,0.201
451.0,0.2069
452.0,0.1979
453.0,0.1848
454.0,0.1916
455.0,0.1913
456.0,0.1943
457.0,0.1959
458.0,0.1876
459.0,0.1851
460.0,0.1841
461.0,0.1869
462.0,0.187
463.0,0.1845
464.0,0.1805
465.0,0.1771
466.0,0.1775
467.0,0.173
468.0,0.1735
469.0,0.173
470.0,0.1662
471.0,0.1649
472.0,0.1725
473.0,0.1691
474.0,0.168
475.0,0.1681
476.0,0.1617
477.0,0.1607
478.0,0.1637
479.0,0.1612
480.0,0.1601
481.0,0.1616
482.0,0.1612
483.0,0.1581
484.0,0.1539
485.0,0.1457
486.0,0.1266
487.0,0.1318
488.0,0.1435
489.0,0.1428
490.0,0.149
491.0,0.1453
492.0,0.1362
493.0,0.1396
494.0,0.14
495.0,0.1402
496.0,0.14
497.0,0.141
498.0,0.1332
499.0,0.1337
500.0,0.1285
501.0,0.125
502.0,0.122
503.0,0.1258
504.0,0.1214
505.0,0.1248
506.0,0.128
507.0,0.1209
508.0,0.1165
509.0,0.119
510.0,0.1177
511.0,0.12
512.0,0.1205
513.0,0.1131
514.0,0.1115
515.0,0.1096
516.0,0.1085
517.0,0.09567
518.0,0.09985
519.0,0.1039
520.0,0.1069
521.0,0.107
522.0,0.1063
523.0,0.1036
524.0,0.1064
525.0,0.1067
526.0,0.1011
527.0,0.09436
528.0,0.0989
529.0,0.1034
530.0,0.1011
531.0,0.1018
532.0,0.09757
533.0,0.09405
534.0,0.09618
535.0,0.09765
536.0,0.09791
537.0,0.09343
538.0,0.09442
539.0,0.09301
540.0,0.08856
541.0,0.08845
542.0,0.09049
543.0,0.08886
544.0,0.08978
545.0,0.08894
546.0,0.08867
547.0,0.088
548.0,0.08634
549.0,0.08602
550.0,0.08644
551.0,0.08479
552.0,0.08477
553.0,0.08266
554.0,0.08404
555.0,0.0836
556.0,0.08188
557.0,0.07871
558.0,0.07747
559.0,0.07538
560.0,0.07569
561.0,0.07604
562.0,0.07485
563.0,0.07627
564.0,0.07363
565.0,0.07246
566.0,0.07085
567.0,0.07164
568.0,0.07044
569.0,0.06818
570.0,0.0677
571.0,0.06683
572.0,0.06788
573.0,0.06815
574.0,0.06752
575.0,0.06585
576.0,0.06487
577.0,0.06521
578.0,0.0639
579.0,0.06386
580.0,0.06479
581.0,0.06481
582.0,0.06571
583.0,0.06557
584.0,0.06583
585.0,0.06387
586.0,0.06216
587.0,0.06308
588.0,0.06108
589.0,0.05357
590.0,0.0557
591.0,0.0587
592.0,0.05749
593.0,0.05801
594.0,0.05713
595.0,0.05524
596.0,0.05719
597.0,0.05613
598.0,0.05561
599.0,0.05528
600.0,0.05503
601.0,0.05427
602.0,0.05358
603.0,0.05416
604.0,0.05475
605.0,0.0542
606.0,0.05374
607.0,0.05404
608.0,0.05321
609.0,0.05307
610.0,0.05248
611.0,0.05254
612.0,0.05217
613.0,0.05129
614.0,0.05037
615.0,0.05125
616.0,0.04935
617.0,0.04904
618.0,0.0507
619.0,0.04996
620.0,0.05004
621.0,0.04983
622.0,0.04899
623.0,0.04798
624.0,0.04692
625.0,0.04661
626.0,0.04709
627.0,0.04735
628.0,0.04356
629.0,0.04562
630.0,0.04433
631.0,0.04526
632.0,0.04454
633.0,0.04576
634.0,0.04517
635.0,0.04568
636.0,0.04489
637.0,0.04544
638.0,0.04571
639.0,0.04501
640.0,0.04439
641.0,0.04417
642.0,0.0438
643.0,0.04421
644.0,0.0439
645.0,0.04374
646.0,0.04246
647.0,0.04165
648.0,0.04146
649.0,0.04046
650.0,0.04061
651.0,0.0422
652.0,0.04007
653.0,0.04125
654.0,0.04062
655.0,0.03883
656.0,0.03431
657.0,0.03509
658.0,0.03921
659.0,0.03933
660.0,0.03931
661.0,0.0394
662.0,0.03928
663.0,0.03835
664.0,0.03867
665.0,0.03855
666.0,0.03842
667.0,0.03823
668.0,0.0381
669.0,0.03852
670.0,0.03817
671.0,0.03801
672.0,0.03755
673.0,0.03798
674.0,0.03766
675.0,0.03715
676.0,0.03724
677.0,0.03672
678.0,0.03668
679.0,0.03593
680.0,0.03606
681.0,0.03566
682.0,0.03544
683.0,0.03521
684.0,0.03485
685.0,0.03498
686.0,0.03461
687.0,0.02144
688.0,0.02562
689.0,0.02561
690.0,0.02695
691.0,0.02852
692.0,0.02966
693.0,0.02925
694.0,0.02884
695.0,0.03009
696.0,0.02998
697.0,0.03201
698.0,0.03137
699.0,0.03028
700.0,0.02977
701.0,0.02929
702.0,0.02943
703.0,0.02935
704.0,0.03025
705.0,0.03014
706.0,0.03002
707.0,0.02992
708.0,0.02984
709.0,0.0298
710.0,0.02962
711.0,0.02949
712.0,0.02933
713.0,0.02886
714.0,0.02882
715.0,0.0277
716.0,0.02758
717.0,0.02321
718.0,0.02104
719.0,0.01902
720.0,0.01989
721.0,0.02222
722.0,0.02583
723.0,0.02364
724.0,0.0209
725.0,0.02042
726.0,0.02139
727.0,0.02165
728.0,0.02009
729.0,0.02094
730.0,0.02213
731.0,0.02097
732.0,0.02256
733.0,0.024
734.0,0.02451
735.0,0.02386
736.0,0.02373
737.0,0.0237
738.0,0.02409
739.0,0.02349
740.0,0.02403
741.0,0.0237
742.0,0.02363
743.0,0.02411
744.0,0.02392
745.0,0.02382
746.0,0.02382
747.0,0.02376
748.0,0.02359
749.0,0.0232
750.0,0.02309
751.0,0.02276
752.0,0.02276
753.0,0.02277
754.0,0.02271
755.0,0.02248
756.0,0.02238
757.0,0.02231
758.0,0.02193
759.0,0.0213
760.0,0.002923
761.0,0.001507
762.0,0.00964
763.0,0.004487
764.0,0.006933
765.0,0.009493
766.0,0.01201
767.0,0.01561
768.0,0.01842
769.0,0.01884
770.0,0.01952
771.0,0.01965
772.0,0.01962
773.0,0.01965
774.0,0.01946
775.0,0.01922
776.0,0.01936
777.0,0.01901
778.0,0.0188
779.0,0.01871
780.0,0.01852
781.0,0.01846
782.0,0.0185
783.0,0.0181
784.0,0.01811
785.0,0.01789
786.0,0.01801
787.0,0.01756
788.0,0.01724
789.0,0.01714
790.0,0.01653
791.0,0.01668
792.0,0.01648
793.0,0.01613
794.0,0.01642
795.0,0.0166
796.0,0.01591
797.0,0.01586
798.0,0.01636
799.0,0.01616
800.0,0.01577
801.0,0.01562
802.0,0.01551
803.0,0.01531
804.0,0.01527
805.0,0.01518
806.0,0.01558
807.0,0.01531
808.0,0.01525
809.0,0.01486
810.0,0.01464
811.0,0.01455
812.0,0.01399
813.0,0.01358
814.0,0.01164
815.0,0.01151
816.0,0.01056
817.0,0.01074
818.0,0.01025
819.0,0.01164
820.0,0.01082
821.0,0.01294
822.0,0.01245
823.0,0.007924
824.0,0.0119
825.0,0.01247
826.0,0.01184
827.0,0.01257
828.0,0.01032
829.0,0.01164
830.0,0.01141
831.0,0.01142
832.0,0.01096
833.0,0.0118
834.0,0.01124
835.0,0.01249
836.0,0.01178
837.0,0.01242
838.0,0.01193
839.0,0.01213
840.0,0.01236
841.0,0.0121
842.0,0.01211
843.0,0.01208
844.0,0.01184
845.0,0.01221
846.0,0.01211
847.0,0.01184
848.0,0.0117
849.0,0.01131
850.0,0.01079
851.0,0.01135
852.0,0.01122
853.0,0.01076
854.0,0.00924
855.0,0.01013
856.0,0.01101
857.0,0.01123
858.0,0.0111
859.0,0.01107
860.0,0.01104
861.0,0.01094
862.0,0.01107
863.0,0.01129
864.0,0.01068
865.0,0.01055
866.0,0.009446
867.0,0.009817
868.0,0.01064
869.0,0.01038
870.0,0.01063
871.0,0.01044
872.0,0.01036
873.0,0.0103
874.0,0.01013
875.0,0.009879
876.0,0.009937
877.0,0.009996
878.0,0.01006
879.0,0.009863
880.0,0.009611
881.0,0.009421
882.0,0.009585
883.0,0.009582
884.0,0.009493
885.0,0.009521
886.0,0.009011
887.0,0.00909
888.0,0.009172
889.0,0.00926
890.0,0.009114
891.0,0.009076
892.0,0.008748
893.0,0.008392
894.0,0.007984
895.0,0.007414
896.0,0.006869
897.0,0.005728
898.0,0.006315
899.0,0.004578
900.0,0.006484
901.0,0.004822
902.0,0.005809
903.0,0.005801
904.0,0.0076
905.0,0.007259
906.0,0.006714
907.0,0.005214
908.0,0.005334
909.0,0.005859
910.0,0.005013
911.0,0.005405
912.0,0.005669
913.0,0.005024
914.0,0.004972
915.0,0.005428
916.0,0.004468
917.0,0.005891
918.0,0.004562
919.0,0.005973
920.0,0.006061
921.0,0.006341
922.0,0.005522
923.0,0.006079
924.0,0.005622
925.0,0.005461
926.0,0.005513
927.0,0.00626
928.0,0.004283
929.0,0.003832
930.0,0.00288
931.0,0.002706
932.0,0.00185
933.0,0.001459
934.0,0.0007447
935.0,0.001495
936.0,0.0008846
937.0,0.0008919
938.0,0.001112
939.0,0.002532
940.0,0.003125
941.0,0.002253
942.0,0.002651
943.0,0.001642
944.0,0.001754
945.0,0.002292
946.0,0.001069
947.0,0.002274
948.0,0.001613
949.0,0.003153
950.0,0.000746
951.0,0.003085
952.0,0.001512
953.0,0.002017
954.0,0.002558
955.0,0.00204
956.0,0.001982
957.0,0.001484
958.0,0.002935
959.0,0.002224
960.0,0.002517
961.0,0.002881
962.0,0.002697
963.0,0.003182
964.0,0.002863
965.0,0.003147
966.0,0.003131
967.0,0.003097
968.0,0.004426
969.0,0.00462
970.0,0.004161
971.0,0.004899
972.0,0.004622
973.0,0.00388
974.0,0.003641
975.0,0.003797
976.0,0.00354
977.0,0.004148
978.0,0.003871
979.0,0.004086
980.0,0.00378
981.0,0.004688
982.0,0.004415
983.0,0.00419
984.0,0.004831
985.0,0.00435
986.0,0.00491
987.0,0.004763
988.0,0.004734
989.0,0.004858
990.0,0.004672
991.0,0.004825
992.0,0.004838
993.0,0.004682
994.0,0.004806
995.0,0.004788
996.0,0.004743
997.0,0.004735
998.0,0.004693
999.0,0.004661
1000.0,0.004603
1001.0,0.004652
1002.0,0.004474
1003.0,0.004533
1004.0,0.004396
1005.0,0.00423
1006.0,0.004372
1007.0,0.00445
1008.0,0.004404
1009.0,0.004358
1010.0,0.004319
1011.0,0.004363
1012.0,0.004301
1013.0,0.004321
1014.0,0.004276
1015.0,0.00423
1016.0,0.004194
1017.0,0.004187
1018.0,0.004159
1019.0,0.004042
1020.0,0.004103
1021.0,0.004083
1022.0,0.004031
1023.0,0.004059
1024.0,0.003979
1025.0,0.004031
1026.0,0.003995
1027.0,0.00397
1028.0,0.003947
1029.0,0.003885
1030.0,0.003902
1031.0,0.003869
1032.0,0.003844
1033.0,0.003771
1034.0,0.003758
1035.0,0.003755
1036.0,0.003758
1037.0,0.003684
1038.0,0.003686
1039.0,0.003671
1040.0,0.003642
1041.0,0.003641
1042.0,0.003602
1043.0,0.003577
1044.0,0.003576
1045.0,0.003514
1046.0,0.003461
1047.0,0.003478
1048.0,0.003484
1049.0,0.003459
1050.0,0.003429
1051.0,0.003411
1052.0,0.003383
1053.0,0.003343
1054.0,0.003337
1055.0,0.003325
1056.0,0.003299
1057.0,0.003276
1058.0,0.003183
1059.0,0.003174
1060.0,0.003156
1061.0,0.00314
1062.0,0.003143
1063.0,0.0031
1064.0,0.003126
1065.0,0.003088
1066.0,0.003019
1067.0,0.003046
1068.0,0.002965
1069.0,0.002865
1070.0,0.002948
1071.0,0.002992
1072.0,0.00294
1073.0,0.002889
1074.0,0.002964
1075.0,0.002778
1076.0,0.002938
1077.0,0.002859
1078.0,0.002789
1079.0,0.002863
1080.0,0.002781
1081.0,0.002674
1082.0,0.002729
1083.0,0.002733
1084.0,0.002629
1085.0,0.002743
1086.0,0.002445
1087.0,0.002553
1088.0,0.002675
1089.0,0.002559
1090.0,0.002473
1091.0,0.00263
1092.0,0.002619
1093.0,0.002136
1094.0,0.002371
1095.0,0.002225
1096.0,0.0021
1097.0,0.002516
1098.0,0.002047
1099.0,0.002139
1100.0,0.001946
1101.0,0.001975
1102.0,0.001862
1103.0,0.001825
1104.0,0.001823
1105.0,0.002038
1106.0,0.001453
1107.0,0.0019
1108.0,0.001541
1109.0,0.001544
1110.0,0.001856
1111.0,0.00116
1112.0,0.001519
1113.0,0.0008827
1114.0,0.0009962
1115.0,0.0008054
1116.0,0.0006131
1117.0,0.0001995
1118.0,0.0006718
1119.0,0.000305
1120.0,0.0003874
1121.0,0.0005288
1122.0,0.0002027
1123.0,0.0003442
1124.0,0.0002864
1125.0,0.0003819
1126.0,0.0001193
1127.0,0.0004316
1128.0,0.0002413
1129.0,0.000257
1130.0,0.000163
1131.0,0.0008823
1132.0,0.0006676
1133.0,0.0003937
1134.0,8.938e-05
1135.0,3.28e-05
1136.0,0.000317
1137.0,0.0008425
1138.0,0.0005696
1139.0,0.0009127
1140.0,0.0007337
1141.0,0.0005336
1142.0,0.0006248
1143.0,0.0009307
1144.0,0.0002835
1145.0,0.0003635
1146.0,0.0003925
1147.0,0.0001242
1148.0,0.0007778
1149.0,0.0005967
1150.0,0.0003016
1151.0,0.0005399
1152.0,0.0006858
1153.0,0.0006715
1154.0,0.0003405
1155.0,0.000906
1156.0,0.0007975
1157.0,0.000915
1158.0,0.0009007
1159.0,0.0009876
1160.0,0.0008179
1161.0,0.00105
1162.0,0.001047
1163.0,0.001504
1164.0,0.001247
1165.0,0.001151
1166.0,0.001148
1167.0,0.001265
1168.0,0.001274
1169.0,0.001312
1170.0,0.001444
1171.0,0.001396
1172.0,0.001426
1173.0,0.001425
1174.0,0.0009487
1175.0,0.001389
1176.0,0.001553
1177.0,0.001468
1178.0,0.00104
1179.0,0.001551
1180.0,0.001342
1181.0,0.001388
1182.0,0.0008921
1183.0,0.001366
1184.0,0.001252
1185.0,0.001191
1186.0,0.001462
1187.0,0.001372
1188.0,0.0008925
1189.0,0.001262
1190.0,0.001408
1191.0,0.00131
1192.0,0.001422
1193.0,0.001346
1194.0,0.001392
1195.0,0.001297
1196.0,0.001235
1197.0,0.001392
1198.0,0.00125
1199.0,0.001024
1200.0,0.001303
1201.0,0.00124
1202.0,0.001233
1203.0,0.001224
1204.0,0.001036
1205.0,0.001261
1206.0,0.001418
1207.0,0.001212
1208.0,0.0012
1209.0,0.001222
1210.0,0.00128
1211.0,0.0012
1212.0,0.001171
1213.0,0.001336
1214.0,0.001199
1215.0,0.001168
1216.0,0.001319
1217.0,0.001272
1218.0,0.001299
1219.0,0.001276
1220.0,0.001293
1221.0,0.001306
1222.0,0.001262
1223.0,0.001244
1224.0,0.001228
1225.0,0.00128
1226.0,0.001289
1227.0,0.001167
1228.0,0.00129
1229.0,0.001277
1230.0,0.001247
1231.0,0.00129
1232.0,0.001277
1233.0,0.001216
1234.0,0.001279
1235.0,0.001264
1236.0,0.001271
1237.0,0.001244
1238.0,0.001259
1239.0,0.001238
1240.0,0.00124
1241.0,0.001227
1242.0,0.001223
1243.0,0.001209
1244.0,0.001212
1245.0,0.001214
1246.0,0.001203
1247.0,0.001194
1248.0,0.001188
1249.0,0.001189
1250.0,0.001177
1251.0,0.001156
1252.0,0.001155
1253.0,0.001138
1254.0,0.00112
1255.0,0.001142
1256.0,0.001099
1257.0,0.001087
1258.0,0.00111
1259.0,0.001055
1260.0,0.001059
1261.0,0.0009822
1262.0,0.0009427
1263.0,0.0009414
1264.0,0.0008504
1265.0,0.0009303
1266.0,0.000883
1267.0,0.0009023
1268.0,0.0008427
1269.0,0.0004677
1270.0,0.0008891
1271.0,0.0009536
1272.0,0.0009553
1273.0,0.0009406
1274.0,0.0009427
1275.0,0.000956
1276.0,0.0009649
1277.0,0.000971
1278.0,0.0009925
1279.0,0.0009799
1280.0,0.0009648
1281.0,0.0009203
1282.0,0.0008884
1283.0,0.0009529
1284.0,0.0009717
1285.0,0.0009757
1286.0,0.0009883
1287.0,0.0009654
1288.0,0.0009633
1289.0,0.0009213
1290.0,0.0009493
1291.0,0.0009609
1292.0,0.0008837
1293.0,0.000932
1294.0,0.0009215
1295.0,0.0009108
1296.0,0.0008565
1297.0,0.0007989
1298.0,0.0008737
1299.0,0.0009172
1300.0,0.0007443
1301.0,0.0007709
1302.0,0.0008612
1303.0,0.0007294
1304.0,0.0005973
1305.0,0.0008323
1306.0,0.0008291
1307.0,0.0006093
1308.0,0.0007205
1309.0,0.0008133
1310.0,0.0005904
1311.0,0.0006788
1312.0,0.000657
1313.0,0.0006376
1314.0,0.0005563
1315.0,0.000547
1316.0,0.000656
1317.0,0.000613
1318.0,0.0006766
1319.0,0.0004989
1320.0,0.0004819
1321.0,0.0005752
1322.0,0.000578
1323.0,0.0004103
1324.0,0.0004812
1325.0,0.0006267
1326.0,0.0005202
1327.0,0.0004901
1328.0,0.0004111
1329.0,0.0002925
1330.0,0.0003936
1331.0,0.0002188
1332.0,0.0002278
1333.0,0.0003277
1334.0,0.0002751
1335.0,0.0003941
1336.0,0.0002987
1337.0,0.0002588
1338.0,0.0002814
1339.0,0.0002804
1340.0,0.0002724
1341.0,0.0002607
1342.0,0.0002748
1343.0,0.000173
1344.0,0.0001001
1345.0,0.0001475
1346.0,6.781e-05
1347.0,6.843e-05
1348.0,4.099e-06
1349.0,1.493e-05
1350.0,1.553e-05
1351.0,3.671e-06
1352.0,9.81e-07
1353.0,4.982e-08
1354.0,1.713e-07
1355.0,1.378e-09
1356.0,2.412e-08
1357.0,3.665e-08
1358.0,1.618e-09
1359.0,2.038e-10
1360.0,7.367e-10
1361.0,8.24e-13
1362.0,2.254e-15
