interpolation:linear
wavelength,value
280.0,9.341999999999999e-22
280.5,3.0120000000000004e-20
281.0,1.604e-19
281.5,5.272e-19
282.0,9.228e-19
282.5,2.289e-18
283.0,7.208e-18
283.5,1.171e-17
284.0,1.897e-16
284.5,5.49e-16
285.0,1.057e-15
285.5,5.116e-15
286.0,2.046e-14
286.5,9.073e-14
287.0,2.579e-13
287.5,9.829e-13
288.0,3.075e-12
288.5,9.561e-12
289.0,2.589e-11
289.5,7.903e-11
290.0,2.207e-10
290.5,4.515e-10
291.0,9.72e-10
291.5,2.795e-09
292.0,5.92e-09
292.5,8.461e-09
293.0,1.854e-08
293.5,4.633e-08
294.0,7.367e-08
294.5,9.703e-08
295.0,1.663e-07
295.5,3.637e-07
296.0,6.55e-07
296.5,9.375e-07
297.0,1.296e-06
297.5,3.615e-06
298.0,5.927e-06
298.5,6.175e-06
299.0,1.415e-05
299.5,2.552e-05
300.0,2.963e-05
300.5,4.574e-05
301.0,9.37e-05
301.5,0.0001719
302.0,0.0001602
302.5,0.0003163
303.0,0.0005768
303.5,0.0007362
304.0,0.0007046
304.5,0.001109
305.0,0.001818
305.5,0.002188
306.0,0.002156
306.5,0.002772
307.0,0.004433
307.5,0.006345
308.0,0.006768
308.5,0.008283
309.0,0.008466
309.5,0.009981
310.0,0.01016
310.5,0.01654
311.0,0.02098
311.5,0.02031
312.0,0.02087
312.5,0.02586
313.0,0.02828
313.5,0.0271
314.0,0.03467
314.5,0.03178
315.0,0.04191
315.5,0.03432
316.0,0.0308
316.5,0.04531
317.0,0.05605
317.5,0.0577
318.0,0.04573
318.5,0.05876
319.0,0.07089
319.5,0.05584
320.0,0.06695
320.5,0.08687
321.0,0.08002
321.5,0.07678
322.0,0.0784
322.5,0.06813
323.0,0.06941
323.5,0.08711
324.0,0.1017
324.5,0.1021
325.0,0.08666
325.5,0.1136
326.0,0.139
326.5,0.1406
327.0,0.139
327.5,0.1331
328.0,0.1163
328.5,0.1242
329.0,0.1509
329.5,0.1717
330.0,0.1719
330.5,0.1353
331.0,0.1368
331.5,0.14
332.0,0.1531
332.5,0.1521
333.0,0.1506
333.5,0.1342
334.0,0.1368
334.5,0.1595
335.0,0.1507
335.5,0.1774
336.0,0.1224
336.5,0.1407
337.0,0.1144
337.5,0.1415
338.0,0.1394
338.5,0.162
339.0,0.1595
339.5,0.1532
340.0,0.1779
340.5,0.1601
341.0,0.1566
341.5,0.1428
342.0,0.17
342.5,0.1585
343.0,0.1741
343.5,0.1637
344.0,0.1201
344.5,0.1219
345.0,0.1599
345.5,0.1625
346.0,0.1375
346.5,0.1552
347.0,0.1663
347.5,0.1341
348.0,0.1521
348.5,0.1515
349.0,0.14
349.5,0.1382
350.0,0.1704
350.5,0.1791
351.0,0.1596
351.5,0.155
352.0,0.1657
352.5,0.1287
353.0,0.1616
353.5,0.1722
354.0,0.1781
354.5,0.1801
355.0,0.1789
355.5,0.1611
356.0,0.168
356.5,0.1429
357.0,0.1177
357.5,0.1436
358.0,0.1135
358.5,0.09663
359.0,0.1347
359.5,0.1712
360.0,0.1808
360.5,0.144
361.0,0.1309
361.5,0.1502
362.0,0.1295
362.5,0.1786
363.0,0.1599
363.5,0.1468
364.0,0.1789
364.5,0.1524
365.0,0.1547
365.5,0.1935
366.0,0.2044
366.5,0.1914
367.0,0.1858
367.5,0.1921
368.0,0.1676
368.5,0.1685
369.0,0.1814
369.5,0.1927
370.0,0.2048
370.5,0.1584
371.0,0.1687
371.5,0.2103
372.0,0.1391
372.5,0.1663
373.0,0.1686
373.5,0.1093
374.0,0.1583
374.5,0.1307
375.0,0.1266
375.5,0.1884
376.0,0.1556
376.5,0.1607
377.0,0.1696
377.5,0.1977
378.0,0.2136
378.5,0.2012
379.0,0.1654
379.5,0.1506
380.0,0.156
380.5,0.1882
381.0,0.188
381.5,0.1485
382.0,0.1314
382.5,0.1116
383.0,0.103
383.5,0.09883
384.0,0.1086
384.5,0.1593
385.0,0.1574
385.5,0.1461
386.0,0.1247
386.5,0.1632
387.0,0.1351
387.5,0.1512
388.0,0.1391
388.5,0.137
389.0,0.1474
389.5,0.1779
390.0,0.1779
390.5,0.1632
391.0,0.1914
391.5,0.1945
392.0,0.1632
392.5,0.1456
393.0,0.08073
393.5,0.05848
394.0,0.1186
394.5,0.1503
395.0,0.1827
395.5,0.185
396.0,0.1598
396.5,0.09308
397.0,0.06961
397.5,0.141
398.0,0.1968
398.5,0.2027
399.0,0.2188
399.5,0.2173
400.0,0.2248
401.0,0.2209
402.0,0.2314
403.0,0.2182
404.0,0.2133
405.0,0.2118
406.0,0.2068
407.0,0.202
408.0,0.2083
409.0,0.2214
410.0,0.1921
411.0,0.2066
412.0,0.2204
413.0,0.2134
414.0,0.2145
415.0,0.2135
416.0,0.2156
417.0,0.2087
418.0,0.2033
419.0,0.2045
420.0,0.2021
421.0,0.2099
422.0,0.1979
423.0,0.1919
424.0,0.2014
425.0,0.1995
426.0,0.1929
427.0,0.188
428.0,0.1818
429.0,0.1711
430.0,0.1486
431.0,0.1462
432.0,0.1873
433.0,0.1869
434.0,0.1722
435.0,0.1786
436.0,0.1999
437.0,0.1958
438.0,0.177
439.0,0.1817
440.0,0.186
441.0,0.1912
442.0,0.2035
443.0,0.1967
444.0,0.1996
445.0,0.194
446.0,0.1839
447.0,0.1974
448.0,0.1989
449.0,0.1981
450.0,0.202
451.0,0.2079
452.0,0.1989
453.0,0.1858
454.0,0.1926
455.0,0.1922
456.0,0.1953
457.0,0.1969
458.0,0.1886
459.0,0.186
460.0,0.185
461.0,0.1878
462.0,0.1879
463.0,0.1854
464.0,0.1813
465.0,0.1779
466.0,0.1784
467.0,0.1738
468.0,0.1744
469.0,0.1738
470.0,0.167
471.0,0.1657
472.0,0.1734
473.0,0.1699
474.0,0.1688
475.0,0.1689
476.0,0.1624
477.0,0.1615
478.0,0.1645
479.0,0.162
480.0,0.1609
481.0,0.1624
482.0,0.162
483.0,0.1589
484.0,0.1546
485.0,0.1464
486.0,0.1272
487.0,0.1324
488.0,0.1441
489.0,0.1434
490.0,0.1497
491.0,0.146
492.0,0.1368
493.0,0.1403
494.0,0.1406
495.0,0.1408
496.0,0.1406
497.0,0.1416
498.0,0.1338
499.0,0.1343
500.0,0.1291
501.0,0.1256
502.0,0.1226
503.0,0.1263
504.0,0.122
505.0,0.1254
506.0,0.1286
507.0,0.1215
508.0,0.117
509.0,0.1196
510.0,0.1182
511.0,0.1206
512.0,0.121
513.0,0.1137
514.0,0.112
515.0,0.1101
516.0,0.109
517.0,0.09612
518.0,0.1003
519.0,0.1044
520.0,0.1074
521.0,0.1075
522.0,0.1068
523.0,0.104
524.0,0.1069
525.0,0.1072
526.0,0.1016
527.0,0.09483
528.0,0.09939
529.0,0.1039
530.0,0.1016
531.0,0.1023
532.0,0.09807
533.0,0.09452
534.0,0.09666
535.0,0.09815
536.0,0.09841
537.0,0.0939
538.0,0.0949
539.0,0.09348
540.0,0.08901
541.0,0.0889
542.0,0.09095
543.0,0.08932
544.0,0.09025
545.0,0.0894
546.0,0.08913
547.0,0.08845
548.0,0.08678
549.0,0.08647
550.0,0.08689
551.0,0.08523
552.0,0.08522
553.0,0.08309
554.0,0.08448
555.0,0.08404
556.0,0.08232
557.0,0.07913
558.0,0.07788
559.0,0.07579
560.0,0.0761
561.0,0.07645
562.0,0.07526
563.0,0.07669
564.0,0.07404
565.0,0.07286
566.0,0.07125
567.0,0.07204
568.0,0.07083
569.0,0.06857
570.0,0.06809
571.0,0.06721
572.0,0.06827
573.0,0.06854
574.0,0.06791
575.0,0.06623
576.0,0.06524
577.0,0.06558
578.0,0.06427
579.0,0.06422
580.0,0.06516
581.0,0.06517
582.0,0.06607
583.0,0.06593
584.0,0.06619
585.0,0.06423
586.0,0.0625
587.0,0.06343
588.0,0.06142
589.0,0.05387
590.0,0.05601
591.0,0.05903
592.0,0.05781
593.0,0.05833
594.0,0.05745
595.0,0.05556
596.0,0.05751
597.0,0.05645
598.0,0.05593
599.0,0.0556
600.0,0.05535
601.0,0.05458
602.0,0.05389
603.0,0.05447
604.0,0.05507
605.0,0.05451
606.0,0.05404
607.0,0.05435
608.0,0.05351
609.0,0.05336
610.0,0.05276
611.0,0.05282
612.0,0.05245
613.0,0.05156
614.0,0.05063
615.0,0.05152
616.0,0.04961
617.0,0.04929
618.0,0.05097
619.0,0.05022
620.0,0.05029
621.0,0.05009
622.0,0.04924
623.0,0.04822
624.0,0.04716
625.0,0.04685
626.0,0.04733
627.0,0.04759
628.0,0.04378
629.0,0.04584
630.0,0.04455
631.0,0.04548
632.0,0.04475
633.0,0.04598
634.0,0.04539
635.0,0.0459
636.0,0.0451
637.0,0.04565
638.0,0.04592
639.0,0.04522
640.0,0.04459
641.0,0.04437
642.0,0.044
643.0,0.04441
644.0,0.04409
645.0,0.04394
646.0,0.04265
647.0,0.04183
648.0,0.04165
649.0,0.04064
650.0,0.04079
651.0,0.04238
652.0,0.04024
653.0,0.04143
654.0,0.0408
655.0,0.03899
656.0,0.03446
657.0,0.03524
658.0,0.03937
659.0,0.03949
660.0,0.03947
661.0,0.03956
662.0,0.03944
663.0,0.03851
664.0,0.03883
665.0,0.03871
666.0,0.03857
667.0,0.03839
668.0,0.03825
669.0,0.03867
670.0,0.03832
671.0,0.03815
672.0,0.03769
673.0,0.03813
674.0,0.03781
675.0,0.03729
676.0,0.03738
677.0,0.03686
678.0,0.03682
679.0,0.03607
680.0,0.03619
681.0,0.03579
682.0,0.03557
683.0,0.03534
684.0,0.03498
685.0,0.03511
686.0,0.03474
687.0,0.02154
688.0,0.02573
689.0,0.02572
690.0,0.02707
691.0,0.02863
692.0,0.02977
693.0,0.02936
694.0,0.02895
695.0,0.0302
696.0,0.03009
697.0,0.03212
698.0,0.03148
699.0,0.03039
700.0,0.02987
701.0,0.0294
702.0,0.02954
703.0,0.02945
704.0,0.03035
705.0,0.03025
706.0,0.03013
707.0,0.03002
708.0,0.02994
709.0,0.0299
710.0,0.02972
711.0,0.02959
712.0,0.02943
713.0,0.02896
714.0,0.02892
715.0,0.0278
716.0,0.02767
717.0,0.02329
718.0,0.02111
719.0,0.01909
720.0,0.01996
721.0,0.0223
722.0,0.02592
723.0,0.02373
724.0,0.02097
725.0,0.0205
726.0,0.02147
727.0,0.02173
728.0,0.02017
729.0,0.02101
730.0,0.02221
731.0,0.02105
732.0,0.02264
733.0,0.02408
734.0,0.02459
735.0,0.02394
736.0,0.02381
737.0,0.02378
738.0,0.02417
739.0,0.02356
740.0,0.02411
741.0,0.02378
742.0,0.0237
743.0,0.02418
744.0,0.024
745.0,0.0239
746.0,0.02389
747.0,0.02384
748.0,0.02366
749.0,0.02328
750.0,0.02316
751.0,0.02283
752.0,0.02283
753.0,0.02284
754.0,0.02278
755.0,0.02255
756.0,0.02245
757.0,0.02238
758.0,0.02199
759.0,0.02137
760.0,0.002934
761.0,0.001512
762.0,0.009683
763.0,0.004507
764.0,0.006965
765.0,0.009536
766.0,0.01206
767.0,0.01566
768.0,0.01848
769.0,0.0189
770.0,0.01959
771.0,0.01972
772.0,0.01968
773.0,0.01971
774.0,0.01952
775.0,0.01928
776.0,0.01942
777.0,0.01907
778.0,0.01885
779.0,0.01877
780.0,0.01858
781.0,0.01852
782.0,0.01855
783.0,0.01815
784.0,0.01816
785.0,0.01795
786.0,0.01806
787.0,0.01762
788.0,0.0173
789.0,0.0172
790.0,0.01658
791.0,0.01673
792.0,0.01653
793.0,0.01618
794.0,0.01647
795.0,0.01665
796.0,0.01596
797.0,0.01591
798.0,0.0164
799.0,0.01621
800.0,0.01582
801.0,0.01567
802.0,0.01556
803.0,0.01536
804.0,0.01532
805.0,0.01523
806.0,0.01563
807.0,0.01535
808.0,0.0153
809.0,0.01491
810.0,0.01468
811.0,0.01459
812.0,0.01403
813.0,0.01362
814.0,0.01168
815.0,0.01155
816.0,0.0106
817.0,0.01077
818.0,0.01029
819.0,0.01168
820.0,0.01086
821.0,0.01298
822.0,0.01249
823.0,0.007952
824.0,0.01194
825.0,0.01251
826.0,0.01188
827.0,0.01261
828.0,0.01035
829.0,0.01168
830.0,0.01145
831.0,0.01145
832.0,0.01099
833.0,0.01183
834.0,0.01128
835.0,0.01253
836.0,0.01182
837.0,0.01246
838.0,0.01197
839.0,0.01217
840.0,0.0124
841.0,0.01214
842.0,0.01215
843.0,0.01212
844.0,0.01188
845.0,0.01225
846.0,0.01214
847.0,0.01187
848.0,0.01173
849.0,0.01134
850.0,0.01082
851.0,0.01138
852.0,0.01125
853.0,0.01079
854.0,0.009268
855.0,0.01016
856.0,0.01105
857.0,0.01126
858.0,0.01113
859.0,0.0111
860.0,0.01107
861.0,0.01097
862.0,0.0111
863.0,0.01132
864.0,0.01071
865.0,0.01058
866.0,0.009473
867.0,0.009846
868.0,0.01067
869.0,0.01041
870.0,0.01066
871.0,0.01047
872.0,0.01039
873.0,0.01033
874.0,0.01016
875.0,0.009907
876.0,0.009966
877.0,0.01003
878.0,0.01009
879.0,0.009892
880.0,0.009639
881.0,0.009449
882.0,0.009613
883.0,0.00961
884.0,0.009521
885.0,0.009548
886.0,0.009038
887.0,0.009116
888.0,0.009199
889.0,0.009287
890.0,0.009141
891.0,0.009103
892.0,0.008775
893.0,0.008418
894.0,0.008009
895.0,0.007439
896.0,0.006892
897.0,0.005747
898.0,0.006336
899.0,0.004593
900.0,0.006505
901.0,0.004839
902.0,0.005828
903.0,0.005821
904.0,0.007624
905.0,0.007283
906.0,0.006736
907.0,0.005232
908.0,0.005352
909.0,0.005878
910.0,0.005031
911.0,0.005423
912.0,0.005688
913.0,0.005042
914.0,0.004989
915.0,0.005448
916.0,0.004484
917.0,0.005911
918.0,0.004578
919.0,0.005993
920.0,0.00608
921.0,0.006362
922.0,0.005541
923.0,0.006099
924.0,0.005642
925.0,0.00548
926.0,0.005533
927.0,0.006282
928.0,0.004299
929.0,0.003847
930.0,0.002892
931.0,0.002716
932.0,0.001857
933.0,0.001464
934.0,0.0007473
935.0,0.001501
936.0,0.0008876
937.0,0.0008949
938.0,0.001116
939.0,0.002542
940.0,0.003137
941.0,0.002262
942.0,0.002661
943.0,0.001648
944.0,0.00176
945.0,0.002301
946.0,0.001073
947.0,0.002283
948.0,0.001619
949.0,0.003166
950.0,0.0007485
951.0,0.003098
952.0,0.001517
953.0,0.002025
954.0,0.002568
955.0,0.002048
956.0,0.001989
957.0,0.00149
958.0,0.002946
959.0,0.002232
960.0,0.002527
961.0,0.002892
962.0,0.002707
963.0,0.003193
964.0,0.002874
965.0,0.003158
966.0,0.003143
967.0,0.003108
968.0,0.00444
969.0,0.004636
970.0,0.004176
971.0,0.004915
972.0,0.004637
973.0,0.003893
974.0,0.003654
975.0,0.00381
976.0,0.003553
977.0,0.004161
978.0,0.003885
979.0,0.0041
980.0,0.003793
981.0,0.004703
982.0,0.00443
983.0,0.004204
984.0,0.004845
985.0,0.004365
986.0,0.004925
987.0,0.004777
988.0,0.004749
989.0,0.004872
990.0,0.004686
991.0,0.004839
992.0,0.004852
993.0,0.004696
994.0,0.00482
995.0,0.004802
996.0,0.004757
997.0,0.004749
998.0,0.004707
999.0,0.004675
1000.0,0.004617
1001.0,0.004666
1002.0,0.004487
1003.0,0.004546
1004.0,0.004409
1005.0,0.004243
1006.0,0.004385
1007.0,0.004463
1008.0,0.004417
1009.0,0.004371
1010.0,0.004332
1011.0,0.004376
1012.0,0.004314
1013.0,0.004334
1014.0,0.004288
1015.0,0.004243
1016.0,0.004206
1017.0,0.004199
1018.0,0.004171
1019.0,0.004054
1020.0,0.004115
1021.0,0.004095
1022.0,0.004043
1023.0,0.004071
1024.0,0.003991
1025.0,0.004042
1026.0,0.004006
1027.0,0.003982
1028.0,0.003959
1029.0,0.003897
1030.0,0.003913
1031.0,0.00388
1032.0,0.003856
1033.0,0.003783
1034.0,0.003769
1035.0,0.003766
1036.0,0.003769
1037.0,0.003694
1038.0,0.003697
1039.0,0.003681
1040.0,0.003652
1041.0,0.003652
1042.0,0.003613
1043.0,0.003588
1044.0,0.003587
1045.0,0.003524
1046.0,0.003471
1047.0,0.003488
1048.0,0.003495
1049.0,0.003469
1050.0,0.003439
1051.0,0.003421
1052.0,0.003393
1053.0,0.003353
1054.0,0.003347
1055.0,0.003335
1056.0,0.003309
1057.0,0.003286
1058.0,0.003192
1059.0,0.003183
1060.0,0.003166
1061.0,0.003149
1062.0,0.003152
1063.0,0.003109
1064.0,0.003136
1065.0,0.003098
1066.0,0.003028
1067.0,0.003055
1068.0,0.002974
1069.0,0.002874
1070.0,0.002957
1071.0,0.003001
1072.0,0.002949
1073.0,0.002898
1074.0,0.002973
1075.0,0.002787
1076.0,0.002947
1077.0,0.002868
1078.0,0.002798
1079.0,0.002872
1080.0,0.002789
1081.0,0.002682
1082.0,0.002738
1083.0,0.002741
1084.0,0.002637
1085.0,0.002752
1086.0,0.002453
1087.0,0.002561
1088.0,0.002683
1089.0,0.002567
1090.0,0.002481
1091.0,0.002638
1092.0,0.002627
1093.0,0.002143
1094.0,0.002379
1095.0,0.002233
1096.0,0.002108
1097.0,0.002524
1098.0,0.002055
1099.0,0.002146
1100.0,0.001953
1101.0,0.001981
1102.0,0.001869
1103.0,0.001831
1104.0,0.001829
1105.0,0.002045
1106.0,0.001459
1107.0,0.001907
1108.0,0.001547
1109.0,0.00155
1110.0,0.001863
1111.0,0.001164
1112.0,0.001524
1113.0,0.0008861
1114.0,0.001
1115.0,0.0008085
1116.0,0.0006155
1117.0,0.0002001
1118.0,0.0006745
1119.0,0.0003061
1120.0,0.0003889
1121.0,0.000531
1122.0,0.0002034
1123.0,0.0003455
1124.0,0.0002874
1125.0,0.0003833
1126.0,0.0001197
1127.0,0.0004334
1128.0,0.0002422
1129.0,0.000258
1130.0,0.0001635
1131.0,0.0008862
1132.0,0.0006704
1133.0,0.0003954
1134.0,8.961e-05
1135.0,3.286e-05
1136.0,0.0003182
1137.0,0.0008465
1138.0,0.000572
1139.0,0.0009164
1140.0,0.0007367
1141.0,0.0005358
1142.0,0.0006274
1143.0,0.0009347
1144.0,0.0002845
1145.0,0.000365
1146.0,0.0003941
1147.0,0.0001246
1148.0,0.0007811
1149.0,0.0005992
1150.0,0.0003026
1151.0,0.0005421
1152.0,0.0006887
1153.0,0.0006741
1154.0,0.0003418
1155.0,0.0009098
1156.0,0.0008008
1157.0,0.0009186
1158.0,0.0009043
1159.0,0.0009915
1160.0,0.0008211
1161.0,0.001054
1162.0,0.001051
1163.0,0.001509
1164.0,0.001251
1165.0,0.001155
1166.0,0.001152
1167.0,0.00127
1168.0,0.001278
1169.0,0.001316
1170.0,0.001449
1171.0,0.001401
1172.0,0.001431
1173.0,0.00143
1174.0,0.0009521
1175.0,0.001394
1176.0,0.001557
1177.0,0.001472
1178.0,0.001044
1179.0,0.001556
1180.0,0.001346
1181.0,0.001393
1182.0,0.0008953
1183.0,0.00137
1184.0,0.001256
1185.0,0.001195
1186.0,0.001466
1187.0,0.001376
1188.0,0.0008958
1189.0,0.001267
1190.0,0.001412
1191.0,0.001315
1192.0,0.001426
1193.0,0.00135
1194.0,0.001397
1195.0,0.001302
1196.0,0.001239
1197.0,0.001396
1198.0,0.001254
1199.0,0.001028
1200.0,0.001307
1201.0,0.001244
1202.0,0.001237
1203.0,0.001228
1204.0,0.00104
1205.0,0.001265
1206.0,0.001423
1207.0,0.001216
1208.0,0.001204
1209.0,0.001226
1210.0,0.001284
1211.0,0.001204
1212.0,0.001175
1213.0,0.00134
1214.0,0.001203
1215.0,0.001172
1216.0,0.001323
1217.0,0.001276
1218.0,0.001303
1219.0,0.00128
1220.0,0.001297
1221.0,0.00131
1222.0,0.001266
1223.0,0.001247
1224.0,0.001232
1225.0,0.001284
1226.0,0.001293
1227.0,0.001171
1228.0,0.001294
1229.0,0.001281
1230.0,0.001251
1231.0,0.001293
1232.0,0.001281
1233.0,0.00122
1234.0,0.001282
1235.0,0.001268
1236.0,0.001275
1237.0,0.001248
1238.0,0.001262
1239.0,0.001242
1240.0,0.001243
1241.0,0.00123
1242.0,0.001226
1243.0,0.001212
1244.0,0.001216
1245.0,0.001218
1246.0,0.001207
1247.0,0.001197
1248.0,0.001191
1249.0,0.001192
1250.0,0.001181
1251.0,0.00116
1252.0,0.001159
1253.0,0.001141
1254.0,0.001123
1255.0,0.001145
1256.0,0.001102
1257.0,0.001091
1258.0,0.001114
1259.0,0.001058
1260.0,0.001062
1261.0,0.0009855
1262.0,0.000946
1263.0,0.0009447
1264.0,0.0008537
1265.0,0.0009336
1266.0,0.0008863
1267.0,0.0009055
1268.0,0.0008458
1269.0,0.00047
1270.0,0.0008923
1271.0,0.0009568
1272.0,0.0009586
1273.0,0.0009438
1274.0,0.0009458
1275.0,0.0009592
1276.0,0.0009681
1277.0,0.0009742
1278.0,0.0009956
1279.0,0.000983
1280.0,0.0009678
1281.0,0.0009232
1282.0,0.000891
1283.0,0.0009558
1284.0,0.0009746
1285.0,0.0009787
1286.0,0.0009913
1287.0,0.0009683
1288.0,0.0009662
1289.0,0.0009243
1290.0,0.0009521
1291.0,0.0009638
1292.0,0.0008866
1293.0,0.0009348
1294.0,0.0009243
1295.0,0.0009137
1296.0,0.0008594
1297.0,0.0008016
1298.0,0.0008765
1299.0,0.0009199
1300.0,0.0007468
1301.0,0.0007735
1302.0,0.000864
1303.0,0.0007318
1304.0,0.0005995
1305.0,0.000835
1306.0,0.0008318
1307.0,0.0006114
1308.0,0.0007229
1309.0,0.000816
1310.0,0.0005925
1311.0,0.0006811
1312.0,0.0006592
1313.0,0.0006399
1314.0,0.0005583
1315.0,0.000549
1316.0,0.0006583
1317.0,0.0006151
1318.0,0.0006788
1319.0,0.0005008
1320.0,0.0004836
1321.0,0.0005772
1322.0,0.0005801
1323.0,0.0004119
1324.0,0.000483
1325.0,0.0006289
1326.0,0.0005221
1327.0,0.0004919
1328.0,0.0004127
1329.0,0.0002937
1330.0,0.0003952
1331.0,0.0002197
1332.0,0.0002287
1333.0,0.0003292
1334.0,0.0002761
1335.0,0.0003957
1336.0,0.0003
1337.0,0.0002598
1338.0,0.0002825
1339.0,0.0002815
1340.0,0.0002734
1341.0,0.0002618
1342.0,0.0002759
1343.0,0.0001738
1344.0,0.0001004
1345.0,0.0001481
1346.0,6.805e-05
1347.0,6.868e-05
1348.0,4.104e-06
1349.0,1.496e-05
1350.0,1.556e-05
1351.0,3.675e-06
1352.0,9.815e-07
1353.0,4.983e-08
1354.0,1.714e-07
1355.0,1.379e-09
1356.0,2.413e-08
1357.0,3.666e-08
1358.0,1.618e-09
1359.0,2.039e-10
