interpolation:linear
wavelength,value
280.0,5.051e-22
280.5,1.6470000000000003e-20
281.0,8.800000000000001e-20
281.5,4.736e-19
282.0,7.832e-19
282.5,1.939e-18
283.0,6.113e-18
283.5,9.937e-18
284.0,1.623e-16
284.5,4.718e-16
285.0,8.233e-16
285.5,4.063e-15
286.0,1.633e-14
286.5,7.308e-14
287.0,2.089e-13
287.5,8.015e-13
288.0,2.658e-12
288.5,8.115e-12
289.0,2.172e-11
289.5,6.58e-11
290.0,1.829e-10
290.5,3.732e-10
291.0,8.016e-10
291.5,2.302e-09
292.0,4.976e-09
292.5,6.977e-09
293.0,1.495e-08
293.5,3.634e-08
294.0,5.677e-08
294.5,7.653e-08
295.0,1.295e-07
295.5,2.338e-07
296.0,4.586e-07
296.5,6.535e-07
297.0,8.994e-07
297.5,2.487e-06
298.0,4.039e-06
298.5,4.171e-06
299.0,9.463e-06
299.5,1.667e-05
300.0,1.904e-05
300.5,2.878e-05
301.0,5.646e-05
301.5,9.807e-05
302.0,8.812e-05
302.5,0.0001755
303.0,0.0003238
303.5,0.0004172
304.0,0.0004026
304.5,0.0006474
305.0,0.001095
305.5,0.001346
306.0,0.001337
306.5,0.001744
307.0,0.002878
307.5,0.004253
308.0,0.004562
308.5,0.005677
309.0,0.005872
309.5,0.007124
310.0,0.007346
310.5,0.01204
311.0,0.01543
311.5,0.01502
312.0,0.01577
312.5,0.01982
313.0,0.02185
313.5,0.0208
314.0,0.02706
314.5,0.02536
315.0,0.03358
315.5,0.02723
316.0,0.02487
316.5,0.03715
317.0,0.04596
317.5,0.04713
318.0,0.03774
318.5,0.04945
319.0,0.06025
319.5,0.04675
320.0,0.05595
320.5,0.07404
321.0,0.06941
321.5,0.06674
322.0,0.06692
322.5,0.05823
323.0,0.06007
323.5,0.07611
324.0,0.0891
324.5,0.08898
325.0,0.07527
325.5,0.09963
326.0,0.1221
326.5,0.1243
327.0,0.1227
327.5,0.1171
328.0,0.1016
328.5,0.1096
329.0,0.1342
329.5,0.1532
330.0,0.1531
330.5,0.1198
331.0,0.1209
331.5,0.1243
332.0,0.137
332.5,0.1366
333.0,0.135
333.5,0.1198
334.0,0.1221
334.5,0.1431
335.0,0.1357
335.5,0.1596
336.0,0.1102
336.5,0.1266
337.0,0.1027
337.5,0.127
338.0,0.1258
338.5,0.1462
339.0,0.1441
339.5,0.1384
340.0,0.1608
340.5,0.1448
341.0,0.1417
341.5,0.1294
342.0,0.1541
342.5,0.1438
343.0,0.1578
343.5,0.1484
344.0,0.1089
344.5,0.1105
345.0,0.1452
345.5,0.1477
346.0,0.1251
346.5,0.1412
347.0,0.1513
347.5,0.122
348.0,0.1386
348.5,0.1381
349.0,0.1277
349.5,0.1261
350.0,0.1555
350.5,0.1636
351.0,0.1457
351.5,0.1414
352.0,0.1513
352.5,0.1177
353.0,0.1478
353.5,0.1576
354.0,0.1631
354.5,0.1649
355.0,0.1639
355.5,0.1476
356.0,0.154
356.5,0.1311
357.0,0.108
357.5,0.1318
358.0,0.1042
358.5,0.08874
359.0,0.1237
359.5,0.1572
360.0,0.1662
360.5,0.1324
361.0,0.1204
361.5,0.1382
362.0,0.1192
362.5,0.1644
363.0,0.1472
363.5,0.1352
364.0,0.1649
364.5,0.1405
365.0,0.1427
365.5,0.1785
366.0,0.1886
366.5,0.1767
367.0,0.1715
367.5,0.1775
368.0,0.1548
368.5,0.1557
369.0,0.1677
369.5,0.1782
370.0,0.1894
370.5,0.1465
371.0,0.1561
371.5,0.1947
372.0,0.1288
372.5,0.154
373.0,0.1562
373.5,0.1013
374.0,0.1468
374.5,0.1212
375.0,0.1174
375.5,0.1748
376.0,0.1444
376.5,0.1492
377.0,0.1575
377.5,0.1837
378.0,0.1985
378.5,0.187
379.0,0.1538
379.5,0.14
380.0,0.1451
380.5,0.1751
381.0,0.1749
381.5,0.1382
382.0,0.1224
382.5,0.104
383.0,0.09593
383.5,0.09211
384.0,0.1013
384.5,0.1485
385.0,0.1468
385.5,0.1363
386.0,0.1163
386.5,0.1523
387.0,0.1262
387.5,0.1412
388.0,0.13
388.5,0.1281
389.0,0.1378
389.5,0.1663
390.0,0.1664
390.5,0.1526
391.0,0.1791
391.5,0.182
392.0,0.1528
392.5,0.1363
393.0,0.07562
393.5,0.05479
394.0,0.1111
394.5,0.1408
395.0,0.1713
395.5,0.1734
396.0,0.1499
396.5,0.08733
397.0,0.06532
397.5,0.1324
398.0,0.1848
398.5,0.1904
399.0,0.2055
399.5,0.2042
400.0,0.2113
401.0,0.2076
402.0,0.2176
403.0,0.2053
404.0,0.2008
405.0,0.1994
406.0,0.1948
407.0,0.1904
408.0,0.1964
409.0,0.2088
410.0,0.1813
411.0,0.195
412.0,0.2081
413.0,0.2016
414.0,0.2027
415.0,0.2018
416.0,0.2039
417.0,0.1975
418.0,0.1925
419.0,0.1937
420.0,0.1915
421.0,0.1989
422.0,0.1876
423.0,0.1819
424.0,0.191
425.0,0.1893
426.0,0.1831
427.0,0.1785
428.0,0.1727
429.0,0.1625
430.0,0.1413
431.0,0.139
432.0,0.1781
433.0,0.1778
434.0,0.1639
435.0,0.17
436.0,0.1903
437.0,0.1865
438.0,0.1686
439.0,0.1731
440.0,0.1773
441.0,0.1823
442.0,0.194
443.0,0.1876
444.0,0.1904
445.0,0.1851
446.0,0.1755
447.0,0.1885
448.0,0.19
449.0,0.1893
450.0,0.1931
451.0,0.1988
452.0,0.1902
453.0,0.1777
454.0,0.1842
455.0,0.1839
456.0,0.1869
457.0,0.1884
458.0,0.1805
459.0,0.1781
460.0,0.1771
461.0,0.1798
462.0,0.1799
463.0,0.1776
464.0,0.1737
465.0,0.1705
466.0,0.171
467.0,0.1667
468.0,0.1672
469.0,0.1667
470.0,0.1602
471.0,0.1589
472.0,0.1664
473.0,0.163
474.0,0.1621
475.0,0.1621
476.0,0.1559
477.0,0.155
478.0,0.1578
479.0,0.1554
480.0,0.1544
481.0,0.1558
482.0,0.1554
483.0,0.1525
484.0,0.1485
485.0,0.1407
486.0,0.1222
487.0,0.1273
488.0,0.1386
489.0,0.1379
490.0,0.144
491.0,0.1404
492.0,0.1316
493.0,0.1349
494.0,0.1353
495.0,0.1354
496.0,0.1352
497.0,0.1362
498.0,0.1286
499.0,0.129
500.0,0.1241
501.0,0.1206
502.0,0.1177
503.0,0.1213
504.0,0.117
505.0,0.1204
506.0,0.1234
507.0,0.1166
508.0,0.1123
509.0,0.1148
510.0,0.1135
511.0,0.1158
512.0,0.1163
513.0,0.1092
514.0,0.1076
515.0,0.1057
516.0,0.1047
517.0,0.09231
518.0,0.09634
519.0,0.1003
520.0,0.1031
521.0,0.1032
522.0,0.1025
523.0,0.09985
524.0,0.1025
525.0,0.1028
526.0,0.09737
527.0,0.09088
528.0,0.09522
529.0,0.09952
530.0,0.0973
531.0,0.09795
532.0,0.09386
533.0,0.09046
534.0,0.09251
535.0,0.09394
536.0,0.0942
537.0,0.08989
538.0,0.09085
539.0,0.08949
540.0,0.0852
541.0,0.08508
542.0,0.08702
543.0,0.08545
544.0,0.08632
545.0,0.08549
546.0,0.08523
547.0,0.08458
548.0,0.08298
549.0,0.08267
550.0,0.08308
551.0,0.08149
552.0,0.08147
553.0,0.07943
554.0,0.08075
555.0,0.08031
556.0,0.07865
557.0,0.07559
558.0,0.07438
559.0,0.07236
560.0,0.07264
561.0,0.07295
562.0,0.07179
563.0,0.07313
564.0,0.07059
565.0,0.06945
566.0,0.0679
567.0,0.06864
568.0,0.06747
569.0,0.06529
570.0,0.06483
571.0,0.06399
572.0,0.06498
573.0,0.06523
574.0,0.06462
575.0,0.06303
576.0,0.06209
577.0,0.06243
578.0,0.06119
579.0,0.06116
580.0,0.06208
581.0,0.06212
582.0,0.06299
583.0,0.06287
584.0,0.06313
585.0,0.06126
586.0,0.05963
587.0,0.06051
588.0,0.05857
589.0,0.05134
590.0,0.05339
591.0,0.05627
592.0,0.05509
593.0,0.05559
594.0,0.05474
595.0,0.05291
596.0,0.05478
597.0,0.05375
598.0,0.05325
599.0,0.05292
600.0,0.05268
601.0,0.05195
602.0,0.05129
603.0,0.05185
604.0,0.05243
605.0,0.05191
606.0,0.05148
607.0,0.05178
608.0,0.051
609.0,0.05088
610.0,0.05033
611.0,0.05041
612.0,0.05007
613.0,0.04924
614.0,0.04837
615.0,0.04923
616.0,0.04742
617.0,0.04713
618.0,0.04874
619.0,0.04804
620.0,0.04812
621.0,0.04793
622.0,0.04713
623.0,0.04616
624.0,0.04515
625.0,0.04486
626.0,0.04532
627.0,0.04558
628.0,0.04188
629.0,0.0439
630.0,0.04267
631.0,0.04359
632.0,0.04291
633.0,0.0441
634.0,0.04355
635.0,0.04405
636.0,0.0433
637.0,0.04385
638.0,0.04412
639.0,0.04346
640.0,0.04287
641.0,0.04266
642.0,0.04232
643.0,0.04273
644.0,0.04243
645.0,0.04229
646.0,0.04105
647.0,0.04025
648.0,0.04008
649.0,0.03912
650.0,0.03929
651.0,0.04084
652.0,0.03876
653.0,0.03993
654.0,0.03933
655.0,0.03759
656.0,0.03322
657.0,0.03399
658.0,0.03798
659.0,0.03811
660.0,0.0381
661.0,0.03819
662.0,0.03807
663.0,0.03718
664.0,0.0375
665.0,0.0374
666.0,0.03727
667.0,0.0371
668.0,0.03698
669.0,0.03739
670.0,0.03706
671.0,0.03691
672.0,0.03646
673.0,0.03689
674.0,0.03659
675.0,0.03609
676.0,0.03619
677.0,0.03569
678.0,0.03565
679.0,0.03493
680.0,0.03506
681.0,0.03467
682.0,0.03446
683.0,0.03423
684.0,0.03389
685.0,0.03402
686.0,0.03366
687.0,0.02071
688.0,0.02479
689.0,0.02479
690.0,0.02612
691.0,0.02767
692.0,0.0288
693.0,0.02841
694.0,0.02802
695.0,0.02926
696.0,0.02917
697.0,0.03116
698.0,0.03053
699.0,0.02946
700.0,0.02897
701.0,0.0285
702.0,0.02864
703.0,0.02857
704.0,0.02945
705.0,0.02935
706.0,0.02924
707.0,0.02914
708.0,0.02906
709.0,0.02903
710.0,0.02885
711.0,0.02874
712.0,0.02858
713.0,0.02812
714.0,0.02808
715.0,0.02698
716.0,0.02686
717.0,0.02255
718.0,0.02045
719.0,0.0185
720.0,0.01933
721.0,0.02162
722.0,0.02516
723.0,0.02302
724.0,0.02034
725.0,0.01987
726.0,0.02081
727.0,0.02108
728.0,0.01955
729.0,0.02038
730.0,0.02153
731.0,0.02041
732.0,0.02198
733.0,0.02339
734.0,0.0239
735.0,0.02326
736.0,0.02313
737.0,0.0231
738.0,0.0235
739.0,0.02291
740.0,0.02344
741.0,0.02313
742.0,0.02306
743.0,0.02353
744.0,0.02335
745.0,0.02325
746.0,0.02325
747.0,0.02319
748.0,0.02303
749.0,0.02265
750.0,0.02254
751.0,0.02222
752.0,0.02223
753.0,0.02223
754.0,0.02218
755.0,0.02196
756.0,0.02186
757.0,0.02179
758.0,0.02142
759.0,0.0208
760.0,0.002844
761.0,0.001476
762.0,0.009324
763.0,0.004351
764.0,0.006706
765.0,0.009183
766.0,0.01164
767.0,0.01517
768.0,0.01795
769.0,0.01838
770.0,0.01907
771.0,0.0192
772.0,0.01917
773.0,0.0192
774.0,0.01901
775.0,0.01878
776.0,0.01891
777.0,0.01857
778.0,0.01836
779.0,0.01828
780.0,0.01809
781.0,0.01803
782.0,0.01807
783.0,0.01768
784.0,0.01769
785.0,0.01748
786.0,0.0176
787.0,0.01716
788.0,0.01684
789.0,0.01674
790.0,0.01614
791.0,0.01629
792.0,0.0161
793.0,0.01576
794.0,0.01605
795.0,0.01623
796.0,0.01554
797.0,0.01549
798.0,0.01598
799.0,0.01579
800.0,0.01541
801.0,0.01526
802.0,0.01515
803.0,0.01495
804.0,0.01492
805.0,0.01483
806.0,0.01523
807.0,0.01496
808.0,0.01491
809.0,0.01452
810.0,0.0143
811.0,0.0142
812.0,0.01365
813.0,0.01325
814.0,0.01134
815.0,0.01122
816.0,0.01029
817.0,0.01047
818.0,0.009991
819.0,0.01135
820.0,0.01055
821.0,0.01263
822.0,0.01216
823.0,0.007722
824.0,0.01161
825.0,0.01218
826.0,0.01156
827.0,0.01228
828.0,0.01006
829.0,0.01137
830.0,0.01115
831.0,0.01115
832.0,0.0107
833.0,0.01152
834.0,0.01098
835.0,0.0122
836.0,0.01151
837.0,0.01214
838.0,0.01166
839.0,0.01186
840.0,0.01208
841.0,0.01183
842.0,0.01184
843.0,0.01181
844.0,0.01158
845.0,0.01194
846.0,0.01184
847.0,0.01158
848.0,0.01144
849.0,0.01106
850.0,0.01055
851.0,0.01109
852.0,0.01097
853.0,0.01052
854.0,0.009032
855.0,0.009899
856.0,0.01077
857.0,0.01098
858.0,0.01085
859.0,0.01082
860.0,0.0108
861.0,0.01069
862.0,0.01083
863.0,0.01104
864.0,0.01045
865.0,0.01032
866.0,0.00924
867.0,0.009603
868.0,0.01041
869.0,0.01015
870.0,0.0104
871.0,0.01021
872.0,0.01014
873.0,0.01007
874.0,0.00991
875.0,0.009665
876.0,0.009722
877.0,0.00978
878.0,0.009841
879.0,0.00965
880.0,0.009403
881.0,0.009216
882.0,0.009375
883.0,0.009374
884.0,0.009286
885.0,0.009313
886.0,0.008811
887.0,0.00889
888.0,0.00897
889.0,0.009057
890.0,0.008912
891.0,0.008876
892.0,0.008552
893.0,0.008201
894.0,0.007795
895.0,0.007231
896.0,0.006701
897.0,0.005583
898.0,0.006156
899.0,0.004462
900.0,0.006325
901.0,0.004696
902.0,0.005664
903.0,0.005653
904.0,0.00742
905.0,0.007086
906.0,0.006553
907.0,0.005081
908.0,0.0052
909.0,0.005713
910.0,0.004883
911.0,0.005271
912.0,0.005526
913.0,0.004893
914.0,0.004845
915.0,0.005283
916.0,0.004355
917.0,0.005739
918.0,0.004443
919.0,0.005823
920.0,0.005918
921.0,0.006187
922.0,0.005384
923.0,0.005933
924.0,0.005477
925.0,0.005322
926.0,0.00537
927.0,0.006102
928.0,0.004164
929.0,0.003723
930.0,0.002798
931.0,0.00263
932.0,0.001799
933.0,0.00142
934.0,0.0007269
935.0,0.001455
936.0,0.0008634
937.0,0.0008704
938.0,0.001084
939.0,0.00246
940.0,0.003035
941.0,0.002189
942.0,0.002573
943.0,0.001597
944.0,0.001709
945.0,0.002227
946.0,0.001042
947.0,0.002208
948.0,0.001571
949.0,0.003058
950.0,0.0007286
951.0,0.002994
952.0,0.001471
953.0,0.001961
954.0,0.002485
955.0,0.001982
956.0,0.001933
957.0,0.001443
958.0,0.002858
959.0,0.002164
960.0,0.002446
961.0,0.002803
962.0,0.002625
963.0,0.003097
964.0,0.002788
965.0,0.003062
966.0,0.003047
967.0,0.003013
968.0,0.00432
969.0,0.004503
970.0,0.004057
971.0,0.004783
972.0,0.004511
973.0,0.003779
974.0,0.003547
975.0,0.003702
976.0,0.003446
977.0,0.004047
978.0,0.003773
979.0,0.003984
980.0,0.003687
981.0,0.004576
982.0,0.004307
983.0,0.004087
984.0,0.00472
985.0,0.004243
986.0,0.004801
987.0,0.004652
988.0,0.004625
989.0,0.004751
990.0,0.004563
991.0,0.004717
992.0,0.004731
993.0,0.004575
994.0,0.0047
995.0,0.004683
996.0,0.004639
997.0,0.004631
998.0,0.004591
999.0,0.004559
1000.0,0.004502
1001.0,0.004551
1002.0,0.004373
1003.0,0.004434
1004.0,0.004299
1005.0,0.004138
1006.0,0.004276
1007.0,0.004353
1008.0,0.004307
1009.0,0.004261
1010.0,0.004223
1011.0,0.004268
1012.0,0.004207
1013.0,0.004227
1014.0,0.004182
1015.0,0.004138
1016.0,0.004102
1017.0,0.004096
1018.0,0.004068
1019.0,0.003953
1020.0,0.004013
1021.0,0.003995
1022.0,0.003943
1023.0,0.00397
1024.0,0.003891
1025.0,0.003943
1026.0,0.003907
1027.0,0.003884
1028.0,0.003861
1029.0,0.0038
1030.0,0.003816
1031.0,0.003785
1032.0,0.00376
1033.0,0.003689
1034.0,0.003676
1035.0,0.003673
1036.0,0.003676
1037.0,0.003603
1038.0,0.003606
1039.0,0.00359
1040.0,0.003562
1041.0,0.003561
1042.0,0.003523
1043.0,0.003499
1044.0,0.003498
1045.0,0.003436
1046.0,0.003384
1047.0,0.003401
1048.0,0.003407
1049.0,0.003382
1050.0,0.003353
1051.0,0.003335
1052.0,0.003308
1053.0,0.003269
1054.0,0.003263
1055.0,0.003251
1056.0,0.003226
1057.0,0.003202
1058.0,0.003111
1059.0,0.003102
1060.0,0.003085
1061.0,0.003069
1062.0,0.003071
1063.0,0.003029
1064.0,0.003055
1065.0,0.003018
1066.0,0.00295
1067.0,0.002976
1068.0,0.002897
1069.0,0.0028
1070.0,0.002881
1071.0,0.002925
1072.0,0.002873
1073.0,0.002824
1074.0,0.002897
1075.0,0.002713
1076.0,0.002872
1077.0,0.002793
1078.0,0.002725
1079.0,0.0028
1080.0,0.002717
1081.0,0.002611
1082.0,0.002668
1083.0,0.002671
1084.0,0.002567
1085.0,0.002681
1086.0,0.002387
1087.0,0.002494
1088.0,0.002615
1089.0,0.002499
1090.0,0.002415
1091.0,0.00257
1092.0,0.00256
1093.0,0.002083
1094.0,0.002317
1095.0,0.00217
1096.0,0.002047
1097.0,0.002459
1098.0,0.001995
1099.0,0.002084
1100.0,0.001895
1101.0,0.001924
1102.0,0.001813
1103.0,0.001776
1104.0,0.001774
1105.0,0.001986
1106.0,0.001411
1107.0,0.00185
1108.0,0.001499
1109.0,0.001502
1110.0,0.001807
1111.0,0.001127
1112.0,0.001477
1113.0,0.0008578
1114.0,0.0009671
1115.0,0.000783
1116.0,0.0005958
1117.0,0.0001951
1118.0,0.0006524
1119.0,0.0002974
1120.0,0.0003766
1121.0,0.0005128
1122.0,0.000198
1123.0,0.0003351
1124.0,0.0002793
1125.0,0.0003714
1126.0,0.000117
1127.0,0.0004194
1128.0,0.0002353
1129.0,0.0002504
1130.0,0.0001596
1131.0,0.0008536
1132.0,0.0006471
1133.0,0.0003824
1134.0,8.781e-05
1135.0,3.242e-05
1136.0,0.0003082
1137.0,0.0008144
1138.0,0.0005526
1139.0,0.0008858
1140.0,0.0007117
1141.0,0.000518
1142.0,0.0006062
1143.0,0.0009013
1144.0,0.0002765
1145.0,0.0003531
1146.0,0.0003809
1147.0,0.0001216
1148.0,0.0007542
1149.0,0.000579
1150.0,0.0002942
1151.0,0.0005238
1152.0,0.0006649
1153.0,0.0006523
1154.0,0.0003311
1155.0,0.0008788
1156.0,0.0007734
1157.0,0.0008886
1158.0,0.0008747
1159.0,0.000959
1160.0,0.000795
1161.0,0.001022
1162.0,0.001019
1163.0,0.001465
1164.0,0.001214
1165.0,0.001119
1166.0,0.001118
1167.0,0.001232
1168.0,0.00124
1169.0,0.001277
1170.0,0.001407
1171.0,0.001361
1172.0,0.001392
1173.0,0.001389
1174.0,0.0009233
1175.0,0.001356
1176.0,0.001517
1177.0,0.001432
1178.0,0.001014
1179.0,0.001515
1180.0,0.001309
1181.0,0.001354
1182.0,0.0008692
1183.0,0.001332
1184.0,0.001221
1185.0,0.001161
1186.0,0.001427
1187.0,0.001338
1188.0,0.0008685
1189.0,0.001232
1190.0,0.001375
1191.0,0.001277
1192.0,0.001389
1193.0,0.001314
1194.0,0.001359
1195.0,0.001265
1196.0,0.001203
1197.0,0.001359
1198.0,0.001221
1199.0,0.0009977
1200.0,0.001272
1201.0,0.001209
1202.0,0.001204
1203.0,0.001193
1204.0,0.001011
1205.0,0.001232
1206.0,0.001386
1207.0,0.001182
1208.0,0.001172
1209.0,0.001193
1210.0,0.00125
1211.0,0.001171
1212.0,0.001141
1213.0,0.001304
1214.0,0.001169
1215.0,0.001139
1216.0,0.001288
1217.0,0.001242
1218.0,0.001269
1219.0,0.001246
1220.0,0.001262
1221.0,0.001276
1222.0,0.001233
1223.0,0.001215
1224.0,0.001198
1225.0,0.001251
1226.0,0.00126
1227.0,0.001139
1228.0,0.001261
1229.0,0.001248
1230.0,0.001219
1231.0,0.001261
1232.0,0.001249
1233.0,0.001188
1234.0,0.001251
1235.0,0.001237
1236.0,0.001243
1237.0,0.001217
1238.0,0.001231
1239.0,0.001211
1240.0,0.001213
1241.0,0.0012
1242.0,0.001196
1243.0,0.001182
1244.0,0.001186
1245.0,0.001188
1246.0,0.001177
1247.0,0.001168
1248.0,0.001161
1249.0,0.001163
1250.0,0.001151
1251.0,0.001131
1252.0,0.00113
1253.0,0.001112
1254.0,0.001094
1255.0,0.001117
1256.0,0.001073
1257.0,0.001062
1258.0,0.001086
1259.0,0.00103
1260.0,0.001034
1261.0,0.0009573
1262.0,0.000918
1263.0,0.0009166
1264.0,0.0008264
1265.0,0.0009058
1266.0,0.0008587
1267.0,0.0008782
1268.0,0.0008191
1269.0,0.0004513
1270.0,0.000865
1271.0,0.0009294
1272.0,0.0009313
1273.0,0.0009168
1274.0,0.000919
1275.0,0.0009323
1276.0,0.0009414
1277.0,0.0009478
1278.0,0.0009694
1279.0,0.0009571
1280.0,0.0009423
1281.0,0.0008992
1282.0,0.0008685
1283.0,0.0009315
1284.0,0.0009498
1285.0,0.0009538
1286.0,0.0009664
1287.0,0.0009435
1288.0,0.0009416
1289.0,0.0008996
1290.0,0.000928
1291.0,0.0009395
1292.0,0.0008624
1293.0,0.0009109
1294.0,0.0009006
1295.0,0.0008894
1296.0,0.0008355
1297.0,0.0007788
1298.0,0.0008531
1299.0,0.0008966
1300.0,0.0007256
1301.0,0.0007517
1302.0,0.0008409
1303.0,0.0007112
1304.0,0.000581
1305.0,0.0008127
1306.0,0.0008092
1307.0,0.0005934
1308.0,0.0007031
1309.0,0.0007933
1310.0,0.0005748
1311.0,0.000662
1312.0,0.0006404
1313.0,0.0006211
1314.0,0.0005416
1315.0,0.000532
1316.0,0.0006393
1317.0,0.0005974
1318.0,0.0006599
1319.0,0.0004852
1320.0,0.0004692
1321.0,0.0005601
1322.0,0.0005623
1323.0,0.0003985
1324.0,0.0004681
1325.0,0.0006105
1326.0,0.0005062
1327.0,0.0004768
1328.0,0.0003999
1329.0,0.0002841
1330.0,0.0003819
1331.0,0.0002124
1332.0,0.0002212
1333.0,0.0003174
1334.0,0.0002678
1335.0,0.0003825
1336.0,0.00029
1337.0,0.0002515
1338.0,0.0002731
1339.0,0.0002722
1340.0,0.0002649
1341.0,0.0002528
1342.0,0.0002664
1343.0,0.0001677
1344.0,9.763e-05
1345.0,0.0001432
1346.0,6.62e-05
1347.0,6.678e-05
1348.0,4.072e-06
1349.0,1.475e-05
1350.0,1.534e-05
1351.0,3.65e-06
1352.0,9.78e-07
1353.0,4.973e-08
1354.0,1.71e-07
1355.0,1.376e-09
1356.0,2.408e-08
1357.0,3.659e-08
1358.0,1.615e-09
