interpolation:linear
wavelength,value
280.0,2.195e-21
280.5,6.936000000000001e-20
281.0,3.669e-19
281.5,3.954e-19
282.0,1.025e-18
282.5,2.655e-18
283.0,8.528e-18
283.5,1.393e-17
284.0,2.265e-16
284.5,6.544e-16
285.0,1.441e-15
285.5,6.933e-15
286.0,2.767e-14
286.5,1.219e-13
287.0,3.447e-13
287.5,1.304e-12
288.0,3.603e-12
288.5,1.176e-11
289.0,3.294e-11
289.5,1.032e-10
290.0,2.927e-10
290.5,6.055e-10
291.0,1.317e-09
291.5,3.821e-09
292.0,7.918e-09
292.5,1.177e-08
293.0,2.71e-08
293.5,7.23e-08
294.0,1.203e-07
294.5,1.531e-07
295.0,2.726e-07
295.5,6.601e-07
296.0,1.296e-06
296.5,1.852e-06
297.0,2.558e-06
297.5,7.125e-06
298.0,1.168e-05
298.5,1.217e-05
299.0,2.792e-05
299.5,5.05e-05
300.0,5.881e-05
300.5,9.115e-05
301.0,0.0001887
301.5,0.0003518
302.0,0.0003316
302.5,0.000645
303.0,0.001152
303.5,0.001449
304.0,0.00137
304.5,0.00209
305.0,0.003276
305.5,0.003829
306.0,0.003729
306.5,0.004701
307.0,0.007201
307.5,0.009878
308.0,0.01046
308.5,0.01253
309.0,0.01266
309.5,0.01447
310.0,0.01452
310.5,0.02348
311.0,0.02944
311.5,0.02835
312.0,0.02845
312.5,0.0347
313.0,0.03762
313.5,0.03629
314.0,0.04557
314.5,0.04077
315.0,0.05351
315.5,0.04431
316.0,0.03899
316.5,0.05639
317.0,0.06975
317.5,0.0721
318.0,0.05648
318.5,0.071
319.0,0.0847
319.5,0.06785
320.0,0.08153
320.5,0.1035
321.0,0.09342
321.5,0.08942
322.0,0.0932
322.5,0.08087
323.0,0.08123
323.5,0.101
324.0,0.1177
324.5,0.1187
325.0,0.101
325.5,0.1308
326.0,0.1604
326.5,0.161
327.0,0.1595
327.5,0.1531
328.0,0.135
328.5,0.1425
329.0,0.1715
329.5,0.1946
330.0,0.1952
330.5,0.1546
331.0,0.1566
331.5,0.1594
332.0,0.173
332.5,0.1712
333.0,0.1697
333.5,0.1521
334.0,0.1551
334.5,0.1796
335.0,0.169
335.5,0.1995
336.0,0.1376
336.5,0.1579
337.0,0.1286
337.5,0.1592
338.0,0.1559
338.5,0.1816
339.0,0.1785
339.5,0.1715
340.0,0.1987
340.5,0.1786
341.0,0.175
341.5,0.1592
342.0,0.1894
342.5,0.1764
343.0,0.1939
343.5,0.1824
344.0,0.1335
344.5,0.1359
345.0,0.1779
345.5,0.1805
346.0,0.1526
346.5,0.1721
347.0,0.1845
347.5,0.1488
348.0,0.1685
348.5,0.1676
349.0,0.1549
349.5,0.1528
350.0,0.1883
350.5,0.1979
351.0,0.1764
351.5,0.1715
352.0,0.183
352.5,0.1421
353.0,0.1782
353.5,0.1897
354.0,0.1962
354.5,0.1982
355.0,0.1969
355.5,0.1772
356.0,0.1847
356.5,0.1571
357.0,0.1294
357.5,0.1578
358.0,0.1246
358.5,0.1061
359.0,0.1478
359.5,0.1878
360.0,0.1983
360.5,0.1579
361.0,0.1434
361.5,0.1645
362.0,0.1417
362.5,0.1954
363.0,0.1749
363.5,0.1605
364.0,0.1956
364.5,0.1666
365.0,0.169
365.5,0.2113
366.0,0.2231
366.5,0.2089
367.0,0.2027
367.5,0.2095
368.0,0.1827
368.5,0.1837
369.0,0.1976
369.5,0.2099
370.0,0.2229
370.5,0.1724
371.0,0.1835
371.5,0.2288
372.0,0.1513
372.5,0.1807
373.0,0.1832
373.5,0.1187
374.0,0.1719
374.5,0.1418
375.0,0.1374
375.5,0.2043
376.0,0.1688
376.5,0.1742
377.0,0.1838
377.5,0.2142
378.0,0.2314
378.5,0.2178
379.0,0.1791
379.5,0.1629
380.0,0.1687
380.5,0.2036
381.0,0.2032
381.5,0.1605
382.0,0.1419
382.5,0.1205
383.0,0.1112
383.5,0.1067
384.0,0.1172
384.5,0.1718
385.0,0.1697
385.5,0.1575
386.0,0.1343
386.5,0.1758
387.0,0.1455
387.5,0.1628
388.0,0.1498
388.5,0.1475
389.0,0.1586
389.5,0.1913
390.0,0.1913
390.5,0.1754
391.0,0.2056
391.5,0.2089
392.0,0.1753
392.5,0.1563
393.0,0.08665
393.5,0.06275
394.0,0.1272
394.5,0.1612
395.0,0.1959
395.5,0.1983
396.0,0.1712
396.5,0.09972
397.0,0.07455
397.5,0.151
398.0,0.2107
398.5,0.2169
399.0,0.2341
399.5,0.2324
400.0,0.2404
401.0,0.2362
402.0,0.2472
403.0,0.233
404.0,0.2277
405.0,0.226
406.0,0.2206
407.0,0.2153
408.0,0.222
409.0,0.2358
410.0,0.2045
411.0,0.2199
412.0,0.2344
413.0,0.2269
414.0,0.2279
415.0,0.2268
416.0,0.2289
417.0,0.2216
418.0,0.2158
419.0,0.2169
420.0,0.2143
421.0,0.2224
422.0,0.2097
423.0,0.2032
424.0,0.2132
425.0,0.2111
426.0,0.2041
427.0,0.1988
428.0,0.1922
429.0,0.1807
430.0,0.157
431.0,0.1543
432.0,0.1977
433.0,0.1972
434.0,0.1817
435.0,0.1883
436.0,0.2107
437.0,0.2063
438.0,0.1865
439.0,0.1914
440.0,0.1959
441.0,0.2014
442.0,0.2142
443.0,0.2071
444.0,0.21
445.0,0.204
446.0,0.1933
447.0,0.2074
448.0,0.2089
449.0,0.2081
450.0,0.2122
451.0,0.2183
452.0,0.2087
453.0,0.1949
454.0,0.202
455.0,0.2016
456.0,0.2047
457.0,0.2064
458.0,0.1977
459.0,0.1951
460.0,0.194
461.0,0.1969
462.0,0.197
463.0,0.1943
464.0,0.1899
465.0,0.1863
466.0,0.1867
467.0,0.1819
468.0,0.1824
469.0,0.1818
470.0,0.1747
471.0,0.1733
472.0,0.1813
473.0,0.1776
474.0,0.1765
475.0,0.1765
476.0,0.1698
477.0,0.1688
478.0,0.172
479.0,0.1694
480.0,0.1683
481.0,0.1699
482.0,0.1694
483.0,0.1662
484.0,0.1616
485.0,0.153
486.0,0.1328
487.0,0.1382
488.0,0.1505
489.0,0.1497
490.0,0.1563
491.0,0.1525
492.0,0.1429
493.0,0.1464
494.0,0.1468
495.0,0.147
496.0,0.1468
497.0,0.1478
498.0,0.1398
499.0,0.1403
500.0,0.135
501.0,0.1313
502.0,0.1282
503.0,0.1323
504.0,0.1277
505.0,0.1314
506.0,0.1346
507.0,0.1272
508.0,0.1225
509.0,0.1251
510.0,0.1237
511.0,0.1261
512.0,0.1266
513.0,0.1189
514.0,0.1172
515.0,0.1151
516.0,0.114
517.0,0.1006
518.0,0.105
519.0,0.1093
520.0,0.1124
521.0,0.1125
522.0,0.1118
523.0,0.1089
524.0,0.112
525.0,0.1124
526.0,0.1065
527.0,0.09947
528.0,0.1043
529.0,0.1091
530.0,0.1067
531.0,0.1075
532.0,0.103
533.0,0.09932
534.0,0.1016
535.0,0.1031
536.0,0.1034
537.0,0.09863
538.0,0.09967
539.0,0.09819
540.0,0.09351
541.0,0.09342
542.0,0.09559
543.0,0.09389
544.0,0.0949
545.0,0.09402
546.0,0.09375
547.0,0.09305
548.0,0.09129
549.0,0.09096
550.0,0.09142
551.0,0.08968
552.0,0.08967
553.0,0.08744
554.0,0.08891
555.0,0.08847
556.0,0.08667
557.0,0.08333
558.0,0.08205
559.0,0.07987
560.0,0.08023
561.0,0.08063
562.0,0.0794
563.0,0.08094
564.0,0.07817
565.0,0.07694
566.0,0.07526
567.0,0.07611
568.0,0.07486
569.0,0.0725
570.0,0.072
571.0,0.07108
572.0,0.07222
573.0,0.07252
574.0,0.07186
575.0,0.07009
576.0,0.06902
577.0,0.06937
578.0,0.06796
579.0,0.06789
580.0,0.06885
581.0,0.06884
582.0,0.06977
583.0,0.0696
584.0,0.06986
585.0,0.06778
586.0,0.06595
587.0,0.06693
588.0,0.06482
589.0,0.0569
590.0,0.05917
591.0,0.06234
592.0,0.06107
593.0,0.06162
594.0,0.06071
595.0,0.05875
596.0,0.0608
597.0,0.05971
598.0,0.05916
599.0,0.05882
600.0,0.05856
601.0,0.05774
602.0,0.05701
603.0,0.05762
604.0,0.05824
605.0,0.05764
606.0,0.05713
607.0,0.05743
608.0,0.05652
609.0,0.05634
610.0,0.05568
611.0,0.05572
612.0,0.05531
613.0,0.05435
614.0,0.05335
615.0,0.05426
616.0,0.05223
617.0,0.05188
618.0,0.05362
619.0,0.05283
620.0,0.05289
621.0,0.05267
622.0,0.05177
623.0,0.05069
624.0,0.04956
625.0,0.04923
626.0,0.04972
627.0,0.05
628.0,0.04607
629.0,0.04817
630.0,0.0468
631.0,0.04774
632.0,0.04696
633.0,0.04823
634.0,0.04758
635.0,0.0481
636.0,0.04725
637.0,0.04781
638.0,0.04807
639.0,0.04732
640.0,0.04664
641.0,0.04639
642.0,0.04599
643.0,0.04642
644.0,0.04607
645.0,0.0459
646.0,0.04455
647.0,0.04372
648.0,0.04351
649.0,0.04246
650.0,0.04257
651.0,0.04422
652.0,0.04201
653.0,0.04321
654.0,0.04254
655.0,0.04067
656.0,0.03592
657.0,0.03673
658.0,0.04102
659.0,0.04114
660.0,0.04111
661.0,0.04119
662.0,0.04107
663.0,0.04009
664.0,0.04041
665.0,0.04027
666.0,0.04011
667.0,0.03991
668.0,0.03976
669.0,0.04018
670.0,0.03981
671.0,0.03963
672.0,0.03914
673.0,0.03959
674.0,0.03925
675.0,0.0387
676.0,0.03879
677.0,0.03825
678.0,0.0382
679.0,0.03741
680.0,0.03754
681.0,0.03711
682.0,0.03689
683.0,0.03664
684.0,0.03627
685.0,0.0364
686.0,0.03601
687.0,0.02256
688.0,0.02685
689.0,0.02684
690.0,0.0282
691.0,0.02978
692.0,0.03093
693.0,0.0305
694.0,0.03005
695.0,0.03132
696.0,0.0312
697.0,0.03326
698.0,0.03259
699.0,0.03149
700.0,0.03095
701.0,0.03047
702.0,0.0306
703.0,0.03051
704.0,0.03142
705.0,0.03131
706.0,0.03118
707.0,0.03107
708.0,0.03098
709.0,0.03092
710.0,0.03074
711.0,0.03061
712.0,0.03043
713.0,0.02996
714.0,0.02991
715.0,0.02876
716.0,0.02863
717.0,0.02418
718.0,0.02192
719.0,0.01981
720.0,0.02072
721.0,0.02311
722.0,0.02682
723.0,0.02457
724.0,0.02174
725.0,0.02126
726.0,0.02227
727.0,0.02251
728.0,0.02091
729.0,0.02176
730.0,0.02301
731.0,0.02181
732.0,0.02344
733.0,0.0249
734.0,0.02542
735.0,0.02475
736.0,0.02461
737.0,0.02458
738.0,0.02496
739.0,0.02434
740.0,0.02489
741.0,0.02454
742.0,0.02447
743.0,0.02496
744.0,0.02477
745.0,0.02466
746.0,0.02466
747.0,0.0246
748.0,0.02442
749.0,0.02402
750.0,0.02389
751.0,0.02355
752.0,0.02355
753.0,0.02356
754.0,0.02349
755.0,0.02325
756.0,0.02315
757.0,0.02307
758.0,0.02268
759.0,0.02205
760.0,0.003066
761.0,0.001569
762.0,0.01014
763.0,0.004724
764.0,0.007306
765.0,0.009985
766.0,0.01258
767.0,0.01627
768.0,0.01911
769.0,0.01952
770.0,0.0202
771.0,0.02033
772.0,0.02029
773.0,0.02032
774.0,0.02012
775.0,0.01988
776.0,0.02003
777.0,0.01966
778.0,0.01944
779.0,0.01936
780.0,0.01916
781.0,0.01909
782.0,0.01913
783.0,0.01871
784.0,0.01872
785.0,0.0185
786.0,0.01862
787.0,0.01817
788.0,0.01784
789.0,0.01773
790.0,0.01711
791.0,0.01725
792.0,0.01705
793.0,0.01668
794.0,0.01697
795.0,0.01716
796.0,0.01646
797.0,0.01641
798.0,0.0169
799.0,0.0167
800.0,0.01631
801.0,0.01616
802.0,0.01604
803.0,0.01584
804.0,0.01579
805.0,0.0157
806.0,0.0161
807.0,0.01582
808.0,0.01577
809.0,0.01537
810.0,0.01514
811.0,0.01506
812.0,0.01449
813.0,0.01408
814.0,0.01209
815.0,0.01195
816.0,0.01096
817.0,0.01115
818.0,0.01065
819.0,0.01207
820.0,0.01123
821.0,0.0134
822.0,0.0129
823.0,0.008234
824.0,0.01234
825.0,0.0129
826.0,0.01226
827.0,0.013
828.0,0.0107
829.0,0.01205
830.0,0.01181
831.0,0.01182
832.0,0.01135
833.0,0.01221
834.0,0.01164
835.0,0.01291
836.0,0.0122
837.0,0.01284
838.0,0.01235
839.0,0.01254
840.0,0.01277
841.0,0.01251
842.0,0.01251
843.0,0.01248
844.0,0.01223
845.0,0.01261
846.0,0.01251
847.0,0.01223
848.0,0.01208
849.0,0.01168
850.0,0.01115
851.0,0.01173
852.0,0.0116
853.0,0.01112
854.0,0.009549
855.0,0.01046
856.0,0.01138
857.0,0.0116
858.0,0.01147
859.0,0.01143
860.0,0.0114
861.0,0.01129
862.0,0.01143
863.0,0.01166
864.0,0.01103
865.0,0.01089
866.0,0.009751
867.0,0.01013
868.0,0.01098
869.0,0.01071
870.0,0.01097
871.0,0.01078
872.0,0.01069
873.0,0.01063
874.0,0.01045
875.0,0.0102
876.0,0.01026
877.0,0.01032
878.0,0.01038
879.0,0.01018
880.0,0.009921
881.0,0.009726
882.0,0.009896
883.0,0.009893
884.0,0.009801
885.0,0.00983
886.0,0.009308
887.0,0.009386
888.0,0.009473
889.0,0.00956
890.0,0.009414
891.0,0.009373
892.0,0.00904
893.0,0.008677
894.0,0.008266
895.0,0.007689
896.0,0.007123
897.0,0.005948
898.0,0.006556
899.0,0.004755
900.0,0.006723
901.0,0.005015
902.0,0.006027
903.0,0.006026
904.0,0.007869
905.0,0.00752
906.0,0.006957
907.0,0.005417
908.0,0.005538
909.0,0.006079
910.0,0.005213
911.0,0.005611
912.0,0.005886
913.0,0.005226
914.0,0.005167
915.0,0.00565
916.0,0.004643
917.0,0.006121
918.0,0.004744
919.0,0.006199
920.0,0.006277
921.0,0.006573
922.0,0.005733
923.0,0.006299
924.0,0.005842
925.0,0.005672
926.0,0.005731
927.0,0.006498
928.0,0.004468
929.0,0.004003
930.0,0.003011
931.0,0.002826
932.0,0.001933
933.0,0.001523
934.0,0.0007759
935.0,0.001559
936.0,0.0009202
937.0,0.000928
938.0,0.00116
939.0,0.002645
940.0,0.003264
941.0,0.002357
942.0,0.002772
943.0,0.001713
944.0,0.001824
945.0,0.002395
946.0,0.001114
947.0,0.002379
948.0,0.001681
949.0,0.003302
950.0,0.0007759
951.0,0.00323
952.0,0.001578
953.0,0.002108
954.0,0.002672
955.0,0.002132
956.0,0.00206
957.0,0.001551
958.0,0.003054
959.0,0.002319
960.0,0.002629
961.0,0.003004
962.0,0.002811
963.0,0.003313
964.0,0.002981
965.0,0.003277
966.0,0.003263
967.0,0.003228
968.0,0.004587
969.0,0.004797
970.0,0.00432
971.0,0.005074
972.0,0.004789
973.0,0.004033
974.0,0.003784
975.0,0.003941
976.0,0.003683
977.0,0.0043
978.0,0.00402
979.0,0.004241
980.0,0.003923
981.0,0.004855
982.0,0.004578
983.0,0.004347
984.0,0.004996
985.0,0.004512
986.0,0.005074
987.0,0.004928
988.0,0.004898
989.0,0.005017
990.0,0.004834
991.0,0.004985
992.0,0.004998
993.0,0.004842
994.0,0.004964
995.0,0.004944
996.0,0.004898
997.0,0.004889
998.0,0.004847
999.0,0.004813
1000.0,0.004754
1001.0,0.004804
1002.0,0.004625
1003.0,0.004681
1004.0,0.004541
1005.0,0.004368
1006.0,0.004515
1007.0,0.004595
1008.0,0.004548
1009.0,0.004502
1010.0,0.004463
1011.0,0.004505
1012.0,0.004442
1013.0,0.004462
1014.0,0.004415
1015.0,0.004368
1016.0,0.004331
1017.0,0.004324
1018.0,0.004294
1019.0,0.004175
1020.0,0.004236
1021.0,0.004216
1022.0,0.004163
1023.0,0.004191
1024.0,0.004111
1025.0,0.004162
1026.0,0.004125
1027.0,0.0041
1028.0,0.004076
1029.0,0.004012
1030.0,0.004029
1031.0,0.003995
1032.0,0.003969
1033.0,0.003894
1034.0,0.00388
1035.0,0.003877
1036.0,0.003881
1037.0,0.003804
1038.0,0.003807
1039.0,0.00379
1040.0,0.003761
1041.0,0.00376
1042.0,0.00372
1043.0,0.003694
1044.0,0.003694
1045.0,0.003629
1046.0,0.003575
1047.0,0.003593
1048.0,0.003599
1049.0,0.003573
1050.0,0.003543
1051.0,0.003523
1052.0,0.003495
1053.0,0.003454
1054.0,0.003449
1055.0,0.003436
1056.0,0.00341
1057.0,0.003386
1058.0,0.00329
1059.0,0.003281
1060.0,0.003263
1061.0,0.003246
1062.0,0.003249
1063.0,0.003205
1064.0,0.003232
1065.0,0.003194
1066.0,0.003122
1067.0,0.003149
1068.0,0.003067
1069.0,0.002962
1070.0,0.003049
1071.0,0.003093
1072.0,0.00304
1073.0,0.002988
1074.0,0.003063
1075.0,0.002875
1076.0,0.003037
1077.0,0.002957
1078.0,0.002886
1079.0,0.002959
1080.0,0.002876
1081.0,0.002768
1082.0,0.002822
1083.0,0.002824
1084.0,0.002721
1085.0,0.002837
1086.0,0.002532
1087.0,0.002643
1088.0,0.002765
1089.0,0.002649
1090.0,0.002561
1091.0,0.002719
1092.0,0.002708
1093.0,0.002216
1094.0,0.002453
1095.0,0.002309
1096.0,0.002181
1097.0,0.002601
1098.0,0.002128
1099.0,0.002222
1100.0,0.002023
1101.0,0.002052
1102.0,0.001937
1103.0,0.0019
1104.0,0.001898
1105.0,0.002118
1106.0,0.001518
1107.0,0.001976
1108.0,0.001608
1109.0,0.001609
1110.0,0.001932
1111.0,0.001211
1112.0,0.001583
1113.0,0.0009224
1114.0,0.001042
1115.0,0.000841
1116.0,0.0006415
1117.0,0.0002073
1118.0,0.0007032
1119.0,0.0003178
1120.0,0.0004057
1121.0,0.0005554
1122.0,0.0002111
1123.0,0.0003596
1124.0,0.0002984
1125.0,0.0003994
1126.0,0.0001236
1127.0,0.0004522
1128.0,0.000252
1129.0,0.0002686
1130.0,0.0001693
1131.0,0.0009286
1132.0,0.0007009
1133.0,0.0004131
1134.0,9.23e-05
1135.0,3.348e-05
1136.0,0.0003322
1137.0,0.0008884
1138.0,0.0005974
1139.0,0.0009548
1140.0,0.0007687
1141.0,0.0005591
1142.0,0.0006549
1143.0,0.0009773
1144.0,0.0002953
1145.0,0.0003812
1146.0,0.0004121
1147.0,0.000129
1148.0,0.0008154
1149.0,0.0006253
1150.0,0.0003139
1151.0,0.0005662
1152.0,0.0007194
1153.0,0.0007018
1154.0,0.0003566
1155.0,0.0009488
1156.0,0.0008356
1157.0,0.0009565
1158.0,0.0009416
1159.0,0.001032
1160.0,0.0008541
1161.0,0.001095
1162.0,0.001092
1163.0,0.001562
1164.0,0.001297
1165.0,0.001201
1166.0,0.001194
1167.0,0.001315
1168.0,0.001326
1169.0,0.001365
1170.0,0.001499
1171.0,0.001449
1172.0,0.001479
1173.0,0.00148
1174.0,0.0009884
1175.0,0.001441
1176.0,0.001606
1177.0,0.001521
1178.0,0.00108
1179.0,0.001604
1180.0,0.001392
1181.0,0.00144
1182.0,0.0009276
1183.0,0.001416
1184.0,0.001299
1185.0,0.001238
1186.0,0.001514
1187.0,0.001423
1188.0,0.0009297
1189.0,0.001309
1190.0,0.001457
1191.0,0.00136
1192.0,0.001472
1193.0,0.001394
1194.0,0.001442
1195.0,0.001346
1196.0,0.001282
1197.0,0.001441
1198.0,0.001295
1199.0,0.001065
1200.0,0.00135
1201.0,0.001287
1202.0,0.001278
1203.0,0.00127
1204.0,0.001076
1205.0,0.001305
1206.0,0.001467
1207.0,0.001257
1208.0,0.001243
1209.0,0.001266
1210.0,0.001324
1211.0,0.001244
1212.0,0.001217
1213.0,0.001383
1214.0,0.001245
1215.0,0.001213
1216.0,0.001365
1217.0,0.001318
1218.0,0.001345
1219.0,0.001321
1220.0,0.001338
1221.0,0.001351
1222.0,0.001306
1223.0,0.001287
1224.0,0.001272
1225.0,0.001325
1226.0,0.001333
1227.0,0.001209
1228.0,0.001334
1229.0,0.00132
1230.0,0.00129
1231.0,0.001332
1232.0,0.00132
1233.0,0.001259
1234.0,0.00132
1235.0,0.001306
1236.0,0.001313
1237.0,0.001286
1238.0,0.0013
1239.0,0.001279
1240.0,0.00128
1241.0,0.001267
1242.0,0.001263
1243.0,0.001248
1244.0,0.001252
1245.0,0.001254
1246.0,0.001243
1247.0,0.001233
1248.0,0.001227
1249.0,0.001228
1250.0,0.001216
1251.0,0.001195
1252.0,0.001193
1253.0,0.001176
1254.0,0.001158
1255.0,0.00118
1256.0,0.001136
1257.0,0.001125
1258.0,0.001148
1259.0,0.001093
1260.0,0.001096
1261.0,0.00102
1262.0,0.00098
1263.0,0.0009787
1264.0,0.0008869
1265.0,0.0009671
1266.0,0.0009196
1267.0,0.0009386
1268.0,0.0008784
1269.0,0.0004943
1270.0,0.0009254
1271.0,0.0009899
1272.0,0.0009914
1273.0,0.0009765
1274.0,0.0009782
1275.0,0.0009916
1276.0,0.001
1277.0,0.001006
1278.0,0.001027
1279.0,0.001014
1280.0,0.0009984
1281.0,0.000952
1282.0,0.0009181
1283.0,0.000985
1284.0,0.001004
1285.0,0.001009
1286.0,0.001021
1287.0,0.0009982
1288.0,0.0009958
1289.0,0.000954
1290.0,0.0009812
1291.0,0.0009929
1292.0,0.0009159
1293.0,0.0009636
1294.0,0.0009529
1295.0,0.0009429
1296.0,0.0008882
1297.0,0.0008294
1298.0,0.0009047
1299.0,0.0009481
1300.0,0.0007728
1301.0,0.0007999
1302.0,0.0008918
1303.0,0.0007569
1304.0,0.0006226
1305.0,0.0008618
1306.0,0.000859
1307.0,0.0006337
1308.0,0.0007469
1309.0,0.0008433
1310.0,0.0006143
1311.0,0.0007044
1312.0,0.0006823
1313.0,0.0006629
1314.0,0.0005788
1315.0,0.0005701
1316.0,0.0006814
1317.0,0.0006369
1318.0,0.000702
1319.0,0.0005202
1320.0,0.0005014
1321.0,0.0005983
1322.0,0.0006021
1323.0,0.0004288
1324.0,0.0005015
1325.0,0.0006514
1326.0,0.0005417
1327.0,0.0005106
1328.0,0.0004286
1329.0,0.000306
1330.0,0.0004121
1331.0,0.0002293
1332.0,0.0002383
1333.0,0.0003444
1334.0,0.0002868
1335.0,0.0004121
1336.0,0.0003126
1337.0,0.0002706
1338.0,0.0002948
1339.0,0.0002934
1340.0,0.0002842
1341.0,0.0002734
1342.0,0.0002883
1343.0,0.0001822
1344.0,0.0001042
1345.0,0.0001547
1346.0,7.082e-05
1347.0,7.157e-05
1348.0,4.159e-06
1349.0,1.532e-05
1350.0,1.594e-05
1351.0,3.722e-06
1352.0,9.881e-07
1353.0,4.996e-08
1354.0,1.72e-07
1355.0,1.381e-09
1356.0,2.419e-08
1357.0,3.675e-08
1358.0,1.621e-09
1359.0,2.042e-10
1360.0,7.381e-10
1361.0,8.255e-13
1362.0,2.258e-15
