interpolation:linear
wavelength,value
280.0,2.349e-21
280.5,7.411000000000001e-20
281.0,3.918e-19
281.5,3.789e-19
282.0,1.024e-18
282.5,2.669e-18
283.0,8.6e-18
283.5,1.406e-17
284.0,2.29e-16
284.5,6.617e-16
285.0,1.47e-15
285.5,7.083e-15
286.0,2.828e-14
286.5,1.245e-13
287.0,3.523e-13
287.5,1.333e-12
288.0,3.644e-12
288.5,1.195e-11
289.0,3.359e-11
289.5,1.055e-10
290.0,2.997e-10
290.5,6.208e-10
291.0,1.352e-09
291.5,3.927e-09
292.0,8.206e-09
292.5,1.223e-08
293.0,2.824e-08
293.5,7.569e-08
294.0,1.263e-07
294.5,1.603e-07
295.0,2.863e-07
295.5,7.025e-07
296.0,1.379e-06
296.5,1.969e-06
297.0,2.718e-06
297.5,7.568e-06
298.0,1.24e-05
298.5,1.291e-05
299.0,2.96e-05
299.5,5.35e-05
300.0,6.226e-05
300.5,9.643e-05
301.0,0.0001994
301.5,0.0003709
302.0,0.0003492
302.5,0.0006783
303.0,0.00121
303.5,0.00152
304.0,0.001436
304.5,0.002184
305.0,0.003412
305.5,0.00398
306.0,0.003872
306.5,0.004874
307.0,0.007443
307.5,0.01018
308.0,0.01077
308.5,0.01288
309.0,0.01301
309.5,0.01485
310.0,0.01489
310.5,0.02405
311.0,0.03013
311.5,0.02901
312.0,0.02906
312.5,0.0354
313.0,0.03837
313.5,0.03703
314.0,0.04644
314.5,0.04147
315.0,0.05442
315.5,0.0451
316.0,0.03963
316.5,0.05724
317.0,0.0708
317.5,0.07321
318.0,0.0573
318.5,0.07193
319.0,0.08574
319.5,0.06876
320.0,0.08264
320.5,0.1047
321.0,0.09441
321.5,0.09036
322.0,0.09431
322.5,0.08182
323.0,0.08211
323.5,0.1021
324.0,0.1189
324.5,0.1199
325.0,0.1021
325.5,0.1321
326.0,0.1619
326.5,0.1625
327.0,0.161
327.5,0.1546
328.0,0.1363
328.5,0.1439
329.0,0.1731
329.5,0.1963
330.0,0.1969
330.5,0.156
331.0,0.158
331.5,0.1608
332.0,0.1744
332.5,0.1726
333.0,0.1711
333.5,0.1534
334.0,0.1564
334.5,0.1811
335.0,0.1703
335.5,0.2011
336.0,0.1387
336.5,0.1591
337.0,0.1297
337.5,0.1605
338.0,0.1571
338.5,0.183
339.0,0.1798
339.5,0.1728
340.0,0.2002
340.5,0.1799
341.0,0.1764
341.5,0.1604
342.0,0.1908
342.5,0.1777
343.0,0.1953
343.5,0.1837
344.0,0.1345
344.5,0.137
345.0,0.1792
345.5,0.1818
346.0,0.1537
346.5,0.1733
347.0,0.1858
347.5,0.1499
348.0,0.1697
348.5,0.1688
349.0,0.1559
349.5,0.1539
350.0,0.1896
350.5,0.1993
351.0,0.1776
351.5,0.1726
352.0,0.1843
352.5,0.143
353.0,0.1794
353.5,0.191
354.0,0.1975
354.5,0.1995
355.0,0.1982
355.5,0.1784
356.0,0.1859
356.5,0.1582
357.0,0.1302
357.5,0.1588
358.0,0.1254
358.5,0.1067
359.0,0.1488
359.5,0.189
360.0,0.1995
360.5,0.1589
361.0,0.1443
361.5,0.1655
362.0,0.1426
362.5,0.1966
363.0,0.1759
363.5,0.1615
364.0,0.1968
364.5,0.1676
365.0,0.17
365.5,0.2126
366.0,0.2244
366.5,0.2101
367.0,0.2039
367.5,0.2108
368.0,0.1838
368.5,0.1848
369.0,0.1988
369.5,0.2111
370.0,0.2242
370.5,0.1734
371.0,0.1846
371.5,0.2301
372.0,0.1521
372.5,0.1817
373.0,0.1842
373.5,0.1194
374.0,0.1729
374.5,0.1426
375.0,0.1381
375.5,0.2055
376.0,0.1697
376.5,0.1752
377.0,0.1848
377.5,0.2154
378.0,0.2326
378.5,0.219
379.0,0.18
379.5,0.1638
380.0,0.1696
380.5,0.2047
381.0,0.2043
381.5,0.1613
382.0,0.1427
382.5,0.1212
383.0,0.1117
383.5,0.1072
384.0,0.1178
384.5,0.1727
385.0,0.1706
385.5,0.1583
386.0,0.135
386.5,0.1767
387.0,0.1463
387.5,0.1636
388.0,0.1505
388.5,0.1482
389.0,0.1594
389.5,0.1923
390.0,0.1922
390.5,0.1762
391.0,0.2066
391.5,0.2099
392.0,0.1761
392.5,0.1571
393.0,0.08707
393.5,0.06306
394.0,0.1278
394.5,0.1619
395.0,0.1968
395.5,0.1992
396.0,0.172
396.5,0.1002
397.0,0.0749
397.5,0.1517
398.0,0.2117
398.5,0.2179
399.0,0.2351
399.5,0.2335
400.0,0.2415
401.0,0.2372
402.0,0.2483
403.0,0.2341
404.0,0.2287
405.0,0.227
406.0,0.2215
407.0,0.2162
408.0,0.2229
409.0,0.2368
410.0,0.2054
411.0,0.2208
412.0,0.2354
413.0,0.2278
414.0,0.2289
415.0,0.2277
416.0,0.2299
417.0,0.2224
418.0,0.2166
419.0,0.2178
420.0,0.2151
421.0,0.2233
422.0,0.2105
423.0,0.204
424.0,0.214
425.0,0.2119
426.0,0.2049
427.0,0.1995
428.0,0.1929
429.0,0.1814
430.0,0.1576
431.0,0.1549
432.0,0.1984
433.0,0.1979
434.0,0.1823
435.0,0.189
436.0,0.2114
437.0,0.2071
438.0,0.1872
439.0,0.1921
440.0,0.1966
441.0,0.2021
442.0,0.215
443.0,0.2078
444.0,0.2108
445.0,0.2047
446.0,0.1939
447.0,0.2081
448.0,0.2096
449.0,0.2088
450.0,0.2129
451.0,0.219
452.0,0.2094
453.0,0.1956
454.0,0.2027
455.0,0.2023
456.0,0.2054
457.0,0.2071
458.0,0.1984
459.0,0.1957
460.0,0.1946
461.0,0.1975
462.0,0.1976
463.0,0.195
464.0,0.1906
465.0,0.1869
466.0,0.1873
467.0,0.1824
468.0,0.183
469.0,0.1824
470.0,0.1753
471.0,0.1738
472.0,0.1818
473.0,0.1781
474.0,0.177
475.0,0.1771
476.0,0.1703
477.0,0.1693
478.0,0.1725
479.0,0.1699
480.0,0.1688
481.0,0.1704
482.0,0.17
483.0,0.1667
484.0,0.1621
485.0,0.1534
486.0,0.1332
487.0,0.1386
488.0,0.1509
489.0,0.1502
490.0,0.1568
491.0,0.1529
492.0,0.1433
493.0,0.1469
494.0,0.1473
495.0,0.1474
496.0,0.1472
497.0,0.1483
498.0,0.1402
499.0,0.1407
500.0,0.1354
501.0,0.1317
502.0,0.1286
503.0,0.1327
504.0,0.1281
505.0,0.1318
506.0,0.1351
507.0,0.1276
508.0,0.1228
509.0,0.1255
510.0,0.124
511.0,0.1265
512.0,0.1269
513.0,0.1192
514.0,0.1175
515.0,0.1155
516.0,0.1144
517.0,0.1009
518.0,0.1053
519.0,0.1096
520.0,0.1127
521.0,0.1129
522.0,0.1121
523.0,0.1093
524.0,0.1123
525.0,0.1127
526.0,0.1068
527.0,0.0998
528.0,0.1046
529.0,0.1095
530.0,0.1071
531.0,0.1079
532.0,0.1034
533.0,0.09966
534.0,0.1019
535.0,0.1035
536.0,0.1037
537.0,0.09896
538.0,0.1
539.0,0.09853
540.0,0.09383
541.0,0.09375
542.0,0.09593
543.0,0.09422
544.0,0.09523
545.0,0.09435
546.0,0.09408
547.0,0.09337
548.0,0.09162
549.0,0.09128
550.0,0.09174
551.0,0.09
552.0,0.08998
553.0,0.08775
554.0,0.08923
555.0,0.08878
556.0,0.08698
557.0,0.08363
558.0,0.08235
559.0,0.08016
560.0,0.08053
561.0,0.08093
562.0,0.0797
563.0,0.08125
564.0,0.07847
565.0,0.07724
566.0,0.07555
567.0,0.0764
568.0,0.07515
569.0,0.07279
570.0,0.07228
571.0,0.07136
572.0,0.07251
573.0,0.07281
574.0,0.07214
575.0,0.07036
576.0,0.0693
577.0,0.06964
578.0,0.06823
579.0,0.06816
580.0,0.06912
581.0,0.06911
582.0,0.07003
583.0,0.06986
584.0,0.07012
585.0,0.06803
586.0,0.0662
587.0,0.06718
588.0,0.06507
589.0,0.05712
590.0,0.0594
591.0,0.06257
592.0,0.06131
593.0,0.06186
594.0,0.06095
595.0,0.05898
596.0,0.06104
597.0,0.05994
598.0,0.0594
599.0,0.05905
600.0,0.05879
601.0,0.05797
602.0,0.05724
603.0,0.05785
604.0,0.05847
605.0,0.05787
606.0,0.05735
607.0,0.05765
608.0,0.05673
609.0,0.05655
610.0,0.0559
611.0,0.05593
612.0,0.05551
613.0,0.05455
614.0,0.05355
615.0,0.05446
616.0,0.05242
617.0,0.05207
618.0,0.05382
619.0,0.05302
620.0,0.05308
621.0,0.05286
622.0,0.05195
623.0,0.05087
624.0,0.04974
625.0,0.0494
626.0,0.04989
627.0,0.05017
628.0,0.04624
629.0,0.04834
630.0,0.04697
631.0,0.0479
632.0,0.04712
633.0,0.04839
634.0,0.04774
635.0,0.04826
636.0,0.0474
637.0,0.04796
638.0,0.04822
639.0,0.04747
640.0,0.04679
641.0,0.04654
642.0,0.04614
643.0,0.04656
644.0,0.04621
645.0,0.04604
646.0,0.04469
647.0,0.04385
648.0,0.04364
649.0,0.04259
650.0,0.0427
651.0,0.04436
652.0,0.04214
653.0,0.04334
654.0,0.04267
655.0,0.04079
656.0,0.03602
657.0,0.03683
658.0,0.04114
659.0,0.04125
660.0,0.04122
661.0,0.04131
662.0,0.04118
663.0,0.0402
664.0,0.04052
665.0,0.04038
666.0,0.04022
667.0,0.04002
668.0,0.03986
669.0,0.04029
670.0,0.03992
671.0,0.03974
672.0,0.03925
673.0,0.03969
674.0,0.03935
675.0,0.03881
676.0,0.03889
677.0,0.03835
678.0,0.0383
679.0,0.03751
680.0,0.03763
681.0,0.03721
682.0,0.03698
683.0,0.03673
684.0,0.03636
685.0,0.03649
686.0,0.0361
687.0,0.02264
688.0,0.02694
689.0,0.02692
690.0,0.02828
691.0,0.02986
692.0,0.03101
693.0,0.03058
694.0,0.03013
695.0,0.0314
696.0,0.03128
697.0,0.03334
698.0,0.03267
699.0,0.03157
700.0,0.03103
701.0,0.03055
702.0,0.03068
703.0,0.03058
704.0,0.0315
705.0,0.03139
706.0,0.03125
707.0,0.03114
708.0,0.03106
709.0,0.031
710.0,0.03081
711.0,0.03068
712.0,0.0305
713.0,0.03003
714.0,0.02998
715.0,0.02882
716.0,0.0287
717.0,0.02425
718.0,0.02197
719.0,0.01986
720.0,0.02078
721.0,0.02317
722.0,0.02689
723.0,0.02463
724.0,0.0218
725.0,0.02131
726.0,0.02233
727.0,0.02256
728.0,0.02097
729.0,0.02182
730.0,0.02307
731.0,0.02186
732.0,0.02349
733.0,0.02496
734.0,0.02548
735.0,0.02481
736.0,0.02467
737.0,0.02464
738.0,0.02502
739.0,0.02439
740.0,0.02495
741.0,0.0246
742.0,0.02452
743.0,0.02502
744.0,0.02482
745.0,0.02472
746.0,0.02471
747.0,0.02465
748.0,0.02447
749.0,0.02407
750.0,0.02395
751.0,0.0236
752.0,0.0236
753.0,0.02361
754.0,0.02354
755.0,0.0233
756.0,0.0232
757.0,0.02312
758.0,0.02273
759.0,0.0221
760.0,0.003076
761.0,0.001574
762.0,0.01017
763.0,0.004741
764.0,0.007332
765.0,0.01002
766.0,0.01262
767.0,0.01631
768.0,0.01915
769.0,0.01956
770.0,0.02025
771.0,0.02037
772.0,0.02033
773.0,0.02037
774.0,0.02016
775.0,0.01992
776.0,0.02007
777.0,0.01971
778.0,0.01948
779.0,0.0194
780.0,0.0192
781.0,0.01913
782.0,0.01917
783.0,0.01875
784.0,0.01876
785.0,0.01854
786.0,0.01866
787.0,0.01821
788.0,0.01788
789.0,0.01777
790.0,0.01715
791.0,0.01729
792.0,0.01708
793.0,0.01672
794.0,0.017
795.0,0.01719
796.0,0.01649
797.0,0.01645
798.0,0.01694
799.0,0.01674
800.0,0.01634
801.0,0.01619
802.0,0.01608
803.0,0.01587
804.0,0.01583
805.0,0.01573
806.0,0.01614
807.0,0.01585
808.0,0.0158
809.0,0.0154
810.0,0.01517
811.0,0.0151
812.0,0.01452
813.0,0.01411
814.0,0.01212
815.0,0.01198
816.0,0.01099
817.0,0.01117
818.0,0.01068
819.0,0.0121
820.0,0.01125
821.0,0.01343
822.0,0.01292
823.0,0.008255
824.0,0.01237
825.0,0.01293
826.0,0.01229
827.0,0.01303
828.0,0.01072
829.0,0.01207
830.0,0.01184
831.0,0.01184
832.0,0.01137
833.0,0.01223
834.0,0.01167
835.0,0.01294
836.0,0.01222
837.0,0.01287
838.0,0.01237
839.0,0.01257
840.0,0.0128
841.0,0.01254
842.0,0.01254
843.0,0.0125
844.0,0.01226
845.0,0.01264
846.0,0.01253
847.0,0.01225
848.0,0.01211
849.0,0.01171
850.0,0.01117
851.0,0.01175
852.0,0.01162
853.0,0.01114
854.0,0.009569
855.0,0.01048
856.0,0.0114
857.0,0.01162
858.0,0.01149
859.0,0.01145
860.0,0.01143
861.0,0.01132
862.0,0.01145
863.0,0.01168
864.0,0.01105
865.0,0.01091
866.0,0.009771
867.0,0.01016
868.0,0.01101
869.0,0.01073
870.0,0.01099
871.0,0.0108
872.0,0.01072
873.0,0.01065
874.0,0.01048
875.0,0.01022
876.0,0.01028
877.0,0.01034
878.0,0.0104
879.0,0.0102
880.0,0.009941
881.0,0.009746
882.0,0.009916
883.0,0.009913
884.0,0.009821
885.0,0.00985
886.0,0.009328
887.0,0.009406
888.0,0.009493
889.0,0.00958
890.0,0.009434
891.0,0.009392
892.0,0.00906
893.0,0.008696
894.0,0.008285
895.0,0.007708
896.0,0.00714
897.0,0.005963
898.0,0.006572
899.0,0.004767
900.0,0.006739
901.0,0.005028
902.0,0.006042
903.0,0.006041
904.0,0.007887
905.0,0.007537
906.0,0.006973
907.0,0.00543
908.0,0.005552
909.0,0.006094
910.0,0.005227
911.0,0.005624
912.0,0.0059
913.0,0.00524
914.0,0.005181
915.0,0.005665
916.0,0.004655
917.0,0.006137
918.0,0.004756
919.0,0.006214
920.0,0.006291
921.0,0.006588
922.0,0.005747
923.0,0.006314
924.0,0.005856
925.0,0.005686
926.0,0.005745
927.0,0.006514
928.0,0.004481
929.0,0.004015
930.0,0.00302
931.0,0.002834
932.0,0.001939
933.0,0.001528
934.0,0.0007782
935.0,0.001563
936.0,0.0009227
937.0,0.0009306
938.0,0.001163
939.0,0.002652
940.0,0.003274
941.0,0.002364
942.0,0.002781
943.0,0.001718
944.0,0.001829
945.0,0.002402
946.0,0.001117
947.0,0.002386
948.0,0.001685
949.0,0.003312
950.0,0.000778
951.0,0.003239
952.0,0.001583
953.0,0.002114
954.0,0.00268
955.0,0.002138
956.0,0.002065
957.0,0.001555
958.0,0.003062
959.0,0.002325
960.0,0.002637
961.0,0.003013
962.0,0.002819
963.0,0.003322
964.0,0.002989
965.0,0.003285
966.0,0.003272
967.0,0.003236
968.0,0.004597
969.0,0.004809
970.0,0.004331
971.0,0.005086
972.0,0.0048
973.0,0.004043
974.0,0.003794
975.0,0.003951
976.0,0.003693
977.0,0.00431
978.0,0.00403
979.0,0.004252
980.0,0.003933
981.0,0.004866
982.0,0.004589
983.0,0.004357
984.0,0.005007
985.0,0.004522
986.0,0.005085
987.0,0.004939
988.0,0.004908
989.0,0.005028
990.0,0.004845
991.0,0.004995
992.0,0.005008
993.0,0.004852
994.0,0.004974
995.0,0.004954
996.0,0.004908
997.0,0.004899
998.0,0.004857
999.0,0.004823
1000.0,0.004764
1001.0,0.004814
1002.0,0.004635
1003.0,0.004691
1004.0,0.00455
1005.0,0.004377
1006.0,0.004524
1007.0,0.004605
1008.0,0.004558
1009.0,0.004511
1010.0,0.004472
1011.0,0.004514
1012.0,0.004452
1013.0,0.004471
1014.0,0.004424
1015.0,0.004377
1016.0,0.00434
1017.0,0.004333
1018.0,0.004303
1019.0,0.004184
1020.0,0.004245
1021.0,0.004225
1022.0,0.004172
1023.0,0.0042
1024.0,0.00412
1025.0,0.00417
1026.0,0.004134
1027.0,0.004108
1028.0,0.004084
1029.0,0.004021
1030.0,0.004037
1031.0,0.004004
1032.0,0.003978
1033.0,0.003902
1034.0,0.003888
1035.0,0.003885
1036.0,0.003889
1037.0,0.003812
1038.0,0.003815
1039.0,0.003798
1040.0,0.003769
1041.0,0.003768
1042.0,0.003728
1043.0,0.003702
1044.0,0.003701
1045.0,0.003637
1046.0,0.003582
1047.0,0.0036
1048.0,0.003607
1049.0,0.003581
1050.0,0.00355
1051.0,0.003531
1052.0,0.003503
1053.0,0.003462
1054.0,0.003456
1055.0,0.003444
1056.0,0.003417
1057.0,0.003393
1058.0,0.003297
1059.0,0.003288
1060.0,0.00327
1061.0,0.003253
1062.0,0.003256
1063.0,0.003212
1064.0,0.003239
1065.0,0.003201
1066.0,0.003128
1067.0,0.003156
1068.0,0.003073
1069.0,0.002969
1070.0,0.003056
1071.0,0.0031
1072.0,0.003047
1073.0,0.002994
1074.0,0.00307
1075.0,0.002881
1076.0,0.003043
1077.0,0.002964
1078.0,0.002893
1079.0,0.002965
1080.0,0.002882
1081.0,0.002774
1082.0,0.002828
1083.0,0.00283
1084.0,0.002727
1085.0,0.002843
1086.0,0.002538
1087.0,0.002648
1088.0,0.002771
1089.0,0.002655
1090.0,0.002567
1091.0,0.002725
1092.0,0.002713
1093.0,0.002221
1094.0,0.002458
1095.0,0.002315
1096.0,0.002187
1097.0,0.002607
1098.0,0.002133
1099.0,0.002227
1100.0,0.002028
1101.0,0.002057
1102.0,0.001942
1103.0,0.001905
1104.0,0.001903
1105.0,0.002123
1106.0,0.001523
1107.0,0.001981
1108.0,0.001612
1109.0,0.001614
1110.0,0.001937
1111.0,0.001215
1112.0,0.001587
1113.0,0.0009251
1114.0,0.001046
1115.0,0.0008434
1116.0,0.0006435
1117.0,0.0002079
1118.0,0.0007054
1119.0,0.0003187
1120.0,0.000407
1121.0,0.0005573
1122.0,0.0002117
1123.0,0.0003607
1124.0,0.0002993
1125.0,0.0004007
1126.0,0.000124
1127.0,0.0004536
1128.0,0.0002528
1129.0,0.0002695
1130.0,0.0001698
1131.0,0.0009317
1132.0,0.0007032
1133.0,0.0004144
1134.0,9.252e-05
1135.0,3.353e-05
1136.0,0.0003332
1137.0,0.0008916
1138.0,0.0005993
1139.0,0.0009577
1140.0,0.0007711
1141.0,0.0005608
1142.0,0.0006569
1143.0,0.0009805
1144.0,0.0002961
1145.0,0.0003824
1146.0,0.0004135
1147.0,0.0001294
1148.0,0.000818
1149.0,0.0006273
1150.0,0.0003148
1151.0,0.000568
1152.0,0.0007217
1153.0,0.0007039
1154.0,0.0003578
1155.0,0.0009517
1156.0,0.0008382
1157.0,0.0009593
1158.0,0.0009444
1159.0,0.001035
1160.0,0.0008566
1161.0,0.001098
1162.0,0.001095
1163.0,0.001566
1164.0,0.001301
1165.0,0.001204
1166.0,0.001197
1167.0,0.001319
1168.0,0.001329
1169.0,0.001368
1170.0,0.001503
1171.0,0.001453
1172.0,0.001482
1173.0,0.001484
1174.0,0.000991
1175.0,0.001444
1176.0,0.00161
1177.0,0.001525
1178.0,0.001083
1179.0,0.001608
1180.0,0.001395
1181.0,0.001444
1182.0,0.00093
1183.0,0.00142
1184.0,0.001302
1185.0,0.001241
1186.0,0.001518
1187.0,0.001426
1188.0,0.0009322
1189.0,0.001312
1190.0,0.001461
1191.0,0.001364
1192.0,0.001475
1193.0,0.001398
1194.0,0.001445
1195.0,0.001349
1196.0,0.001285
1197.0,0.001444
1198.0,0.001298
1199.0,0.001067
1200.0,0.001353
1201.0,0.00129
1202.0,0.001281
1203.0,0.001273
1204.0,0.001079
1205.0,0.001308
1206.0,0.00147
1207.0,0.00126
1208.0,0.001246
1209.0,0.001269
1210.0,0.001327
1211.0,0.001247
1212.0,0.00122
1213.0,0.001386
1214.0,0.001248
1215.0,0.001216
1216.0,0.001368
1217.0,0.001321
1218.0,0.001348
1219.0,0.001324
1220.0,0.001341
1221.0,0.001354
1222.0,0.001308
1223.0,0.00129
1224.0,0.001275
1225.0,0.001328
1226.0,0.001336
1227.0,0.001212
1228.0,0.001336
1229.0,0.001323
1230.0,0.001293
1231.0,0.001335
1232.0,0.001322
1233.0,0.001262
1234.0,0.001323
1235.0,0.001309
1236.0,0.001315
1237.0,0.001289
1238.0,0.001303
1239.0,0.001282
1240.0,0.001283
1241.0,0.00127
1242.0,0.001265
1243.0,0.001251
1244.0,0.001255
1245.0,0.001256
1246.0,0.001245
1247.0,0.001236
1248.0,0.001229
1249.0,0.001231
1250.0,0.001218
1251.0,0.001197
1252.0,0.001196
1253.0,0.001179
1254.0,0.001161
1255.0,0.001182
1256.0,0.001139
1257.0,0.001128
1258.0,0.00115
1259.0,0.001095
1260.0,0.001099
1261.0,0.001022
1262.0,0.0009824
1263.0,0.0009811
1264.0,0.0008893
1265.0,0.0009696
1266.0,0.0009221
1267.0,0.000941
1268.0,0.0008807
1269.0,0.0004961
1270.0,0.0009278
1271.0,0.0009923
1272.0,0.0009938
1273.0,0.0009788
1274.0,0.0009805
1275.0,0.0009939
1276.0,0.001003
1277.0,0.001008
1278.0,0.001029
1279.0,0.001017
1280.0,0.001001
1281.0,0.0009541
1282.0,0.00092
1283.0,0.0009871
1284.0,0.001007
1285.0,0.001011
1286.0,0.001023
1287.0,0.001
1288.0,0.0009979
1289.0,0.0009561
1290.0,0.0009833
1291.0,0.000995
1292.0,0.000918
1293.0,0.0009657
1294.0,0.000955
1295.0,0.000945
1296.0,0.0008903
1297.0,0.0008314
1298.0,0.0009067
1299.0,0.0009501
1300.0,0.0007747
1301.0,0.0008019
1302.0,0.0008938
1303.0,0.0007587
1304.0,0.0006243
1305.0,0.0008638
1306.0,0.000861
1307.0,0.0006354
1308.0,0.0007487
1309.0,0.0008453
1310.0,0.0006159
1311.0,0.0007061
1312.0,0.000684
1313.0,0.0006646
1314.0,0.0005803
1315.0,0.0005716
1316.0,0.0006831
1317.0,0.0006385
1318.0,0.0007036
1319.0,0.0005217
1320.0,0.0005028
1321.0,0.0005998
1322.0,0.0006037
1323.0,0.0004301
1324.0,0.0005028
1325.0,0.000653
1326.0,0.0005432
1327.0,0.000512
1328.0,0.0004298
1329.0,0.0003069
1330.0,0.0004133
1331.0,0.00023
1332.0,0.000239
1333.0,0.0003455
1334.0,0.0002876
1335.0,0.0004133
1336.0,0.0003136
1337.0,0.0002714
1338.0,0.0002957
1339.0,0.0002943
1340.0,0.000285
1341.0,0.0002743
1342.0,0.0002892
1343.0,0.0001829
1344.0,0.0001045
1345.0,0.0001552
1346.0,7.104e-05
1347.0,7.18e-05
1348.0,4.164e-06
1349.0,1.535e-05
1350.0,1.598e-05
1351.0,3.726e-06
1352.0,9.887e-07
1353.0,4.997e-08
1354.0,1.721e-07
1355.0,1.381e-09
1356.0,2.419e-08
1357.0,3.676e-08
1358.0,1.621e-09
1359.0,2.042e-10
1360.0,7.382e-10
1361.0,8.256e-13
1362.0,2.258e-15
1363.0,9.925e-10
1364.0,4.097e-10
