interpolation:linear
wavelength,value
280.0,1.403e-22
280.5,4.6540000000000004e-21
281.0,2.5040000000000002e-20
281.5,4.038e-19
282.0,5.632e-19
282.5,1.384e-18
283.0,4.366e-18
283.5,7.112e-18
284.0,1.175e-16
284.5,3.44e-16
285.0,5.805e-16
285.5,2.863e-15
286.0,1.154e-14
286.5,5.191e-14
287.0,1.491e-13
287.5,5.764e-13
288.0,2.05e-12
288.5,6.042e-12
289.0,1.585e-11
289.5,4.741e-11
290.0,1.311e-10
290.5,2.668e-10
291.0,5.721e-10
291.5,1.642e-09
292.0,3.302e-09
292.5,4.623e-09
293.0,9.889e-09
293.5,2.4e-08
294.0,3.749e-08
294.5,5.049e-08
295.0,8.542e-08
295.5,1.419e-07
296.0,2.725e-07
296.5,3.792e-07
297.0,5.106e-07
297.5,1.359e-06
298.0,2.126e-06
298.5,2.124e-06
299.0,4.647e-06
299.5,7.6e-06
300.0,8.273e-06
300.5,1.184e-05
301.0,2.097e-05
301.5,3.264e-05
302.0,2.752e-05
302.5,5.452e-05
303.0,9.933e-05
303.5,0.0001272
304.0,0.0001231
304.5,0.0001993
305.0,0.0003402
305.5,0.0004208
306.0,0.0004194
306.5,0.0005492
307.0,0.0009139
307.5,0.00136
308.0,0.001462
308.5,0.001826
309.0,0.002098
309.5,0.002751
310.0,0.00294
310.5,0.004906
311.0,0.006472
311.5,0.006378
312.0,0.007114
312.5,0.009301
313.0,0.01047
313.5,0.009792
314.0,0.01335
314.5,0.01328
315.0,0.01779
315.5,0.01404
316.0,0.01346
316.5,0.02095
317.0,0.02593
317.5,0.02631
318.0,0.02167
318.5,0.02995
319.0,0.03749
319.5,0.02791
320.0,0.03322
320.5,0.0464
321.0,0.04565
321.5,0.04413
322.0,0.0421
322.5,0.03676
323.0,0.03923
323.5,0.05176
324.0,0.061
324.5,0.06005
325.0,0.04961
325.5,0.0675
326.0,0.08424
326.5,0.08747
327.0,0.08579
327.5,0.08124
328.0,0.06871
328.5,0.07655
329.0,0.09612
329.5,0.1106
330.0,0.11
330.5,0.08454
331.0,0.08487
331.5,0.08856
332.0,0.09957
332.5,0.1002
333.0,0.09864
333.5,0.08637
334.0,0.08786
334.5,0.1048
335.0,0.1004
335.5,0.1183
336.0,0.08168
336.5,0.0935
337.0,0.0754
337.5,0.09308
338.0,0.09346
338.5,0.1091
339.0,0.1078
339.5,0.1035
340.0,0.12
340.5,0.1083
341.0,0.1063
341.5,0.09757
342.0,0.1164
342.5,0.1088
343.0,0.1193
343.5,0.1121
344.0,0.08197
344.5,0.0833
345.0,0.1101
345.5,0.1123
346.0,0.09529
346.5,0.1077
347.0,0.1153
347.5,0.09302
348.0,0.106
348.5,0.1058
349.0,0.09799
349.5,0.09681
350.0,0.1195
350.5,0.1258
351.0,0.1121
351.5,0.1085
352.0,0.1164
352.5,0.09075
353.0,0.1141
353.5,0.1219
354.0,0.1263
354.5,0.1278
355.0,0.1271
355.5,0.1146
356.0,0.1197
356.5,0.102
357.0,0.08405
357.5,0.1027
358.0,0.08123
358.5,0.06927
359.0,0.09665
359.5,0.1228
360.0,0.1299
360.5,0.1037
361.0,0.09432
361.5,0.1084
362.0,0.09355
362.5,0.1292
363.0,0.1158
363.5,0.1064
364.0,0.1299
364.5,0.1108
365.0,0.1126
365.5,0.141
366.0,0.149
366.5,0.1397
367.0,0.1358
367.5,0.1406
368.0,0.1227
368.5,0.1236
369.0,0.1331
369.5,0.1416
370.0,0.1506
370.5,0.1166
371.0,0.1243
371.5,0.1552
372.0,0.1028
372.5,0.123
373.0,0.1248
373.5,0.081
374.0,0.1174
374.5,0.09703
375.0,0.0941
375.5,0.1402
376.0,0.1159
376.5,0.1198
377.0,0.1266
377.5,0.1477
378.0,0.1598
378.5,0.1506
379.0,0.124
379.5,0.113
380.0,0.1172
380.5,0.1415
381.0,0.1415
381.5,0.1119
382.0,0.09912
382.5,0.08428
383.0,0.07783
383.5,0.07479
384.0,0.08229
384.5,0.1207
385.0,0.1194
385.5,0.111
386.0,0.0948
386.5,0.1242
387.0,0.103
387.5,0.1153
388.0,0.1062
388.5,0.1047
389.0,0.1128
389.5,0.1362
390.0,0.1364
390.5,0.1252
391.0,0.147
391.5,0.1495
392.0,0.1256
392.5,0.1121
393.0,0.06224
393.5,0.04513
394.0,0.09159
394.5,0.1162
395.0,0.1414
395.5,0.1432
396.0,0.1239
396.5,0.07222
397.0,0.05406
397.5,0.1096
398.0,0.1531
398.5,0.1579
399.0,0.1705
399.5,0.1695
400.0,0.1755
401.0,0.1726
402.0,0.1811
403.0,0.1711
404.0,0.1676
405.0,0.1666
406.0,0.163
407.0,0.1594
408.0,0.1647
409.0,0.1753
410.0,0.1523
411.0,0.1641
412.0,0.1753
413.0,0.17
414.0,0.1711
415.0,0.1706
416.0,0.1725
417.0,0.1673
418.0,0.1632
419.0,0.1644
420.0,0.1627
421.0,0.1692
422.0,0.1598
423.0,0.1551
424.0,0.163
425.0,0.1616
426.0,0.1566
427.0,0.1528
428.0,0.148
429.0,0.1394
430.0,0.1213
431.0,0.1194
432.0,0.1532
433.0,0.153
434.0,0.1412
435.0,0.1466
436.0,0.1643
437.0,0.1611
438.0,0.1458
439.0,0.1497
440.0,0.1534
441.0,0.1579
442.0,0.1681
443.0,0.1627
444.0,0.1653
445.0,0.1609
446.0,0.1527
447.0,0.1641
448.0,0.1656
449.0,0.165
450.0,0.1685
451.0,0.1736
452.0,0.1662
453.0,0.1554
454.0,0.1613
455.0,0.1611
456.0,0.1638
457.0,0.1652
458.0,0.1582
459.0,0.1561
460.0,0.1553
461.0,0.1577
462.0,0.1579
463.0,0.1561
464.0,0.1528
465.0,0.1502
466.0,0.1508
467.0,0.147
468.0,0.1476
469.0,0.1471
470.0,0.1415
471.0,0.1404
472.0,0.1471
473.0,0.1443
474.0,0.1435
475.0,0.1435
476.0,0.138
477.0,0.1372
478.0,0.1397
479.0,0.1375
480.0,0.1365
481.0,0.1378
482.0,0.1375
483.0,0.1351
484.0,0.1316
485.0,0.1249
486.0,0.1087
487.0,0.1133
488.0,0.1234
489.0,0.1229
490.0,0.1283
491.0,0.1252
492.0,0.1174
493.0,0.1204
494.0,0.1209
495.0,0.1211
496.0,0.1209
497.0,0.1217
498.0,0.1149
499.0,0.1152
500.0,0.1107
501.0,0.1075
502.0,0.1048
503.0,0.1079
504.0,0.104
505.0,0.107
506.0,0.1097
507.0,0.1037
508.0,0.09999
509.0,0.1023
510.0,0.1012
511.0,0.1033
512.0,0.1037
513.0,0.09741
514.0,0.09598
515.0,0.09428
516.0,0.09332
517.0,0.08231
518.0,0.0859
519.0,0.08941
520.0,0.09191
521.0,0.09201
522.0,0.09128
523.0,0.08893
524.0,0.09124
525.0,0.09141
526.0,0.0865
527.0,0.08066
528.0,0.08445
529.0,0.0882
530.0,0.08618
531.0,0.0867
532.0,0.08305
533.0,0.08004
534.0,0.08186
535.0,0.08315
536.0,0.08341
537.0,0.07962
538.0,0.08048
539.0,0.07926
540.0,0.07544
541.0,0.0753
542.0,0.07699
543.0,0.07558
544.0,0.07631
545.0,0.07555
546.0,0.0753
547.0,0.07472
548.0,0.07331
549.0,0.07304
550.0,0.07339
551.0,0.07198
552.0,0.07195
553.0,0.07015
554.0,0.07129
555.0,0.07088
556.0,0.0694
557.0,0.06667
558.0,0.06556
559.0,0.06372
560.0,0.06393
561.0,0.06415
562.0,0.06309
563.0,0.06422
564.0,0.06195
565.0,0.06092
566.0,0.05954
567.0,0.06016
568.0,0.0591
569.0,0.05714
570.0,0.05672
571.0,0.05597
572.0,0.0568
573.0,0.05701
574.0,0.05648
575.0,0.05508
576.0,0.05428
577.0,0.05461
578.0,0.05356
579.0,0.05358
580.0,0.05442
581.0,0.05451
582.0,0.05532
583.0,0.05525
584.0,0.0555
585.0,0.05388
586.0,0.05246
587.0,0.05324
588.0,0.05151
589.0,0.04509
590.0,0.04688
591.0,0.04944
592.0,0.04837
593.0,0.04881
594.0,0.04802
595.0,0.04636
596.0,0.04803
597.0,0.04708
598.0,0.04662
599.0,0.04632
600.0,0.0461
601.0,0.04546
602.0,0.04489
603.0,0.04539
604.0,0.04592
605.0,0.04548
606.0,0.04514
607.0,0.04545
608.0,0.04481
609.0,0.04475
610.0,0.04431
611.0,0.04441
612.0,0.04416
613.0,0.04346
614.0,0.04274
615.0,0.04354
616.0,0.04197
617.0,0.04175
618.0,0.0432
619.0,0.04261
620.0,0.0427
621.0,0.04255
622.0,0.04185
623.0,0.04101
624.0,0.04014
625.0,0.03989
626.0,0.04032
627.0,0.04055
628.0,0.03715
629.0,0.03906
630.0,0.03798
631.0,0.03887
632.0,0.03829
633.0,0.03939
634.0,0.03893
635.0,0.03942
636.0,0.03878
637.0,0.0393
638.0,0.03958
639.0,0.03901
640.0,0.03852
641.0,0.03836
642.0,0.03808
643.0,0.03847
644.0,0.03823
645.0,0.03812
646.0,0.037
647.0,0.03627
648.0,0.03614
649.0,0.03528
650.0,0.03549
651.0,0.03691
652.0,0.03501
653.0,0.03613
654.0,0.0356
655.0,0.03402
656.0,0.0301
657.0,0.0308
658.0,0.03446
659.0,0.03459
660.0,0.0346
661.0,0.0347
662.0,0.0346
663.0,0.0338
664.0,0.03412
665.0,0.03405
666.0,0.03396
667.0,0.03382
668.0,0.03373
669.0,0.03413
670.0,0.03384
671.0,0.03372
672.0,0.03332
673.0,0.03373
674.0,0.03347
675.0,0.03303
676.0,0.03313
677.0,0.03269
678.0,0.03267
679.0,0.03201
680.0,0.03214
681.0,0.03179
682.0,0.03161
683.0,0.03141
684.0,0.0311
685.0,0.03123
686.0,0.03091
687.0,0.01871
688.0,0.02248
689.0,0.02249
690.0,0.02375
691.0,0.02523
692.0,0.02634
693.0,0.026
694.0,0.02568
695.0,0.02688
696.0,0.0268
697.0,0.02869
698.0,0.02812
699.0,0.0271
700.0,0.02665
701.0,0.0262
702.0,0.02636
703.0,0.0263
704.0,0.02714
705.0,0.02706
706.0,0.02696
707.0,0.02688
708.0,0.02681
709.0,0.02681
710.0,0.02663
711.0,0.02653
712.0,0.02639
713.0,0.02596
714.0,0.02594
715.0,0.02491
716.0,0.02479
717.0,0.02071
718.0,0.0188
719.0,0.01703
720.0,0.01776
721.0,0.01991
722.0,0.02322
723.0,0.02124
724.0,0.01874
725.0,0.0183
726.0,0.01915
727.0,0.01944
728.0,0.01801
729.0,0.01881
730.0,0.01984
731.0,0.01882
732.0,0.0203
733.0,0.02164
734.0,0.02212
735.0,0.02152
736.0,0.02139
737.0,0.02137
738.0,0.02178
739.0,0.02124
740.0,0.02175
741.0,0.02146
742.0,0.0214
743.0,0.02184
744.0,0.02168
745.0,0.0216
746.0,0.02159
747.0,0.02154
748.0,0.02139
749.0,0.02105
750.0,0.02095
751.0,0.02066
752.0,0.02066
753.0,0.02068
754.0,0.02064
755.0,0.02043
756.0,0.02034
757.0,0.02028
758.0,0.01994
759.0,0.01933
760.0,0.002677
761.0,0.00141
762.0,0.008514
763.0,0.004045
764.0,0.00616
765.0,0.008387
766.0,0.01063
767.0,0.01393
768.0,0.01662
769.0,0.01704
770.0,0.01773
771.0,0.01787
772.0,0.01785
773.0,0.01788
774.0,0.0177
775.0,0.01748
776.0,0.01761
777.0,0.01729
778.0,0.01709
779.0,0.01701
780.0,0.01684
781.0,0.01679
782.0,0.01683
783.0,0.01647
784.0,0.01648
785.0,0.01629
786.0,0.0164
787.0,0.01597
788.0,0.01567
789.0,0.01559
790.0,0.01501
791.0,0.01517
792.0,0.01501
793.0,0.01469
794.0,0.01498
795.0,0.01514
796.0,0.01447
797.0,0.01442
798.0,0.01491
799.0,0.01472
800.0,0.01436
801.0,0.01422
802.0,0.01411
803.0,0.01393
804.0,0.01389
805.0,0.01382
806.0,0.01421
807.0,0.01395
808.0,0.0139
809.0,0.01352
810.0,0.01331
811.0,0.01321
812.0,0.01267
813.0,0.0123
814.0,0.01051
815.0,0.0104
816.0,0.009548
817.0,0.009703
818.0,0.009257
819.0,0.01053
820.0,0.009787
821.0,0.01175
822.0,0.01131
823.0,0.007164
824.0,0.01079
825.0,0.01135
826.0,0.01076
827.0,0.01144
828.0,0.009346
829.0,0.01059
830.0,0.01038
831.0,0.01038
832.0,0.00996
833.0,0.01073
834.0,0.01022
835.0,0.01139
836.0,0.01071
837.0,0.01133
838.0,0.01086
839.0,0.01107
840.0,0.01128
841.0,0.01104
842.0,0.01105
843.0,0.01104
844.0,0.01081
845.0,0.01116
846.0,0.01107
847.0,0.01083
848.0,0.01069
849.0,0.01033
850.0,0.009853
851.0,0.01036
852.0,0.01024
853.0,0.009825
854.0,0.008431
855.0,0.009246
856.0,0.01006
857.0,0.01026
858.0,0.01014
859.0,0.01011
860.0,0.01009
861.0,0.009999
862.0,0.01012
863.0,0.01033
864.0,0.009774
865.0,0.009652
866.0,0.008645
867.0,0.008986
868.0,0.00974
869.0,0.0095
870.0,0.009732
871.0,0.00956
872.0,0.009488
873.0,0.00943
874.0,0.009277
875.0,0.009048
876.0,0.009101
877.0,0.009155
878.0,0.009212
879.0,0.009032
880.0,0.008801
881.0,0.008624
882.0,0.008771
883.0,0.008771
884.0,0.008688
885.0,0.008713
886.0,0.008236
887.0,0.008315
888.0,0.008387
889.0,0.008474
890.0,0.008331
891.0,0.008301
892.0,0.007988
893.0,0.007656
894.0,0.007259
895.0,0.006716
896.0,0.00623
897.0,0.005184
898.0,0.005713
899.0,0.004147
900.0,0.005879
901.0,0.004353
902.0,0.005259
903.0,0.005241
904.0,0.006909
905.0,0.006596
906.0,0.006098
907.0,0.004714
908.0,0.00483
909.0,0.005305
910.0,0.004528
911.0,0.004902
912.0,0.005129
913.0,0.004537
914.0,0.004497
915.0,0.004888
916.0,0.004045
917.0,0.005319
918.0,0.004121
919.0,0.005405
920.0,0.005516
921.0,0.005753
922.0,0.005001
923.0,0.005519
924.0,0.005075
925.0,0.004937
926.0,0.004972
927.0,0.005655
928.0,0.003845
929.0,0.003435
930.0,0.002585
931.0,0.00243
932.0,0.001669
933.0,0.001324
934.0,0.0006873
935.0,0.001356
936.0,0.0008127
937.0,0.0008195
938.0,0.001015
939.0,0.002273
940.0,0.002797
941.0,0.002022
942.0,0.002371
943.0,0.001484
944.0,0.001591
945.0,0.002059
946.0,0.0009758
947.0,0.00204
948.0,0.001464
949.0,0.002812
950.0,0.0006878
951.0,0.002752
952.0,0.001369
953.0,0.001817
954.0,0.002293
955.0,0.001834
956.0,0.001805
957.0,0.001344
958.0,0.002649
959.0,0.002006
960.0,0.00226
961.0,0.002593
962.0,0.002432
963.0,0.002868
964.0,0.002586
965.0,0.002833
966.0,0.00282
967.0,0.002787
968.0,0.004022
969.0,0.004175
970.0,0.003767
971.0,0.004453
972.0,0.004197
973.0,0.003503
974.0,0.003291
975.0,0.003437
976.0,0.00319
977.0,0.003767
978.0,0.003503
979.0,0.003699
980.0,0.003426
981.0,0.004261
982.0,0.004005
983.0,0.003798
984.0,0.004404
985.0,0.003943
986.0,0.004487
987.0,0.004342
988.0,0.004317
989.0,0.004445
990.0,0.004258
991.0,0.00441
992.0,0.004425
993.0,0.004272
994.0,0.004397
995.0,0.004383
996.0,0.00434
997.0,0.004335
998.0,0.004296
999.0,0.004267
1000.0,0.004212
1001.0,0.004259
1002.0,0.004084
1003.0,0.00415
1004.0,0.004021
1005.0,0.003874
1006.0,0.004002
1007.0,0.004075
1008.0,0.00403
1009.0,0.003986
1010.0,0.003949
1011.0,0.003995
1012.0,0.003937
1013.0,0.003957
1014.0,0.003915
1015.0,0.003874
1016.0,0.00384
1017.0,0.003833
1018.0,0.003809
1019.0,0.003698
1020.0,0.003757
1021.0,0.00374
1022.0,0.003691
1023.0,0.003716
1024.0,0.003639
1025.0,0.003691
1026.0,0.003657
1027.0,0.003636
1028.0,0.003614
1029.0,0.003557
1030.0,0.003573
1031.0,0.003543
1032.0,0.003521
1033.0,0.003454
1034.0,0.003441
1035.0,0.003439
1036.0,0.003442
1037.0,0.003373
1038.0,0.003376
1039.0,0.003361
1040.0,0.003334
1041.0,0.003333
1042.0,0.003297
1043.0,0.003274
1044.0,0.003273
1045.0,0.003215
1046.0,0.003166
1047.0,0.003182
1048.0,0.003187
1049.0,0.003164
1050.0,0.003136
1051.0,0.003119
1052.0,0.003093
1053.0,0.003056
1054.0,0.00305
1055.0,0.003039
1056.0,0.003014
1057.0,0.002992
1058.0,0.002907
1059.0,0.002897
1060.0,0.002881
1061.0,0.002866
1062.0,0.002868
1063.0,0.002828
1064.0,0.002852
1065.0,0.002816
1066.0,0.002754
1067.0,0.002778
1068.0,0.002704
1069.0,0.002613
1070.0,0.002689
1071.0,0.002732
1072.0,0.002682
1073.0,0.002636
1074.0,0.002708
1075.0,0.002531
1076.0,0.002684
1077.0,0.002608
1078.0,0.002541
1079.0,0.002617
1080.0,0.002537
1081.0,0.002435
1082.0,0.002492
1083.0,0.002497
1084.0,0.002393
1085.0,0.002503
1086.0,0.002225
1087.0,0.002325
1088.0,0.002444
1089.0,0.00233
1090.0,0.00225
1091.0,0.002401
1092.0,0.002392
1093.0,0.001937
1094.0,0.002163
1095.0,0.002015
1096.0,0.0019
1097.0,0.002297
1098.0,0.001848
1099.0,0.001932
1100.0,0.001756
1101.0,0.001784
1102.0,0.001679
1103.0,0.001643
1104.0,0.001641
1105.0,0.00184
1106.0,0.0013
1107.0,0.001714
1108.0,0.001384
1109.0,0.001388
1110.0,0.00167
1111.0,0.001041
1112.0,0.001365
1113.0,0.0007941
1114.0,0.0008922
1115.0,0.0007249
1116.0,0.000553
1117.0,0.0001856
1118.0,0.0006038
1119.0,0.0002798
1120.0,0.000352
1121.0,0.0004753
1122.0,0.0001878
1123.0,0.000314
1124.0,0.0002628
1125.0,0.000347
1126.0,0.0001122
1127.0,0.0003907
1128.0,0.0002223
1129.0,0.000236
1130.0,0.0001522
1131.0,0.0007821
1132.0,0.0005967
1133.0,0.0003565
1134.0,8.461e-05
1135.0,3.157e-05
1136.0,0.0002889
1137.0,0.0007457
1138.0,0.0005109
1139.0,0.0008152
1140.0,0.0006558
1141.0,0.0004797
1142.0,0.0005597
1143.0,0.0008265
1144.0,0.0002599
1145.0,0.0003293
1146.0,0.0003546
1147.0,0.0001165
1148.0,0.0006935
1149.0,0.0005349
1150.0,0.0002766
1151.0,0.0004844
1152.0,0.0006122
1153.0,0.0006027
1154.0,0.0003097
1155.0,0.0008074
1156.0,0.0007113
1157.0,0.0008194
1158.0,0.0008066
1159.0,0.0008826
1160.0,0.0007356
1161.0,0.0009444
1162.0,0.0009412
1163.0,0.001357
1164.0,0.001124
1165.0,0.001033
1166.0,0.001036
1167.0,0.001142
1168.0,0.001149
1169.0,0.001182
1170.0,0.001305
1171.0,0.001263
1172.0,0.001295
1173.0,0.001289
1174.0,0.0008562
1175.0,0.001261
1176.0,0.001417
1177.0,0.001333
1178.0,0.0009438
1179.0,0.001414
1180.0,0.001218
1181.0,0.001259
1182.0,0.0008074
1183.0,0.001239
1184.0,0.001135
1185.0,0.001078
1186.0,0.001329
1187.0,0.001244
1188.0,0.0008039
1189.0,0.001146
1190.0,0.001282
1191.0,0.001185
1192.0,0.001295
1193.0,0.001224
1194.0,0.001267
1195.0,0.001176
1196.0,0.001117
1197.0,0.001267
1198.0,0.001139
1199.0,0.0009255
1200.0,0.001184
1201.0,0.001124
1202.0,0.001122
1203.0,0.001109
1204.0,0.0009395
1205.0,0.001149
1206.0,0.001295
1207.0,0.0011
1208.0,0.001092
1209.0,0.001112
1210.0,0.001166
1211.0,0.001091
1212.0,0.001058
1213.0,0.001215
1214.0,0.001084
1215.0,0.001057
1216.0,0.001201
1217.0,0.001158
1218.0,0.001183
1219.0,0.00116
1220.0,0.001178
1221.0,0.001191
1222.0,0.001151
1223.0,0.001133
1224.0,0.001116
1225.0,0.001167
1226.0,0.001177
1227.0,0.00106
1228.0,0.001179
1229.0,0.001166
1230.0,0.001138
1231.0,0.00118
1232.0,0.001169
1233.0,0.001108
1234.0,0.001171
1235.0,0.001157
1236.0,0.001164
1237.0,0.001138
1238.0,0.001153
1239.0,0.001134
1240.0,0.001136
1241.0,0.001122
1242.0,0.00112
1243.0,0.001107
1244.0,0.00111
1245.0,0.001112
1246.0,0.001102
1247.0,0.001093
1248.0,0.001087
1249.0,0.001089
1250.0,0.001077
1251.0,0.001058
1252.0,0.001058
1253.0,0.00104
1254.0,0.001022
1255.0,0.001045
1256.0,0.001002
1257.0,0.0009908
1258.0,0.001015
1259.0,0.0009587
1260.0,0.0009628
1261.0,0.0008872
1262.0,0.0008487
1263.0,0.0008473
1264.0,0.00076
1265.0,0.0008373
1266.0,0.0007913
1267.0,0.000811
1268.0,0.0007539
1269.0,0.0004107
1270.0,0.0007979
1271.0,0.0008616
1272.0,0.0008636
1273.0,0.0008497
1274.0,0.0008525
1275.0,0.0008655
1276.0,0.0008748
1277.0,0.0008821
1278.0,0.0009038
1279.0,0.0008924
1280.0,0.0008787
1281.0,0.0008394
1282.0,0.0008121
1283.0,0.0008707
1284.0,0.0008876
1285.0,0.0008916
1286.0,0.0009042
1287.0,0.0008813
1288.0,0.0008801
1289.0,0.0008382
1290.0,0.0008675
1291.0,0.0008788
1292.0,0.0008023
1293.0,0.0008511
1294.0,0.0008414
1295.0,0.000829
1296.0,0.0007765
1297.0,0.0007228
1298.0,0.0007949
1299.0,0.0008381
1300.0,0.000674
1301.0,0.0006985
1302.0,0.0007838
1303.0,0.000661
1304.0,0.0005372
1305.0,0.0007576
1306.0,0.0007533
1307.0,0.0005501
1308.0,0.0006544
1309.0,0.000737
1310.0,0.0005324
1311.0,0.0006154
1312.0,0.000595
1313.0,0.0005756
1314.0,0.0005016
1315.0,0.0004916
1316.0,0.0005933
1317.0,0.0005542
1318.0,0.0006133
1319.0,0.0004485
1320.0,0.0004347
1321.0,0.000519
1322.0,0.0005197
1323.0,0.0003676
1324.0,0.0004333
1325.0,0.0005657
1326.0,0.0004684
1327.0,0.000441
1328.0,0.0003698
1329.0,0.0002624
1330.0,0.0003517
1331.0,0.0001969
1332.0,0.000205
1333.0,0.0002914
1334.0,0.0002489
1335.0,0.0003521
1336.0,0.0002675
1337.0,0.000233
1338.0,0.0002521
1339.0,0.0002514
1340.0,0.0002454
1341.0,0.000233
1342.0,0.0002456
1343.0,0.0001558
1344.0,9.202e-05
1345.0,0.0001334
1346.0,6.299e-05
1347.0,6.36e-05
1348.0,4.018e-06
1349.0,1.444e-05
1350.0,1.499e-05
1351.0,3.608e-06
1352.0,9.701e-07
1353.0,4.937e-08
1354.0,1.697e-07
1355.0,1.366e-09
