interpolation:linear
wavelength,value
280.0,2.198e-22
280.5,7.25e-21
281.0,3.892e-20
281.5,3.889e-19
282.0,6.213e-19
282.5,1.54e-18
283.0,4.871e-18
283.5,7.934e-18
284.0,1.31e-16
284.5,3.826e-16
285.0,6.266e-16
285.5,3.13e-15
286.0,1.263e-14
286.5,5.696e-14
287.0,1.637e-13
287.5,6.32e-13
288.0,2.22e-12
288.5,6.637e-12
289.0,1.755e-11
289.5,5.276e-11
290.0,1.462e-10
290.5,2.977e-10
291.0,6.386e-10
291.5,1.833e-09
292.0,3.676e-09
292.5,5.163e-09
293.0,1.109e-08
293.5,2.702e-08
294.0,4.23e-08
294.5,5.788e-08
295.0,9.816e-08
295.5,1.625e-07
296.0,3.15e-07
296.5,4.43e-07
297.0,6.021e-07
297.5,1.628e-06
298.0,2.586e-06
298.5,2.617e-06
299.0,5.806e-06
299.5,9.759e-06
300.0,1.08e-05
300.5,1.575e-05
301.0,2.883e-05
301.5,4.636e-05
302.0,3.98e-05
302.5,7.962e-05
303.0,0.0001479
303.5,0.0001916
304.0,0.0001863
304.5,0.0003052
305.0,0.0005307
305.5,0.0006645
306.0,0.0006655
306.5,0.000879
307.0,0.001493
307.5,0.002271
308.0,0.002449
308.5,0.003095
309.0,0.003151
309.5,0.004012
310.0,0.004229
310.5,0.00701
311.0,0.009147
311.5,0.00897
312.0,0.009775
312.5,0.01259
313.0,0.01405
313.5,0.01323
314.0,0.01772
314.5,0.01722
315.0,0.02297
315.5,0.01832
316.0,0.01723
316.5,0.02639
317.0,0.03266
317.5,0.03328
318.0,0.02712
318.5,0.03669
319.0,0.04545
319.5,0.03439
320.0,0.04102
320.5,0.0561
321.0,0.05415
321.5,0.05224
322.0,0.05083
322.5,0.04432
323.0,0.04667
323.5,0.06042
324.0,0.07101
324.5,0.07033
325.0,0.05882
325.5,0.07917
326.0,0.09777
326.5,0.1007
327.0,0.09902
327.5,0.09409
328.0,0.08041
328.5,0.08841
329.0,0.1099
329.5,0.1261
330.0,0.1256
330.5,0.09724
331.0,0.09784
331.5,0.1015
332.0,0.1132
332.5,0.1135
333.0,0.1119
333.5,0.0985
334.0,0.1003
334.5,0.1188
335.0,0.1133
335.5,0.1333
336.0,0.09207
336.5,0.1056
337.0,0.08541
337.5,0.1055
338.0,0.1053
338.5,0.1227
339.0,0.1211
339.5,0.1163
340.0,0.135
340.5,0.1217
341.0,0.1193
341.5,0.1093
342.0,0.1303
342.5,0.1217
343.0,0.1335
343.5,0.1254
344.0,0.09193
344.5,0.0933
345.0,0.1231
345.5,0.1254
346.0,0.1063
346.5,0.1202
347.0,0.1286
347.5,0.1038
348.0,0.1181
348.5,0.1178
349.0,0.109
349.5,0.1077
350.0,0.1329
350.5,0.1399
351.0,0.1246
351.5,0.1208
352.0,0.1294
352.5,0.1008
353.0,0.1267
353.5,0.1352
354.0,0.14
354.5,0.1417
355.0,0.1408
355.5,0.1269
356.0,0.1325
356.5,0.1129
357.0,0.09302
357.5,0.1136
358.0,0.08983
358.5,0.07658
359.0,0.1068
359.5,0.1357
360.0,0.1435
360.5,0.1145
361.0,0.1041
361.5,0.1196
362.0,0.1032
362.5,0.1425
363.0,0.1276
363.5,0.1173
364.0,0.1431
364.5,0.122
365.0,0.1239
365.5,0.1551
366.0,0.164
366.5,0.1537
367.0,0.1493
367.5,0.1545
368.0,0.1349
368.5,0.1357
369.0,0.1462
369.5,0.1555
370.0,0.1653
370.5,0.128
371.0,0.1364
371.5,0.1702
372.0,0.1127
372.5,0.1347
373.0,0.1367
373.5,0.08872
374.0,0.1286
374.5,0.1062
375.0,0.103
375.5,0.1533
376.0,0.1268
376.5,0.131
377.0,0.1384
377.5,0.1614
378.0,0.1745
378.5,0.1645
379.0,0.1354
379.5,0.1233
380.0,0.1278
380.5,0.1544
381.0,0.1543
381.5,0.122
382.0,0.108
382.5,0.09181
383.0,0.08476
383.5,0.08142
384.0,0.08957
384.5,0.1314
385.0,0.1299
385.5,0.1207
386.0,0.1031
386.5,0.135
387.0,0.1119
387.5,0.1253
388.0,0.1153
388.5,0.1137
389.0,0.1224
389.5,0.1478
390.0,0.1479
390.5,0.1357
391.0,0.1593
391.5,0.162
392.0,0.1361
392.5,0.1215
393.0,0.0674
393.5,0.04885
394.0,0.09913
394.5,0.1257
395.0,0.1529
395.5,0.1549
396.0,0.1339
396.5,0.07806
397.0,0.05841
397.5,0.1184
398.0,0.1654
398.5,0.1704
399.0,0.1841
399.5,0.1829
400.0,0.1894
401.0,0.1862
402.0,0.1952
403.0,0.1844
404.0,0.1805
405.0,0.1794
406.0,0.1754
407.0,0.1715
408.0,0.177
409.0,0.1883
410.0,0.1636
411.0,0.1761
412.0,0.1881
413.0,0.1823
414.0,0.1834
415.0,0.1828
416.0,0.1848
417.0,0.1791
418.0,0.1746
419.0,0.1759
420.0,0.174
421.0,0.1808
422.0,0.1707
423.0,0.1656
424.0,0.1739
425.0,0.1725
426.0,0.167
427.0,0.1629
428.0,0.1577
429.0,0.1485
430.0,0.1291
431.0,0.1271
432.0,0.163
433.0,0.1628
434.0,0.1502
435.0,0.1558
436.0,0.1746
437.0,0.1711
438.0,0.1548
439.0,0.1589
440.0,0.1628
441.0,0.1675
442.0,0.1783
443.0,0.1725
444.0,0.1752
445.0,0.1704
446.0,0.1617
447.0,0.1738
448.0,0.1752
449.0,0.1746
450.0,0.1782
451.0,0.1835
452.0,0.1757
453.0,0.1642
454.0,0.1704
455.0,0.1701
456.0,0.1729
457.0,0.1744
458.0,0.167
459.0,0.1648
460.0,0.1639
461.0,0.1664
462.0,0.1666
463.0,0.1646
464.0,0.1611
465.0,0.1582
466.0,0.1588
467.0,0.1548
468.0,0.1554
469.0,0.1549
470.0,0.1489
471.0,0.1478
472.0,0.1547
473.0,0.1517
474.0,0.1508
475.0,0.1509
476.0,0.1451
477.0,0.1442
478.0,0.1469
479.0,0.1446
480.0,0.1436
481.0,0.1449
482.0,0.1446
483.0,0.142
484.0,0.1383
485.0,0.1311
486.0,0.114
487.0,0.1188
488.0,0.1294
489.0,0.1289
490.0,0.1346
491.0,0.1313
492.0,0.123
493.0,0.1261
494.0,0.1265
495.0,0.1267
496.0,0.1265
497.0,0.1273
498.0,0.1203
499.0,0.1206
500.0,0.1159
501.0,0.1126
502.0,0.1098
503.0,0.1131
504.0,0.1091
505.0,0.1122
506.0,0.115
507.0,0.1087
508.0,0.1048
509.0,0.1072
510.0,0.106
511.0,0.1082
512.0,0.1086
513.0,0.102
514.0,0.1005
515.0,0.09871
516.0,0.09772
517.0,0.08619
518.0,0.08994
519.0,0.09362
520.0,0.09625
521.0,0.09635
522.0,0.09561
523.0,0.09315
524.0,0.09561
525.0,0.09582
526.0,0.09069
527.0,0.0846
528.0,0.08859
529.0,0.09256
530.0,0.09045
531.0,0.09102
532.0,0.0872
533.0,0.08404
534.0,0.08595
535.0,0.08729
536.0,0.08755
537.0,0.08356
538.0,0.08446
539.0,0.08318
540.0,0.07918
541.0,0.07905
542.0,0.08083
543.0,0.07936
544.0,0.08014
545.0,0.07935
546.0,0.07909
547.0,0.07849
548.0,0.07701
549.0,0.07672
550.0,0.07709
551.0,0.07561
552.0,0.07559
553.0,0.07369
554.0,0.0749
555.0,0.07448
556.0,0.07293
557.0,0.07007
558.0,0.06892
559.0,0.06701
560.0,0.06724
561.0,0.0675
562.0,0.06639
563.0,0.0676
564.0,0.06523
565.0,0.06415
566.0,0.06271
567.0,0.06337
568.0,0.06227
569.0,0.06023
570.0,0.05978
571.0,0.059
572.0,0.05989
573.0,0.06012
574.0,0.05955
575.0,0.05808
576.0,0.05723
577.0,0.05756
578.0,0.05644
579.0,0.05644
580.0,0.05732
581.0,0.05738
582.0,0.05822
583.0,0.05813
584.0,0.05838
585.0,0.05667
586.0,0.05517
587.0,0.05599
588.0,0.05418
589.0,0.04745
590.0,0.04934
591.0,0.05202
592.0,0.05091
593.0,0.05137
594.0,0.05055
595.0,0.04883
596.0,0.05057
597.0,0.04959
598.0,0.04912
599.0,0.04881
600.0,0.04858
601.0,0.04791
602.0,0.0473
603.0,0.04782
604.0,0.04837
605.0,0.0479
606.0,0.04753
607.0,0.04784
608.0,0.04714
609.0,0.04706
610.0,0.04658
611.0,0.04668
612.0,0.04639
613.0,0.04565
614.0,0.04487
615.0,0.04569
616.0,0.04404
617.0,0.04379
618.0,0.0453
619.0,0.04467
620.0,0.04476
621.0,0.04459
622.0,0.04385
623.0,0.04296
624.0,0.04204
625.0,0.04177
626.0,0.04222
627.0,0.04246
628.0,0.03893
629.0,0.04089
630.0,0.03976
631.0,0.04066
632.0,0.04004
633.0,0.04118
634.0,0.04069
635.0,0.04118
636.0,0.0405
637.0,0.04103
638.0,0.04131
639.0,0.04071
640.0,0.04018
641.0,0.04
642.0,0.0397
643.0,0.04009
644.0,0.03983
645.0,0.03971
646.0,0.03854
647.0,0.03779
648.0,0.03764
649.0,0.03674
650.0,0.03694
651.0,0.03841
652.0,0.03644
653.0,0.03758
654.0,0.03703
655.0,0.03538
656.0,0.03129
657.0,0.03202
658.0,0.0358
659.0,0.03594
660.0,0.03594
661.0,0.03603
662.0,0.03593
663.0,0.03509
664.0,0.03541
665.0,0.03533
666.0,0.03523
667.0,0.03508
668.0,0.03498
669.0,0.03538
670.0,0.03508
671.0,0.03494
672.0,0.03453
673.0,0.03494
674.0,0.03467
675.0,0.03421
676.0,0.0343
677.0,0.03384
678.0,0.03381
679.0,0.03313
680.0,0.03326
681.0,0.0329
682.0,0.03271
683.0,0.03249
684.0,0.03218
685.0,0.03231
686.0,0.03197
687.0,0.01945
688.0,0.02335
689.0,0.02336
690.0,0.02465
691.0,0.02616
692.0,0.02729
693.0,0.02692
694.0,0.02657
695.0,0.02779
696.0,0.02771
697.0,0.02964
698.0,0.02905
699.0,0.02801
700.0,0.02754
701.0,0.02708
702.0,0.02723
703.0,0.02717
704.0,0.02803
705.0,0.02794
706.0,0.02784
707.0,0.02775
708.0,0.02768
709.0,0.02766
710.0,0.02749
711.0,0.02738
712.0,0.02723
713.0,0.02679
714.0,0.02676
715.0,0.02571
716.0,0.02559
717.0,0.02141
718.0,0.01943
719.0,0.01758
720.0,0.01836
721.0,0.02056
722.0,0.02396
723.0,0.02192
724.0,0.01935
725.0,0.0189
726.0,0.01978
727.0,0.02007
728.0,0.01859
729.0,0.01941
730.0,0.02048
731.0,0.01942
732.0,0.02094
733.0,0.02231
734.0,0.0228
735.0,0.02219
736.0,0.02206
737.0,0.02204
738.0,0.02244
739.0,0.02188
740.0,0.0224
741.0,0.0221
742.0,0.02204
743.0,0.02249
744.0,0.02233
745.0,0.02223
746.0,0.02223
747.0,0.02218
748.0,0.02202
749.0,0.02166
750.0,0.02156
751.0,0.02126
752.0,0.02127
753.0,0.02128
754.0,0.02123
755.0,0.02102
756.0,0.02093
757.0,0.02086
758.0,0.02051
759.0,0.0199
760.0,0.002733
761.0,0.001432
762.0,0.008807
763.0,0.004148
764.0,0.006351
765.0,0.008674
766.0,0.01101
767.0,0.0144
768.0,0.01713
769.0,0.01755
770.0,0.01824
771.0,0.01838
772.0,0.01836
773.0,0.01839
774.0,0.01821
775.0,0.01798
776.0,0.01811
777.0,0.01778
778.0,0.01758
779.0,0.0175
780.0,0.01732
781.0,0.01727
782.0,0.0173
783.0,0.01694
784.0,0.01695
785.0,0.01675
786.0,0.01686
787.0,0.01643
788.0,0.01612
789.0,0.01603
790.0,0.01544
791.0,0.0156
792.0,0.01543
793.0,0.0151
794.0,0.01539
795.0,0.01556
796.0,0.01488
797.0,0.01483
798.0,0.01532
799.0,0.01513
800.0,0.01476
801.0,0.01462
802.0,0.01451
803.0,0.01432
804.0,0.01429
805.0,0.01421
806.0,0.0146
807.0,0.01434
808.0,0.01429
809.0,0.01391
810.0,0.01369
811.0,0.01359
812.0,0.01304
813.0,0.01266
814.0,0.01082
815.0,0.01071
816.0,0.00983
817.0,0.009992
818.0,0.009534
819.0,0.01084
820.0,0.01008
821.0,0.01209
822.0,0.01163
823.0,0.007373
824.0,0.0111
825.0,0.01166
826.0,0.01107
827.0,0.01176
828.0,0.009617
829.0,0.01089
830.0,0.01067
831.0,0.01067
832.0,0.01024
833.0,0.01103
834.0,0.01051
835.0,0.0117
836.0,0.01102
837.0,0.01164
838.0,0.01117
839.0,0.01137
840.0,0.01158
841.0,0.01134
842.0,0.01135
843.0,0.01134
844.0,0.01111
845.0,0.01146
846.0,0.01137
847.0,0.01112
848.0,0.01098
849.0,0.01061
850.0,0.01012
851.0,0.01064
852.0,0.01052
853.0,0.01009
854.0,0.008662
855.0,0.009496
856.0,0.01033
857.0,0.01053
858.0,0.01041
859.0,0.01038
860.0,0.01036
861.0,0.01027
862.0,0.01039
863.0,0.0106
864.0,0.01003
865.0,0.009908
866.0,0.008873
867.0,0.009223
868.0,0.009996
869.0,0.00975
870.0,0.009988
871.0,0.009811
872.0,0.009737
873.0,0.009677
874.0,0.00952
875.0,0.009285
876.0,0.009339
877.0,0.009395
878.0,0.009453
879.0,0.009269
880.0,0.009032
881.0,0.00885
882.0,0.009003
883.0,0.009002
884.0,0.008917
885.0,0.008943
886.0,0.008456
887.0,0.008535
888.0,0.00861
889.0,0.008697
890.0,0.008553
891.0,0.008521
892.0,0.008204
893.0,0.007864
894.0,0.007463
895.0,0.006911
896.0,0.006408
897.0,0.005334
898.0,0.00588
899.0,0.004265
900.0,0.006048
901.0,0.004481
902.0,0.005412
903.0,0.005396
904.0,0.007103
905.0,0.006782
906.0,0.006271
907.0,0.004852
908.0,0.004969
909.0,0.005459
910.0,0.004661
911.0,0.005041
912.0,0.005279
913.0,0.00467
914.0,0.004627
915.0,0.005035
916.0,0.004161
917.0,0.005477
918.0,0.004241
919.0,0.005563
920.0,0.005669
921.0,0.005917
922.0,0.005145
923.0,0.005676
924.0,0.005227
925.0,0.005082
926.0,0.005122
927.0,0.005824
928.0,0.003963
929.0,0.003541
930.0,0.002663
931.0,0.002503
932.0,0.001715
933.0,0.001358
934.0,0.0007007
935.0,0.001392
936.0,0.0008304
937.0,0.0008373
938.0,0.001039
939.0,0.002341
940.0,0.002885
941.0,0.002082
942.0,0.002445
943.0,0.001525
944.0,0.001634
945.0,0.00212
946.0,0.0009993
947.0,0.002101
948.0,0.001503
949.0,0.002901
950.0,0.0007019
951.0,0.00284
952.0,0.001405
953.0,0.001869
954.0,0.002363
955.0,0.001887
956.0,0.001852
957.0,0.001379
958.0,0.002727
959.0,0.002064
960.0,0.002328
961.0,0.00267
962.0,0.002503
963.0,0.002953
964.0,0.002661
965.0,0.002918
966.0,0.002904
967.0,0.002871
968.0,0.004134
969.0,0.004299
970.0,0.003876
971.0,0.004578
972.0,0.004316
973.0,0.003606
974.0,0.003387
975.0,0.003537
976.0,0.003286
977.0,0.003873
978.0,0.003604
979.0,0.003806
980.0,0.003524
981.0,0.00438
982.0,0.004119
983.0,0.003907
984.0,0.004524
985.0,0.004056
986.0,0.004606
987.0,0.00446
988.0,0.004434
989.0,0.004562
990.0,0.004374
991.0,0.004527
992.0,0.004542
993.0,0.004387
994.0,0.004513
995.0,0.004497
996.0,0.004454
997.0,0.004448
998.0,0.004409
999.0,0.004378
1000.0,0.004322
1001.0,0.004371
1002.0,0.004194
1003.0,0.004258
1004.0,0.004127
1005.0,0.003975
1006.0,0.004106
1007.0,0.004181
1008.0,0.004136
1009.0,0.004091
1010.0,0.004054
1011.0,0.004099
1012.0,0.00404
1013.0,0.00406
1014.0,0.004017
1015.0,0.003975
1016.0,0.00394
1017.0,0.003933
1018.0,0.003908
1019.0,0.003795
1020.0,0.003855
1021.0,0.003837
1022.0,0.003787
1023.0,0.003813
1024.0,0.003735
1025.0,0.003787
1026.0,0.003753
1027.0,0.00373
1028.0,0.003708
1029.0,0.003649
1030.0,0.003666
1031.0,0.003635
1032.0,0.003612
1033.0,0.003544
1034.0,0.003531
1035.0,0.003528
1036.0,0.003531
1037.0,0.003461
1038.0,0.003463
1039.0,0.003448
1040.0,0.003421
1041.0,0.00342
1042.0,0.003383
1043.0,0.00336
1044.0,0.003359
1045.0,0.0033
1046.0,0.00325
1047.0,0.003266
1048.0,0.003271
1049.0,0.003247
1050.0,0.003219
1051.0,0.003201
1052.0,0.003175
1053.0,0.003137
1054.0,0.003131
1055.0,0.00312
1056.0,0.003095
1057.0,0.003072
1058.0,0.002985
1059.0,0.002975
1060.0,0.002959
1061.0,0.002943
1062.0,0.002946
1063.0,0.002905
1064.0,0.002929
1065.0,0.002893
1066.0,0.002829
1067.0,0.002854
1068.0,0.002778
1069.0,0.002684
1070.0,0.002762
1071.0,0.002805
1072.0,0.002755
1073.0,0.002708
1074.0,0.00278
1075.0,0.0026
1076.0,0.002755
1077.0,0.002678
1078.0,0.002611
1079.0,0.002687
1080.0,0.002605
1081.0,0.002502
1082.0,0.002559
1083.0,0.002563
1084.0,0.002459
1085.0,0.00257
1086.0,0.002286
1087.0,0.002389
1088.0,0.002509
1089.0,0.002394
1090.0,0.002312
1091.0,0.002465
1092.0,0.002456
1093.0,0.001992
1094.0,0.002222
1095.0,0.002074
1096.0,0.001955
1097.0,0.002359
1098.0,0.001903
1099.0,0.00199
1100.0,0.001808
1101.0,0.001836
1102.0,0.001729
1103.0,0.001692
1104.0,0.001691
1105.0,0.001895
1106.0,0.001341
1107.0,0.001765
1108.0,0.001427
1109.0,0.00143
1110.0,0.001721
1111.0,0.001073
1112.0,0.001407
1113.0,0.0008171
1114.0,0.0009194
1115.0,0.000746
1116.0,0.0005682
1117.0,0.0001888
1118.0,0.0006211
1119.0,0.0002858
1120.0,0.0003604
1121.0,0.0004882
1122.0,0.0001912
1123.0,0.0003212
1124.0,0.0002685
1125.0,0.0003554
1126.0,0.0001137
1127.0,0.0004006
1128.0,0.0002266
1129.0,0.0002408
1130.0,0.0001546
1131.0,0.0008075
1132.0,0.0006145
1133.0,0.0003653
1134.0,8.565e-05
1135.0,3.186e-05
1136.0,0.0002954
1137.0,0.0007699
1138.0,0.0005256
1139.0,0.000841
1140.0,0.0006759
1141.0,0.0004933
1142.0,0.0005763
1143.0,0.0008535
1144.0,0.0002657
1145.0,0.0003374
1146.0,0.0003635
1147.0,0.0001181
1148.0,0.0007154
1149.0,0.0005506
1150.0,0.0002827
1151.0,0.0004983
1152.0,0.0006311
1153.0,0.0006207
1154.0,0.000317
1155.0,0.0008335
1156.0,0.0007338
1157.0,0.0008447
1158.0,0.0008314
1159.0,0.0009107
1160.0,0.0007573
1161.0,0.000973
1162.0,0.0009698
1163.0,0.001397
1164.0,0.001157
1165.0,0.001065
1166.0,0.001067
1167.0,0.001176
1168.0,0.001183
1169.0,0.001218
1170.0,0.001343
1171.0,0.0013
1172.0,0.001332
1173.0,0.001326
1174.0,0.0008809
1175.0,0.001297
1176.0,0.001455
1177.0,0.001371
1178.0,0.0009701
1179.0,0.001453
1180.0,0.001252
1181.0,0.001294
1182.0,0.0008304
1183.0,0.001274
1184.0,0.001167
1185.0,0.001109
1186.0,0.001366
1187.0,0.00128
1188.0,0.0008278
1189.0,0.001178
1190.0,0.001317
1191.0,0.00122
1192.0,0.00133
1193.0,0.001258
1194.0,0.001302
1195.0,0.001209
1196.0,0.001149
1197.0,0.001302
1198.0,0.00117
1199.0,0.0009525
1200.0,0.001217
1201.0,0.001156
1202.0,0.001153
1203.0,0.001141
1204.0,0.0009661
1205.0,0.00118
1206.0,0.00133
1207.0,0.001131
1208.0,0.001122
1209.0,0.001143
1210.0,0.001198
1211.0,0.001122
1212.0,0.001089
1213.0,0.001249
1214.0,0.001116
1215.0,0.001088
1216.0,0.001234
1217.0,0.00119
1218.0,0.001216
1219.0,0.001193
1220.0,0.00121
1221.0,0.001223
1222.0,0.001182
1223.0,0.001164
1224.0,0.001147
1225.0,0.001199
1226.0,0.001208
1227.0,0.00109
1228.0,0.00121
1229.0,0.001197
1230.0,0.001169
1231.0,0.001211
1232.0,0.001199
1233.0,0.001138
1234.0,0.001202
1235.0,0.001188
1236.0,0.001194
1237.0,0.001168
1238.0,0.001183
1239.0,0.001164
1240.0,0.001165
1241.0,0.001152
1242.0,0.001149
1243.0,0.001136
1244.0,0.001139
1245.0,0.001141
1246.0,0.001131
1247.0,0.001122
1248.0,0.001115
1249.0,0.001117
1250.0,0.001105
1251.0,0.001085
1252.0,0.001085
1253.0,0.001068
1254.0,0.001049
1255.0,0.001072
1256.0,0.001029
1257.0,0.001018
1258.0,0.001042
1259.0,0.0009858
1260.0,0.0009898
1261.0,0.0009137
1262.0,0.0008748
1263.0,0.0008734
1264.0,0.0007849
1265.0,0.0008631
1266.0,0.0008167
1267.0,0.0008363
1268.0,0.0007783
1269.0,0.000425
1270.0,0.0008232
1271.0,0.0008872
1272.0,0.0008892
1273.0,0.0008751
1274.0,0.0008777
1275.0,0.0008908
1276.0,0.0009
1277.0,0.000907
1278.0,0.0009287
1279.0,0.0009169
1280.0,0.0009028
1281.0,0.0008621
1282.0,0.0008336
1283.0,0.0008938
1284.0,0.0009112
1285.0,0.0009153
1286.0,0.0009279
1287.0,0.0009049
1288.0,0.0009035
1289.0,0.0008614
1290.0,0.0008905
1291.0,0.0009019
1292.0,0.000825
1293.0,0.0008738
1294.0,0.0008639
1295.0,0.0008519
1296.0,0.0007988
1297.0,0.0007439
1298.0,0.000817
1299.0,0.0008603
1300.0,0.0006933
1301.0,0.0007186
1302.0,0.0008054
1303.0,0.0006799
1304.0,0.0005534
1305.0,0.0007785
1306.0,0.0007744
1307.0,0.0005662
1308.0,0.0006728
1309.0,0.0007583
1310.0,0.0005482
1311.0,0.0006329
1312.0,0.000612
1313.0,0.0005926
1314.0,0.0005165
1315.0,0.0005066
1316.0,0.0006106
1317.0,0.0005704
1318.0,0.0006308
1319.0,0.000462
1320.0,0.0004475
1321.0,0.0005343
1322.0,0.0005356
1323.0,0.0003789
1324.0,0.0004462
1325.0,0.0005826
1326.0,0.0004825
1327.0,0.0004543
1328.0,0.0003809
1329.0,0.0002702
1330.0,0.0003627
1331.0,0.0002023
1332.0,0.0002108
1333.0,0.0003007
1334.0,0.0002558
1335.0,0.0003633
1336.0,0.0002756
1337.0,0.0002396
1338.0,0.0002596
1339.0,0.0002589
1340.0,0.0002525
1341.0,0.0002401
1342.0,0.000253
1343.0,0.0001598
1344.0,9.395e-05
1345.0,0.0001367
1346.0,6.401e-05
1347.0,6.459e-05
1348.0,4.037e-06
1349.0,1.454e-05
1350.0,1.509e-05
1351.0,3.623e-06
1352.0,9.734e-07
1353.0,4.953e-08
1354.0,1.702e-07
1355.0,1.371e-09
1356.0,2.399e-08
1357.0,3.644e-08
