interpolation:linear
wavelength,value
280.0,1.67e-21
280.5,5.3160000000000006e-20
281.0,2.819e-19
281.5,4.587e-19
282.0,1.014e-18
282.5,2.572e-18
283.0,8.177e-18
283.5,1.332e-17
284.0,2.156e-16
284.5,6.227e-16
285.0,1.32e-15
285.5,6.329e-15
286.0,2.525e-14
286.5,1.113e-13
287.0,3.151e-13
287.5,1.194e-12
288.0,3.444e-12
288.5,1.104e-11
289.0,3.052e-11
289.5,9.462e-11
290.0,2.667e-10
290.5,5.492e-10
291.0,1.189e-09
291.5,3.438e-09
292.0,7.008e-09
292.5,1.031e-08
293.0,2.342e-08
293.5,6.133e-08
294.0,1.007e-07
294.5,1.298e-07
295.0,2.283e-07
295.5,5.448e-07
296.0,1.019e-06
296.5,1.458e-06
297.0,2.015e-06
297.5,5.625e-06
298.0,9.235e-06
298.5,9.635e-06
299.0,2.213e-05
299.5,4.013e-05
300.0,4.681e-05
300.5,7.268e-05
301.0,0.000151
301.5,0.0002825
302.0,0.0002671
302.5,0.000522
303.0,0.0009389
303.5,0.001187
304.0,0.001126
304.5,0.001735
305.0,0.002757
305.5,0.003252
306.0,0.003178
306.5,0.004031
307.0,0.006257
307.5,0.008694
308.0,0.009225
308.5,0.01112
309.0,0.01126
309.5,0.01299
310.0,0.01309
310.5,0.0212
311.0,0.02667
311.5,0.02573
312.0,0.026
312.5,0.03185
313.0,0.03462
313.5,0.03333
314.0,0.04208
314.5,0.03791
315.0,0.04983
315.5,0.04114
316.0,0.0364
316.5,0.05291
317.0,0.06545
317.5,0.06758
318.0,0.05312
318.5,0.0672
319.0,0.08043
319.5,0.06412
320.0,0.077
320.5,0.09835
321.0,0.08932
321.5,0.08556
322.0,0.08864
322.5,0.07694
323.0,0.07762
323.5,0.09678
324.0,0.1128
324.5,0.1136
325.0,0.09662
325.5,0.1256
326.0,0.1538
326.5,0.1548
327.0,0.1533
327.5,0.147
328.0,0.1293
328.5,0.1369
329.0,0.1653
329.5,0.1877
330.0,0.1881
330.5,0.1487
331.0,0.1506
331.5,0.1535
332.0,0.1669
332.5,0.1654
333.0,0.1639
333.5,0.1467
334.0,0.1496
334.5,0.1735
335.0,0.1635
335.5,0.1928
336.0,0.133
336.5,0.1527
337.0,0.1243
337.5,0.1539
338.0,0.1509
338.5,0.1756
339.0,0.1727
339.5,0.166
340.0,0.1924
340.5,0.173
341.0,0.1695
341.5,0.1543
342.0,0.1836
342.5,0.171
343.0,0.1879
343.5,0.1767
344.0,0.1295
344.5,0.1317
345.0,0.1724
345.5,0.1751
346.0,0.1481
346.5,0.167
347.0,0.179
347.5,0.1444
348.0,0.1636
348.5,0.1628
349.0,0.1504
349.5,0.1484
350.0,0.1829
350.5,0.1923
351.0,0.1713
351.5,0.1665
352.0,0.1778
352.5,0.1381
353.0,0.1732
353.5,0.1845
354.0,0.1908
354.5,0.1928
355.0,0.1915
355.5,0.1724
356.0,0.1797
356.5,0.1529
357.0,0.1259
357.5,0.1535
358.0,0.1212
358.5,0.1032
359.0,0.1439
359.5,0.1828
360.0,0.1931
360.5,0.1537
361.0,0.1396
361.5,0.1602
362.0,0.138
362.5,0.1904
363.0,0.1704
363.5,0.1564
364.0,0.1906
364.5,0.1623
365.0,0.1647
365.5,0.206
366.0,0.2175
366.5,0.2036
367.0,0.1976
367.5,0.2043
368.0,0.1782
368.5,0.1792
369.0,0.1928
369.5,0.2048
370.0,0.2175
370.5,0.1682
371.0,0.1791
371.5,0.2233
372.0,0.1476
372.5,0.1764
373.0,0.1788
373.5,0.1159
374.0,0.1678
374.5,0.1385
375.0,0.1342
375.5,0.1996
376.0,0.1648
376.5,0.1702
377.0,0.1796
377.5,0.2093
378.0,0.2261
378.5,0.2129
379.0,0.175
379.5,0.1592
380.0,0.1649
380.5,0.199
381.0,0.1987
381.5,0.1569
382.0,0.1388
382.5,0.1179
383.0,0.1087
383.5,0.1043
384.0,0.1147
384.5,0.1681
385.0,0.1661
385.5,0.1541
386.0,0.1315
386.5,0.1721
387.0,0.1424
387.5,0.1594
388.0,0.1466
388.5,0.1444
389.0,0.1553
389.5,0.1873
390.0,0.1873
390.5,0.1717
391.0,0.2014
391.5,0.2046
392.0,0.1717
392.5,0.1531
393.0,0.0849
393.5,0.06149
394.0,0.1247
394.5,0.1579
395.0,0.192
395.5,0.1943
396.0,0.1678
396.5,0.09775
397.0,0.07309
397.5,0.1481
398.0,0.2066
398.5,0.2127
399.0,0.2295
399.5,0.2279
400.0,0.2358
401.0,0.2317
402.0,0.2425
403.0,0.2287
404.0,0.2235
405.0,0.2218
406.0,0.2165
407.0,0.2114
408.0,0.2179
409.0,0.2315
410.0,0.2009
411.0,0.216
412.0,0.2303
413.0,0.2229
414.0,0.224
415.0,0.2229
416.0,0.225
417.0,0.2178
418.0,0.2121
419.0,0.2133
420.0,0.2107
421.0,0.2187
422.0,0.2062
423.0,0.1998
424.0,0.2097
425.0,0.2077
426.0,0.2008
427.0,0.1956
428.0,0.1892
429.0,0.1779
430.0,0.1545
431.0,0.1519
432.0,0.1946
433.0,0.1942
434.0,0.1789
435.0,0.1854
436.0,0.2075
437.0,0.2032
438.0,0.1837
439.0,0.1885
440.0,0.193
441.0,0.1984
442.0,0.2111
443.0,0.204
444.0,0.207
445.0,0.201
446.0,0.1905
447.0,0.2044
448.0,0.206
449.0,0.2051
450.0,0.2092
451.0,0.2153
452.0,0.2058
453.0,0.1922
454.0,0.1992
455.0,0.1989
456.0,0.202
457.0,0.2036
458.0,0.195
459.0,0.1924
460.0,0.1914
461.0,0.1942
462.0,0.1943
463.0,0.1917
464.0,0.1874
465.0,0.1838
466.0,0.1843
467.0,0.1795
468.0,0.1801
469.0,0.1795
470.0,0.1725
471.0,0.171
472.0,0.1789
473.0,0.1753
474.0,0.1742
475.0,0.1743
476.0,0.1676
477.0,0.1667
478.0,0.1698
479.0,0.1672
480.0,0.1661
481.0,0.1677
482.0,0.1672
483.0,0.164
484.0,0.1596
485.0,0.151
486.0,0.1311
487.0,0.1365
488.0,0.1486
489.0,0.1479
490.0,0.1544
491.0,0.1505
492.0,0.1411
493.0,0.1446
494.0,0.145
495.0,0.1452
496.0,0.1449
497.0,0.146
498.0,0.138
499.0,0.1385
500.0,0.1332
501.0,0.1296
502.0,0.1266
503.0,0.1305
504.0,0.126
505.0,0.1296
506.0,0.1328
507.0,0.1255
508.0,0.1208
509.0,0.1235
510.0,0.122
511.0,0.1245
512.0,0.1249
513.0,0.1173
514.0,0.1156
515.0,0.1136
516.0,0.1125
517.0,0.09924
518.0,0.1036
519.0,0.1078
520.0,0.1109
521.0,0.111
522.0,0.1103
523.0,0.1075
524.0,0.1104
525.0,0.1108
526.0,0.105
527.0,0.09808
528.0,0.1028
529.0,0.1075
530.0,0.1052
531.0,0.1059
532.0,0.1015
533.0,0.09789
534.0,0.1001
535.0,0.1016
536.0,0.1019
537.0,0.09721
538.0,0.09824
539.0,0.09678
540.0,0.09216
541.0,0.09207
542.0,0.09421
543.0,0.09252
544.0,0.09351
545.0,0.09264
546.0,0.09237
547.0,0.09167
548.0,0.08994
549.0,0.08962
550.0,0.09007
551.0,0.08835
552.0,0.08833
553.0,0.08614
554.0,0.08759
555.0,0.08714
556.0,0.08536
557.0,0.08207
558.0,0.0808
559.0,0.07865
560.0,0.07899
561.0,0.07938
562.0,0.07816
563.0,0.07967
564.0,0.07693
565.0,0.07572
566.0,0.07406
567.0,0.07489
568.0,0.07365
569.0,0.07132
570.0,0.07082
571.0,0.06992
572.0,0.07104
573.0,0.07133
574.0,0.07067
575.0,0.06893
576.0,0.06789
577.0,0.06823
578.0,0.06685
579.0,0.06679
580.0,0.06774
581.0,0.06774
582.0,0.06866
583.0,0.0685
584.0,0.06876
585.0,0.06671
586.0,0.06491
587.0,0.06588
588.0,0.0638
589.0,0.05599
590.0,0.05822
591.0,0.06134
592.0,0.06009
593.0,0.06063
594.0,0.05973
595.0,0.05779
596.0,0.05981
597.0,0.05873
598.0,0.05819
599.0,0.05785
600.0,0.05759
601.0,0.05679
602.0,0.05607
603.0,0.05667
604.0,0.05729
605.0,0.0567
606.0,0.0562
607.0,0.0565
608.0,0.05561
609.0,0.05544
610.0,0.05481
611.0,0.05485
612.0,0.05445
613.0,0.05351
614.0,0.05253
615.0,0.05344
616.0,0.05145
617.0,0.0511
618.0,0.05283
619.0,0.05205
620.0,0.05211
621.0,0.05189
622.0,0.05101
623.0,0.04995
624.0,0.04884
625.0,0.04851
626.0,0.049
627.0,0.04927
628.0,0.04538
629.0,0.04747
630.0,0.04613
631.0,0.04706
632.0,0.0463
633.0,0.04755
634.0,0.04693
635.0,0.04744
636.0,0.0466
637.0,0.04716
638.0,0.04743
639.0,0.04669
640.0,0.04603
641.0,0.04579
642.0,0.0454
643.0,0.04582
644.0,0.04548
645.0,0.04531
646.0,0.04398
647.0,0.04315
648.0,0.04295
649.0,0.04191
650.0,0.04204
651.0,0.04367
652.0,0.04148
653.0,0.04268
654.0,0.04202
655.0,0.04017
656.0,0.03548
657.0,0.03628
658.0,0.04052
659.0,0.04064
660.0,0.04062
661.0,0.0407
662.0,0.04058
663.0,0.03962
664.0,0.03993
665.0,0.0398
666.0,0.03965
667.0,0.03945
668.0,0.03931
669.0,0.03973
670.0,0.03937
671.0,0.03919
672.0,0.03871
673.0,0.03915
674.0,0.03882
675.0,0.03828
676.0,0.03837
677.0,0.03783
678.0,0.03779
679.0,0.03701
680.0,0.03714
681.0,0.03672
682.0,0.03649
683.0,0.03625
684.0,0.03588
685.0,0.03601
686.0,0.03563
687.0,0.02225
688.0,0.02651
689.0,0.0265
690.0,0.02786
691.0,0.02944
692.0,0.03058
693.0,0.03016
694.0,0.02972
695.0,0.03098
696.0,0.03087
697.0,0.03292
698.0,0.03226
699.0,0.03116
700.0,0.03063
701.0,0.03015
702.0,0.03028
703.0,0.03019
704.0,0.0311
705.0,0.03099
706.0,0.03086
707.0,0.03076
708.0,0.03067
709.0,0.03062
710.0,0.03043
711.0,0.03031
712.0,0.03013
713.0,0.02966
714.0,0.02961
715.0,0.02847
716.0,0.02834
717.0,0.02391
718.0,0.02167
719.0,0.01959
720.0,0.02049
721.0,0.02286
722.0,0.02655
723.0,0.02432
724.0,0.02151
725.0,0.02103
726.0,0.02203
727.0,0.02227
728.0,0.02069
729.0,0.02154
730.0,0.02277
731.0,0.02158
732.0,0.0232
733.0,0.02466
734.0,0.02517
735.0,0.02451
736.0,0.02437
737.0,0.02434
738.0,0.02472
739.0,0.02411
740.0,0.02466
741.0,0.02431
742.0,0.02424
743.0,0.02473
744.0,0.02454
745.0,0.02443
746.0,0.02443
747.0,0.02437
748.0,0.02419
749.0,0.0238
750.0,0.02368
751.0,0.02334
752.0,0.02334
753.0,0.02334
754.0,0.02328
755.0,0.02304
756.0,0.02294
757.0,0.02287
758.0,0.02247
759.0,0.02184
760.0,0.003023
761.0,0.00155
762.0,0.01
763.0,0.004655
764.0,0.0072
765.0,0.009847
766.0,0.01243
767.0,0.01608
768.0,0.01892
769.0,0.01933
770.0,0.02002
771.0,0.02014
772.0,0.0201
773.0,0.02014
774.0,0.01994
775.0,0.0197
776.0,0.01985
777.0,0.01949
778.0,0.01927
779.0,0.01918
780.0,0.01899
781.0,0.01892
782.0,0.01895
783.0,0.01855
784.0,0.01855
785.0,0.01833
786.0,0.01845
787.0,0.018
788.0,0.01767
789.0,0.01757
790.0,0.01695
791.0,0.01709
792.0,0.01689
793.0,0.01653
794.0,0.01682
795.0,0.01701
796.0,0.01631
797.0,0.01626
798.0,0.01675
799.0,0.01655
800.0,0.01616
801.0,0.01601
802.0,0.0159
803.0,0.01569
804.0,0.01565
805.0,0.01556
806.0,0.01596
807.0,0.01568
808.0,0.01563
809.0,0.01523
810.0,0.015
811.0,0.01492
812.0,0.01435
813.0,0.01394
814.0,0.01197
815.0,0.01183
816.0,0.01085
817.0,0.01103
818.0,0.01054
819.0,0.01195
820.0,0.01111
821.0,0.01327
822.0,0.01277
823.0,0.008149
824.0,0.01222
825.0,0.01278
826.0,0.01215
827.0,0.01289
828.0,0.01059
829.0,0.01194
830.0,0.0117
831.0,0.01171
832.0,0.01124
833.0,0.01209
834.0,0.01153
835.0,0.01279
836.0,0.01208
837.0,0.01272
838.0,0.01223
839.0,0.01243
840.0,0.01266
841.0,0.0124
842.0,0.0124
843.0,0.01237
844.0,0.01213
845.0,0.0125
846.0,0.0124
847.0,0.01212
848.0,0.01198
849.0,0.01158
850.0,0.01105
851.0,0.01163
852.0,0.01149
853.0,0.01102
854.0,0.009465
855.0,0.01037
856.0,0.01128
857.0,0.0115
858.0,0.01137
859.0,0.01133
860.0,0.01131
861.0,0.0112
862.0,0.01133
863.0,0.01156
864.0,0.01094
865.0,0.0108
866.0,0.009668
867.0,0.01005
868.0,0.01089
869.0,0.01062
870.0,0.01088
871.0,0.01068
872.0,0.0106
873.0,0.01054
874.0,0.01037
875.0,0.01011
876.0,0.01017
877.0,0.01023
878.0,0.01029
879.0,0.01009
880.0,0.009836
881.0,0.009643
882.0,0.009811
883.0,0.009808
884.0,0.009717
885.0,0.009745
886.0,0.009227
887.0,0.009305
888.0,0.009391
889.0,0.009478
890.0,0.009332
891.0,0.009292
892.0,0.008961
893.0,0.008599
894.0,0.008189
895.0,0.007614
896.0,0.007054
897.0,0.005887
898.0,0.006489
899.0,0.004706
900.0,0.006657
901.0,0.004962
902.0,0.005967
903.0,0.005964
904.0,0.007796
905.0,0.007448
906.0,0.00689
907.0,0.005361
908.0,0.005482
909.0,0.006019
910.0,0.005158
911.0,0.005554
912.0,0.005826
913.0,0.00517
914.0,0.005113
915.0,0.005588
916.0,0.004594
917.0,0.006058
918.0,0.004694
919.0,0.006137
920.0,0.006218
921.0,0.006509
922.0,0.005675
923.0,0.006239
924.0,0.005781
925.0,0.005613
926.0,0.005671
927.0,0.006433
928.0,0.004417
929.0,0.003955
930.0,0.002974
931.0,0.002792
932.0,0.00191
933.0,0.001505
934.0,0.0007668
935.0,0.001541
936.0,0.00091
937.0,0.0009176
938.0,0.001146
939.0,0.002613
940.0,0.003225
941.0,0.002328
942.0,0.002738
943.0,0.001693
944.0,0.001805
945.0,0.002366
946.0,0.001101
947.0,0.00235
948.0,0.001662
949.0,0.003261
950.0,0.0007672
951.0,0.003189
952.0,0.001559
953.0,0.002082
954.0,0.00264
955.0,0.002106
956.0,0.002038
957.0,0.001532
958.0,0.003021
959.0,0.002292
960.0,0.002598
961.0,0.00297
962.0,0.002779
963.0,0.003277
964.0,0.002948
965.0,0.003241
966.0,0.003226
967.0,0.003191
968.0,0.004542
969.0,0.004749
970.0,0.004277
971.0,0.005026
972.0,0.004744
973.0,0.003991
974.0,0.003745
975.0,0.003902
976.0,0.003643
977.0,0.004258
978.0,0.003979
979.0,0.004199
980.0,0.003884
981.0,0.004809
982.0,0.004533
983.0,0.004304
984.0,0.004951
985.0,0.004467
986.0,0.005029
987.0,0.004882
988.0,0.004853
989.0,0.004974
990.0,0.00479
991.0,0.004941
992.0,0.004954
993.0,0.004798
994.0,0.004921
995.0,0.004901
996.0,0.004856
997.0,0.004847
998.0,0.004805
999.0,0.004771
1000.0,0.004713
1001.0,0.004762
1002.0,0.004583
1003.0,0.004641
1004.0,0.004501
1005.0,0.00433
1006.0,0.004476
1007.0,0.004556
1008.0,0.004509
1009.0,0.004462
1010.0,0.004423
1011.0,0.004466
1012.0,0.004404
1013.0,0.004423
1014.0,0.004377
1015.0,0.00433
1016.0,0.004293
1017.0,0.004286
1018.0,0.004257
1019.0,0.004139
1020.0,0.0042
1021.0,0.00418
1022.0,0.004127
1023.0,0.004155
1024.0,0.004075
1025.0,0.004126
1026.0,0.004089
1027.0,0.004065
1028.0,0.004041
1029.0,0.003978
1030.0,0.003994
1031.0,0.003961
1032.0,0.003935
1033.0,0.003861
1034.0,0.003846
1035.0,0.003843
1036.0,0.003847
1037.0,0.003771
1038.0,0.003774
1039.0,0.003758
1040.0,0.003728
1041.0,0.003728
1042.0,0.003688
1043.0,0.003662
1044.0,0.003662
1045.0,0.003598
1046.0,0.003544
1047.0,0.003561
1048.0,0.003568
1049.0,0.003542
1050.0,0.003512
1051.0,0.003493
1052.0,0.003465
1053.0,0.003424
1054.0,0.003418
1055.0,0.003406
1056.0,0.00338
1057.0,0.003356
1058.0,0.003261
1059.0,0.003251
1060.0,0.003234
1061.0,0.003217
1062.0,0.00322
1063.0,0.003176
1064.0,0.003203
1065.0,0.003165
1066.0,0.003094
1067.0,0.003121
1068.0,0.003039
1069.0,0.002936
1070.0,0.003021
1071.0,0.003065
1072.0,0.003013
1073.0,0.002961
1074.0,0.003036
1075.0,0.002848
1076.0,0.00301
1077.0,0.00293
1078.0,0.00286
1079.0,0.002933
1080.0,0.00285
1081.0,0.002742
1082.0,0.002796
1083.0,0.002799
1084.0,0.002696
1085.0,0.002811
1086.0,0.002508
1087.0,0.002618
1088.0,0.00274
1089.0,0.002624
1090.0,0.002537
1091.0,0.002695
1092.0,0.002683
1093.0,0.002194
1094.0,0.00243
1095.0,0.002286
1096.0,0.002159
1097.0,0.002578
1098.0,0.002106
1099.0,0.002199
1100.0,0.002002
1101.0,0.002031
1102.0,0.001917
1103.0,0.001879
1104.0,0.001877
1105.0,0.002096
1106.0,0.0015
1107.0,0.001955
1108.0,0.001589
1109.0,0.001591
1110.0,0.001911
1111.0,0.001197
1112.0,0.001565
1113.0,0.0009112
1114.0,0.001029
1115.0,0.000831
1116.0,0.0006335
1117.0,0.000205
1118.0,0.0006944
1119.0,0.0003141
1120.0,0.0004004
1121.0,0.0005478
1122.0,0.0002086
1123.0,0.0003552
1124.0,0.000295
1125.0,0.0003944
1126.0,0.0001224
1127.0,0.0004463
1128.0,0.0002489
1129.0,0.0002652
1130.0,0.0001675
1131.0,0.0009155
1132.0,0.0006914
1133.0,0.0004075
1134.0,9.142e-05
1135.0,3.328e-05
1136.0,0.0003277
1137.0,0.0008754
1138.0,0.0005895
1139.0,0.0009431
1140.0,0.0007589
1141.0,0.0005518
1142.0,0.0006464
1143.0,0.0009642
1144.0,0.0002919
1145.0,0.0003761
1146.0,0.0004065
1147.0,0.0001276
1148.0,0.0008049
1149.0,0.0006172
1150.0,0.0003104
1151.0,0.0005587
1152.0,0.0007099
1153.0,0.0006933
1154.0,0.000352
1155.0,0.0009369
1156.0,0.0008249
1157.0,0.0009449
1158.0,0.0009302
1159.0,0.00102
1160.0,0.000844
1161.0,0.001083
1162.0,0.00108
1163.0,0.001546
1164.0,0.001284
1165.0,0.001187
1166.0,0.001181
1167.0,0.001301
1168.0,0.001311
1169.0,0.00135
1170.0,0.001484
1171.0,0.001435
1172.0,0.001465
1173.0,0.001465
1174.0,0.0009773
1175.0,0.001427
1176.0,0.001592
1177.0,0.001506
1178.0,0.001069
1179.0,0.00159
1180.0,0.001378
1181.0,0.001426
1182.0,0.0009178
1183.0,0.001402
1184.0,0.001286
1185.0,0.001225
1186.0,0.0015
1187.0,0.001409
1188.0,0.0009194
1189.0,0.001296
1190.0,0.001444
1191.0,0.001347
1192.0,0.001458
1193.0,0.001381
1194.0,0.001428
1195.0,0.001333
1196.0,0.001269
1197.0,0.001427
1198.0,0.001283
1199.0,0.001053
1200.0,0.001337
1201.0,0.001274
1202.0,0.001265
1203.0,0.001257
1204.0,0.001065
1205.0,0.001293
1206.0,0.001453
1207.0,0.001245
1208.0,0.001232
1209.0,0.001254
1210.0,0.001312
1211.0,0.001232
1212.0,0.001204
1213.0,0.00137
1214.0,0.001232
1215.0,0.001201
1216.0,0.001352
1217.0,0.001305
1218.0,0.001332
1219.0,0.001309
1220.0,0.001325
1221.0,0.001338
1222.0,0.001294
1223.0,0.001275
1224.0,0.00126
1225.0,0.001313
1226.0,0.001321
1227.0,0.001198
1228.0,0.001322
1229.0,0.001309
1230.0,0.001279
1231.0,0.00132
1232.0,0.001308
1233.0,0.001248
1234.0,0.001309
1235.0,0.001295
1236.0,0.001301
1237.0,0.001275
1238.0,0.001289
1239.0,0.001268
1240.0,0.001269
1241.0,0.001256
1242.0,0.001252
1243.0,0.001237
1244.0,0.001241
1245.0,0.001243
1246.0,0.001232
1247.0,0.001222
1248.0,0.001216
1249.0,0.001217
1250.0,0.001205
1251.0,0.001184
1252.0,0.001183
1253.0,0.001166
1254.0,0.001148
1255.0,0.001169
1256.0,0.001126
1257.0,0.001115
1258.0,0.001138
1259.0,0.001082
1260.0,0.001086
1261.0,0.001009
1262.0,0.0009697
1263.0,0.0009684
1264.0,0.0008768
1265.0,0.000957
1266.0,0.0009096
1267.0,0.0009286
1268.0,0.0008685
1269.0,0.0004868
1270.0,0.0009154
1271.0,0.0009799
1272.0,0.0009815
1273.0,0.0009666
1274.0,0.0009684
1275.0,0.0009818
1276.0,0.0009906
1277.0,0.0009964
1278.0,0.001018
1279.0,0.001005
1280.0,0.0009892
1281.0,0.0009433
1282.0,0.00091
1283.0,0.0009762
1284.0,0.0009955
1285.0,0.0009996
1286.0,0.001012
1287.0,0.0009892
1288.0,0.0009868
1289.0,0.000945
1290.0,0.0009725
1291.0,0.0009841
1292.0,0.0009071
1293.0,0.0009549
1294.0,0.0009443
1295.0,0.0009341
1296.0,0.0008795
1297.0,0.000821
1298.0,0.0008962
1299.0,0.0009396
1300.0,0.0007649
1301.0,0.0007919
1302.0,0.0008834
1303.0,0.0007493
1304.0,0.0006156
1305.0,0.0008537
1306.0,0.0008508
1307.0,0.000627
1308.0,0.0007396
1309.0,0.0008351
1310.0,0.0006077
1311.0,0.0006973
1312.0,0.0006753
1313.0,0.0006559
1314.0,0.0005726
1315.0,0.0005637
1316.0,0.0006744
1317.0,0.0006303
1318.0,0.000695
1319.0,0.0005143
1320.0,0.000496
1321.0,0.0005919
1322.0,0.0005954
1323.0,0.0004237
1324.0,0.0004958
1325.0,0.0006446
1326.0,0.0005358
1327.0,0.0005049
1328.0,0.0004237
1329.0,0.0003022
1330.0,0.0004069
1331.0,0.0002263
1332.0,0.0002353
1333.0,0.0003397
1334.0,0.0002835
1335.0,0.0004071
1336.0,0.0003087
1337.0,0.0002672
1338.0,0.000291
1339.0,0.0002898
1340.0,0.0002809
1341.0,0.0002698
1342.0,0.0002844
1343.0,0.0001796
1344.0,0.000103
1345.0,0.0001526
1346.0,6.992e-05
1347.0,7.062e-05
1348.0,4.14e-06
1349.0,1.519e-05
1350.0,1.581e-05
1351.0,3.705e-06
1352.0,9.857e-07
1353.0,4.992e-08
1354.0,1.718e-07
1355.0,1.38e-09
1356.0,2.417e-08
1357.0,3.672e-08
1358.0,1.62e-09
1359.0,2.041e-10
1360.0,7.377e-10
1361.0,8.251e-13
1362.0,2.257e-15
