interpolation:linear
wavelength,value
280.0,1.188e-22
280.5,3.952e-21
281.0,2.129e-20
281.5,4.307e-19
282.0,5.471e-19
282.5,1.337e-18
283.0,4.207e-18
283.5,6.851e-18
284.0,1.132e-16
284.5,3.314e-16
285.0,5.751e-16
285.5,2.807e-15
286.0,1.129e-14
286.5,5.069e-14
287.0,1.455e-13
287.5,5.62e-13
288.0,1.995e-12
288.5,5.846e-12
289.0,1.529e-11
289.5,4.564e-11
290.0,1.261e-10
290.5,2.566e-10
291.0,5.504e-10
291.5,1.58e-09
292.0,3.187e-09
292.5,4.456e-09
293.0,9.518e-09
293.5,2.305e-08
294.0,3.599e-08
294.5,4.799e-08
295.0,8.11e-08
295.5,1.358e-07
296.0,2.598e-07
296.5,3.6e-07
297.0,4.829e-07
297.5,1.278e-06
298.0,1.987e-06
298.5,1.975e-06
299.0,4.3e-06
299.5,6.966e-06
300.0,7.539e-06
300.5,1.072e-05
301.0,1.879e-05
301.5,2.895e-05
302.0,2.429e-05
302.5,4.763e-05
303.0,8.616e-05
303.5,0.0001099
304.0,0.0001062
304.5,0.000171
305.0,0.00029
305.5,0.0003571
306.0,0.0003554
306.5,0.0004642
307.0,0.0007676
307.5,0.001135
308.0,0.001219
308.5,0.001518
309.0,0.001781
309.5,0.002361
310.0,0.002536
310.5,0.004244
311.0,0.005623
311.5,0.005552
312.0,0.006247
312.5,0.008217
313.0,0.009276
313.5,0.008654
314.0,0.01188
314.5,0.01193
315.0,0.01601
315.5,0.01258
316.0,0.01215
316.5,0.01904
317.0,0.02356
317.5,0.02386
318.0,0.01975
318.5,0.02752
319.0,0.03459
319.5,0.02559
320.0,0.03042
320.5,0.04286
321.0,0.04248
321.5,0.04111
322.0,0.03891
322.5,0.03399
323.0,0.03647
323.5,0.04856
324.0,0.0573
324.5,0.05626
325.0,0.04619
325.5,0.06311
326.0,0.07922
326.5,0.08253
327.0,0.08086
327.5,0.07646
328.0,0.06439
328.5,0.07213
329.0,0.09094
329.5,0.1048
330.0,0.1041
330.5,0.07978
331.0,0.08002
331.5,0.0837
332.0,0.09443
332.5,0.09521
333.0,0.09363
333.5,0.08179
334.0,0.08318
334.5,0.09954
335.0,0.09549
335.5,0.1125
336.0,0.07775
336.5,0.08889
337.0,0.07161
337.5,0.08838
338.0,0.08894
338.5,0.1039
339.0,0.1028
339.5,0.09864
340.0,0.1142
340.5,0.1031
341.0,0.1014
341.5,0.0931
342.0,0.1111
342.5,0.1039
343.0,0.1139
343.5,0.1069
344.0,0.07815
344.5,0.07948
345.0,0.1051
345.5,0.1073
346.0,0.09106
346.5,0.103
347.0,0.1102
347.5,0.0889
348.0,0.1013
348.5,0.1012
349.0,0.09374
349.5,0.09262
350.0,0.1144
350.5,0.1204
351.0,0.1072
351.5,0.1038
352.0,0.1114
352.5,0.08687
353.0,0.1093
353.5,0.1167
354.0,0.121
354.5,0.1224
355.0,0.1217
355.5,0.1098
356.0,0.1147
356.5,0.09773
357.0,0.08058
357.5,0.09846
358.0,0.07789
358.5,0.06643
359.0,0.09271
359.5,0.1178
360.0,0.1247
360.5,0.09946
361.0,0.09052
361.5,0.104
362.0,0.0898
362.5,0.124
363.0,0.1112
363.5,0.1022
364.0,0.1247
364.5,0.1064
365.0,0.1081
365.5,0.1354
366.0,0.1432
366.5,0.1343
367.0,0.1305
367.5,0.1351
368.0,0.118
368.5,0.1188
369.0,0.128
369.5,0.1362
370.0,0.1449
370.5,0.1122
371.0,0.1196
371.5,0.1493
372.0,0.0989
372.5,0.1183
373.0,0.1201
373.5,0.07797
374.0,0.113
374.5,0.09342
375.0,0.09061
375.5,0.135
376.0,0.1116
376.5,0.1154
377.0,0.1219
377.5,0.1423
378.0,0.154
378.5,0.1452
379.0,0.1195
379.5,0.1089
380.0,0.1129
380.5,0.1365
381.0,0.1364
381.5,0.1079
382.0,0.0956
382.5,0.08131
383.0,0.07509
383.5,0.07216
384.0,0.07941
384.5,0.1165
385.0,0.1153
385.5,0.1071
386.0,0.09153
386.5,0.1199
387.0,0.09942
387.5,0.1114
388.0,0.1026
388.5,0.1012
389.0,0.1089
389.5,0.1316
390.0,0.1318
390.5,0.121
391.0,0.142
391.5,0.1445
392.0,0.1214
392.5,0.1084
393.0,0.06019
393.5,0.04364
394.0,0.08859
394.5,0.1124
395.0,0.1368
395.5,0.1386
396.0,0.1198
396.5,0.06989
397.0,0.05232
397.5,0.1061
398.0,0.1482
398.5,0.1528
399.0,0.1651
399.5,0.1641
400.0,0.17
401.0,0.1672
402.0,0.1755
403.0,0.1658
404.0,0.1624
405.0,0.1615
406.0,0.158
407.0,0.1546
408.0,0.1597
409.0,0.17
410.0,0.1478
411.0,0.1592
412.0,0.1702
413.0,0.1651
414.0,0.1662
415.0,0.1657
416.0,0.1676
417.0,0.1625
418.0,0.1586
419.0,0.1598
420.0,0.1582
421.0,0.1645
422.0,0.1554
423.0,0.1508
424.0,0.1585
425.0,0.1573
426.0,0.1523
427.0,0.1487
428.0,0.1441
429.0,0.1357
430.0,0.1181
431.0,0.1163
432.0,0.1492
433.0,0.1491
434.0,0.1376
435.0,0.1429
436.0,0.1601
437.0,0.1571
438.0,0.1421
439.0,0.146
440.0,0.1496
441.0,0.1539
442.0,0.164
443.0,0.1587
444.0,0.1613
445.0,0.157
446.0,0.1491
447.0,0.1602
448.0,0.1616
449.0,0.1611
450.0,0.1645
451.0,0.1695
452.0,0.1623
453.0,0.1518
454.0,0.1576
455.0,0.1574
456.0,0.16
457.0,0.1614
458.0,0.1547
459.0,0.1526
460.0,0.1518
461.0,0.1541
462.0,0.1544
463.0,0.1526
464.0,0.1495
465.0,0.1469
466.0,0.1475
467.0,0.1438
468.0,0.1444
469.0,0.144
470.0,0.1384
471.0,0.1374
472.0,0.144
473.0,0.1412
474.0,0.1404
475.0,0.1405
476.0,0.1351
477.0,0.1343
478.0,0.1368
479.0,0.1346
480.0,0.1337
481.0,0.1349
482.0,0.1347
483.0,0.1323
484.0,0.1289
485.0,0.1223
486.0,0.1064
487.0,0.111
488.0,0.1209
489.0,0.1204
490.0,0.1258
491.0,0.1227
492.0,0.1151
493.0,0.1181
494.0,0.1185
495.0,0.1187
496.0,0.1186
497.0,0.1194
498.0,0.1127
499.0,0.113
500.0,0.1085
501.0,0.1054
502.0,0.1027
503.0,0.1058
504.0,0.102
505.0,0.1049
506.0,0.1075
507.0,0.1017
508.0,0.09806
509.0,0.1003
510.0,0.09929
511.0,0.1014
512.0,0.1017
513.0,0.09556
514.0,0.09416
515.0,0.09249
516.0,0.09156
517.0,0.08075
518.0,0.08427
519.0,0.08772
520.0,0.09017
521.0,0.09026
522.0,0.08955
523.0,0.08723
524.0,0.08949
525.0,0.08965
526.0,0.08482
527.0,0.07909
528.0,0.08279
529.0,0.08646
530.0,0.08447
531.0,0.08498
532.0,0.08139
533.0,0.07844
534.0,0.08023
535.0,0.0815
536.0,0.08176
537.0,0.07805
538.0,0.0789
539.0,0.0777
540.0,0.07395
541.0,0.07381
542.0,0.07546
543.0,0.07408
544.0,0.07478
545.0,0.07404
546.0,0.07379
547.0,0.07323
548.0,0.07185
549.0,0.07158
550.0,0.07192
551.0,0.07054
552.0,0.07052
553.0,0.06874
554.0,0.06986
555.0,0.06946
556.0,0.068
557.0,0.06532
558.0,0.06423
559.0,0.06242
560.0,0.06262
561.0,0.06283
562.0,0.06178
563.0,0.06288
564.0,0.06066
565.0,0.05964
566.0,0.05829
567.0,0.05889
568.0,0.05785
569.0,0.05593
570.0,0.05551
571.0,0.05478
572.0,0.05559
573.0,0.0558
574.0,0.05527
575.0,0.0539
576.0,0.05313
577.0,0.05345
578.0,0.05243
579.0,0.05245
580.0,0.05329
581.0,0.05338
582.0,0.05418
583.0,0.05411
584.0,0.05436
585.0,0.05278
586.0,0.05139
587.0,0.05216
588.0,0.05046
589.0,0.04416
590.0,0.04592
591.0,0.04843
592.0,0.04737
593.0,0.04781
594.0,0.04703
595.0,0.0454
596.0,0.04703
597.0,0.04609
598.0,0.04565
599.0,0.04535
600.0,0.04513
601.0,0.04451
602.0,0.04395
603.0,0.04444
604.0,0.04496
605.0,0.04454
606.0,0.04421
607.0,0.04451
608.0,0.04389
609.0,0.04384
610.0,0.04341
611.0,0.04353
612.0,0.04328
613.0,0.04261
614.0,0.0419
615.0,0.04269
616.0,0.04116
617.0,0.04094
618.0,0.04238
619.0,0.0418
620.0,0.04189
621.0,0.04174
622.0,0.04106
623.0,0.04024
624.0,0.03939
625.0,0.03915
626.0,0.03957
627.0,0.0398
628.0,0.03644
629.0,0.03833
630.0,0.03728
631.0,0.03816
632.0,0.0376
633.0,0.03869
634.0,0.03824
635.0,0.03872
636.0,0.0381
637.0,0.03861
638.0,0.03889
639.0,0.03835
640.0,0.03786
641.0,0.03772
642.0,0.03744
643.0,0.03783
644.0,0.03759
645.0,0.03748
646.0,0.03639
647.0,0.03566
648.0,0.03554
649.0,0.0347
650.0,0.03492
651.0,0.03632
652.0,0.03445
653.0,0.03556
654.0,0.03504
655.0,0.03348
656.0,0.02963
657.0,0.03032
658.0,0.03392
659.0,0.03405
660.0,0.03407
661.0,0.03417
662.0,0.03407
663.0,0.03329
664.0,0.0336
665.0,0.03354
666.0,0.03345
667.0,0.03332
668.0,0.03324
669.0,0.03363
670.0,0.03335
671.0,0.03323
672.0,0.03284
673.0,0.03324
674.0,0.03299
675.0,0.03256
676.0,0.03266
677.0,0.03223
678.0,0.03221
679.0,0.03157
680.0,0.03169
681.0,0.03135
682.0,0.03117
683.0,0.03098
684.0,0.03068
685.0,0.03081
686.0,0.03049
687.0,0.01842
688.0,0.02214
689.0,0.02215
690.0,0.0234
691.0,0.02487
692.0,0.02597
693.0,0.02563
694.0,0.02532
695.0,0.02651
696.0,0.02644
697.0,0.02831
698.0,0.02775
699.0,0.02674
700.0,0.0263
701.0,0.02585
702.0,0.02601
703.0,0.02595
704.0,0.02679
705.0,0.0267
706.0,0.02661
707.0,0.02654
708.0,0.02647
709.0,0.02646
710.0,0.02629
711.0,0.02619
712.0,0.02606
713.0,0.02563
714.0,0.02561
715.0,0.02459
716.0,0.02448
717.0,0.02043
718.0,0.01855
719.0,0.0168
720.0,0.01753
721.0,0.01965
722.0,0.02292
723.0,0.02096
724.0,0.0185
725.0,0.01807
726.0,0.01891
727.0,0.0192
728.0,0.01778
729.0,0.01858
730.0,0.01958
731.0,0.01858
732.0,0.02004
733.0,0.02137
734.0,0.02185
735.0,0.02125
736.0,0.02113
737.0,0.02111
738.0,0.02151
739.0,0.02099
740.0,0.02149
741.0,0.0212
742.0,0.02115
743.0,0.02158
744.0,0.02143
745.0,0.02134
746.0,0.02134
747.0,0.02129
748.0,0.02114
749.0,0.0208
750.0,0.0207
751.0,0.02041
752.0,0.02042
753.0,0.02044
754.0,0.0204
755.0,0.0202
756.0,0.02011
757.0,0.02005
758.0,0.01971
759.0,0.01911
760.0,0.002657
761.0,0.001402
762.0,0.008404
763.0,0.004007
764.0,0.006089
765.0,0.008279
766.0,0.01049
767.0,0.01375
768.0,0.01641
769.0,0.01684
770.0,0.01752
771.0,0.01767
772.0,0.01765
773.0,0.01768
774.0,0.0175
775.0,0.01728
776.0,0.01741
777.0,0.01709
778.0,0.01689
779.0,0.01682
780.0,0.01665
781.0,0.0166
782.0,0.01663
783.0,0.01628
784.0,0.0163
785.0,0.01611
786.0,0.01622
787.0,0.01579
788.0,0.0155
789.0,0.01541
790.0,0.01484
791.0,0.015
792.0,0.01484
793.0,0.01452
794.0,0.01481
795.0,0.01497
796.0,0.0143
797.0,0.01425
798.0,0.01474
799.0,0.01456
800.0,0.0142
801.0,0.01406
802.0,0.01395
803.0,0.01377
804.0,0.01374
805.0,0.01367
806.0,0.01405
807.0,0.0138
808.0,0.01375
809.0,0.01337
810.0,0.01316
811.0,0.01306
812.0,0.01252
813.0,0.01216
814.0,0.01038
815.0,0.01028
816.0,0.009437
817.0,0.009588
818.0,0.009147
819.0,0.0104
820.0,0.009672
821.0,0.01162
822.0,0.01118
823.0,0.007082
824.0,0.01066
825.0,0.01122
826.0,0.01064
827.0,0.01131
828.0,0.009238
829.0,0.01047
830.0,0.01027
831.0,0.01027
832.0,0.009848
833.0,0.01061
834.0,0.0101
835.0,0.01127
836.0,0.01059
837.0,0.01121
838.0,0.01074
839.0,0.01095
840.0,0.01115
841.0,0.01092
842.0,0.01093
843.0,0.01093
844.0,0.0107
845.0,0.01104
846.0,0.01095
847.0,0.01071
848.0,0.01057
849.0,0.01022
850.0,0.009747
851.0,0.01024
852.0,0.01013
853.0,0.009718
854.0,0.00834
855.0,0.009146
856.0,0.009947
857.0,0.01015
858.0,0.01003
859.0,0.01
860.0,0.009987
861.0,0.009892
862.0,0.01002
863.0,0.01022
864.0,0.009671
865.0,0.009551
866.0,0.008554
867.0,0.008892
868.0,0.009638
869.0,0.009401
870.0,0.00963
871.0,0.00946
872.0,0.009389
873.0,0.009332
874.0,0.00918
875.0,0.008954
876.0,0.009006
877.0,0.00906
878.0,0.009116
879.0,0.008938
880.0,0.008709
881.0,0.008533
882.0,0.008679
883.0,0.008679
884.0,0.008597
885.0,0.008621
886.0,0.008149
887.0,0.008227
888.0,0.008298
889.0,0.008384
890.0,0.008242
891.0,0.008213
892.0,0.007902
893.0,0.007573
894.0,0.007179
895.0,0.006639
896.0,0.006159
897.0,0.005125
898.0,0.005647
899.0,0.004101
900.0,0.005812
901.0,0.004303
902.0,0.005198
903.0,0.00518
904.0,0.006831
905.0,0.006523
906.0,0.00603
907.0,0.00466
908.0,0.004775
909.0,0.005244
910.0,0.004476
911.0,0.004848
912.0,0.005071
913.0,0.004485
914.0,0.004446
915.0,0.00483
916.0,0.004
917.0,0.005257
918.0,0.004074
919.0,0.005343
920.0,0.005456
921.0,0.005688
922.0,0.004944
923.0,0.005458
924.0,0.005016
925.0,0.00488
926.0,0.004914
927.0,0.005588
928.0,0.003799
929.0,0.003395
930.0,0.002556
931.0,0.002403
932.0,0.001652
933.0,0.001311
934.0,0.0006825
935.0,0.001343
936.0,0.0008061
937.0,0.0008129
938.0,0.001006
939.0,0.002247
940.0,0.002764
941.0,0.001999
942.0,0.002343
943.0,0.001469
944.0,0.001574
945.0,0.002035
946.0,0.0009671
947.0,0.002017
948.0,0.001449
949.0,0.002777
950.0,0.0006826
951.0,0.002718
952.0,0.001356
953.0,0.001797
954.0,0.002266
955.0,0.001813
956.0,0.001787
957.0,0.00133
958.0,0.002619
959.0,0.001984
960.0,0.002235
961.0,0.002563
962.0,0.002404
963.0,0.002835
964.0,0.002557
965.0,0.0028
966.0,0.002787
967.0,0.002754
968.0,0.003977
969.0,0.004126
970.0,0.003724
971.0,0.004404
972.0,0.00415
973.0,0.003462
974.0,0.003254
975.0,0.003398
976.0,0.003152
977.0,0.003725
978.0,0.003463
979.0,0.003656
980.0,0.003388
981.0,0.004213
982.0,0.00396
983.0,0.003755
984.0,0.004357
985.0,0.003898
986.0,0.004439
987.0,0.004296
988.0,0.004271
989.0,0.004399
990.0,0.004212
991.0,0.004364
992.0,0.004378
993.0,0.004226
994.0,0.004351
995.0,0.004337
996.0,0.004295
997.0,0.00429
998.0,0.004251
999.0,0.004223
1000.0,0.004167
1001.0,0.004215
1002.0,0.00404
1003.0,0.004107
1004.0,0.003979
1005.0,0.003834
1006.0,0.00396
1007.0,0.004032
1008.0,0.003988
1009.0,0.003944
1010.0,0.003908
1011.0,0.003953
1012.0,0.003896
1013.0,0.003917
1014.0,0.003875
1015.0,0.003834
1016.0,0.0038
1017.0,0.003794
1018.0,0.00377
1019.0,0.003659
1020.0,0.003718
1021.0,0.003702
1022.0,0.003653
1023.0,0.003677
1024.0,0.0036
1025.0,0.003653
1026.0,0.003619
1027.0,0.003598
1028.0,0.003576
1029.0,0.00352
1030.0,0.003536
1031.0,0.003506
1032.0,0.003484
1033.0,0.003418
1034.0,0.003406
1035.0,0.003403
1036.0,0.003406
1037.0,0.003339
1038.0,0.003341
1039.0,0.003326
1040.0,0.0033
1041.0,0.003299
1042.0,0.003263
1043.0,0.00324
1044.0,0.003239
1045.0,0.003182
1046.0,0.003133
1047.0,0.003149
1048.0,0.003154
1049.0,0.00313
1050.0,0.003103
1051.0,0.003086
1052.0,0.003061
1053.0,0.003024
1054.0,0.003018
1055.0,0.003007
1056.0,0.002982
1057.0,0.00296
1058.0,0.002876
1059.0,0.002866
1060.0,0.00285
1061.0,0.002835
1062.0,0.002837
1063.0,0.002798
1064.0,0.002822
1065.0,0.002786
1066.0,0.002725
1067.0,0.002748
1068.0,0.002675
1069.0,0.002585
1070.0,0.00266
1071.0,0.002703
1072.0,0.002653
1073.0,0.002608
1074.0,0.002679
1075.0,0.002503
1076.0,0.002655
1077.0,0.00258
1078.0,0.002514
1079.0,0.00259
1080.0,0.00251
1081.0,0.002408
1082.0,0.002465
1083.0,0.002471
1084.0,0.002367
1085.0,0.002476
1086.0,0.0022
1087.0,0.0023
1088.0,0.002418
1089.0,0.002304
1090.0,0.002226
1091.0,0.002375
1092.0,0.002366
1093.0,0.001916
1094.0,0.00214
1095.0,0.001992
1096.0,0.001878
1097.0,0.002273
1098.0,0.001827
1099.0,0.00191
1100.0,0.001736
1101.0,0.001763
1102.0,0.001659
1103.0,0.001623
1104.0,0.001622
1105.0,0.001819
1106.0,0.001285
1107.0,0.001694
1108.0,0.001368
1109.0,0.001371
1110.0,0.00165
1111.0,0.001029
1112.0,0.001349
1113.0,0.0007853
1114.0,0.0008818
1115.0,0.0007169
1116.0,0.0005473
1117.0,0.0001845
1118.0,0.0005973
1119.0,0.0002775
1120.0,0.0003489
1121.0,0.0004706
1122.0,0.0001866
1123.0,0.0003114
1124.0,0.0002607
1125.0,0.0003439
1126.0,0.0001116
1127.0,0.0003871
1128.0,0.0002207
1129.0,0.0002343
1130.0,0.0001513
1131.0,0.0007727
1132.0,0.0005901
1133.0,0.0003533
1134.0,8.424e-05
1135.0,3.146e-05
1136.0,0.0002866
1137.0,0.0007368
1138.0,0.0005054
1139.0,0.0008053
1140.0,0.0006483
1141.0,0.0004747
1142.0,0.0005535
1143.0,0.0008163
1144.0,0.0002577
1145.0,0.0003264
1146.0,0.0003514
1147.0,0.0001159
1148.0,0.0006852
1149.0,0.0005291
1150.0,0.0002743
1151.0,0.0004793
1152.0,0.0006051
1153.0,0.0005959
1154.0,0.000307
1155.0,0.0007975
1156.0,0.0007028
1157.0,0.0008098
1158.0,0.0007971
1159.0,0.0008717
1160.0,0.0007273
1161.0,0.0009333
1162.0,0.0009301
1163.0,0.001341
1164.0,0.001111
1165.0,0.001021
1166.0,0.001024
1167.0,0.001129
1168.0,0.001135
1169.0,0.001168
1170.0,0.00129
1171.0,0.001249
1172.0,0.001281
1173.0,0.001274
1174.0,0.0008466
1175.0,0.001247
1176.0,0.001401
1177.0,0.001319
1178.0,0.0009336
1179.0,0.001399
1180.0,0.001204
1181.0,0.001244
1182.0,0.0007985
1183.0,0.001225
1184.0,0.001122
1185.0,0.001065
1186.0,0.001314
1187.0,0.00123
1188.0,0.0007946
1189.0,0.001133
1190.0,0.001268
1191.0,0.001172
1192.0,0.001281
1193.0,0.001211
1194.0,0.001253
1195.0,0.001162
1196.0,0.001104
1197.0,0.001253
1198.0,0.001127
1199.0,0.000915
1200.0,0.001171
1201.0,0.001111
1202.0,0.00111
1203.0,0.001096
1204.0,0.0009291
1205.0,0.001137
1206.0,0.001281
1207.0,0.001088
1208.0,0.00108
1209.0,0.0011
1210.0,0.001154
1211.0,0.00108
1212.0,0.001045
1213.0,0.001202
1214.0,0.001072
1215.0,0.001045
1216.0,0.001188
1217.0,0.001145
1218.0,0.00117
1219.0,0.001148
1220.0,0.001165
1221.0,0.001178
1222.0,0.001138
1223.0,0.001121
1224.0,0.001103
1225.0,0.001154
1226.0,0.001164
1227.0,0.001049
1228.0,0.001167
1229.0,0.001153
1230.0,0.001126
1231.0,0.001168
1232.0,0.001156
1233.0,0.001096
1234.0,0.001159
1235.0,0.001145
1236.0,0.001152
1237.0,0.001126
1238.0,0.001141
1239.0,0.001123
1240.0,0.001124
1241.0,0.001111
1242.0,0.001109
1243.0,0.001096
1244.0,0.001099
1245.0,0.001101
1246.0,0.001091
1247.0,0.001082
1248.0,0.001076
1249.0,0.001078
1250.0,0.001066
1251.0,0.001047
1252.0,0.001047
1253.0,0.001029
1254.0,0.001011
1255.0,0.001034
1256.0,0.0009909
1257.0,0.0009801
1258.0,0.001004
1259.0,0.0009481
1260.0,0.0009522
1261.0,0.0008767
1262.0,0.0008384
1263.0,0.000837
1264.0,0.0007503
1265.0,0.0008271
1266.0,0.0007814
1267.0,0.000801
1268.0,0.0007443
1269.0,0.0004054
1270.0,0.000788
1271.0,0.0008515
1272.0,0.0008535
1273.0,0.0008397
1274.0,0.0008425
1275.0,0.0008555
1276.0,0.0008648
1277.0,0.0008723
1278.0,0.0008939
1279.0,0.0008827
1280.0,0.0008691
1281.0,0.0008304
1282.0,0.0008036
1283.0,0.0008616
1284.0,0.0008782
1285.0,0.0008823
1286.0,0.0008948
1287.0,0.000872
1288.0,0.0008709
1289.0,0.000829
1290.0,0.0008583
1291.0,0.0008697
1292.0,0.0007934
1293.0,0.0008422
1294.0,0.0008325
1295.0,0.0008199
1296.0,0.0007678
1297.0,0.0007146
1298.0,0.0007862
1299.0,0.0008294
1300.0,0.0006664
1301.0,0.0006907
1302.0,0.0007753
1303.0,0.0006536
1304.0,0.0005309
1305.0,0.0007494
1306.0,0.0007449
1307.0,0.0005438
1308.0,0.0006472
1309.0,0.0007286
1310.0,0.0005262
1311.0,0.0006085
1312.0,0.0005884
1313.0,0.0005689
1314.0,0.0004957
1315.0,0.0004858
1316.0,0.0005866
1317.0,0.0005479
1318.0,0.0006064
1319.0,0.0004432
1320.0,0.0004297
1321.0,0.000513
1322.0,0.0005136
1323.0,0.0003632
1324.0,0.0004283
1325.0,0.0005591
1326.0,0.000463
1327.0,0.0004358
1328.0,0.0003655
1329.0,0.0002594
1330.0,0.0003476
1331.0,0.0001949
1332.0,0.0002028
1333.0,0.000288
1334.0,0.0002463
1335.0,0.0003479
1336.0,0.0002644
1337.0,0.0002305
1338.0,0.0002493
1339.0,0.0002485
1340.0,0.0002428
1341.0,0.0002304
1342.0,0.0002428
1343.0,0.0001544
1344.0,9.132e-05
1345.0,0.0001322
1346.0,6.265e-05
1347.0,6.327e-05
1348.0,4.01e-06
1349.0,1.441e-05
1350.0,1.495e-05
1351.0,3.602e-06
1352.0,9.686e-07
1353.0,4.929e-08
1354.0,1.694e-07
1355.0,1.364e-09
1356.0,2.387e-08
