interpolation:linear
wavelength,value
280.0,2.6839999999999997e-22
280.5,8.833e-21
281.0,4.7360000000000006e-20
281.5,3.998e-19
282.0,6.541e-19
282.5,1.623e-18
283.0,5.134e-18
283.5,8.36e-18
284.0,1.378e-16
284.5,4.02e-16
285.0,6.608e-16
285.5,3.302e-15
286.0,1.332e-14
286.5,6.003e-14
287.0,1.723e-13
287.5,6.648e-13
288.0,2.308e-12
288.5,6.942e-12
289.0,1.842e-11
289.5,5.548e-11
290.0,1.538e-10
290.5,3.134e-10
291.0,6.724e-10
291.5,1.93e-09
292.0,3.887e-09
292.5,5.464e-09
293.0,1.175e-08
293.5,2.867e-08
294.0,4.491e-08
294.5,6.156e-08
295.0,1.045e-07
295.5,1.751e-07
296.0,3.407e-07
296.5,4.81e-07
297.0,6.563e-07
297.5,1.787e-06
298.0,2.856e-06
298.5,2.907e-06
299.0,6.489e-06
299.5,1.105e-05
300.0,1.233e-05
300.5,1.814e-05
301.0,3.377e-05
301.5,5.527e-05
302.0,4.792e-05
302.5,9.589e-05
303.0,0.0001782
303.5,0.0002309
304.0,0.0002242
304.5,0.0003665
305.0,0.0006351
305.5,0.0007933
306.0,0.0007938
306.5,0.001047
307.0,0.001772
307.5,0.002686
308.0,0.002895
308.5,0.003652
309.0,0.003714
309.5,0.004671
310.0,0.004896
310.5,0.00809
311.0,0.01051
311.5,0.01028
312.0,0.0111
312.5,0.0142
313.0,0.0158
313.5,0.01492
314.0,0.01983
314.5,0.01909
315.0,0.02542
315.5,0.02036
316.0,0.01901
316.5,0.02892
317.0,0.03578
317.5,0.03652
318.0,0.02962
318.5,0.03975
319.0,0.04901
319.5,0.03734
320.0,0.04457
320.5,0.06043
321.0,0.0579
321.5,0.0558
322.0,0.05473
322.5,0.04769
323.0,0.04995
323.5,0.06425
324.0,0.07543
324.5,0.07487
325.0,0.06286
325.5,0.08423
326.0,0.1037
326.5,0.1065
327.0,0.1048
327.5,0.09973
328.0,0.08558
328.5,0.09361
329.0,0.1159
329.5,0.1328
330.0,0.1324
330.5,0.1028
331.0,0.1035
331.5,0.1071
332.0,0.1191
332.5,0.1192
333.0,0.1176
333.5,0.1038
334.0,0.1057
334.5,0.1249
335.0,0.1189
335.5,0.1398
336.0,0.09656
336.5,0.1109
337.0,0.08972
337.5,0.1109
338.0,0.1104
338.5,0.1285
339.0,0.1268
339.5,0.1218
340.0,0.1415
340.5,0.1275
341.0,0.1249
341.5,0.1143
342.0,0.1363
342.5,0.1272
343.0,0.1396
343.5,0.1312
344.0,0.09619
344.5,0.09759
345.0,0.1286
345.5,0.131
346.0,0.111
346.5,0.1254
347.0,0.1343
347.5,0.1084
348.0,0.1232
348.5,0.1229
349.0,0.1138
349.5,0.1123
350.0,0.1386
350.5,0.1458
351.0,0.1299
351.5,0.126
352.0,0.1349
352.5,0.105
353.0,0.132
353.5,0.1408
354.0,0.1459
354.5,0.1475
355.0,0.1466
355.5,0.1322
356.0,0.1379
356.5,0.1175
357.0,0.09681
357.5,0.1182
358.0,0.09346
358.5,0.07966
359.0,0.1111
359.5,0.1412
360.0,0.1493
360.5,0.119
361.0,0.1082
361.5,0.1243
362.0,0.1072
362.5,0.148
363.0,0.1326
363.5,0.1218
364.0,0.1486
364.5,0.1267
365.0,0.1287
365.5,0.1611
366.0,0.1702
366.5,0.1595
367.0,0.155
367.5,0.1604
368.0,0.14
368.5,0.1408
369.0,0.1517
369.5,0.1613
370.0,0.1715
370.5,0.1327
371.0,0.1414
371.5,0.1765
372.0,0.1168
372.5,0.1397
373.0,0.1417
373.5,0.09194
374.0,0.1332
374.5,0.11
375.0,0.1067
375.5,0.1588
376.0,0.1313
376.5,0.1357
377.0,0.1433
377.5,0.1671
378.0,0.1807
378.5,0.1703
379.0,0.1401
379.5,0.1276
380.0,0.1323
380.5,0.1597
381.0,0.1596
381.5,0.1261
382.0,0.1117
382.5,0.09494
383.0,0.08764
383.5,0.08417
384.0,0.09258
384.5,0.1358
385.0,0.1343
385.5,0.1247
386.0,0.1065
386.5,0.1395
387.0,0.1155
387.5,0.1294
388.0,0.1191
388.5,0.1174
389.0,0.1264
389.5,0.1526
390.0,0.1527
390.5,0.1401
391.0,0.1644
391.5,0.1672
392.0,0.1404
392.5,0.1253
393.0,0.06952
393.5,0.05039
394.0,0.1022
394.5,0.1296
395.0,0.1577
395.5,0.1597
396.0,0.138
396.5,0.08046
397.0,0.0602
397.5,0.1221
398.0,0.1704
398.5,0.1756
399.0,0.1896
399.5,0.1884
400.0,0.1951
401.0,0.1918
402.0,0.201
403.0,0.1898
404.0,0.1857
405.0,0.1846
406.0,0.1804
407.0,0.1764
408.0,0.1821
409.0,0.1937
410.0,0.1682
411.0,0.1811
412.0,0.1933
413.0,0.1873
414.0,0.1885
415.0,0.1877
416.0,0.1898
417.0,0.1839
418.0,0.1793
419.0,0.1805
420.0,0.1785
421.0,0.1855
422.0,0.1751
423.0,0.1699
424.0,0.1784
425.0,0.1769
426.0,0.1712
427.0,0.167
428.0,0.1616
429.0,0.1522
430.0,0.1323
431.0,0.1302
432.0,0.167
433.0,0.1667
434.0,0.1538
435.0,0.1596
436.0,0.1787
437.0,0.1752
438.0,0.1584
439.0,0.1626
440.0,0.1666
441.0,0.1714
442.0,0.1825
443.0,0.1765
444.0,0.1792
445.0,0.1743
446.0,0.1654
447.0,0.1776
448.0,0.1791
449.0,0.1785
450.0,0.1821
451.0,0.1875
452.0,0.1795
453.0,0.1678
454.0,0.174
455.0,0.1738
456.0,0.1766
457.0,0.1781
458.0,0.1706
459.0,0.1683
460.0,0.1674
461.0,0.1699
462.0,0.1701
463.0,0.168
464.0,0.1644
465.0,0.1615
466.0,0.162
467.0,0.1579
468.0,0.1585
469.0,0.158
470.0,0.1519
471.0,0.1507
472.0,0.1578
473.0,0.1547
474.0,0.1538
475.0,0.1539
476.0,0.148
477.0,0.147
478.0,0.1497
479.0,0.1474
480.0,0.1464
481.0,0.1478
482.0,0.1474
483.0,0.1447
484.0,0.141
485.0,0.1336
486.0,0.1162
487.0,0.1211
488.0,0.1319
489.0,0.1313
490.0,0.137
491.0,0.1336
492.0,0.1253
493.0,0.1284
494.0,0.1288
495.0,0.129
496.0,0.1288
497.0,0.1296
498.0,0.1224
499.0,0.1228
500.0,0.118
501.0,0.1147
502.0,0.1118
503.0,0.1152
504.0,0.1111
505.0,0.1143
506.0,0.1172
507.0,0.1108
508.0,0.1067
509.0,0.1091
510.0,0.108
511.0,0.1102
512.0,0.1106
513.0,0.1038
514.0,0.1023
515.0,0.1005
516.0,0.09952
517.0,0.08777
518.0,0.0916
519.0,0.09535
520.0,0.09802
521.0,0.09813
522.0,0.09739
523.0,0.09489
524.0,0.0974
525.0,0.09762
526.0,0.09241
527.0,0.08622
528.0,0.0903
529.0,0.09435
530.0,0.09222
531.0,0.0928
532.0,0.08891
533.0,0.08569
534.0,0.08763
535.0,0.089
536.0,0.08926
537.0,0.08519
538.0,0.0861
539.0,0.0848
540.0,0.08072
541.0,0.0806
542.0,0.08242
543.0,0.08092
544.0,0.08172
545.0,0.08093
546.0,0.08066
547.0,0.08005
548.0,0.07854
549.0,0.07825
550.0,0.07862
551.0,0.07712
552.0,0.07709
553.0,0.07516
554.0,0.0764
555.0,0.07597
556.0,0.07439
557.0,0.07148
558.0,0.07031
559.0,0.06838
560.0,0.06862
561.0,0.06889
562.0,0.06777
563.0,0.06901
564.0,0.06659
565.0,0.0655
566.0,0.06403
567.0,0.06471
568.0,0.06359
569.0,0.06152
570.0,0.06107
571.0,0.06027
572.0,0.06118
573.0,0.06142
574.0,0.06084
575.0,0.05934
576.0,0.05847
577.0,0.0588
578.0,0.05765
579.0,0.05764
580.0,0.05853
581.0,0.05859
582.0,0.05944
583.0,0.05934
584.0,0.05959
585.0,0.05784
586.0,0.0563
587.0,0.05714
588.0,0.0553
589.0,0.04844
590.0,0.05037
591.0,0.0531
592.0,0.05197
593.0,0.05245
594.0,0.05162
595.0,0.04986
596.0,0.05164
597.0,0.05065
598.0,0.05017
599.0,0.04985
600.0,0.04962
601.0,0.04893
602.0,0.04831
603.0,0.04885
604.0,0.0494
605.0,0.04892
606.0,0.04853
607.0,0.04884
608.0,0.04812
609.0,0.04803
610.0,0.04754
611.0,0.04763
612.0,0.04733
613.0,0.04656
614.0,0.04576
615.0,0.04659
616.0,0.0449
617.0,0.04464
618.0,0.04618
619.0,0.04553
620.0,0.04561
621.0,0.04544
622.0,0.04468
623.0,0.04378
624.0,0.04283
625.0,0.04256
626.0,0.04301
627.0,0.04325
628.0,0.03968
629.0,0.04166
630.0,0.0405
631.0,0.04141
632.0,0.04077
633.0,0.04193
634.0,0.04142
635.0,0.04191
636.0,0.04122
637.0,0.04175
638.0,0.04203
639.0,0.04141
640.0,0.04086
641.0,0.04068
642.0,0.04037
643.0,0.04077
644.0,0.0405
645.0,0.04037
646.0,0.03919
647.0,0.03842
648.0,0.03827
649.0,0.03735
650.0,0.03755
651.0,0.03903
652.0,0.03704
653.0,0.03818
654.0,0.03762
655.0,0.03595
656.0,0.03179
657.0,0.03252
658.0,0.03636
659.0,0.03649
660.0,0.03649
661.0,0.03659
662.0,0.03648
663.0,0.03563
664.0,0.03595
665.0,0.03586
666.0,0.03575
667.0,0.0356
668.0,0.03549
669.0,0.0359
670.0,0.03559
671.0,0.03545
672.0,0.03503
673.0,0.03544
674.0,0.03516
675.0,0.03469
676.0,0.03479
677.0,0.03432
678.0,0.03429
679.0,0.0336
680.0,0.03372
681.0,0.03335
682.0,0.03316
683.0,0.03294
684.0,0.03262
685.0,0.03275
686.0,0.0324
687.0,0.01977
688.0,0.02372
689.0,0.02372
690.0,0.02502
691.0,0.02655
692.0,0.02768
693.0,0.0273
694.0,0.02694
695.0,0.02817
696.0,0.02808
697.0,0.03003
698.0,0.02943
699.0,0.02838
700.0,0.0279
701.0,0.02745
702.0,0.0276
703.0,0.02753
704.0,0.0284
705.0,0.0283
706.0,0.0282
707.0,0.02811
708.0,0.02803
709.0,0.02801
710.0,0.02784
711.0,0.02773
712.0,0.02758
713.0,0.02714
714.0,0.0271
715.0,0.02603
716.0,0.02592
717.0,0.0217
718.0,0.01969
719.0,0.01782
720.0,0.0186
721.0,0.02083
722.0,0.02427
723.0,0.0222
724.0,0.0196
725.0,0.01915
726.0,0.02004
727.0,0.02033
728.0,0.01884
729.0,0.01966
730.0,0.02075
731.0,0.01968
732.0,0.0212
733.0,0.02259
734.0,0.02308
735.0,0.02246
736.0,0.02233
737.0,0.02231
738.0,0.02271
739.0,0.02215
740.0,0.02267
741.0,0.02236
742.0,0.0223
743.0,0.02276
744.0,0.02259
745.0,0.0225
746.0,0.02249
747.0,0.02244
748.0,0.02228
749.0,0.02192
750.0,0.02181
751.0,0.02151
752.0,0.02151
753.0,0.02153
754.0,0.02148
755.0,0.02126
756.0,0.02117
757.0,0.0211
758.0,0.02074
759.0,0.02013
760.0,0.002758
761.0,0.001442
762.0,0.008934
763.0,0.004196
764.0,0.006437
765.0,0.008799
766.0,0.01116
767.0,0.01459
768.0,0.01734
769.0,0.01777
770.0,0.01845
771.0,0.01859
772.0,0.01856
773.0,0.0186
774.0,0.01841
775.0,0.01818
776.0,0.01832
777.0,0.01798
778.0,0.01778
779.0,0.0177
780.0,0.01752
781.0,0.01746
782.0,0.0175
783.0,0.01713
784.0,0.01714
785.0,0.01694
786.0,0.01705
787.0,0.01662
788.0,0.01631
789.0,0.01622
790.0,0.01562
791.0,0.01578
792.0,0.0156
793.0,0.01527
794.0,0.01556
795.0,0.01573
796.0,0.01505
797.0,0.015
798.0,0.01549
799.0,0.0153
800.0,0.01493
801.0,0.01479
802.0,0.01468
803.0,0.01448
804.0,0.01445
805.0,0.01437
806.0,0.01476
807.0,0.0145
808.0,0.01445
809.0,0.01406
810.0,0.01384
811.0,0.01375
812.0,0.0132
813.0,0.01281
814.0,0.01096
815.0,0.01084
816.0,0.009948
817.0,0.01011
818.0,0.00965
819.0,0.01097
820.0,0.0102
821.0,0.01223
822.0,0.01177
823.0,0.007461
824.0,0.01123
825.0,0.01179
826.0,0.01119
827.0,0.01189
828.0,0.009731
829.0,0.01101
830.0,0.01079
831.0,0.01079
832.0,0.01036
833.0,0.01116
834.0,0.01063
835.0,0.01183
836.0,0.01114
837.0,0.01177
838.0,0.01129
839.0,0.0115
840.0,0.01171
841.0,0.01147
842.0,0.01148
843.0,0.01146
844.0,0.01123
845.0,0.01159
846.0,0.01149
847.0,0.01123
848.0,0.01109
849.0,0.01073
850.0,0.01023
851.0,0.01076
852.0,0.01063
853.0,0.0102
854.0,0.008757
855.0,0.0096
856.0,0.01044
857.0,0.01065
858.0,0.01052
859.0,0.0105
860.0,0.01048
861.0,0.01038
862.0,0.0105
863.0,0.01071
864.0,0.01014
865.0,0.01001
866.0,0.008967
867.0,0.009321
868.0,0.0101
869.0,0.009853
870.0,0.01009
871.0,0.009914
872.0,0.00984
873.0,0.009779
874.0,0.00962
875.0,0.009382
876.0,0.009437
877.0,0.009494
878.0,0.009553
879.0,0.009367
880.0,0.009127
881.0,0.008944
882.0,0.009098
883.0,0.009097
884.0,0.009012
885.0,0.009038
886.0,0.008547
887.0,0.008627
888.0,0.008702
889.0,0.00879
890.0,0.008645
891.0,0.008612
892.0,0.008293
893.0,0.00795
894.0,0.007548
895.0,0.006992
896.0,0.006483
897.0,0.005397
898.0,0.00595
899.0,0.004315
900.0,0.006119
901.0,0.004535
902.0,0.005476
903.0,0.005461
904.0,0.007184
905.0,0.00686
906.0,0.006343
907.0,0.00491
908.0,0.005027
909.0,0.005524
910.0,0.004717
911.0,0.005099
912.0,0.005341
913.0,0.004726
914.0,0.004682
915.0,0.005098
916.0,0.00421
917.0,0.005543
918.0,0.004292
919.0,0.005629
920.0,0.005732
921.0,0.005986
922.0,0.005206
923.0,0.005742
924.0,0.00529
925.0,0.005143
926.0,0.005185
927.0,0.005895
928.0,0.004013
929.0,0.003586
930.0,0.002696
931.0,0.002534
932.0,0.001736
933.0,0.001373
934.0,0.0007068
935.0,0.001407
936.0,0.0008383
937.0,0.0008452
938.0,0.00105
939.0,0.00237
940.0,0.002922
941.0,0.002108
942.0,0.002477
943.0,0.001543
944.0,0.001652
945.0,0.002146
946.0,0.00101
947.0,0.002128
948.0,0.00152
949.0,0.00294
950.0,0.0007083
951.0,0.002878
952.0,0.001421
953.0,0.001891
954.0,0.002393
955.0,0.00191
956.0,0.001872
957.0,0.001395
958.0,0.00276
959.0,0.002089
960.0,0.002357
961.0,0.002703
962.0,0.002533
963.0,0.002989
964.0,0.002693
965.0,0.002954
966.0,0.00294
967.0,0.002906
968.0,0.004181
969.0,0.004351
970.0,0.003922
971.0,0.00463
972.0,0.004366
973.0,0.00365
974.0,0.003428
975.0,0.003579
976.0,0.003326
977.0,0.003917
978.0,0.003647
979.0,0.003851
980.0,0.003565
981.0,0.00443
982.0,0.004167
983.0,0.003952
984.0,0.004574
985.0,0.004104
986.0,0.004656
987.0,0.004509
988.0,0.004483
989.0,0.00461
990.0,0.004422
991.0,0.004576
992.0,0.00459
993.0,0.004435
994.0,0.004561
995.0,0.004545
996.0,0.004501
997.0,0.004495
998.0,0.004455
999.0,0.004425
1000.0,0.004368
1001.0,0.004417
1002.0,0.00424
1003.0,0.004303
1004.0,0.004171
1005.0,0.004017
1006.0,0.00415
1007.0,0.004225
1008.0,0.00418
1009.0,0.004134
1010.0,0.004097
1011.0,0.004142
1012.0,0.004082
1013.0,0.004103
1014.0,0.00406
1015.0,0.004016
1016.0,0.003982
1017.0,0.003975
1018.0,0.003949
1019.0,0.003836
1020.0,0.003895
1021.0,0.003878
1022.0,0.003827
1023.0,0.003853
1024.0,0.003775
1025.0,0.003827
1026.0,0.003792
1027.0,0.00377
1028.0,0.003747
1029.0,0.003688
1030.0,0.003704
1031.0,0.003673
1032.0,0.00365
1033.0,0.003581
1034.0,0.003568
1035.0,0.003565
1036.0,0.003568
1037.0,0.003498
1038.0,0.0035
1039.0,0.003485
1040.0,0.003457
1041.0,0.003457
1042.0,0.003419
1043.0,0.003395
1044.0,0.003394
1045.0,0.003335
1046.0,0.003284
1047.0,0.003301
1048.0,0.003306
1049.0,0.003282
1050.0,0.003253
1051.0,0.003235
1052.0,0.003209
1053.0,0.003171
1054.0,0.003165
1055.0,0.003153
1056.0,0.003128
1057.0,0.003105
1058.0,0.003017
1059.0,0.003008
1060.0,0.002991
1061.0,0.002975
1062.0,0.002978
1063.0,0.002937
1064.0,0.002962
1065.0,0.002925
1066.0,0.00286
1067.0,0.002885
1068.0,0.002808
1069.0,0.002714
1070.0,0.002792
1071.0,0.002836
1072.0,0.002785
1073.0,0.002737
1074.0,0.00281
1075.0,0.002629
1076.0,0.002785
1077.0,0.002708
1078.0,0.00264
1079.0,0.002716
1080.0,0.002634
1081.0,0.00253
1082.0,0.002586
1083.0,0.002591
1084.0,0.002487
1085.0,0.002598
1086.0,0.002312
1087.0,0.002416
1088.0,0.002536
1089.0,0.002421
1090.0,0.002338
1091.0,0.002492
1092.0,0.002482
1093.0,0.002015
1094.0,0.002246
1095.0,0.002098
1096.0,0.001979
1097.0,0.002385
1098.0,0.001926
1099.0,0.002014
1100.0,0.00183
1101.0,0.001858
1102.0,0.00175
1103.0,0.001713
1104.0,0.001712
1105.0,0.001918
1106.0,0.001358
1107.0,0.001787
1108.0,0.001445
1109.0,0.001448
1110.0,0.001743
1111.0,0.001086
1112.0,0.001425
1113.0,0.0008272
1114.0,0.0009311
1115.0,0.0007551
1116.0,0.0005749
1117.0,0.0001903
1118.0,0.0006287
1119.0,0.0002886
1120.0,0.0003642
1121.0,0.0004941
1122.0,0.0001928
1123.0,0.0003245
1124.0,0.000271
1125.0,0.0003592
1126.0,0.0001145
1127.0,0.0004051
1128.0,0.0002286
1129.0,0.000243
1130.0,0.0001558
1131.0,0.0008187
1132.0,0.0006224
1133.0,0.0003693
1134.0,8.614e-05
1135.0,3.2e-05
1136.0,0.0002984
1137.0,0.0007806
1138.0,0.0005321
1139.0,0.0008521
1140.0,0.0006847
1141.0,0.0004993
1142.0,0.0005836
1143.0,0.0008652
1144.0,0.0002683
1145.0,0.0003411
1146.0,0.0003676
1147.0,0.0001189
1148.0,0.0007249
1149.0,0.0005575
1150.0,0.0002855
1151.0,0.0005044
1152.0,0.0006393
1153.0,0.0006285
1154.0,0.0003203
1155.0,0.0008447
1156.0,0.0007435
1157.0,0.0008556
1158.0,0.0008422
1159.0,0.0009228
1160.0,0.0007666
1161.0,0.0009852
1162.0,0.000982
1163.0,0.001415
1164.0,0.001172
1165.0,0.001078
1166.0,0.001079
1167.0,0.00119
1168.0,0.001197
1169.0,0.001233
1170.0,0.001359
1171.0,0.001315
1172.0,0.001347
1173.0,0.001342
1174.0,0.0008915
1175.0,0.001312
1176.0,0.001471
1177.0,0.001386
1178.0,0.0009812
1179.0,0.001469
1180.0,0.001266
1181.0,0.00131
1182.0,0.0008401
1183.0,0.001289
1184.0,0.001181
1185.0,0.001122
1186.0,0.001381
1187.0,0.001295
1188.0,0.000838
1189.0,0.001192
1190.0,0.001331
1191.0,0.001234
1192.0,0.001345
1193.0,0.001272
1194.0,0.001317
1195.0,0.001223
1196.0,0.001163
1197.0,0.001317
1198.0,0.001183
1199.0,0.0009639
1200.0,0.001231
1201.0,0.001169
1202.0,0.001166
1203.0,0.001154
1204.0,0.0009774
1205.0,0.001193
1206.0,0.001344
1207.0,0.001144
1208.0,0.001135
1209.0,0.001156
1210.0,0.001211
1211.0,0.001134
1212.0,0.001102
1213.0,0.001263
1214.0,0.001129
1215.0,0.0011
1216.0,0.001248
1217.0,0.001203
1218.0,0.001229
1219.0,0.001206
1220.0,0.001223
1221.0,0.001236
1222.0,0.001195
1223.0,0.001177
1224.0,0.00116
1225.0,0.001212
1226.0,0.001221
1227.0,0.001102
1228.0,0.001223
1229.0,0.00121
1230.0,0.001181
1231.0,0.001224
1232.0,0.001212
1233.0,0.001151
1234.0,0.001214
1235.0,0.0012
1236.0,0.001207
1237.0,0.00118
1238.0,0.001195
1239.0,0.001176
1240.0,0.001177
1241.0,0.001164
1242.0,0.001161
1243.0,0.001148
1244.0,0.001151
1245.0,0.001153
1246.0,0.001143
1247.0,0.001133
1248.0,0.001127
1249.0,0.001129
1250.0,0.001117
1251.0,0.001097
1252.0,0.001097
1253.0,0.001079
1254.0,0.001061
1255.0,0.001084
1256.0,0.00104
1257.0,0.001029
1258.0,0.001053
1259.0,0.000997
1260.0,0.001001
1261.0,0.0009248
1262.0,0.0008858
1263.0,0.0008844
1264.0,0.0007954
1265.0,0.000874
1266.0,0.0008273
1267.0,0.000847
1268.0,0.0007887
1269.0,0.0004314
1270.0,0.0008338
1271.0,0.000898
1272.0,0.0008999
1273.0,0.0008857
1274.0,0.0008882
1275.0,0.0009014
1276.0,0.0009106
1277.0,0.0009174
1278.0,0.0009391
1279.0,0.0009271
1280.0,0.0009129
1281.0,0.0008716
1282.0,0.0008425
1283.0,0.0009035
1284.0,0.0009211
1285.0,0.0009251
1286.0,0.0009377
1287.0,0.0009148
1288.0,0.0009132
1289.0,0.0008712
1290.0,0.0009
1291.0,0.0009115
1292.0,0.0008345
1293.0,0.0008833
1294.0,0.0008732
1295.0,0.0008615
1296.0,0.0008081
1297.0,0.0007527
1298.0,0.0008262
1299.0,0.0008696
1300.0,0.0007015
1301.0,0.000727
1302.0,0.0008144
1303.0,0.0006878
1304.0,0.0005603
1305.0,0.0007872
1306.0,0.0007833
1307.0,0.000573
1308.0,0.0006805
1309.0,0.0007672
1310.0,0.0005549
1311.0,0.0006403
1312.0,0.0006192
1313.0,0.0005998
1314.0,0.0005229
1315.0,0.000513
1316.0,0.0006178
1317.0,0.0005772
1318.0,0.0006382
1319.0,0.0004678
1320.0,0.0004529
1321.0,0.0005408
1322.0,0.0005423
1323.0,0.0003838
1324.0,0.0004517
1325.0,0.0005896
1326.0,0.0004884
1327.0,0.0004599
1328.0,0.0003857
1329.0,0.0002736
1330.0,0.0003674
1331.0,0.0002048
1332.0,0.0002133
1333.0,0.0003048
1334.0,0.0002588
1335.0,0.0003681
1336.0,0.0002792
1337.0,0.0002425
1338.0,0.0002629
1339.0,0.0002621
1340.0,0.0002556
1341.0,0.0002432
1342.0,0.0002563
1343.0,0.0001617
1344.0,9.483e-05
1345.0,0.0001382
1346.0,6.45e-05
1347.0,6.507e-05
1348.0,4.045e-06
1349.0,1.459e-05
1350.0,1.515e-05
1351.0,3.629e-06
1352.0,9.746e-07
1353.0,4.959e-08
1354.0,1.704e-07
1355.0,1.372e-09
1356.0,2.401e-08
1357.0,3.649e-08
1358.0,1.611e-09
