interpolation:linear
wavelength,value
280.0,3.636e-21
280.5,1.132e-19
281.0,5.962e-19
281.5,3.898e-19
282.0,1.131e-18
282.5,2.973e-18
283.0,9.603e-18
283.5,1.571e-17
284.0,2.544e-16
284.5,7.325e-16
285.0,1.633e-15
285.5,8.02e-15
286.0,3.215e-14
286.5,1.421e-13
287.0,4.022e-13
287.5,1.52e-12
288.0,3.96e-12
288.5,1.336e-11
289.0,3.837e-11
289.5,1.227e-10
290.0,3.525e-10
290.5,7.362e-10
291.0,1.616e-09
291.5,4.885e-09
292.0,1.065e-08
292.5,1.611e-08
293.0,3.797e-08
293.5,1.049e-07
294.0,1.791e-07
294.5,2.228e-07
295.0,4.07e-07
295.5,1.053e-06
296.0,2.059e-06
296.5,2.929e-06
297.0,4.03e-06
297.5,1.116e-05
298.0,1.82e-05
298.5,1.888e-05
299.0,4.309e-05
299.5,7.719e-05
300.0,8.929e-05
300.5,0.0001373
301.0,0.0002798
301.5,0.000511
302.0,0.000475
302.5,0.0009155
303.0,0.001616
303.5,0.002016
304.0,0.001893
304.5,0.002838
305.0,0.004342
305.5,0.004998
306.0,0.004836
306.5,0.006036
307.0,0.009045
307.5,0.01215
308.0,0.01281
308.5,0.01518
309.0,0.01532
309.5,0.01727
310.0,0.01722
310.5,0.02774
311.0,0.0346
311.5,0.03324
312.0,0.03298
312.5,0.03992
313.0,0.04311
313.5,0.04173
314.0,0.05193
314.5,0.04591
315.0,0.06013
315.5,0.05006
316.0,0.04363
316.5,0.06258
317.0,0.0774
317.5,0.08017
318.0,0.06244
318.5,0.07767
319.0,0.09216
319.5,0.07443
320.0,0.08953
320.5,0.1124
321.0,0.1005
321.5,0.09608
322.0,0.1011
322.5,0.08769
323.0,0.08749
323.5,0.1084
324.0,0.1262
324.5,0.1274
325.0,0.1086
325.5,0.1398
326.0,0.1716
326.5,0.1717
327.0,0.1703
327.5,0.1636
328.0,0.1448
328.5,0.1521
329.0,0.1823
329.5,0.2065
330.0,0.2073
330.5,0.1646
331.0,0.1669
331.5,0.1695
332.0,0.1832
332.5,0.181
333.0,0.1796
333.5,0.1613
334.0,0.1646
334.5,0.19
335.0,0.1784
335.5,0.211
336.0,0.1455
336.5,0.1667
337.0,0.1359
337.5,0.1683
338.0,0.1644
338.5,0.1917
339.0,0.1883
339.5,0.181
340.0,0.2093
340.5,0.188
341.0,0.1845
341.5,0.1677
342.0,0.1994
342.5,0.1856
343.0,0.2041
343.5,0.192
344.0,0.1404
344.5,0.1432
345.0,0.1871
345.5,0.1897
346.0,0.1604
346.5,0.1808
347.0,0.1938
347.5,0.1563
348.0,0.1769
348.5,0.1759
349.0,0.1625
349.5,0.1603
350.0,0.1975
350.5,0.2075
351.0,0.1849
351.5,0.1798
352.0,0.1919
352.5,0.1489
353.0,0.1866
353.5,0.1987
354.0,0.2054
354.5,0.2075
355.0,0.2061
355.5,0.1854
356.0,0.1932
356.5,0.1643
357.0,0.1353
357.5,0.1649
358.0,0.1302
358.5,0.1108
359.0,0.1544
359.5,0.1962
360.0,0.2071
360.5,0.1649
361.0,0.1497
361.5,0.1717
362.0,0.1479
362.5,0.2039
363.0,0.1824
363.5,0.1674
364.0,0.204
364.5,0.1737
365.0,0.1762
365.5,0.2203
366.0,0.2325
366.5,0.2176
367.0,0.2111
367.5,0.2183
368.0,0.1903
368.5,0.1913
369.0,0.2058
369.5,0.2185
370.0,0.232
370.5,0.1794
371.0,0.1909
371.5,0.238
372.0,0.1573
372.5,0.1879
373.0,0.1904
373.5,0.1234
374.0,0.1787
374.5,0.1474
375.0,0.1428
375.5,0.2123
376.0,0.1753
376.5,0.181
377.0,0.1909
377.5,0.2225
378.0,0.2402
378.5,0.2261
379.0,0.1859
379.5,0.1691
380.0,0.1751
380.5,0.2112
381.0,0.2108
381.5,0.1664
382.0,0.1472
382.5,0.125
383.0,0.1152
383.5,0.1106
384.0,0.1215
384.5,0.178
385.0,0.1758
385.5,0.1631
386.0,0.1392
386.5,0.1821
387.0,0.1507
387.5,0.1686
388.0,0.155
388.5,0.1526
389.0,0.1641
389.5,0.198
390.0,0.1979
390.5,0.1814
391.0,0.2127
391.5,0.2161
392.0,0.1812
392.5,0.1616
393.0,0.08958
393.5,0.06486
394.0,0.1315
394.5,0.1665
395.0,0.2024
395.5,0.2048
396.0,0.1769
396.5,0.103
397.0,0.07698
397.5,0.1559
398.0,0.2175
398.5,0.2239
399.0,0.2416
399.5,0.2399
400.0,0.2481
401.0,0.2437
402.0,0.255
403.0,0.2403
404.0,0.2348
405.0,0.2329
406.0,0.2273
407.0,0.2218
408.0,0.2286
409.0,0.2429
410.0,0.2106
411.0,0.2264
412.0,0.2413
413.0,0.2335
414.0,0.2345
415.0,0.2333
416.0,0.2355
417.0,0.2278
418.0,0.2218
419.0,0.223
420.0,0.2202
421.0,0.2285
422.0,0.2154
423.0,0.2087
424.0,0.2189
425.0,0.2167
426.0,0.2095
427.0,0.204
428.0,0.1973
429.0,0.1854
430.0,0.161
431.0,0.1583
432.0,0.2027
433.0,0.2022
434.0,0.1863
435.0,0.193
436.0,0.2159
437.0,0.2115
438.0,0.1911
439.0,0.1961
440.0,0.2008
441.0,0.2063
442.0,0.2195
443.0,0.2121
444.0,0.2151
445.0,0.2089
446.0,0.1979
447.0,0.2123
448.0,0.2138
449.0,0.2129
450.0,0.2171
451.0,0.2234
452.0,0.2135
453.0,0.1994
454.0,0.2066
455.0,0.2062
456.0,0.2094
457.0,0.2111
458.0,0.2022
459.0,0.1995
460.0,0.1984
461.0,0.2014
462.0,0.2014
463.0,0.1987
464.0,0.1942
465.0,0.1904
466.0,0.1908
467.0,0.1858
468.0,0.1864
469.0,0.1858
470.0,0.1785
471.0,0.177
472.0,0.1852
473.0,0.1814
474.0,0.1802
475.0,0.1803
476.0,0.1734
477.0,0.1724
478.0,0.1757
479.0,0.1731
480.0,0.172
481.0,0.1736
482.0,0.1731
483.0,0.1697
484.0,0.1651
485.0,0.1562
486.0,0.1356
487.0,0.1411
488.0,0.1536
489.0,0.1529
490.0,0.1596
491.0,0.1556
492.0,0.1459
493.0,0.1495
494.0,0.1499
495.0,0.15
496.0,0.1498
497.0,0.1509
498.0,0.1427
499.0,0.1433
500.0,0.1379
501.0,0.1341
502.0,0.1311
503.0,0.1352
504.0,0.1306
505.0,0.1343
506.0,0.1377
507.0,0.1301
508.0,0.1252
509.0,0.1279
510.0,0.1264
511.0,0.1289
512.0,0.1293
513.0,0.1215
514.0,0.1197
515.0,0.1177
516.0,0.1165
517.0,0.1028
518.0,0.1073
519.0,0.1117
520.0,0.1149
521.0,0.115
522.0,0.1143
523.0,0.1114
524.0,0.1145
525.0,0.1149
526.0,0.1089
527.0,0.1018
528.0,0.1068
529.0,0.1117
530.0,0.1093
531.0,0.1101
532.0,0.1055
533.0,0.1017
534.0,0.104
535.0,0.1056
536.0,0.1059
537.0,0.101
538.0,0.1021
539.0,0.1006
540.0,0.09577
541.0,0.0957
542.0,0.09793
543.0,0.0962
544.0,0.09724
545.0,0.09635
546.0,0.09609
547.0,0.09536
548.0,0.09357
549.0,0.09323
550.0,0.0937
551.0,0.09192
552.0,0.09191
553.0,0.08964
554.0,0.09115
555.0,0.0907
556.0,0.08887
557.0,0.08546
558.0,0.08415
559.0,0.08194
560.0,0.08232
561.0,0.08274
562.0,0.08151
563.0,0.0831
564.0,0.08027
565.0,0.07902
566.0,0.07729
567.0,0.07818
568.0,0.07691
569.0,0.0745
570.0,0.07399
571.0,0.07305
572.0,0.07424
573.0,0.07455
574.0,0.07387
575.0,0.07205
576.0,0.07095
577.0,0.0713
578.0,0.06984
579.0,0.06976
580.0,0.07073
581.0,0.07071
582.0,0.07165
583.0,0.07146
584.0,0.07172
585.0,0.06958
586.0,0.0677
587.0,0.0687
588.0,0.06656
589.0,0.05845
590.0,0.06078
591.0,0.06402
592.0,0.06274
593.0,0.06329
594.0,0.06238
595.0,0.06038
596.0,0.06248
597.0,0.06137
598.0,0.06081
599.0,0.06046
600.0,0.06019
601.0,0.05936
602.0,0.05861
603.0,0.05923
604.0,0.05986
605.0,0.05924
606.0,0.0587
607.0,0.059
608.0,0.05805
609.0,0.05786
610.0,0.05717
611.0,0.0572
612.0,0.05676
613.0,0.05577
614.0,0.05473
615.0,0.05566
616.0,0.05357
617.0,0.0532
618.0,0.05498
619.0,0.05415
620.0,0.05422
621.0,0.05398
622.0,0.05305
623.0,0.05195
624.0,0.05079
625.0,0.05043
626.0,0.05094
627.0,0.05122
628.0,0.04724
629.0,0.04935
630.0,0.04795
631.0,0.04888
632.0,0.04808
633.0,0.04937
634.0,0.0487
635.0,0.04922
636.0,0.04833
637.0,0.0489
638.0,0.04916
639.0,0.04838
640.0,0.04768
641.0,0.04742
642.0,0.047
643.0,0.04743
644.0,0.04707
645.0,0.04689
646.0,0.04551
647.0,0.04467
648.0,0.04445
649.0,0.04338
650.0,0.04348
651.0,0.04515
652.0,0.04291
653.0,0.04411
654.0,0.04342
655.0,0.04151
656.0,0.03666
657.0,0.03748
658.0,0.04185
659.0,0.04197
660.0,0.04193
661.0,0.04201
662.0,0.04189
663.0,0.04089
664.0,0.0412
665.0,0.04105
666.0,0.04089
667.0,0.04068
668.0,0.04052
669.0,0.04095
670.0,0.04057
671.0,0.04037
672.0,0.03988
673.0,0.04033
674.0,0.03998
675.0,0.03942
676.0,0.0395
677.0,0.03895
678.0,0.03889
679.0,0.03809
680.0,0.03822
681.0,0.03778
682.0,0.03755
683.0,0.0373
684.0,0.03692
685.0,0.03704
686.0,0.03665
687.0,0.02309
688.0,0.02743
689.0,0.02741
690.0,0.02878
691.0,0.03037
692.0,0.03151
693.0,0.03107
694.0,0.03062
695.0,0.03188
696.0,0.03176
697.0,0.03384
698.0,0.03315
699.0,0.03204
700.0,0.0315
701.0,0.03101
702.0,0.03114
703.0,0.03104
704.0,0.03196
705.0,0.03185
706.0,0.03171
707.0,0.03159
708.0,0.03151
709.0,0.03144
710.0,0.03126
711.0,0.03112
712.0,0.03094
713.0,0.03046
714.0,0.03041
715.0,0.02924
716.0,0.02911
717.0,0.02464
718.0,0.02233
719.0,0.02018
720.0,0.02112
721.0,0.02352
722.0,0.02728
723.0,0.025
724.0,0.02213
725.0,0.02165
726.0,0.02268
727.0,0.02291
728.0,0.0213
729.0,0.02215
730.0,0.02343
731.0,0.0222
732.0,0.02384
733.0,0.02532
734.0,0.02584
735.0,0.02516
736.0,0.02502
737.0,0.02499
738.0,0.02536
739.0,0.02473
740.0,0.02529
741.0,0.02493
742.0,0.02485
743.0,0.02535
744.0,0.02516
745.0,0.02505
746.0,0.02504
747.0,0.02498
748.0,0.0248
749.0,0.02439
750.0,0.02427
751.0,0.02392
752.0,0.02391
753.0,0.02392
754.0,0.02385
755.0,0.02361
756.0,0.0235
757.0,0.02343
758.0,0.02302
759.0,0.02239
760.0,0.003144
761.0,0.001605
762.0,0.01038
763.0,0.004849
764.0,0.007493
765.0,0.01022
766.0,0.01286
767.0,0.01657
768.0,0.01943
769.0,0.01983
770.0,0.02052
771.0,0.02064
772.0,0.02059
773.0,0.02063
774.0,0.02043
775.0,0.02018
776.0,0.02033
777.0,0.01996
778.0,0.01974
779.0,0.01965
780.0,0.01945
781.0,0.01938
782.0,0.01942
783.0,0.019
784.0,0.019
785.0,0.01878
786.0,0.0189
787.0,0.01845
788.0,0.01811
789.0,0.01801
790.0,0.01738
791.0,0.01751
792.0,0.01731
793.0,0.01694
794.0,0.01722
795.0,0.01741
796.0,0.01671
797.0,0.01667
798.0,0.01716
799.0,0.01695
800.0,0.01655
801.0,0.01641
802.0,0.01629
803.0,0.01608
804.0,0.01604
805.0,0.01593
806.0,0.01634
807.0,0.01606
808.0,0.016
809.0,0.0156
810.0,0.01537
811.0,0.0153
812.0,0.01473
813.0,0.01431
814.0,0.0123
815.0,0.01216
816.0,0.01115
817.0,0.01134
818.0,0.01084
819.0,0.01227
820.0,0.01142
821.0,0.01361
822.0,0.0131
823.0,0.008382
824.0,0.01254
825.0,0.0131
826.0,0.01246
827.0,0.01321
828.0,0.01088
829.0,0.01224
830.0,0.012
831.0,0.012
832.0,0.01153
833.0,0.0124
834.0,0.01183
835.0,0.01311
836.0,0.01239
837.0,0.01303
838.0,0.01254
839.0,0.01273
840.0,0.01296
841.0,0.0127
842.0,0.0127
843.0,0.01266
844.0,0.01241
845.0,0.0128
846.0,0.01269
847.0,0.0124
848.0,0.01226
849.0,0.01186
850.0,0.01131
851.0,0.0119
852.0,0.01177
853.0,0.01128
854.0,0.009691
855.0,0.01062
856.0,0.01155
857.0,0.01177
858.0,0.01163
859.0,0.0116
860.0,0.01157
861.0,0.01146
862.0,0.0116
863.0,0.01183
864.0,0.01119
865.0,0.01105
866.0,0.009893
867.0,0.01028
868.0,0.01114
869.0,0.01087
870.0,0.01113
871.0,0.01093
872.0,0.01085
873.0,0.01078
874.0,0.01061
875.0,0.01034
876.0,0.0104
877.0,0.01047
878.0,0.01053
879.0,0.01033
880.0,0.01006
881.0,0.009867
882.0,0.01004
883.0,0.01004
884.0,0.009943
885.0,0.009973
886.0,0.009446
887.0,0.009523
888.0,0.009613
889.0,0.0097
890.0,0.009553
891.0,0.00951
892.0,0.009176
893.0,0.00881
894.0,0.008398
895.0,0.007818
896.0,0.007243
897.0,0.006053
898.0,0.006669
899.0,0.00484
900.0,0.006835
901.0,0.005108
902.0,0.00613
903.0,0.006133
904.0,0.007995
905.0,0.007641
906.0,0.00707
907.0,0.005513
908.0,0.005635
909.0,0.006183
910.0,0.005309
911.0,0.005708
912.0,0.005988
913.0,0.005322
914.0,0.005261
915.0,0.005755
916.0,0.004726
917.0,0.00623
918.0,0.004831
919.0,0.006306
920.0,0.006378
921.0,0.006681
922.0,0.005832
923.0,0.006402
924.0,0.005945
925.0,0.005771
926.0,0.005833
927.0,0.006609
928.0,0.004557
929.0,0.004086
930.0,0.003075
931.0,0.002884
932.0,0.001975
933.0,0.001556
934.0,0.0007925
935.0,0.001591
936.0,0.0009383
937.0,0.0009466
938.0,0.001184
939.0,0.0027
940.0,0.003332
941.0,0.002408
942.0,0.002831
943.0,0.001748
944.0,0.001859
945.0,0.002445
946.0,0.001136
947.0,0.002431
948.0,0.001714
949.0,0.003375
950.0,0.0007914
951.0,0.003299
952.0,0.001612
953.0,0.002152
954.0,0.002727
955.0,0.002177
956.0,0.002098
957.0,0.001584
958.0,0.003111
959.0,0.002365
960.0,0.002684
961.0,0.003064
962.0,0.002866
963.0,0.003376
964.0,0.003037
965.0,0.003339
966.0,0.003326
967.0,0.00329
968.0,0.004662
969.0,0.00488
970.0,0.004395
971.0,0.005156
972.0,0.004867
973.0,0.004105
974.0,0.003852
975.0,0.00401
976.0,0.003751
977.0,0.004372
978.0,0.004091
979.0,0.004314
980.0,0.003991
981.0,0.004933
982.0,0.004655
983.0,0.004421
984.0,0.005073
985.0,0.004587
986.0,0.00515
987.0,0.005004
988.0,0.004974
989.0,0.005091
990.0,0.00491
991.0,0.005059
992.0,0.005072
993.0,0.004916
994.0,0.005037
995.0,0.005016
996.0,0.00497
997.0,0.004961
998.0,0.004918
999.0,0.004883
1000.0,0.004825
1001.0,0.004874
1002.0,0.004695
1003.0,0.00475
1004.0,0.004608
1005.0,0.004432
1006.0,0.004581
1007.0,0.004663
1008.0,0.004615
1009.0,0.004569
1010.0,0.004529
1011.0,0.004571
1012.0,0.004508
1013.0,0.004527
1014.0,0.004479
1015.0,0.004432
1016.0,0.004394
1017.0,0.004387
1018.0,0.004357
1019.0,0.004237
1020.0,0.004298
1021.0,0.004277
1022.0,0.004224
1023.0,0.004253
1024.0,0.004172
1025.0,0.004222
1026.0,0.004186
1027.0,0.00416
1028.0,0.004136
1029.0,0.004071
1030.0,0.004088
1031.0,0.004054
1032.0,0.004028
1033.0,0.003951
1034.0,0.003937
1035.0,0.003934
1036.0,0.003938
1037.0,0.003859
1038.0,0.003862
1039.0,0.003846
1040.0,0.003816
1041.0,0.003816
1042.0,0.003775
1043.0,0.003749
1044.0,0.003748
1045.0,0.003683
1046.0,0.003628
1047.0,0.003646
1048.0,0.003653
1049.0,0.003626
1050.0,0.003595
1051.0,0.003576
1052.0,0.003547
1053.0,0.003506
1054.0,0.0035
1055.0,0.003488
1056.0,0.003461
1057.0,0.003437
1058.0,0.00334
1059.0,0.00333
1060.0,0.003312
1061.0,0.003295
1062.0,0.003299
1063.0,0.003254
1064.0,0.003282
1065.0,0.003243
1066.0,0.003169
1067.0,0.003198
1068.0,0.003114
1069.0,0.003008
1070.0,0.003096
1071.0,0.00314
1072.0,0.003087
1073.0,0.003033
1074.0,0.003109
1075.0,0.00292
1076.0,0.003082
1077.0,0.003003
1078.0,0.002931
1079.0,0.003003
1080.0,0.00292
1081.0,0.002811
1082.0,0.002865
1083.0,0.002867
1084.0,0.002764
1085.0,0.002881
1086.0,0.002573
1087.0,0.002684
1088.0,0.002807
1089.0,0.002691
1090.0,0.002602
1091.0,0.002761
1092.0,0.002749
1093.0,0.002254
1094.0,0.00249
1095.0,0.002348
1096.0,0.002219
1097.0,0.002641
1098.0,0.002165
1099.0,0.002261
1100.0,0.002059
1101.0,0.002089
1102.0,0.001973
1103.0,0.001935
1104.0,0.001933
1105.0,0.002155
1106.0,0.00155
1107.0,0.002012
1108.0,0.00164
1109.0,0.00164
1110.0,0.001967
1111.0,0.001236
1112.0,0.001613
1113.0,0.000942
1114.0,0.001065
1115.0,0.0008584
1116.0,0.0006558
1117.0,0.0002115
1118.0,0.0007188
1119.0,0.0003244
1120.0,0.0004151
1121.0,0.0005689
1122.0,0.0002155
1123.0,0.0003676
1124.0,0.0003046
1125.0,0.0004084
1126.0,0.000126
1127.0,0.0004626
1128.0,0.0002577
1129.0,0.0002748
1130.0,0.0001728
1131.0,0.0009514
1132.0,0.0007174
1133.0,0.000423
1134.0,9.393e-05
1135.0,3.385e-05
1136.0,0.0003401
1137.0,0.0009112
1138.0,0.0006113
1139.0,0.0009751
1140.0,0.000786
1141.0,0.0005718
1142.0,0.0006697
1143.0,0.001
1144.0,0.0003013
1145.0,0.0003903
1146.0,0.0004222
1147.0,0.0001317
1148.0,0.0008337
1149.0,0.0006394
1150.0,0.0003202
1151.0,0.0005793
1152.0,0.0007359
1153.0,0.0007165
1154.0,0.000365
1155.0,0.0009695
1156.0,0.0008541
1157.0,0.0009766
1158.0,0.0009615
1159.0,0.001053
1160.0,0.0008718
1161.0,0.001117
1162.0,0.001114
1163.0,0.00159
1164.0,0.001321
1165.0,0.001225
1166.0,0.001216
1167.0,0.001339
1168.0,0.00135
1169.0,0.00139
1170.0,0.001526
1171.0,0.001475
1172.0,0.001504
1173.0,0.001506
1174.0,0.001008
1175.0,0.001465
1176.0,0.001631
1177.0,0.001546
1178.0,0.0011
1179.0,0.001629
1180.0,0.001415
1181.0,0.001465
1182.0,0.0009446
1183.0,0.00144
1184.0,0.001321
1185.0,0.00126
1186.0,0.001539
1187.0,0.001447
1188.0,0.0009475
1189.0,0.001331
1190.0,0.001481
1191.0,0.001384
1192.0,0.001495
1193.0,0.001417
1194.0,0.001465
1195.0,0.001369
1196.0,0.001304
1197.0,0.001463
1198.0,0.001316
1199.0,0.001084
1200.0,0.001372
1201.0,0.001309
1202.0,0.001299
1203.0,0.001291
1204.0,0.001095
1205.0,0.001326
1206.0,0.001489
1207.0,0.001278
1208.0,0.001264
1209.0,0.001286
1210.0,0.001345
1211.0,0.001264
1212.0,0.001238
1213.0,0.001405
1214.0,0.001266
1215.0,0.001234
1216.0,0.001386
1217.0,0.001339
1218.0,0.001366
1219.0,0.001342
1220.0,0.001359
1221.0,0.001372
1222.0,0.001326
1223.0,0.001308
1224.0,0.001293
1225.0,0.001345
1226.0,0.001353
1227.0,0.001229
1228.0,0.001354
1229.0,0.001341
1230.0,0.00131
1231.0,0.001352
1232.0,0.001339
1233.0,0.001279
1234.0,0.00134
1235.0,0.001326
1236.0,0.001332
1237.0,0.001306
1238.0,0.001319
1239.0,0.001298
1240.0,0.001299
1241.0,0.001286
1242.0,0.001281
1243.0,0.001267
1244.0,0.00127
1245.0,0.001272
1246.0,0.001261
1247.0,0.001251
1248.0,0.001245
1249.0,0.001246
1250.0,0.001234
1251.0,0.001213
1252.0,0.001211
1253.0,0.001194
1254.0,0.001176
1255.0,0.001197
1256.0,0.001154
1257.0,0.001143
1258.0,0.001165
1259.0,0.00111
1260.0,0.001114
1261.0,0.001037
1262.0,0.0009974
1263.0,0.0009961
1264.0,0.000904
1265.0,0.0009844
1266.0,0.0009368
1267.0,0.0009556
1268.0,0.0008951
1269.0,0.0005073
1270.0,0.0009424
1271.0,0.001007
1272.0,0.001008
1273.0,0.0009932
1274.0,0.0009947
1275.0,0.001008
1276.0,0.001017
1277.0,0.001022
1278.0,0.001043
1279.0,0.00103
1280.0,0.001014
1281.0,0.0009667
1282.0,0.0009319
1283.0,0.0009999
1284.0,0.00102
1285.0,0.001024
1286.0,0.001036
1287.0,0.001013
1288.0,0.001011
1289.0,0.0009692
1290.0,0.0009961
1291.0,0.001008
1292.0,0.0009309
1293.0,0.0009784
1294.0,0.0009675
1295.0,0.0009578
1296.0,0.000903
1297.0,0.0008437
1298.0,0.0009192
1299.0,0.0009624
1300.0,0.0007863
1301.0,0.0008136
1302.0,0.000906
1303.0,0.0007698
1304.0,0.0006347
1305.0,0.0008757
1306.0,0.000873
1307.0,0.0006454
1308.0,0.0007593
1309.0,0.0008573
1310.0,0.0006257
1311.0,0.0007164
1312.0,0.0006943
1313.0,0.0006748
1314.0,0.0005895
1315.0,0.0005811
1316.0,0.0006935
1317.0,0.0006481
1318.0,0.0007139
1319.0,0.0005305
1320.0,0.0005108
1321.0,0.0006092
1322.0,0.0006135
1323.0,0.0004378
1324.0,0.0005112
1325.0,0.000663
1326.0,0.000552
1327.0,0.0005205
1328.0,0.000437
1329.0,0.0003125
1330.0,0.0004211
1331.0,0.0002346
1332.0,0.0002435
1333.0,0.0003526
1334.0,0.0002925
1335.0,0.0004208
1336.0,0.0003194
1337.0,0.0002764
1338.0,0.0003014
1339.0,0.0002999
1340.0,0.00029
1341.0,0.0002798
1342.0,0.0002949
1343.0,0.000187
1344.0,0.0001063
1345.0,0.0001584
1346.0,7.248e-05
1347.0,7.333e-05
1348.0,4.197e-06
1349.0,1.556e-05
1350.0,1.619e-05
1351.0,3.756e-06
1352.0,9.935e-07
1353.0,5.004e-08
1354.0,1.725e-07
1355.0,1.382e-09
1356.0,2.422e-08
1357.0,3.681e-08
1358.0,1.623e-09
1359.0,2.044e-10
1360.0,7.387e-10
1361.0,8.261e-13
1362.0,2.26e-15
1363.0,9.932e-10
1364.0,4.1e-10
1365.0,7.889e-16
