interpolation:linear
wavelength,value
280.0,5.141999999999999e-22
280.5,1.676e-20
281.0,8.956e-20
281.5,4.761e-19
282.0,7.873e-19
282.5,1.949e-18
283.0,6.144e-18
283.5,9.986e-18
284.0,1.631e-16
284.5,4.739e-16
285.0,8.291e-16
285.5,4.089e-15
286.0,1.643e-14
286.5,7.353e-14
287.0,2.101e-13
287.5,8.061e-13
288.0,2.67e-12
288.5,8.154e-12
289.0,2.183e-11
289.5,6.614e-11
290.0,1.839e-10
290.5,3.752e-10
291.0,8.059e-10
291.5,2.314e-09
292.0,5.026e-09
292.5,7.044e-09
293.0,1.509e-08
293.5,3.665e-08
294.0,5.724e-08
294.5,7.709e-08
295.0,1.304e-07
295.5,2.36e-07
296.0,4.63e-07
296.5,6.6e-07
297.0,9.085e-07
297.5,2.513e-06
298.0,4.083e-06
298.5,4.217e-06
299.0,9.571e-06
299.5,1.687e-05
300.0,1.928e-05
300.5,2.918e-05
301.0,5.732e-05
301.5,9.973e-05
302.0,8.971e-05
302.5,0.0001786
303.0,0.0003295
303.5,0.0004244
304.0,0.0004094
304.5,0.0006581
305.0,0.001112
305.5,0.001366
306.0,0.001357
306.5,0.001769
307.0,0.002917
307.5,0.004306
308.0,0.004619
308.5,0.005745
309.0,0.005941
309.5,0.007201
310.0,0.007423
310.5,0.01216
311.0,0.01559
311.5,0.01516
312.0,0.01591
312.5,0.01999
313.0,0.02203
313.5,0.02098
314.0,0.02728
314.5,0.02554
315.0,0.03382
315.5,0.02743
316.0,0.02504
316.5,0.03738
317.0,0.04626
317.5,0.04744
318.0,0.03798
318.5,0.04972
319.0,0.06056
319.5,0.04702
320.0,0.05627
320.5,0.07442
321.0,0.06973
321.5,0.06704
322.0,0.06727
322.5,0.05853
323.0,0.06035
323.5,0.07644
324.0,0.08948
324.5,0.08937
325.0,0.07561
325.5,0.1001
326.0,0.1226
326.5,0.1248
327.0,0.1232
327.5,0.1176
328.0,0.102
328.5,0.11
329.0,0.1347
329.5,0.1538
330.0,0.1537
330.5,0.1203
331.0,0.1214
331.5,0.1248
332.0,0.1375
332.5,0.1371
333.0,0.1354
333.5,0.1202
334.0,0.1225
334.5,0.1436
335.0,0.1362
335.5,0.1601
336.0,0.1105
336.5,0.1271
337.0,0.1031
337.5,0.1275
338.0,0.1262
338.5,0.1467
339.0,0.1445
339.5,0.1388
340.0,0.1613
340.5,0.1452
341.0,0.1421
341.5,0.1298
342.0,0.1546
342.5,0.1442
343.0,0.1583
343.5,0.1488
344.0,0.1092
344.5,0.1108
345.0,0.1457
345.5,0.1482
346.0,0.1255
346.5,0.1417
347.0,0.1518
347.5,0.1224
348.0,0.139
348.5,0.1385
349.0,0.1281
349.5,0.1265
350.0,0.156
350.5,0.1641
351.0,0.1462
351.5,0.1419
352.0,0.1518
352.5,0.118
353.0,0.1482
353.5,0.158
354.0,0.1635
354.5,0.1654
355.0,0.1643
355.5,0.148
356.0,0.1544
356.5,0.1315
357.0,0.1083
357.5,0.1322
358.0,0.1044
358.5,0.08899
359.0,0.1241
359.5,0.1577
360.0,0.1666
360.5,0.1328
361.0,0.1207
361.5,0.1386
362.0,0.1195
362.5,0.1649
363.0,0.1476
363.5,0.1356
364.0,0.1653
364.5,0.1409
365.0,0.143
365.5,0.179
366.0,0.1891
366.5,0.1771
367.0,0.172
367.5,0.1779
368.0,0.1552
368.5,0.1561
369.0,0.1681
369.5,0.1786
370.0,0.1899
370.5,0.1469
371.0,0.1565
371.5,0.1952
372.0,0.1292
372.5,0.1544
373.0,0.1566
373.5,0.1016
374.0,0.1471
374.5,0.1215
375.0,0.1177
375.5,0.1752
376.0,0.1448
376.5,0.1496
377.0,0.1579
377.5,0.1841
378.0,0.1989
378.5,0.1874
379.0,0.1541
379.5,0.1403
380.0,0.1454
380.5,0.1756
381.0,0.1753
381.5,0.1385
382.0,0.1226
382.5,0.1042
383.0,0.09615
383.5,0.09232
384.0,0.1015
384.5,0.1488
385.0,0.1471
385.5,0.1366
386.0,0.1166
386.5,0.1527
387.0,0.1264
387.5,0.1415
388.0,0.1303
388.5,0.1283
389.0,0.1381
389.5,0.1667
390.0,0.1667
390.5,0.1529
391.0,0.1794
391.5,0.1824
392.0,0.1531
392.5,0.1366
393.0,0.07578
393.5,0.05491
394.0,0.1114
394.5,0.1411
395.0,0.1717
395.5,0.1738
396.0,0.1502
396.5,0.08751
397.0,0.06546
397.5,0.1327
398.0,0.1852
398.5,0.1908
399.0,0.2059
399.5,0.2046
400.0,0.2117
401.0,0.2081
402.0,0.218
403.0,0.2057
404.0,0.2012
405.0,0.1998
406.0,0.1952
407.0,0.1907
408.0,0.1968
409.0,0.2092
410.0,0.1816
411.0,0.1954
412.0,0.2085
413.0,0.202
414.0,0.2031
415.0,0.2022
416.0,0.2043
417.0,0.1978
418.0,0.1928
419.0,0.194
420.0,0.1918
421.0,0.1992
422.0,0.188
423.0,0.1822
424.0,0.1913
425.0,0.1896
426.0,0.1834
427.0,0.1788
428.0,0.173
429.0,0.1628
430.0,0.1415
431.0,0.1392
432.0,0.1784
433.0,0.1781
434.0,0.1642
435.0,0.1703
436.0,0.1906
437.0,0.1868
438.0,0.1689
439.0,0.1734
440.0,0.1776
441.0,0.1826
442.0,0.1943
443.0,0.1879
444.0,0.1907
445.0,0.1854
446.0,0.1758
447.0,0.1888
448.0,0.1903
449.0,0.1895
450.0,0.1934
451.0,0.1991
452.0,0.1904
453.0,0.1779
454.0,0.1845
455.0,0.1842
456.0,0.1871
457.0,0.1887
458.0,0.1807
459.0,0.1783
460.0,0.1773
461.0,0.18
462.0,0.1802
463.0,0.1779
464.0,0.174
465.0,0.1708
466.0,0.1713
467.0,0.1669
468.0,0.1675
469.0,0.1669
470.0,0.1604
471.0,0.1592
472.0,0.1666
473.0,0.1633
474.0,0.1623
475.0,0.1623
476.0,0.1561
477.0,0.1552
478.0,0.158
479.0,0.1556
480.0,0.1546
481.0,0.156
482.0,0.1556
483.0,0.1527
484.0,0.1487
485.0,0.1408
486.0,0.1224
487.0,0.1274
488.0,0.1388
489.0,0.1381
490.0,0.1441
491.0,0.1406
492.0,0.1317
493.0,0.1351
494.0,0.1354
495.0,0.1356
496.0,0.1354
497.0,0.1363
498.0,0.1288
499.0,0.1292
500.0,0.1242
501.0,0.1207
502.0,0.1178
503.0,0.1214
504.0,0.1172
505.0,0.1205
506.0,0.1235
507.0,0.1168
508.0,0.1125
509.0,0.115
510.0,0.1137
511.0,0.116
512.0,0.1164
513.0,0.1093
514.0,0.1077
515.0,0.1058
516.0,0.1048
517.0,0.09243
518.0,0.09646
519.0,0.1004
520.0,0.1032
521.0,0.1034
522.0,0.1026
523.0,0.09999
524.0,0.1027
525.0,0.103
526.0,0.0975
527.0,0.091
528.0,0.09535
529.0,0.09966
530.0,0.09744
531.0,0.09809
532.0,0.09399
533.0,0.09059
534.0,0.09264
535.0,0.09407
536.0,0.09433
537.0,0.09002
538.0,0.09098
539.0,0.08961
540.0,0.08531
541.0,0.0852
542.0,0.08714
543.0,0.08557
544.0,0.08644
545.0,0.08561
546.0,0.08535
547.0,0.0847
548.0,0.0831
549.0,0.08279
550.0,0.0832
551.0,0.0816
552.0,0.08158
553.0,0.07955
554.0,0.08086
555.0,0.08043
556.0,0.07877
557.0,0.0757
558.0,0.07449
559.0,0.07246
560.0,0.07275
561.0,0.07306
562.0,0.0719
563.0,0.07324
564.0,0.0707
565.0,0.06955
566.0,0.06801
567.0,0.06875
568.0,0.06758
569.0,0.0654
570.0,0.06493
571.0,0.06409
572.0,0.06508
573.0,0.06533
574.0,0.06472
575.0,0.06313
576.0,0.06219
577.0,0.06252
578.0,0.06129
579.0,0.06126
580.0,0.06217
581.0,0.06221
582.0,0.06309
583.0,0.06296
584.0,0.06322
585.0,0.06135
586.0,0.05971
587.0,0.0606
588.0,0.05866
589.0,0.05142
590.0,0.05347
591.0,0.05636
592.0,0.05518
593.0,0.05568
594.0,0.05482
595.0,0.05299
596.0,0.05487
597.0,0.05383
598.0,0.05333
599.0,0.053
600.0,0.05276
601.0,0.05203
602.0,0.05137
603.0,0.05193
604.0,0.05251
605.0,0.05199
606.0,0.05156
607.0,0.05186
608.0,0.05108
609.0,0.05096
610.0,0.05041
611.0,0.05048
612.0,0.05014
613.0,0.04931
614.0,0.04844
615.0,0.0493
616.0,0.04749
617.0,0.0472
618.0,0.04881
619.0,0.04811
620.0,0.04819
621.0,0.048
622.0,0.04719
623.0,0.04622
624.0,0.04521
625.0,0.04492
626.0,0.04539
627.0,0.04564
628.0,0.04194
629.0,0.04396
630.0,0.04273
631.0,0.04365
632.0,0.04297
633.0,0.04416
634.0,0.04361
635.0,0.04411
636.0,0.04336
637.0,0.0439
638.0,0.04418
639.0,0.04351
640.0,0.04292
641.0,0.04272
642.0,0.04237
643.0,0.04278
644.0,0.04248
645.0,0.04234
646.0,0.0411
647.0,0.0403
648.0,0.04013
649.0,0.03917
650.0,0.03934
651.0,0.04088
652.0,0.03881
653.0,0.03998
654.0,0.03937
655.0,0.03763
656.0,0.03326
657.0,0.03402
658.0,0.03802
659.0,0.03815
660.0,0.03814
661.0,0.03823
662.0,0.03812
663.0,0.03722
664.0,0.03754
665.0,0.03744
666.0,0.03731
667.0,0.03714
668.0,0.03702
669.0,0.03743
670.0,0.0371
671.0,0.03695
672.0,0.0365
673.0,0.03693
674.0,0.03663
675.0,0.03613
676.0,0.03623
677.0,0.03573
678.0,0.03569
679.0,0.03497
680.0,0.03509
681.0,0.0347
682.0,0.0345
683.0,0.03427
684.0,0.03393
685.0,0.03406
686.0,0.0337
687.0,0.02073
688.0,0.02482
689.0,0.02482
690.0,0.02615
691.0,0.0277
692.0,0.02883
693.0,0.02844
694.0,0.02805
695.0,0.02929
696.0,0.02919
697.0,0.03119
698.0,0.03056
699.0,0.02949
700.0,0.02899
701.0,0.02853
702.0,0.02867
703.0,0.02859
704.0,0.02948
705.0,0.02938
706.0,0.02927
707.0,0.02917
708.0,0.02909
709.0,0.02906
710.0,0.02888
711.0,0.02876
712.0,0.0286
713.0,0.02815
714.0,0.02811
715.0,0.02701
716.0,0.02689
717.0,0.02258
718.0,0.02047
719.0,0.01852
720.0,0.01935
721.0,0.02164
722.0,0.02518
723.0,0.02304
724.0,0.02036
725.0,0.01989
726.0,0.02083
727.0,0.0211
728.0,0.01957
729.0,0.0204
730.0,0.02155
731.0,0.02043
732.0,0.022
733.0,0.02342
734.0,0.02392
735.0,0.02328
736.0,0.02315
737.0,0.02312
738.0,0.02352
739.0,0.02293
740.0,0.02346
741.0,0.02315
742.0,0.02308
743.0,0.02355
744.0,0.02337
745.0,0.02327
746.0,0.02327
747.0,0.02321
748.0,0.02305
749.0,0.02267
750.0,0.02256
751.0,0.02224
752.0,0.02224
753.0,0.02225
754.0,0.0222
755.0,0.02198
756.0,0.02188
757.0,0.02181
758.0,0.02144
759.0,0.02082
760.0,0.002846
761.0,0.001477
762.0,0.009335
763.0,0.004355
764.0,0.006714
765.0,0.009193
766.0,0.01165
767.0,0.01518
768.0,0.01797
769.0,0.01839
770.0,0.01908
771.0,0.01922
772.0,0.01918
773.0,0.01922
774.0,0.01902
775.0,0.01879
776.0,0.01893
777.0,0.01859
778.0,0.01837
779.0,0.01829
780.0,0.01811
781.0,0.01805
782.0,0.01808
783.0,0.01769
784.0,0.01771
785.0,0.0175
786.0,0.01761
787.0,0.01717
788.0,0.01685
789.0,0.01676
790.0,0.01615
791.0,0.0163
792.0,0.01612
793.0,0.01577
794.0,0.01606
795.0,0.01624
796.0,0.01555
797.0,0.0155
798.0,0.016
799.0,0.0158
800.0,0.01542
801.0,0.01528
802.0,0.01516
803.0,0.01497
804.0,0.01493
805.0,0.01484
806.0,0.01524
807.0,0.01497
808.0,0.01492
809.0,0.01453
810.0,0.01431
811.0,0.01421
812.0,0.01366
813.0,0.01326
814.0,0.01135
815.0,0.01123
816.0,0.0103
817.0,0.01048
818.0,0.01
819.0,0.01136
820.0,0.01056
821.0,0.01264
822.0,0.01217
823.0,0.007729
824.0,0.01162
825.0,0.01219
826.0,0.01157
827.0,0.01229
828.0,0.01007
829.0,0.01138
830.0,0.01115
831.0,0.01116
832.0,0.01071
833.0,0.01153
834.0,0.01099
835.0,0.01221
836.0,0.01152
837.0,0.01215
838.0,0.01167
839.0,0.01187
840.0,0.01209
841.0,0.01184
842.0,0.01185
843.0,0.01182
844.0,0.01159
845.0,0.01195
846.0,0.01185
847.0,0.01159
848.0,0.01145
849.0,0.01107
850.0,0.01056
851.0,0.0111
852.0,0.01098
853.0,0.01053
854.0,0.009039
855.0,0.009907
856.0,0.01078
857.0,0.01099
858.0,0.01086
859.0,0.01083
860.0,0.01081
861.0,0.0107
862.0,0.01083
863.0,0.01105
864.0,0.01046
865.0,0.01033
866.0,0.009247
867.0,0.009611
868.0,0.01042
869.0,0.01016
870.0,0.01041
871.0,0.01022
872.0,0.01014
873.0,0.01008
874.0,0.009918
875.0,0.009673
876.0,0.00973
877.0,0.009788
878.0,0.009849
879.0,0.009657
880.0,0.00941
881.0,0.009223
882.0,0.009383
883.0,0.009381
884.0,0.009293
885.0,0.00932
886.0,0.008818
887.0,0.008897
888.0,0.008977
889.0,0.009064
890.0,0.008919
891.0,0.008883
892.0,0.008559
893.0,0.008208
894.0,0.007802
895.0,0.007237
896.0,0.006707
897.0,0.005588
898.0,0.006161
899.0,0.004466
900.0,0.006331
901.0,0.0047
902.0,0.005669
903.0,0.005658
904.0,0.007426
905.0,0.007092
906.0,0.006559
907.0,0.005086
908.0,0.005204
909.0,0.005718
910.0,0.004888
911.0,0.005276
912.0,0.005531
913.0,0.004898
914.0,0.004849
915.0,0.005288
916.0,0.004359
917.0,0.005745
918.0,0.004448
919.0,0.005828
920.0,0.005923
921.0,0.006193
922.0,0.005389
923.0,0.005938
924.0,0.005482
925.0,0.005327
926.0,0.005375
927.0,0.006107
928.0,0.004168
929.0,0.003727
930.0,0.002801
931.0,0.002632
932.0,0.0018
933.0,0.001421
934.0,0.0007275
935.0,0.001457
936.0,0.0008641
937.0,0.0008711
938.0,0.001085
939.0,0.002462
940.0,0.003038
941.0,0.002191
942.0,0.002576
943.0,0.001599
944.0,0.00171
945.0,0.002229
946.0,0.001043
947.0,0.002211
948.0,0.001573
949.0,0.003061
950.0,0.0007291
951.0,0.002997
952.0,0.001472
953.0,0.001963
954.0,0.002487
955.0,0.001984
956.0,0.001935
957.0,0.001445
958.0,0.002861
959.0,0.002166
960.0,0.002448
961.0,0.002805
962.0,0.002627
963.0,0.0031
964.0,0.002791
965.0,0.003065
966.0,0.00305
967.0,0.003016
968.0,0.004323
969.0,0.004507
970.0,0.00406
971.0,0.004787
972.0,0.004515
973.0,0.003783
974.0,0.003551
975.0,0.003705
976.0,0.00345
977.0,0.004051
978.0,0.003777
979.0,0.003988
980.0,0.00369
981.0,0.00458
982.0,0.004311
983.0,0.00409
984.0,0.004724
985.0,0.004247
986.0,0.004804
987.0,0.004656
988.0,0.004629
989.0,0.004755
990.0,0.004567
991.0,0.004721
992.0,0.004735
993.0,0.004579
994.0,0.004704
995.0,0.004687
996.0,0.004642
997.0,0.004635
998.0,0.004594
999.0,0.004563
1000.0,0.004505
1001.0,0.004554
1002.0,0.004376
1003.0,0.004437
1004.0,0.004302
1005.0,0.004141
1006.0,0.004279
1007.0,0.004357
1008.0,0.00431
1009.0,0.004265
1010.0,0.004227
1011.0,0.004271
1012.0,0.00421
1013.0,0.00423
1014.0,0.004186
1015.0,0.004141
1016.0,0.004106
1017.0,0.004099
1018.0,0.004072
1019.0,0.003956
1020.0,0.004016
1021.0,0.003998
1022.0,0.003946
1023.0,0.003973
1024.0,0.003894
1025.0,0.003946
1026.0,0.00391
1027.0,0.003887
1028.0,0.003864
1029.0,0.003803
1030.0,0.003819
1031.0,0.003787
1032.0,0.003763
1033.0,0.003692
1034.0,0.003678
1035.0,0.003676
1036.0,0.003679
1037.0,0.003606
1038.0,0.003609
1039.0,0.003593
1040.0,0.003565
1041.0,0.003564
1042.0,0.003526
1043.0,0.003502
1044.0,0.0035
1045.0,0.003439
1046.0,0.003387
1047.0,0.003404
1048.0,0.00341
1049.0,0.003385
1050.0,0.003356
1051.0,0.003337
1052.0,0.003311
1053.0,0.003271
1054.0,0.003266
1055.0,0.003254
1056.0,0.003228
1057.0,0.003205
1058.0,0.003114
1059.0,0.003104
1060.0,0.003087
1061.0,0.003071
1062.0,0.003074
1063.0,0.003032
1064.0,0.003057
1065.0,0.00302
1066.0,0.002953
1067.0,0.002979
1068.0,0.0029
1069.0,0.002802
1070.0,0.002883
1071.0,0.002927
1072.0,0.002875
1073.0,0.002826
1074.0,0.0029
1075.0,0.002716
1076.0,0.002874
1077.0,0.002796
1078.0,0.002727
1079.0,0.002802
1080.0,0.002719
1081.0,0.002614
1082.0,0.00267
1083.0,0.002673
1084.0,0.002569
1085.0,0.002683
1086.0,0.002389
1087.0,0.002496
1088.0,0.002617
1089.0,0.002501
1090.0,0.002417
1091.0,0.002572
1092.0,0.002562
1093.0,0.002085
1094.0,0.002319
1095.0,0.002172
1096.0,0.002049
1097.0,0.002461
1098.0,0.001996
1099.0,0.002086
1100.0,0.001897
1101.0,0.001925
1102.0,0.001815
1103.0,0.001778
1104.0,0.001776
1105.0,0.001988
1106.0,0.001412
1107.0,0.001852
1108.0,0.0015
1109.0,0.001503
1110.0,0.001808
1111.0,0.001128
1112.0,0.001479
1113.0,0.0008587
1114.0,0.0009681
1115.0,0.0007837
1116.0,0.0005963
1117.0,0.0001953
1118.0,0.000653
1119.0,0.0002977
1120.0,0.000377
1121.0,0.0005134
1122.0,0.0001982
1123.0,0.0003354
1124.0,0.0002795
1125.0,0.0003718
1126.0,0.000117
1127.0,0.0004198
1128.0,0.0002355
1129.0,0.0002506
1130.0,0.0001597
1131.0,0.0008545
1132.0,0.0006478
1133.0,0.0003828
1134.0,8.786e-05
1135.0,3.244e-05
1136.0,0.0003085
1137.0,0.0008154
1138.0,0.0005532
1139.0,0.0008867
1140.0,0.0007124
1141.0,0.0005185
1142.0,0.0006069
1143.0,0.0009023
1144.0,0.0002767
1145.0,0.0003535
1146.0,0.0003813
1147.0,0.0001217
1148.0,0.000755
1149.0,0.0005796
1150.0,0.0002944
1151.0,0.0005243
1152.0,0.0006656
1153.0,0.000653
1154.0,0.0003314
1155.0,0.0008797
1156.0,0.0007742
1157.0,0.0008895
1158.0,0.0008756
1159.0,0.00096
1160.0,0.0007958
1161.0,0.001023
1162.0,0.00102
1163.0,0.001466
1164.0,0.001215
1165.0,0.00112
1166.0,0.001119
1167.0,0.001233
1168.0,0.001241
1169.0,0.001278
1170.0,0.001408
1171.0,0.001362
1172.0,0.001393
1173.0,0.00139
1174.0,0.0009242
1175.0,0.001357
1176.0,0.001518
1177.0,0.001433
1178.0,0.001015
1179.0,0.001516
1180.0,0.00131
1181.0,0.001355
1182.0,0.00087
1183.0,0.001334
1184.0,0.001222
1185.0,0.001162
1186.0,0.001428
1187.0,0.001339
1188.0,0.0008693
1189.0,0.001233
1190.0,0.001376
1191.0,0.001278
1192.0,0.00139
1193.0,0.001315
1194.0,0.001361
1195.0,0.001266
1196.0,0.001204
1197.0,0.00136
1198.0,0.001222
1199.0,0.0009986
1200.0,0.001273
1201.0,0.00121
1202.0,0.001205
1203.0,0.001195
1204.0,0.001011
1205.0,0.001233
1206.0,0.001387
1207.0,0.001183
1208.0,0.001173
1209.0,0.001194
1210.0,0.001251
1211.0,0.001172
1212.0,0.001142
1213.0,0.001305
1214.0,0.00117
1215.0,0.00114
1216.0,0.001289
1217.0,0.001243
1218.0,0.00127
1219.0,0.001247
1220.0,0.001264
1221.0,0.001277
1222.0,0.001234
1223.0,0.001216
1224.0,0.001199
1225.0,0.001252
1226.0,0.001261
1227.0,0.00114
1228.0,0.001262
1229.0,0.001249
1230.0,0.00122
1231.0,0.001262
1232.0,0.00125
1233.0,0.001189
1234.0,0.001252
1235.0,0.001238
1236.0,0.001244
1237.0,0.001217
1238.0,0.001232
1239.0,0.001212
1240.0,0.001214
1241.0,0.001201
1242.0,0.001197
1243.0,0.001183
1244.0,0.001187
1245.0,0.001189
1246.0,0.001178
1247.0,0.001169
1248.0,0.001162
1249.0,0.001164
1250.0,0.001152
1251.0,0.001132
1252.0,0.001131
1253.0,0.001113
1254.0,0.001095
1255.0,0.001118
1256.0,0.001074
1257.0,0.001063
1258.0,0.001086
1259.0,0.001031
1260.0,0.001035
1261.0,0.0009581
1262.0,0.0009188
1263.0,0.0009175
1264.0,0.0008272
1265.0,0.0009067
1266.0,0.0008596
1267.0,0.0008791
1268.0,0.0008199
1269.0,0.0004518
1270.0,0.0008659
1271.0,0.0009303
1272.0,0.0009321
1273.0,0.0009176
1274.0,0.0009199
1275.0,0.0009332
1276.0,0.0009422
1277.0,0.0009486
1278.0,0.0009702
1279.0,0.0009579
1280.0,0.0009431
1281.0,0.0009
1282.0,0.0008692
1283.0,0.0009323
1284.0,0.0009505
1285.0,0.0009546
1286.0,0.0009672
1287.0,0.0009442
1288.0,0.0009423
1289.0,0.0009003
1290.0,0.0009287
1291.0,0.0009403
1292.0,0.0008631
1293.0,0.0009116
1294.0,0.0009013
1295.0,0.0008902
1296.0,0.0008362
1297.0,0.0007795
1298.0,0.0008538
1299.0,0.0008973
1300.0,0.0007262
1301.0,0.0007524
1302.0,0.0008416
1303.0,0.0007119
1304.0,0.0005816
1305.0,0.0008134
1306.0,0.0008099
1307.0,0.0005939
1308.0,0.0007037
1309.0,0.000794
1310.0,0.0005754
1311.0,0.0006626
1312.0,0.000641
1313.0,0.0006217
1314.0,0.0005422
1315.0,0.0005325
1316.0,0.0006399
1317.0,0.0005979
1318.0,0.0006604
1319.0,0.0004857
1320.0,0.0004696
1321.0,0.0005607
1322.0,0.0005629
1323.0,0.0003989
1324.0,0.0004686
1325.0,0.0006111
1326.0,0.0005067
1327.0,0.0004772
1328.0,0.0004003
1329.0,0.0002844
1330.0,0.0003823
1331.0,0.0002126
1332.0,0.0002215
1333.0,0.0003177
1334.0,0.0002681
1335.0,0.0003829
1336.0,0.0002903
1337.0,0.0002517
1338.0,0.0002733
1339.0,0.0002725
1340.0,0.0002651
1341.0,0.000253
1342.0,0.0002667
1343.0,0.0001679
1344.0,9.771e-05
1345.0,0.0001433
1346.0,6.625e-05
1347.0,6.683e-05
1348.0,4.073e-06
1349.0,1.476e-05
1350.0,1.534e-05
1351.0,3.651e-06
1352.0,9.781e-07
1353.0,4.973e-08
1354.0,1.71e-07
1355.0,1.376e-09
1356.0,2.408e-08
1357.0,3.659e-08
1358.0,1.615e-09
1359.0,2.035e-10
1360.0,7.355e-10
