interpolation:linear
wavelength,value
280.0,1.0239999999999999e-22
280.5,3.41e-21
281.0,1.839e-20
281.5,4.723e-19
282.0,5.348e-19
282.5,1.298e-18
283.0,4.075e-18
283.5,6.634e-18
284.0,1.095e-16
284.5,3.207e-16
285.0,5.763e-16
285.5,2.778e-15
286.0,1.115e-14
286.5,4.988e-14
287.0,1.43e-13
287.5,5.519e-13
288.0,1.948e-12
288.5,5.678e-12
289.0,1.481e-11
289.5,4.413e-11
290.0,1.219e-10
290.5,2.48e-10
291.0,5.32e-10
291.5,1.528e-09
292.0,3.091e-09
292.5,4.316e-09
293.0,9.208e-09
293.5,2.226e-08
294.0,3.474e-08
294.5,4.583e-08
295.0,7.736e-08
295.5,1.304e-07
296.0,2.486e-07
296.5,3.431e-07
297.0,4.587e-07
297.5,1.207e-06
298.0,1.867e-06
298.5,1.848e-06
299.0,4.004e-06
299.5,6.432e-06
300.0,6.927e-06
300.5,9.802e-06
301.0,1.702e-05
301.5,2.601e-05
302.0,2.173e-05
302.5,4.229e-05
303.0,7.602e-05
303.5,9.658e-05
304.0,9.314e-05
304.5,0.0001494
305.0,0.0002517
305.5,0.0003088
306.0,0.0003069
306.5,0.0003999
307.0,0.0006577
307.5,0.0009679
308.0,0.001038
308.5,0.00129
309.0,0.001528
309.5,0.002045
310.0,0.002207
310.5,0.003701
311.0,0.004922
311.5,0.004868
312.0,0.005523
312.5,0.007304
313.0,0.008269
313.5,0.007696
314.0,0.01063
314.5,0.01077
315.0,0.01448
315.5,0.01133
316.0,0.01102
316.5,0.01737
317.0,0.02149
317.5,0.02174
318.0,0.01806
318.5,0.02536
319.0,0.03201
319.5,0.02353
320.0,0.02796
320.5,0.0397
321.0,0.03963
321.5,0.03838
322.0,0.03606
322.5,0.03152
323.0,0.03398
323.5,0.04568
324.0,0.05396
324.5,0.05285
325.0,0.04309
325.5,0.05912
326.0,0.07469
326.5,0.07806
327.0,0.0764
327.5,0.07215
328.0,0.06049
328.5,0.06813
329.0,0.08625
329.5,0.0995
330.0,0.09878
330.5,0.07548
331.0,0.07563
331.5,0.0793
332.0,0.08976
332.5,0.09063
333.0,0.08907
333.5,0.07764
334.0,0.07893
334.5,0.09471
335.0,0.09101
335.5,0.1073
336.0,0.07416
336.5,0.08468
337.0,0.06815
337.5,0.08408
338.0,0.08481
338.5,0.09921
339.0,0.09814
339.5,0.09419
340.0,0.109
340.5,0.09841
341.0,0.09688
341.5,0.089
342.0,0.1063
342.5,0.09934
343.0,0.1089
343.5,0.1023
344.0,0.07466
344.5,0.07598
345.0,0.1006
345.5,0.1026
346.0,0.08717
346.5,0.0986
347.0,0.1055
347.5,0.08511
348.0,0.09703
348.5,0.09694
349.0,0.08982
349.5,0.08875
350.0,0.1096
350.5,0.1154
351.0,0.1028
351.5,0.0995
352.0,0.1068
352.5,0.0833
353.0,0.1048
353.5,0.112
354.0,0.1161
354.5,0.1175
355.0,0.1168
355.5,0.1054
356.0,0.1101
356.5,0.09382
357.0,0.07737
357.5,0.09455
358.0,0.07481
358.5,0.06381
359.0,0.08905
359.5,0.1132
360.0,0.1198
360.5,0.09557
361.0,0.08699
361.5,0.1
362.0,0.08633
362.5,0.1193
363.0,0.1069
363.5,0.09828
364.0,0.12
364.5,0.1023
365.0,0.104
365.5,0.1303
366.0,0.1378
366.5,0.1292
367.0,0.1256
367.5,0.1301
368.0,0.1136
368.5,0.1144
369.0,0.1233
369.5,0.1311
370.0,0.1395
370.5,0.1081
371.0,0.1152
371.5,0.1439
372.0,0.09529
372.5,0.114
373.0,0.1157
373.5,0.07515
374.0,0.109
374.5,0.09006
375.0,0.08736
375.5,0.1302
376.0,0.1077
376.5,0.1113
377.0,0.1176
377.5,0.1373
378.0,0.1485
378.5,0.1401
379.0,0.1153
379.5,0.1051
380.0,0.109
380.5,0.1318
381.0,0.1317
381.5,0.1042
382.0,0.09232
382.5,0.07853
383.0,0.07253
383.5,0.06971
384.0,0.07673
384.5,0.1126
385.0,0.1114
385.5,0.1035
386.0,0.08846
386.5,0.1159
387.0,0.09611
387.5,0.1077
388.0,0.09921
388.5,0.09784
389.0,0.1054
389.5,0.1273
390.0,0.1275
390.5,0.117
391.0,0.1374
391.5,0.1398
392.0,0.1175
392.5,0.105
393.0,0.05826
393.5,0.04225
394.0,0.08577
394.5,0.1088
395.0,0.1324
395.5,0.1342
396.0,0.1161
396.5,0.0677
397.0,0.05069
397.5,0.1028
398.0,0.1436
398.5,0.1481
399.0,0.16
399.5,0.1591
400.0,0.1648
401.0,0.1621
402.0,0.1702
403.0,0.1608
404.0,0.1575
405.0,0.1567
406.0,0.1534
407.0,0.1501
408.0,0.1551
409.0,0.1651
410.0,0.1435
411.0,0.1547
412.0,0.1653
413.0,0.1604
414.0,0.1615
415.0,0.161
416.0,0.1629
417.0,0.158
418.0,0.1542
419.0,0.1554
420.0,0.1539
421.0,0.1601
422.0,0.1512
423.0,0.1468
424.0,0.1543
425.0,0.1531
426.0,0.1483
427.0,0.1448
428.0,0.1403
429.0,0.1322
430.0,0.1151
431.0,0.1134
432.0,0.1454
433.0,0.1454
434.0,0.1342
435.0,0.1394
436.0,0.1562
437.0,0.1532
438.0,0.1387
439.0,0.1424
440.0,0.146
441.0,0.1502
442.0,0.16
443.0,0.1549
444.0,0.1575
445.0,0.1533
446.0,0.1456
447.0,0.1565
448.0,0.1579
449.0,0.1574
450.0,0.1607
451.0,0.1656
452.0,0.1587
453.0,0.1484
454.0,0.154
455.0,0.1539
456.0,0.1565
457.0,0.1578
458.0,0.1512
459.0,0.1492
460.0,0.1484
461.0,0.1508
462.0,0.151
463.0,0.1493
464.0,0.1462
465.0,0.1438
466.0,0.1444
467.0,0.1408
468.0,0.1413
469.0,0.141
470.0,0.1355
471.0,0.1346
472.0,0.141
473.0,0.1383
474.0,0.1376
475.0,0.1377
476.0,0.1324
477.0,0.1315
478.0,0.134
479.0,0.1319
480.0,0.1309
481.0,0.1322
482.0,0.1319
483.0,0.1296
484.0,0.1263
485.0,0.1199
486.0,0.1043
487.0,0.1088
488.0,0.1186
489.0,0.1181
490.0,0.1233
491.0,0.1203
492.0,0.1128
493.0,0.1158
494.0,0.1162
495.0,0.1165
496.0,0.1163
497.0,0.1172
498.0,0.1107
499.0,0.1109
500.0,0.1065
501.0,0.1034
502.0,0.1008
503.0,0.1038
504.0,0.1001
505.0,0.1029
506.0,0.1055
507.0,0.09981
508.0,0.09624
509.0,0.09848
510.0,0.09747
511.0,0.09951
512.0,0.09989
513.0,0.09382
514.0,0.09245
515.0,0.09081
516.0,0.08989
517.0,0.07928
518.0,0.08273
519.0,0.08612
520.0,0.08853
521.0,0.08862
522.0,0.08791
523.0,0.08563
524.0,0.08785
525.0,0.08799
526.0,0.08324
527.0,0.07761
528.0,0.08123
529.0,0.08483
530.0,0.08287
531.0,0.08336
532.0,0.07984
533.0,0.07694
534.0,0.0787
535.0,0.07995
536.0,0.08021
537.0,0.07657
538.0,0.07741
539.0,0.07623
540.0,0.07255
541.0,0.07241
542.0,0.07403
543.0,0.07267
544.0,0.07336
545.0,0.07263
546.0,0.07238
547.0,0.07183
548.0,0.07047
549.0,0.07021
550.0,0.07054
551.0,0.06919
552.0,0.06917
553.0,0.06743
554.0,0.06852
555.0,0.06812
556.0,0.06669
557.0,0.06406
558.0,0.06298
559.0,0.06121
560.0,0.06139
561.0,0.0616
562.0,0.06056
563.0,0.06164
564.0,0.05945
565.0,0.05845
566.0,0.05713
567.0,0.05771
568.0,0.05669
569.0,0.0548
570.0,0.05439
571.0,0.05367
572.0,0.05446
573.0,0.05466
574.0,0.05414
575.0,0.05281
576.0,0.05205
577.0,0.05237
578.0,0.05137
579.0,0.0514
580.0,0.05223
581.0,0.05232
582.0,0.05312
583.0,0.05305
584.0,0.0533
585.0,0.05175
586.0,0.05039
587.0,0.05115
588.0,0.04948
589.0,0.0433
590.0,0.04502
591.0,0.04749
592.0,0.04645
593.0,0.04687
594.0,0.0461
595.0,0.0445
596.0,0.0461
597.0,0.04518
598.0,0.04474
599.0,0.04444
600.0,0.04423
601.0,0.04362
602.0,0.04307
603.0,0.04355
604.0,0.04406
605.0,0.04366
606.0,0.04333
607.0,0.04364
608.0,0.04304
609.0,0.04299
610.0,0.04258
611.0,0.0427
612.0,0.04246
613.0,0.04181
614.0,0.04112
615.0,0.0419
616.0,0.0404
617.0,0.0402
618.0,0.04161
619.0,0.04104
620.0,0.04114
621.0,0.04099
622.0,0.04033
623.0,0.03953
624.0,0.03869
625.0,0.03846
626.0,0.03887
627.0,0.0391
628.0,0.03579
629.0,0.03766
630.0,0.03662
631.0,0.0375
632.0,0.03695
633.0,0.03803
634.0,0.03759
635.0,0.03807
636.0,0.03746
637.0,0.03797
638.0,0.03825
639.0,0.03772
640.0,0.03725
641.0,0.03711
642.0,0.03684
643.0,0.03723
644.0,0.037
645.0,0.03689
646.0,0.03582
647.0,0.0351
648.0,0.03499
649.0,0.03416
650.0,0.03438
651.0,0.03576
652.0,0.03392
653.0,0.03502
654.0,0.03451
655.0,0.03297
656.0,0.02918
657.0,0.02987
658.0,0.03342
659.0,0.03355
660.0,0.03357
661.0,0.03367
662.0,0.03358
663.0,0.0328
664.0,0.03312
665.0,0.03306
666.0,0.03297
667.0,0.03285
668.0,0.03277
669.0,0.03316
670.0,0.03289
671.0,0.03277
672.0,0.03239
673.0,0.03279
674.0,0.03254
675.0,0.03212
676.0,0.03222
677.0,0.03179
678.0,0.03178
679.0,0.03115
680.0,0.03127
681.0,0.03093
682.0,0.03076
683.0,0.03057
684.0,0.03027
685.0,0.0304
686.0,0.03009
687.0,0.01815
688.0,0.02182
689.0,0.02183
690.0,0.02307
691.0,0.02452
692.0,0.02562
693.0,0.02528
694.0,0.02499
695.0,0.02617
696.0,0.02611
697.0,0.02795
698.0,0.0274
699.0,0.0264
700.0,0.02596
701.0,0.02552
702.0,0.02568
703.0,0.02563
704.0,0.02646
705.0,0.02637
706.0,0.02628
707.0,0.02621
708.0,0.02614
709.0,0.02614
710.0,0.02597
711.0,0.02587
712.0,0.02574
713.0,0.02532
714.0,0.0253
715.0,0.02429
716.0,0.02418
717.0,0.02017
718.0,0.01832
719.0,0.0166
720.0,0.01731
721.0,0.01941
722.0,0.02264
723.0,0.02071
724.0,0.01827
725.0,0.01785
726.0,0.01867
727.0,0.01897
728.0,0.01756
729.0,0.01835
730.0,0.01934
731.0,0.01835
732.0,0.0198
733.0,0.02111
734.0,0.02159
735.0,0.021
736.0,0.02088
737.0,0.02086
738.0,0.02127
739.0,0.02074
740.0,0.02124
741.0,0.02096
742.0,0.02091
743.0,0.02134
744.0,0.02118
745.0,0.0211
746.0,0.0211
747.0,0.02105
748.0,0.0209
749.0,0.02057
750.0,0.02047
751.0,0.02019
752.0,0.0202
753.0,0.02021
754.0,0.02017
755.0,0.01998
756.0,0.01989
757.0,0.01983
758.0,0.01949
759.0,0.0189
760.0,0.002639
761.0,0.001395
762.0,0.008303
763.0,0.003973
764.0,0.006025
765.0,0.00818
766.0,0.01036
767.0,0.01357
768.0,0.01622
769.0,0.01665
770.0,0.01733
771.0,0.01748
772.0,0.01746
773.0,0.01749
774.0,0.01731
775.0,0.0171
776.0,0.01722
777.0,0.0169
778.0,0.01671
779.0,0.01664
780.0,0.01647
781.0,0.01642
782.0,0.01645
783.0,0.01611
784.0,0.01612
785.0,0.01594
786.0,0.01604
787.0,0.01562
788.0,0.01533
789.0,0.01525
790.0,0.01468
791.0,0.01484
792.0,0.01468
793.0,0.01437
794.0,0.01466
795.0,0.01481
796.0,0.01415
797.0,0.0141
798.0,0.01459
799.0,0.0144
800.0,0.01405
801.0,0.01391
802.0,0.0138
803.0,0.01362
804.0,0.01359
805.0,0.01352
806.0,0.01391
807.0,0.01365
808.0,0.0136
809.0,0.01323
810.0,0.01302
811.0,0.01292
812.0,0.01238
813.0,0.01202
814.0,0.01027
815.0,0.01016
816.0,0.009333
817.0,0.009482
818.0,0.009045
819.0,0.01029
820.0,0.009565
821.0,0.01149
822.0,0.01106
823.0,0.007005
824.0,0.01055
825.0,0.0111
826.0,0.01053
827.0,0.01119
828.0,0.009138
829.0,0.01036
830.0,0.01016
831.0,0.01016
832.0,0.009744
833.0,0.0105
834.0,0.009994
835.0,0.01115
836.0,0.01048
837.0,0.01109
838.0,0.01063
839.0,0.01083
840.0,0.01104
841.0,0.0108
842.0,0.01082
843.0,0.01081
844.0,0.01059
845.0,0.01093
846.0,0.01084
847.0,0.0106
848.0,0.01046
849.0,0.01012
850.0,0.009647
851.0,0.01014
852.0,0.01002
853.0,0.009618
854.0,0.008253
855.0,0.009052
856.0,0.009845
857.0,0.01004
858.0,0.009925
859.0,0.009902
860.0,0.009886
861.0,0.009792
862.0,0.009915
863.0,0.01011
864.0,0.009574
865.0,0.009455
866.0,0.008468
867.0,0.008803
868.0,0.009541
869.0,0.009307
870.0,0.009534
871.0,0.009366
872.0,0.009296
873.0,0.009239
874.0,0.009089
875.0,0.008865
876.0,0.008916
877.0,0.00897
878.0,0.009025
879.0,0.008849
880.0,0.008623
881.0,0.008448
882.0,0.008592
883.0,0.008592
884.0,0.008511
885.0,0.008535
886.0,0.008066
887.0,0.008145
888.0,0.008214
889.0,0.0083
890.0,0.008159
891.0,0.008131
892.0,0.007822
893.0,0.007495
894.0,0.007103
895.0,0.006567
896.0,0.006094
897.0,0.005071
898.0,0.005586
899.0,0.004058
900.0,0.00575
901.0,0.004257
902.0,0.005142
903.0,0.005123
904.0,0.006759
905.0,0.006454
906.0,0.005966
907.0,0.004609
908.0,0.004725
909.0,0.005188
910.0,0.004428
911.0,0.004798
912.0,0.005016
913.0,0.004436
914.0,0.004399
915.0,0.004777
916.0,0.003958
917.0,0.005199
918.0,0.004031
919.0,0.005285
920.0,0.0054
921.0,0.005627
922.0,0.004891
923.0,0.0054
924.0,0.004961
925.0,0.004827
926.0,0.004859
927.0,0.005525
928.0,0.003757
929.0,0.003357
930.0,0.002529
931.0,0.002377
932.0,0.001636
933.0,0.0013
934.0,0.0006782
935.0,0.001331
936.0,0.0008002
937.0,0.000807
938.0,0.0009982
939.0,0.002223
940.0,0.002733
941.0,0.001978
942.0,0.002317
943.0,0.001455
944.0,0.001559
945.0,0.002014
946.0,0.0009591
947.0,0.001996
948.0,0.001436
949.0,0.002746
950.0,0.0006779
951.0,0.002687
952.0,0.001343
953.0,0.001779
954.0,0.002241
955.0,0.001795
956.0,0.001771
957.0,0.001318
958.0,0.002591
959.0,0.001964
960.0,0.002211
961.0,0.002535
962.0,0.002379
963.0,0.002805
964.0,0.00253
965.0,0.002769
966.0,0.002757
967.0,0.002724
968.0,0.003935
969.0,0.004081
970.0,0.003684
971.0,0.004357
972.0,0.004106
973.0,0.003424
974.0,0.003219
975.0,0.003362
976.0,0.003118
977.0,0.003687
978.0,0.003425
979.0,0.003617
980.0,0.003352
981.0,0.004169
982.0,0.003917
983.0,0.003715
984.0,0.004312
985.0,0.003856
986.0,0.004395
987.0,0.004252
988.0,0.004228
989.0,0.004355
990.0,0.004169
991.0,0.00432
992.0,0.004334
993.0,0.004184
994.0,0.004308
995.0,0.004294
996.0,0.004253
997.0,0.004247
998.0,0.004209
999.0,0.004181
1000.0,0.004126
1001.0,0.004174
1002.0,0.003999
1003.0,0.004066
1004.0,0.003939
1005.0,0.003796
1006.0,0.003921
1007.0,0.003993
1008.0,0.003949
1009.0,0.003905
1010.0,0.003869
1011.0,0.003914
1012.0,0.003857
1013.0,0.003878
1014.0,0.003837
1015.0,0.003796
1016.0,0.003763
1017.0,0.003756
1018.0,0.003733
1019.0,0.003623
1020.0,0.003682
1021.0,0.003666
1022.0,0.003617
1023.0,0.003641
1024.0,0.003565
1025.0,0.003617
1026.0,0.003584
1027.0,0.003563
1028.0,0.003541
1029.0,0.003485
1030.0,0.003501
1031.0,0.003472
1032.0,0.00345
1033.0,0.003385
1034.0,0.003372
1035.0,0.00337
1036.0,0.003373
1037.0,0.003306
1038.0,0.003308
1039.0,0.003293
1040.0,0.003267
1041.0,0.003266
1042.0,0.003231
1043.0,0.003208
1044.0,0.003207
1045.0,0.00315
1046.0,0.003102
1047.0,0.003118
1048.0,0.003123
1049.0,0.003099
1050.0,0.003072
1051.0,0.003055
1052.0,0.00303
1053.0,0.002994
1054.0,0.002988
1055.0,0.002976
1056.0,0.002953
1057.0,0.002931
1058.0,0.002847
1059.0,0.002837
1060.0,0.002822
1061.0,0.002806
1062.0,0.002808
1063.0,0.002769
1064.0,0.002793
1065.0,0.002757
1066.0,0.002697
1067.0,0.00272
1068.0,0.002647
1069.0,0.002559
1070.0,0.002633
1071.0,0.002676
1072.0,0.002626
1073.0,0.002581
1074.0,0.002652
1075.0,0.002478
1076.0,0.002629
1077.0,0.002554
1078.0,0.002488
1079.0,0.002564
1080.0,0.002484
1081.0,0.002383
1082.0,0.00244
1083.0,0.002446
1084.0,0.002343
1085.0,0.002451
1086.0,0.002178
1087.0,0.002277
1088.0,0.002393
1089.0,0.00228
1090.0,0.002203
1091.0,0.002351
1092.0,0.002342
1093.0,0.001895
1094.0,0.002118
1095.0,0.001971
1096.0,0.001858
1097.0,0.00225
1098.0,0.001807
1099.0,0.001889
1100.0,0.001717
1101.0,0.001744
1102.0,0.001641
1103.0,0.001605
1104.0,0.001604
1105.0,0.001799
1106.0,0.001271
1107.0,0.001675
1108.0,0.001353
1109.0,0.001356
1110.0,0.001631
1111.0,0.001017
1112.0,0.001334
1113.0,0.0007772
1114.0,0.0008724
1115.0,0.0007095
1116.0,0.0005422
1117.0,0.0001835
1118.0,0.0005914
1119.0,0.0002755
1120.0,0.0003462
1121.0,0.0004663
1122.0,0.0001856
1123.0,0.0003091
1124.0,0.0002589
1125.0,0.0003412
1126.0,0.0001112
1127.0,0.0003839
1128.0,0.0002194
1129.0,0.0002329
1130.0,0.0001505
1131.0,0.0007641
1132.0,0.0005841
1133.0,0.0003505
1134.0,8.391e-05
1135.0,3.136e-05
1136.0,0.0002845
1137.0,0.0007288
1138.0,0.0005005
1139.0,0.0007963
1140.0,0.0006414
1141.0,0.0004702
1142.0,0.0005479
1143.0,0.0008071
1144.0,0.0002558
1145.0,0.0003238
1146.0,0.0003485
1147.0,0.0001154
1148.0,0.0006777
1149.0,0.0005238
1150.0,0.0002722
1151.0,0.0004746
1152.0,0.0005987
1153.0,0.0005896
1154.0,0.0003047
1155.0,0.0007884
1156.0,0.000695
1157.0,0.0008009
1158.0,0.0007883
1159.0,0.0008617
1160.0,0.0007197
1161.0,0.0009231
1162.0,0.0009199
1163.0,0.001326
1164.0,0.001098
1165.0,0.00101
1166.0,0.001014
1167.0,0.001117
1168.0,0.001123
1169.0,0.001155
1170.0,0.001276
1171.0,0.001236
1172.0,0.001268
1173.0,0.00126
1174.0,0.0008378
1175.0,0.001234
1176.0,0.001387
1177.0,0.001305
1178.0,0.0009242
1179.0,0.001385
1180.0,0.001191
1181.0,0.001231
1182.0,0.0007902
1183.0,0.001212
1184.0,0.00111
1185.0,0.001054
1186.0,0.001301
1187.0,0.001217
1188.0,0.0007861
1189.0,0.001121
1190.0,0.001255
1191.0,0.001159
1192.0,0.001268
1193.0,0.001198
1194.0,0.001241
1195.0,0.00115
1196.0,0.001092
1197.0,0.001241
1198.0,0.001116
1199.0,0.0009052
1200.0,0.001159
1201.0,0.001099
1202.0,0.001099
1203.0,0.001084
1204.0,0.0009194
1205.0,0.001126
1206.0,0.001268
1207.0,0.001077
1208.0,0.001069
1209.0,0.001089
1210.0,0.001142
1211.0,0.001068
1212.0,0.001034
1213.0,0.00119
1214.0,0.00106
1215.0,0.001034
1216.0,0.001176
1217.0,0.001133
1218.0,0.001158
1219.0,0.001136
1220.0,0.001153
1221.0,0.001166
1222.0,0.001127
1223.0,0.001109
1224.0,0.001092
1225.0,0.001143
1226.0,0.001153
1227.0,0.001038
1228.0,0.001155
1229.0,0.001142
1230.0,0.001115
1231.0,0.001156
1232.0,0.001145
1233.0,0.001085
1234.0,0.001148
1235.0,0.001134
1236.0,0.001141
1237.0,0.001115
1238.0,0.00113
1239.0,0.001112
1240.0,0.001113
1241.0,0.0011
1242.0,0.001098
1243.0,0.001085
1244.0,0.001088
1245.0,0.00109
1246.0,0.00108
1247.0,0.001072
1248.0,0.001065
1249.0,0.001067
1250.0,0.001056
1251.0,0.001036
1252.0,0.001037
1253.0,0.001019
1254.0,0.001001
1255.0,0.001024
1256.0,0.0009808
1257.0,0.00097
1258.0,0.000994
1259.0,0.0009381
1260.0,0.0009422
1261.0,0.000867
1262.0,0.0008288
1263.0,0.0008274
1264.0,0.0007413
1265.0,0.0008177
1266.0,0.0007722
1267.0,0.0007918
1268.0,0.0007354
1269.0,0.0004007
1270.0,0.0007788
1271.0,0.0008421
1272.0,0.0008441
1273.0,0.0008304
1274.0,0.0008333
1275.0,0.0008462
1276.0,0.0008555
1277.0,0.0008631
1278.0,0.0008847
1279.0,0.0008736
1280.0,0.0008602
1281.0,0.0008219
1282.0,0.0007957
1283.0,0.000853
1284.0,0.0008694
1285.0,0.0008735
1286.0,0.000886
1287.0,0.0008632
1288.0,0.0008622
1289.0,0.0008204
1290.0,0.0008498
1291.0,0.0008611
1292.0,0.0007851
1293.0,0.0008338
1294.0,0.0008242
1295.0,0.0008115
1296.0,0.0007596
1297.0,0.0007069
1298.0,0.0007781
1299.0,0.0008211
1300.0,0.0006594
1301.0,0.0006833
1302.0,0.0007673
1303.0,0.0006467
1304.0,0.0005251
1305.0,0.0007417
1306.0,0.0007371
1307.0,0.000538
1308.0,0.0006405
1309.0,0.0007208
1310.0,0.0005205
1311.0,0.0006021
1312.0,0.0005822
1313.0,0.0005627
1314.0,0.0004903
1315.0,0.0004805
1316.0,0.0005803
1317.0,0.000542
1318.0,0.0005999
1319.0,0.0004384
1320.0,0.000425
1321.0,0.0005074
1322.0,0.0005078
1323.0,0.0003592
1324.0,0.0004237
1325.0,0.000553
1326.0,0.000458
1327.0,0.0004311
1328.0,0.0003616
1329.0,0.0002567
1330.0,0.0003437
1331.0,0.000193
1332.0,0.0002008
1333.0,0.0002848
1334.0,0.0002439
1335.0,0.0003439
1336.0,0.0002616
1337.0,0.0002283
1338.0,0.0002468
1339.0,0.0002459
1340.0,0.0002403
1341.0,0.000228
1342.0,0.0002402
1343.0,0.0001531
1344.0,9.068e-05
1345.0,0.0001311
1346.0,6.234e-05
1347.0,6.298e-05
1348.0,4.003e-06
1349.0,1.438e-05
1350.0,1.491e-05
1351.0,3.596e-06
1352.0,9.671e-07
1353.0,4.922e-08
