interpolation:linear
wavelength,value
280.0,4.423e-23
280.5,1.491e-21
281.0,8.084e-21
281.5,2.633e-19
282.0,4.887e-19
282.5,1.126e-18
283.0,3.463e-18
283.5,5.618e-18
284.0,9.182e-17
284.5,2.695e-16
285.0,7.614e-16
285.5,3.058e-15
286.0,1.188e-14
286.5,5.092e-14
287.0,1.434e-13
287.5,5.449e-13
288.0,1.694e-12
288.5,4.817e-12
289.0,1.241e-11
289.5,3.677e-11
290.0,1.015e-10
290.5,2.068e-10
291.0,4.447e-10
291.5,1.282e-09
292.0,2.629e-09
292.5,3.655e-09
293.0,7.755e-09
293.5,1.863e-08
294.0,2.903e-08
294.5,3.518e-08
295.0,5.912e-08
295.5,9.979e-08
296.0,1.866e-07
296.5,2.524e-07
297.0,3.316e-07
297.5,8.486e-07
298.0,1.28e-06
298.5,1.243e-06
299.0,2.64e-06
299.5,4.09e-06
300.0,4.315e-06
300.5,5.978e-06
301.0,1.003e-05
301.5,1.487e-05
302.0,1.223e-05
302.5,2.334e-05
303.0,4.033e-05
303.5,5.001e-05
304.0,4.758e-05
304.5,7.378e-05
305.0,0.0001191
305.5,0.0001425
306.0,0.0001403
306.5,0.0001801
307.0,0.0002873
307.5,0.0004116
308.0,0.0004399
308.5,0.0005399
309.0,0.0005789
309.5,0.0008121
310.0,0.0008965
310.5,0.001521
311.0,0.002063
311.5,0.002058
312.0,0.002436
312.5,0.003317
313.0,0.003815
313.5,0.003503
314.0,0.005016
314.5,0.005332
315.0,0.007232
315.5,0.00553
316.0,0.005598
316.5,0.009136
317.0,0.01131
317.5,0.01133
318.0,0.009642
318.5,0.01418
319.0,0.01832
319.5,0.01299
320.0,0.01535
320.5,0.02286
321.0,0.02383
321.5,0.02319
322.0,0.02082
322.5,0.01825
323.0,0.02029
323.5,0.02966
324.0,0.03532
324.5,0.03396
325.0,0.02592
325.5,0.03646
326.0,0.04926
326.5,0.0527
327.0,0.05118
327.5,0.04784
328.0,0.03885
328.5,0.04552
329.0,0.05929
329.5,0.069
330.0,0.06809
330.5,0.05096
331.0,0.05071
331.5,0.05407
332.0,0.06262
332.5,0.06389
333.0,0.06248
333.5,0.05361
334.0,0.05439
334.5,0.06652
335.0,0.06462
335.5,0.0768
336.0,0.05309
336.5,0.05993
337.0,0.0479
337.5,0.05897
338.0,0.0604
338.5,0.07138
339.0,0.07078
339.5,0.06789
340.0,0.07787
340.5,0.07047
341.0,0.07003
341.5,0.06457
342.0,0.07721
342.5,0.07229
343.0,0.07913
343.5,0.07427
344.0,0.05375
344.5,0.05511
345.0,0.07328
345.5,0.07495
346.0,0.06375
346.5,0.07221
347.0,0.07719
347.5,0.06228
348.0,0.07119
348.5,0.07125
349.0,0.06609
349.5,0.06534
350.0,0.08076
350.5,0.08508
351.0,0.07577
351.5,0.07321
352.0,0.07877
352.5,0.06155
353.0,0.07757
353.5,0.08294
354.0,0.08607
354.5,0.08719
355.0,0.08672
355.5,0.0783
356.0,0.08188
356.5,0.06984
357.0,0.05762
357.5,0.07048
358.0,0.05581
358.5,0.04765
359.0,0.06653
359.5,0.08455
360.0,0.08957
360.5,0.07155
361.0,0.06518
361.5,0.075
362.0,0.0648
362.5,0.08958
363.0,0.08036
363.5,0.07393
364.0,0.09031
364.5,0.07708
365.0,0.0784
365.5,0.09828
366.0,0.104
366.5,0.09762
367.0,0.09495
367.5,0.09841
368.0,0.086
368.5,0.08665
369.0,0.09346
369.5,0.0995
370.0,0.1059
370.5,0.08212
371.0,0.08763
371.5,0.1095
372.0,0.07257
372.5,0.0869
373.0,0.08828
373.5,0.05736
374.0,0.08323
374.5,0.06883
375.0,0.06682
375.5,0.09962
376.0,0.08247
376.5,0.08534
377.0,0.09023
377.5,0.1054
378.0,0.1141
378.5,0.1077
379.0,0.08873
379.5,0.08092
380.0,0.084
380.5,0.1016
381.0,0.1017
381.5,0.08046
382.0,0.07135
382.5,0.06073
383.0,0.05614
383.5,0.05399
384.0,0.05947
384.5,0.08733
385.0,0.08648
385.5,0.08041
386.0,0.06876
386.5,0.09018
387.0,0.07482
387.5,0.0839
388.0,0.07734
388.5,0.07632
389.0,0.08225
389.5,0.09946
390.0,0.09966
390.5,0.09156
391.0,0.1076
391.5,0.1096
392.0,0.09213
392.5,0.08235
393.0,0.04574
393.5,0.0332
394.0,0.06744
394.5,0.0856
395.0,0.1043
395.5,0.1057
396.0,0.09152
396.5,0.05341
397.0,0.04002
397.5,0.08125
398.0,0.1136
398.5,0.1172
399.0,0.1267
399.5,0.1261
400.0,0.1307
401.0,0.1286
402.0,0.1352
403.0,0.128
404.0,0.1255
405.0,0.125
406.0,0.1225
407.0,0.12
408.0,0.1242
409.0,0.1324
410.0,0.1152
411.0,0.1243
412.0,0.133
413.0,0.1292
414.0,0.1303
415.0,0.1301
416.0,0.1318
417.0,0.128
418.0,0.125
419.0,0.1262
420.0,0.1251
421.0,0.1303
422.0,0.1232
423.0,0.1197
424.0,0.126
425.0,0.1251
426.0,0.1214
427.0,0.1186
428.0,0.1151
429.0,0.1086
430.0,0.09462
431.0,0.0933
432.0,0.1198
433.0,0.1199
434.0,0.1108
435.0,0.1152
436.0,0.1292
437.0,0.1269
438.0,0.1149
439.0,0.1181
440.0,0.1212
441.0,0.1248
442.0,0.1331
443.0,0.1289
444.0,0.1312
445.0,0.1279
446.0,0.1216
447.0,0.1309
448.0,0.1321
449.0,0.1319
450.0,0.1347
451.0,0.139
452.0,0.1332
453.0,0.1248
454.0,0.1296
455.0,0.1296
456.0,0.1319
457.0,0.1331
458.0,0.1276
459.0,0.1259
460.0,0.1253
461.0,0.1273
462.0,0.1277
463.0,0.1263
464.0,0.1239
465.0,0.1219
466.0,0.1226
467.0,0.1196
468.0,0.1202
469.0,0.1199
470.0,0.1154
471.0,0.1147
472.0,0.1202
473.0,0.118
474.0,0.1175
475.0,0.1176
476.0,0.1131
477.0,0.1124
478.0,0.1145
479.0,0.1127
480.0,0.1119
481.0,0.113
482.0,0.1128
483.0,0.1109
484.0,0.1083
485.0,0.1029
486.0,0.08965
487.0,0.09356
488.0,0.102
489.0,0.1017
490.0,0.1062
491.0,0.1037
492.0,0.09728
493.0,0.09989
494.0,0.1003
495.0,0.1006
496.0,0.1005
497.0,0.1012
498.0,0.09561
499.0,0.09584
500.0,0.09209
501.0,0.08943
502.0,0.08717
503.0,0.08974
504.0,0.08654
505.0,0.08908
506.0,0.09143
507.0,0.0866
508.0,0.08362
509.0,0.0857
510.0,0.08495
511.0,0.08683
512.0,0.08726
513.0,0.08198
514.0,0.08078
515.0,0.07935
516.0,0.07855
517.0,0.06928
518.0,0.07231
519.0,0.07528
520.0,0.07739
521.0,0.07746
522.0,0.07683
523.0,0.07483
524.0,0.07672
525.0,0.0768
526.0,0.07262
527.0,0.06767
528.0,0.07079
529.0,0.07389
530.0,0.07216
531.0,0.07255
532.0,0.06948
533.0,0.06696
534.0,0.06851
535.0,0.06962
536.0,0.06988
537.0,0.06674
538.0,0.06749
539.0,0.06646
540.0,0.06325
541.0,0.06312
542.0,0.06451
543.0,0.06331
544.0,0.06389
545.0,0.06325
546.0,0.06303
547.0,0.06256
548.0,0.06138
549.0,0.06116
550.0,0.06145
551.0,0.06028
552.0,0.06026
553.0,0.05875
554.0,0.0597
555.0,0.05934
556.0,0.05808
557.0,0.05578
558.0,0.05482
559.0,0.05325
560.0,0.05338
561.0,0.05353
562.0,0.0526
563.0,0.05351
564.0,0.05159
565.0,0.05071
566.0,0.04955
567.0,0.05005
568.0,0.04914
569.0,0.04748
570.0,0.04712
571.0,0.04649
572.0,0.04716
573.0,0.04733
574.0,0.04688
575.0,0.04573
576.0,0.0451
577.0,0.0454
578.0,0.04456
579.0,0.04462
580.0,0.04537
581.0,0.04549
582.0,0.04622
583.0,0.04619
584.0,0.04642
585.0,0.04509
586.0,0.04392
587.0,0.0446
588.0,0.04313
589.0,0.03773
590.0,0.03923
591.0,0.04139
592.0,0.04046
593.0,0.04083
594.0,0.04014
595.0,0.03871
596.0,0.04011
597.0,0.03928
598.0,0.03889
599.0,0.03862
600.0,0.03843
601.0,0.0379
602.0,0.03742
603.0,0.03786
604.0,0.03832
605.0,0.03798
606.0,0.03773
607.0,0.03803
608.0,0.03754
609.0,0.03753
610.0,0.03721
611.0,0.03734
612.0,0.03717
613.0,0.03663
614.0,0.03606
615.0,0.03678
616.0,0.03549
617.0,0.03533
618.0,0.0366
619.0,0.03612
620.0,0.03622
621.0,0.03612
622.0,0.03555
623.0,0.03487
624.0,0.03414
625.0,0.03395
626.0,0.03433
627.0,0.03454
628.0,0.03156
629.0,0.03327
630.0,0.03237
631.0,0.03319
632.0,0.03273
633.0,0.03371
634.0,0.03335
635.0,0.0338
636.0,0.03329
637.0,0.03377
638.0,0.03405
639.0,0.03359
640.0,0.0332
641.0,0.0331
642.0,0.03289
643.0,0.03325
644.0,0.03307
645.0,0.03299
646.0,0.03203
647.0,0.03138
648.0,0.03131
649.0,0.03057
650.0,0.03082
651.0,0.03207
652.0,0.03042
653.0,0.03144
654.0,0.03099
655.0,0.02962
656.0,0.02623
657.0,0.02686
658.0,0.03008
659.0,0.03022
660.0,0.03025
661.0,0.03036
662.0,0.03029
663.0,0.0296
664.0,0.0299
665.0,0.02986
666.0,0.0298
667.0,0.02971
668.0,0.02965
669.0,0.03002
670.0,0.02979
671.0,0.0297
672.0,0.02936
673.0,0.02974
674.0,0.02952
675.0,0.02916
676.0,0.02926
677.0,0.02889
678.0,0.02888
679.0,0.02832
680.0,0.02844
681.0,0.02814
682.0,0.02799
683.0,0.02782
684.0,0.02756
685.0,0.02769
686.0,0.02741
687.0,0.01646
688.0,0.01975
689.0,0.01977
690.0,0.0209
691.0,0.02225
692.0,0.02328
693.0,0.02299
694.0,0.02277
695.0,0.02388
696.0,0.02384
697.0,0.02554
698.0,0.02505
699.0,0.02412
700.0,0.02373
701.0,0.02331
702.0,0.02347
703.0,0.02344
704.0,0.02422
705.0,0.02414
706.0,0.02407
707.0,0.024
708.0,0.02394
709.0,0.02396
710.0,0.0238
711.0,0.02372
712.0,0.0236
713.0,0.02321
714.0,0.0232
715.0,0.02227
716.0,0.02216
717.0,0.01845
718.0,0.01679
719.0,0.01523
720.0,0.01587
721.0,0.0178
722.0,0.02076
723.0,0.019
724.0,0.01677
725.0,0.01638
726.0,0.01713
727.0,0.01742
728.0,0.01613
729.0,0.01687
730.0,0.01775
731.0,0.01686
732.0,0.01821
733.0,0.01941
734.0,0.01986
735.0,0.01932
736.0,0.0192
737.0,0.01919
738.0,0.01959
739.0,0.01911
740.0,0.01958
741.0,0.01932
742.0,0.01928
743.0,0.01968
744.0,0.01954
745.0,0.01947
746.0,0.01946
747.0,0.01942
748.0,0.01929
749.0,0.01898
750.0,0.0189
751.0,0.01864
752.0,0.01866
753.0,0.01868
754.0,0.01865
755.0,0.01847
756.0,0.01839
757.0,0.01834
758.0,0.01803
759.0,0.01746
760.0,0.002527
761.0,0.001344
762.0,0.007692
763.0,0.003774
764.0,0.005649
765.0,0.007582
766.0,0.009521
767.0,0.01246
768.0,0.01494
769.0,0.01536
770.0,0.01602
771.0,0.01618
772.0,0.01616
773.0,0.01619
774.0,0.01603
775.0,0.01583
776.0,0.01594
777.0,0.01564
778.0,0.01546
779.0,0.0154
780.0,0.01524
781.0,0.0152
782.0,0.01524
783.0,0.01492
784.0,0.01494
785.0,0.01477
786.0,0.01487
787.0,0.01447
788.0,0.01419
789.0,0.01412
790.0,0.01359
791.0,0.01375
792.0,0.01361
793.0,0.01332
794.0,0.0136
795.0,0.01374
796.0,0.01311
797.0,0.01306
798.0,0.01353
799.0,0.01336
800.0,0.01303
801.0,0.0129
802.0,0.0128
803.0,0.01262
804.0,0.0126
805.0,0.01254
806.0,0.01291
807.0,0.01267
808.0,0.01262
809.0,0.01227
810.0,0.01207
811.0,0.01198
812.0,0.01145
813.0,0.01112
814.0,0.009502
815.0,0.009411
816.0,0.008644
817.0,0.008775
818.0,0.008371
819.0,0.009513
820.0,0.008856
821.0,0.01065
822.0,0.01025
823.0,0.006505
824.0,0.009768
825.0,0.01031
826.0,0.009765
827.0,0.01039
828.0,0.008471
829.0,0.009617
830.0,0.009436
831.0,0.009431
832.0,0.009046
833.0,0.009745
834.0,0.009279
835.0,0.01037
836.0,0.009727
837.0,0.01031
838.0,0.009878
839.0,0.01006
840.0,0.01026
841.0,0.01003
842.0,0.01006
843.0,0.01006
844.0,0.009848
845.0,0.01017
846.0,0.01009
847.0,0.009867
848.0,0.009734
849.0,0.00941
850.0,0.008971
851.0,0.009421
852.0,0.009318
853.0,0.008943
854.0,0.007671
855.0,0.008418
856.0,0.009155
857.0,0.009341
858.0,0.009232
859.0,0.009214
860.0,0.009201
861.0,0.009115
862.0,0.009232
863.0,0.009419
864.0,0.008917
865.0,0.008807
866.0,0.007889
867.0,0.008202
868.0,0.008891
869.0,0.008673
870.0,0.008886
871.0,0.008729
872.0,0.008665
873.0,0.008612
874.0,0.008473
875.0,0.008264
876.0,0.008312
877.0,0.008362
878.0,0.008413
879.0,0.008249
880.0,0.008038
881.0,0.007873
882.0,0.008006
883.0,0.008008
884.0,0.007931
885.0,0.007953
886.0,0.007512
887.0,0.007588
888.0,0.007652
889.0,0.007735
890.0,0.007598
891.0,0.007575
892.0,0.007282
893.0,0.006975
894.0,0.006601
895.0,0.006094
896.0,0.005659
897.0,0.004713
898.0,0.005183
899.0,0.00378
900.0,0.005337
901.0,0.003958
902.0,0.00477
903.0,0.004752
904.0,0.006277
905.0,0.005997
906.0,0.005543
907.0,0.004282
908.0,0.004393
909.0,0.004815
910.0,0.004117
911.0,0.004467
912.0,0.004658
913.0,0.004125
914.0,0.004092
915.0,0.004432
916.0,0.003687
917.0,0.004823
918.0,0.00375
919.0,0.004906
920.0,0.005026
921.0,0.005224
922.0,0.004546
923.0,0.005016
924.0,0.004602
925.0,0.00448
926.0,0.004504
927.0,0.005117
928.0,0.003489
929.0,0.003122
930.0,0.002361
931.0,0.002219
932.0,0.001541
933.0,0.001231
934.0,0.0006528
935.0,0.001258
936.0,0.0007647
937.0,0.0007713
938.0,0.0009501
939.0,0.002075
940.0,0.00254
941.0,0.001849
942.0,0.002158
943.0,0.001369
944.0,0.001463
945.0,0.001882
946.0,0.0009113
947.0,0.001867
948.0,0.001352
949.0,0.002552
950.0,0.0006494
951.0,0.002495
952.0,0.001268
953.0,0.001668
954.0,0.002087
955.0,0.001681
956.0,0.001664
957.0,0.001245
958.0,0.002411
959.0,0.001837
960.0,0.002063
961.0,0.00236
962.0,0.002218
963.0,0.002609
964.0,0.002358
965.0,0.002573
966.0,0.002565
967.0,0.002534
968.0,0.003661
969.0,0.003784
970.0,0.003423
971.0,0.004051
972.0,0.003815
973.0,0.003179
974.0,0.002994
975.0,0.003124
976.0,0.002894
977.0,0.003431
978.0,0.003183
979.0,0.003358
980.0,0.003117
981.0,0.003875
982.0,0.003642
983.0,0.003453
984.0,0.004014
985.0,0.003581
986.0,0.004096
987.0,0.003963
988.0,0.003943
989.0,0.004063
990.0,0.003884
991.0,0.004027
992.0,0.004042
993.0,0.0039
994.0,0.004019
995.0,0.004008
996.0,0.003968
997.0,0.003964
998.0,0.003928
999.0,0.003902
1000.0,0.00385
1001.0,0.003896
1002.0,0.003725
1003.0,0.003795
1004.0,0.003675
1005.0,0.003544
1006.0,0.00366
1007.0,0.003727
1008.0,0.003685
1009.0,0.003642
1010.0,0.003609
1011.0,0.003654
1012.0,0.0036
1013.0,0.003621
1014.0,0.003582
1015.0,0.003544
1016.0,0.003513
1017.0,0.003507
1018.0,0.003486
1019.0,0.00338
1020.0,0.003438
1021.0,0.003423
1022.0,0.003377
1023.0,0.0034
1024.0,0.003325
1025.0,0.003378
1026.0,0.003346
1027.0,0.003326
1028.0,0.003306
1029.0,0.003253
1030.0,0.003269
1031.0,0.003241
1032.0,0.003221
1033.0,0.00316
1034.0,0.003149
1035.0,0.003147
1036.0,0.003149
1037.0,0.003087
1038.0,0.003089
1039.0,0.003075
1040.0,0.00305
1041.0,0.003049
1042.0,0.003016
1043.0,0.002995
1044.0,0.002993
1045.0,0.00294
1046.0,0.002895
1047.0,0.00291
1048.0,0.002914
1049.0,0.002892
1050.0,0.002867
1051.0,0.00285
1052.0,0.002827
1053.0,0.002793
1054.0,0.002787
1055.0,0.002775
1056.0,0.002753
1057.0,0.002732
1058.0,0.002653
1059.0,0.002644
1060.0,0.002629
1061.0,0.002615
1062.0,0.002616
1063.0,0.00258
1064.0,0.002602
1065.0,0.002568
1066.0,0.002512
1067.0,0.002534
1068.0,0.002465
1069.0,0.002384
1070.0,0.002452
1071.0,0.002494
1072.0,0.002446
1073.0,0.002405
1074.0,0.002473
1075.0,0.002309
1076.0,0.002451
1077.0,0.00238
1078.0,0.002318
1079.0,0.002392
1080.0,0.002315
1081.0,0.00222
1082.0,0.002275
1083.0,0.002281
1084.0,0.002181
1085.0,0.002284
1086.0,0.002028
1087.0,0.002121
1088.0,0.002232
1089.0,0.002123
1090.0,0.002051
1091.0,0.002192
1092.0,0.002184
1093.0,0.001764
1094.0,0.001974
1095.0,0.001831
1096.0,0.001726
1097.0,0.002097
1098.0,0.001677
1099.0,0.001753
1100.0,0.001594
1101.0,0.001621
1102.0,0.001524
1103.0,0.00149
1104.0,0.00149
1105.0,0.001669
1106.0,0.001182
1107.0,0.001556
1108.0,0.001258
1109.0,0.001259
1110.0,0.001512
1111.0,0.0009471
1112.0,0.001239
1113.0,0.000728
1114.0,0.0008146
1115.0,0.0006648
1116.0,0.0005118
1117.0,0.0001775
1118.0,0.0005565
1119.0,0.000264
1120.0,0.0003309
1121.0,0.0004426
1122.0,0.0001796
1123.0,0.0002957
1124.0,0.0002483
1125.0,0.0003254
1126.0,0.0001083
1127.0,0.0003654
1128.0,0.0002118
1129.0,0.0002245
1130.0,0.0001459
1131.0,0.0007139
1132.0,0.0005493
1133.0,0.0003346
1134.0,8.188e-05
1135.0,3.067e-05
1136.0,0.0002732
1137.0,0.0006823
1138.0,0.0004719
1139.0,0.000741
1140.0,0.0006002
1141.0,0.0004438
1142.0,0.0005149
1143.0,0.0007515
1144.0,0.0002446
1145.0,0.0003093
1146.0,0.0003325
1147.0,0.0001124
1148.0,0.0006327
1149.0,0.0004925
1150.0,0.0002598
1151.0,0.0004477
1152.0,0.0005608
1153.0,0.0005519
1154.0,0.0002912
1155.0,0.000733
1156.0,0.0006482
1157.0,0.0007459
1158.0,0.0007346
1159.0,0.0007996
1160.0,0.0006724
1161.0,0.0008584
1162.0,0.0008555
1163.0,0.001229
1164.0,0.00102
1165.0,0.0009386
1166.0,0.0009434
1167.0,0.001038
1168.0,0.001045
1169.0,0.001074
1170.0,0.001186
1171.0,0.001149
1172.0,0.001181
1173.0,0.001171
1174.0,0.0007823
1175.0,0.001149
1176.0,0.001294
1177.0,0.001215
1178.0,0.0008631
1179.0,0.001291
1180.0,0.001109
1181.0,0.001146
1182.0,0.0007374
1183.0,0.001128
1184.0,0.001033
1185.0,0.0009806
1186.0,0.001211
1187.0,0.001132
1188.0,0.0007318
1189.0,0.001043
1190.0,0.00117
1191.0,0.001078
1192.0,0.001182
1193.0,0.001116
1194.0,0.001156
1195.0,0.00107
1196.0,0.001016
1197.0,0.001155
1198.0,0.001041
1199.0,0.0008424
1200.0,0.00108
1201.0,0.001022
1202.0,0.001025
1203.0,0.001008
1204.0,0.0008565
1205.0,0.00105
1206.0,0.001183
1207.0,0.001003
1208.0,0.0009967
1209.0,0.001014
1210.0,0.001065
1211.0,0.0009961
1212.0,0.0009601
1213.0,0.001108
1214.0,0.0009851
1215.0,0.0009609
1216.0,0.001096
1217.0,0.001056
1218.0,0.00108
1219.0,0.001058
1220.0,0.001074
1221.0,0.001089
1222.0,0.001051
1223.0,0.001035
1224.0,0.001016
1225.0,0.001065
1226.0,0.001076
1227.0,0.0009658
1228.0,0.001078
1229.0,0.001066
1230.0,0.00104
1231.0,0.00108
1232.0,0.00107
1233.0,0.001012
1234.0,0.001073
1235.0,0.00106
1236.0,0.001067
1237.0,0.001042
1238.0,0.001056
1239.0,0.001039
1240.0,0.001041
1241.0,0.001027
1242.0,0.001026
1243.0,0.001015
1244.0,0.001017
1245.0,0.001019
1246.0,0.00101
1247.0,0.001001
1248.0,0.000995
1249.0,0.0009973
1250.0,0.0009865
1251.0,0.0009675
1252.0,0.0009687
1253.0,0.0009506
1254.0,0.0009329
1255.0,0.0009566
1256.0,0.0009139
1257.0,0.0009034
1258.0,0.0009275
1259.0,0.0008721
1260.0,0.0008763
1261.0,0.0008033
1262.0,0.0007666
1263.0,0.0007653
1264.0,0.0006838
1265.0,0.0007562
1266.0,0.0007129
1267.0,0.0007318
1268.0,0.0006785
1269.0,0.0003738
1270.0,0.0007193
1271.0,0.0007805
1272.0,0.0007823
1273.0,0.0007693
1274.0,0.0007725
1275.0,0.0007849
1276.0,0.0007942
1277.0,0.0008025
1278.0,0.0008236
1279.0,0.0008139
1280.0,0.000801
1281.0,0.0007661
1282.0,0.0007428
1283.0,0.000796
1284.0,0.0008113
1285.0,0.0008154
1286.0,0.0008276
1287.0,0.0008053
1288.0,0.0008049
1289.0,0.0007638
1290.0,0.0007933
1291.0,0.0008042
1292.0,0.0007305
1293.0,0.0007783
1294.0,0.0007693
1295.0,0.0007557
1296.0,0.0007065
1297.0,0.000657
1298.0,0.0007246
1299.0,0.0007666
1300.0,0.0006138
1301.0,0.0006357
1302.0,0.0007151
1303.0,0.0006018
1304.0,0.0004884
1305.0,0.000691
1306.0,0.0006858
1307.0,0.0005006
1308.0,0.0005964
1309.0,0.0006697
1310.0,0.0004839
1311.0,0.0005604
1312.0,0.0005423
1313.0,0.0005228
1314.0,0.0004556
1315.0,0.0004463
1316.0,0.0005398
1317.0,0.000504
1318.0,0.0005581
1319.0,0.0004079
1320.0,0.0003956
1321.0,0.0004717
1322.0,0.0004714
1323.0,0.0003346
1324.0,0.0003946
1325.0,0.0005133
1326.0,0.0004258
1327.0,0.0004008
1328.0,0.0003367
1329.0,0.0002403
1330.0,0.0003204
1331.0,0.0001823
1332.0,0.0001891
1333.0,0.0002663
1334.0,0.000229
1335.0,0.0003198
1336.0,0.0002447
1337.0,0.0002145
1338.0,0.0002315
1339.0,0.0002304
1340.0,0.0002252
1341.0,0.0002141
1342.0,0.0002253
1343.0,0.0001461
1344.0,8.7e-05
1345.0,0.0001251
1346.0,6.065e-05
