interpolation:linear
wavelength,value
280.0,1.5279999999999998e-22
280.5,5.065e-21
281.0,2.724e-20
281.5,3.954e-19
282.0,5.726e-19
282.5,1.41e-18
283.0,4.453e-18
283.5,7.255e-18
284.0,1.199e-16
284.5,3.509e-16
285.0,5.859e-16
285.5,2.901e-15
286.0,1.17e-14
286.5,5.268e-14
287.0,1.514e-13
287.5,5.851e-13
288.0,2.08e-12
288.5,6.147e-12
289.0,1.615e-11
289.5,4.836e-11
290.0,1.337e-10
290.5,2.722e-10
291.0,5.839e-10
291.5,1.676e-09
292.0,3.366e-09
292.5,4.715e-09
293.0,1.009e-08
293.5,2.452e-08
294.0,3.832e-08
294.5,5.183e-08
295.0,8.773e-08
295.5,1.452e-07
296.0,2.793e-07
296.5,3.895e-07
297.0,5.254e-07
297.5,1.403e-06
298.0,2.201e-06
298.5,2.204e-06
299.0,4.835e-06
299.5,7.947e-06
300.0,8.677e-06
300.5,1.246e-05
301.0,2.219e-05
301.5,3.473e-05
302.0,2.937e-05
302.5,5.853e-05
303.0,0.000107
303.5,0.0001374
304.0,0.0001331
304.5,0.0002159
305.0,0.0003699
305.5,0.0004584
306.0,0.0004573
306.5,0.0005998
307.0,0.001002
307.5,0.001496
308.0,0.001608
308.5,0.002012
309.0,0.002276
309.5,0.002968
310.0,0.003163
310.5,0.005272
311.0,0.00694
311.5,0.006833
312.0,0.007587
312.5,0.00989
313.0,0.01111
313.5,0.01041
314.0,0.01414
314.5,0.014
315.0,0.01874
315.5,0.01482
316.0,0.01415
316.5,0.02196
317.0,0.02718
317.5,0.0276
318.0,0.02269
318.5,0.03122
319.0,0.039
319.5,0.02913
320.0,0.03468
320.5,0.04824
321.0,0.04728
321.5,0.04569
322.0,0.04376
322.5,0.0382
323.0,0.04066
323.5,0.05342
324.0,0.06292
324.5,0.06202
325.0,0.05138
325.5,0.06975
326.0,0.08684
326.5,0.09001
327.0,0.08833
327.5,0.08371
328.0,0.07095
328.5,0.07883
329.0,0.09878
329.5,0.1136
330.0,0.113
330.5,0.08698
331.0,0.08736
331.5,0.09105
332.0,0.1022
332.5,0.1028
333.0,0.1012
333.5,0.08871
334.0,0.09026
334.5,0.1075
335.0,0.1029
335.5,0.1212
336.0,0.0837
336.5,0.09586
337.0,0.07734
337.5,0.09549
338.0,0.09577
338.5,0.1117
339.0,0.1104
339.5,0.106
340.0,0.1229
340.5,0.1109
341.0,0.1089
341.5,0.09985
342.0,0.1191
342.5,0.1113
343.0,0.1221
343.5,0.1147
344.0,0.08391
344.5,0.08524
345.0,0.1126
345.5,0.1148
346.0,0.09745
346.5,0.1102
347.0,0.1179
347.5,0.09512
348.0,0.1083
348.5,0.1081
349.0,0.1002
349.5,0.09894
350.0,0.1221
350.5,0.1286
351.0,0.1145
351.5,0.1109
352.0,0.119
352.5,0.09271
353.0,0.1166
353.5,0.1245
354.0,0.129
354.5,0.1305
355.0,0.1298
355.5,0.117
356.0,0.1222
356.5,0.1041
357.0,0.08582
357.5,0.1048
358.0,0.08292
358.5,0.07071
359.0,0.09865
359.5,0.1254
360.0,0.1326
360.5,0.1058
361.0,0.09625
361.5,0.1106
362.0,0.09545
362.5,0.1318
363.0,0.1181
363.5,0.1086
364.0,0.1325
364.5,0.113
365.0,0.1148
365.5,0.1438
366.0,0.152
366.5,0.1425
367.0,0.1384
367.5,0.1433
368.0,0.1251
368.5,0.126
369.0,0.1357
369.5,0.1443
370.0,0.1535
370.5,0.1189
371.0,0.1267
371.5,0.1582
372.0,0.1047
372.5,0.1253
373.0,0.1271
373.5,0.08253
374.0,0.1196
374.5,0.09884
375.0,0.09585
375.5,0.1428
376.0,0.1181
376.5,0.122
377.0,0.1289
377.5,0.1505
378.0,0.1627
378.5,0.1534
379.0,0.1262
379.5,0.115
380.0,0.1193
380.5,0.1441
381.0,0.144
381.5,0.1139
382.0,0.1009
382.5,0.08578
383.0,0.07921
383.5,0.0761
384.0,0.08374
384.5,0.1229
385.0,0.1215
385.5,0.1129
386.0,0.09644
386.5,0.1264
387.0,0.1047
387.5,0.1173
388.0,0.108
388.5,0.1065
389.0,0.1147
389.5,0.1385
390.0,0.1387
390.5,0.1273
391.0,0.1494
391.5,0.152
392.0,0.1277
392.5,0.114
393.0,0.06327
393.5,0.04587
394.0,0.0931
394.5,0.1181
395.0,0.1437
395.5,0.1456
396.0,0.1259
396.5,0.07338
397.0,0.05493
397.5,0.1114
398.0,0.1556
398.5,0.1604
399.0,0.1732
399.5,0.1722
400.0,0.1783
401.0,0.1753
402.0,0.1839
403.0,0.1738
404.0,0.1701
405.0,0.1692
406.0,0.1655
407.0,0.1618
408.0,0.1672
409.0,0.1779
410.0,0.1546
411.0,0.1665
412.0,0.1779
413.0,0.1725
414.0,0.1736
415.0,0.173
416.0,0.175
417.0,0.1696
418.0,0.1655
419.0,0.1667
420.0,0.165
421.0,0.1715
422.0,0.162
423.0,0.1572
424.0,0.1652
425.0,0.1638
426.0,0.1586
427.0,0.1548
428.0,0.1499
429.0,0.1412
430.0,0.1229
431.0,0.121
432.0,0.1552
433.0,0.155
434.0,0.143
435.0,0.1485
436.0,0.1664
437.0,0.1632
438.0,0.1476
439.0,0.1516
440.0,0.1553
441.0,0.1598
442.0,0.1702
443.0,0.1647
444.0,0.1673
445.0,0.1628
446.0,0.1545
447.0,0.1661
448.0,0.1675
449.0,0.167
450.0,0.1704
451.0,0.1756
452.0,0.1681
453.0,0.1572
454.0,0.1631
455.0,0.1629
456.0,0.1656
457.0,0.167
458.0,0.16
459.0,0.1579
460.0,0.157
461.0,0.1595
462.0,0.1597
463.0,0.1578
464.0,0.1545
465.0,0.1518
466.0,0.1524
467.0,0.1486
468.0,0.1491
469.0,0.1487
470.0,0.143
471.0,0.1419
472.0,0.1486
473.0,0.1458
474.0,0.1449
475.0,0.145
476.0,0.1395
477.0,0.1386
478.0,0.1411
479.0,0.139
480.0,0.138
481.0,0.1393
482.0,0.139
483.0,0.1365
484.0,0.133
485.0,0.1261
486.0,0.1097
487.0,0.1144
488.0,0.1246
489.0,0.1241
490.0,0.1296
491.0,0.1264
492.0,0.1185
493.0,0.1216
494.0,0.122
495.0,0.1222
496.0,0.122
497.0,0.1228
498.0,0.116
499.0,0.1163
500.0,0.1117
501.0,0.1085
502.0,0.1058
503.0,0.1089
504.0,0.105
505.0,0.108
506.0,0.1107
507.0,0.1047
508.0,0.1009
509.0,0.1033
510.0,0.1022
511.0,0.1043
512.0,0.1047
513.0,0.09832
514.0,0.09688
515.0,0.09517
516.0,0.0942
517.0,0.08309
518.0,0.08671
519.0,0.09025
520.0,0.09278
521.0,0.09288
522.0,0.09215
523.0,0.08977
524.0,0.09212
525.0,0.09229
526.0,0.08734
527.0,0.08145
528.0,0.08527
529.0,0.08907
530.0,0.08703
531.0,0.08756
532.0,0.08387
533.0,0.08083
534.0,0.08267
535.0,0.08397
536.0,0.08423
537.0,0.0804
538.0,0.08127
539.0,0.08004
540.0,0.07618
541.0,0.07605
542.0,0.07776
543.0,0.07633
544.0,0.07707
545.0,0.07631
546.0,0.07605
547.0,0.07547
548.0,0.07405
549.0,0.07377
550.0,0.07412
551.0,0.0727
552.0,0.07268
553.0,0.07085
554.0,0.07201
555.0,0.0716
556.0,0.0701
557.0,0.06734
558.0,0.06622
559.0,0.06437
560.0,0.06458
561.0,0.06482
562.0,0.06374
563.0,0.06489
564.0,0.0626
565.0,0.06156
566.0,0.06017
567.0,0.06079
568.0,0.05973
569.0,0.05775
570.0,0.05732
571.0,0.05657
572.0,0.05741
573.0,0.05763
574.0,0.05708
575.0,0.05567
576.0,0.05487
577.0,0.05519
578.0,0.05413
579.0,0.05414
580.0,0.055
581.0,0.05508
582.0,0.0559
583.0,0.05582
584.0,0.05607
585.0,0.05443
586.0,0.05299
587.0,0.05379
588.0,0.05203
589.0,0.04555
590.0,0.04737
591.0,0.04995
592.0,0.04887
593.0,0.04932
594.0,0.04852
595.0,0.04685
596.0,0.04853
597.0,0.04757
598.0,0.04712
599.0,0.04681
600.0,0.04659
601.0,0.04595
602.0,0.04537
603.0,0.04587
604.0,0.0464
605.0,0.04596
606.0,0.04561
607.0,0.04592
608.0,0.04527
609.0,0.0452
610.0,0.04476
611.0,0.04486
612.0,0.0446
613.0,0.0439
614.0,0.04316
615.0,0.04397
616.0,0.04238
617.0,0.04215
618.0,0.04362
619.0,0.04302
620.0,0.04311
621.0,0.04295
622.0,0.04225
623.0,0.0414
624.0,0.04051
625.0,0.04026
626.0,0.0407
627.0,0.04093
628.0,0.0375
629.0,0.03942
630.0,0.03833
631.0,0.03922
632.0,0.03863
633.0,0.03975
634.0,0.03928
635.0,0.03977
636.0,0.03912
637.0,0.03964
638.0,0.03992
639.0,0.03935
640.0,0.03885
641.0,0.03869
642.0,0.0384
643.0,0.03879
644.0,0.03855
645.0,0.03843
646.0,0.03731
647.0,0.03657
648.0,0.03644
649.0,0.03557
650.0,0.03578
651.0,0.03721
652.0,0.0353
653.0,0.03642
654.0,0.03588
655.0,0.03429
656.0,0.03034
657.0,0.03105
658.0,0.03472
659.0,0.03486
660.0,0.03487
661.0,0.03496
662.0,0.03486
663.0,0.03406
664.0,0.03438
665.0,0.0343
666.0,0.03421
667.0,0.03407
668.0,0.03398
669.0,0.03438
670.0,0.03409
671.0,0.03396
672.0,0.03356
673.0,0.03397
674.0,0.03371
675.0,0.03327
676.0,0.03337
677.0,0.03292
678.0,0.03289
679.0,0.03224
680.0,0.03236
681.0,0.03201
682.0,0.03183
683.0,0.03163
684.0,0.03132
685.0,0.03145
686.0,0.03112
687.0,0.01885
688.0,0.02265
689.0,0.02266
690.0,0.02393
691.0,0.02542
692.0,0.02653
693.0,0.02618
694.0,0.02586
695.0,0.02706
696.0,0.02698
697.0,0.02888
698.0,0.0283
699.0,0.02728
700.0,0.02683
701.0,0.02638
702.0,0.02653
703.0,0.02647
704.0,0.02732
705.0,0.02723
706.0,0.02714
707.0,0.02706
708.0,0.02698
709.0,0.02698
710.0,0.0268
711.0,0.0267
712.0,0.02656
713.0,0.02613
714.0,0.0261
715.0,0.02507
716.0,0.02495
717.0,0.02084
718.0,0.01893
719.0,0.01714
720.0,0.01788
721.0,0.02004
722.0,0.02337
723.0,0.02137
724.0,0.01886
725.0,0.01842
726.0,0.01928
727.0,0.01957
728.0,0.01812
729.0,0.01893
730.0,0.01997
731.0,0.01894
732.0,0.02043
733.0,0.02177
734.0,0.02225
735.0,0.02165
736.0,0.02152
737.0,0.0215
738.0,0.02191
739.0,0.02137
740.0,0.02188
741.0,0.02159
742.0,0.02153
743.0,0.02197
744.0,0.02181
745.0,0.02172
746.0,0.02172
747.0,0.02167
748.0,0.02152
749.0,0.02117
750.0,0.02107
751.0,0.02078
752.0,0.02078
753.0,0.0208
754.0,0.02075
755.0,0.02055
756.0,0.02046
757.0,0.0204
758.0,0.02005
759.0,0.01945
760.0,0.002688
761.0,0.001415
762.0,0.008571
763.0,0.004064
764.0,0.006196
765.0,0.008443
766.0,0.01071
767.0,0.01402
768.0,0.01672
769.0,0.01715
770.0,0.01783
771.0,0.01798
772.0,0.01795
773.0,0.01798
774.0,0.0178
775.0,0.01758
776.0,0.01771
777.0,0.01739
778.0,0.01719
779.0,0.01711
780.0,0.01694
781.0,0.01688
782.0,0.01692
783.0,0.01656
784.0,0.01658
785.0,0.01638
786.0,0.01649
787.0,0.01607
788.0,0.01576
789.0,0.01568
790.0,0.0151
791.0,0.01526
792.0,0.01509
793.0,0.01477
794.0,0.01506
795.0,0.01522
796.0,0.01455
797.0,0.0145
798.0,0.01499
799.0,0.0148
800.0,0.01444
801.0,0.0143
802.0,0.01419
803.0,0.014
804.0,0.01397
805.0,0.0139
806.0,0.01429
807.0,0.01403
808.0,0.01398
809.0,0.0136
810.0,0.01339
811.0,0.01329
812.0,0.01274
813.0,0.01237
814.0,0.01057
815.0,0.01046
816.0,0.009604
817.0,0.00976
818.0,0.009312
819.0,0.01059
820.0,0.009844
821.0,0.01182
822.0,0.01137
823.0,0.007205
824.0,0.01085
825.0,0.01141
826.0,0.01082
827.0,0.0115
828.0,0.0094
829.0,0.01065
830.0,0.01044
831.0,0.01044
832.0,0.01002
833.0,0.01079
834.0,0.01027
835.0,0.01145
836.0,0.01077
837.0,0.01139
838.0,0.01092
839.0,0.01113
840.0,0.01134
841.0,0.0111
842.0,0.01111
843.0,0.0111
844.0,0.01087
845.0,0.01122
846.0,0.01113
847.0,0.01088
848.0,0.01074
849.0,0.01039
850.0,0.009906
851.0,0.01041
852.0,0.0103
853.0,0.009878
854.0,0.008477
855.0,0.009296
856.0,0.01011
857.0,0.01031
858.0,0.01019
859.0,0.01017
860.0,0.01015
861.0,0.01005
862.0,0.01018
863.0,0.01038
864.0,0.009826
865.0,0.009703
866.0,0.008691
867.0,0.009033
868.0,0.009791
869.0,0.00955
870.0,0.009783
871.0,0.00961
872.0,0.009538
873.0,0.00948
874.0,0.009326
875.0,0.009095
876.0,0.009148
877.0,0.009203
878.0,0.00926
879.0,0.00908
880.0,0.008847
881.0,0.008669
882.0,0.008817
883.0,0.008817
884.0,0.008734
885.0,0.008759
886.0,0.00828
887.0,0.008359
888.0,0.008431
889.0,0.008518
890.0,0.008375
891.0,0.008345
892.0,0.008031
893.0,0.007697
894.0,0.0073
895.0,0.006755
896.0,0.006265
897.0,0.005214
898.0,0.005746
899.0,0.00417
900.0,0.005913
901.0,0.004378
902.0,0.005289
903.0,0.005271
904.0,0.006947
905.0,0.006633
906.0,0.006133
907.0,0.004741
908.0,0.004857
909.0,0.005336
910.0,0.004554
911.0,0.00493
912.0,0.005159
913.0,0.004563
914.0,0.004522
915.0,0.004917
916.0,0.004068
917.0,0.00535
918.0,0.004145
919.0,0.005437
920.0,0.005546
921.0,0.005785
922.0,0.005029
923.0,0.005551
924.0,0.005105
925.0,0.004965
926.0,0.005002
927.0,0.005688
928.0,0.003868
929.0,0.003456
930.0,0.0026
931.0,0.002445
932.0,0.001678
933.0,0.00133
934.0,0.0006899
935.0,0.001363
936.0,0.0008161
937.0,0.0008229
938.0,0.00102
939.0,0.002286
940.0,0.002815
941.0,0.002033
942.0,0.002386
943.0,0.001492
944.0,0.001599
945.0,0.00207
946.0,0.0009803
947.0,0.002052
948.0,0.001472
949.0,0.002829
950.0,0.0006905
951.0,0.002769
952.0,0.001376
953.0,0.001827
954.0,0.002307
955.0,0.001844
956.0,0.001814
957.0,0.00135
958.0,0.002665
959.0,0.002018
960.0,0.002274
961.0,0.002608
962.0,0.002446
963.0,0.002885
964.0,0.0026
965.0,0.00285
966.0,0.002836
967.0,0.002803
968.0,0.004044
969.0,0.004199
970.0,0.003788
971.0,0.004478
972.0,0.004221
973.0,0.003523
974.0,0.00331
975.0,0.003457
976.0,0.003209
977.0,0.003788
978.0,0.003523
979.0,0.00372
980.0,0.003446
981.0,0.004284
982.0,0.004027
983.0,0.003819
984.0,0.004428
985.0,0.003965
986.0,0.004511
987.0,0.004365
988.0,0.00434
989.0,0.004468
990.0,0.004281
991.0,0.004433
992.0,0.004448
993.0,0.004295
994.0,0.00442
995.0,0.004406
996.0,0.004363
997.0,0.004357
998.0,0.004318
999.0,0.004289
1000.0,0.004234
1001.0,0.004281
1002.0,0.004106
1003.0,0.004171
1004.0,0.004042
1005.0,0.003894
1006.0,0.004023
1007.0,0.004096
1008.0,0.004051
1009.0,0.004006
1010.0,0.00397
1011.0,0.004015
1012.0,0.003957
1013.0,0.003978
1014.0,0.003936
1015.0,0.003894
1016.0,0.00386
1017.0,0.003853
1018.0,0.003829
1019.0,0.003717
1020.0,0.003777
1021.0,0.00376
1022.0,0.00371
1023.0,0.003735
1024.0,0.003658
1025.0,0.00371
1026.0,0.003676
1027.0,0.003654
1028.0,0.003632
1029.0,0.003575
1030.0,0.003591
1031.0,0.003561
1032.0,0.003539
1033.0,0.003472
1034.0,0.003459
1035.0,0.003456
1036.0,0.003459
1037.0,0.003391
1038.0,0.003393
1039.0,0.003378
1040.0,0.003351
1041.0,0.003351
1042.0,0.003314
1043.0,0.003291
1044.0,0.00329
1045.0,0.003232
1046.0,0.003183
1047.0,0.003199
1048.0,0.003204
1049.0,0.00318
1050.0,0.003153
1051.0,0.003135
1052.0,0.00311
1053.0,0.003072
1054.0,0.003067
1055.0,0.003055
1056.0,0.00303
1057.0,0.003008
1058.0,0.002922
1059.0,0.002913
1060.0,0.002897
1061.0,0.002881
1062.0,0.002883
1063.0,0.002843
1064.0,0.002868
1065.0,0.002832
1066.0,0.002769
1067.0,0.002793
1068.0,0.002719
1069.0,0.002628
1070.0,0.002703
1071.0,0.002747
1072.0,0.002696
1073.0,0.00265
1074.0,0.002722
1075.0,0.002544
1076.0,0.002698
1077.0,0.002622
1078.0,0.002555
1079.0,0.002631
1080.0,0.00255
1081.0,0.002448
1082.0,0.002505
1083.0,0.00251
1084.0,0.002406
1085.0,0.002516
1086.0,0.002237
1087.0,0.002338
1088.0,0.002456
1089.0,0.002342
1090.0,0.002263
1091.0,0.002413
1092.0,0.002404
1093.0,0.001948
1094.0,0.002175
1095.0,0.002027
1096.0,0.001911
1097.0,0.00231
1098.0,0.001859
1099.0,0.001944
1100.0,0.001766
1101.0,0.001794
1102.0,0.001688
1103.0,0.001652
1104.0,0.001651
1105.0,0.001851
1106.0,0.001308
1107.0,0.001724
1108.0,0.001393
1109.0,0.001396
1110.0,0.00168
1111.0,0.001047
1112.0,0.001374
1113.0,0.0007985
1114.0,0.0008974
1115.0,0.000729
1116.0,0.0005559
1117.0,0.0001862
1118.0,0.0006071
1119.0,0.0002809
1120.0,0.0003535
1121.0,0.0004777
1122.0,0.0001885
1123.0,0.0003154
1124.0,0.0002639
1125.0,0.0003486
1126.0,0.0001125
1127.0,0.0003926
1128.0,0.0002231
1129.0,0.0002369
1130.0,0.0001526
1131.0,0.000787
1132.0,0.0006001
1133.0,0.0003581
1134.0,8.48e-05
1135.0,3.162e-05
1136.0,0.0002901
1137.0,0.0007503
1138.0,0.0005137
1139.0,0.0008202
1140.0,0.0006597
1141.0,0.0004823
1142.0,0.0005629
1143.0,0.0008317
1144.0,0.000261
1145.0,0.0003308
1146.0,0.0003563
1147.0,0.0001168
1148.0,0.0006977
1149.0,0.0005379
1150.0,0.0002778
1151.0,0.0004871
1152.0,0.0006158
1153.0,0.0006062
1154.0,0.000311
1155.0,0.0008125
1156.0,0.0007156
1157.0,0.0008243
1158.0,0.0008114
1159.0,0.0008881
1160.0,0.0007398
1161.0,0.00095
1162.0,0.0009468
1163.0,0.001365
1164.0,0.00113
1165.0,0.001039
1166.0,0.001042
1167.0,0.001149
1168.0,0.001155
1169.0,0.001189
1170.0,0.001313
1171.0,0.001271
1172.0,0.001303
1173.0,0.001296
1174.0,0.000861
1175.0,0.001268
1176.0,0.001424
1177.0,0.001341
1178.0,0.000949
1179.0,0.001422
1180.0,0.001224
1181.0,0.001266
1182.0,0.0008119
1183.0,0.001246
1184.0,0.001141
1185.0,0.001084
1186.0,0.001336
1187.0,0.001251
1188.0,0.0008086
1189.0,0.001152
1190.0,0.001289
1191.0,0.001192
1192.0,0.001302
1193.0,0.001231
1194.0,0.001274
1195.0,0.001182
1196.0,0.001123
1197.0,0.001274
1198.0,0.001146
1199.0,0.0009308
1200.0,0.001191
1201.0,0.00113
1202.0,0.001128
1203.0,0.001115
1204.0,0.0009447
1205.0,0.001155
1206.0,0.001302
1207.0,0.001106
1208.0,0.001098
1209.0,0.001118
1210.0,0.001172
1211.0,0.001097
1212.0,0.001064
1213.0,0.001222
1214.0,0.001091
1215.0,0.001063
1216.0,0.001208
1217.0,0.001164
1218.0,0.00119
1219.0,0.001167
1220.0,0.001184
1221.0,0.001197
1222.0,0.001157
1223.0,0.001139
1224.0,0.001122
1225.0,0.001173
1226.0,0.001183
1227.0,0.001066
1228.0,0.001185
1229.0,0.001172
1230.0,0.001144
1231.0,0.001186
1232.0,0.001175
1233.0,0.001114
1234.0,0.001177
1235.0,0.001163
1236.0,0.00117
1237.0,0.001144
1238.0,0.001159
1239.0,0.00114
1240.0,0.001142
1241.0,0.001128
1242.0,0.001126
1243.0,0.001113
1244.0,0.001116
1245.0,0.001118
1246.0,0.001108
1247.0,0.001099
1248.0,0.001092
1249.0,0.001094
1250.0,0.001083
1251.0,0.001063
1252.0,0.001063
1253.0,0.001045
1254.0,0.001027
1255.0,0.00105
1256.0,0.001007
1257.0,0.0009962
1258.0,0.00102
1259.0,0.0009641
1260.0,0.0009682
1261.0,0.0008924
1262.0,0.0008538
1263.0,0.0008525
1264.0,0.0007649
1265.0,0.0008424
1266.0,0.0007963
1267.0,0.000816
1268.0,0.0007587
1269.0,0.0004134
1270.0,0.0008029
1271.0,0.0008667
1272.0,0.0008687
1273.0,0.0008547
1274.0,0.0008575
1275.0,0.0008705
1276.0,0.0008798
1277.0,0.000887
1278.0,0.0009087
1279.0,0.0008972
1280.0,0.0008835
1281.0,0.0008439
1282.0,0.0008164
1283.0,0.0008753
1284.0,0.0008923
1285.0,0.0008963
1286.0,0.0009089
1287.0,0.000886
1288.0,0.0008847
1289.0,0.0008428
1290.0,0.000872
1291.0,0.0008834
1292.0,0.0008068
1293.0,0.0008556
1294.0,0.0008459
1295.0,0.0008335
1296.0,0.0007809
1297.0,0.000727
1298.0,0.0007993
1299.0,0.0008426
1300.0,0.0006778
1301.0,0.0007025
1302.0,0.0007881
1303.0,0.0006647
1304.0,0.0005404
1305.0,0.0007617
1306.0,0.0007575
1307.0,0.0005532
1308.0,0.000658
1309.0,0.0007412
1310.0,0.0005355
1311.0,0.0006188
1312.0,0.0005984
1313.0,0.0005789
1314.0,0.0005045
1315.0,0.0004946
1316.0,0.0005967
1317.0,0.0005574
1318.0,0.0006167
1319.0,0.0004511
1320.0,0.0004372
1321.0,0.000522
1322.0,0.0005228
1323.0,0.0003698
1324.0,0.0004358
1325.0,0.000569
1326.0,0.0004712
1327.0,0.0004436
1328.0,0.000372
1329.0,0.0002639
1330.0,0.0003539
1331.0,0.0001979
1332.0,0.0002061
1333.0,0.0002932
1334.0,0.0002503
1335.0,0.0003543
1336.0,0.0002691
1337.0,0.0002343
1338.0,0.0002536
1339.0,0.0002528
1340.0,0.0002468
1341.0,0.0002344
1342.0,0.000247
1343.0,0.0001566
1344.0,9.239e-05
1345.0,0.000134
1346.0,6.318e-05
1347.0,6.378e-05
1348.0,4.022e-06
1349.0,1.446e-05
1350.0,1.501e-05
1351.0,3.611e-06
1352.0,9.708e-07
1353.0,4.94e-08
1354.0,1.698e-07
1355.0,1.367e-09
1356.0,2.393e-08
1357.0,3.635e-08
