interpolation:linear
wavelength,value
280.0,2.407e-22
280.5,7.933e-21
281.0,4.2560000000000003e-20
281.5,3.928e-19
282.0,6.357e-19
282.5,1.576e-18
283.0,4.988e-18
283.5,8.124e-18
284.0,1.34e-16
284.5,3.913e-16
285.0,6.412e-16
285.5,3.204e-15
286.0,1.293e-14
286.5,5.83e-14
287.0,1.674e-13
287.5,6.464e-13
288.0,2.259e-12
288.5,6.773e-12
289.0,1.794e-11
289.5,5.397e-11
290.0,1.496e-10
290.5,3.047e-10
291.0,6.537e-10
291.5,1.876e-09
292.0,3.768e-09
292.5,5.294e-09
293.0,1.137e-08
293.5,2.774e-08
294.0,4.345e-08
294.5,5.952e-08
295.0,1.01e-07
295.5,1.683e-07
296.0,3.268e-07
296.5,4.605e-07
297.0,6.271e-07
297.5,1.702e-06
298.0,2.711e-06
298.5,2.752e-06
299.0,6.124e-06
299.5,1.036e-05
300.0,1.151e-05
300.5,1.686e-05
301.0,3.112e-05
301.5,5.047e-05
302.0,4.353e-05
302.5,8.712e-05
303.0,0.0001619
303.5,0.0002099
304.0,0.000204
304.5,0.0003341
305.0,0.0005803
305.5,0.0007262
306.0,0.0007272
306.5,0.0009601
307.0,0.00163
307.5,0.002477
308.0,0.002671
308.5,0.003375
309.0,0.0034
309.5,0.004305
310.0,0.004526
310.5,0.007491
311.0,0.009754
311.5,0.009557
312.0,0.01037
312.5,0.01331
313.0,0.01484
313.5,0.01399
314.0,0.01867
314.5,0.01807
315.0,0.02407
315.5,0.01924
316.0,0.01803
316.5,0.02754
317.0,0.03408
317.5,0.03475
318.0,0.02825
318.5,0.03808
319.0,0.04707
319.5,0.03573
320.0,0.04264
320.5,0.05807
321.0,0.05586
321.5,0.05387
322.0,0.0526
322.5,0.04586
323.0,0.04817
323.5,0.06217
324.0,0.07303
324.5,0.0724
325.0,0.06067
325.5,0.08149
326.0,0.1005
326.5,0.1034
327.0,0.1017
327.5,0.09667
328.0,0.08277
328.5,0.09078
329.0,0.1127
329.5,0.1291
330.0,0.1287
330.5,0.09978
331.0,0.1004
331.5,0.1041
332.0,0.1159
332.5,0.1161
333.0,0.1145
333.5,0.1009
334.0,0.1027
334.5,0.1216
335.0,0.1159
335.5,0.1363
336.0,0.09413
336.5,0.108
337.0,0.08738
337.5,0.108
338.0,0.1077
338.5,0.1253
339.0,0.1237
339.5,0.1188
340.0,0.138
340.5,0.1244
341.0,0.1219
341.5,0.1116
342.0,0.1331
342.5,0.1242
343.0,0.1363
343.5,0.1281
344.0,0.09389
344.5,0.09527
345.0,0.1256
345.5,0.1279
346.0,0.1085
346.5,0.1226
347.0,0.1313
347.5,0.1059
348.0,0.1204
348.5,0.1201
349.0,0.1112
349.5,0.1098
350.0,0.1355
350.5,0.1426
351.0,0.127
351.5,0.1232
352.0,0.132
352.5,0.1027
353.0,0.1291
353.5,0.1378
354.0,0.1427
354.5,0.1444
355.0,0.1435
355.5,0.1293
356.0,0.135
356.5,0.115
357.0,0.09477
357.5,0.1157
358.0,0.0915
358.5,0.07799
359.0,0.1088
359.5,0.1382
360.0,0.1462
360.5,0.1166
361.0,0.106
361.5,0.1218
362.0,0.1051
362.5,0.145
363.0,0.1299
363.5,0.1194
364.0,0.1456
364.5,0.1242
365.0,0.1261
365.5,0.1579
366.0,0.1668
366.5,0.1564
367.0,0.1519
367.5,0.1572
368.0,0.1372
368.5,0.1381
369.0,0.1487
369.5,0.1581
370.0,0.1681
370.5,0.1302
371.0,0.1387
371.5,0.1731
372.0,0.1146
372.5,0.137
373.0,0.139
373.5,0.0902
374.0,0.1307
374.5,0.108
375.0,0.1047
375.5,0.1559
376.0,0.1288
376.5,0.1332
377.0,0.1406
377.5,0.1641
378.0,0.1774
378.5,0.1671
379.0,0.1375
379.5,0.1253
380.0,0.1299
380.5,0.1568
381.0,0.1567
381.5,0.1239
382.0,0.1097
382.5,0.09326
383.0,0.08609
383.5,0.08269
384.0,0.09096
384.5,0.1334
385.0,0.1319
385.5,0.1225
386.0,0.1046
386.5,0.1371
387.0,0.1136
387.5,0.1272
388.0,0.1171
388.5,0.1154
389.0,0.1242
389.5,0.15
390.0,0.1501
390.5,0.1377
391.0,0.1617
391.5,0.1644
392.0,0.1381
392.5,0.1232
393.0,0.06838
393.5,0.04956
394.0,0.1006
394.5,0.1275
395.0,0.1551
395.5,0.1571
396.0,0.1358
396.5,0.07917
397.0,0.05924
397.5,0.1201
398.0,0.1677
398.5,0.1728
399.0,0.1866
399.5,0.1855
400.0,0.192
401.0,0.1888
402.0,0.1979
403.0,0.1869
404.0,0.1829
405.0,0.1818
406.0,0.1777
407.0,0.1737
408.0,0.1793
409.0,0.1908
410.0,0.1657
411.0,0.1784
412.0,0.1905
413.0,0.1846
414.0,0.1858
415.0,0.1851
416.0,0.1871
417.0,0.1813
418.0,0.1768
419.0,0.178
420.0,0.1761
421.0,0.183
422.0,0.1728
423.0,0.1676
424.0,0.176
425.0,0.1745
426.0,0.1689
427.0,0.1648
428.0,0.1595
429.0,0.1502
430.0,0.1306
431.0,0.1286
432.0,0.1648
433.0,0.1646
434.0,0.1518
435.0,0.1576
436.0,0.1765
437.0,0.173
438.0,0.1565
439.0,0.1607
440.0,0.1646
441.0,0.1693
442.0,0.1802
443.0,0.1744
444.0,0.1771
445.0,0.1722
446.0,0.1634
447.0,0.1756
448.0,0.177
449.0,0.1764
450.0,0.18
451.0,0.1854
452.0,0.1774
453.0,0.1659
454.0,0.1721
455.0,0.1718
456.0,0.1746
457.0,0.1761
458.0,0.1687
459.0,0.1664
460.0,0.1655
461.0,0.168
462.0,0.1683
463.0,0.1662
464.0,0.1626
465.0,0.1597
466.0,0.1603
467.0,0.1562
468.0,0.1568
469.0,0.1563
470.0,0.1503
471.0,0.1491
472.0,0.1561
473.0,0.1531
474.0,0.1522
475.0,0.1523
476.0,0.1464
477.0,0.1455
478.0,0.1482
479.0,0.1459
480.0,0.1449
481.0,0.1462
482.0,0.1459
483.0,0.1432
484.0,0.1395
485.0,0.1323
486.0,0.115
487.0,0.1199
488.0,0.1306
489.0,0.13
490.0,0.1357
491.0,0.1324
492.0,0.1241
493.0,0.1272
494.0,0.1276
495.0,0.1277
496.0,0.1275
497.0,0.1284
498.0,0.1213
499.0,0.1216
500.0,0.1169
501.0,0.1135
502.0,0.1107
503.0,0.1141
504.0,0.11
505.0,0.1131
506.0,0.116
507.0,0.1097
508.0,0.1057
509.0,0.1081
510.0,0.1069
511.0,0.1091
512.0,0.1095
513.0,0.1028
514.0,0.1013
515.0,0.09955
516.0,0.09855
517.0,0.08692
518.0,0.09071
519.0,0.09442
520.0,0.09707
521.0,0.09717
522.0,0.09643
523.0,0.09395
524.0,0.09643
525.0,0.09665
526.0,0.09149
527.0,0.08535
528.0,0.08938
529.0,0.09339
530.0,0.09127
531.0,0.09184
532.0,0.08799
533.0,0.0848
534.0,0.08672
535.0,0.08808
536.0,0.08834
537.0,0.08431
538.0,0.08522
539.0,0.08393
540.0,0.07989
541.0,0.07976
542.0,0.08157
543.0,0.08008
544.0,0.08087
545.0,0.08008
546.0,0.07982
547.0,0.07921
548.0,0.07771
549.0,0.07742
550.0,0.0778
551.0,0.0763
552.0,0.07628
553.0,0.07437
554.0,0.07559
555.0,0.07517
556.0,0.0736
557.0,0.07072
558.0,0.06956
559.0,0.06764
560.0,0.06787
561.0,0.06814
562.0,0.06703
563.0,0.06825
564.0,0.06586
565.0,0.06477
566.0,0.06332
567.0,0.06399
568.0,0.06288
569.0,0.06082
570.0,0.06037
571.0,0.05959
572.0,0.06049
573.0,0.06072
574.0,0.06015
575.0,0.05866
576.0,0.0578
577.0,0.05813
578.0,0.057
579.0,0.057
580.0,0.05787
581.0,0.05794
582.0,0.05878
583.0,0.05869
584.0,0.05894
585.0,0.05721
586.0,0.05569
587.0,0.05652
588.0,0.05469
589.0,0.0479
590.0,0.04981
591.0,0.05252
592.0,0.0514
593.0,0.05187
594.0,0.05104
595.0,0.0493
596.0,0.05107
597.0,0.05008
598.0,0.0496
599.0,0.04929
600.0,0.04906
601.0,0.04838
602.0,0.04777
603.0,0.04829
604.0,0.04884
605.0,0.04837
606.0,0.04799
607.0,0.0483
608.0,0.04759
609.0,0.04751
610.0,0.04702
611.0,0.04712
612.0,0.04682
613.0,0.04607
614.0,0.04528
615.0,0.04611
616.0,0.04443
617.0,0.04418
618.0,0.04571
619.0,0.04506
620.0,0.04515
621.0,0.04498
622.0,0.04423
623.0,0.04334
624.0,0.0424
625.0,0.04214
626.0,0.04258
627.0,0.04283
628.0,0.03928
629.0,0.04125
630.0,0.0401
631.0,0.041
632.0,0.04038
633.0,0.04152
634.0,0.04102
635.0,0.04152
636.0,0.04083
637.0,0.04136
638.0,0.04164
639.0,0.04103
640.0,0.04049
641.0,0.04032
642.0,0.04001
643.0,0.04041
644.0,0.04014
645.0,0.04001
646.0,0.03884
647.0,0.03808
648.0,0.03793
649.0,0.03702
650.0,0.03722
651.0,0.0387
652.0,0.03672
653.0,0.03786
654.0,0.0373
655.0,0.03564
656.0,0.03152
657.0,0.03225
658.0,0.03606
659.0,0.03619
660.0,0.03619
661.0,0.03629
662.0,0.03618
663.0,0.03534
664.0,0.03566
665.0,0.03557
666.0,0.03547
667.0,0.03532
668.0,0.03521
669.0,0.03562
670.0,0.03531
671.0,0.03517
672.0,0.03476
673.0,0.03517
674.0,0.03489
675.0,0.03443
676.0,0.03453
677.0,0.03406
678.0,0.03403
679.0,0.03335
680.0,0.03347
681.0,0.03311
682.0,0.03291
683.0,0.0327
684.0,0.03238
685.0,0.03251
686.0,0.03217
687.0,0.0196
688.0,0.02352
689.0,0.02352
690.0,0.02482
691.0,0.02634
692.0,0.02747
693.0,0.02709
694.0,0.02674
695.0,0.02797
696.0,0.02788
697.0,0.02982
698.0,0.02922
699.0,0.02818
700.0,0.02771
701.0,0.02725
702.0,0.0274
703.0,0.02733
704.0,0.0282
705.0,0.02811
706.0,0.028
707.0,0.02792
708.0,0.02784
709.0,0.02782
710.0,0.02765
711.0,0.02754
712.0,0.02739
713.0,0.02695
714.0,0.02692
715.0,0.02586
716.0,0.02574
717.0,0.02154
718.0,0.01955
719.0,0.01769
720.0,0.01847
721.0,0.02069
722.0,0.0241
723.0,0.02205
724.0,0.01947
725.0,0.01901
726.0,0.0199
727.0,0.02019
728.0,0.0187
729.0,0.01953
730.0,0.02061
731.0,0.01954
732.0,0.02106
733.0,0.02244
734.0,0.02293
735.0,0.02231
736.0,0.02218
737.0,0.02216
738.0,0.02256
739.0,0.02201
740.0,0.02252
741.0,0.02222
742.0,0.02216
743.0,0.02261
744.0,0.02245
745.0,0.02236
746.0,0.02235
747.0,0.0223
748.0,0.02214
749.0,0.02178
750.0,0.02168
751.0,0.02137
752.0,0.02138
753.0,0.02139
754.0,0.02134
755.0,0.02113
756.0,0.02104
757.0,0.02097
758.0,0.02061
759.0,0.02
760.0,0.002744
761.0,0.001437
762.0,0.008865
763.0,0.00417
764.0,0.00639
765.0,0.008732
766.0,0.01108
767.0,0.01449
768.0,0.01723
769.0,0.01765
770.0,0.01834
771.0,0.01848
772.0,0.01845
773.0,0.01849
774.0,0.0183
775.0,0.01807
776.0,0.01821
777.0,0.01787
778.0,0.01767
779.0,0.01759
780.0,0.01741
781.0,0.01736
782.0,0.01739
783.0,0.01702
784.0,0.01704
785.0,0.01684
786.0,0.01695
787.0,0.01652
788.0,0.01621
789.0,0.01612
790.0,0.01552
791.0,0.01568
792.0,0.01551
793.0,0.01518
794.0,0.01547
795.0,0.01563
796.0,0.01495
797.0,0.01491
798.0,0.0154
799.0,0.01521
800.0,0.01484
801.0,0.0147
802.0,0.01459
803.0,0.01439
804.0,0.01436
805.0,0.01428
806.0,0.01468
807.0,0.01441
808.0,0.01436
809.0,0.01398
810.0,0.01376
811.0,0.01366
812.0,0.01311
813.0,0.01273
814.0,0.01088
815.0,0.01077
816.0,0.009885
817.0,0.01005
818.0,0.009588
819.0,0.0109
820.0,0.01013
821.0,0.01215
822.0,0.01169
823.0,0.007414
824.0,0.01116
825.0,0.01172
826.0,0.01113
827.0,0.01182
828.0,0.00967
829.0,0.01094
830.0,0.01073
831.0,0.01073
832.0,0.01029
833.0,0.01109
834.0,0.01056
835.0,0.01176
836.0,0.01107
837.0,0.0117
838.0,0.01122
839.0,0.01143
840.0,0.01164
841.0,0.0114
842.0,0.01141
843.0,0.0114
844.0,0.01116
845.0,0.01152
846.0,0.01142
847.0,0.01117
848.0,0.01103
849.0,0.01066
850.0,0.01017
851.0,0.01069
852.0,0.01057
853.0,0.01014
854.0,0.008705
855.0,0.009544
856.0,0.01038
857.0,0.01059
858.0,0.01046
859.0,0.01044
860.0,0.01042
861.0,0.01032
862.0,0.01044
863.0,0.01065
864.0,0.01008
865.0,0.009956
866.0,0.008917
867.0,0.009268
868.0,0.01005
869.0,0.009797
870.0,0.01004
871.0,0.009859
872.0,0.009784
873.0,0.009724
874.0,0.009566
875.0,0.00933
876.0,0.009384
877.0,0.009441
878.0,0.009499
879.0,0.009314
880.0,0.009076
881.0,0.008894
882.0,0.009047
883.0,0.009046
884.0,0.008961
885.0,0.008986
886.0,0.008498
887.0,0.008577
888.0,0.008652
889.0,0.00874
890.0,0.008595
891.0,0.008563
892.0,0.008245
893.0,0.007904
894.0,0.007502
895.0,0.006948
896.0,0.006443
897.0,0.005363
898.0,0.005912
899.0,0.004288
900.0,0.006081
901.0,0.004506
902.0,0.005442
903.0,0.005426
904.0,0.007141
905.0,0.006818
906.0,0.006304
907.0,0.004878
908.0,0.004996
909.0,0.005489
910.0,0.004686
911.0,0.005067
912.0,0.005308
913.0,0.004696
914.0,0.004652
915.0,0.005064
916.0,0.004183
917.0,0.005508
918.0,0.004265
919.0,0.005593
920.0,0.005698
921.0,0.005949
922.0,0.005173
923.0,0.005706
924.0,0.005256
925.0,0.00511
926.0,0.005151
927.0,0.005857
928.0,0.003986
929.0,0.003562
930.0,0.002678
931.0,0.002517
932.0,0.001725
933.0,0.001365
934.0,0.0007035
935.0,0.001399
936.0,0.000834
937.0,0.0008409
938.0,0.001044
939.0,0.002355
940.0,0.002902
941.0,0.002094
942.0,0.00246
943.0,0.001533
944.0,0.001642
945.0,0.002132
946.0,0.001004
947.0,0.002113
948.0,0.001511
949.0,0.002919
950.0,0.0007048
951.0,0.002858
952.0,0.001413
953.0,0.001879
954.0,0.002377
955.0,0.001898
956.0,0.001861
957.0,0.001386
958.0,0.002742
959.0,0.002075
960.0,0.002341
961.0,0.002685
962.0,0.002517
963.0,0.00297
964.0,0.002675
965.0,0.002935
966.0,0.002921
967.0,0.002887
968.0,0.004156
969.0,0.004323
970.0,0.003897
971.0,0.004602
972.0,0.004339
973.0,0.003626
974.0,0.003406
975.0,0.003556
976.0,0.003304
977.0,0.003893
978.0,0.003624
979.0,0.003827
980.0,0.003543
981.0,0.004403
982.0,0.004141
983.0,0.003928
984.0,0.004547
985.0,0.004078
986.0,0.004629
987.0,0.004482
988.0,0.004456
989.0,0.004584
990.0,0.004396
991.0,0.00455
992.0,0.004564
993.0,0.004409
994.0,0.004535
995.0,0.004519
996.0,0.004476
997.0,0.004469
998.0,0.00443
999.0,0.0044
1000.0,0.004343
1001.0,0.004392
1002.0,0.004215
1003.0,0.004279
1004.0,0.004147
1005.0,0.003994
1006.0,0.004126
1007.0,0.004201
1008.0,0.004156
1009.0,0.004111
1010.0,0.004074
1011.0,0.004119
1012.0,0.004059
1013.0,0.00408
1014.0,0.004037
1015.0,0.003994
1016.0,0.003959
1017.0,0.003953
1018.0,0.003927
1019.0,0.003814
1020.0,0.003874
1021.0,0.003856
1022.0,0.003806
1023.0,0.003831
1024.0,0.003753
1025.0,0.003806
1026.0,0.003771
1027.0,0.003748
1028.0,0.003726
1029.0,0.003667
1030.0,0.003684
1031.0,0.003653
1032.0,0.00363
1033.0,0.003561
1034.0,0.003548
1035.0,0.003545
1036.0,0.003548
1037.0,0.003478
1038.0,0.00348
1039.0,0.003465
1040.0,0.003438
1041.0,0.003437
1042.0,0.0034
1043.0,0.003376
1044.0,0.003375
1045.0,0.003316
1046.0,0.003266
1047.0,0.003282
1048.0,0.003287
1049.0,0.003263
1050.0,0.003235
1051.0,0.003217
1052.0,0.003191
1053.0,0.003153
1054.0,0.003147
1055.0,0.003135
1056.0,0.00311
1057.0,0.003088
1058.0,0.002999
1059.0,0.00299
1060.0,0.002974
1061.0,0.002958
1062.0,0.00296
1063.0,0.002919
1064.0,0.002944
1065.0,0.002908
1066.0,0.002843
1067.0,0.002868
1068.0,0.002792
1069.0,0.002698
1070.0,0.002776
1071.0,0.002819
1072.0,0.002768
1073.0,0.002721
1074.0,0.002794
1075.0,0.002613
1076.0,0.002769
1077.0,0.002692
1078.0,0.002624
1079.0,0.0027
1080.0,0.002619
1081.0,0.002515
1082.0,0.002571
1083.0,0.002576
1084.0,0.002472
1085.0,0.002583
1086.0,0.002298
1087.0,0.002402
1088.0,0.002521
1089.0,0.002406
1090.0,0.002324
1091.0,0.002477
1092.0,0.002468
1093.0,0.002003
1094.0,0.002233
1095.0,0.002085
1096.0,0.001966
1097.0,0.002371
1098.0,0.001914
1099.0,0.002001
1100.0,0.001818
1101.0,0.001846
1102.0,0.001739
1103.0,0.001702
1104.0,0.001701
1105.0,0.001906
1106.0,0.001349
1107.0,0.001775
1108.0,0.001435
1109.0,0.001438
1110.0,0.001731
1111.0,0.001079
1112.0,0.001415
1113.0,0.0008217
1114.0,0.0009248
1115.0,0.0007501
1116.0,0.0005712
1117.0,0.0001895
1118.0,0.0006246
1119.0,0.0002871
1120.0,0.0003621
1121.0,0.0004909
1122.0,0.0001919
1123.0,0.0003227
1124.0,0.0002696
1125.0,0.0003572
1126.0,0.0001141
1127.0,0.0004027
1128.0,0.0002275
1129.0,0.0002418
1130.0,0.0001551
1131.0,0.0008126
1132.0,0.0006181
1133.0,0.0003671
1134.0,8.587e-05
1135.0,3.192e-05
1136.0,0.0002967
1137.0,0.0007748
1138.0,0.0005286
1139.0,0.0008461
1140.0,0.0006799
1141.0,0.000496
1142.0,0.0005796
1143.0,0.0008589
1144.0,0.0002668
1145.0,0.0003391
1146.0,0.0003654
1147.0,0.0001185
1148.0,0.0007197
1149.0,0.0005538
1150.0,0.000284
1151.0,0.0005011
1152.0,0.0006348
1153.0,0.0006243
1154.0,0.0003185
1155.0,0.0008386
1156.0,0.0007382
1157.0,0.0008497
1158.0,0.0008364
1159.0,0.0009163
1160.0,0.0007615
1161.0,0.0009786
1162.0,0.0009754
1163.0,0.001405
1164.0,0.001164
1165.0,0.001071
1166.0,0.001072
1167.0,0.001182
1168.0,0.001189
1169.0,0.001224
1170.0,0.001351
1171.0,0.001307
1172.0,0.001339
1173.0,0.001334
1174.0,0.0008857
1175.0,0.001304
1176.0,0.001462
1177.0,0.001378
1178.0,0.0009752
1179.0,0.00146
1180.0,0.001259
1181.0,0.001301
1182.0,0.0008348
1183.0,0.001281
1184.0,0.001173
1185.0,0.001115
1186.0,0.001373
1187.0,0.001287
1188.0,0.0008325
1189.0,0.001184
1190.0,0.001324
1191.0,0.001227
1192.0,0.001337
1193.0,0.001265
1194.0,0.001309
1195.0,0.001216
1196.0,0.001156
1197.0,0.001309
1198.0,0.001176
1199.0,0.0009577
1200.0,0.001224
1201.0,0.001162
1202.0,0.001159
1203.0,0.001147
1204.0,0.0009713
1205.0,0.001186
1206.0,0.001336
1207.0,0.001137
1208.0,0.001128
1209.0,0.001149
1210.0,0.001204
1211.0,0.001127
1212.0,0.001095
1213.0,0.001256
1214.0,0.001122
1215.0,0.001094
1216.0,0.001241
1217.0,0.001196
1218.0,0.001222
1219.0,0.001199
1220.0,0.001216
1221.0,0.001229
1222.0,0.001188
1223.0,0.00117
1224.0,0.001153
1225.0,0.001205
1226.0,0.001214
1227.0,0.001096
1228.0,0.001216
1229.0,0.001203
1230.0,0.001174
1231.0,0.001217
1232.0,0.001205
1233.0,0.001144
1234.0,0.001207
1235.0,0.001193
1236.0,0.0012
1237.0,0.001173
1238.0,0.001188
1239.0,0.001169
1240.0,0.001171
1241.0,0.001157
1242.0,0.001155
1243.0,0.001141
1244.0,0.001144
1245.0,0.001146
1246.0,0.001136
1247.0,0.001127
1248.0,0.001121
1249.0,0.001122
1250.0,0.001111
1251.0,0.001091
1252.0,0.00109
1253.0,0.001073
1254.0,0.001055
1255.0,0.001078
1256.0,0.001034
1257.0,0.001023
1258.0,0.001047
1259.0,0.0009909
1260.0,0.000995
1261.0,0.0009188
1262.0,0.0008799
1263.0,0.0008785
1264.0,0.0007897
1265.0,0.0008681
1266.0,0.0008216
1267.0,0.0008412
1268.0,0.0007831
1269.0,0.0004279
1270.0,0.0008281
1271.0,0.0008922
1272.0,0.0008942
1273.0,0.00088
1274.0,0.0008825
1275.0,0.0008957
1276.0,0.0009049
1277.0,0.0009118
1278.0,0.0009335
1279.0,0.0009216
1280.0,0.0009075
1281.0,0.0008665
1282.0,0.0008377
1283.0,0.0008983
1284.0,0.0009158
1285.0,0.0009198
1286.0,0.0009324
1287.0,0.0009095
1288.0,0.0009079
1289.0,0.0008659
1290.0,0.0008949
1291.0,0.0009063
1292.0,0.0008294
1293.0,0.0008782
1294.0,0.0008682
1295.0,0.0008563
1296.0,0.0008031
1297.0,0.0007479
1298.0,0.0008212
1299.0,0.0008646
1300.0,0.0006971
1301.0,0.0007224
1302.0,0.0008096
1303.0,0.0006835
1304.0,0.0005566
1305.0,0.0007825
1306.0,0.0007785
1307.0,0.0005694
1308.0,0.0006763
1309.0,0.0007624
1310.0,0.0005513
1311.0,0.0006363
1312.0,0.0006153
1313.0,0.0005959
1314.0,0.0005194
1315.0,0.0005096
1316.0,0.0006139
1317.0,0.0005735
1318.0,0.0006342
1319.0,0.0004647
1320.0,0.00045
1321.0,0.0005373
1322.0,0.0005387
1323.0,0.0003811
1324.0,0.0004487
1325.0,0.0005858
1326.0,0.0004852
1327.0,0.0004568
1328.0,0.0003831
1329.0,0.0002718
1330.0,0.0003649
1331.0,0.0002035
1332.0,0.0002119
1333.0,0.0003026
1334.0,0.0002572
1335.0,0.0003655
1336.0,0.0002773
1337.0,0.000241
1338.0,0.0002611
1339.0,0.0002604
1340.0,0.0002539
1341.0,0.0002415
1342.0,0.0002545
1343.0,0.0001607
1344.0,9.435e-05
1345.0,0.0001374
1346.0,6.423e-05
1347.0,6.481e-05
1348.0,4.041e-06
1349.0,1.456e-05
1350.0,1.512e-05
1351.0,3.626e-06
1352.0,9.74e-07
1353.0,4.956e-08
1354.0,1.703e-07
1355.0,1.371e-09
1356.0,2.4e-08
1357.0,3.646e-08
