interpolation:linear
wavelength,value
280.0,2.154e-22
280.5,7.109000000000001e-21
281.0,3.816e-20
281.5,3.883e-19
282.0,6.182e-19
282.5,1.532e-18
283.0,4.846e-18
283.5,7.894e-18
284.0,1.303e-16
284.5,3.808e-16
285.0,6.237e-16
285.5,3.114e-15
286.0,1.257e-14
286.5,5.668e-14
287.0,1.629e-13
287.5,6.29e-13
288.0,2.211e-12
288.5,6.608e-12
289.0,1.747e-11
289.5,5.25e-11
290.0,1.454e-10
290.5,2.962e-10
291.0,6.354e-10
291.5,1.824e-09
292.0,3.657e-09
292.5,5.135e-09
293.0,1.103e-08
293.5,2.687e-08
294.0,4.206e-08
294.5,5.753e-08
295.0,9.756e-08
295.5,1.614e-07
296.0,3.129e-07
296.5,4.398e-07
297.0,5.975e-07
297.5,1.615e-06
298.0,2.563e-06
298.5,2.592e-06
299.0,5.748e-06
299.5,9.651e-06
300.0,1.068e-05
300.5,1.556e-05
301.0,2.843e-05
301.5,4.564e-05
302.0,3.914e-05
302.5,7.827e-05
303.0,0.0001453
303.5,0.0001881
304.0,0.0001828
304.5,0.0002994
305.0,0.0005201
305.5,0.0006508
306.0,0.0006517
306.5,0.0008604
307.0,0.00146
307.5,0.002218
308.0,0.002391
308.5,0.00302
309.0,0.003098
309.5,0.003949
310.0,0.004166
310.5,0.006907
311.0,0.009016
311.5,0.008844
312.0,0.009648
312.5,0.01243
313.0,0.01388
313.5,0.01307
314.0,0.01751
314.5,0.01704
315.0,0.02273
315.5,0.01812
316.0,0.01706
316.5,0.02615
317.0,0.03235
317.5,0.03296
318.0,0.02687
318.5,0.03639
319.0,0.04509
319.5,0.0341
320.0,0.04067
320.5,0.05566
321.0,0.05378
321.5,0.05189
322.0,0.05044
322.5,0.04398
323.0,0.04635
323.5,0.06004
324.0,0.07057
324.5,0.06987
325.0,0.05841
325.5,0.07866
326.0,0.09717
326.5,0.1001
327.0,0.09844
327.5,0.09352
328.0,0.07989
328.5,0.08788
329.0,0.1093
329.5,0.1254
330.0,0.1249
330.5,0.09668
331.0,0.09727
331.5,0.1009
332.0,0.1126
332.5,0.1129
333.0,0.1113
333.5,0.09797
334.0,0.09973
334.5,0.1182
335.0,0.1128
335.5,0.1327
336.0,0.09162
336.5,0.1051
337.0,0.08497
337.5,0.105
338.0,0.1048
338.5,0.1221
339.0,0.1205
339.5,0.1157
340.0,0.1343
340.5,0.1211
341.0,0.1187
341.5,0.1088
342.0,0.1297
342.5,0.1211
343.0,0.1329
343.5,0.1249
344.0,0.0915
344.5,0.09286
345.0,0.1225
345.5,0.1248
346.0,0.1059
346.5,0.1196
347.0,0.1281
347.5,0.1033
348.0,0.1175
348.5,0.1173
349.0,0.1086
349.5,0.1072
350.0,0.1323
350.5,0.1393
351.0,0.1241
351.5,0.1202
352.0,0.1289
352.5,0.1004
353.0,0.1261
353.5,0.1346
354.0,0.1394
354.5,0.1411
355.0,0.1402
355.5,0.1264
356.0,0.132
356.5,0.1124
357.0,0.09264
357.5,0.1131
358.0,0.08946
358.5,0.07626
359.0,0.1064
359.5,0.1352
360.0,0.143
360.5,0.114
361.0,0.1037
361.5,0.1191
362.0,0.1028
362.5,0.1419
363.0,0.1271
363.5,0.1168
364.0,0.1425
364.5,0.1215
365.0,0.1234
365.5,0.1545
366.0,0.1633
366.5,0.1531
367.0,0.1487
367.5,0.1539
368.0,0.1344
368.5,0.1352
369.0,0.1457
369.5,0.1549
370.0,0.1647
370.5,0.1275
371.0,0.1359
371.5,0.1696
372.0,0.1122
372.5,0.1342
373.0,0.1362
373.5,0.08839
374.0,0.1281
374.5,0.1058
375.0,0.1026
375.5,0.1528
376.0,0.1263
376.5,0.1305
377.0,0.1379
377.5,0.1609
378.0,0.1739
378.5,0.1639
379.0,0.1349
379.5,0.1229
380.0,0.1274
380.5,0.1538
381.0,0.1537
381.5,0.1215
382.0,0.1076
382.5,0.0915
383.0,0.08447
383.5,0.08114
384.0,0.08926
384.5,0.1309
385.0,0.1295
385.5,0.1203
386.0,0.1027
386.5,0.1345
387.0,0.1115
387.5,0.1249
388.0,0.115
388.5,0.1133
389.0,0.122
389.5,0.1473
390.0,0.1474
390.5,0.1353
391.0,0.1588
391.5,0.1615
392.0,0.1356
392.5,0.1211
393.0,0.06718
393.5,0.0487
394.0,0.09882
394.5,0.1253
395.0,0.1524
395.5,0.1544
396.0,0.1335
396.5,0.07781
397.0,0.05823
397.5,0.1181
398.0,0.1649
398.5,0.1699
399.0,0.1835
399.5,0.1824
400.0,0.1888
401.0,0.1856
402.0,0.1947
403.0,0.1838
404.0,0.1799
405.0,0.1788
406.0,0.1749
407.0,0.171
408.0,0.1765
409.0,0.1878
410.0,0.1631
411.0,0.1756
412.0,0.1875
413.0,0.1818
414.0,0.1829
415.0,0.1823
416.0,0.1843
417.0,0.1786
418.0,0.1742
419.0,0.1754
420.0,0.1735
421.0,0.1803
422.0,0.1703
423.0,0.1652
424.0,0.1735
425.0,0.172
426.0,0.1665
427.0,0.1624
428.0,0.1573
429.0,0.1481
430.0,0.1288
431.0,0.1268
432.0,0.1626
433.0,0.1624
434.0,0.1498
435.0,0.1555
436.0,0.1741
437.0,0.1707
438.0,0.1544
439.0,0.1585
440.0,0.1624
441.0,0.1671
442.0,0.1779
443.0,0.1721
444.0,0.1748
445.0,0.17
446.0,0.1614
447.0,0.1734
448.0,0.1748
449.0,0.1742
450.0,0.1778
451.0,0.1831
452.0,0.1753
453.0,0.1638
454.0,0.17
455.0,0.1698
456.0,0.1725
457.0,0.174
458.0,0.1667
459.0,0.1644
460.0,0.1635
461.0,0.1661
462.0,0.1663
463.0,0.1642
464.0,0.1608
465.0,0.1579
466.0,0.1585
467.0,0.1545
468.0,0.155
469.0,0.1546
470.0,0.1486
471.0,0.1475
472.0,0.1544
473.0,0.1514
474.0,0.1505
475.0,0.1506
476.0,0.1448
477.0,0.1439
478.0,0.1466
479.0,0.1443
480.0,0.1433
481.0,0.1446
482.0,0.1443
483.0,0.1417
484.0,0.138
485.0,0.1308
486.0,0.1138
487.0,0.1186
488.0,0.1292
489.0,0.1286
490.0,0.1343
491.0,0.131
492.0,0.1228
493.0,0.1259
494.0,0.1263
495.0,0.1265
496.0,0.1262
497.0,0.1271
498.0,0.12
499.0,0.1204
500.0,0.1157
501.0,0.1124
502.0,0.1096
503.0,0.1129
504.0,0.1089
505.0,0.1119
506.0,0.1148
507.0,0.1085
508.0,0.1046
509.0,0.1069
510.0,0.1058
511.0,0.108
512.0,0.1084
513.0,0.1018
514.0,0.1003
515.0,0.09853
516.0,0.09753
517.0,0.08602
518.0,0.08977
519.0,0.09344
520.0,0.09607
521.0,0.09617
522.0,0.09543
523.0,0.09298
524.0,0.09542
525.0,0.09563
526.0,0.09051
527.0,0.08443
528.0,0.08842
529.0,0.09237
530.0,0.09027
531.0,0.09084
532.0,0.08702
533.0,0.08387
534.0,0.08577
535.0,0.08711
536.0,0.08737
537.0,0.08339
538.0,0.08429
539.0,0.08302
540.0,0.07902
541.0,0.07889
542.0,0.08067
543.0,0.0792
544.0,0.07998
545.0,0.07919
546.0,0.07893
547.0,0.07833
548.0,0.07685
549.0,0.07656
550.0,0.07693
551.0,0.07546
552.0,0.07543
553.0,0.07354
554.0,0.07474
555.0,0.07432
556.0,0.07278
557.0,0.06992
558.0,0.06877
559.0,0.06687
560.0,0.0671
561.0,0.06735
562.0,0.06625
563.0,0.06746
564.0,0.06509
565.0,0.06401
566.0,0.06257
567.0,0.06323
568.0,0.06213
569.0,0.06009
570.0,0.05965
571.0,0.05887
572.0,0.05976
573.0,0.05998
574.0,0.05942
575.0,0.05795
576.0,0.05711
577.0,0.05743
578.0,0.05632
579.0,0.05632
580.0,0.05719
581.0,0.05726
582.0,0.0581
583.0,0.05801
584.0,0.05826
585.0,0.05655
586.0,0.05505
587.0,0.05588
588.0,0.05406
589.0,0.04735
590.0,0.04923
591.0,0.05191
592.0,0.0508
593.0,0.05126
594.0,0.05045
595.0,0.04872
596.0,0.05047
597.0,0.04948
598.0,0.04901
599.0,0.0487
600.0,0.04847
601.0,0.0478
602.0,0.0472
603.0,0.04772
604.0,0.04826
605.0,0.0478
606.0,0.04743
607.0,0.04774
608.0,0.04704
609.0,0.04696
610.0,0.04649
611.0,0.04658
612.0,0.0463
613.0,0.04555
614.0,0.04478
615.0,0.0456
616.0,0.04395
617.0,0.0437
618.0,0.04521
619.0,0.04458
620.0,0.04467
621.0,0.0445
622.0,0.04376
623.0,0.04288
624.0,0.04196
625.0,0.04169
626.0,0.04214
627.0,0.04238
628.0,0.03886
629.0,0.04081
630.0,0.03968
631.0,0.04058
632.0,0.03997
633.0,0.04111
634.0,0.04061
635.0,0.0411
636.0,0.04043
637.0,0.04095
638.0,0.04123
639.0,0.04063
640.0,0.04011
641.0,0.03993
642.0,0.03963
643.0,0.04003
644.0,0.03977
645.0,0.03964
646.0,0.03848
647.0,0.03772
648.0,0.03758
649.0,0.03668
650.0,0.03688
651.0,0.03835
652.0,0.03638
653.0,0.03752
654.0,0.03696
655.0,0.03532
656.0,0.03124
657.0,0.03197
658.0,0.03575
659.0,0.03588
660.0,0.03588
661.0,0.03598
662.0,0.03587
663.0,0.03504
664.0,0.03536
665.0,0.03528
666.0,0.03517
667.0,0.03503
668.0,0.03492
669.0,0.03533
670.0,0.03503
671.0,0.03489
672.0,0.03448
673.0,0.03489
674.0,0.03462
675.0,0.03416
676.0,0.03426
677.0,0.03379
678.0,0.03376
679.0,0.03309
680.0,0.03321
681.0,0.03285
682.0,0.03266
683.0,0.03245
684.0,0.03213
685.0,0.03226
686.0,0.03192
687.0,0.01942
688.0,0.02332
689.0,0.02332
690.0,0.02461
691.0,0.02612
692.0,0.02725
693.0,0.02688
694.0,0.02654
695.0,0.02775
696.0,0.02767
697.0,0.0296
698.0,0.02901
699.0,0.02797
700.0,0.0275
701.0,0.02704
702.0,0.0272
703.0,0.02713
704.0,0.02799
705.0,0.0279
706.0,0.0278
707.0,0.02772
708.0,0.02764
709.0,0.02763
710.0,0.02745
711.0,0.02734
712.0,0.0272
713.0,0.02676
714.0,0.02673
715.0,0.02567
716.0,0.02555
717.0,0.02138
718.0,0.0194
719.0,0.01756
720.0,0.01833
721.0,0.02053
722.0,0.02393
723.0,0.02189
724.0,0.01932
725.0,0.01887
726.0,0.01976
727.0,0.02004
728.0,0.01857
729.0,0.01939
730.0,0.02046
731.0,0.0194
732.0,0.02091
733.0,0.02228
734.0,0.02277
735.0,0.02216
736.0,0.02203
737.0,0.02201
738.0,0.02241
739.0,0.02186
740.0,0.02237
741.0,0.02207
742.0,0.02201
743.0,0.02246
744.0,0.0223
745.0,0.02221
746.0,0.0222
747.0,0.02215
748.0,0.02199
749.0,0.02164
750.0,0.02153
751.0,0.02123
752.0,0.02124
753.0,0.02125
754.0,0.02121
755.0,0.021
756.0,0.0209
757.0,0.02084
758.0,0.02048
759.0,0.01987
760.0,0.00273
761.0,0.001431
762.0,0.008794
763.0,0.004143
764.0,0.006343
765.0,0.008662
766.0,0.01099
767.0,0.01438
768.0,0.01711
769.0,0.01753
770.0,0.01822
771.0,0.01836
772.0,0.01833
773.0,0.01837
774.0,0.01818
775.0,0.01796
776.0,0.01809
777.0,0.01776
778.0,0.01756
779.0,0.01748
780.0,0.0173
781.0,0.01724
782.0,0.01728
783.0,0.01692
784.0,0.01693
785.0,0.01673
786.0,0.01684
787.0,0.01641
788.0,0.0161
789.0,0.01602
790.0,0.01542
791.0,0.01558
792.0,0.01541
793.0,0.01508
794.0,0.01537
795.0,0.01554
796.0,0.01486
797.0,0.01481
798.0,0.0153
799.0,0.01511
800.0,0.01475
801.0,0.0146
802.0,0.01449
803.0,0.0143
804.0,0.01427
805.0,0.01419
806.0,0.01458
807.0,0.01432
808.0,0.01427
809.0,0.01389
810.0,0.01367
811.0,0.01357
812.0,0.01303
813.0,0.01265
814.0,0.01081
815.0,0.0107
816.0,0.009818
817.0,0.00998
818.0,0.009523
819.0,0.01083
820.0,0.01006
821.0,0.01208
822.0,0.01162
823.0,0.007364
824.0,0.01109
825.0,0.01165
826.0,0.01105
827.0,0.01175
828.0,0.009606
829.0,0.01087
830.0,0.01066
831.0,0.01066
832.0,0.01023
833.0,0.01102
834.0,0.01049
835.0,0.01169
836.0,0.011
837.0,0.01163
838.0,0.01115
839.0,0.01136
840.0,0.01157
841.0,0.01133
842.0,0.01134
843.0,0.01133
844.0,0.01109
845.0,0.01145
846.0,0.01135
847.0,0.0111
848.0,0.01096
849.0,0.0106
850.0,0.01011
851.0,0.01063
852.0,0.01051
853.0,0.01008
854.0,0.008652
855.0,0.009486
856.0,0.01032
857.0,0.01052
858.0,0.0104
859.0,0.01037
860.0,0.01035
861.0,0.01025
862.0,0.01038
863.0,0.01059
864.0,0.01002
865.0,0.009897
866.0,0.008864
867.0,0.009213
868.0,0.009985
869.0,0.009739
870.0,0.009977
871.0,0.0098
872.0,0.009726
873.0,0.009667
874.0,0.00951
875.0,0.009275
876.0,0.009329
877.0,0.009385
878.0,0.009443
879.0,0.009259
880.0,0.009022
881.0,0.008841
882.0,0.008993
883.0,0.008992
884.0,0.008907
885.0,0.008933
886.0,0.008447
887.0,0.008526
888.0,0.0086
889.0,0.008688
890.0,0.008544
891.0,0.008512
892.0,0.008195
893.0,0.007855
894.0,0.007455
895.0,0.006903
896.0,0.006401
897.0,0.005328
898.0,0.005873
899.0,0.00426
900.0,0.006041
901.0,0.004476
902.0,0.005406
903.0,0.005389
904.0,0.007095
905.0,0.006774
906.0,0.006264
907.0,0.004846
908.0,0.004963
909.0,0.005453
910.0,0.004655
911.0,0.005035
912.0,0.005272
913.0,0.004664
914.0,0.004621
915.0,0.005029
916.0,0.004156
917.0,0.00547
918.0,0.004236
919.0,0.005556
920.0,0.005662
921.0,0.00591
922.0,0.005139
923.0,0.00567
924.0,0.00522
925.0,0.005076
926.0,0.005115
927.0,0.005817
928.0,0.003958
929.0,0.003536
930.0,0.002659
931.0,0.0025
932.0,0.001713
933.0,0.001356
934.0,0.0007001
935.0,0.00139
936.0,0.0008296
937.0,0.0008365
938.0,0.001038
939.0,0.002338
940.0,0.002881
941.0,0.00208
942.0,0.002442
943.0,0.001523
944.0,0.001632
945.0,0.002117
946.0,0.0009982
947.0,0.002098
948.0,0.001501
949.0,0.002898
950.0,0.0007013
951.0,0.002836
952.0,0.001404
953.0,0.001867
954.0,0.00236
955.0,0.001885
956.0,0.00185
957.0,0.001377
958.0,0.002724
959.0,0.002061
960.0,0.002325
961.0,0.002667
962.0,0.0025
963.0,0.00295
964.0,0.002657
965.0,0.002915
966.0,0.0029
967.0,0.002867
968.0,0.00413
969.0,0.004293
970.0,0.003871
971.0,0.004573
972.0,0.004311
973.0,0.003602
974.0,0.003383
975.0,0.003533
976.0,0.003282
977.0,0.003868
978.0,0.0036
979.0,0.003802
980.0,0.00352
981.0,0.004375
982.0,0.004114
983.0,0.003902
984.0,0.004519
985.0,0.004051
986.0,0.004601
987.0,0.004455
988.0,0.004429
989.0,0.004557
990.0,0.004369
991.0,0.004522
992.0,0.004537
993.0,0.004382
994.0,0.004508
995.0,0.004492
996.0,0.004449
997.0,0.004443
998.0,0.004404
999.0,0.004374
1000.0,0.004318
1001.0,0.004366
1002.0,0.004189
1003.0,0.004254
1004.0,0.004122
1005.0,0.003971
1006.0,0.004102
1007.0,0.004177
1008.0,0.004131
1009.0,0.004086
1010.0,0.004049
1011.0,0.004094
1012.0,0.004035
1013.0,0.004056
1014.0,0.004013
1015.0,0.00397
1016.0,0.003936
1017.0,0.003929
1018.0,0.003904
1019.0,0.003791
1020.0,0.003851
1021.0,0.003833
1022.0,0.003783
1023.0,0.003809
1024.0,0.003731
1025.0,0.003783
1026.0,0.003749
1027.0,0.003726
1028.0,0.003704
1029.0,0.003646
1030.0,0.003662
1031.0,0.003631
1032.0,0.003608
1033.0,0.00354
1034.0,0.003527
1035.0,0.003524
1036.0,0.003527
1037.0,0.003457
1038.0,0.00346
1039.0,0.003445
1040.0,0.003417
1041.0,0.003417
1042.0,0.00338
1043.0,0.003356
1044.0,0.003355
1045.0,0.003296
1046.0,0.003246
1047.0,0.003262
1048.0,0.003268
1049.0,0.003243
1050.0,0.003215
1051.0,0.003198
1052.0,0.003172
1053.0,0.003134
1054.0,0.003128
1055.0,0.003116
1056.0,0.003091
1057.0,0.003069
1058.0,0.002981
1059.0,0.002972
1060.0,0.002956
1061.0,0.00294
1062.0,0.002942
1063.0,0.002902
1064.0,0.002926
1065.0,0.00289
1066.0,0.002826
1067.0,0.00285
1068.0,0.002774
1069.0,0.002681
1070.0,0.002759
1071.0,0.002802
1072.0,0.002751
1073.0,0.002705
1074.0,0.002777
1075.0,0.002597
1076.0,0.002752
1077.0,0.002675
1078.0,0.002608
1079.0,0.002684
1080.0,0.002603
1081.0,0.002499
1082.0,0.002556
1083.0,0.002561
1084.0,0.002456
1085.0,0.002567
1086.0,0.002284
1087.0,0.002387
1088.0,0.002506
1089.0,0.002391
1090.0,0.00231
1091.0,0.002462
1092.0,0.002453
1093.0,0.00199
1094.0,0.002219
1095.0,0.002071
1096.0,0.001953
1097.0,0.002356
1098.0,0.001901
1099.0,0.001987
1100.0,0.001806
1101.0,0.001834
1102.0,0.001727
1103.0,0.00169
1104.0,0.001689
1105.0,0.001893
1106.0,0.001339
1107.0,0.001763
1108.0,0.001425
1109.0,0.001428
1110.0,0.001719
1111.0,0.001071
1112.0,0.001405
1113.0,0.0008161
1114.0,0.0009182
1115.0,0.0007451
1116.0,0.0005675
1117.0,0.0001887
1118.0,0.0006204
1119.0,0.0002856
1120.0,0.00036
1121.0,0.0004877
1122.0,0.000191
1123.0,0.0003209
1124.0,0.0002682
1125.0,0.000355
1126.0,0.0001137
1127.0,0.0004002
1128.0,0.0002264
1129.0,0.0002406
1130.0,0.0001545
1131.0,0.0008064
1132.0,0.0006137
1133.0,0.0003649
1134.0,8.56e-05
1135.0,3.185e-05
1136.0,0.0002951
1137.0,0.0007688
1138.0,0.0005249
1139.0,0.0008399
1140.0,0.000675
1141.0,0.0004927
1142.0,0.0005755
1143.0,0.0008523
1144.0,0.0002654
1145.0,0.0003371
1146.0,0.0003631
1147.0,0.0001181
1148.0,0.0007144
1149.0,0.0005499
1150.0,0.0002825
1151.0,0.0004977
1152.0,0.0006302
1153.0,0.0006199
1154.0,0.0003166
1155.0,0.0008323
1156.0,0.0007328
1157.0,0.0008436
1158.0,0.0008304
1159.0,0.0009095
1160.0,0.0007563
1161.0,0.0009717
1162.0,0.0009685
1163.0,0.001396
1164.0,0.001156
1165.0,0.001064
1166.0,0.001065
1167.0,0.001174
1168.0,0.001181
1169.0,0.001216
1170.0,0.001342
1171.0,0.001298
1172.0,0.00133
1173.0,0.001325
1174.0,0.0008798
1175.0,0.001295
1176.0,0.001453
1177.0,0.001369
1178.0,0.0009689
1179.0,0.001451
1180.0,0.001251
1181.0,0.001293
1182.0,0.0008294
1183.0,0.001273
1184.0,0.001166
1185.0,0.001107
1186.0,0.001364
1187.0,0.001278
1188.0,0.0008268
1189.0,0.001177
1190.0,0.001315
1191.0,0.001218
1192.0,0.001329
1193.0,0.001257
1194.0,0.001301
1195.0,0.001208
1196.0,0.001148
1197.0,0.001301
1198.0,0.001169
1199.0,0.0009513
1200.0,0.001216
1201.0,0.001155
1202.0,0.001152
1203.0,0.001139
1204.0,0.000965
1205.0,0.001179
1206.0,0.001328
1207.0,0.00113
1208.0,0.001121
1209.0,0.001141
1210.0,0.001197
1211.0,0.00112
1212.0,0.001088
1213.0,0.001248
1214.0,0.001115
1215.0,0.001086
1216.0,0.001233
1217.0,0.001188
1218.0,0.001214
1219.0,0.001191
1220.0,0.001208
1221.0,0.001222
1222.0,0.00118
1223.0,0.001163
1224.0,0.001146
1225.0,0.001197
1226.0,0.001207
1227.0,0.001089
1228.0,0.001209
1229.0,0.001196
1230.0,0.001167
1231.0,0.001209
1232.0,0.001198
1233.0,0.001137
1234.0,0.0012
1235.0,0.001186
1236.0,0.001193
1237.0,0.001166
1238.0,0.001181
1239.0,0.001162
1240.0,0.001164
1241.0,0.001151
1242.0,0.001148
1243.0,0.001135
1244.0,0.001138
1245.0,0.00114
1246.0,0.00113
1247.0,0.00112
1248.0,0.001114
1249.0,0.001116
1250.0,0.001104
1251.0,0.001084
1252.0,0.001084
1253.0,0.001066
1254.0,0.001048
1255.0,0.001071
1256.0,0.001028
1257.0,0.001017
1258.0,0.00104
1259.0,0.0009846
1260.0,0.0009886
1261.0,0.0009126
1262.0,0.0008737
1263.0,0.0008723
1264.0,0.0007838
1265.0,0.000862
1266.0,0.0008156
1267.0,0.0008352
1268.0,0.0007773
1269.0,0.0004244
1270.0,0.0008221
1271.0,0.0008862
1272.0,0.0008882
1273.0,0.000874
1274.0,0.0008766
1275.0,0.0008897
1276.0,0.0008989
1277.0,0.000906
1278.0,0.0009276
1279.0,0.0009159
1280.0,0.0009018
1281.0,0.0008611
1282.0,0.0008327
1283.0,0.0008929
1284.0,0.0009102
1285.0,0.0009143
1286.0,0.0009268
1287.0,0.0009039
1288.0,0.0009025
1289.0,0.0008604
1290.0,0.0008895
1291.0,0.0009009
1292.0,0.0008241
1293.0,0.0008728
1294.0,0.0008629
1295.0,0.0008509
1296.0,0.0007978
1297.0,0.000743
1298.0,0.000816
1299.0,0.0008594
1300.0,0.0006925
1301.0,0.0007177
1302.0,0.0008045
1303.0,0.0006791
1304.0,0.0005527
1305.0,0.0007776
1306.0,0.0007735
1307.0,0.0005655
1308.0,0.000672
1309.0,0.0007574
1310.0,0.0005475
1311.0,0.0006322
1312.0,0.0006113
1313.0,0.0005919
1314.0,0.0005159
1315.0,0.000506
1316.0,0.0006098
1317.0,0.0005697
1318.0,0.0006301
1319.0,0.0004614
1320.0,0.000447
1321.0,0.0005337
1322.0,0.0005349
1323.0,0.0003784
1324.0,0.0004456
1325.0,0.0005818
1326.0,0.0004819
1327.0,0.0004537
1328.0,0.0003805
1329.0,0.0002699
1330.0,0.0003622
1331.0,0.0002021
1332.0,0.0002105
1333.0,0.0003003
1334.0,0.0002555
1335.0,0.0003628
1336.0,0.0002753
1337.0,0.0002394
1338.0,0.0002593
1339.0,0.0002585
1340.0,0.0002522
1341.0,0.0002397
1342.0,0.0002527
1343.0,0.0001596
1344.0,9.387e-05
1345.0,0.0001366
1346.0,6.396e-05
1347.0,6.454e-05
1348.0,4.036e-06
1349.0,1.454e-05
1350.0,1.509e-05
1351.0,3.623e-06
1352.0,9.733e-07
1353.0,4.952e-08
1354.0,1.702e-07
1355.0,1.371e-09
1356.0,2.398e-08
