interpolation:linear
wavelength,value
280.0,3.9499999999999996e-23
280.5,1.3330000000000001e-21
281.0,7.237e-21
281.5,2.361e-19
282.0,4.82e-19
282.5,1.104e-18
283.0,3.386e-18
283.5,5.491e-18
284.0,8.969e-17
284.5,2.634e-16
285.0,8.293e-16
285.5,3.167e-15
286.0,1.221e-14
286.5,5.179e-14
287.0,1.452e-13
287.5,5.498e-13
288.0,1.659e-12
288.5,4.707e-12
289.0,1.212e-11
289.5,3.59e-11
290.0,9.907e-11
290.5,2.02e-10
291.0,4.346e-10
291.5,1.253e-09
292.0,2.572e-09
292.5,3.574e-09
293.0,7.579e-09
293.5,1.82e-08
294.0,2.836e-08
294.5,3.392e-08
295.0,5.699e-08
295.5,9.594e-08
296.0,1.79e-07
296.5,2.417e-07
297.0,3.171e-07
297.5,8.096e-07
298.0,1.219e-06
298.5,1.181e-06
299.0,2.505e-06
299.5,3.87e-06
300.0,4.077e-06
300.5,5.639e-06
301.0,9.438e-06
301.5,1.396e-05
302.0,1.147e-05
302.5,2.181e-05
303.0,3.746e-05
303.5,4.627e-05
304.0,4.391e-05
304.5,6.765e-05
305.0,0.0001083
305.5,0.0001291
306.0,0.0001269
306.5,0.0001625
307.0,0.000258
307.5,0.0003681
308.0,0.0003932
308.5,0.0004817
309.0,0.0005014
309.5,0.0007065
310.0,0.0007817
310.5,0.001328
311.0,0.001804
311.5,0.001802
312.0,0.002143
312.5,0.002927
313.0,0.003373
313.5,0.003092
314.0,0.004445
314.5,0.004752
315.0,0.006452
315.5,0.004921
316.0,0.005005
316.5,0.008203
317.0,0.01015
317.5,0.01016
318.0,0.008674
318.5,0.01283
319.0,0.01663
319.5,0.01173
320.0,0.01386
320.5,0.02076
321.0,0.02177
321.5,0.0212
322.0,0.01892
322.5,0.01659
323.0,0.01852
323.5,0.02754
324.0,0.03283
324.5,0.03146
325.0,0.02368
325.5,0.03342
326.0,0.04584
326.5,0.04924
327.0,0.04776
327.5,0.04456
328.0,0.03598
328.5,0.04245
329.0,0.05558
329.5,0.06477
330.0,0.06385
330.5,0.04761
331.0,0.04731
331.5,0.0506
332.0,0.05884
332.5,0.06013
333.0,0.05875
333.5,0.05028
334.0,0.05099
334.5,0.06256
335.0,0.06088
335.5,0.07247
336.0,0.0501
336.5,0.05643
337.0,0.04505
337.5,0.05544
338.0,0.05693
338.5,0.06741
339.0,0.06687
339.5,0.06413
340.0,0.07343
340.5,0.06647
341.0,0.06618
341.5,0.06106
342.0,0.07303
342.5,0.06838
343.0,0.07484
343.5,0.07023
344.0,0.05074
344.5,0.05211
345.0,0.06934
345.5,0.07093
346.0,0.06035
346.5,0.06837
347.0,0.07308
347.5,0.05896
348.0,0.06742
348.5,0.06749
349.0,0.06262
349.5,0.06191
350.0,0.07653
350.5,0.08063
351.0,0.0718
351.5,0.06937
352.0,0.07466
352.5,0.05835
353.0,0.07355
353.5,0.07866
354.0,0.08164
354.5,0.08271
355.0,0.08227
355.5,0.07429
356.0,0.0777
356.5,0.06628
357.0,0.05469
357.5,0.0669
358.0,0.05299
358.5,0.04524
359.0,0.06318
359.5,0.08029
360.0,0.08506
360.5,0.06796
361.0,0.06192
361.5,0.07125
362.0,0.06157
362.5,0.08513
363.0,0.07638
363.5,0.07027
364.0,0.08585
364.5,0.07329
365.0,0.07454
365.5,0.09346
366.0,0.09892
366.5,0.09285
367.0,0.09033
367.5,0.09363
368.0,0.08183
368.5,0.08245
369.0,0.08894
369.5,0.0947
370.0,0.1008
370.5,0.07818
371.0,0.08343
371.5,0.1043
372.0,0.06911
372.5,0.08277
373.0,0.08408
373.5,0.05464
374.0,0.07929
374.5,0.06558
375.0,0.06367
375.5,0.09494
376.0,0.0786
376.5,0.08135
377.0,0.08602
377.5,0.1005
378.0,0.1088
378.5,0.1027
379.0,0.08463
379.5,0.07719
380.0,0.08014
380.5,0.09693
381.0,0.097
381.5,0.07679
382.0,0.0681
382.5,0.05797
383.0,0.05359
383.5,0.05155
384.0,0.05679
384.5,0.08341
385.0,0.0826
385.5,0.07681
386.0,0.06569
386.5,0.08617
387.0,0.07149
387.5,0.08018
388.0,0.07392
388.5,0.07296
389.0,0.07863
389.5,0.0951
390.0,0.09529
390.5,0.08756
391.0,0.1029
391.5,0.1048
392.0,0.08814
392.5,0.07879
393.0,0.04377
393.5,0.03177
394.0,0.06454
394.5,0.08194
395.0,0.09982
395.5,0.1012
396.0,0.08764
396.5,0.05115
397.0,0.03833
397.5,0.07782
398.0,0.1088
398.5,0.1123
399.0,0.1214
399.5,0.1208
400.0,0.1252
401.0,0.1233
402.0,0.1296
403.0,0.1227
404.0,0.1204
405.0,0.12
406.0,0.1176
407.0,0.1152
408.0,0.1192
409.0,0.1271
410.0,0.1107
411.0,0.1194
412.0,0.1278
413.0,0.1242
414.0,0.1252
415.0,0.1251
416.0,0.1267
417.0,0.1231
418.0,0.1203
419.0,0.1214
420.0,0.1204
421.0,0.1254
422.0,0.1186
423.0,0.1153
424.0,0.1213
425.0,0.1206
426.0,0.117
427.0,0.1143
428.0,0.111
429.0,0.1047
430.0,0.09124
431.0,0.08998
432.0,0.1156
433.0,0.1157
434.0,0.1069
435.0,0.1112
436.0,0.1248
437.0,0.1225
438.0,0.111
439.0,0.1141
440.0,0.117
441.0,0.1206
442.0,0.1286
443.0,0.1246
444.0,0.1268
445.0,0.1236
446.0,0.1176
447.0,0.1266
448.0,0.1278
449.0,0.1276
450.0,0.1304
451.0,0.1345
452.0,0.129
453.0,0.1208
454.0,0.1255
455.0,0.1255
456.0,0.1277
457.0,0.1289
458.0,0.1236
459.0,0.122
460.0,0.1214
461.0,0.1234
462.0,0.1237
463.0,0.1224
464.0,0.1201
465.0,0.1182
466.0,0.1189
467.0,0.116
468.0,0.1166
469.0,0.1164
470.0,0.112
471.0,0.1113
472.0,0.1167
473.0,0.1146
474.0,0.1141
475.0,0.1142
476.0,0.1098
477.0,0.1092
478.0,0.1112
479.0,0.1094
480.0,0.1086
481.0,0.1097
482.0,0.1096
483.0,0.1077
484.0,0.1052
485.0,0.09995
486.0,0.08713
487.0,0.09095
488.0,0.09921
489.0,0.09884
490.0,0.1033
491.0,0.1008
492.0,0.09461
493.0,0.09716
494.0,0.0976
495.0,0.09786
496.0,0.0978
497.0,0.09851
498.0,0.09303
499.0,0.09325
500.0,0.08959
501.0,0.087
502.0,0.0848
503.0,0.0873
504.0,0.08419
505.0,0.08666
506.0,0.08895
507.0,0.08427
508.0,0.08138
509.0,0.08342
510.0,0.0827
511.0,0.08453
512.0,0.08496
513.0,0.07987
514.0,0.07877
515.0,0.07743
516.0,0.07665
517.0,0.06761
518.0,0.07057
519.0,0.07347
520.0,0.07553
521.0,0.0756
522.0,0.07498
523.0,0.07303
524.0,0.07487
525.0,0.07494
526.0,0.07086
527.0,0.06602
528.0,0.06906
529.0,0.07209
530.0,0.07039
531.0,0.07077
532.0,0.06778
533.0,0.06532
534.0,0.06684
535.0,0.06793
536.0,0.06818
537.0,0.06512
538.0,0.06586
539.0,0.06486
540.0,0.06172
541.0,0.06159
542.0,0.06295
543.0,0.06178
544.0,0.06234
545.0,0.06172
546.0,0.0615
547.0,0.06104
548.0,0.0599
549.0,0.05969
550.0,0.05997
551.0,0.05882
552.0,0.05881
553.0,0.05733
554.0,0.05826
555.0,0.05791
556.0,0.05668
557.0,0.05444
558.0,0.05349
559.0,0.05196
560.0,0.05208
561.0,0.05223
562.0,0.05132
563.0,0.0522
564.0,0.05033
565.0,0.04947
566.0,0.04833
567.0,0.04882
568.0,0.04793
569.0,0.04631
570.0,0.04596
571.0,0.04534
572.0,0.046
573.0,0.04616
574.0,0.04573
575.0,0.04461
576.0,0.04399
577.0,0.04428
578.0,0.04347
579.0,0.04353
580.0,0.04427
581.0,0.0444
582.0,0.04511
583.0,0.04508
584.0,0.04532
585.0,0.04402
586.0,0.04289
587.0,0.04355
588.0,0.04211
589.0,0.03684
590.0,0.0383
591.0,0.04041
592.0,0.03951
593.0,0.03987
594.0,0.03919
595.0,0.03779
596.0,0.03916
597.0,0.03834
598.0,0.03796
599.0,0.03769
600.0,0.03751
601.0,0.03699
602.0,0.03653
603.0,0.03695
604.0,0.03741
605.0,0.03708
606.0,0.03684
607.0,0.03714
608.0,0.03666
609.0,0.03666
610.0,0.03635
611.0,0.03649
612.0,0.03632
613.0,0.0358
614.0,0.03525
615.0,0.03595
616.0,0.0347
617.0,0.03455
618.0,0.03579
619.0,0.03533
620.0,0.03543
621.0,0.03533
622.0,0.03478
623.0,0.03412
624.0,0.03341
625.0,0.03322
626.0,0.0336
627.0,0.0338
628.0,0.03088
629.0,0.03257
630.0,0.03169
631.0,0.0325
632.0,0.03205
633.0,0.03301
634.0,0.03267
635.0,0.03311
636.0,0.03261
637.0,0.03308
638.0,0.03336
639.0,0.03292
640.0,0.03254
641.0,0.03245
642.0,0.03224
643.0,0.0326
644.0,0.03242
645.0,0.03235
646.0,0.03141
647.0,0.03078
648.0,0.03071
649.0,0.02999
650.0,0.03023
651.0,0.03147
652.0,0.02985
653.0,0.03085
654.0,0.03041
655.0,0.02907
656.0,0.02575
657.0,0.02637
658.0,0.02953
659.0,0.02967
660.0,0.0297
661.0,0.02982
662.0,0.02975
663.0,0.02907
664.0,0.02937
665.0,0.02934
666.0,0.02928
667.0,0.02919
668.0,0.02913
669.0,0.0295
670.0,0.02927
671.0,0.02919
672.0,0.02886
673.0,0.02923
674.0,0.02902
675.0,0.02867
676.0,0.02877
677.0,0.0284
678.0,0.0284
679.0,0.02785
680.0,0.02797
681.0,0.02767
682.0,0.02753
683.0,0.02736
684.0,0.02711
685.0,0.02724
686.0,0.02696
687.0,0.01619
688.0,0.01941
689.0,0.01943
690.0,0.02055
691.0,0.02188
692.0,0.0229
693.0,0.02262
694.0,0.0224
695.0,0.0235
696.0,0.02346
697.0,0.02514
698.0,0.02465
699.0,0.02374
700.0,0.02335
701.0,0.02294
702.0,0.0231
703.0,0.02308
704.0,0.02384
705.0,0.02377
706.0,0.02369
707.0,0.02363
708.0,0.02358
709.0,0.0236
710.0,0.02344
711.0,0.02336
712.0,0.02324
713.0,0.02286
714.0,0.02285
715.0,0.02193
716.0,0.02183
717.0,0.01817
718.0,0.01654
719.0,0.015
720.0,0.01563
721.0,0.01753
722.0,0.02045
723.0,0.01872
724.0,0.01652
725.0,0.01614
726.0,0.01688
727.0,0.01716
728.0,0.01589
729.0,0.01662
730.0,0.01749
731.0,0.01661
732.0,0.01794
733.0,0.01913
734.0,0.01958
735.0,0.01904
736.0,0.01891
737.0,0.01891
738.0,0.0193
739.0,0.01884
740.0,0.0193
741.0,0.01904
742.0,0.01901
743.0,0.0194
744.0,0.01927
745.0,0.01919
746.0,0.01919
747.0,0.01915
748.0,0.01902
749.0,0.01872
750.0,0.01864
751.0,0.01838
752.0,0.0184
753.0,0.01842
754.0,0.01839
755.0,0.01821
756.0,0.01814
757.0,0.01809
758.0,0.01778
759.0,0.01721
760.0,0.002508
761.0,0.001334
762.0,0.0076
763.0,0.003742
764.0,0.005593
765.0,0.007491
766.0,0.009391
767.0,0.01227
768.0,0.01473
769.0,0.01514
770.0,0.0158
771.0,0.01596
772.0,0.01594
773.0,0.01597
774.0,0.01581
775.0,0.01561
776.0,0.01572
777.0,0.01543
778.0,0.01525
779.0,0.01519
780.0,0.01504
781.0,0.01499
782.0,0.01503
783.0,0.01472
784.0,0.01474
785.0,0.01457
786.0,0.01467
787.0,0.01427
788.0,0.014
789.0,0.01394
790.0,0.0134
791.0,0.01357
792.0,0.01343
793.0,0.01315
794.0,0.01342
795.0,0.01356
796.0,0.01294
797.0,0.01289
798.0,0.01336
799.0,0.01319
800.0,0.01286
801.0,0.01273
802.0,0.01263
803.0,0.01245
804.0,0.01243
805.0,0.01238
806.0,0.01274
807.0,0.01251
808.0,0.01246
809.0,0.0121
810.0,0.01191
811.0,0.01182
812.0,0.0113
813.0,0.01098
814.0,0.009376
815.0,0.009287
816.0,0.008531
817.0,0.008659
818.0,0.008261
819.0,0.009385
820.0,0.008739
821.0,0.01051
822.0,0.01011
823.0,0.006423
824.0,0.009639
825.0,0.01017
826.0,0.009639
827.0,0.01026
828.0,0.008361
829.0,0.009494
830.0,0.009316
831.0,0.00931
832.0,0.00893
833.0,0.009619
834.0,0.009161
835.0,0.01024
836.0,0.009602
837.0,0.01018
838.0,0.009752
839.0,0.009936
840.0,0.01013
841.0,0.009906
842.0,0.009931
843.0,0.009935
844.0,0.009723
845.0,0.01004
846.0,0.009961
847.0,0.009744
848.0,0.009612
849.0,0.009291
850.0,0.008858
851.0,0.009301
852.0,0.0092
853.0,0.008829
854.0,0.007574
855.0,0.008312
856.0,0.009039
857.0,0.009224
858.0,0.009116
859.0,0.009098
860.0,0.009086
861.0,0.009002
862.0,0.009117
863.0,0.009302
864.0,0.008806
865.0,0.008698
866.0,0.007792
867.0,0.008101
868.0,0.008782
869.0,0.008567
870.0,0.008777
871.0,0.008622
872.0,0.008558
873.0,0.008507
874.0,0.008369
875.0,0.008163
876.0,0.008211
877.0,0.00826
878.0,0.00831
879.0,0.008148
880.0,0.00794
881.0,0.007777
882.0,0.007907
883.0,0.00791
884.0,0.007834
885.0,0.007856
886.0,0.00742
887.0,0.007495
888.0,0.007557
889.0,0.00764
890.0,0.007504
891.0,0.007481
892.0,0.007191
893.0,0.006889
894.0,0.006518
895.0,0.006017
896.0,0.005588
897.0,0.004655
898.0,0.005118
899.0,0.003735
900.0,0.005269
901.0,0.003909
902.0,0.004709
903.0,0.004692
904.0,0.006198
905.0,0.005921
906.0,0.005474
907.0,0.004228
908.0,0.004339
909.0,0.004754
910.0,0.004067
911.0,0.004413
912.0,0.0046
913.0,0.004075
914.0,0.004043
915.0,0.004377
916.0,0.003643
917.0,0.004762
918.0,0.003705
919.0,0.004844
920.0,0.004964
921.0,0.005158
922.0,0.004489
923.0,0.004953
924.0,0.004544
925.0,0.004424
926.0,0.004447
927.0,0.00505
928.0,0.003446
929.0,0.003086
930.0,0.002335
931.0,0.002195
932.0,0.001527
933.0,0.001221
934.0,0.0006488
935.0,0.001246
936.0,0.0007592
937.0,0.0007658
938.0,0.0009427
939.0,0.002052
940.0,0.00251
941.0,0.00183
942.0,0.002133
943.0,0.001356
944.0,0.001448
945.0,0.001862
946.0,0.000904
947.0,0.001847
948.0,0.001339
949.0,0.002523
950.0,0.000645
951.0,0.002465
952.0,0.001257
953.0,0.001651
954.0,0.002064
955.0,0.001664
956.0,0.001647
957.0,0.001234
958.0,0.002383
959.0,0.001817
960.0,0.00204
961.0,0.002333
962.0,0.002193
963.0,0.002578
964.0,0.00233
965.0,0.002542
966.0,0.002535
967.0,0.002504
968.0,0.003616
969.0,0.003735
970.0,0.003381
971.0,0.004
972.0,0.003768
973.0,0.00314
974.0,0.002957
975.0,0.003085
976.0,0.002858
977.0,0.00339
978.0,0.003144
979.0,0.003316
980.0,0.003079
981.0,0.003827
982.0,0.003597
983.0,0.003411
984.0,0.003965
985.0,0.003537
986.0,0.004046
987.0,0.003915
988.0,0.003896
989.0,0.004014
990.0,0.003837
991.0,0.003979
992.0,0.003993
993.0,0.003854
994.0,0.003971
995.0,0.00396
996.0,0.00392
997.0,0.003917
998.0,0.003882
999.0,0.003856
1000.0,0.003804
1001.0,0.003849
1002.0,0.00368
1003.0,0.00375
1004.0,0.003631
1005.0,0.003502
1006.0,0.003616
1007.0,0.003683
1008.0,0.003641
1009.0,0.003599
1010.0,0.003566
1011.0,0.003611
1012.0,0.003557
1013.0,0.003578
1014.0,0.00354
1015.0,0.003502
1016.0,0.003471
1017.0,0.003465
1018.0,0.003445
1019.0,0.00334
1020.0,0.003397
1021.0,0.003383
1022.0,0.003337
1023.0,0.003359
1024.0,0.003286
1025.0,0.003338
1026.0,0.003306
1027.0,0.003287
1028.0,0.003267
1029.0,0.003215
1030.0,0.003231
1031.0,0.003203
1032.0,0.003183
1033.0,0.003123
1034.0,0.003112
1035.0,0.00311
1036.0,0.003112
1037.0,0.00305
1038.0,0.003052
1039.0,0.003038
1040.0,0.003014
1041.0,0.003013
1042.0,0.002981
1043.0,0.00296
1044.0,0.002958
1045.0,0.002905
1046.0,0.002861
1047.0,0.002875
1048.0,0.002879
1049.0,0.002857
1050.0,0.002832
1051.0,0.002816
1052.0,0.002793
1053.0,0.002759
1054.0,0.002753
1055.0,0.002742
1056.0,0.00272
1057.0,0.002699
1058.0,0.002621
1059.0,0.002612
1060.0,0.002597
1061.0,0.002583
1062.0,0.002585
1063.0,0.002548
1064.0,0.00257
1065.0,0.002536
1066.0,0.002481
1067.0,0.002503
1068.0,0.002435
1069.0,0.002355
1070.0,0.002422
1071.0,0.002463
1072.0,0.002417
1073.0,0.002376
1074.0,0.002443
1075.0,0.002281
1076.0,0.002421
1077.0,0.002352
1078.0,0.00229
1079.0,0.002363
1080.0,0.002287
1081.0,0.002193
1082.0,0.002247
1083.0,0.002254
1084.0,0.002155
1085.0,0.002256
1086.0,0.002004
1087.0,0.002095
1088.0,0.002206
1089.0,0.002097
1090.0,0.002027
1091.0,0.002166
1092.0,0.002158
1093.0,0.001742
1094.0,0.00195
1095.0,0.001808
1096.0,0.001705
1097.0,0.002072
1098.0,0.001656
1099.0,0.001731
1100.0,0.001575
1101.0,0.001601
1102.0,0.001505
1103.0,0.001472
1104.0,0.001472
1105.0,0.001648
1106.0,0.001168
1107.0,0.001537
1108.0,0.001243
1109.0,0.001244
1110.0,0.001493
1111.0,0.0009363
1112.0,0.001224
1113.0,0.0007205
1114.0,0.0008058
1115.0,0.0006579
1116.0,0.0005072
1117.0,0.0001765
1118.0,0.0005513
1119.0,0.0002622
1120.0,0.0003286
1121.0,0.0004392
1122.0,0.0001787
1123.0,0.0002937
1124.0,0.0002467
1125.0,0.0003231
1126.0,0.0001078
1127.0,0.0003627
1128.0,0.0002107
1129.0,0.0002233
1130.0,0.0001452
1131.0,0.0007066
1132.0,0.0005443
1133.0,0.0003323
1134.0,8.153e-05
1135.0,3.054e-05
1136.0,0.0002716
1137.0,0.0006756
1138.0,0.0004678
1139.0,0.0007326
1140.0,0.0005941
1141.0,0.0004399
1142.0,0.00051
1143.0,0.0007432
1144.0,0.0002429
1145.0,0.0003072
1146.0,0.0003303
1147.0,0.0001119
1148.0,0.000626
1149.0,0.0004879
1150.0,0.0002579
1151.0,0.0004438
1152.0,0.0005552
1153.0,0.0005462
1154.0,0.0002892
1155.0,0.0007247
1156.0,0.0006412
1157.0,0.0007374
1158.0,0.0007263
1159.0,0.0007901
1160.0,0.0006651
1161.0,0.0008483
1162.0,0.0008455
1163.0,0.001214
1164.0,0.001008
1165.0,0.0009274
1166.0,0.0009322
1167.0,0.001026
1168.0,0.001032
1169.0,0.001061
1170.0,0.001171
1171.0,0.001135
1172.0,0.001166
1173.0,0.001157
1174.0,0.0007735
1175.0,0.001136
1176.0,0.001279
1177.0,0.001201
1178.0,0.0008533
1179.0,0.001276
1180.0,0.001096
1181.0,0.001132
1182.0,0.000729
1183.0,0.001114
1184.0,0.001021
1185.0,0.0009688
1186.0,0.001196
1187.0,0.001118
1188.0,0.0007232
1189.0,0.001031
1190.0,0.001156
1191.0,0.001064
1192.0,0.001168
1193.0,0.001103
1194.0,0.001142
1195.0,0.001057
1196.0,0.001004
1197.0,0.001141
1198.0,0.001029
1199.0,0.0008323
1200.0,0.001067
1201.0,0.00101
1202.0,0.001013
1203.0,0.0009956
1204.0,0.0008464
1205.0,0.001038
1206.0,0.001169
1207.0,0.0009909
1208.0,0.0009849
1209.0,0.001002
1210.0,0.001052
1211.0,0.0009843
1212.0,0.0009483
1213.0,0.001094
1214.0,0.0009729
1215.0,0.0009492
1216.0,0.001083
1217.0,0.001043
1218.0,0.001067
1219.0,0.001045
1220.0,0.001062
1221.0,0.001076
1222.0,0.001039
1223.0,0.001022
1224.0,0.001004
1225.0,0.001053
1226.0,0.001064
1227.0,0.0009541
1228.0,0.001066
1229.0,0.001054
1230.0,0.001028
1231.0,0.001067
1232.0,0.001057
1233.0,0.0009999
1234.0,0.001061
1235.0,0.001047
1236.0,0.001054
1237.0,0.00103
1238.0,0.001044
1239.0,0.001027
1240.0,0.001029
1241.0,0.001015
1242.0,0.001014
1243.0,0.001003
1244.0,0.001005
1245.0,0.001007
1246.0,0.0009985
1247.0,0.0009899
1248.0,0.0009834
1249.0,0.0009857
1250.0,0.000975
1251.0,0.0009562
1252.0,0.0009574
1253.0,0.0009394
1254.0,0.0009218
1255.0,0.0009455
1256.0,0.0009029
1257.0,0.0008925
1258.0,0.0009166
1259.0,0.0008614
1260.0,0.0008655
1261.0,0.0007929
1262.0,0.0007566
1263.0,0.0007553
1264.0,0.0006747
1265.0,0.0007463
1266.0,0.0007034
1267.0,0.0007222
1268.0,0.0006695
1269.0,0.00037
1270.0,0.0007098
1271.0,0.0007705
1272.0,0.0007723
1273.0,0.0007594
1274.0,0.0007627
1275.0,0.0007749
1276.0,0.0007842
1277.0,0.0007925
1278.0,0.0008136
1279.0,0.0008041
1280.0,0.0007913
1281.0,0.000757
1282.0,0.0007341
1283.0,0.0007867
1284.0,0.0008017
1285.0,0.0008058
1286.0,0.0008179
1287.0,0.0007957
1288.0,0.0007955
1289.0,0.0007546
1290.0,0.0007839
1291.0,0.0007949
1292.0,0.0007217
1293.0,0.0007691
1294.0,0.0007603
1295.0,0.0007466
1296.0,0.000698
1297.0,0.000649
1298.0,0.0007159
1299.0,0.0007576
1300.0,0.0006065
1301.0,0.0006279
1302.0,0.0007066
1303.0,0.0005946
1304.0,0.0004826
1305.0,0.0006827
1306.0,0.0006774
1307.0,0.0004946
1308.0,0.0005892
1309.0,0.0006614
1310.0,0.0004781
1311.0,0.0005537
1312.0,0.0005359
1313.0,0.0005163
1314.0,0.0004501
1315.0,0.0004409
1316.0,0.0005332
1317.0,0.0004979
1318.0,0.0005513
1319.0,0.0004031
1320.0,0.0003909
1321.0,0.000466
1322.0,0.0004656
1323.0,0.0003308
1324.0,0.00039
1325.0,0.000507
1326.0,0.0004207
1327.0,0.0003961
1328.0,0.0003328
1329.0,0.0002379
1330.0,0.0003168
1331.0,0.0001808
1332.0,0.0001874
1333.0,0.0002636
1334.0,0.0002267
1335.0,0.0003161
1336.0,0.0002422
1337.0,0.0002125
1338.0,0.0002292
1339.0,0.0002281
1340.0,0.0002229
1341.0,0.000212
1342.0,0.0002232
1343.0,0.0001451
1344.0,8.645e-05
