interpolation:linear
wavelength,value
280.0,6.493999999999999e-22
280.5,2.108e-20
281.0,1.125e-19
281.5,5.054e-19
282.0,8.412e-19
282.5,2.081e-18
283.0,6.553e-18
283.5,1.064e-17
284.0,1.732e-16
284.5,5.025e-16
285.0,9.106e-16
285.5,4.458e-15
286.0,1.788e-14
286.5,7.972e-14
287.0,2.273e-13
287.5,8.699e-13
288.0,2.824e-12
288.5,8.676e-12
289.0,2.331e-11
289.5,7.08e-11
290.0,1.971e-10
290.5,4.025e-10
291.0,8.65e-10
291.5,2.484e-09
292.0,5.883e-09
292.5,8.178e-09
293.0,1.735e-08
293.5,4.165e-08
294.0,6.46e-08
294.5,8.558e-08
295.0,1.438e-07
295.5,2.778e-07
296.0,5.274e-07
296.5,7.532e-07
297.0,1.039e-06
297.5,2.885e-06
298.0,4.708e-06
298.5,4.882e-06
299.0,1.113e-05
299.5,1.982e-05
300.0,2.281e-05
300.5,3.482e-05
301.0,6.963e-05
301.5,0.0001238
302.0,0.000113
302.5,0.0002243
303.0,0.0004121
303.5,0.000529
304.0,0.0005089
304.5,0.0008115
305.0,0.001356
305.5,0.001653
306.0,0.001637
306.5,0.002122
307.0,0.003459
307.5,0.005047
308.0,0.005401
308.5,0.006677
309.0,0.006878
309.5,0.008242
310.0,0.008451
310.5,0.01381
311.0,0.01762
311.5,0.01711
312.0,0.0178
312.5,0.02224
313.0,0.02442
313.5,0.02332
314.0,0.03012
314.5,0.02795
315.0,0.03695
315.5,0.0301
316.0,0.02728
316.5,0.04048
317.0,0.05008
317.5,0.05144
318.0,0.04101
318.5,0.05328
319.0,0.06464
319.5,0.05049
320.0,0.06047
320.5,0.07935
321.0,0.07383
321.5,0.07092
322.0,0.07168
322.5,0.06233
323.0,0.06396
323.5,0.08069
324.0,0.09436
324.5,0.09442
325.0,0.08002
325.5,0.1055
326.0,0.1292
326.5,0.1311
327.0,0.1295
327.5,0.1238
328.0,0.1077
328.5,0.1157
329.0,0.1412
329.5,0.161
330.0,0.161
330.5,0.1263
331.0,0.1275
331.5,0.1309
332.0,0.1437
332.5,0.1431
333.0,0.1415
333.5,0.1258
334.0,0.1282
334.5,0.15
335.0,0.142
335.5,0.1671
336.0,0.1153
336.5,0.1325
337.0,0.1076
337.5,0.1331
338.0,0.1315
338.5,0.1528
339.0,0.1505
339.5,0.1446
340.0,0.168
340.5,0.1512
341.0,0.148
341.5,0.135
342.0,0.1608
342.5,0.1499
343.0,0.1646
343.5,0.1548
344.0,0.1136
344.5,0.1153
345.0,0.1514
345.5,0.1539
346.0,0.1303
346.5,0.1471
347.0,0.1576
347.5,0.1271
348.0,0.1443
348.5,0.1437
349.0,0.1329
349.5,0.1312
350.0,0.1618
350.5,0.1701
351.0,0.1516
351.5,0.1472
352.0,0.1574
352.5,0.1223
353.0,0.1536
353.5,0.1637
354.0,0.1694
354.5,0.1713
355.0,0.1702
355.5,0.1533
356.0,0.1599
356.5,0.1361
357.0,0.1121
357.5,0.1368
358.0,0.1081
358.5,0.09208
359.0,0.1284
359.5,0.1631
360.0,0.1724
360.5,0.1373
361.0,0.1248
361.5,0.1433
362.0,0.1235
362.5,0.1704
363.0,0.1526
363.5,0.1401
364.0,0.1708
364.5,0.1456
365.0,0.1478
365.5,0.1849
366.0,0.1953
366.5,0.1829
367.0,0.1776
367.5,0.1837
368.0,0.1602
368.5,0.1612
369.0,0.1735
369.5,0.1844
370.0,0.1959
370.5,0.1516
371.0,0.1614
371.5,0.2013
372.0,0.1332
372.5,0.1592
373.0,0.1614
373.5,0.1047
374.0,0.1517
374.5,0.1252
375.0,0.1213
375.5,0.1805
376.0,0.1492
376.5,0.1541
377.0,0.1626
377.5,0.1896
378.0,0.2049
378.5,0.193
379.0,0.1587
379.5,0.1445
380.0,0.1497
380.5,0.1807
381.0,0.1805
381.5,0.1426
382.0,0.1262
382.5,0.1072
383.0,0.09892
383.5,0.09497
384.0,0.1044
384.5,0.1531
385.0,0.1513
385.5,0.1404
386.0,0.1199
386.5,0.157
387.0,0.13
387.5,0.1455
388.0,0.1339
388.5,0.1319
389.0,0.1419
389.5,0.1713
390.0,0.1713
390.5,0.1571
391.0,0.1843
391.5,0.1873
392.0,0.1572
392.5,0.1403
393.0,0.0778
393.5,0.05637
394.0,0.1143
394.5,0.1449
395.0,0.1762
395.5,0.1784
396.0,0.1541
396.5,0.08979
397.0,0.06715
397.5,0.1361
398.0,0.1899
398.5,0.1957
399.0,0.2112
399.5,0.2098
400.0,0.2171
401.0,0.2133
402.0,0.2235
403.0,0.2108
404.0,0.2061
405.0,0.2047
406.0,0.2
407.0,0.1953
408.0,0.2015
409.0,0.2142
410.0,0.1859
411.0,0.2
412.0,0.2134
413.0,0.2066
414.0,0.2077
415.0,0.2068
416.0,0.2089
417.0,0.2023
418.0,0.1971
419.0,0.1983
420.0,0.196
421.0,0.2036
422.0,0.1921
423.0,0.1862
424.0,0.1954
425.0,0.1936
426.0,0.1873
427.0,0.1826
428.0,0.1766
429.0,0.1662
430.0,0.1444
431.0,0.1421
432.0,0.182
433.0,0.1817
434.0,0.1675
435.0,0.1737
436.0,0.1944
437.0,0.1905
438.0,0.1722
439.0,0.1768
440.0,0.181
441.0,0.1861
442.0,0.1981
443.0,0.1915
444.0,0.1944
445.0,0.1889
446.0,0.1791
447.0,0.1923
448.0,0.1938
449.0,0.1931
450.0,0.1969
451.0,0.2027
452.0,0.1939
453.0,0.1811
454.0,0.1878
455.0,0.1875
456.0,0.1905
457.0,0.192
458.0,0.184
459.0,0.1815
460.0,0.1805
461.0,0.1832
462.0,0.1834
463.0,0.181
464.0,0.177
465.0,0.1737
466.0,0.1742
467.0,0.1697
468.0,0.1703
469.0,0.1697
470.0,0.1631
471.0,0.1618
472.0,0.1694
473.0,0.166
474.0,0.1649
475.0,0.165
476.0,0.1587
477.0,0.1577
478.0,0.1607
479.0,0.1582
480.0,0.1572
481.0,0.1586
482.0,0.1582
483.0,0.1552
484.0,0.1511
485.0,0.1431
486.0,0.1244
487.0,0.1295
488.0,0.141
489.0,0.1403
490.0,0.1464
491.0,0.1428
492.0,0.1338
493.0,0.1372
494.0,0.1376
495.0,0.1377
496.0,0.1375
497.0,0.1385
498.0,0.1308
499.0,0.1313
500.0,0.1262
501.0,0.1227
502.0,0.1198
503.0,0.1234
504.0,0.1191
505.0,0.1225
506.0,0.1256
507.0,0.1187
508.0,0.1143
509.0,0.1168
510.0,0.1155
511.0,0.1179
512.0,0.1183
513.0,0.1111
514.0,0.1095
515.0,0.1076
516.0,0.1065
517.0,0.09393
518.0,0.09803
519.0,0.102
520.0,0.1049
521.0,0.1051
522.0,0.1043
523.0,0.1016
524.0,0.1044
525.0,0.1047
526.0,0.09915
527.0,0.09256
528.0,0.09699
529.0,0.1014
530.0,0.09914
531.0,0.09981
532.0,0.09564
533.0,0.09219
534.0,0.09427
535.0,0.09572
536.0,0.09599
537.0,0.09159
538.0,0.09257
539.0,0.09118
540.0,0.08681
541.0,0.0867
542.0,0.08869
543.0,0.08709
544.0,0.08798
545.0,0.08715
546.0,0.08688
547.0,0.08622
548.0,0.08459
549.0,0.08428
550.0,0.0847
551.0,0.08308
552.0,0.08306
553.0,0.08098
554.0,0.08233
555.0,0.08189
556.0,0.08021
557.0,0.07709
558.0,0.07586
559.0,0.07381
560.0,0.07411
561.0,0.07443
562.0,0.07326
563.0,0.07464
564.0,0.07205
565.0,0.07089
566.0,0.06932
567.0,0.07008
568.0,0.06889
569.0,0.06668
570.0,0.0662
571.0,0.06535
572.0,0.06637
573.0,0.06663
574.0,0.06601
575.0,0.06438
576.0,0.06342
577.0,0.06376
578.0,0.06249
579.0,0.06246
580.0,0.06338
581.0,0.06341
582.0,0.0643
583.0,0.06416
584.0,0.06442
585.0,0.06251
586.0,0.06084
587.0,0.06175
588.0,0.05977
589.0,0.05241
590.0,0.0545
591.0,0.05744
592.0,0.05624
593.0,0.05675
594.0,0.05588
595.0,0.05403
596.0,0.05594
597.0,0.05489
598.0,0.05438
599.0,0.05405
600.0,0.05381
601.0,0.05306
602.0,0.05239
603.0,0.05295
604.0,0.05354
605.0,0.053
606.0,0.05256
607.0,0.05287
608.0,0.05206
609.0,0.05193
610.0,0.05136
611.0,0.05143
612.0,0.05108
613.0,0.05022
614.0,0.04933
615.0,0.0502
616.0,0.04835
617.0,0.04805
618.0,0.04968
619.0,0.04896
620.0,0.04904
621.0,0.04884
622.0,0.04802
623.0,0.04703
624.0,0.046
625.0,0.0457
626.0,0.04617
627.0,0.04643
628.0,0.04268
629.0,0.04472
630.0,0.04347
631.0,0.04439
632.0,0.04369
633.0,0.0449
634.0,0.04433
635.0,0.04483
636.0,0.04407
637.0,0.04461
638.0,0.04488
639.0,0.0442
640.0,0.0436
641.0,0.04339
642.0,0.04303
643.0,0.04344
644.0,0.04314
645.0,0.04299
646.0,0.04173
647.0,0.04092
648.0,0.04074
649.0,0.03977
650.0,0.03993
651.0,0.04149
652.0,0.03939
653.0,0.04057
654.0,0.03995
655.0,0.03818
656.0,0.03375
657.0,0.03452
658.0,0.03857
659.0,0.0387
660.0,0.03868
661.0,0.03877
662.0,0.03865
663.0,0.03774
664.0,0.03806
665.0,0.03795
666.0,0.03782
667.0,0.03765
668.0,0.03752
669.0,0.03794
670.0,0.0376
671.0,0.03744
672.0,0.03698
673.0,0.03742
674.0,0.03711
675.0,0.0366
676.0,0.03669
677.0,0.03619
678.0,0.03615
679.0,0.03541
680.0,0.03554
681.0,0.03514
682.0,0.03493
683.0,0.0347
684.0,0.03436
685.0,0.03449
686.0,0.03412
687.0,0.02106
688.0,0.02519
689.0,0.02518
690.0,0.02652
691.0,0.02807
692.0,0.02922
693.0,0.02881
694.0,0.02841
695.0,0.02966
696.0,0.02956
697.0,0.03157
698.0,0.03093
699.0,0.02986
700.0,0.02935
701.0,0.02888
702.0,0.02902
703.0,0.02894
704.0,0.02984
705.0,0.02973
706.0,0.02962
707.0,0.02952
708.0,0.02944
709.0,0.0294
710.0,0.02922
711.0,0.0291
712.0,0.02894
713.0,0.02848
714.0,0.02844
715.0,0.02733
716.0,0.0272
717.0,0.02287
718.0,0.02073
719.0,0.01875
720.0,0.0196
721.0,0.0219
722.0,0.02548
723.0,0.02332
724.0,0.02061
725.0,0.02014
726.0,0.02109
727.0,0.02135
728.0,0.01981
729.0,0.02065
730.0,0.02182
731.0,0.02068
732.0,0.02226
733.0,0.02369
734.0,0.02419
735.0,0.02355
736.0,0.02341
737.0,0.02339
738.0,0.02378
739.0,0.02319
740.0,0.02372
741.0,0.0234
742.0,0.02333
743.0,0.02381
744.0,0.02363
745.0,0.02353
746.0,0.02352
747.0,0.02347
748.0,0.0233
749.0,0.02292
750.0,0.0228
751.0,0.02248
752.0,0.02248
753.0,0.02249
754.0,0.02244
755.0,0.02221
756.0,0.02211
757.0,0.02204
758.0,0.02166
759.0,0.02104
760.0,0.00288
761.0,0.00149
762.0,0.009474
763.0,0.004414
764.0,0.006813
765.0,0.009329
766.0,0.01182
767.0,0.01538
768.0,0.01818
769.0,0.0186
770.0,0.01929
771.0,0.01942
772.0,0.01938
773.0,0.01942
774.0,0.01922
775.0,0.01899
776.0,0.01913
777.0,0.01878
778.0,0.01857
779.0,0.01849
780.0,0.0183
781.0,0.01824
782.0,0.01827
783.0,0.01788
784.0,0.01789
785.0,0.01768
786.0,0.01779
787.0,0.01735
788.0,0.01703
789.0,0.01694
790.0,0.01633
791.0,0.01647
792.0,0.01629
793.0,0.01594
794.0,0.01623
795.0,0.01641
796.0,0.01571
797.0,0.01567
798.0,0.01616
799.0,0.01596
800.0,0.01558
801.0,0.01544
802.0,0.01532
803.0,0.01512
804.0,0.01509
805.0,0.015
806.0,0.0154
807.0,0.01513
808.0,0.01507
809.0,0.01468
810.0,0.01446
811.0,0.01437
812.0,0.01381
813.0,0.01341
814.0,0.01148
815.0,0.01136
816.0,0.01042
817.0,0.0106
818.0,0.01012
819.0,0.01149
820.0,0.01068
821.0,0.01278
822.0,0.0123
823.0,0.007818
824.0,0.01175
825.0,0.01232
826.0,0.0117
827.0,0.01242
828.0,0.01018
829.0,0.0115
830.0,0.01127
831.0,0.01128
832.0,0.01082
833.0,0.01165
834.0,0.0111
835.0,0.01234
836.0,0.01164
837.0,0.01227
838.0,0.01179
839.0,0.01199
840.0,0.01221
841.0,0.01196
842.0,0.01197
843.0,0.01194
844.0,0.0117
845.0,0.01207
846.0,0.01197
847.0,0.0117
848.0,0.01156
849.0,0.01118
850.0,0.01066
851.0,0.01122
852.0,0.01109
853.0,0.01064
854.0,0.009132
855.0,0.01001
856.0,0.01089
857.0,0.0111
858.0,0.01097
859.0,0.01094
860.0,0.01092
861.0,0.01081
862.0,0.01094
863.0,0.01116
864.0,0.01056
865.0,0.01043
866.0,0.009339
867.0,0.009706
868.0,0.01052
869.0,0.01026
870.0,0.01051
871.0,0.01032
872.0,0.01024
873.0,0.01018
874.0,0.01002
875.0,0.009768
876.0,0.009825
877.0,0.009884
878.0,0.009946
879.0,0.009752
880.0,0.009503
881.0,0.009314
882.0,0.009476
883.0,0.009474
884.0,0.009385
885.0,0.009413
886.0,0.008907
887.0,0.008986
888.0,0.009067
889.0,0.009154
890.0,0.009009
891.0,0.008972
892.0,0.008646
893.0,0.008293
894.0,0.007886
895.0,0.007319
896.0,0.006782
897.0,0.005652
898.0,0.006232
899.0,0.004517
900.0,0.006401
901.0,0.004756
902.0,0.005734
903.0,0.005724
904.0,0.007506
905.0,0.007169
906.0,0.00663
907.0,0.005145
908.0,0.005264
909.0,0.005783
910.0,0.004945
911.0,0.005335
912.0,0.005594
913.0,0.004956
914.0,0.004905
915.0,0.005352
916.0,0.004409
917.0,0.005812
918.0,0.0045
919.0,0.005895
920.0,0.005987
921.0,0.006261
922.0,0.00545
923.0,0.006003
924.0,0.005546
925.0,0.005388
926.0,0.005439
927.0,0.006178
928.0,0.004221
929.0,0.003775
930.0,0.002837
931.0,0.002666
932.0,0.001823
933.0,0.001438
934.0,0.0007352
935.0,0.001474
936.0,0.0008733
937.0,0.0008805
938.0,0.001097
939.0,0.002494
940.0,0.003078
941.0,0.002219
942.0,0.00261
943.0,0.001618
944.0,0.00173
945.0,0.002257
946.0,0.001055
947.0,0.00224
948.0,0.001591
949.0,0.003103
950.0,0.0007367
951.0,0.003037
952.0,0.00149
953.0,0.001988
954.0,0.002519
955.0,0.002009
956.0,0.001956
957.0,0.001462
958.0,0.002895
959.0,0.002192
960.0,0.002479
961.0,0.00284
962.0,0.002659
963.0,0.003137
964.0,0.002824
965.0,0.003102
966.0,0.003087
967.0,0.003053
968.0,0.004371
969.0,0.004559
970.0,0.004107
971.0,0.004838
972.0,0.004564
973.0,0.003827
974.0,0.003592
975.0,0.003747
976.0,0.003491
977.0,0.004095
978.0,0.00382
979.0,0.004033
980.0,0.003731
981.0,0.00463
982.0,0.004359
983.0,0.004136
984.0,0.004773
985.0,0.004295
986.0,0.004853
987.0,0.004705
988.0,0.004677
989.0,0.004802
990.0,0.004615
991.0,0.004769
992.0,0.004782
993.0,0.004626
994.0,0.004751
995.0,0.004733
996.0,0.004689
997.0,0.004681
998.0,0.00464
999.0,0.004608
1000.0,0.00455
1001.0,0.004599
1002.0,0.004421
1003.0,0.004481
1004.0,0.004345
1005.0,0.004182
1006.0,0.004322
1007.0,0.0044
1008.0,0.004354
1009.0,0.004308
1010.0,0.004269
1011.0,0.004313
1012.0,0.004252
1013.0,0.004272
1014.0,0.004227
1015.0,0.004182
1016.0,0.004146
1017.0,0.004139
1018.0,0.004112
1019.0,0.003996
1020.0,0.004056
1021.0,0.004037
1022.0,0.003986
1023.0,0.004012
1024.0,0.003933
1025.0,0.003985
1026.0,0.003949
1027.0,0.003925
1028.0,0.003902
1029.0,0.003841
1030.0,0.003857
1031.0,0.003825
1032.0,0.003801
1033.0,0.003729
1034.0,0.003715
1035.0,0.003712
1036.0,0.003716
1037.0,0.003642
1038.0,0.003645
1039.0,0.003629
1040.0,0.0036
1041.0,0.0036
1042.0,0.003561
1043.0,0.003536
1044.0,0.003535
1045.0,0.003474
1046.0,0.003421
1047.0,0.003438
1048.0,0.003444
1049.0,0.003419
1050.0,0.00339
1051.0,0.003371
1052.0,0.003344
1053.0,0.003305
1054.0,0.003299
1055.0,0.003287
1056.0,0.003261
1057.0,0.003237
1058.0,0.003145
1059.0,0.003136
1060.0,0.003119
1061.0,0.003103
1062.0,0.003106
1063.0,0.003063
1064.0,0.003089
1065.0,0.003051
1066.0,0.002983
1067.0,0.003009
1068.0,0.00293
1069.0,0.002831
1070.0,0.002913
1071.0,0.002957
1072.0,0.002905
1073.0,0.002855
1074.0,0.002929
1075.0,0.002744
1076.0,0.002904
1077.0,0.002825
1078.0,0.002756
1079.0,0.00283
1080.0,0.002748
1081.0,0.002641
1082.0,0.002697
1083.0,0.002701
1084.0,0.002597
1085.0,0.002711
1086.0,0.002415
1087.0,0.002522
1088.0,0.002644
1089.0,0.002528
1090.0,0.002442
1091.0,0.002599
1092.0,0.002588
1093.0,0.002109
1094.0,0.002343
1095.0,0.002197
1096.0,0.002073
1097.0,0.002487
1098.0,0.00202
1099.0,0.002111
1100.0,0.001919
1101.0,0.001948
1102.0,0.001837
1103.0,0.001799
1104.0,0.001797
1105.0,0.002011
1106.0,0.001431
1107.0,0.001874
1108.0,0.001519
1109.0,0.001522
1110.0,0.00183
1111.0,0.001143
1112.0,0.001497
1113.0,0.0008696
1114.0,0.0009809
1115.0,0.0007936
1116.0,0.0006039
1117.0,0.0001972
1118.0,0.0006616
1119.0,0.000301
1120.0,0.0003816
1121.0,0.0005203
1122.0,0.0002002
1123.0,0.0003393
1124.0,0.0002826
1125.0,0.0003763
1126.0,0.000118
1127.0,0.0004251
1128.0,0.0002381
1129.0,0.0002535
1130.0,0.0001612
1131.0,0.0008671
1132.0,0.0006567
1133.0,0.0003877
1134.0,8.853e-05
1135.0,3.26e-05
1136.0,0.0003123
1137.0,0.0008276
1138.0,0.0005606
1139.0,0.0008986
1140.0,0.0007221
1141.0,0.0005254
1142.0,0.000615
1143.0,0.0009152
1144.0,0.0002798
1145.0,0.000358
1146.0,0.0003863
1147.0,0.0001228
1148.0,0.0007654
1149.0,0.0005874
1150.0,0.0002976
1151.0,0.0005313
1152.0,0.0006748
1153.0,0.0006614
1154.0,0.0003355
1155.0,0.0008917
1156.0,0.0007848
1157.0,0.0009011
1158.0,0.000887
1159.0,0.0009726
1160.0,0.0008059
1161.0,0.001035
1162.0,0.001032
1163.0,0.001483
1164.0,0.00123
1165.0,0.001134
1166.0,0.001132
1167.0,0.001248
1168.0,0.001256
1169.0,0.001294
1170.0,0.001425
1171.0,0.001378
1172.0,0.001408
1173.0,0.001406
1174.0,0.0009354
1175.0,0.001372
1176.0,0.001534
1177.0,0.001449
1178.0,0.001027
1179.0,0.001532
1180.0,0.001325
1181.0,0.00137
1182.0,0.0008801
1183.0,0.001348
1184.0,0.001236
1185.0,0.001175
1186.0,0.001444
1187.0,0.001354
1188.0,0.0008799
1189.0,0.001246
1190.0,0.00139
1191.0,0.001293
1192.0,0.001404
1193.0,0.001329
1194.0,0.001375
1195.0,0.001281
1196.0,0.001218
1197.0,0.001375
1198.0,0.001235
1199.0,0.00101
1200.0,0.001287
1201.0,0.001224
1202.0,0.001218
1203.0,0.001208
1204.0,0.001023
1205.0,0.001246
1206.0,0.001402
1207.0,0.001197
1208.0,0.001185
1209.0,0.001207
1210.0,0.001264
1211.0,0.001185
1212.0,0.001155
1213.0,0.001319
1214.0,0.001183
1215.0,0.001153
1216.0,0.001303
1217.0,0.001257
1218.0,0.001283
1219.0,0.00126
1220.0,0.001277
1221.0,0.00129
1222.0,0.001247
1223.0,0.001228
1224.0,0.001212
1225.0,0.001265
1226.0,0.001274
1227.0,0.001152
1228.0,0.001275
1229.0,0.001262
1230.0,0.001233
1231.0,0.001275
1232.0,0.001263
1233.0,0.001202
1234.0,0.001264
1235.0,0.00125
1236.0,0.001257
1237.0,0.00123
1238.0,0.001244
1239.0,0.001224
1240.0,0.001226
1241.0,0.001213
1242.0,0.001209
1243.0,0.001195
1244.0,0.001198
1245.0,0.0012
1246.0,0.00119
1247.0,0.00118
1248.0,0.001174
1249.0,0.001175
1250.0,0.001164
1251.0,0.001143
1252.0,0.001142
1253.0,0.001125
1254.0,0.001106
1255.0,0.001129
1256.0,0.001085
1257.0,0.001074
1258.0,0.001097
1259.0,0.001042
1260.0,0.001046
1261.0,0.0009692
1262.0,0.0009298
1263.0,0.0009284
1264.0,0.0008379
1265.0,0.0009175
1266.0,0.0008703
1267.0,0.0008898
1268.0,0.0008304
1269.0,0.000459
1270.0,0.0008765
1271.0,0.000941
1272.0,0.0009428
1273.0,0.0009282
1274.0,0.0009304
1275.0,0.0009437
1276.0,0.0009527
1277.0,0.0009589
1278.0,0.0009805
1279.0,0.000968
1280.0,0.0009531
1281.0,0.0009094
1282.0,0.000878
1283.0,0.0009418
1284.0,0.0009603
1285.0,0.0009643
1286.0,0.0009769
1287.0,0.000954
1288.0,0.000952
1289.0,0.00091
1290.0,0.0009382
1291.0,0.0009498
1292.0,0.0008726
1293.0,0.000921
1294.0,0.0009106
1295.0,0.0008997
1296.0,0.0008456
1297.0,0.0007884
1298.0,0.000863
1299.0,0.0009064
1300.0,0.0007345
1301.0,0.0007609
1302.0,0.0008507
1303.0,0.0007199
1304.0,0.0005888
1305.0,0.0008221
1306.0,0.0008187
1307.0,0.000601
1308.0,0.0007114
1309.0,0.0008029
1310.0,0.0005823
1311.0,0.00067
1312.0,0.0006483
1313.0,0.000629
1314.0,0.0005486
1315.0,0.0005392
1316.0,0.0006473
1317.0,0.0006048
1318.0,0.0006679
1319.0,0.0004917
1320.0,0.0004752
1321.0,0.0005673
1322.0,0.0005698
1323.0,0.0004041
1324.0,0.0004744
1325.0,0.0006183
1326.0,0.0005129
1327.0,0.0004831
1328.0,0.0004053
1329.0,0.0002881
1330.0,0.0003874
1331.0,0.0002154
1332.0,0.0002243
1333.0,0.0003223
1334.0,0.0002713
1335.0,0.000388
1336.0,0.0002941
1337.0,0.0002549
1338.0,0.000277
1339.0,0.0002761
1340.0,0.0002684
1341.0,0.0002565
1342.0,0.0002704
1343.0,0.0001702
1344.0,9.876e-05
1345.0,0.0001452
1346.0,6.693e-05
1347.0,6.753e-05
1348.0,4.084e-06
1349.0,1.483e-05
1350.0,1.542e-05
1351.0,3.659e-06
1352.0,9.794e-07
1353.0,4.977e-08
1354.0,1.711e-07
1355.0,1.377e-09
1356.0,2.41e-08
1357.0,3.662e-08
1358.0,1.617e-09
1359.0,2.037e-10
1360.0,7.361e-10
