interpolation:linear
wavelength,value
280.0,3.433e-21
280.5,1.071e-19
281.0,5.643e-19
281.5,3.603e-19
282.0,1.084e-18
282.5,2.869e-18
283.0,9.311e-18
283.5,1.526e-17
284.0,2.484e-16
284.5,7.162e-16
285.0,1.614e-15
285.5,7.901e-15
286.0,3.165e-14
286.5,1.398e-13
287.0,3.955e-13
287.5,1.495e-12
288.0,3.91e-12
288.5,1.315e-11
289.0,3.766e-11
289.5,1.201e-10
290.0,3.447e-10
290.5,7.191e-10
291.0,1.576e-09
291.5,4.691e-09
292.0,1.027e-08
292.5,1.55e-08
293.0,3.645e-08
293.5,1.003e-07
294.0,1.707e-07
294.5,2.128e-07
295.0,3.875e-07
295.5,9.982e-07
296.0,1.953e-06
296.5,2.781e-06
297.0,3.827e-06
297.5,1.061e-05
298.0,1.731e-05
298.5,1.797e-05
299.0,4.104e-05
299.5,7.362e-05
300.0,8.524e-05
300.5,0.0001312
301.0,0.000268
301.5,0.0004909
302.0,0.0004572
302.5,0.000882
303.0,0.001559
303.5,0.001947
304.0,0.001829
304.5,0.002748
305.0,0.004215
305.5,0.00486
306.0,0.004706
306.5,0.005879
307.0,0.00883
307.5,0.01189
308.0,0.01254
308.5,0.01488
309.0,0.01501
309.5,0.01695
310.0,0.01691
310.5,0.02725
311.0,0.03401
311.5,0.03269
312.0,0.03247
312.5,0.03933
313.0,0.0425
313.5,0.04111
314.0,0.05122
314.5,0.04534
315.0,0.05939
315.5,0.04941
316.0,0.04311
316.5,0.06189
317.0,0.07655
317.5,0.07927
318.0,0.06178
318.5,0.07694
319.0,0.09134
319.5,0.0737
320.0,0.08865
320.5,0.1114
321.0,0.09972
321.5,0.09535
322.0,0.1003
322.5,0.08694
323.0,0.08681
323.5,0.1076
324.0,0.1253
324.5,0.1265
325.0,0.1077
325.5,0.1388
326.0,0.1703
326.5,0.1705
327.0,0.1691
327.5,0.1625
328.0,0.1437
328.5,0.1511
329.0,0.1811
329.5,0.2052
330.0,0.206
330.5,0.1635
331.0,0.1658
331.5,0.1684
332.0,0.1821
332.5,0.18
333.0,0.1785
333.5,0.1603
334.0,0.1635
334.5,0.1889
335.0,0.1774
335.5,0.2098
336.0,0.1447
336.5,0.1657
337.0,0.1352
337.5,0.1673
338.0,0.1635
338.5,0.1906
339.0,0.1872
339.5,0.1799
340.0,0.2081
340.5,0.187
341.0,0.1835
341.5,0.1668
342.0,0.1983
342.5,0.1846
343.0,0.203
343.5,0.191
344.0,0.1396
344.5,0.1424
345.0,0.1861
345.5,0.1887
346.0,0.1595
346.5,0.1798
347.0,0.1928
347.5,0.1555
348.0,0.176
348.5,0.175
349.0,0.1616
349.5,0.1595
350.0,0.1965
350.5,0.2065
351.0,0.184
351.5,0.1789
352.0,0.1909
352.5,0.1481
353.0,0.1857
353.5,0.1977
354.0,0.2044
354.5,0.2065
355.0,0.2051
355.5,0.1845
356.0,0.1923
356.5,0.1635
357.0,0.1346
357.5,0.1642
358.0,0.1296
358.5,0.1103
359.0,0.1537
359.5,0.1953
360.0,0.2062
360.5,0.1641
361.0,0.149
361.5,0.1709
362.0,0.1472
362.5,0.203
363.0,0.1816
363.5,0.1667
364.0,0.2031
364.5,0.1729
365.0,0.1754
365.5,0.2193
366.0,0.2315
366.5,0.2167
367.0,0.2102
367.5,0.2173
368.0,0.1895
368.5,0.1905
369.0,0.2049
369.5,0.2176
370.0,0.231
370.5,0.1786
371.0,0.1902
371.5,0.237
372.0,0.1567
372.5,0.1872
373.0,0.1897
373.5,0.1229
374.0,0.178
374.5,0.1468
375.0,0.1422
375.5,0.2115
376.0,0.1746
376.5,0.1803
377.0,0.1901
377.5,0.2216
378.0,0.2393
378.5,0.2253
379.0,0.1851
379.5,0.1684
380.0,0.1744
380.5,0.2104
381.0,0.21
381.5,0.1658
382.0,0.1466
382.5,0.1245
383.0,0.1148
383.5,0.1101
384.0,0.121
384.5,0.1773
385.0,0.1752
385.5,0.1625
386.0,0.1386
386.5,0.1814
387.0,0.1501
387.5,0.168
388.0,0.1545
388.5,0.1521
389.0,0.1635
389.5,0.1973
390.0,0.1972
390.5,0.1808
391.0,0.2119
391.5,0.2153
392.0,0.1806
392.5,0.1611
393.0,0.08926
393.5,0.06464
394.0,0.131
394.5,0.166
395.0,0.2017
395.5,0.2041
396.0,0.1763
396.5,0.1026
397.0,0.07672
397.5,0.1554
398.0,0.2168
398.5,0.2232
399.0,0.2408
399.5,0.2391
400.0,0.2473
401.0,0.2429
402.0,0.2542
403.0,0.2396
404.0,0.234
405.0,0.2322
406.0,0.2266
407.0,0.2211
408.0,0.2279
409.0,0.2421
410.0,0.21
411.0,0.2257
412.0,0.2406
413.0,0.2328
414.0,0.2338
415.0,0.2326
416.0,0.2348
417.0,0.2272
418.0,0.2212
419.0,0.2223
420.0,0.2196
421.0,0.2279
422.0,0.2148
423.0,0.2081
424.0,0.2183
425.0,0.2161
426.0,0.2089
427.0,0.2035
428.0,0.1967
429.0,0.1849
430.0,0.1606
431.0,0.1579
432.0,0.2022
433.0,0.2017
434.0,0.1858
435.0,0.1925
436.0,0.2154
437.0,0.2109
438.0,0.1906
439.0,0.1956
440.0,0.2003
441.0,0.2058
442.0,0.2189
443.0,0.2116
444.0,0.2146
445.0,0.2084
446.0,0.1974
447.0,0.2118
448.0,0.2133
449.0,0.2124
450.0,0.2166
451.0,0.2228
452.0,0.213
453.0,0.1989
454.0,0.2061
455.0,0.2057
456.0,0.2089
457.0,0.2106
458.0,0.2017
459.0,0.199
460.0,0.1979
461.0,0.2009
462.0,0.201
463.0,0.1982
464.0,0.1937
465.0,0.1899
466.0,0.1904
467.0,0.1854
468.0,0.186
469.0,0.1853
470.0,0.1781
471.0,0.1766
472.0,0.1847
473.0,0.181
474.0,0.1798
475.0,0.1799
476.0,0.1731
477.0,0.1721
478.0,0.1753
479.0,0.1727
480.0,0.1716
481.0,0.1732
482.0,0.1727
483.0,0.1694
484.0,0.1647
485.0,0.1559
486.0,0.1353
487.0,0.1408
488.0,0.1533
489.0,0.1525
490.0,0.1592
491.0,0.1553
492.0,0.1455
493.0,0.1492
494.0,0.1495
495.0,0.1497
496.0,0.1495
497.0,0.1506
498.0,0.1424
499.0,0.143
500.0,0.1376
501.0,0.1338
502.0,0.1308
503.0,0.1349
504.0,0.1303
505.0,0.134
506.0,0.1373
507.0,0.1298
508.0,0.1249
509.0,0.1276
510.0,0.1261
511.0,0.1286
512.0,0.129
513.0,0.1212
514.0,0.1194
515.0,0.1174
516.0,0.1162
517.0,0.1025
518.0,0.107
519.0,0.1114
520.0,0.1146
521.0,0.1148
522.0,0.114
523.0,0.1111
524.0,0.1142
525.0,0.1147
526.0,0.1087
527.0,0.1015
528.0,0.1065
529.0,0.1114
530.0,0.109
531.0,0.1098
532.0,0.1053
533.0,0.1015
534.0,0.1038
535.0,0.1053
536.0,0.1056
537.0,0.1007
538.0,0.1018
539.0,0.1003
540.0,0.09553
541.0,0.09545
542.0,0.09768
543.0,0.09595
544.0,0.09699
545.0,0.0961
546.0,0.09583
547.0,0.09511
548.0,0.09332
549.0,0.09299
550.0,0.09346
551.0,0.09168
552.0,0.09167
553.0,0.0894
554.0,0.09091
555.0,0.09046
556.0,0.08863
557.0,0.08523
558.0,0.08393
559.0,0.08171
560.0,0.0821
561.0,0.08252
562.0,0.08128
563.0,0.08287
564.0,0.08004
565.0,0.07879
566.0,0.07707
567.0,0.07795
568.0,0.07669
569.0,0.07429
570.0,0.07378
571.0,0.07284
572.0,0.07402
573.0,0.07433
574.0,0.07365
575.0,0.07184
576.0,0.07074
577.0,0.07109
578.0,0.06964
579.0,0.06956
580.0,0.07053
581.0,0.07051
582.0,0.07144
583.0,0.07126
584.0,0.07152
585.0,0.06939
586.0,0.06751
587.0,0.06851
588.0,0.06637
589.0,0.05828
590.0,0.0606
591.0,0.06384
592.0,0.06256
593.0,0.06311
594.0,0.0622
595.0,0.0602
596.0,0.0623
597.0,0.06119
598.0,0.06063
599.0,0.06029
600.0,0.06002
601.0,0.05919
602.0,0.05844
603.0,0.05906
604.0,0.05969
605.0,0.05907
606.0,0.05853
607.0,0.05883
608.0,0.05789
609.0,0.05769
610.0,0.05701
611.0,0.05704
612.0,0.05661
613.0,0.05561
614.0,0.05458
615.0,0.05551
616.0,0.05342
617.0,0.05306
618.0,0.05483
619.0,0.05401
620.0,0.05407
621.0,0.05384
622.0,0.05292
623.0,0.05181
624.0,0.05065
625.0,0.0503
626.0,0.05081
627.0,0.05109
628.0,0.04711
629.0,0.04923
630.0,0.04782
631.0,0.04876
632.0,0.04796
633.0,0.04924
634.0,0.04858
635.0,0.0491
636.0,0.04822
637.0,0.04878
638.0,0.04904
639.0,0.04827
640.0,0.04757
641.0,0.04731
642.0,0.04689
643.0,0.04732
644.0,0.04696
645.0,0.04678
646.0,0.04541
647.0,0.04457
648.0,0.04435
649.0,0.04328
650.0,0.04338
651.0,0.04505
652.0,0.04281
653.0,0.04402
654.0,0.04333
655.0,0.04142
656.0,0.03658
657.0,0.0374
658.0,0.04176
659.0,0.04188
660.0,0.04184
661.0,0.04192
662.0,0.0418
663.0,0.0408
664.0,0.04112
665.0,0.04097
666.0,0.04081
667.0,0.04059
668.0,0.04043
669.0,0.04086
670.0,0.04049
671.0,0.04029
672.0,0.0398
673.0,0.04025
674.0,0.0399
675.0,0.03934
676.0,0.03943
677.0,0.03887
678.0,0.03882
679.0,0.03802
680.0,0.03814
681.0,0.03771
682.0,0.03748
683.0,0.03722
684.0,0.03685
685.0,0.03697
686.0,0.03658
687.0,0.02304
688.0,0.02737
689.0,0.02735
690.0,0.02872
691.0,0.0303
692.0,0.03145
693.0,0.03101
694.0,0.03055
695.0,0.03182
696.0,0.0317
697.0,0.03378
698.0,0.03309
699.0,0.03198
700.0,0.03144
701.0,0.03095
702.0,0.03108
703.0,0.03098
704.0,0.0319
705.0,0.03179
706.0,0.03165
707.0,0.03154
708.0,0.03145
709.0,0.03138
710.0,0.0312
711.0,0.03107
712.0,0.03088
713.0,0.0304
714.0,0.03035
715.0,0.02919
716.0,0.02906
717.0,0.02459
718.0,0.02228
719.0,0.02014
720.0,0.02108
721.0,0.02348
722.0,0.02723
723.0,0.02495
724.0,0.02209
725.0,0.0216
726.0,0.02264
727.0,0.02286
728.0,0.02126
729.0,0.0221
730.0,0.02338
731.0,0.02216
732.0,0.0238
733.0,0.02527
734.0,0.02579
735.0,0.02511
736.0,0.02498
737.0,0.02495
738.0,0.02532
739.0,0.02469
740.0,0.02524
741.0,0.02489
742.0,0.02481
743.0,0.02531
744.0,0.02512
745.0,0.025
746.0,0.025
747.0,0.02494
748.0,0.02476
749.0,0.02435
750.0,0.02423
751.0,0.02388
752.0,0.02388
753.0,0.02388
754.0,0.02381
755.0,0.02357
756.0,0.02346
757.0,0.02339
758.0,0.02298
759.0,0.02235
760.0,0.003135
761.0,0.001601
762.0,0.01036
763.0,0.004835
764.0,0.007472
765.0,0.0102
766.0,0.01283
767.0,0.01654
768.0,0.01939
769.0,0.0198
770.0,0.02048
771.0,0.0206
772.0,0.02056
773.0,0.0206
774.0,0.02039
775.0,0.02015
776.0,0.0203
777.0,0.01993
778.0,0.01971
779.0,0.01962
780.0,0.01942
781.0,0.01935
782.0,0.01939
783.0,0.01897
784.0,0.01897
785.0,0.01875
786.0,0.01887
787.0,0.01842
788.0,0.01808
789.0,0.01798
790.0,0.01735
791.0,0.01748
792.0,0.01728
793.0,0.01691
794.0,0.01719
795.0,0.01739
796.0,0.01668
797.0,0.01664
798.0,0.01713
799.0,0.01693
800.0,0.01653
801.0,0.01638
802.0,0.01626
803.0,0.01605
804.0,0.01601
805.0,0.01591
806.0,0.01632
807.0,0.01603
808.0,0.01598
809.0,0.01558
810.0,0.01535
811.0,0.01527
812.0,0.0147
813.0,0.01428
814.0,0.01228
815.0,0.01214
816.0,0.01113
817.0,0.01132
818.0,0.01082
819.0,0.01225
820.0,0.01139
821.0,0.01359
822.0,0.01308
823.0,0.008366
824.0,0.01252
825.0,0.01308
826.0,0.01244
827.0,0.01318
828.0,0.01086
829.0,0.01222
830.0,0.01198
831.0,0.01198
832.0,0.01151
833.0,0.01238
834.0,0.01181
835.0,0.01308
836.0,0.01237
837.0,0.01301
838.0,0.01252
839.0,0.01271
840.0,0.01294
841.0,0.01268
842.0,0.01268
843.0,0.01264
844.0,0.01239
845.0,0.01278
846.0,0.01267
847.0,0.01238
848.0,0.01224
849.0,0.01184
850.0,0.01129
851.0,0.01189
852.0,0.01175
853.0,0.01127
854.0,0.009676
855.0,0.0106
856.0,0.01153
857.0,0.01175
858.0,0.01162
859.0,0.01158
860.0,0.01155
861.0,0.01144
862.0,0.01158
863.0,0.01181
864.0,0.01117
865.0,0.01103
866.0,0.009877
867.0,0.01027
868.0,0.01112
869.0,0.01085
870.0,0.01111
871.0,0.01092
872.0,0.01083
873.0,0.01077
874.0,0.01059
875.0,0.01033
876.0,0.01039
877.0,0.01045
878.0,0.01052
879.0,0.01031
880.0,0.01005
881.0,0.009852
882.0,0.01002
883.0,0.01002
884.0,0.009928
885.0,0.009957
886.0,0.009431
887.0,0.009509
888.0,0.009598
889.0,0.009685
890.0,0.009538
891.0,0.009495
892.0,0.009161
893.0,0.008795
894.0,0.008383
895.0,0.007804
896.0,0.00723
897.0,0.006041
898.0,0.006657
899.0,0.00483
900.0,0.006823
901.0,0.005098
902.0,0.006119
903.0,0.006121
904.0,0.007981
905.0,0.007628
906.0,0.007058
907.0,0.005502
908.0,0.005625
909.0,0.006172
910.0,0.005298
911.0,0.005698
912.0,0.005977
913.0,0.005312
914.0,0.00525
915.0,0.005743
916.0,0.004717
917.0,0.006218
918.0,0.004822
919.0,0.006294
920.0,0.006367
921.0,0.006669
922.0,0.005821
923.0,0.006391
924.0,0.005934
925.0,0.00576
926.0,0.005822
927.0,0.006597
928.0,0.004547
929.0,0.004077
930.0,0.003068
931.0,0.002878
932.0,0.00197
933.0,0.001552
934.0,0.0007906
935.0,0.001587
936.0,0.0009363
937.0,0.0009445
938.0,0.001181
939.0,0.002694
940.0,0.003324
941.0,0.002402
942.0,0.002825
943.0,0.001744
944.0,0.001855
945.0,0.00244
946.0,0.001134
947.0,0.002425
948.0,0.00171
949.0,0.003367
950.0,0.0007897
951.0,0.003292
952.0,0.001608
953.0,0.002147
954.0,0.002721
955.0,0.002172
956.0,0.002094
957.0,0.00158
958.0,0.003105
959.0,0.00236
960.0,0.002678
961.0,0.003057
962.0,0.00286
963.0,0.003369
964.0,0.003031
965.0,0.003332
966.0,0.003319
967.0,0.003284
968.0,0.004654
969.0,0.004871
970.0,0.004387
971.0,0.005147
972.0,0.004859
973.0,0.004098
974.0,0.003845
975.0,0.004002
976.0,0.003743
977.0,0.004364
978.0,0.004083
979.0,0.004306
980.0,0.003983
981.0,0.004925
982.0,0.004646
983.0,0.004413
984.0,0.005065
985.0,0.004579
986.0,0.005142
987.0,0.004996
988.0,0.004965
989.0,0.005083
990.0,0.004902
991.0,0.005051
992.0,0.005064
993.0,0.004908
994.0,0.005029
995.0,0.005009
996.0,0.004963
997.0,0.004953
998.0,0.00491
999.0,0.004876
1000.0,0.004817
1001.0,0.004867
1002.0,0.004687
1003.0,0.004742
1004.0,0.004601
1005.0,0.004425
1006.0,0.004574
1007.0,0.004656
1008.0,0.004608
1009.0,0.004561
1010.0,0.004522
1011.0,0.004564
1012.0,0.004501
1013.0,0.00452
1014.0,0.004472
1015.0,0.004425
1016.0,0.004387
1017.0,0.00438
1018.0,0.00435
1019.0,0.00423
1020.0,0.004292
1021.0,0.004271
1022.0,0.004217
1023.0,0.004246
1024.0,0.004166
1025.0,0.004216
1026.0,0.004179
1027.0,0.004154
1028.0,0.004129
1029.0,0.004065
1030.0,0.004081
1031.0,0.004048
1032.0,0.004021
1033.0,0.003945
1034.0,0.00393
1035.0,0.003927
1036.0,0.003932
1037.0,0.003853
1038.0,0.003856
1039.0,0.00384
1040.0,0.00381
1041.0,0.00381
1042.0,0.003769
1043.0,0.003743
1044.0,0.003742
1045.0,0.003677
1046.0,0.003622
1047.0,0.00364
1048.0,0.003647
1049.0,0.00362
1050.0,0.00359
1051.0,0.00357
1052.0,0.003542
1053.0,0.0035
1054.0,0.003495
1055.0,0.003482
1056.0,0.003456
1057.0,0.003431
1058.0,0.003334
1059.0,0.003325
1060.0,0.003307
1061.0,0.00329
1062.0,0.003293
1063.0,0.003249
1064.0,0.003276
1065.0,0.003238
1066.0,0.003164
1067.0,0.003192
1068.0,0.003109
1069.0,0.003003
1070.0,0.003091
1071.0,0.003135
1072.0,0.003082
1073.0,0.003028
1074.0,0.003104
1075.0,0.002915
1076.0,0.003078
1077.0,0.002998
1078.0,0.002926
1079.0,0.002998
1080.0,0.002915
1081.0,0.002807
1082.0,0.00286
1083.0,0.002862
1084.0,0.00276
1085.0,0.002876
1086.0,0.002569
1087.0,0.00268
1088.0,0.002803
1089.0,0.002686
1090.0,0.002597
1091.0,0.002756
1092.0,0.002744
1093.0,0.002249
1094.0,0.002486
1095.0,0.002344
1096.0,0.002215
1097.0,0.002636
1098.0,0.002161
1099.0,0.002256
1100.0,0.002055
1101.0,0.002085
1102.0,0.001969
1103.0,0.001931
1104.0,0.001929
1105.0,0.002151
1106.0,0.001546
1107.0,0.002008
1108.0,0.001636
1109.0,0.001637
1110.0,0.001964
1111.0,0.001233
1112.0,0.00161
1113.0,0.0009398
1114.0,0.001063
1115.0,0.0008565
1116.0,0.0006542
1117.0,0.0002111
1118.0,0.0007171
1119.0,0.0003237
1120.0,0.0004141
1121.0,0.0005674
1122.0,0.000215
1123.0,0.0003667
1124.0,0.000304
1125.0,0.0004074
1126.0,0.0001258
1127.0,0.0004615
1128.0,0.0002571
1129.0,0.0002741
1130.0,0.0001724
1131.0,0.0009489
1132.0,0.0007156
1133.0,0.0004219
1134.0,9.374e-05
1135.0,3.381e-05
1136.0,0.0003392
1137.0,0.0009087
1138.0,0.0006097
1139.0,0.0009729
1140.0,0.0007841
1141.0,0.0005704
1142.0,0.0006681
1143.0,0.0009977
1144.0,0.0003007
1145.0,0.0003893
1146.0,0.0004211
1147.0,0.0001314
1148.0,0.0008317
1149.0,0.0006379
1150.0,0.0003195
1151.0,0.0005778
1152.0,0.0007341
1153.0,0.0007149
1154.0,0.0003641
1155.0,0.0009672
1156.0,0.0008521
1157.0,0.0009744
1158.0,0.0009593
1159.0,0.001051
1160.0,0.0008699
1161.0,0.001114
1162.0,0.001111
1163.0,0.001587
1164.0,0.001319
1165.0,0.001222
1166.0,0.001213
1167.0,0.001337
1168.0,0.001348
1169.0,0.001387
1170.0,0.001523
1171.0,0.001472
1172.0,0.001501
1173.0,0.001503
1174.0,0.001005
1175.0,0.001462
1176.0,0.001628
1177.0,0.001543
1178.0,0.001098
1179.0,0.001626
1180.0,0.001413
1181.0,0.001462
1182.0,0.0009428
1183.0,0.001437
1184.0,0.001319
1185.0,0.001257
1186.0,0.001536
1187.0,0.001444
1188.0,0.0009456
1189.0,0.001329
1190.0,0.001478
1191.0,0.001381
1192.0,0.001493
1193.0,0.001415
1194.0,0.001462
1195.0,0.001366
1196.0,0.001302
1197.0,0.001461
1198.0,0.001313
1199.0,0.001082
1200.0,0.00137
1201.0,0.001307
1202.0,0.001296
1203.0,0.001289
1204.0,0.001093
1205.0,0.001324
1206.0,0.001487
1207.0,0.001276
1208.0,0.001262
1209.0,0.001284
1210.0,0.001343
1211.0,0.001262
1212.0,0.001236
1213.0,0.001402
1214.0,0.001264
1215.0,0.001232
1216.0,0.001384
1217.0,0.001337
1218.0,0.001364
1219.0,0.00134
1220.0,0.001357
1221.0,0.001369
1222.0,0.001324
1223.0,0.001305
1224.0,0.00129
1225.0,0.001343
1226.0,0.001351
1227.0,0.001227
1228.0,0.001352
1229.0,0.001339
1230.0,0.001308
1231.0,0.00135
1232.0,0.001337
1233.0,0.001277
1234.0,0.001338
1235.0,0.001323
1236.0,0.00133
1237.0,0.001303
1238.0,0.001317
1239.0,0.001296
1240.0,0.001297
1241.0,0.001284
1242.0,0.001279
1243.0,0.001265
1244.0,0.001268
1245.0,0.00127
1246.0,0.001259
1247.0,0.001249
1248.0,0.001243
1249.0,0.001244
1250.0,0.001232
1251.0,0.001211
1252.0,0.001209
1253.0,0.001192
1254.0,0.001174
1255.0,0.001195
1256.0,0.001152
1257.0,0.001141
1258.0,0.001163
1259.0,0.001108
1260.0,0.001112
1261.0,0.001035
1262.0,0.0009955
1263.0,0.0009942
1264.0,0.0009021
1265.0,0.0009825
1266.0,0.000935
1267.0,0.0009538
1268.0,0.0008933
1269.0,0.0005059
1270.0,0.0009406
1271.0,0.001005
1272.0,0.001006
1273.0,0.0009914
1274.0,0.000993
1275.0,0.001006
1276.0,0.001015
1277.0,0.00102
1278.0,0.001042
1279.0,0.001029
1280.0,0.001012
1281.0,0.0009651
1282.0,0.0009304
1283.0,0.0009983
1284.0,0.001018
1285.0,0.001022
1286.0,0.001035
1287.0,0.001012
1288.0,0.001009
1289.0,0.0009676
1290.0,0.0009945
1291.0,0.001006
1292.0,0.0009293
1293.0,0.0009768
1294.0,0.0009659
1295.0,0.0009562
1296.0,0.0009014
1297.0,0.0008422
1298.0,0.0009176
1299.0,0.0009609
1300.0,0.0007848
1301.0,0.0008121
1302.0,0.0009045
1303.0,0.0007684
1304.0,0.0006333
1305.0,0.0008742
1306.0,0.0008715
1307.0,0.0006441
1308.0,0.000758
1309.0,0.0008558
1310.0,0.0006245
1311.0,0.0007151
1312.0,0.000693
1313.0,0.0006735
1314.0,0.0005883
1315.0,0.0005799
1316.0,0.0006922
1317.0,0.0006469
1318.0,0.0007126
1319.0,0.0005293
1320.0,0.0005098
1321.0,0.000608
1322.0,0.0006123
1323.0,0.0004368
1324.0,0.0005101
1325.0,0.0006617
1326.0,0.0005509
1327.0,0.0005194
1328.0,0.0004361
1329.0,0.0003118
1330.0,0.0004201
1331.0,0.000234
1332.0,0.0002429
1333.0,0.0003517
1334.0,0.0002918
1335.0,0.0004199
1336.0,0.0003187
1337.0,0.0002758
1338.0,0.0003007
1339.0,0.0002992
1340.0,0.0002894
1341.0,0.0002791
1342.0,0.0002942
1343.0,0.0001865
1344.0,0.0001061
1345.0,0.000158
1346.0,7.229e-05
1347.0,7.313e-05
1348.0,4.193e-06
1349.0,1.553e-05
1350.0,1.617e-05
1351.0,3.752e-06
1352.0,9.928e-07
1353.0,5.003e-08
1354.0,1.724e-07
1355.0,1.382e-09
1356.0,2.422e-08
1357.0,3.68e-08
1358.0,1.623e-09
1359.0,2.043e-10
1360.0,7.386e-10
1361.0,8.26e-13
1362.0,2.259e-15
1363.0,9.931e-10
1364.0,4.1e-10
