interpolation:linear
wavelength,value
280.0,1.289e-21
280.5,4.128e-20
281.0,2.193e-19
281.5,5.046e-19
282.0,9.824e-19
282.5,2.459e-18
283.0,7.771e-18
283.5,1.263e-17
284.0,2.043e-16
284.5,5.904e-16
285.0,1.201e-15
285.5,5.77e-15
286.0,2.303e-14
286.5,1.017e-13
287.0,2.884e-13
287.5,1.096e-12
288.0,3.288e-12
288.5,1.038e-11
289.0,2.838e-11
289.5,8.729e-11
290.0,2.448e-10
290.5,5.024e-10
291.0,1.084e-09
291.5,3.126e-09
292.0,6.362e-09
292.5,9.254e-09
293.0,2.072e-08
293.5,5.324e-08
294.0,8.623e-08
294.5,1.124e-07
295.0,1.955e-07
295.5,4.569e-07
296.0,8.228e-07
296.5,1.178e-06
297.0,1.63e-06
297.5,4.552e-06
298.0,7.476e-06
298.5,7.801e-06
299.0,1.792e-05
299.5,3.249e-05
300.0,3.788e-05
300.5,5.878e-05
301.0,0.0001219
301.5,0.0002274
302.0,0.0002144
302.5,0.000421
303.0,0.000762
303.5,0.0009673
304.0,0.0009214
304.5,0.001433
305.0,0.002309
305.5,0.002748
306.0,0.002696
306.5,0.003439
307.0,0.005408
307.5,0.007612
308.0,0.008096
308.5,0.009823
309.0,0.009982
309.5,0.01162
310.0,0.01176
310.5,0.01909
311.0,0.02409
311.5,0.02328
312.0,0.02369
312.5,0.02916
313.0,0.03178
313.5,0.03053
314.0,0.03877
314.5,0.03518
315.0,0.04631
315.5,0.0381
316.0,0.03392
316.5,0.04955
317.0,0.0613
317.5,0.06321
318.0,0.04985
318.5,0.06349
319.0,0.07625
319.5,0.06047
320.0,0.07258
320.5,0.09333
321.0,0.08527
321.5,0.08174
322.0,0.08416
322.5,0.07309
323.0,0.07404
323.5,0.09257
324.0,0.108
324.5,0.1086
325.0,0.09229
325.5,0.1204
326.0,0.1474
326.5,0.1486
327.0,0.1471
327.5,0.1409
328.0,0.1236
328.5,0.1314
329.0,0.159
329.5,0.1808
330.0,0.1811
330.5,0.1429
331.0,0.1446
331.5,0.1476
332.0,0.1609
332.5,0.1597
333.0,0.1581
333.5,0.1413
334.0,0.144
334.5,0.1675
335.0,0.1579
335.5,0.1861
336.0,0.1284
336.5,0.1475
337.0,0.12
337.5,0.1485
338.0,0.1459
338.5,0.1697
339.0,0.167
339.5,0.1604
340.0,0.1861
340.5,0.1674
341.0,0.1639
341.5,0.1493
342.0,0.1777
342.5,0.1656
343.0,0.1819
343.5,0.1711
344.0,0.1254
344.5,0.1275
345.0,0.167
345.5,0.1696
346.0,0.1435
346.5,0.1619
347.0,0.1735
347.5,0.14
348.0,0.1586
348.5,0.1579
349.0,0.1459
349.5,0.144
350.0,0.1775
350.5,0.1866
351.0,0.1663
351.5,0.1616
352.0,0.1726
352.5,0.134
353.0,0.1682
353.5,0.1792
354.0,0.1853
354.5,0.1873
355.0,0.1861
355.5,0.1675
356.0,0.1746
356.5,0.1486
357.0,0.1224
357.5,0.1493
358.0,0.1179
358.5,0.1004
359.0,0.1399
359.5,0.1778
360.0,0.1878
360.5,0.1496
361.0,0.1359
361.5,0.1559
362.0,0.1343
362.5,0.1853
363.0,0.1659
363.5,0.1523
364.0,0.1856
364.5,0.1581
365.0,0.1604
365.5,0.2007
366.0,0.2119
366.5,0.1984
367.0,0.1925
367.5,0.1991
368.0,0.1736
368.5,0.1746
369.0,0.1879
369.5,0.1996
370.0,0.212
370.5,0.164
371.0,0.1746
371.5,0.2177
372.0,0.144
372.5,0.1721
373.0,0.1744
373.5,0.1131
374.0,0.1638
374.5,0.1351
375.0,0.1309
375.5,0.1948
376.0,0.1609
376.5,0.1661
377.0,0.1753
377.5,0.2044
378.0,0.2207
378.5,0.2079
379.0,0.1709
379.5,0.1555
380.0,0.1611
380.5,0.1944
381.0,0.1941
381.5,0.1533
382.0,0.1356
382.5,0.1152
383.0,0.1063
383.5,0.102
384.0,0.1121
384.5,0.1643
385.0,0.1623
385.5,0.1506
386.0,0.1286
386.5,0.1683
387.0,0.1393
387.5,0.1559
388.0,0.1434
388.5,0.1412
389.0,0.1519
389.5,0.1833
390.0,0.1833
390.5,0.1681
391.0,0.1971
391.5,0.2003
392.0,0.1681
392.5,0.1499
393.0,0.08312
393.5,0.0602
394.0,0.1221
394.5,0.1547
395.0,0.188
395.5,0.1903
396.0,0.1644
396.5,0.09576
397.0,0.0716
397.5,0.1451
398.0,0.2024
398.5,0.2085
399.0,0.2249
399.5,0.2234
400.0,0.2311
401.0,0.2271
402.0,0.2378
403.0,0.2242
404.0,0.2191
405.0,0.2175
406.0,0.2124
407.0,0.2074
408.0,0.2138
409.0,0.2272
410.0,0.1971
411.0,0.212
412.0,0.226
413.0,0.2188
414.0,0.2199
415.0,0.2189
416.0,0.221
417.0,0.2139
418.0,0.2084
419.0,0.2095
420.0,0.207
421.0,0.2149
422.0,0.2027
423.0,0.1964
424.0,0.2061
425.0,0.2042
426.0,0.1974
427.0,0.1924
428.0,0.186
429.0,0.175
430.0,0.152
431.0,0.1495
432.0,0.1915
433.0,0.1911
434.0,0.1761
435.0,0.1825
436.0,0.2042
437.0,0.2001
438.0,0.1808
439.0,0.1856
440.0,0.19
441.0,0.1953
442.0,0.2078
443.0,0.2009
444.0,0.2038
445.0,0.198
446.0,0.1877
447.0,0.2014
448.0,0.2029
449.0,0.2021
450.0,0.2061
451.0,0.2121
452.0,0.2029
453.0,0.1895
454.0,0.1964
455.0,0.196
456.0,0.1991
457.0,0.2007
458.0,0.1923
459.0,0.1897
460.0,0.1887
461.0,0.1915
462.0,0.1916
463.0,0.1891
464.0,0.1848
465.0,0.1813
466.0,0.1818
467.0,0.1771
468.0,0.1776
469.0,0.177
470.0,0.1701
471.0,0.1688
472.0,0.1766
473.0,0.173
474.0,0.1719
475.0,0.172
476.0,0.1654
477.0,0.1644
478.0,0.1675
479.0,0.165
480.0,0.1639
481.0,0.1654
482.0,0.165
483.0,0.1618
484.0,0.1574
485.0,0.149
486.0,0.1294
487.0,0.1347
488.0,0.1467
489.0,0.146
490.0,0.1524
491.0,0.1486
492.0,0.1393
493.0,0.1427
494.0,0.1431
495.0,0.1433
496.0,0.1431
497.0,0.1441
498.0,0.1362
499.0,0.1367
500.0,0.1315
501.0,0.1279
502.0,0.1249
503.0,0.1287
504.0,0.1243
505.0,0.1278
506.0,0.131
507.0,0.1238
508.0,0.1192
509.0,0.1218
510.0,0.1204
511.0,0.1228
512.0,0.1232
513.0,0.1158
514.0,0.1141
515.0,0.1121
516.0,0.111
517.0,0.09791
518.0,0.1022
519.0,0.1064
520.0,0.1094
521.0,0.1095
522.0,0.1088
523.0,0.106
524.0,0.1089
525.0,0.1093
526.0,0.1035
527.0,0.09669
528.0,0.1014
529.0,0.106
530.0,0.1037
531.0,0.1044
532.0,0.1001
533.0,0.09644
534.0,0.09862
535.0,0.1001
536.0,0.1004
537.0,0.09579
538.0,0.0968
539.0,0.09536
540.0,0.09081
541.0,0.09071
542.0,0.09281
543.0,0.09115
544.0,0.09211
545.0,0.09124
546.0,0.09098
547.0,0.09029
548.0,0.08859
549.0,0.08826
550.0,0.0887
551.0,0.08701
552.0,0.08699
553.0,0.08483
554.0,0.08625
555.0,0.08581
556.0,0.08405
557.0,0.08081
558.0,0.07954
559.0,0.07742
560.0,0.07775
561.0,0.07812
562.0,0.07691
563.0,0.07839
564.0,0.07569
565.0,0.07449
566.0,0.07285
567.0,0.07366
568.0,0.07244
569.0,0.07014
570.0,0.06965
571.0,0.06875
572.0,0.06984
573.0,0.07013
574.0,0.06948
575.0,0.06777
576.0,0.06675
577.0,0.06709
578.0,0.06574
579.0,0.06568
580.0,0.06663
581.0,0.06663
582.0,0.06755
583.0,0.06739
584.0,0.06765
585.0,0.06564
586.0,0.06388
587.0,0.06482
588.0,0.06277
589.0,0.05507
590.0,0.05727
591.0,0.06034
592.0,0.05911
593.0,0.05964
594.0,0.05875
595.0,0.05683
596.0,0.05882
597.0,0.05775
598.0,0.05722
599.0,0.05688
600.0,0.05662
601.0,0.05584
602.0,0.05513
603.0,0.05572
604.0,0.05633
605.0,0.05575
606.0,0.05527
607.0,0.05557
608.0,0.0547
609.0,0.05455
610.0,0.05393
611.0,0.05398
612.0,0.05359
613.0,0.05267
614.0,0.05172
615.0,0.05261
616.0,0.05065
617.0,0.05032
618.0,0.05202
619.0,0.05126
620.0,0.05133
621.0,0.05112
622.0,0.05025
623.0,0.04921
624.0,0.04812
625.0,0.04779
626.0,0.04828
627.0,0.04855
628.0,0.04469
629.0,0.04677
630.0,0.04545
631.0,0.04638
632.0,0.04563
633.0,0.04688
634.0,0.04626
635.0,0.04678
636.0,0.04596
637.0,0.04651
638.0,0.04678
639.0,0.04606
640.0,0.04541
641.0,0.04518
642.0,0.04479
643.0,0.04521
644.0,0.04488
645.0,0.04472
646.0,0.04341
647.0,0.04259
648.0,0.04239
649.0,0.04137
650.0,0.0415
651.0,0.04312
652.0,0.04095
653.0,0.04214
654.0,0.04149
655.0,0.03966
656.0,0.03504
657.0,0.03583
658.0,0.04003
659.0,0.04015
660.0,0.04013
661.0,0.04021
662.0,0.04009
663.0,0.03914
664.0,0.03946
665.0,0.03933
666.0,0.03919
667.0,0.03899
668.0,0.03885
669.0,0.03927
670.0,0.03892
671.0,0.03874
672.0,0.03827
673.0,0.03871
674.0,0.03838
675.0,0.03786
676.0,0.03794
677.0,0.03742
678.0,0.03737
679.0,0.0366
680.0,0.03673
681.0,0.03632
682.0,0.0361
683.0,0.03586
684.0,0.0355
685.0,0.03562
686.0,0.03525
687.0,0.02194
688.0,0.02617
689.0,0.02616
690.0,0.02752
691.0,0.02909
692.0,0.03023
693.0,0.02982
694.0,0.02939
695.0,0.03065
696.0,0.03053
697.0,0.03258
698.0,0.03192
699.0,0.03083
700.0,0.0303
701.0,0.02983
702.0,0.02996
703.0,0.02987
704.0,0.03078
705.0,0.03067
706.0,0.03055
707.0,0.03044
708.0,0.03036
709.0,0.03031
710.0,0.03013
711.0,0.03
712.0,0.02983
713.0,0.02936
714.0,0.02931
715.0,0.02818
716.0,0.02805
717.0,0.02365
718.0,0.02143
719.0,0.01938
720.0,0.02026
721.0,0.02262
722.0,0.02628
723.0,0.02406
724.0,0.02128
725.0,0.0208
726.0,0.02179
727.0,0.02204
728.0,0.02046
729.0,0.02131
730.0,0.02253
731.0,0.02135
732.0,0.02296
733.0,0.02441
734.0,0.02492
735.0,0.02426
736.0,0.02413
737.0,0.0241
738.0,0.02448
739.0,0.02387
740.0,0.02442
741.0,0.02408
742.0,0.02401
743.0,0.02449
744.0,0.02431
745.0,0.0242
746.0,0.0242
747.0,0.02414
748.0,0.02397
749.0,0.02357
750.0,0.02345
751.0,0.02312
752.0,0.02312
753.0,0.02313
754.0,0.02307
755.0,0.02283
756.0,0.02273
757.0,0.02266
758.0,0.02227
759.0,0.02164
760.0,0.002983
761.0,0.001533
762.0,0.009862
763.0,0.004589
764.0,0.007096
765.0,0.009711
766.0,0.01227
767.0,0.0159
768.0,0.01873
769.0,0.01914
770.0,0.01983
771.0,0.01996
772.0,0.01992
773.0,0.01996
774.0,0.01976
775.0,0.01952
776.0,0.01966
777.0,0.01931
778.0,0.01909
779.0,0.01901
780.0,0.01881
781.0,0.01875
782.0,0.01878
783.0,0.01838
784.0,0.01839
785.0,0.01817
786.0,0.01828
787.0,0.01784
788.0,0.01751
789.0,0.01741
790.0,0.01679
791.0,0.01693
792.0,0.01674
793.0,0.01638
794.0,0.01667
795.0,0.01685
796.0,0.01616
797.0,0.01611
798.0,0.0166
799.0,0.0164
800.0,0.01601
801.0,0.01587
802.0,0.01575
803.0,0.01555
804.0,0.01551
805.0,0.01541
806.0,0.01582
807.0,0.01554
808.0,0.01549
809.0,0.01509
810.0,0.01486
811.0,0.01478
812.0,0.01421
813.0,0.0138
814.0,0.01184
815.0,0.01171
816.0,0.01074
817.0,0.01092
818.0,0.01043
819.0,0.01183
820.0,0.011
821.0,0.01315
822.0,0.01265
823.0,0.008063
824.0,0.0121
825.0,0.01266
826.0,0.01203
827.0,0.01277
828.0,0.01049
829.0,0.01182
830.0,0.01159
831.0,0.0116
832.0,0.01113
833.0,0.01198
834.0,0.01142
835.0,0.01268
836.0,0.01197
837.0,0.01261
838.0,0.01212
839.0,0.01232
840.0,0.01255
841.0,0.01229
842.0,0.01229
843.0,0.01226
844.0,0.01202
845.0,0.01239
846.0,0.01229
847.0,0.01201
848.0,0.01187
849.0,0.01148
850.0,0.01095
851.0,0.01152
852.0,0.01139
853.0,0.01092
854.0,0.00938
855.0,0.01028
856.0,0.01118
857.0,0.0114
858.0,0.01126
859.0,0.01123
860.0,0.01121
861.0,0.0111
862.0,0.01123
863.0,0.01146
864.0,0.01084
865.0,0.0107
866.0,0.009584
867.0,0.009961
868.0,0.01079
869.0,0.01053
870.0,0.01078
871.0,0.01059
872.0,0.01051
873.0,0.01045
874.0,0.01028
875.0,0.01002
876.0,0.01008
877.0,0.01014
878.0,0.01021
879.0,0.01001
880.0,0.009751
881.0,0.009559
882.0,0.009726
883.0,0.009723
884.0,0.009632
885.0,0.009661
886.0,0.009146
887.0,0.009224
888.0,0.009308
889.0,0.009396
890.0,0.00925
891.0,0.00921
892.0,0.008881
893.0,0.008521
894.0,0.008111
895.0,0.007538
896.0,0.006984
897.0,0.005827
898.0,0.006423
899.0,0.004657
900.0,0.006592
901.0,0.004908
902.0,0.005907
903.0,0.005902
904.0,0.007722
905.0,0.007377
906.0,0.006824
907.0,0.005305
908.0,0.005425
909.0,0.005958
910.0,0.005103
911.0,0.005497
912.0,0.005766
913.0,0.005115
914.0,0.005059
915.0,0.005527
916.0,0.004546
917.0,0.005995
918.0,0.004643
919.0,0.006075
920.0,0.006158
921.0,0.006446
922.0,0.005617
923.0,0.006179
924.0,0.005721
925.0,0.005556
926.0,0.005611
927.0,0.006368
928.0,0.004366
929.0,0.003908
930.0,0.002938
931.0,0.002759
932.0,0.001887
933.0,0.001487
934.0,0.0007581
935.0,0.001523
936.0,0.0009001
937.0,0.0009076
938.0,0.001133
939.0,0.002582
940.0,0.003187
941.0,0.002299
942.0,0.002705
943.0,0.001673
944.0,0.001785
945.0,0.002337
946.0,0.001089
947.0,0.002321
948.0,0.001643
949.0,0.003219
950.0,0.0007589
951.0,0.00315
952.0,0.001541
953.0,0.002057
954.0,0.002608
955.0,0.00208
956.0,0.002016
957.0,0.001513
958.0,0.002989
959.0,0.002266
960.0,0.002567
961.0,0.002936
962.0,0.002748
963.0,0.00324
964.0,0.002916
965.0,0.003205
966.0,0.00319
967.0,0.003155
968.0,0.004498
969.0,0.0047
970.0,0.004233
971.0,0.004978
972.0,0.004698
973.0,0.003948
974.0,0.003705
975.0,0.003862
976.0,0.003604
977.0,0.004216
978.0,0.003938
979.0,0.004156
980.0,0.003844
981.0,0.004763
982.0,0.004489
983.0,0.004261
984.0,0.004905
985.0,0.004423
986.0,0.004984
987.0,0.004837
988.0,0.004808
989.0,0.00493
990.0,0.004745
991.0,0.004897
992.0,0.00491
993.0,0.004754
994.0,0.004878
995.0,0.004858
996.0,0.004813
997.0,0.004805
998.0,0.004763
999.0,0.00473
1000.0,0.004672
1001.0,0.004721
1002.0,0.004542
1003.0,0.0046
1004.0,0.004461
1005.0,0.004293
1006.0,0.004436
1007.0,0.004516
1008.0,0.004469
1009.0,0.004423
1010.0,0.004384
1011.0,0.004427
1012.0,0.004365
1013.0,0.004385
1014.0,0.004339
1015.0,0.004293
1016.0,0.004256
1017.0,0.004249
1018.0,0.00422
1019.0,0.004102
1020.0,0.004163
1021.0,0.004143
1022.0,0.004091
1023.0,0.004119
1024.0,0.004039
1025.0,0.00409
1026.0,0.004054
1027.0,0.004029
1028.0,0.004005
1029.0,0.003943
1030.0,0.003959
1031.0,0.003926
1032.0,0.003901
1033.0,0.003827
1034.0,0.003813
1035.0,0.00381
1036.0,0.003814
1037.0,0.003738
1038.0,0.003741
1039.0,0.003725
1040.0,0.003696
1041.0,0.003695
1042.0,0.003655
1043.0,0.00363
1044.0,0.003629
1045.0,0.003566
1046.0,0.003512
1047.0,0.00353
1048.0,0.003536
1049.0,0.00351
1050.0,0.00348
1051.0,0.003462
1052.0,0.003434
1053.0,0.003394
1054.0,0.003388
1055.0,0.003376
1056.0,0.003349
1057.0,0.003325
1058.0,0.003231
1059.0,0.003222
1060.0,0.003204
1061.0,0.003188
1062.0,0.003191
1063.0,0.003147
1064.0,0.003174
1065.0,0.003136
1066.0,0.003065
1067.0,0.003092
1068.0,0.003011
1069.0,0.002909
1070.0,0.002994
1071.0,0.003038
1072.0,0.002985
1073.0,0.002934
1074.0,0.003009
1075.0,0.002822
1076.0,0.002983
1077.0,0.002903
1078.0,0.002833
1079.0,0.002907
1080.0,0.002824
1081.0,0.002716
1082.0,0.002771
1083.0,0.002774
1084.0,0.00267
1085.0,0.002786
1086.0,0.002484
1087.0,0.002594
1088.0,0.002716
1089.0,0.0026
1090.0,0.002512
1091.0,0.00267
1092.0,0.002659
1093.0,0.002172
1094.0,0.002408
1095.0,0.002263
1096.0,0.002137
1097.0,0.002555
1098.0,0.002084
1099.0,0.002176
1100.0,0.00198
1101.0,0.002009
1102.0,0.001896
1103.0,0.001858
1104.0,0.001856
1105.0,0.002074
1106.0,0.001482
1107.0,0.001934
1108.0,0.001571
1109.0,0.001573
1110.0,0.00189
1111.0,0.001183
1112.0,0.001547
1113.0,0.0009002
1114.0,0.001017
1115.0,0.0008212
1116.0,0.0006256
1117.0,0.0002028
1118.0,0.0006857
1119.0,0.0003106
1120.0,0.0003953
1121.0,0.0005404
1122.0,0.0002063
1123.0,0.0003509
1124.0,0.0002916
1125.0,0.0003895
1126.0,0.0001211
1127.0,0.0004406
1128.0,0.0002459
1129.0,0.000262
1130.0,0.0001657
1131.0,0.0009027
1132.0,0.0006822
1133.0,0.0004021
1134.0,9.06e-05
1135.0,3.309e-05
1136.0,0.0003235
1137.0,0.0008627
1138.0,0.0005818
1139.0,0.0009315
1140.0,0.0007492
1141.0,0.0005448
1142.0,0.0006381
1143.0,0.0009513
1144.0,0.0002887
1145.0,0.0003712
1146.0,0.000401
1147.0,0.0001262
1148.0,0.0007945
1149.0,0.0006093
1150.0,0.0003069
1151.0,0.0005514
1152.0,0.0007007
1153.0,0.000685
1154.0,0.0003475
1155.0,0.0009251
1156.0,0.0008144
1157.0,0.0009334
1158.0,0.0009189
1159.0,0.001007
1160.0,0.000834
1161.0,0.00107
1162.0,0.001067
1163.0,0.00153
1164.0,0.00127
1165.0,0.001173
1166.0,0.001168
1167.0,0.001288
1168.0,0.001297
1169.0,0.001336
1170.0,0.001469
1171.0,0.00142
1172.0,0.00145
1173.0,0.00145
1174.0,0.0009663
1175.0,0.001413
1176.0,0.001577
1177.0,0.001492
1178.0,0.001058
1179.0,0.001575
1180.0,0.001364
1181.0,0.001412
1182.0,0.000908
1183.0,0.001389
1184.0,0.001273
1185.0,0.001212
1186.0,0.001485
1187.0,0.001395
1188.0,0.0009091
1189.0,0.001283
1190.0,0.00143
1191.0,0.001333
1192.0,0.001444
1193.0,0.001368
1194.0,0.001415
1195.0,0.001319
1196.0,0.001256
1197.0,0.001414
1198.0,0.00127
1199.0,0.001042
1200.0,0.001324
1201.0,0.001261
1202.0,0.001253
1203.0,0.001245
1204.0,0.001054
1205.0,0.001281
1206.0,0.00144
1207.0,0.001232
1208.0,0.00122
1209.0,0.001242
1210.0,0.0013
1211.0,0.00122
1212.0,0.001192
1213.0,0.001357
1214.0,0.00122
1215.0,0.001188
1216.0,0.00134
1217.0,0.001293
1218.0,0.00132
1219.0,0.001296
1220.0,0.001313
1221.0,0.001326
1222.0,0.001282
1223.0,0.001263
1224.0,0.001248
1225.0,0.0013
1226.0,0.001309
1227.0,0.001186
1228.0,0.00131
1229.0,0.001297
1230.0,0.001267
1231.0,0.001309
1232.0,0.001296
1233.0,0.001236
1234.0,0.001298
1235.0,0.001283
1236.0,0.00129
1237.0,0.001263
1238.0,0.001277
1239.0,0.001257
1240.0,0.001258
1241.0,0.001245
1242.0,0.001241
1243.0,0.001227
1244.0,0.00123
1245.0,0.001232
1246.0,0.001221
1247.0,0.001212
1248.0,0.001205
1249.0,0.001207
1250.0,0.001195
1251.0,0.001174
1252.0,0.001172
1253.0,0.001155
1254.0,0.001137
1255.0,0.001159
1256.0,0.001116
1257.0,0.001104
1258.0,0.001127
1259.0,0.001072
1260.0,0.001076
1261.0,0.0009991
1262.0,0.0009595
1263.0,0.0009582
1264.0,0.0008668
1265.0,0.0009469
1266.0,0.0008995
1267.0,0.0009187
1268.0,0.0008587
1269.0,0.0004794
1270.0,0.0009054
1271.0,0.00097
1272.0,0.0009716
1273.0,0.0009568
1274.0,0.0009587
1275.0,0.0009721
1276.0,0.0009809
1277.0,0.0009868
1278.0,0.001008
1279.0,0.0009954
1280.0,0.00098
1281.0,0.0009346
1282.0,0.0009018
1283.0,0.0009674
1284.0,0.0009865
1285.0,0.0009905
1286.0,0.001003
1287.0,0.0009802
1288.0,0.0009779
1289.0,0.0009361
1290.0,0.0009637
1291.0,0.0009753
1292.0,0.0008982
1293.0,0.0009462
1294.0,0.0009357
1295.0,0.0009253
1296.0,0.0008708
1297.0,0.0008126
1298.0,0.0008877
1299.0,0.0009311
1300.0,0.0007571
1301.0,0.000784
1302.0,0.000875
1303.0,0.0007417
1304.0,0.0006086
1305.0,0.0008456
1306.0,0.0008426
1307.0,0.0006202
1308.0,0.0007324
1309.0,0.0008269
1310.0,0.0006011
1311.0,0.0006903
1312.0,0.0006683
1313.0,0.000649
1314.0,0.0005664
1315.0,0.0005573
1316.0,0.0006674
1317.0,0.0006237
1318.0,0.000688
1319.0,0.0005084
1320.0,0.0004906
1321.0,0.0005855
1322.0,0.0005888
1323.0,0.0004186
1324.0,0.0004902
1325.0,0.0006378
1326.0,0.0005298
1327.0,0.0004993
1328.0,0.0004189
1329.0,0.0002985
1330.0,0.0004018
1331.0,0.0002234
1332.0,0.0002324
1333.0,0.0003351
1334.0,0.0002803
1335.0,0.0004021
1336.0,0.0003049
1337.0,0.000264
1338.0,0.0002873
1339.0,0.0002861
1340.0,0.0002776
1341.0,0.0002663
1342.0,0.0002807
1343.0,0.000177
1344.0,0.0001018
1345.0,0.0001506
1346.0,6.907e-05
1347.0,6.974e-05
1348.0,4.123e-06
1349.0,1.508e-05
1350.0,1.57e-05
1351.0,3.691e-06
1352.0,9.836e-07
1353.0,4.988e-08
1354.0,1.716e-07
1355.0,1.38e-09
1356.0,2.415e-08
1357.0,3.67e-08
1358.0,1.62e-09
1359.0,2.04e-10
1360.0,7.373e-10
1361.0,8.247e-13
1362.0,2.256e-15
