interpolation:linear
wavelength,value
280.0,4.832999999999999e-22
280.5,1.577e-20
281.0,8.429000000000001e-20
281.5,4.676e-19
282.0,7.732e-19
282.5,1.914e-18
283.0,6.039e-18
283.5,9.817e-18
284.0,1.605e-16
284.5,4.665e-16
285.0,8.093e-16
285.5,3.999e-15
286.0,1.608e-14
286.5,7.201e-14
287.0,2.059e-13
287.5,7.903e-13
288.0,2.63e-12
288.5,8.022e-12
289.0,2.146e-11
289.5,6.498e-11
290.0,1.806e-10
290.5,3.685e-10
291.0,7.913e-10
291.5,2.272e-09
292.0,4.862e-09
292.5,6.822e-09
293.0,1.463e-08
293.5,3.56e-08
294.0,5.566e-08
294.5,7.521e-08
295.0,1.273e-07
295.5,2.285e-07
296.0,4.48e-07
296.5,6.381e-07
297.0,8.778e-07
297.5,2.425e-06
298.0,3.935e-06
298.5,4.06e-06
299.0,9.202e-06
299.5,1.618e-05
300.0,1.845e-05
300.5,2.784e-05
301.0,5.442e-05
301.5,9.412e-05
302.0,8.435e-05
302.5,0.0001681
303.0,0.0003104
303.5,0.0004
304.0,0.0003862
304.5,0.000622
305.0,0.001054
305.5,0.001297
306.0,0.00129
306.5,0.001684
307.0,0.002784
307.5,0.004123
308.0,0.004425
308.5,0.005513
309.0,0.005704
309.5,0.006936
310.0,0.00716
310.5,0.01174
311.0,0.01506
311.5,0.01466
312.0,0.01542
312.5,0.01941
313.0,0.0214
313.5,0.02037
314.0,0.02654
314.5,0.02491
315.0,0.03299
315.5,0.02674
316.0,0.02446
316.5,0.03656
317.0,0.04524
317.5,0.04638
318.0,0.03717
318.5,0.04877
319.0,0.05947
319.5,0.04609
320.0,0.05515
320.5,0.0731
321.0,0.06863
321.5,0.066
322.0,0.06608
322.5,0.05751
323.0,0.05938
323.5,0.0753
324.0,0.08817
324.5,0.08801
325.0,0.07443
325.5,0.09859
326.0,0.1209
326.5,0.1231
327.0,0.1215
327.5,0.1159
328.0,0.1005
328.5,0.1085
329.0,0.133
329.5,0.1518
330.0,0.1517
330.5,0.1186
331.0,0.1197
331.5,0.1232
332.0,0.1358
332.5,0.1354
333.0,0.1338
333.5,0.1187
334.0,0.1209
334.5,0.1419
335.0,0.1346
335.5,0.1583
336.0,0.1093
336.5,0.1256
337.0,0.1019
337.5,0.126
338.0,0.1247
338.5,0.145
339.0,0.1429
339.5,0.1373
340.0,0.1595
340.5,0.1436
341.0,0.1405
341.5,0.1284
342.0,0.153
342.5,0.1427
343.0,0.1566
343.5,0.1472
344.0,0.108
344.5,0.1096
345.0,0.1441
345.5,0.1466
346.0,0.1242
346.5,0.1402
347.0,0.1502
347.5,0.1211
348.0,0.1376
348.5,0.1371
349.0,0.1268
349.5,0.1252
350.0,0.1544
350.5,0.1624
351.0,0.1447
351.5,0.1404
352.0,0.1502
352.5,0.1168
353.0,0.1467
353.5,0.1564
354.0,0.1619
354.5,0.1637
355.0,0.1627
355.5,0.1466
356.0,0.1529
356.5,0.1302
357.0,0.1073
357.5,0.1309
358.0,0.1034
358.5,0.08814
359.0,0.1229
359.5,0.1562
360.0,0.1651
360.5,0.1315
361.0,0.1196
361.5,0.1373
362.0,0.1184
362.5,0.1633
363.0,0.1463
363.5,0.1343
364.0,0.1638
364.5,0.1396
365.0,0.1417
365.5,0.1774
366.0,0.1874
366.5,0.1755
367.0,0.1704
367.5,0.1763
368.0,0.1538
368.5,0.1548
369.0,0.1666
369.5,0.1771
370.0,0.1882
370.5,0.1456
371.0,0.1551
371.5,0.1935
372.0,0.128
372.5,0.1531
373.0,0.1552
373.5,0.1007
374.0,0.1459
374.5,0.1204
375.0,0.1167
375.5,0.1737
376.0,0.1436
376.5,0.1483
377.0,0.1565
377.5,0.1826
378.0,0.1973
378.5,0.1859
379.0,0.1529
379.5,0.1392
380.0,0.1442
380.5,0.1741
381.0,0.1739
381.5,0.1374
382.0,0.1217
382.5,0.1034
383.0,0.09539
383.5,0.09159
384.0,0.1007
384.5,0.1477
385.0,0.146
385.5,0.1355
386.0,0.1157
386.5,0.1515
387.0,0.1255
387.5,0.1405
388.0,0.1293
388.5,0.1274
389.0,0.137
389.5,0.1654
390.0,0.1655
390.5,0.1518
391.0,0.1781
391.5,0.1811
392.0,0.152
392.5,0.1356
393.0,0.07522
393.5,0.05451
394.0,0.1106
394.5,0.1401
395.0,0.1704
395.5,0.1726
396.0,0.1491
396.5,0.08688
397.0,0.06499
397.5,0.1317
398.0,0.1839
398.5,0.1894
399.0,0.2045
399.5,0.2031
400.0,0.2102
401.0,0.2066
402.0,0.2165
403.0,0.2043
404.0,0.1998
405.0,0.1985
406.0,0.1939
407.0,0.1894
408.0,0.1955
409.0,0.2078
410.0,0.1804
411.0,0.1941
412.0,0.2071
413.0,0.2007
414.0,0.2018
415.0,0.2009
416.0,0.203
417.0,0.1966
418.0,0.1916
419.0,0.1928
420.0,0.1906
421.0,0.198
422.0,0.1868
423.0,0.1812
424.0,0.1902
425.0,0.1885
426.0,0.1824
427.0,0.1778
428.0,0.172
429.0,0.1619
430.0,0.1407
431.0,0.1384
432.0,0.1774
433.0,0.1771
434.0,0.1633
435.0,0.1694
436.0,0.1896
437.0,0.1858
438.0,0.168
439.0,0.1724
440.0,0.1766
441.0,0.1816
442.0,0.1933
443.0,0.1869
444.0,0.1897
445.0,0.1844
446.0,0.1749
447.0,0.1878
448.0,0.1893
449.0,0.1886
450.0,0.1924
451.0,0.198
452.0,0.1895
453.0,0.177
454.0,0.1836
455.0,0.1833
456.0,0.1862
457.0,0.1878
458.0,0.1799
459.0,0.1774
460.0,0.1765
461.0,0.1791
462.0,0.1793
463.0,0.177
464.0,0.1731
465.0,0.1699
466.0,0.1705
467.0,0.1661
468.0,0.1667
469.0,0.1661
470.0,0.1597
471.0,0.1584
472.0,0.1658
473.0,0.1625
474.0,0.1615
475.0,0.1616
476.0,0.1554
477.0,0.1545
478.0,0.1573
479.0,0.1549
480.0,0.1538
481.0,0.1553
482.0,0.1549
483.0,0.152
484.0,0.148
485.0,0.1402
486.0,0.1219
487.0,0.1269
488.0,0.1382
489.0,0.1375
490.0,0.1435
491.0,0.14
492.0,0.1312
493.0,0.1345
494.0,0.1348
495.0,0.135
496.0,0.1348
497.0,0.1357
498.0,0.1282
499.0,0.1286
500.0,0.1237
501.0,0.1202
502.0,0.1173
503.0,0.1209
504.0,0.1166
505.0,0.12
506.0,0.123
507.0,0.1162
508.0,0.112
509.0,0.1144
510.0,0.1132
511.0,0.1155
512.0,0.1159
513.0,0.1088
514.0,0.1073
515.0,0.1054
516.0,0.1043
517.0,0.09201
518.0,0.09603
519.0,0.09996
520.0,0.1028
521.0,0.1029
522.0,0.1021
523.0,0.09953
524.0,0.1022
525.0,0.1025
526.0,0.09704
527.0,0.09058
528.0,0.0949
529.0,0.09919
530.0,0.09697
531.0,0.09761
532.0,0.09353
533.0,0.09015
534.0,0.09219
535.0,0.09361
536.0,0.09388
537.0,0.08958
538.0,0.09054
539.0,0.08918
540.0,0.0849
541.0,0.08479
542.0,0.08672
543.0,0.08515
544.0,0.08602
545.0,0.08519
546.0,0.08493
547.0,0.08428
548.0,0.08269
549.0,0.08238
550.0,0.08279
551.0,0.0812
552.0,0.08118
553.0,0.07915
554.0,0.08046
555.0,0.08003
556.0,0.07837
557.0,0.07532
558.0,0.07411
559.0,0.0721
560.0,0.07237
561.0,0.07268
562.0,0.07153
563.0,0.07286
564.0,0.07033
565.0,0.06919
566.0,0.06765
567.0,0.06838
568.0,0.06722
569.0,0.06505
570.0,0.06458
571.0,0.06374
572.0,0.06473
573.0,0.06498
574.0,0.06437
575.0,0.06278
576.0,0.06185
577.0,0.06219
578.0,0.06096
579.0,0.06093
580.0,0.06184
581.0,0.06188
582.0,0.06276
583.0,0.06264
584.0,0.06289
585.0,0.06104
586.0,0.05941
587.0,0.06029
588.0,0.05836
589.0,0.05115
590.0,0.05319
591.0,0.05606
592.0,0.05489
593.0,0.05539
594.0,0.05453
595.0,0.05271
596.0,0.05457
597.0,0.05355
598.0,0.05304
599.0,0.05272
600.0,0.05248
601.0,0.05175
602.0,0.0511
603.0,0.05165
604.0,0.05223
605.0,0.05171
606.0,0.05128
607.0,0.05159
608.0,0.05081
609.0,0.05069
610.0,0.05015
611.0,0.05022
612.0,0.04989
613.0,0.04906
614.0,0.0482
615.0,0.04906
616.0,0.04726
617.0,0.04697
618.0,0.04858
619.0,0.04788
620.0,0.04796
621.0,0.04777
622.0,0.04696
623.0,0.046
624.0,0.045
625.0,0.04471
626.0,0.04517
627.0,0.04543
628.0,0.04173
629.0,0.04376
630.0,0.04253
631.0,0.04345
632.0,0.04277
633.0,0.04396
634.0,0.04341
635.0,0.04391
636.0,0.04317
637.0,0.04371
638.0,0.04398
639.0,0.04332
640.0,0.04274
641.0,0.04253
642.0,0.04219
643.0,0.0426
644.0,0.04231
645.0,0.04216
646.0,0.04093
647.0,0.04013
648.0,0.03996
649.0,0.03901
650.0,0.03918
651.0,0.04072
652.0,0.03865
653.0,0.03982
654.0,0.03922
655.0,0.03748
656.0,0.03313
657.0,0.03389
658.0,0.03788
659.0,0.038
660.0,0.03799
661.0,0.03808
662.0,0.03797
663.0,0.03708
664.0,0.0374
665.0,0.0373
666.0,0.03717
667.0,0.037
668.0,0.03688
669.0,0.0373
670.0,0.03697
671.0,0.03681
672.0,0.03637
673.0,0.0368
674.0,0.0365
675.0,0.036
676.0,0.0361
677.0,0.0356
678.0,0.03556
679.0,0.03484
680.0,0.03497
681.0,0.03458
682.0,0.03438
683.0,0.03415
684.0,0.03381
685.0,0.03394
686.0,0.03358
687.0,0.02064
688.0,0.02472
689.0,0.02472
690.0,0.02605
691.0,0.02759
692.0,0.02873
693.0,0.02834
694.0,0.02795
695.0,0.02919
696.0,0.02909
697.0,0.03108
698.0,0.03046
699.0,0.02939
700.0,0.0289
701.0,0.02843
702.0,0.02858
703.0,0.0285
704.0,0.02938
705.0,0.02928
706.0,0.02917
707.0,0.02908
708.0,0.029
709.0,0.02896
710.0,0.02879
711.0,0.02867
712.0,0.02851
713.0,0.02806
714.0,0.02802
715.0,0.02692
716.0,0.0268
717.0,0.0225
718.0,0.0204
719.0,0.01846
720.0,0.01928
721.0,0.02157
722.0,0.0251
723.0,0.02297
724.0,0.02029
725.0,0.01982
726.0,0.02076
727.0,0.02103
728.0,0.0195
729.0,0.02034
730.0,0.02148
731.0,0.02036
732.0,0.02193
733.0,0.02334
734.0,0.02384
735.0,0.02321
736.0,0.02307
737.0,0.02305
738.0,0.02344
739.0,0.02286
740.0,0.02339
741.0,0.02308
742.0,0.02301
743.0,0.02348
744.0,0.0233
745.0,0.0232
746.0,0.0232
747.0,0.02314
748.0,0.02298
749.0,0.0226
750.0,0.02249
751.0,0.02218
752.0,0.02218
753.0,0.02219
754.0,0.02213
755.0,0.02191
756.0,0.02181
757.0,0.02175
758.0,0.02137
759.0,0.02076
760.0,0.002838
761.0,0.001473
762.0,0.009298
763.0,0.00434
764.0,0.006688
765.0,0.009156
766.0,0.01161
767.0,0.01513
768.0,0.01791
769.0,0.01834
770.0,0.01903
771.0,0.01916
772.0,0.01913
773.0,0.01916
774.0,0.01897
775.0,0.01874
776.0,0.01888
777.0,0.01853
778.0,0.01832
779.0,0.01824
780.0,0.01806
781.0,0.01799
782.0,0.01803
783.0,0.01764
784.0,0.01766
785.0,0.01745
786.0,0.01756
787.0,0.01712
788.0,0.0168
789.0,0.01671
790.0,0.0161
791.0,0.01626
792.0,0.01607
793.0,0.01573
794.0,0.01602
795.0,0.01619
796.0,0.0155
797.0,0.01546
798.0,0.01595
799.0,0.01576
800.0,0.01538
801.0,0.01523
802.0,0.01512
803.0,0.01492
804.0,0.01489
805.0,0.0148
806.0,0.0152
807.0,0.01493
808.0,0.01488
809.0,0.01449
810.0,0.01427
811.0,0.01417
812.0,0.01362
813.0,0.01322
814.0,0.01132
815.0,0.01119
816.0,0.01027
817.0,0.01044
818.0,0.009969
819.0,0.01132
820.0,0.01053
821.0,0.01261
822.0,0.01213
823.0,0.007704
824.0,0.01159
825.0,0.01215
826.0,0.01154
827.0,0.01225
828.0,0.01004
829.0,0.01134
830.0,0.01112
831.0,0.01112
832.0,0.01068
833.0,0.0115
834.0,0.01095
835.0,0.01218
836.0,0.01148
837.0,0.01211
838.0,0.01163
839.0,0.01184
840.0,0.01206
841.0,0.01181
842.0,0.01181
843.0,0.01179
844.0,0.01155
845.0,0.01192
846.0,0.01182
847.0,0.01156
848.0,0.01141
849.0,0.01104
850.0,0.01053
851.0,0.01107
852.0,0.01095
853.0,0.0105
854.0,0.009014
855.0,0.009879
856.0,0.01075
857.0,0.01096
858.0,0.01083
859.0,0.0108
860.0,0.01078
861.0,0.01067
862.0,0.01081
863.0,0.01102
864.0,0.01043
865.0,0.0103
866.0,0.009222
867.0,0.009585
868.0,0.01039
869.0,0.01013
870.0,0.01038
871.0,0.01019
872.0,0.01012
873.0,0.01006
874.0,0.009891
875.0,0.009647
876.0,0.009703
877.0,0.009761
878.0,0.009822
879.0,0.009631
880.0,0.009385
881.0,0.009198
882.0,0.009357
883.0,0.009355
884.0,0.009268
885.0,0.009295
886.0,0.008794
887.0,0.008873
888.0,0.008952
889.0,0.00904
890.0,0.008894
891.0,0.008859
892.0,0.008535
893.0,0.008185
894.0,0.007779
895.0,0.007215
896.0,0.006687
897.0,0.005571
898.0,0.006142
899.0,0.004452
900.0,0.006312
901.0,0.004685
902.0,0.005652
903.0,0.00564
904.0,0.007405
905.0,0.007071
906.0,0.006539
907.0,0.00507
908.0,0.005188
909.0,0.0057
910.0,0.004872
911.0,0.00526
912.0,0.005514
913.0,0.004882
914.0,0.004834
915.0,0.005271
916.0,0.004345
917.0,0.005726
918.0,0.004433
919.0,0.00581
920.0,0.005906
921.0,0.006174
922.0,0.005372
923.0,0.00592
924.0,0.005465
925.0,0.00531
926.0,0.005358
927.0,0.006088
928.0,0.004154
929.0,0.003714
930.0,0.002791
931.0,0.002623
932.0,0.001794
933.0,0.001416
934.0,0.0007255
935.0,0.001452
936.0,0.0008616
937.0,0.0008687
938.0,0.001081
939.0,0.002454
940.0,0.003027
941.0,0.002183
942.0,0.002567
943.0,0.001594
944.0,0.001705
945.0,0.002221
946.0,0.00104
947.0,0.002203
948.0,0.001568
949.0,0.00305
950.0,0.0007271
951.0,0.002986
952.0,0.001467
953.0,0.001956
954.0,0.002479
955.0,0.001977
956.0,0.001929
957.0,0.00144
958.0,0.002852
959.0,0.002159
960.0,0.00244
961.0,0.002796
962.0,0.002618
963.0,0.00309
964.0,0.002782
965.0,0.003055
966.0,0.00304
967.0,0.003006
968.0,0.004311
969.0,0.004493
970.0,0.004048
971.0,0.004773
972.0,0.004502
973.0,0.003771
974.0,0.003539
975.0,0.003694
976.0,0.003438
977.0,0.004039
978.0,0.003765
979.0,0.003975
980.0,0.003679
981.0,0.004567
982.0,0.004298
983.0,0.004078
984.0,0.00471
985.0,0.004234
986.0,0.004791
987.0,0.004643
988.0,0.004616
989.0,0.004742
990.0,0.004554
991.0,0.004708
992.0,0.004722
993.0,0.004566
994.0,0.004691
995.0,0.004674
996.0,0.00463
997.0,0.004622
998.0,0.004582
999.0,0.00455
1000.0,0.004493
1001.0,0.004542
1002.0,0.004364
1003.0,0.004425
1004.0,0.00429
1005.0,0.00413
1006.0,0.004268
1007.0,0.004345
1008.0,0.004299
1009.0,0.004253
1010.0,0.004215
1011.0,0.004259
1012.0,0.004199
1013.0,0.004219
1014.0,0.004174
1015.0,0.00413
1016.0,0.004094
1017.0,0.004088
1018.0,0.004061
1019.0,0.003945
1020.0,0.004006
1021.0,0.003987
1022.0,0.003936
1023.0,0.003962
1024.0,0.003883
1025.0,0.003935
1026.0,0.0039
1027.0,0.003876
1028.0,0.003853
1029.0,0.003793
1030.0,0.003809
1031.0,0.003777
1032.0,0.003753
1033.0,0.003682
1034.0,0.003669
1035.0,0.003666
1036.0,0.003669
1037.0,0.003596
1038.0,0.003599
1039.0,0.003583
1040.0,0.003555
1041.0,0.003555
1042.0,0.003516
1043.0,0.003492
1044.0,0.003491
1045.0,0.00343
1046.0,0.003378
1047.0,0.003395
1048.0,0.003401
1049.0,0.003376
1050.0,0.003347
1051.0,0.003328
1052.0,0.003301
1053.0,0.003262
1054.0,0.003257
1055.0,0.003245
1056.0,0.003219
1057.0,0.003196
1058.0,0.003105
1059.0,0.003096
1060.0,0.003079
1061.0,0.003062
1062.0,0.003065
1063.0,0.003023
1064.0,0.003049
1065.0,0.003011
1066.0,0.002944
1067.0,0.00297
1068.0,0.002891
1069.0,0.002794
1070.0,0.002875
1071.0,0.002919
1072.0,0.002867
1073.0,0.002818
1074.0,0.002892
1075.0,0.002708
1076.0,0.002866
1077.0,0.002788
1078.0,0.002719
1079.0,0.002794
1080.0,0.002712
1081.0,0.002606
1082.0,0.002662
1083.0,0.002666
1084.0,0.002562
1085.0,0.002675
1086.0,0.002382
1087.0,0.002489
1088.0,0.00261
1089.0,0.002494
1090.0,0.002409
1091.0,0.002565
1092.0,0.002555
1093.0,0.002079
1094.0,0.002312
1095.0,0.002165
1096.0,0.002043
1097.0,0.002454
1098.0,0.00199
1099.0,0.00208
1100.0,0.001891
1101.0,0.001919
1102.0,0.001809
1103.0,0.001772
1104.0,0.00177
1105.0,0.001981
1106.0,0.001407
1107.0,0.001846
1108.0,0.001495
1109.0,0.001498
1110.0,0.001802
1111.0,0.001124
1112.0,0.001474
1113.0,0.0008557
1114.0,0.0009647
1115.0,0.0007811
1116.0,0.0005943
1117.0,0.0001948
1118.0,0.0006508
1119.0,0.0002968
1120.0,0.0003758
1121.0,0.0005115
1122.0,0.0001976
1123.0,0.0003343
1124.0,0.0002787
1125.0,0.0003706
1126.0,0.0001168
1127.0,0.0004184
1128.0,0.0002348
1129.0,0.0002499
1130.0,0.0001593
1131.0,0.0008512
1132.0,0.0006454
1133.0,0.0003815
1134.0,8.769e-05
1135.0,3.239e-05
1136.0,0.0003075
1137.0,0.0008121
1138.0,0.0005512
1139.0,0.0008835
1140.0,0.0007098
1141.0,0.0005167
1142.0,0.0006047
1143.0,0.0008989
1144.0,0.0002759
1145.0,0.0003523
1146.0,0.00038
1147.0,0.0001214
1148.0,0.0007522
1149.0,0.0005776
1150.0,0.0002936
1151.0,0.0005224
1152.0,0.0006632
1153.0,0.0006507
1154.0,0.0003303
1155.0,0.0008765
1156.0,0.0007713
1157.0,0.0008863
1158.0,0.0008725
1159.0,0.0009566
1160.0,0.0007931
1161.0,0.001019
1162.0,0.001016
1163.0,0.001462
1164.0,0.001211
1165.0,0.001116
1166.0,0.001115
1167.0,0.001229
1168.0,0.001237
1169.0,0.001274
1170.0,0.001404
1171.0,0.001358
1172.0,0.001389
1173.0,0.001386
1174.0,0.0009212
1175.0,0.001353
1176.0,0.001514
1177.0,0.001429
1178.0,0.001012
1179.0,0.001512
1180.0,0.001306
1181.0,0.001351
1182.0,0.0008673
1183.0,0.00133
1184.0,0.001218
1185.0,0.001158
1186.0,0.001424
1187.0,0.001335
1188.0,0.0008665
1189.0,0.001229
1190.0,0.001372
1191.0,0.001274
1192.0,0.001386
1193.0,0.001311
1194.0,0.001357
1195.0,0.001262
1196.0,0.001201
1197.0,0.001356
1198.0,0.001219
1199.0,0.0009955
1200.0,0.001269
1201.0,0.001207
1202.0,0.001201
1203.0,0.001191
1204.0,0.001008
1205.0,0.001229
1206.0,0.001383
1207.0,0.00118
1208.0,0.001169
1209.0,0.001191
1210.0,0.001247
1211.0,0.001169
1212.0,0.001138
1213.0,0.001302
1214.0,0.001166
1215.0,0.001136
1216.0,0.001285
1217.0,0.00124
1218.0,0.001266
1219.0,0.001243
1220.0,0.00126
1221.0,0.001273
1222.0,0.00123
1223.0,0.001212
1224.0,0.001196
1225.0,0.001248
1226.0,0.001257
1227.0,0.001137
1228.0,0.001259
1229.0,0.001245
1230.0,0.001216
1231.0,0.001259
1232.0,0.001247
1233.0,0.001186
1234.0,0.001248
1235.0,0.001234
1236.0,0.001241
1237.0,0.001214
1238.0,0.001229
1239.0,0.001209
1240.0,0.00121
1241.0,0.001197
1242.0,0.001194
1243.0,0.00118
1244.0,0.001183
1245.0,0.001185
1246.0,0.001175
1247.0,0.001165
1248.0,0.001159
1249.0,0.001161
1250.0,0.001149
1251.0,0.001128
1252.0,0.001128
1253.0,0.00111
1254.0,0.001092
1255.0,0.001115
1256.0,0.001071
1257.0,0.00106
1258.0,0.001083
1259.0,0.001028
1260.0,0.001032
1261.0,0.0009551
1262.0,0.0009158
1263.0,0.0009145
1264.0,0.0008244
1265.0,0.0009037
1266.0,0.0008567
1267.0,0.0008762
1268.0,0.0008171
1269.0,0.0004499
1270.0,0.0008629
1271.0,0.0009274
1272.0,0.0009292
1273.0,0.0009147
1274.0,0.000917
1275.0,0.0009303
1276.0,0.0009393
1277.0,0.0009458
1278.0,0.0009674
1279.0,0.0009551
1280.0,0.0009404
1281.0,0.0008974
1282.0,0.0008668
1283.0,0.0009297
1284.0,0.0009479
1285.0,0.0009519
1286.0,0.0009645
1287.0,0.0009416
1288.0,0.0009397
1289.0,0.0008977
1290.0,0.0009261
1291.0,0.0009377
1292.0,0.0008605
1293.0,0.000909
1294.0,0.0008988
1295.0,0.0008876
1296.0,0.0008337
1297.0,0.0007771
1298.0,0.0008513
1299.0,0.0008948
1300.0,0.000724
1301.0,0.0007501
1302.0,0.0008392
1303.0,0.0007097
1304.0,0.0005796
1305.0,0.000811
1306.0,0.0008075
1307.0,0.000592
1308.0,0.0007016
1309.0,0.0007916
1310.0,0.0005735
1311.0,0.0006606
1312.0,0.000639
1313.0,0.0006197
1314.0,0.0005404
1315.0,0.0005308
1316.0,0.0006379
1317.0,0.000596
1318.0,0.0006584
1319.0,0.000484
1320.0,0.0004681
1321.0,0.0005589
1322.0,0.000561
1323.0,0.0003975
1324.0,0.000467
1325.0,0.0006092
1326.0,0.000505
1327.0,0.0004757
1328.0,0.000399
1329.0,0.0002834
1330.0,0.0003809
1331.0,0.0002119
1332.0,0.0002207
1333.0,0.0003165
1334.0,0.0002672
1335.0,0.0003816
1336.0,0.0002893
1337.0,0.0002509
1338.0,0.0002724
1339.0,0.0002715
1340.0,0.0002643
1341.0,0.0002521
1342.0,0.0002657
1343.0,0.0001673
1344.0,9.743e-05
1345.0,0.0001428
1346.0,6.607e-05
1347.0,6.665e-05
1348.0,4.07e-06
1349.0,1.474e-05
1350.0,1.532e-05
1351.0,3.649e-06
1352.0,9.778e-07
1353.0,4.972e-08
1354.0,1.709e-07
1355.0,1.376e-09
1356.0,2.408e-08
1357.0,3.658e-08
1358.0,1.615e-09
1359.0,2.035e-10
