interpolation:linear
wavelength,value
280.0,4.1369999999999995e-22
280.5,1.3530000000000002e-20
281.0,7.238000000000001e-20
281.5,4.464e-19
282.0,7.389e-19
282.5,1.831e-18
283.0,5.782e-18
283.5,9.403e-18
284.0,1.541e-16
284.5,4.484e-16
285.0,7.631e-16
285.5,3.786e-15
286.0,1.524e-14
286.5,6.84e-14
287.0,1.958e-13
287.5,7.528e-13
288.0,2.536e-12
288.5,7.707e-12
289.0,2.058e-11
289.5,6.222e-11
290.0,1.728e-10
290.5,3.524e-10
291.0,7.566e-10
291.5,2.172e-09
292.0,4.522e-09
292.5,6.356e-09
293.0,1.366e-08
293.5,3.332e-08
294.0,5.218e-08
294.5,7.098e-08
295.0,1.204e-07
295.5,2.113e-07
296.0,4.136e-07
296.5,5.88e-07
297.0,8.074e-07
297.5,2.223e-06
298.0,3.595e-06
298.5,3.697e-06
299.0,8.35e-06
299.5,1.456e-05
300.0,1.652e-05
300.5,2.477e-05
301.0,4.78e-05
301.5,8.143e-05
302.0,7.23e-05
302.5,0.0001443
303.0,0.000267
303.5,0.0003448
304.0,0.0003335
304.5,0.0005396
305.0,0.0009208
305.5,0.001138
306.0,0.001134
306.5,0.001485
307.0,0.002474
307.5,0.00369
308.0,0.003965
308.5,0.004959
309.0,0.00513
309.5,0.006291
310.0,0.006518
310.5,0.01071
311.0,0.01378
311.5,0.01343
312.0,0.01422
312.5,0.01797
313.0,0.01986
313.5,0.01886
314.0,0.0247
314.5,0.02333
315.0,0.03094
315.5,0.025
316.0,0.02298
316.5,0.03452
317.0,0.04271
317.5,0.04373
318.0,0.03516
318.5,0.04639
319.0,0.05672
319.5,0.04377
320.0,0.05234
320.5,0.06977
321.0,0.06583
321.5,0.06334
322.0,0.0631
322.5,0.05493
323.0,0.05692
323.5,0.07241
324.0,0.08485
324.5,0.08458
325.0,0.07142
325.5,0.09488
326.0,0.1164
326.5,0.1188
327.0,0.1171
327.5,0.1117
328.0,0.09658
328.5,0.1046
329.0,0.1286
329.5,0.1469
330.0,0.1467
330.5,0.1145
331.0,0.1155
331.5,0.119
332.0,0.1315
332.5,0.1312
333.0,0.1296
333.5,0.1148
334.0,0.117
334.5,0.1375
335.0,0.1306
335.5,0.1535
336.0,0.106
336.5,0.1218
337.0,0.09874
337.5,0.1221
338.0,0.1211
338.5,0.1407
339.0,0.1388
339.5,0.1333
340.0,0.1549
340.5,0.1395
341.0,0.1365
341.5,0.1248
342.0,0.1487
342.5,0.1387
343.0,0.1522
343.5,0.1431
344.0,0.105
344.5,0.1065
345.0,0.1401
345.5,0.1426
346.0,0.1208
346.5,0.1364
347.0,0.1461
347.5,0.1179
348.0,0.1339
348.5,0.1334
349.0,0.1235
349.5,0.1219
350.0,0.1504
350.5,0.1582
351.0,0.1409
351.5,0.1367
352.0,0.1463
352.5,0.1138
353.0,0.143
353.5,0.1525
354.0,0.1578
354.5,0.1596
355.0,0.1586
355.5,0.1429
356.0,0.1491
356.5,0.1269
357.0,0.1046
357.5,0.1277
358.0,0.1009
358.5,0.08598
359.0,0.1199
359.5,0.1523
360.0,0.161
360.5,0.1283
361.0,0.1167
361.5,0.134
362.0,0.1155
362.5,0.1595
363.0,0.1428
363.5,0.1312
364.0,0.16
364.5,0.1363
365.0,0.1384
365.5,0.1732
366.0,0.183
366.5,0.1715
367.0,0.1665
367.5,0.1723
368.0,0.1503
368.5,0.1512
369.0,0.1629
369.5,0.1731
370.0,0.184
370.5,0.1424
371.0,0.1517
371.5,0.1892
372.0,0.1252
372.5,0.1497
373.0,0.1518
373.5,0.09848
374.0,0.1427
374.5,0.1178
375.0,0.1142
375.5,0.1699
376.0,0.1405
376.5,0.1451
377.0,0.1532
377.5,0.1787
378.0,0.1931
378.5,0.1819
379.0,0.1497
379.5,0.1363
380.0,0.1412
380.5,0.1705
381.0,0.1703
381.5,0.1346
382.0,0.1191
382.5,0.1012
383.0,0.09344
383.5,0.08972
384.0,0.09867
384.5,0.1447
385.0,0.143
385.5,0.1328
386.0,0.1134
386.5,0.1485
387.0,0.123
387.5,0.1377
388.0,0.1267
388.5,0.1249
389.0,0.1343
389.5,0.1622
390.0,0.1623
390.5,0.1489
391.0,0.1747
391.5,0.1776
392.0,0.1491
392.5,0.133
393.0,0.07379
393.5,0.05347
394.0,0.1085
394.5,0.1375
395.0,0.1672
395.5,0.1693
396.0,0.1463
396.5,0.08527
397.0,0.06379
397.5,0.1293
398.0,0.1805
398.5,0.186
399.0,0.2007
399.5,0.1995
400.0,0.2064
401.0,0.2029
402.0,0.2126
403.0,0.2007
404.0,0.1963
405.0,0.195
406.0,0.1905
407.0,0.1862
408.0,0.1921
409.0,0.2043
410.0,0.1774
411.0,0.1909
412.0,0.2037
413.0,0.1973
414.0,0.1984
415.0,0.1976
416.0,0.1997
417.0,0.1934
418.0,0.1885
419.0,0.1897
420.0,0.1876
421.0,0.1949
422.0,0.1839
423.0,0.1783
424.0,0.1872
425.0,0.1856
426.0,0.1796
427.0,0.1751
428.0,0.1694
429.0,0.1595
430.0,0.1386
431.0,0.1364
432.0,0.1748
433.0,0.1745
434.0,0.1609
435.0,0.1669
436.0,0.1869
437.0,0.1831
438.0,0.1656
439.0,0.17
440.0,0.1741
441.0,0.1791
442.0,0.1906
443.0,0.1843
444.0,0.1871
445.0,0.1819
446.0,0.1725
447.0,0.1853
448.0,0.1867
449.0,0.1861
450.0,0.1898
451.0,0.1954
452.0,0.187
453.0,0.1747
454.0,0.1812
455.0,0.1809
456.0,0.1838
457.0,0.1854
458.0,0.1776
459.0,0.1752
460.0,0.1742
461.0,0.1768
462.0,0.177
463.0,0.1748
464.0,0.171
465.0,0.1678
466.0,0.1684
467.0,0.1641
468.0,0.1646
469.0,0.1641
470.0,0.1577
471.0,0.1565
472.0,0.1638
473.0,0.1606
474.0,0.1596
475.0,0.1597
476.0,0.1536
477.0,0.1526
478.0,0.1554
479.0,0.1531
480.0,0.152
481.0,0.1534
482.0,0.153
483.0,0.1502
484.0,0.1462
485.0,0.1386
486.0,0.1205
487.0,0.1254
488.0,0.1366
489.0,0.1359
490.0,0.1419
491.0,0.1384
492.0,0.1297
493.0,0.133
494.0,0.1333
495.0,0.1335
496.0,0.1333
497.0,0.1342
498.0,0.1268
499.0,0.1272
500.0,0.1223
501.0,0.1188
502.0,0.1159
503.0,0.1194
504.0,0.1153
505.0,0.1185
506.0,0.1215
507.0,0.1149
508.0,0.1106
509.0,0.1131
510.0,0.1119
511.0,0.1141
512.0,0.1145
513.0,0.1076
514.0,0.106
515.0,0.1042
516.0,0.1031
517.0,0.09095
518.0,0.09491
519.0,0.0988
520.0,0.1016
521.0,0.1017
522.0,0.1009
523.0,0.09836
524.0,0.101
525.0,0.1013
526.0,0.09588
527.0,0.08948
528.0,0.09374
529.0,0.09797
530.0,0.09577
531.0,0.0964
532.0,0.09237
533.0,0.08902
534.0,0.09104
535.0,0.09245
536.0,0.09271
537.0,0.08847
538.0,0.08942
539.0,0.08807
540.0,0.08385
541.0,0.08373
542.0,0.08563
543.0,0.08408
544.0,0.08493
545.0,0.08411
546.0,0.08385
547.0,0.08321
548.0,0.08164
549.0,0.08134
550.0,0.08173
551.0,0.08017
552.0,0.08014
553.0,0.07814
554.0,0.07943
555.0,0.079
556.0,0.07736
557.0,0.07435
558.0,0.07315
559.0,0.07115
560.0,0.07142
561.0,0.07172
562.0,0.07057
563.0,0.07189
564.0,0.06938
565.0,0.06825
566.0,0.06673
567.0,0.06745
568.0,0.0663
569.0,0.06415
570.0,0.06368
571.0,0.06286
572.0,0.06382
573.0,0.06407
574.0,0.06347
575.0,0.06191
576.0,0.06099
577.0,0.06132
578.0,0.06011
579.0,0.0601
580.0,0.061
581.0,0.06104
582.0,0.06191
583.0,0.0618
584.0,0.06205
585.0,0.06022
586.0,0.05862
587.0,0.05949
588.0,0.05758
589.0,0.05046
590.0,0.05247
591.0,0.05531
592.0,0.05415
593.0,0.05464
594.0,0.05379
595.0,0.05198
596.0,0.05383
597.0,0.05281
598.0,0.05231
599.0,0.05199
600.0,0.05175
601.0,0.05103
602.0,0.05039
603.0,0.05094
604.0,0.05151
605.0,0.051
606.0,0.05058
607.0,0.05089
608.0,0.05013
609.0,0.05002
610.0,0.04948
611.0,0.04956
612.0,0.04924
613.0,0.04842
614.0,0.04758
615.0,0.04843
616.0,0.04666
617.0,0.04638
618.0,0.04797
619.0,0.04728
620.0,0.04736
621.0,0.04718
622.0,0.04638
623.0,0.04544
624.0,0.04445
625.0,0.04416
626.0,0.04462
627.0,0.04487
628.0,0.04121
629.0,0.04322
630.0,0.04201
631.0,0.04293
632.0,0.04226
633.0,0.04344
634.0,0.0429
635.0,0.0434
636.0,0.04267
637.0,0.04321
638.0,0.04349
639.0,0.04284
640.0,0.04226
641.0,0.04207
642.0,0.04173
643.0,0.04214
644.0,0.04185
645.0,0.04171
646.0,0.04048
647.0,0.0397
648.0,0.03953
649.0,0.03859
650.0,0.03876
651.0,0.04029
652.0,0.03824
653.0,0.0394
654.0,0.03881
655.0,0.03709
656.0,0.03279
657.0,0.03354
658.0,0.03749
659.0,0.03762
660.0,0.03761
661.0,0.0377
662.0,0.03759
663.0,0.03671
664.0,0.03703
665.0,0.03693
666.0,0.03681
667.0,0.03665
668.0,0.03653
669.0,0.03694
670.0,0.03662
671.0,0.03647
672.0,0.03603
673.0,0.03646
674.0,0.03616
675.0,0.03567
676.0,0.03577
677.0,0.03528
678.0,0.03524
679.0,0.03453
680.0,0.03465
681.0,0.03427
682.0,0.03407
683.0,0.03385
684.0,0.03351
685.0,0.03364
686.0,0.03329
687.0,0.02042
688.0,0.02447
689.0,0.02446
690.0,0.02579
691.0,0.02733
692.0,0.02846
693.0,0.02808
694.0,0.0277
695.0,0.02893
696.0,0.02884
697.0,0.03082
698.0,0.0302
699.0,0.02914
700.0,0.02865
701.0,0.02818
702.0,0.02833
703.0,0.02825
704.0,0.02913
705.0,0.02903
706.0,0.02892
707.0,0.02883
708.0,0.02875
709.0,0.02872
710.0,0.02855
711.0,0.02843
712.0,0.02828
713.0,0.02782
714.0,0.02779
715.0,0.0267
716.0,0.02658
717.0,0.02229
718.0,0.02022
719.0,0.01829
720.0,0.01911
721.0,0.02138
722.0,0.02489
723.0,0.02277
724.0,0.02011
725.0,0.01965
726.0,0.02058
727.0,0.02085
728.0,0.01933
729.0,0.02017
730.0,0.0213
731.0,0.02019
732.0,0.02174
733.0,0.02315
734.0,0.02365
735.0,0.02302
736.0,0.02289
737.0,0.02286
738.0,0.02326
739.0,0.02268
740.0,0.02321
741.0,0.0229
742.0,0.02283
743.0,0.0233
744.0,0.02312
745.0,0.02303
746.0,0.02302
747.0,0.02297
748.0,0.0228
749.0,0.02243
750.0,0.02232
751.0,0.02201
752.0,0.02201
753.0,0.02202
754.0,0.02197
755.0,0.02175
756.0,0.02165
757.0,0.02159
758.0,0.02121
759.0,0.0206
760.0,0.002816
761.0,0.001465
762.0,0.009203
763.0,0.004301
764.0,0.006621
765.0,0.009064
766.0,0.01149
767.0,0.01499
768.0,0.01777
769.0,0.01819
770.0,0.01888
771.0,0.01902
772.0,0.01898
773.0,0.01902
774.0,0.01883
775.0,0.0186
776.0,0.01873
777.0,0.01839
778.0,0.01818
779.0,0.0181
780.0,0.01792
781.0,0.01786
782.0,0.0179
783.0,0.01751
784.0,0.01753
785.0,0.01732
786.0,0.01743
787.0,0.01699
788.0,0.01668
789.0,0.01659
790.0,0.01598
791.0,0.01613
792.0,0.01595
793.0,0.01561
794.0,0.0159
795.0,0.01608
796.0,0.01539
797.0,0.01534
798.0,0.01584
799.0,0.01564
800.0,0.01526
801.0,0.01512
802.0,0.01501
803.0,0.01481
804.0,0.01478
805.0,0.01469
806.0,0.01509
807.0,0.01482
808.0,0.01477
809.0,0.01438
810.0,0.01416
811.0,0.01406
812.0,0.01351
813.0,0.01312
814.0,0.01122
815.0,0.0111
816.0,0.01019
817.0,0.01036
818.0,0.009888
819.0,0.01123
820.0,0.01044
821.0,0.01251
822.0,0.01204
823.0,0.007642
824.0,0.0115
825.0,0.01206
826.0,0.01145
827.0,0.01216
828.0,0.009962
829.0,0.01126
830.0,0.01104
831.0,0.01104
832.0,0.01059
833.0,0.01141
834.0,0.01087
835.0,0.01209
836.0,0.0114
837.0,0.01203
838.0,0.01155
839.0,0.01175
840.0,0.01197
841.0,0.01172
842.0,0.01173
843.0,0.01171
844.0,0.01147
845.0,0.01184
846.0,0.01174
847.0,0.01148
848.0,0.01133
849.0,0.01096
850.0,0.01045
851.0,0.01099
852.0,0.01087
853.0,0.01042
854.0,0.008949
855.0,0.009809
856.0,0.01067
857.0,0.01088
858.0,0.01075
859.0,0.01072
860.0,0.0107
861.0,0.0106
862.0,0.01073
863.0,0.01094
864.0,0.01036
865.0,0.01023
866.0,0.009158
867.0,0.009518
868.0,0.01032
869.0,0.01006
870.0,0.01031
871.0,0.01012
872.0,0.01005
873.0,0.009985
874.0,0.009823
875.0,0.00958
876.0,0.009636
877.0,0.009694
878.0,0.009754
879.0,0.009564
880.0,0.00932
881.0,0.009134
882.0,0.009292
883.0,0.00929
884.0,0.009203
885.0,0.00923
886.0,0.008732
887.0,0.008811
888.0,0.008889
889.0,0.008976
890.0,0.008831
891.0,0.008797
892.0,0.008474
893.0,0.008125
894.0,0.00772
895.0,0.007158
896.0,0.006635
897.0,0.005527
898.0,0.006093
899.0,0.004417
900.0,0.006263
901.0,0.004647
902.0,0.005607
903.0,0.005594
904.0,0.007349
905.0,0.007017
906.0,0.006489
907.0,0.005029
908.0,0.005147
909.0,0.005655
910.0,0.004832
911.0,0.005219
912.0,0.00547
913.0,0.004842
914.0,0.004795
915.0,0.005227
916.0,0.00431
917.0,0.00568
918.0,0.004397
919.0,0.005764
920.0,0.005862
921.0,0.006126
922.0,0.00533
923.0,0.005875
924.0,0.00542
925.0,0.005267
926.0,0.005314
927.0,0.006039
928.0,0.004118
929.0,0.003681
930.0,0.002767
931.0,0.0026
932.0,0.001779
933.0,0.001405
934.0,0.0007204
935.0,0.00144
936.0,0.0008554
937.0,0.0008625
938.0,0.001073
939.0,0.002432
940.0,0.003
941.0,0.002164
942.0,0.002544
943.0,0.00158
944.0,0.001691
945.0,0.002202
946.0,0.001032
947.0,0.002183
948.0,0.001555
949.0,0.003022
950.0,0.0007221
951.0,0.002958
952.0,0.001455
953.0,0.001939
954.0,0.002456
955.0,0.00196
956.0,0.001914
957.0,0.001428
958.0,0.002828
959.0,0.00214
960.0,0.002418
961.0,0.002772
962.0,0.002596
963.0,0.003064
964.0,0.002759
965.0,0.003029
966.0,0.003014
967.0,0.00298
968.0,0.004278
969.0,0.004457
970.0,0.004016
971.0,0.004736
972.0,0.004467
973.0,0.00374
974.0,0.003511
975.0,0.003664
976.0,0.00341
977.0,0.004008
978.0,0.003735
979.0,0.003944
980.0,0.00365
981.0,0.004532
982.0,0.004265
983.0,0.004046
984.0,0.004676
985.0,0.004201
986.0,0.004757
987.0,0.004609
988.0,0.004582
989.0,0.004708
990.0,0.00452
991.0,0.004675
992.0,0.004688
993.0,0.004532
994.0,0.004658
995.0,0.004641
996.0,0.004597
997.0,0.00459
998.0,0.00455
999.0,0.004518
1000.0,0.004461
1001.0,0.00451
1002.0,0.004332
1003.0,0.004394
1004.0,0.00426
1005.0,0.004101
1006.0,0.004238
1007.0,0.004314
1008.0,0.004269
1009.0,0.004223
1010.0,0.004185
1011.0,0.00423
1012.0,0.004169
1013.0,0.00419
1014.0,0.004145
1015.0,0.004101
1016.0,0.004066
1017.0,0.004059
1018.0,0.004032
1019.0,0.003917
1020.0,0.003978
1021.0,0.003959
1022.0,0.003908
1023.0,0.003935
1024.0,0.003856
1025.0,0.003908
1026.0,0.003873
1027.0,0.003849
1028.0,0.003826
1029.0,0.003766
1030.0,0.003783
1031.0,0.003751
1032.0,0.003727
1033.0,0.003656
1034.0,0.003643
1035.0,0.00364
1036.0,0.003644
1037.0,0.003571
1038.0,0.003574
1039.0,0.003558
1040.0,0.00353
1041.0,0.00353
1042.0,0.003492
1043.0,0.003468
1044.0,0.003466
1045.0,0.003406
1046.0,0.003354
1047.0,0.003371
1048.0,0.003377
1049.0,0.003352
1050.0,0.003323
1051.0,0.003305
1052.0,0.003278
1053.0,0.003239
1054.0,0.003233
1055.0,0.003221
1056.0,0.003196
1057.0,0.003173
1058.0,0.003083
1059.0,0.003073
1060.0,0.003056
1061.0,0.00304
1062.0,0.003043
1063.0,0.003001
1064.0,0.003027
1065.0,0.00299
1066.0,0.002923
1067.0,0.002949
1068.0,0.00287
1069.0,0.002774
1070.0,0.002854
1071.0,0.002898
1072.0,0.002846
1073.0,0.002797
1074.0,0.002871
1075.0,0.002688
1076.0,0.002846
1077.0,0.002767
1078.0,0.002699
1079.0,0.002774
1080.0,0.002692
1081.0,0.002587
1082.0,0.002643
1083.0,0.002647
1084.0,0.002543
1085.0,0.002656
1086.0,0.002364
1087.0,0.00247
1088.0,0.002591
1089.0,0.002475
1090.0,0.002391
1091.0,0.002546
1092.0,0.002537
1093.0,0.002063
1094.0,0.002296
1095.0,0.002148
1096.0,0.002026
1097.0,0.002437
1098.0,0.001974
1099.0,0.002063
1100.0,0.001875
1101.0,0.001904
1102.0,0.001794
1103.0,0.001757
1104.0,0.001755
1105.0,0.001965
1106.0,0.001395
1107.0,0.001831
1108.0,0.001482
1109.0,0.001485
1110.0,0.001787
1111.0,0.001115
1112.0,0.001461
1113.0,0.0008483
1114.0,0.000956
1115.0,0.0007743
1116.0,0.0005892
1117.0,0.0001936
1118.0,0.000645
1119.0,0.0002946
1120.0,0.0003727
1121.0,0.0005069
1122.0,0.0001963
1123.0,0.0003317
1124.0,0.0002767
1125.0,0.0003676
1126.0,0.0001161
1127.0,0.0004149
1128.0,0.0002331
1129.0,0.000248
1130.0,0.0001583
1131.0,0.0008427
1132.0,0.0006394
1133.0,0.0003782
1134.0,8.726e-05
1135.0,3.229e-05
1136.0,0.0003051
1137.0,0.0008038
1138.0,0.0005462
1139.0,0.0008754
1140.0,0.0007033
1141.0,0.0005121
1142.0,0.0005991
1143.0,0.0008901
1144.0,0.0002739
1145.0,0.0003493
1146.0,0.0003767
1147.0,0.0001208
1148.0,0.0007451
1149.0,0.0005723
1150.0,0.0002914
1151.0,0.0005177
1152.0,0.0006569
1153.0,0.0006449
1154.0,0.0003276
1155.0,0.0008682
1156.0,0.0007641
1157.0,0.0008784
1158.0,0.0008646
1159.0,0.0009479
1160.0,0.0007862
1161.0,0.00101
1162.0,0.001007
1163.0,0.00145
1164.0,0.001201
1165.0,0.001107
1166.0,0.001106
1167.0,0.001219
1168.0,0.001227
1169.0,0.001263
1170.0,0.001392
1171.0,0.001347
1172.0,0.001378
1173.0,0.001375
1174.0,0.0009135
1175.0,0.001342
1176.0,0.001503
1177.0,0.001418
1178.0,0.001004
1179.0,0.001501
1180.0,0.001296
1181.0,0.001341
1182.0,0.0008603
1183.0,0.001319
1184.0,0.001209
1185.0,0.001149
1186.0,0.001413
1187.0,0.001325
1188.0,0.0008591
1189.0,0.001219
1190.0,0.001361
1191.0,0.001264
1192.0,0.001375
1193.0,0.001301
1194.0,0.001346
1195.0,0.001252
1196.0,0.001191
1197.0,0.001346
1198.0,0.00121
1199.0,0.0009874
1200.0,0.001259
1201.0,0.001197
1202.0,0.001192
1203.0,0.001181
1204.0,0.001
1205.0,0.00122
1206.0,0.001373
1207.0,0.001171
1208.0,0.00116
1209.0,0.001182
1210.0,0.001238
1211.0,0.00116
1212.0,0.001129
1213.0,0.001292
1214.0,0.001157
1215.0,0.001127
1216.0,0.001276
1217.0,0.00123
1218.0,0.001257
1219.0,0.001234
1220.0,0.001251
1221.0,0.001264
1222.0,0.001221
1223.0,0.001203
1224.0,0.001187
1225.0,0.001239
1226.0,0.001248
1227.0,0.001128
1228.0,0.00125
1229.0,0.001236
1230.0,0.001207
1231.0,0.00125
1232.0,0.001238
1233.0,0.001177
1234.0,0.00124
1235.0,0.001226
1236.0,0.001232
1237.0,0.001205
1238.0,0.00122
1239.0,0.001201
1240.0,0.001202
1241.0,0.001189
1242.0,0.001185
1243.0,0.001172
1244.0,0.001175
1245.0,0.001177
1246.0,0.001167
1247.0,0.001157
1248.0,0.001151
1249.0,0.001153
1250.0,0.001141
1251.0,0.00112
1252.0,0.00112
1253.0,0.001102
1254.0,0.001084
1255.0,0.001107
1256.0,0.001063
1257.0,0.001052
1258.0,0.001076
1259.0,0.00102
1260.0,0.001024
1261.0,0.0009474
1262.0,0.0009082
1263.0,0.0009068
1264.0,0.0008169
1265.0,0.0008961
1266.0,0.0008492
1267.0,0.0008687
1268.0,0.0008098
1269.0,0.000445
1270.0,0.0008555
1271.0,0.0009199
1272.0,0.0009218
1273.0,0.0009073
1274.0,0.0009097
1275.0,0.0009229
1276.0,0.000932
1277.0,0.0009386
1278.0,0.0009602
1279.0,0.000948
1280.0,0.0009334
1281.0,0.0008909
1282.0,0.0008606
1283.0,0.000923
1284.0,0.0009411
1285.0,0.0009451
1286.0,0.0009577
1287.0,0.0009348
1288.0,0.000933
1289.0,0.000891
1290.0,0.0009195
1291.0,0.000931
1292.0,0.0008539
1293.0,0.0009025
1294.0,0.0008923
1295.0,0.000881
1296.0,0.0008272
1297.0,0.0007709
1298.0,0.0008449
1299.0,0.0008884
1300.0,0.0007182
1301.0,0.0007442
1302.0,0.0008329
1303.0,0.0007041
1304.0,0.0005747
1305.0,0.000805
1306.0,0.0008013
1307.0,0.0005872
1308.0,0.0006962
1309.0,0.0007854
1310.0,0.0005687
1311.0,0.0006554
1312.0,0.0006339
1313.0,0.0006146
1314.0,0.0005359
1315.0,0.0005262
1316.0,0.0006328
1317.0,0.0005912
1318.0,0.0006533
1319.0,0.0004798
1320.0,0.0004642
1321.0,0.0005542
1322.0,0.0005562
1323.0,0.000394
1324.0,0.0004631
1325.0,0.0006042
1326.0,0.0005008
1327.0,0.0004716
1328.0,0.0003955
1329.0,0.0002808
1330.0,0.0003774
1331.0,0.00021
1332.0,0.0002188
1333.0,0.0003134
1334.0,0.000265
1335.0,0.0003781
1336.0,0.0002866
1337.0,0.0002487
1338.0,0.0002699
1339.0,0.0002691
1340.0,0.000262
1341.0,0.0002498
1342.0,0.0002632
1343.0,0.0001658
1344.0,9.674e-05
1345.0,0.0001416
1346.0,6.564e-05
1347.0,6.621e-05
1348.0,4.063e-06
1349.0,1.47e-05
1350.0,1.527e-05
1351.0,3.643e-06
1352.0,9.77e-07
1353.0,4.969e-08
1354.0,1.708e-07
1355.0,1.375e-09
1356.0,2.406e-08
1357.0,3.656e-08
1358.0,1.614e-09
