interpolation:linear
wavelength,value
280.0,1.567e-22
280.5,5.192e-21
281.0,2.7920000000000004e-20
281.5,3.936e-19
282.0,5.756e-19
282.5,1.418e-18
283.0,4.48e-18
283.5,7.298e-18
284.0,1.206e-16
284.5,3.529e-16
285.0,5.878e-16
285.5,2.914e-15
286.0,1.175e-14
286.5,5.293e-14
287.0,1.521e-13
287.5,5.878e-13
288.0,2.089e-12
288.5,6.179e-12
289.0,1.624e-11
289.5,4.865e-11
290.0,1.345e-10
290.5,2.739e-10
291.0,5.874e-10
291.5,1.686e-09
292.0,3.385e-09
292.5,4.743e-09
293.0,1.016e-08
293.5,2.467e-08
294.0,3.857e-08
294.5,5.223e-08
295.0,8.842e-08
295.5,1.466e-07
296.0,2.823e-07
296.5,3.94e-07
297.0,5.319e-07
297.5,1.422e-06
298.0,2.233e-06
298.5,2.239e-06
299.0,4.916e-06
299.5,8.098e-06
300.0,8.853e-06
300.5,1.273e-05
301.0,2.272e-05
301.5,3.564e-05
302.0,3.018e-05
302.5,5.978e-05
303.0,0.0001094
303.5,0.0001405
304.0,0.0001362
304.5,0.0002211
305.0,0.0003791
305.5,0.0004702
306.0,0.0004692
306.5,0.0006156
307.0,0.001029
307.5,0.001538
308.0,0.001654
308.5,0.002071
309.0,0.002331
309.5,0.003034
310.0,0.003231
310.5,0.005383
311.0,0.007082
311.5,0.006971
312.0,0.007729
312.5,0.01007
313.0,0.0113
313.5,0.01059
314.0,0.01437
314.5,0.01422
315.0,0.01903
315.5,0.01505
316.0,0.01436
316.5,0.02226
317.0,0.02755
317.5,0.02798
318.0,0.02299
318.5,0.0316
319.0,0.03944
319.5,0.02949
320.0,0.03512
320.5,0.04878
321.0,0.04776
321.5,0.04615
322.0,0.04425
322.5,0.03862
323.0,0.04108
323.5,0.0539
324.0,0.06348
324.5,0.06259
325.0,0.0519
325.5,0.07041
326.0,0.0876
326.5,0.09076
327.0,0.08908
327.5,0.08443
328.0,0.07161
328.5,0.0795
329.0,0.09956
329.5,0.1145
330.0,0.1139
330.5,0.0877
331.0,0.0881
331.5,0.09178
332.0,0.103
332.5,0.1036
333.0,0.102
333.5,0.0894
334.0,0.09096
334.5,0.1083
335.0,0.1037
335.5,0.122
336.0,0.08429
336.5,0.09655
337.0,0.07791
337.5,0.0962
338.0,0.09644
338.5,0.1125
339.0,0.1111
339.5,0.1067
340.0,0.1237
340.5,0.1116
341.0,0.1096
341.5,0.1005
342.0,0.1199
342.5,0.112
343.0,0.1229
343.5,0.1154
344.0,0.08448
344.5,0.08581
345.0,0.1134
345.5,0.1156
346.0,0.09808
346.5,0.1109
347.0,0.1187
347.5,0.09574
348.0,0.109
348.5,0.1088
349.0,0.1008
349.5,0.09957
350.0,0.1229
350.5,0.1294
351.0,0.1152
351.5,0.1116
352.0,0.1197
352.5,0.09329
353.0,0.1173
353.5,0.1252
354.0,0.1298
354.5,0.1313
355.0,0.1305
355.5,0.1177
356.0,0.1229
356.5,0.1047
357.0,0.08633
357.5,0.1055
358.0,0.08341
358.5,0.07112
359.0,0.09924
359.5,0.1261
360.0,0.1334
360.5,0.1064
361.0,0.09681
361.5,0.1112
362.0,0.096
362.5,0.1326
363.0,0.1188
363.5,0.1092
364.0,0.1332
364.5,0.1136
365.0,0.1154
365.5,0.1446
366.0,0.1528
366.5,0.1433
367.0,0.1392
367.5,0.1441
368.0,0.1258
368.5,0.1267
369.0,0.1365
369.5,0.1451
370.0,0.1544
370.5,0.1195
371.0,0.1274
371.5,0.159
372.0,0.1053
372.5,0.126
373.0,0.1278
373.5,0.08297
374.0,0.1203
374.5,0.09937
375.0,0.09637
375.5,0.1435
376.0,0.1187
376.5,0.1227
377.0,0.1296
377.5,0.1512
378.0,0.1635
378.5,0.1542
379.0,0.1269
379.5,0.1156
380.0,0.1199
380.5,0.1448
381.0,0.1448
381.5,0.1145
382.0,0.1014
382.5,0.08621
383.0,0.07961
383.5,0.07649
384.0,0.08416
384.5,0.1235
385.0,0.1221
385.5,0.1135
386.0,0.09692
386.5,0.127
387.0,0.1052
387.5,0.1179
388.0,0.1086
388.5,0.107
389.0,0.1152
389.5,0.1392
390.0,0.1393
390.5,0.1279
391.0,0.1501
391.5,0.1527
392.0,0.1283
392.5,0.1145
393.0,0.06357
393.5,0.04609
394.0,0.09353
394.5,0.1186
395.0,0.1443
395.5,0.1462
396.0,0.1264
396.5,0.07372
397.0,0.05518
397.5,0.1119
398.0,0.1563
398.5,0.1611
399.0,0.174
399.5,0.173
400.0,0.1791
401.0,0.1761
402.0,0.1848
403.0,0.1745
404.0,0.1709
405.0,0.1699
406.0,0.1662
407.0,0.1625
408.0,0.1679
409.0,0.1787
410.0,0.1552
411.0,0.1672
412.0,0.1786
413.0,0.1732
414.0,0.1743
415.0,0.1737
416.0,0.1757
417.0,0.1703
418.0,0.1662
419.0,0.1674
420.0,0.1656
421.0,0.1722
422.0,0.1626
423.0,0.1578
424.0,0.1658
425.0,0.1645
426.0,0.1593
427.0,0.1554
428.0,0.1505
429.0,0.1418
430.0,0.1233
431.0,0.1214
432.0,0.1557
433.0,0.1556
434.0,0.1436
435.0,0.149
436.0,0.167
437.0,0.1637
438.0,0.1481
439.0,0.1521
440.0,0.1559
441.0,0.1604
442.0,0.1708
443.0,0.1653
444.0,0.1679
445.0,0.1634
446.0,0.1551
447.0,0.1667
448.0,0.1681
449.0,0.1675
450.0,0.171
451.0,0.1762
452.0,0.1687
453.0,0.1577
454.0,0.1636
455.0,0.1635
456.0,0.1661
457.0,0.1676
458.0,0.1605
459.0,0.1584
460.0,0.1575
461.0,0.16
462.0,0.1602
463.0,0.1583
464.0,0.155
465.0,0.1523
466.0,0.1529
467.0,0.149
468.0,0.1496
469.0,0.1492
470.0,0.1434
471.0,0.1424
472.0,0.1491
473.0,0.1462
474.0,0.1454
475.0,0.1455
476.0,0.1399
477.0,0.139
478.0,0.1416
479.0,0.1394
480.0,0.1384
481.0,0.1397
482.0,0.1394
483.0,0.1369
484.0,0.1334
485.0,0.1265
486.0,0.1101
487.0,0.1147
488.0,0.125
489.0,0.1244
490.0,0.1299
491.0,0.1268
492.0,0.1189
493.0,0.122
494.0,0.1224
495.0,0.1225
496.0,0.1223
497.0,0.1232
498.0,0.1163
499.0,0.1166
500.0,0.112
501.0,0.1088
502.0,0.1061
503.0,0.1092
504.0,0.1053
505.0,0.1083
506.0,0.111
507.0,0.105
508.0,0.1012
509.0,0.1035
510.0,0.1025
511.0,0.1046
512.0,0.105
513.0,0.09859
514.0,0.09714
515.0,0.09543
516.0,0.09446
517.0,0.08331
518.0,0.08694
519.0,0.0905
520.0,0.09303
521.0,0.09313
522.0,0.0924
523.0,0.09002
524.0,0.09237
525.0,0.09255
526.0,0.08758
527.0,0.08168
528.0,0.08551
529.0,0.08932
530.0,0.08728
531.0,0.08781
532.0,0.08411
533.0,0.08106
534.0,0.08291
535.0,0.08421
536.0,0.08447
537.0,0.08063
538.0,0.0815
539.0,0.08027
540.0,0.0764
541.0,0.07627
542.0,0.07798
543.0,0.07655
544.0,0.07729
545.0,0.07653
546.0,0.07627
547.0,0.07569
548.0,0.07426
549.0,0.07398
550.0,0.07434
551.0,0.07291
552.0,0.07289
553.0,0.07106
554.0,0.07221
555.0,0.0718
556.0,0.0703
557.0,0.06754
558.0,0.06642
559.0,0.06456
560.0,0.06477
561.0,0.06501
562.0,0.06393
563.0,0.06508
564.0,0.06279
565.0,0.06174
566.0,0.06035
567.0,0.06098
568.0,0.05991
569.0,0.05793
570.0,0.0575
571.0,0.05675
572.0,0.05759
573.0,0.05781
574.0,0.05726
575.0,0.05585
576.0,0.05504
577.0,0.05536
578.0,0.05429
579.0,0.05431
580.0,0.05516
581.0,0.05524
582.0,0.05606
583.0,0.05598
584.0,0.05623
585.0,0.05459
586.0,0.05315
587.0,0.05395
588.0,0.05219
589.0,0.04569
590.0,0.04751
591.0,0.0501
592.0,0.04902
593.0,0.04947
594.0,0.04867
595.0,0.04699
596.0,0.04868
597.0,0.04772
598.0,0.04726
599.0,0.04695
600.0,0.04673
601.0,0.04609
602.0,0.0455
603.0,0.04601
604.0,0.04654
605.0,0.0461
606.0,0.04575
607.0,0.04606
608.0,0.0454
609.0,0.04534
610.0,0.04489
611.0,0.04499
612.0,0.04473
613.0,0.04402
614.0,0.04328
615.0,0.04409
616.0,0.0425
617.0,0.04227
618.0,0.04374
619.0,0.04314
620.0,0.04323
621.0,0.04307
622.0,0.04236
623.0,0.04151
624.0,0.04062
625.0,0.04037
626.0,0.0408
627.0,0.04104
628.0,0.0376
629.0,0.03953
630.0,0.03843
631.0,0.03932
632.0,0.03874
633.0,0.03985
634.0,0.03938
635.0,0.03987
636.0,0.03922
637.0,0.03974
638.0,0.04002
639.0,0.03945
640.0,0.03894
641.0,0.03878
642.0,0.0385
643.0,0.03889
644.0,0.03864
645.0,0.03852
646.0,0.0374
647.0,0.03665
648.0,0.03652
649.0,0.03565
650.0,0.03587
651.0,0.0373
652.0,0.03538
653.0,0.0365
654.0,0.03597
655.0,0.03437
656.0,0.03041
657.0,0.03112
658.0,0.0348
659.0,0.03494
660.0,0.03494
661.0,0.03504
662.0,0.03494
663.0,0.03413
664.0,0.03445
665.0,0.03438
666.0,0.03428
667.0,0.03414
668.0,0.03405
669.0,0.03445
670.0,0.03416
671.0,0.03403
672.0,0.03363
673.0,0.03404
674.0,0.03378
675.0,0.03333
676.0,0.03343
677.0,0.03298
678.0,0.03296
679.0,0.0323
680.0,0.03243
681.0,0.03207
682.0,0.03189
683.0,0.03169
684.0,0.03138
685.0,0.03151
686.0,0.03118
687.0,0.01889
688.0,0.0227
689.0,0.02271
690.0,0.02398
691.0,0.02547
692.0,0.02659
693.0,0.02623
694.0,0.02591
695.0,0.02711
696.0,0.02704
697.0,0.02893
698.0,0.02836
699.0,0.02734
700.0,0.02688
701.0,0.02643
702.0,0.02658
703.0,0.02652
704.0,0.02737
705.0,0.02728
706.0,0.02719
707.0,0.02711
708.0,0.02703
709.0,0.02703
710.0,0.02685
711.0,0.02675
712.0,0.02661
713.0,0.02618
714.0,0.02615
715.0,0.02511
716.0,0.025
717.0,0.02088
718.0,0.01896
719.0,0.01717
720.0,0.01791
721.0,0.02008
722.0,0.02341
723.0,0.02141
724.0,0.0189
725.0,0.01846
726.0,0.01931
727.0,0.0196
728.0,0.01816
729.0,0.01897
730.0,0.02001
731.0,0.01897
732.0,0.02046
733.0,0.02181
734.0,0.02229
735.0,0.02169
736.0,0.02156
737.0,0.02154
738.0,0.02195
739.0,0.02141
740.0,0.02191
741.0,0.02162
742.0,0.02157
743.0,0.02201
744.0,0.02185
745.0,0.02176
746.0,0.02176
747.0,0.0217
748.0,0.02155
749.0,0.02121
750.0,0.02111
751.0,0.02081
752.0,0.02082
753.0,0.02083
754.0,0.02079
755.0,0.02058
756.0,0.02049
757.0,0.02043
758.0,0.02008
759.0,0.01948
760.0,0.002691
761.0,0.001416
762.0,0.008587
763.0,0.00407
764.0,0.006207
765.0,0.008459
766.0,0.01073
767.0,0.01405
768.0,0.01675
769.0,0.01718
770.0,0.01786
771.0,0.01801
772.0,0.01798
773.0,0.01801
774.0,0.01783
775.0,0.01761
776.0,0.01774
777.0,0.01741
778.0,0.01721
779.0,0.01714
780.0,0.01697
781.0,0.01691
782.0,0.01695
783.0,0.01659
784.0,0.0166
785.0,0.01641
786.0,0.01652
787.0,0.01609
788.0,0.01579
789.0,0.0157
790.0,0.01512
791.0,0.01528
792.0,0.01511
793.0,0.01479
794.0,0.01508
795.0,0.01524
796.0,0.01457
797.0,0.01452
798.0,0.01501
799.0,0.01483
800.0,0.01447
801.0,0.01432
802.0,0.01422
803.0,0.01403
804.0,0.014
805.0,0.01392
806.0,0.01431
807.0,0.01405
808.0,0.014
809.0,0.01362
810.0,0.01341
811.0,0.01331
812.0,0.01277
813.0,0.01239
814.0,0.01059
815.0,0.01048
816.0,0.00962
817.0,0.009777
818.0,0.009328
819.0,0.01061
820.0,0.009861
821.0,0.01184
822.0,0.01139
823.0,0.007217
824.0,0.01087
825.0,0.01143
826.0,0.01084
827.0,0.01152
828.0,0.009415
829.0,0.01066
830.0,0.01046
831.0,0.01046
832.0,0.01003
833.0,0.01081
834.0,0.01029
835.0,0.01147
836.0,0.01079
837.0,0.01141
838.0,0.01094
839.0,0.01115
840.0,0.01136
841.0,0.01111
842.0,0.01113
843.0,0.01112
844.0,0.01089
845.0,0.01124
846.0,0.01115
847.0,0.0109
848.0,0.01076
849.0,0.0104
850.0,0.009922
851.0,0.01043
852.0,0.01031
853.0,0.009894
854.0,0.008491
855.0,0.009311
856.0,0.01013
857.0,0.01033
858.0,0.01021
859.0,0.01018
860.0,0.01016
861.0,0.01007
862.0,0.01019
863.0,0.0104
864.0,0.009841
865.0,0.009718
866.0,0.008704
867.0,0.009047
868.0,0.009806
869.0,0.009565
870.0,0.009798
871.0,0.009625
872.0,0.009552
873.0,0.009494
874.0,0.00934
875.0,0.009109
876.0,0.009162
877.0,0.009217
878.0,0.009274
879.0,0.009093
880.0,0.008861
881.0,0.008682
882.0,0.008831
883.0,0.008831
884.0,0.008747
885.0,0.008772
886.0,0.008293
887.0,0.008372
888.0,0.008444
889.0,0.008531
890.0,0.008388
891.0,0.008358
892.0,0.008043
893.0,0.007709
894.0,0.007312
895.0,0.006766
896.0,0.006275
897.0,0.005222
898.0,0.005756
899.0,0.004177
900.0,0.005922
901.0,0.004386
902.0,0.005298
903.0,0.00528
904.0,0.006958
905.0,0.006644
906.0,0.006143
907.0,0.004749
908.0,0.004865
909.0,0.005344
910.0,0.004562
911.0,0.004938
912.0,0.005167
913.0,0.00457
914.0,0.00453
915.0,0.004925
916.0,0.004075
917.0,0.005359
918.0,0.004152
919.0,0.005446
920.0,0.005555
921.0,0.005795
922.0,0.005037
923.0,0.00556
924.0,0.005114
925.0,0.004974
926.0,0.00501
927.0,0.005698
928.0,0.003874
929.0,0.003462
930.0,0.002605
931.0,0.002449
932.0,0.001681
933.0,0.001332
934.0,0.0006906
935.0,0.001365
936.0,0.0008171
937.0,0.0008239
938.0,0.001021
939.0,0.00229
940.0,0.00282
941.0,0.002037
942.0,0.00239
943.0,0.001494
944.0,0.001601
945.0,0.002074
946.0,0.0009816
947.0,0.002056
948.0,0.001474
949.0,0.002834
950.0,0.0006913
951.0,0.002774
952.0,0.001378
953.0,0.00183
954.0,0.002311
955.0,0.001847
956.0,0.001817
957.0,0.001352
958.0,0.002669
959.0,0.002021
960.0,0.002277
961.0,0.002612
962.0,0.00245
963.0,0.00289
964.0,0.002605
965.0,0.002855
966.0,0.002841
967.0,0.002808
968.0,0.00405
969.0,0.004206
970.0,0.003795
971.0,0.004485
972.0,0.004228
973.0,0.003529
974.0,0.003316
975.0,0.003463
976.0,0.003214
977.0,0.003794
978.0,0.003528
979.0,0.003726
980.0,0.003451
981.0,0.004291
982.0,0.004034
983.0,0.003826
984.0,0.004435
985.0,0.003972
986.0,0.004517
987.0,0.004372
988.0,0.004347
989.0,0.004475
990.0,0.004288
991.0,0.00444
992.0,0.004455
993.0,0.004301
994.0,0.004427
995.0,0.004412
996.0,0.00437
997.0,0.004364
998.0,0.004325
999.0,0.004296
1000.0,0.00424
1001.0,0.004288
1002.0,0.004112
1003.0,0.004178
1004.0,0.004048
1005.0,0.0039
1006.0,0.004029
1007.0,0.004102
1008.0,0.004057
1009.0,0.004013
1010.0,0.003976
1011.0,0.004021
1012.0,0.003963
1013.0,0.003984
1014.0,0.003942
1015.0,0.0039
1016.0,0.003866
1017.0,0.003859
1018.0,0.003835
1019.0,0.003723
1020.0,0.003782
1021.0,0.003765
1022.0,0.003716
1023.0,0.003741
1024.0,0.003663
1025.0,0.003716
1026.0,0.003682
1027.0,0.00366
1028.0,0.003638
1029.0,0.00358
1030.0,0.003597
1031.0,0.003566
1032.0,0.003544
1033.0,0.003477
1034.0,0.003464
1035.0,0.003462
1036.0,0.003465
1037.0,0.003396
1038.0,0.003398
1039.0,0.003383
1040.0,0.003356
1041.0,0.003356
1042.0,0.003319
1043.0,0.003296
1044.0,0.003295
1045.0,0.003237
1046.0,0.003188
1047.0,0.003204
1048.0,0.003209
1049.0,0.003185
1050.0,0.003157
1051.0,0.00314
1052.0,0.003114
1053.0,0.003077
1054.0,0.003071
1055.0,0.00306
1056.0,0.003035
1057.0,0.003013
1058.0,0.002927
1059.0,0.002917
1060.0,0.002901
1061.0,0.002886
1062.0,0.002888
1063.0,0.002848
1064.0,0.002872
1065.0,0.002836
1066.0,0.002773
1067.0,0.002798
1068.0,0.002723
1069.0,0.002632
1070.0,0.002707
1071.0,0.002751
1072.0,0.002701
1073.0,0.002654
1074.0,0.002726
1075.0,0.002548
1076.0,0.002702
1077.0,0.002626
1078.0,0.002559
1079.0,0.002635
1080.0,0.002554
1081.0,0.002452
1082.0,0.002509
1083.0,0.002514
1084.0,0.00241
1085.0,0.00252
1086.0,0.00224
1087.0,0.002342
1088.0,0.00246
1089.0,0.002346
1090.0,0.002266
1091.0,0.002417
1092.0,0.002408
1093.0,0.001951
1094.0,0.002178
1095.0,0.00203
1096.0,0.001914
1097.0,0.002313
1098.0,0.001862
1099.0,0.001947
1100.0,0.001769
1101.0,0.001797
1102.0,0.001691
1103.0,0.001655
1104.0,0.001654
1105.0,0.001854
1106.0,0.001311
1107.0,0.001727
1108.0,0.001395
1109.0,0.001398
1110.0,0.001683
1111.0,0.001049
1112.0,0.001376
1113.0,0.0007998
1114.0,0.000899
1115.0,0.0007302
1116.0,0.0005568
1117.0,0.0001864
1118.0,0.0006081
1119.0,0.0002813
1120.0,0.000354
1121.0,0.0004784
1122.0,0.0001886
1123.0,0.0003158
1124.0,0.0002642
1125.0,0.0003491
1126.0,0.0001126
1127.0,0.0003931
1128.0,0.0002233
1129.0,0.0002372
1130.0,0.0001528
1131.0,0.0007884
1132.0,0.0006011
1133.0,0.0003586
1134.0,8.486e-05
1135.0,3.164e-05
1136.0,0.0002904
1137.0,0.0007517
1138.0,0.0005145
1139.0,0.0008217
1140.0,0.0006608
1141.0,0.0004831
1142.0,0.0005638
1143.0,0.0008332
1144.0,0.0002613
1145.0,0.0003313
1146.0,0.0003568
1147.0,0.0001169
1148.0,0.0006989
1149.0,0.0005388
1150.0,0.0002781
1151.0,0.0004878
1152.0,0.0006169
1153.0,0.0006072
1154.0,0.0003115
1155.0,0.000814
1156.0,0.0007169
1157.0,0.0008258
1158.0,0.0008128
1159.0,0.0008897
1160.0,0.000741
1161.0,0.0009516
1162.0,0.0009484
1163.0,0.001367
1164.0,0.001132
1165.0,0.001041
1166.0,0.001044
1167.0,0.001151
1168.0,0.001157
1169.0,0.001191
1170.0,0.001315
1171.0,0.001273
1172.0,0.001305
1173.0,0.001298
1174.0,0.0008624
1175.0,0.00127
1176.0,0.001426
1177.0,0.001343
1178.0,0.0009505
1179.0,0.001424
1180.0,0.001226
1181.0,0.001268
1182.0,0.0008132
1183.0,0.001248
1184.0,0.001143
1185.0,0.001086
1186.0,0.001338
1187.0,0.001253
1188.0,0.00081
1189.0,0.001154
1190.0,0.001291
1191.0,0.001194
1192.0,0.001304
1193.0,0.001233
1194.0,0.001276
1195.0,0.001184
1196.0,0.001125
1197.0,0.001276
1198.0,0.001147
1199.0,0.0009324
1200.0,0.001193
1201.0,0.001132
1202.0,0.00113
1203.0,0.001117
1204.0,0.0009463
1205.0,0.001157
1206.0,0.001304
1207.0,0.001108
1208.0,0.0011
1209.0,0.00112
1210.0,0.001174
1211.0,0.001099
1212.0,0.001066
1213.0,0.001224
1214.0,0.001092
1215.0,0.001065
1216.0,0.00121
1217.0,0.001166
1218.0,0.001192
1219.0,0.001169
1220.0,0.001186
1221.0,0.001199
1222.0,0.001159
1223.0,0.001141
1224.0,0.001124
1225.0,0.001175
1226.0,0.001185
1227.0,0.001068
1228.0,0.001187
1229.0,0.001174
1230.0,0.001146
1231.0,0.001188
1232.0,0.001176
1233.0,0.001116
1234.0,0.001179
1235.0,0.001165
1236.0,0.001172
1237.0,0.001146
1238.0,0.001161
1239.0,0.001142
1240.0,0.001143
1241.0,0.00113
1242.0,0.001127
1243.0,0.001115
1244.0,0.001118
1245.0,0.001119
1246.0,0.00111
1247.0,0.001101
1248.0,0.001094
1249.0,0.001096
1250.0,0.001085
1251.0,0.001065
1252.0,0.001065
1253.0,0.001047
1254.0,0.001029
1255.0,0.001052
1256.0,0.001009
1257.0,0.0009978
1258.0,0.001022
1259.0,0.0009657
1260.0,0.0009697
1261.0,0.0008939
1262.0,0.0008553
1263.0,0.000854
1264.0,0.0007663
1265.0,0.0008439
1266.0,0.0007978
1267.0,0.0008174
1268.0,0.0007601
1269.0,0.0004142
1270.0,0.0008044
1271.0,0.0008681
1272.0,0.0008702
1273.0,0.0008562
1274.0,0.0008589
1275.0,0.000872
1276.0,0.0008812
1277.0,0.0008885
1278.0,0.0009102
1279.0,0.0008987
1280.0,0.0008849
1281.0,0.0008452
1282.0,0.0008176
1283.0,0.0008767
1284.0,0.0008936
1285.0,0.0008977
1286.0,0.0009102
1287.0,0.0008874
1288.0,0.0008861
1289.0,0.0008441
1290.0,0.0008733
1291.0,0.0008847
1292.0,0.0008081
1293.0,0.0008569
1294.0,0.0008472
1295.0,0.0008349
1296.0,0.0007822
1297.0,0.0007282
1298.0,0.0008006
1299.0,0.0008438
1300.0,0.0006789
1301.0,0.0007036
1302.0,0.0007893
1303.0,0.0006658
1304.0,0.0005413
1305.0,0.0007629
1306.0,0.0007587
1307.0,0.0005542
1308.0,0.0006591
1309.0,0.0007425
1310.0,0.0005364
1311.0,0.0006198
1312.0,0.0005993
1313.0,0.0005799
1314.0,0.0005054
1315.0,0.0004954
1316.0,0.0005977
1317.0,0.0005583
1318.0,0.0006177
1319.0,0.0004519
1320.0,0.0004379
1321.0,0.0005229
1322.0,0.0005237
1323.0,0.0003704
1324.0,0.0004365
1325.0,0.00057
1326.0,0.000472
1327.0,0.0004443
1328.0,0.0003726
1329.0,0.0002643
1330.0,0.0003545
1331.0,0.0001982
1332.0,0.0002064
1333.0,0.0002937
1334.0,0.0002506
1335.0,0.0003549
1336.0,0.0002695
1337.0,0.0002347
1338.0,0.000254
1339.0,0.0002532
1340.0,0.0002472
1341.0,0.0002348
1342.0,0.0002474
1343.0,0.0001568
1344.0,9.25e-05
1345.0,0.0001342
1346.0,6.323e-05
1347.0,6.384e-05
1348.0,4.023e-06
1349.0,1.447e-05
1350.0,1.501e-05
1351.0,3.612e-06
1352.0,9.71e-07
1353.0,4.941e-08
1354.0,1.698e-07
1355.0,1.367e-09
