interpolation:linear
wavelength,value
280.0,2.711e-22
280.5,8.921e-21
281.0,4.783e-20
281.5,4.005e-19
282.0,6.559e-19
282.5,1.627e-18
283.0,5.148e-18
283.5,8.382e-18
284.0,1.381e-16
284.5,4.03e-16
285.0,6.628e-16
285.5,3.311e-15
286.0,1.336e-14
286.5,6.019e-14
287.0,1.728e-13
287.5,6.666e-13
288.0,2.313e-12
288.5,6.958e-12
289.0,1.846e-11
289.5,5.562e-11
290.0,1.542e-10
290.5,3.142e-10
291.0,6.742e-10
291.5,1.935e-09
292.0,3.899e-09
292.5,5.48e-09
293.0,1.178e-08
293.5,2.876e-08
294.0,4.505e-08
294.5,6.175e-08
295.0,1.048e-07
295.5,1.758e-07
296.0,3.421e-07
296.5,4.83e-07
297.0,6.591e-07
297.5,1.795e-06
298.0,2.87e-06
298.5,2.922e-06
299.0,6.524e-06
299.5,1.111e-05
300.0,1.241e-05
300.5,1.827e-05
301.0,3.403e-05
301.5,5.574e-05
302.0,4.835e-05
302.5,9.675e-05
303.0,0.0001798
303.5,0.0002329
304.0,0.0002262
304.5,0.0003697
305.0,0.0006404
305.5,0.0007998
306.0,0.0008003
306.5,0.001055
307.0,0.001785
307.5,0.002706
308.0,0.002916
308.5,0.003679
309.0,0.003744
309.5,0.004705
310.0,0.00493
310.5,0.008147
311.0,0.01058
311.5,0.01035
312.0,0.01117
312.5,0.01429
313.0,0.01589
313.5,0.01501
314.0,0.01994
314.5,0.01919
315.0,0.02554
315.5,0.02046
316.0,0.0191
316.5,0.02904
317.0,0.03594
317.5,0.03669
318.0,0.02975
318.5,0.0399
319.0,0.04919
319.5,0.03749
320.0,0.04475
320.5,0.06065
321.0,0.05808
321.5,0.05598
322.0,0.05492
322.5,0.04786
323.0,0.05012
323.5,0.06444
324.0,0.07565
324.5,0.0751
325.0,0.06306
325.5,0.08449
326.0,0.104
326.5,0.1068
327.0,0.1051
327.5,0.1
328.0,0.08583
328.5,0.09387
329.0,0.1162
329.5,0.1331
330.0,0.1327
330.5,0.1031
331.0,0.1038
331.5,0.1074
332.0,0.1194
332.5,0.1195
333.0,0.1179
333.5,0.104
334.0,0.1059
334.5,0.1252
335.0,0.1192
335.5,0.1402
336.0,0.09679
336.5,0.1111
337.0,0.08994
337.5,0.1111
338.0,0.1107
338.5,0.1288
339.0,0.1271
339.5,0.1221
340.0,0.1418
340.5,0.1278
341.0,0.1252
341.5,0.1146
342.0,0.1366
342.5,0.1275
343.0,0.1399
343.5,0.1315
344.0,0.0964
344.5,0.0978
345.0,0.1289
345.5,0.1312
346.0,0.1113
346.5,0.1257
347.0,0.1346
347.5,0.1086
348.0,0.1235
348.5,0.1231
349.0,0.114
349.5,0.1126
350.0,0.1389
350.5,0.1461
351.0,0.1302
351.5,0.1262
352.0,0.1352
352.5,0.1053
353.0,0.1323
353.5,0.1411
354.0,0.1461
354.5,0.1478
355.0,0.1469
355.5,0.1324
356.0,0.1382
356.5,0.1177
357.0,0.097
357.5,0.1184
358.0,0.09364
358.5,0.07981
359.0,0.1113
359.5,0.1415
360.0,0.1496
360.5,0.1192
361.0,0.1084
361.5,0.1246
362.0,0.1074
362.5,0.1483
363.0,0.1329
363.5,0.1221
364.0,0.1489
364.5,0.1269
365.0,0.1289
365.5,0.1614
366.0,0.1705
366.5,0.1598
367.0,0.1552
367.5,0.1607
368.0,0.1402
368.5,0.1411
369.0,0.152
369.5,0.1616
370.0,0.1718
370.5,0.133
371.0,0.1417
371.5,0.1768
372.0,0.117
372.5,0.1399
373.0,0.1419
373.5,0.0921
374.0,0.1335
374.5,0.1102
375.0,0.1069
375.5,0.1591
376.0,0.1315
376.5,0.1359
377.0,0.1435
377.5,0.1674
378.0,0.181
378.5,0.1705
379.0,0.1403
379.5,0.1278
380.0,0.1325
380.5,0.16
381.0,0.1598
381.5,0.1263
382.0,0.1119
382.5,0.09509
383.0,0.08778
383.5,0.0843
384.0,0.09273
384.5,0.136
385.0,0.1345
385.5,0.1249
386.0,0.1067
386.5,0.1397
387.0,0.1157
387.5,0.1296
388.0,0.1193
388.5,0.1176
389.0,0.1265
389.5,0.1528
390.0,0.1529
390.5,0.1403
391.0,0.1647
391.5,0.1674
392.0,0.1406
392.5,0.1255
393.0,0.06963
393.5,0.05046
394.0,0.1024
394.5,0.1298
395.0,0.1579
395.5,0.1599
396.0,0.1382
396.5,0.08058
397.0,0.06029
397.5,0.1222
398.0,0.1707
398.5,0.1759
399.0,0.1899
399.5,0.1887
400.0,0.1953
401.0,0.192
402.0,0.2013
403.0,0.1901
404.0,0.186
405.0,0.1848
406.0,0.1807
407.0,0.1766
408.0,0.1823
409.0,0.1939
410.0,0.1684
411.0,0.1813
412.0,0.1935
413.0,0.1876
414.0,0.1887
415.0,0.188
416.0,0.19
417.0,0.1841
418.0,0.1795
419.0,0.1807
420.0,0.1788
421.0,0.1858
422.0,0.1753
423.0,0.1701
424.0,0.1786
425.0,0.1771
426.0,0.1714
427.0,0.1672
428.0,0.1618
429.0,0.1524
430.0,0.1325
431.0,0.1304
432.0,0.1671
433.0,0.1669
434.0,0.1539
435.0,0.1597
436.0,0.1789
437.0,0.1754
438.0,0.1586
439.0,0.1628
440.0,0.1668
441.0,0.1716
442.0,0.1827
443.0,0.1767
444.0,0.1794
445.0,0.1745
446.0,0.1655
447.0,0.1778
448.0,0.1793
449.0,0.1787
450.0,0.1823
451.0,0.1877
452.0,0.1797
453.0,0.1679
454.0,0.1742
455.0,0.1739
456.0,0.1768
457.0,0.1782
458.0,0.1708
459.0,0.1685
460.0,0.1675
461.0,0.1701
462.0,0.1703
463.0,0.1682
464.0,0.1646
465.0,0.1616
466.0,0.1622
467.0,0.1581
468.0,0.1586
469.0,0.1581
470.0,0.152
471.0,0.1509
472.0,0.1579
473.0,0.1548
474.0,0.1539
475.0,0.154
476.0,0.1481
477.0,0.1472
478.0,0.1499
479.0,0.1476
480.0,0.1465
481.0,0.1479
482.0,0.1476
483.0,0.1449
484.0,0.1411
485.0,0.1337
486.0,0.1163
487.0,0.1212
488.0,0.132
489.0,0.1314
490.0,0.1372
491.0,0.1338
492.0,0.1254
493.0,0.1285
494.0,0.1289
495.0,0.1291
496.0,0.1289
497.0,0.1298
498.0,0.1226
499.0,0.1229
500.0,0.1181
501.0,0.1148
502.0,0.1119
503.0,0.1153
504.0,0.1112
505.0,0.1144
506.0,0.1173
507.0,0.1109
508.0,0.1068
509.0,0.1092
510.0,0.1081
511.0,0.1103
512.0,0.1107
513.0,0.1039
514.0,0.1024
515.0,0.1006
516.0,0.0996
517.0,0.08785
518.0,0.09168
519.0,0.09543
520.0,0.09811
521.0,0.09822
522.0,0.09747
523.0,0.09497
524.0,0.09748
525.0,0.09771
526.0,0.0925
527.0,0.0863
528.0,0.09038
529.0,0.09444
530.0,0.0923
531.0,0.09289
532.0,0.08899
533.0,0.08577
534.0,0.08772
535.0,0.08908
536.0,0.08934
537.0,0.08527
538.0,0.08618
539.0,0.08488
540.0,0.0808
541.0,0.08068
542.0,0.0825
543.0,0.081
544.0,0.0818
545.0,0.08101
546.0,0.08074
547.0,0.08013
548.0,0.07861
549.0,0.07832
550.0,0.0787
551.0,0.07719
552.0,0.07717
553.0,0.07523
554.0,0.07647
555.0,0.07604
556.0,0.07446
557.0,0.07155
558.0,0.07038
559.0,0.06844
560.0,0.06869
561.0,0.06896
562.0,0.06784
563.0,0.06908
564.0,0.06666
565.0,0.06557
566.0,0.0641
567.0,0.06478
568.0,0.06366
569.0,0.06158
570.0,0.06113
571.0,0.06033
572.0,0.06125
573.0,0.06148
574.0,0.0609
575.0,0.0594
576.0,0.05853
577.0,0.05886
578.0,0.05771
579.0,0.0577
580.0,0.05859
581.0,0.05865
582.0,0.0595
583.0,0.0594
584.0,0.05965
585.0,0.0579
586.0,0.05636
587.0,0.0572
588.0,0.05535
589.0,0.04849
590.0,0.05042
591.0,0.05316
592.0,0.05202
593.0,0.0525
594.0,0.05167
595.0,0.04991
596.0,0.0517
597.0,0.0507
598.0,0.05022
599.0,0.0499
600.0,0.04967
601.0,0.04898
602.0,0.04836
603.0,0.0489
604.0,0.04945
605.0,0.04897
606.0,0.04858
607.0,0.04889
608.0,0.04817
609.0,0.04808
610.0,0.04758
611.0,0.04767
612.0,0.04737
613.0,0.04661
614.0,0.0458
615.0,0.04664
616.0,0.04494
617.0,0.04468
618.0,0.04622
619.0,0.04557
620.0,0.04566
621.0,0.04548
622.0,0.04472
623.0,0.04382
624.0,0.04287
625.0,0.0426
626.0,0.04305
627.0,0.04329
628.0,0.03972
629.0,0.0417
630.0,0.04053
631.0,0.04144
632.0,0.04081
633.0,0.04196
634.0,0.04145
635.0,0.04195
636.0,0.04125
637.0,0.04178
638.0,0.04206
639.0,0.04144
640.0,0.0409
641.0,0.04072
642.0,0.0404
643.0,0.0408
644.0,0.04053
645.0,0.0404
646.0,0.03922
647.0,0.03845
648.0,0.0383
649.0,0.03738
650.0,0.03757
651.0,0.03906
652.0,0.03706
653.0,0.03821
654.0,0.03764
655.0,0.03597
656.0,0.03181
657.0,0.03255
658.0,0.03639
659.0,0.03652
660.0,0.03652
661.0,0.03661
662.0,0.03651
663.0,0.03565
664.0,0.03598
665.0,0.03589
666.0,0.03578
667.0,0.03562
668.0,0.03552
669.0,0.03592
670.0,0.03561
671.0,0.03547
672.0,0.03505
673.0,0.03547
674.0,0.03518
675.0,0.03472
676.0,0.03481
677.0,0.03434
678.0,0.03431
679.0,0.03362
680.0,0.03374
681.0,0.03337
682.0,0.03318
683.0,0.03296
684.0,0.03264
685.0,0.03277
686.0,0.03243
687.0,0.01978
688.0,0.02374
689.0,0.02374
690.0,0.02504
691.0,0.02656
692.0,0.02769
693.0,0.02732
694.0,0.02696
695.0,0.02819
696.0,0.0281
697.0,0.03005
698.0,0.02945
699.0,0.0284
700.0,0.02792
701.0,0.02746
702.0,0.02761
703.0,0.02755
704.0,0.02841
705.0,0.02832
706.0,0.02822
707.0,0.02813
708.0,0.02805
709.0,0.02803
710.0,0.02786
711.0,0.02775
712.0,0.02759
713.0,0.02715
714.0,0.02712
715.0,0.02605
716.0,0.02593
717.0,0.02171
718.0,0.0197
719.0,0.01783
720.0,0.01862
721.0,0.02084
722.0,0.02428
723.0,0.02221
724.0,0.01961
725.0,0.01916
726.0,0.02006
727.0,0.02034
728.0,0.01885
729.0,0.01967
730.0,0.02077
731.0,0.01969
732.0,0.02122
733.0,0.0226
734.0,0.0231
735.0,0.02248
736.0,0.02235
737.0,0.02232
738.0,0.02272
739.0,0.02216
740.0,0.02268
741.0,0.02238
742.0,0.02232
743.0,0.02277
744.0,0.0226
745.0,0.02251
746.0,0.0225
747.0,0.02245
748.0,0.02229
749.0,0.02193
750.0,0.02183
751.0,0.02152
752.0,0.02152
753.0,0.02154
754.0,0.02149
755.0,0.02127
756.0,0.02118
757.0,0.02112
758.0,0.02075
759.0,0.02014
760.0,0.00276
761.0,0.001443
762.0,0.00894
763.0,0.004198
764.0,0.006441
765.0,0.008806
766.0,0.01117
767.0,0.0146
768.0,0.01735
769.0,0.01778
770.0,0.01846
771.0,0.0186
772.0,0.01857
773.0,0.01861
774.0,0.01842
775.0,0.01819
776.0,0.01833
777.0,0.01799
778.0,0.01779
779.0,0.01771
780.0,0.01753
781.0,0.01747
782.0,0.01751
783.0,0.01714
784.0,0.01715
785.0,0.01695
786.0,0.01706
787.0,0.01663
788.0,0.01632
789.0,0.01623
790.0,0.01563
791.0,0.01579
792.0,0.01561
793.0,0.01528
794.0,0.01557
795.0,0.01574
796.0,0.01505
797.0,0.01501
798.0,0.0155
799.0,0.01531
800.0,0.01494
801.0,0.01479
802.0,0.01468
803.0,0.01449
804.0,0.01446
805.0,0.01438
806.0,0.01477
807.0,0.01451
808.0,0.01446
809.0,0.01407
810.0,0.01385
811.0,0.01375
812.0,0.01321
813.0,0.01282
814.0,0.01096
815.0,0.01085
816.0,0.009954
817.0,0.01012
818.0,0.009656
819.0,0.01098
820.0,0.0102
821.0,0.01224
822.0,0.01177
823.0,0.007466
824.0,0.01124
825.0,0.0118
826.0,0.0112
827.0,0.0119
828.0,0.009736
829.0,0.01101
830.0,0.0108
831.0,0.0108
832.0,0.01036
833.0,0.01116
834.0,0.01063
835.0,0.01184
836.0,0.01115
837.0,0.01177
838.0,0.0113
839.0,0.0115
840.0,0.01172
841.0,0.01147
842.0,0.01148
843.0,0.01147
844.0,0.01123
845.0,0.01159
846.0,0.01149
847.0,0.01124
848.0,0.0111
849.0,0.01073
850.0,0.01023
851.0,0.01076
852.0,0.01064
853.0,0.01021
854.0,0.008761
855.0,0.009605
856.0,0.01045
857.0,0.01065
858.0,0.01053
859.0,0.0105
860.0,0.01048
861.0,0.01038
862.0,0.01051
863.0,0.01072
864.0,0.01015
865.0,0.01002
866.0,0.008972
867.0,0.009325
868.0,0.01011
869.0,0.009858
870.0,0.0101
871.0,0.00992
872.0,0.009845
873.0,0.009784
874.0,0.009625
875.0,0.009387
876.0,0.009442
877.0,0.009499
878.0,0.009558
879.0,0.009371
880.0,0.009132
881.0,0.008949
882.0,0.009103
883.0,0.009102
884.0,0.009016
885.0,0.009042
886.0,0.008552
887.0,0.008631
888.0,0.008707
889.0,0.008794
890.0,0.008649
891.0,0.008617
892.0,0.008297
893.0,0.007955
894.0,0.007552
895.0,0.006996
896.0,0.006486
897.0,0.0054
898.0,0.005953
899.0,0.004317
900.0,0.006122
901.0,0.004538
902.0,0.00548
903.0,0.005464
904.0,0.007188
905.0,0.006864
906.0,0.006346
907.0,0.004913
908.0,0.00503
909.0,0.005527
910.0,0.004719
911.0,0.005102
912.0,0.005345
913.0,0.004729
914.0,0.004684
915.0,0.005101
916.0,0.004212
917.0,0.005547
918.0,0.004295
919.0,0.005632
920.0,0.005735
921.0,0.00599
922.0,0.005209
923.0,0.005745
924.0,0.005293
925.0,0.005146
926.0,0.005188
927.0,0.005898
928.0,0.004015
929.0,0.003588
930.0,0.002698
931.0,0.002536
932.0,0.001737
933.0,0.001373
934.0,0.0007071
935.0,0.001408
936.0,0.0008387
937.0,0.0008456
938.0,0.00105
939.0,0.002372
940.0,0.002924
941.0,0.00211
942.0,0.002478
943.0,0.001544
944.0,0.001653
945.0,0.002147
946.0,0.00101
947.0,0.002129
948.0,0.001521
949.0,0.002942
950.0,0.0007086
951.0,0.00288
952.0,0.001422
953.0,0.001893
954.0,0.002395
955.0,0.001912
956.0,0.001873
957.0,0.001395
958.0,0.002762
959.0,0.00209
960.0,0.002359
961.0,0.002705
962.0,0.002535
963.0,0.002991
964.0,0.002694
965.0,0.002956
966.0,0.002942
967.0,0.002908
968.0,0.004184
969.0,0.004353
970.0,0.003924
971.0,0.004633
972.0,0.004369
973.0,0.003652
974.0,0.00343
975.0,0.003581
976.0,0.003328
977.0,0.003919
978.0,0.003649
979.0,0.003854
980.0,0.003567
981.0,0.004433
982.0,0.004169
983.0,0.003955
984.0,0.004577
985.0,0.004106
986.0,0.004659
987.0,0.004511
988.0,0.004485
989.0,0.004613
990.0,0.004424
991.0,0.004578
992.0,0.004592
993.0,0.004437
994.0,0.004563
995.0,0.004547
996.0,0.004504
997.0,0.004497
998.0,0.004457
999.0,0.004427
1000.0,0.00437
1001.0,0.004419
1002.0,0.004242
1003.0,0.004305
1004.0,0.004173
1005.0,0.004019
1006.0,0.004152
1007.0,0.004227
1008.0,0.004182
1009.0,0.004136
1010.0,0.004099
1011.0,0.004144
1012.0,0.004085
1013.0,0.004105
1014.0,0.004062
1015.0,0.004018
1016.0,0.003984
1017.0,0.003977
1018.0,0.003951
1019.0,0.003838
1020.0,0.003897
1021.0,0.00388
1022.0,0.003829
1023.0,0.003855
1024.0,0.003777
1025.0,0.003829
1026.0,0.003794
1027.0,0.003771
1028.0,0.003749
1029.0,0.00369
1030.0,0.003706
1031.0,0.003675
1032.0,0.003652
1033.0,0.003583
1034.0,0.00357
1035.0,0.003567
1036.0,0.00357
1037.0,0.003499
1038.0,0.003502
1039.0,0.003486
1040.0,0.003459
1041.0,0.003458
1042.0,0.003421
1043.0,0.003397
1044.0,0.003396
1045.0,0.003336
1046.0,0.003286
1047.0,0.003302
1048.0,0.003308
1049.0,0.003283
1050.0,0.003255
1051.0,0.003237
1052.0,0.003211
1053.0,0.003173
1054.0,0.003167
1055.0,0.003155
1056.0,0.00313
1057.0,0.003107
1058.0,0.003019
1059.0,0.003009
1060.0,0.002993
1061.0,0.002977
1062.0,0.002979
1063.0,0.002938
1064.0,0.002963
1065.0,0.002926
1066.0,0.002861
1067.0,0.002886
1068.0,0.00281
1069.0,0.002715
1070.0,0.002794
1071.0,0.002837
1072.0,0.002786
1073.0,0.002739
1074.0,0.002812
1075.0,0.00263
1076.0,0.002787
1077.0,0.002709
1078.0,0.002641
1079.0,0.002717
1080.0,0.002635
1081.0,0.002531
1082.0,0.002588
1083.0,0.002592
1084.0,0.002488
1085.0,0.0026
1086.0,0.002313
1087.0,0.002417
1088.0,0.002537
1089.0,0.002422
1090.0,0.00234
1091.0,0.002493
1092.0,0.002484
1093.0,0.002017
1094.0,0.002247
1095.0,0.002099
1096.0,0.00198
1097.0,0.002386
1098.0,0.001927
1099.0,0.002015
1100.0,0.001831
1101.0,0.001859
1102.0,0.001751
1103.0,0.001714
1104.0,0.001713
1105.0,0.001919
1106.0,0.001359
1107.0,0.001788
1108.0,0.001445
1109.0,0.001449
1110.0,0.001744
1111.0,0.001087
1112.0,0.001426
1113.0,0.0008277
1114.0,0.0009317
1115.0,0.0007556
1116.0,0.0005752
1117.0,0.0001904
1118.0,0.0006291
1119.0,0.0002887
1120.0,0.0003644
1121.0,0.0004944
1122.0,0.0001928
1123.0,0.0003247
1124.0,0.0002712
1125.0,0.0003594
1126.0,0.0001145
1127.0,0.0004053
1128.0,0.0002287
1129.0,0.0002431
1130.0,0.0001558
1131.0,0.0008193
1132.0,0.0006228
1133.0,0.0003695
1134.0,8.616e-05
1135.0,3.2e-05
1136.0,0.0002985
1137.0,0.0007812
1138.0,0.0005324
1139.0,0.0008527
1140.0,0.0006851
1141.0,0.0004996
1142.0,0.0005839
1143.0,0.0008658
1144.0,0.0002684
1145.0,0.0003413
1146.0,0.0003678
1147.0,0.000119
1148.0,0.0007254
1149.0,0.0005579
1150.0,0.0002856
1151.0,0.0005048
1152.0,0.0006397
1153.0,0.0006289
1154.0,0.0003205
1155.0,0.0008452
1156.0,0.000744
1157.0,0.0008561
1158.0,0.0008427
1159.0,0.0009234
1160.0,0.0007671
1161.0,0.0009858
1162.0,0.0009826
1163.0,0.001415
1164.0,0.001172
1165.0,0.001079
1166.0,0.00108
1167.0,0.001191
1168.0,0.001198
1169.0,0.001233
1170.0,0.00136
1171.0,0.001316
1172.0,0.001348
1173.0,0.001343
1174.0,0.000892
1175.0,0.001312
1176.0,0.001471
1177.0,0.001387
1178.0,0.0009817
1179.0,0.001469
1180.0,0.001267
1181.0,0.00131
1182.0,0.0008406
1183.0,0.00129
1184.0,0.001181
1185.0,0.001123
1186.0,0.001382
1187.0,0.001295
1188.0,0.0008385
1189.0,0.001192
1190.0,0.001332
1191.0,0.001235
1192.0,0.001346
1193.0,0.001273
1194.0,0.001317
1195.0,0.001224
1196.0,0.001164
1197.0,0.001317
1198.0,0.001184
1199.0,0.0009645
1200.0,0.001232
1201.0,0.00117
1202.0,0.001166
1203.0,0.001155
1204.0,0.0009779
1205.0,0.001194
1206.0,0.001345
1207.0,0.001145
1208.0,0.001135
1209.0,0.001156
1210.0,0.001212
1211.0,0.001135
1212.0,0.001103
1213.0,0.001264
1214.0,0.00113
1215.0,0.001101
1216.0,0.001249
1217.0,0.001204
1218.0,0.00123
1219.0,0.001207
1220.0,0.001224
1221.0,0.001237
1222.0,0.001195
1223.0,0.001177
1224.0,0.001161
1225.0,0.001213
1226.0,0.001222
1227.0,0.001103
1228.0,0.001224
1229.0,0.00121
1230.0,0.001182
1231.0,0.001224
1232.0,0.001213
1233.0,0.001152
1234.0,0.001215
1235.0,0.001201
1236.0,0.001207
1237.0,0.001181
1238.0,0.001196
1239.0,0.001176
1240.0,0.001178
1241.0,0.001165
1242.0,0.001162
1243.0,0.001148
1244.0,0.001151
1245.0,0.001153
1246.0,0.001143
1247.0,0.001134
1248.0,0.001128
1249.0,0.001129
1250.0,0.001118
1251.0,0.001097
1252.0,0.001097
1253.0,0.00108
1254.0,0.001061
1255.0,0.001084
1256.0,0.001041
1257.0,0.00103
1258.0,0.001053
1259.0,0.0009976
1260.0,0.001002
1261.0,0.0009253
1262.0,0.0008863
1263.0,0.0008849
1264.0,0.0007959
1265.0,0.0008745
1266.0,0.0008279
1267.0,0.0008475
1268.0,0.0007892
1269.0,0.0004317
1270.0,0.0008343
1271.0,0.0008985
1272.0,0.0009005
1273.0,0.0008862
1274.0,0.0008887
1275.0,0.0009019
1276.0,0.0009111
1277.0,0.0009179
1278.0,0.0009396
1279.0,0.0009276
1280.0,0.0009134
1281.0,0.000872
1282.0,0.0008429
1283.0,0.0009039
1284.0,0.0009215
1285.0,0.0009256
1286.0,0.0009382
1287.0,0.0009152
1288.0,0.0009137
1289.0,0.0008716
1290.0,0.0009005
1291.0,0.000912
1292.0,0.000835
1293.0,0.0008837
1294.0,0.0008737
1295.0,0.000862
1296.0,0.0008086
1297.0,0.0007532
1298.0,0.0008266
1299.0,0.00087
1300.0,0.0007019
1301.0,0.0007274
1302.0,0.0008149
1303.0,0.0006882
1304.0,0.0005607
1305.0,0.0007876
1306.0,0.0007837
1307.0,0.0005734
1308.0,0.0006808
1309.0,0.0007677
1310.0,0.0005552
1311.0,0.0006406
1312.0,0.0006195
1313.0,0.0006002
1314.0,0.0005232
1315.0,0.0005133
1316.0,0.0006182
1317.0,0.0005775
1318.0,0.0006385
1319.0,0.0004681
1320.0,0.0004532
1321.0,0.0005412
1322.0,0.0005426
1323.0,0.000384
1324.0,0.0004519
1325.0,0.00059
1326.0,0.0004887
1327.0,0.0004602
1328.0,0.0003859
1329.0,0.0002738
1330.0,0.0003677
1331.0,0.0002049
1332.0,0.0002135
1333.0,0.000305
1334.0,0.0002589
1335.0,0.0003683
1336.0,0.0002794
1337.0,0.0002427
1338.0,0.0002631
1339.0,0.0002623
1340.0,0.0002557
1341.0,0.0002433
1342.0,0.0002564
1343.0,0.0001618
1344.0,9.487e-05
1345.0,0.0001383
1346.0,6.452e-05
1347.0,6.51e-05
1348.0,4.045e-06
1349.0,1.459e-05
1350.0,1.515e-05
1351.0,3.63e-06
1352.0,9.747e-07
1353.0,4.959e-08
1354.0,1.704e-07
1355.0,1.372e-09
1356.0,2.402e-08
1357.0,3.649e-08
1358.0,1.611e-09
1359.0,2.029e-10
