interpolation:linear
wavelength,value
280.0,1.194e-21
280.5,3.8320000000000006e-20
281.0,2.037e-19
281.5,5.138e-19
282.0,9.7e-19
282.5,2.421e-18
283.0,7.642e-18
283.5,1.242e-17
284.0,2.009e-16
284.5,5.807e-16
285.0,1.166e-15
285.5,5.611e-15
286.0,2.24e-14
286.5,9.903e-14
287.0,2.809e-13
287.5,1.068e-12
288.0,3.24e-12
288.5,1.018e-11
289.0,2.778e-11
289.5,8.525e-11
290.0,2.388e-10
290.5,4.897e-10
291.0,1.056e-09
291.5,3.042e-09
292.0,6.223e-09
292.5,9.018e-09
293.0,2.01e-08
293.5,5.132e-08
294.0,8.278e-08
294.5,1.082e-07
295.0,1.876e-07
295.5,4.333e-07
296.0,7.759e-07
296.5,1.111e-06
297.0,1.537e-06
297.5,4.292e-06
298.0,7.048e-06
298.5,7.354e-06
299.0,1.689e-05
299.5,3.06e-05
300.0,3.566e-05
300.5,5.529e-05
301.0,0.0001144
301.5,0.000213
302.0,0.0002005
302.5,0.0003942
303.0,0.0007147
303.5,0.0009084
304.0,0.0008663
304.5,0.001351
305.0,0.002186
305.5,0.002609
306.0,0.002562
306.5,0.003274
307.0,0.005169
307.5,0.007304
308.0,0.007773
308.5,0.009451
309.0,0.009615
309.5,0.01122
310.0,0.01137
310.5,0.01847
311.0,0.02335
311.5,0.02257
312.0,0.02302
312.5,0.02837
313.0,0.03095
313.5,0.02971
314.0,0.03779
314.5,0.03438
315.0,0.04527
315.5,0.03721
316.0,0.03318
316.5,0.04855
317.0,0.06006
317.5,0.06191
318.0,0.04888
318.5,0.06238
319.0,0.075
319.5,0.05939
320.0,0.07126
320.5,0.09182
321.0,0.08405
321.5,0.08058
322.0,0.08281
322.5,0.07193
323.0,0.07296
323.5,0.0913
324.0,0.1066
324.5,0.107
325.0,0.09098
325.5,0.1188
326.0,0.1454
326.5,0.1468
327.0,0.1452
327.5,0.1391
328.0,0.1219
328.5,0.1297
329.0,0.1571
329.5,0.1787
330.0,0.1789
330.5,0.1411
331.0,0.1428
331.5,0.1458
332.0,0.1591
332.5,0.1579
333.0,0.1564
333.5,0.1396
334.0,0.1424
334.5,0.1656
335.0,0.1563
335.5,0.1841
336.0,0.127
336.5,0.1459
337.0,0.1187
337.5,0.1469
338.0,0.1444
338.5,0.1679
339.0,0.1652
339.5,0.1588
340.0,0.1842
340.5,0.1657
341.0,0.1622
341.5,0.1478
342.0,0.1759
342.5,0.1639
343.0,0.1801
343.5,0.1694
344.0,0.1242
344.5,0.1262
345.0,0.1654
345.5,0.168
346.0,0.1422
346.5,0.1603
347.0,0.1719
347.5,0.1386
348.0,0.1571
348.5,0.1564
349.0,0.1446
349.5,0.1427
350.0,0.1759
350.5,0.1849
351.0,0.1647
351.5,0.1601
352.0,0.171
352.5,0.1328
353.0,0.1666
353.5,0.1775
354.0,0.1837
354.5,0.1856
355.0,0.1844
355.5,0.166
356.0,0.1731
356.5,0.1473
357.0,0.1213
357.5,0.148
358.0,0.1169
358.5,0.09952
359.0,0.1387
359.5,0.1763
360.0,0.1862
360.5,0.1483
361.0,0.1347
361.5,0.1546
362.0,0.1332
362.5,0.1838
363.0,0.1645
363.5,0.151
364.0,0.184
364.5,0.1568
365.0,0.1591
365.5,0.199
366.0,0.2101
366.5,0.1968
367.0,0.191
367.5,0.1975
368.0,0.1722
368.5,0.1732
369.0,0.1864
369.5,0.198
370.0,0.2104
370.5,0.1627
371.0,0.1733
371.5,0.216
372.0,0.1429
372.5,0.1707
373.0,0.1731
373.5,0.1122
374.0,0.1625
374.5,0.1341
375.0,0.1299
375.5,0.1933
376.0,0.1597
376.5,0.1649
377.0,0.174
377.5,0.2028
378.0,0.2191
378.5,0.2063
379.0,0.1696
379.5,0.1544
380.0,0.1599
380.5,0.193
381.0,0.1927
381.5,0.1522
382.0,0.1347
382.5,0.1144
383.0,0.1055
383.5,0.1013
384.0,0.1113
384.5,0.1631
385.0,0.1612
385.5,0.1496
386.0,0.1277
386.5,0.1671
387.0,0.1383
387.5,0.1548
388.0,0.1424
388.5,0.1403
389.0,0.1509
389.5,0.1821
390.0,0.1821
390.5,0.1669
391.0,0.1958
391.5,0.199
392.0,0.167
392.5,0.1489
393.0,0.08257
393.5,0.05981
394.0,0.1213
394.5,0.1536
395.0,0.1868
395.5,0.1891
396.0,0.1633
396.5,0.09514
397.0,0.07114
397.5,0.1441
398.0,0.2011
398.5,0.2071
399.0,0.2235
399.5,0.222
400.0,0.2297
401.0,0.2256
402.0,0.2363
403.0,0.2228
404.0,0.2178
405.0,0.2162
406.0,0.2111
407.0,0.2061
408.0,0.2126
409.0,0.2259
410.0,0.196
411.0,0.2108
412.0,0.2247
413.0,0.2176
414.0,0.2187
415.0,0.2176
416.0,0.2198
417.0,0.2127
418.0,0.2072
419.0,0.2084
420.0,0.2059
421.0,0.2138
422.0,0.2016
423.0,0.1954
424.0,0.205
425.0,0.2031
426.0,0.1964
427.0,0.1914
428.0,0.1851
429.0,0.1741
430.0,0.1512
431.0,0.1487
432.0,0.1905
433.0,0.1901
434.0,0.1752
435.0,0.1816
436.0,0.2032
437.0,0.1991
438.0,0.18
439.0,0.1847
440.0,0.1891
441.0,0.1944
442.0,0.2069
443.0,0.2
444.0,0.2029
445.0,0.1971
446.0,0.1868
447.0,0.2005
448.0,0.202
449.0,0.2012
450.0,0.2052
451.0,0.2112
452.0,0.202
453.0,0.1886
454.0,0.1955
455.0,0.1952
456.0,0.1982
457.0,0.1999
458.0,0.1914
459.0,0.1889
460.0,0.1878
461.0,0.1906
462.0,0.1908
463.0,0.1882
464.0,0.184
465.0,0.1805
466.0,0.181
467.0,0.1763
468.0,0.1769
469.0,0.1763
470.0,0.1694
471.0,0.168
472.0,0.1758
473.0,0.1723
474.0,0.1712
475.0,0.1713
476.0,0.1647
477.0,0.1638
478.0,0.1668
479.0,0.1643
480.0,0.1632
481.0,0.1647
482.0,0.1643
483.0,0.1612
484.0,0.1568
485.0,0.1484
486.0,0.1289
487.0,0.1342
488.0,0.1461
489.0,0.1454
490.0,0.1518
491.0,0.148
492.0,0.1387
493.0,0.1422
494.0,0.1426
495.0,0.1427
496.0,0.1425
497.0,0.1435
498.0,0.1356
499.0,0.1361
500.0,0.1309
501.0,0.1273
502.0,0.1243
503.0,0.1282
504.0,0.1238
505.0,0.1273
506.0,0.1305
507.0,0.1233
508.0,0.1187
509.0,0.1213
510.0,0.1199
511.0,0.1223
512.0,0.1227
513.0,0.1153
514.0,0.1136
515.0,0.1116
516.0,0.1105
517.0,0.0975
518.0,0.1018
519.0,0.1059
520.0,0.1089
521.0,0.1091
522.0,0.1083
523.0,0.1056
524.0,0.1084
525.0,0.1088
526.0,0.1031
527.0,0.09626
528.0,0.1009
529.0,0.1055
530.0,0.1032
531.0,0.1039
532.0,0.0996
533.0,0.096
534.0,0.09817
535.0,0.09967
536.0,0.09994
537.0,0.09535
538.0,0.09637
539.0,0.09493
540.0,0.09039
541.0,0.09029
542.0,0.09238
543.0,0.09072
544.0,0.09168
545.0,0.09082
546.0,0.09055
547.0,0.08986
548.0,0.08817
549.0,0.08785
550.0,0.08829
551.0,0.0866
552.0,0.08658
553.0,0.08443
554.0,0.08584
555.0,0.0854
556.0,0.08365
557.0,0.08042
558.0,0.07916
559.0,0.07704
560.0,0.07737
561.0,0.07773
562.0,0.07653
563.0,0.078
564.0,0.07531
565.0,0.07411
566.0,0.07248
567.0,0.07329
568.0,0.07207
569.0,0.06978
570.0,0.06929
571.0,0.0684
572.0,0.06948
573.0,0.06976
574.0,0.06912
575.0,0.06741
576.0,0.0664
577.0,0.06674
578.0,0.0654
579.0,0.06534
580.0,0.06629
581.0,0.0663
582.0,0.06721
583.0,0.06705
584.0,0.06731
585.0,0.06531
586.0,0.06356
587.0,0.0645
588.0,0.06246
589.0,0.05479
590.0,0.05698
591.0,0.06004
592.0,0.05881
593.0,0.05934
594.0,0.05845
595.0,0.05653
596.0,0.05852
597.0,0.05745
598.0,0.05692
599.0,0.05658
600.0,0.05633
601.0,0.05555
602.0,0.05484
603.0,0.05543
604.0,0.05604
605.0,0.05547
606.0,0.05499
607.0,0.05529
608.0,0.05443
609.0,0.05427
610.0,0.05366
611.0,0.05371
612.0,0.05333
613.0,0.05241
614.0,0.05147
615.0,0.05236
616.0,0.05041
617.0,0.05009
618.0,0.05178
619.0,0.05102
620.0,0.05109
621.0,0.05088
622.0,0.05001
623.0,0.04898
624.0,0.0479
625.0,0.04758
626.0,0.04806
627.0,0.04833
628.0,0.04448
629.0,0.04656
630.0,0.04524
631.0,0.04617
632.0,0.04543
633.0,0.04667
634.0,0.04606
635.0,0.04657
636.0,0.04576
637.0,0.04631
638.0,0.04658
639.0,0.04586
640.0,0.04522
641.0,0.04499
642.0,0.04461
643.0,0.04503
644.0,0.0447
645.0,0.04454
646.0,0.04323
647.0,0.04241
648.0,0.04222
649.0,0.0412
650.0,0.04134
651.0,0.04295
652.0,0.04079
653.0,0.04198
654.0,0.04133
655.0,0.03951
656.0,0.0349
657.0,0.0357
658.0,0.03988
659.0,0.04
660.0,0.03998
661.0,0.04006
662.0,0.03994
663.0,0.03899
664.0,0.03931
665.0,0.03919
666.0,0.03905
667.0,0.03885
668.0,0.03871
669.0,0.03914
670.0,0.03878
671.0,0.03861
672.0,0.03814
673.0,0.03858
674.0,0.03825
675.0,0.03773
676.0,0.03781
677.0,0.03729
678.0,0.03724
679.0,0.03648
680.0,0.03661
681.0,0.0362
682.0,0.03598
683.0,0.03574
684.0,0.03538
685.0,0.03551
686.0,0.03513
687.0,0.02185
688.0,0.02607
689.0,0.02606
690.0,0.02741
691.0,0.02898
692.0,0.03013
693.0,0.02971
694.0,0.02929
695.0,0.03054
696.0,0.03043
697.0,0.03247
698.0,0.03182
699.0,0.03073
700.0,0.03021
701.0,0.02973
702.0,0.02987
703.0,0.02978
704.0,0.03068
705.0,0.03057
706.0,0.03045
707.0,0.03034
708.0,0.03026
709.0,0.03021
710.0,0.03003
711.0,0.02991
712.0,0.02974
713.0,0.02927
714.0,0.02922
715.0,0.02809
716.0,0.02796
717.0,0.02357
718.0,0.02136
719.0,0.01931
720.0,0.02019
721.0,0.02254
722.0,0.0262
723.0,0.02398
724.0,0.02121
725.0,0.02073
726.0,0.02172
727.0,0.02197
728.0,0.02039
729.0,0.02124
730.0,0.02245
731.0,0.02128
732.0,0.02288
733.0,0.02434
734.0,0.02485
735.0,0.02419
736.0,0.02405
737.0,0.02402
738.0,0.02441
739.0,0.0238
740.0,0.02435
741.0,0.02401
742.0,0.02394
743.0,0.02442
744.0,0.02424
745.0,0.02413
746.0,0.02413
747.0,0.02407
748.0,0.0239
749.0,0.0235
750.0,0.02339
751.0,0.02305
752.0,0.02305
753.0,0.02306
754.0,0.023
755.0,0.02277
756.0,0.02266
757.0,0.02259
758.0,0.0222
759.0,0.02158
760.0,0.002972
761.0,0.001528
762.0,0.00982
763.0,0.00457
764.0,0.007065
765.0,0.00967
766.0,0.01222
767.0,0.01585
768.0,0.01867
769.0,0.01909
770.0,0.01978
771.0,0.0199
772.0,0.01987
773.0,0.0199
774.0,0.0197
775.0,0.01946
776.0,0.01961
777.0,0.01925
778.0,0.01903
779.0,0.01895
780.0,0.01876
781.0,0.01869
782.0,0.01873
783.0,0.01832
784.0,0.01833
785.0,0.01812
786.0,0.01823
787.0,0.01779
788.0,0.01746
789.0,0.01736
790.0,0.01674
791.0,0.01689
792.0,0.01669
793.0,0.01633
794.0,0.01662
795.0,0.01681
796.0,0.01611
797.0,0.01606
798.0,0.01656
799.0,0.01636
800.0,0.01597
801.0,0.01582
802.0,0.01571
803.0,0.0155
804.0,0.01546
805.0,0.01537
806.0,0.01577
807.0,0.0155
808.0,0.01544
809.0,0.01505
810.0,0.01482
811.0,0.01474
812.0,0.01417
813.0,0.01376
814.0,0.0118
815.0,0.01167
816.0,0.01071
817.0,0.01089
818.0,0.0104
819.0,0.0118
820.0,0.01097
821.0,0.01311
822.0,0.01262
823.0,0.008037
824.0,0.01206
825.0,0.01263
826.0,0.012
827.0,0.01273
828.0,0.01046
829.0,0.01179
830.0,0.01156
831.0,0.01156
832.0,0.0111
833.0,0.01195
834.0,0.01139
835.0,0.01264
836.0,0.01194
837.0,0.01257
838.0,0.01209
839.0,0.01228
840.0,0.01251
841.0,0.01226
842.0,0.01226
843.0,0.01223
844.0,0.01199
845.0,0.01236
846.0,0.01226
847.0,0.01198
848.0,0.01184
849.0,0.01145
850.0,0.01092
851.0,0.01149
852.0,0.01136
853.0,0.01089
854.0,0.009354
855.0,0.01025
856.0,0.01115
857.0,0.01136
858.0,0.01123
859.0,0.0112
860.0,0.01118
861.0,0.01107
862.0,0.0112
863.0,0.01143
864.0,0.01081
865.0,0.01067
866.0,0.009559
867.0,0.009934
868.0,0.01077
869.0,0.0105
870.0,0.01076
871.0,0.01056
872.0,0.01048
873.0,0.01042
874.0,0.01025
875.0,0.009996
876.0,0.01005
877.0,0.01011
878.0,0.01018
879.0,0.009981
880.0,0.009726
881.0,0.009534
882.0,0.0097
883.0,0.009697
884.0,0.009607
885.0,0.009635
886.0,0.009121
887.0,0.009199
888.0,0.009283
889.0,0.009371
890.0,0.009224
891.0,0.009186
892.0,0.008856
893.0,0.008497
894.0,0.008088
895.0,0.007515
896.0,0.006963
897.0,0.005808
898.0,0.006403
899.0,0.004642
900.0,0.006572
901.0,0.004892
902.0,0.005889
903.0,0.005884
904.0,0.007699
905.0,0.007355
906.0,0.006803
907.0,0.005288
908.0,0.005408
909.0,0.00594
910.0,0.005086
911.0,0.00548
912.0,0.005748
913.0,0.005098
914.0,0.005043
915.0,0.005509
916.0,0.004532
917.0,0.005975
918.0,0.004628
919.0,0.006056
920.0,0.00614
921.0,0.006426
922.0,0.005599
923.0,0.00616
924.0,0.005702
925.0,0.005538
926.0,0.005593
927.0,0.006348
928.0,0.00435
929.0,0.003894
930.0,0.002927
931.0,0.002749
932.0,0.00188
933.0,0.001482
934.0,0.0007556
935.0,0.001518
936.0,0.0008972
937.0,0.0009046
938.0,0.001129
939.0,0.002572
940.0,0.003175
941.0,0.002291
942.0,0.002695
943.0,0.001667
944.0,0.001779
945.0,0.002329
946.0,0.001085
947.0,0.002312
948.0,0.001637
949.0,0.003207
950.0,0.0007565
951.0,0.003138
952.0,0.001535
953.0,0.00205
954.0,0.002599
955.0,0.002073
956.0,0.00201
957.0,0.001508
958.0,0.002979
959.0,0.002258
960.0,0.002557
961.0,0.002926
962.0,0.002738
963.0,0.00323
964.0,0.002906
965.0,0.003194
966.0,0.003179
967.0,0.003144
968.0,0.004485
969.0,0.004685
970.0,0.00422
971.0,0.004963
972.0,0.004684
973.0,0.003936
974.0,0.003693
975.0,0.00385
976.0,0.003592
977.0,0.004204
978.0,0.003926
979.0,0.004143
980.0,0.003833
981.0,0.004749
982.0,0.004475
983.0,0.004248
984.0,0.004892
985.0,0.00441
986.0,0.004971
987.0,0.004823
988.0,0.004794
989.0,0.004917
990.0,0.004732
991.0,0.004884
992.0,0.004897
993.0,0.004741
994.0,0.004864
995.0,0.004845
996.0,0.0048
997.0,0.004792
998.0,0.00475
999.0,0.004717
1000.0,0.004659
1001.0,0.004708
1002.0,0.004529
1003.0,0.004588
1004.0,0.004449
1005.0,0.004281
1006.0,0.004424
1007.0,0.004504
1008.0,0.004457
1009.0,0.004411
1010.0,0.004372
1011.0,0.004415
1012.0,0.004353
1013.0,0.004373
1014.0,0.004327
1015.0,0.004281
1016.0,0.004244
1017.0,0.004237
1018.0,0.004209
1019.0,0.004091
1020.0,0.004152
1021.0,0.004132
1022.0,0.00408
1023.0,0.004108
1024.0,0.004028
1025.0,0.004079
1026.0,0.004043
1027.0,0.004018
1028.0,0.003994
1029.0,0.003932
1030.0,0.003948
1031.0,0.003916
1032.0,0.00389
1033.0,0.003817
1034.0,0.003803
1035.0,0.0038
1036.0,0.003804
1037.0,0.003728
1038.0,0.003731
1039.0,0.003715
1040.0,0.003686
1041.0,0.003685
1042.0,0.003645
1043.0,0.00362
1044.0,0.00362
1045.0,0.003556
1046.0,0.003503
1047.0,0.00352
1048.0,0.003527
1049.0,0.003501
1050.0,0.003471
1051.0,0.003452
1052.0,0.003424
1053.0,0.003384
1054.0,0.003378
1055.0,0.003366
1056.0,0.00334
1057.0,0.003316
1058.0,0.003222
1059.0,0.003213
1060.0,0.003195
1061.0,0.003179
1062.0,0.003182
1063.0,0.003138
1064.0,0.003165
1065.0,0.003127
1066.0,0.003057
1067.0,0.003084
1068.0,0.003002
1069.0,0.002901
1070.0,0.002985
1071.0,0.003029
1072.0,0.002977
1073.0,0.002926
1074.0,0.003
1075.0,0.002814
1076.0,0.002974
1077.0,0.002895
1078.0,0.002825
1079.0,0.002899
1080.0,0.002816
1081.0,0.002708
1082.0,0.002763
1083.0,0.002766
1084.0,0.002663
1085.0,0.002778
1086.0,0.002477
1087.0,0.002586
1088.0,0.002708
1089.0,0.002592
1090.0,0.002505
1091.0,0.002663
1092.0,0.002652
1093.0,0.002165
1094.0,0.002401
1095.0,0.002256
1096.0,0.00213
1097.0,0.002547
1098.0,0.002077
1099.0,0.002169
1100.0,0.001974
1101.0,0.002003
1102.0,0.00189
1103.0,0.001852
1104.0,0.00185
1105.0,0.002067
1106.0,0.001477
1107.0,0.001928
1108.0,0.001566
1109.0,0.001568
1110.0,0.001884
1111.0,0.001178
1112.0,0.001542
1113.0,0.0008969
1114.0,0.001013
1115.0,0.0008182
1116.0,0.0006232
1117.0,0.0002022
1118.0,0.0006831
1119.0,0.0003095
1120.0,0.0003938
1121.0,0.0005382
1122.0,0.0002056
1123.0,0.0003496
1124.0,0.0002906
1125.0,0.0003881
1126.0,0.0001208
1127.0,0.0004389
1128.0,0.000245
1129.0,0.000261
1130.0,0.0001652
1131.0,0.0008988
1132.0,0.0006795
1133.0,0.0004005
1134.0,9.036e-05
1135.0,3.304e-05
1136.0,0.0003223
1137.0,0.0008589
1138.0,0.0005795
1139.0,0.000928
1140.0,0.0007463
1141.0,0.0005427
1142.0,0.0006356
1143.0,0.0009475
1144.0,0.0002877
1145.0,0.0003697
1146.0,0.0003994
1147.0,0.0001258
1148.0,0.0007914
1149.0,0.0006069
1150.0,0.0003059
1151.0,0.0005492
1152.0,0.0006979
1153.0,0.0006824
1154.0,0.0003461
1155.0,0.0009215
1156.0,0.0008112
1157.0,0.00093
1158.0,0.0009155
1159.0,0.001004
1160.0,0.000831
1161.0,0.001067
1162.0,0.001064
1163.0,0.001525
1164.0,0.001265
1165.0,0.001169
1166.0,0.001164
1167.0,0.001283
1168.0,0.001293
1169.0,0.001331
1170.0,0.001464
1171.0,0.001415
1172.0,0.001446
1173.0,0.001445
1174.0,0.000963
1175.0,0.001408
1176.0,0.001572
1177.0,0.001487
1178.0,0.001055
1179.0,0.00157
1180.0,0.00136
1181.0,0.001407
1182.0,0.000905
1183.0,0.001384
1184.0,0.001269
1185.0,0.001208
1186.0,0.001481
1187.0,0.001391
1188.0,0.000906
1189.0,0.001279
1190.0,0.001426
1191.0,0.001329
1192.0,0.00144
1193.0,0.001364
1194.0,0.00141
1195.0,0.001315
1196.0,0.001252
1197.0,0.00141
1198.0,0.001267
1199.0,0.001039
1200.0,0.00132
1201.0,0.001257
1202.0,0.001249
1203.0,0.001241
1204.0,0.001051
1205.0,0.001277
1206.0,0.001436
1207.0,0.001229
1208.0,0.001216
1209.0,0.001238
1210.0,0.001296
1211.0,0.001216
1212.0,0.001188
1213.0,0.001353
1214.0,0.001216
1215.0,0.001184
1216.0,0.001336
1217.0,0.001289
1218.0,0.001316
1219.0,0.001292
1220.0,0.001309
1221.0,0.001322
1222.0,0.001278
1223.0,0.00126
1224.0,0.001244
1225.0,0.001297
1226.0,0.001305
1227.0,0.001183
1228.0,0.001306
1229.0,0.001293
1230.0,0.001263
1231.0,0.001305
1232.0,0.001293
1233.0,0.001232
1234.0,0.001294
1235.0,0.00128
1236.0,0.001286
1237.0,0.00126
1238.0,0.001274
1239.0,0.001253
1240.0,0.001255
1241.0,0.001242
1242.0,0.001237
1243.0,0.001223
1244.0,0.001227
1245.0,0.001229
1246.0,0.001218
1247.0,0.001208
1248.0,0.001202
1249.0,0.001203
1250.0,0.001191
1251.0,0.001171
1252.0,0.001169
1253.0,0.001152
1254.0,0.001134
1255.0,0.001156
1256.0,0.001112
1257.0,0.001101
1258.0,0.001124
1259.0,0.001069
1260.0,0.001073
1261.0,0.000996
1262.0,0.0009564
1263.0,0.0009551
1264.0,0.0008638
1265.0,0.0009438
1266.0,0.0008964
1267.0,0.0009156
1268.0,0.0008557
1269.0,0.0004772
1270.0,0.0009024
1271.0,0.0009669
1272.0,0.0009686
1273.0,0.0009538
1274.0,0.0009557
1275.0,0.0009691
1276.0,0.000978
1277.0,0.0009839
1278.0,0.001005
1279.0,0.0009926
1280.0,0.0009771
1281.0,0.000932
1282.0,0.0008993
1283.0,0.0009647
1284.0,0.0009837
1285.0,0.0009878
1286.0,0.001
1287.0,0.0009775
1288.0,0.0009752
1289.0,0.0009333
1290.0,0.000961
1291.0,0.0009727
1292.0,0.0008955
1293.0,0.0009436
1294.0,0.000933
1295.0,0.0009226
1296.0,0.0008682
1297.0,0.0008101
1298.0,0.0008851
1299.0,0.0009285
1300.0,0.0007547
1301.0,0.0007815
1302.0,0.0008725
1303.0,0.0007394
1304.0,0.0006065
1305.0,0.0008432
1306.0,0.0008401
1307.0,0.0006182
1308.0,0.0007302
1309.0,0.0008243
1310.0,0.0005991
1311.0,0.0006882
1312.0,0.0006662
1313.0,0.0006469
1314.0,0.0005645
1315.0,0.0005554
1316.0,0.0006653
1317.0,0.0006217
1318.0,0.0006859
1319.0,0.0005066
1320.0,0.000489
1321.0,0.0005836
1322.0,0.0005868
1323.0,0.000417
1324.0,0.0004885
1325.0,0.0006358
1326.0,0.000528
1327.0,0.0004975
1328.0,0.0004175
1329.0,0.0002974
1330.0,0.0004003
1331.0,0.0002225
1332.0,0.0002315
1333.0,0.0003337
1334.0,0.0002793
1335.0,0.0004006
1336.0,0.0003037
1337.0,0.000263
1338.0,0.0002862
1339.0,0.0002851
1340.0,0.0002767
1341.0,0.0002652
1342.0,0.0002796
1343.0,0.0001763
1344.0,0.0001015
1345.0,0.00015
1346.0,6.883e-05
1347.0,6.949e-05
1348.0,4.118e-06
1349.0,1.505e-05
1350.0,1.567e-05
1351.0,3.687e-06
1352.0,9.831e-07
1353.0,4.987e-08
1354.0,1.715e-07
1355.0,1.379e-09
1356.0,2.415e-08
1357.0,3.669e-08
1358.0,1.619e-09
1359.0,2.04e-10
1360.0,7.372e-10
1361.0,8.246e-13
1362.0,2.256e-15
