interpolation:linear
wavelength,value
280.0,4.1779999999999997e-22
280.5,1.366e-20
281.0,7.308000000000001e-20
281.5,4.478e-19
282.0,7.411e-19
282.5,1.836e-18
283.0,5.798e-18
283.5,9.429e-18
284.0,1.545e-16
284.5,4.496e-16
285.0,7.659e-16
285.5,3.799e-15
286.0,1.529e-14
286.5,6.862e-14
287.0,1.964e-13
287.5,7.551e-13
288.0,2.542e-12
288.5,7.727e-12
289.0,2.063e-11
289.5,6.239e-11
290.0,1.733e-10
290.5,3.534e-10
291.0,7.587e-10
291.5,2.178e-09
292.0,4.542e-09
292.5,6.383e-09
293.0,1.372e-08
293.5,3.346e-08
294.0,5.238e-08
294.5,7.123e-08
295.0,1.208e-07
295.5,2.123e-07
296.0,4.157e-07
296.5,5.91e-07
297.0,8.116e-07
297.5,2.235e-06
298.0,3.616e-06
298.5,3.719e-06
299.0,8.401e-06
299.5,1.466e-05
300.0,1.663e-05
300.5,2.496e-05
301.0,4.819e-05
301.5,8.219e-05
302.0,7.301e-05
302.5,0.0001457
303.0,0.0002696
303.5,0.0003481
304.0,0.0003367
304.5,0.0005445
305.0,0.0009288
305.5,0.001148
306.0,0.001144
306.5,0.001497
307.0,0.002493
307.5,0.003716
308.0,0.003993
308.5,0.004993
309.0,0.005166
309.5,0.006331
310.0,0.006559
310.5,0.01077
311.0,0.01386
311.5,0.01351
312.0,0.0143
312.5,0.01806
313.0,0.01996
313.5,0.01896
314.0,0.02482
314.5,0.02343
315.0,0.03107
315.5,0.02511
316.0,0.02308
316.5,0.03465
317.0,0.04287
317.5,0.0439
318.0,0.03528
318.5,0.04654
319.0,0.05689
319.5,0.04392
320.0,0.05252
320.5,0.06998
321.0,0.06601
321.5,0.06351
322.0,0.06329
322.5,0.0551
323.0,0.05708
323.5,0.0726
324.0,0.08506
324.5,0.0848
325.0,0.07161
325.5,0.09511
326.0,0.1167
326.5,0.1191
327.0,0.1174
327.5,0.112
328.0,0.09682
328.5,0.1049
329.0,0.1289
329.5,0.1472
330.0,0.147
330.5,0.1148
331.0,0.1158
331.5,0.1193
332.0,0.1317
332.5,0.1315
333.0,0.1299
333.5,0.1151
334.0,0.1172
334.5,0.1378
335.0,0.1308
335.5,0.1538
336.0,0.1062
336.5,0.122
337.0,0.09894
337.5,0.1223
338.0,0.1213
338.5,0.141
339.0,0.139
339.5,0.1335
340.0,0.1552
340.5,0.1397
341.0,0.1368
341.5,0.125
342.0,0.1489
342.5,0.1389
343.0,0.1525
343.5,0.1434
344.0,0.1052
344.5,0.1067
345.0,0.1404
345.5,0.1428
346.0,0.121
346.5,0.1367
347.0,0.1464
347.5,0.1181
348.0,0.1341
348.5,0.1337
349.0,0.1237
349.5,0.1221
350.0,0.1506
350.5,0.1584
351.0,0.1412
351.5,0.137
352.0,0.1466
352.5,0.114
353.0,0.1432
353.5,0.1527
354.0,0.1581
354.5,0.1599
355.0,0.1589
355.5,0.1431
356.0,0.1493
356.5,0.1272
357.0,0.1048
357.5,0.1279
358.0,0.1011
358.5,0.08612
359.0,0.1201
359.5,0.1526
360.0,0.1613
360.5,0.1286
361.0,0.1169
361.5,0.1342
362.0,0.1157
362.5,0.1597
363.0,0.143
363.5,0.1314
364.0,0.1602
364.5,0.1365
365.0,0.1386
365.5,0.1735
366.0,0.1833
366.5,0.1717
367.0,0.1668
367.5,0.1725
368.0,0.1506
368.5,0.1515
369.0,0.1631
369.5,0.1733
370.0,0.1842
370.5,0.1426
371.0,0.1519
371.5,0.1895
372.0,0.1254
372.5,0.1499
373.0,0.152
373.5,0.09862
374.0,0.1429
374.5,0.118
375.0,0.1143
375.5,0.1702
376.0,0.1407
376.5,0.1453
377.0,0.1534
377.5,0.1789
378.0,0.1934
378.5,0.1822
379.0,0.1499
379.5,0.1364
380.0,0.1414
380.5,0.1707
381.0,0.1706
381.5,0.1348
382.0,0.1193
382.5,0.1014
383.0,0.09356
383.5,0.08984
384.0,0.0988
384.5,0.1449
385.0,0.1432
385.5,0.133
386.0,0.1135
386.5,0.1487
387.0,0.1231
387.5,0.1379
388.0,0.1269
388.5,0.125
389.0,0.1345
389.5,0.1624
390.0,0.1625
390.5,0.149
391.0,0.1749
391.5,0.1778
392.0,0.1493
392.5,0.1332
393.0,0.07388
393.5,0.05354
394.0,0.1086
394.5,0.1376
395.0,0.1674
395.5,0.1695
396.0,0.1465
396.5,0.08538
397.0,0.06387
397.5,0.1295
398.0,0.1807
398.5,0.1862
399.0,0.201
399.5,0.1997
400.0,0.2067
401.0,0.2031
402.0,0.2129
403.0,0.2009
404.0,0.1965
405.0,0.1952
406.0,0.1907
407.0,0.1864
408.0,0.1923
409.0,0.2045
410.0,0.1776
411.0,0.1911
412.0,0.2039
413.0,0.1976
414.0,0.1987
415.0,0.1978
416.0,0.1999
417.0,0.1936
418.0,0.1887
419.0,0.1899
420.0,0.1878
421.0,0.1951
422.0,0.1841
423.0,0.1785
424.0,0.1874
425.0,0.1858
426.0,0.1798
427.0,0.1752
428.0,0.1696
429.0,0.1596
430.0,0.1387
431.0,0.1365
432.0,0.175
433.0,0.1747
434.0,0.1611
435.0,0.1671
436.0,0.1871
437.0,0.1833
438.0,0.1658
439.0,0.1702
440.0,0.1743
441.0,0.1792
442.0,0.1908
443.0,0.1845
444.0,0.1873
445.0,0.1821
446.0,0.1727
447.0,0.1854
448.0,0.1869
449.0,0.1862
450.0,0.19
451.0,0.1956
452.0,0.1872
453.0,0.1749
454.0,0.1814
455.0,0.1811
456.0,0.184
457.0,0.1855
458.0,0.1777
459.0,0.1753
460.0,0.1743
461.0,0.177
462.0,0.1772
463.0,0.1749
464.0,0.1711
465.0,0.168
466.0,0.1685
467.0,0.1642
468.0,0.1648
469.0,0.1642
470.0,0.1579
471.0,0.1566
472.0,0.1639
473.0,0.1607
474.0,0.1597
475.0,0.1598
476.0,0.1537
477.0,0.1527
478.0,0.1556
479.0,0.1532
480.0,0.1521
481.0,0.1535
482.0,0.1532
483.0,0.1503
484.0,0.1464
485.0,0.1387
486.0,0.1205
487.0,0.1255
488.0,0.1367
489.0,0.136
490.0,0.142
491.0,0.1385
492.0,0.1298
493.0,0.1331
494.0,0.1334
495.0,0.1336
496.0,0.1334
497.0,0.1343
498.0,0.1269
499.0,0.1273
500.0,0.1224
501.0,0.1189
502.0,0.116
503.0,0.1195
504.0,0.1153
505.0,0.1186
506.0,0.1216
507.0,0.115
508.0,0.1107
509.0,0.1132
510.0,0.112
511.0,0.1142
512.0,0.1146
513.0,0.1077
514.0,0.1061
515.0,0.1042
516.0,0.1032
517.0,0.09102
518.0,0.09499
519.0,0.09887
520.0,0.1017
521.0,0.1018
522.0,0.101
523.0,0.09844
524.0,0.1011
525.0,0.1013
526.0,0.09595
527.0,0.08955
528.0,0.09381
529.0,0.09805
530.0,0.09585
531.0,0.09648
532.0,0.09244
533.0,0.0891
534.0,0.09112
535.0,0.09252
536.0,0.09279
537.0,0.08855
538.0,0.08949
539.0,0.08815
540.0,0.08392
541.0,0.0838
542.0,0.0857
543.0,0.08415
544.0,0.085
545.0,0.08418
546.0,0.08392
547.0,0.08328
548.0,0.08171
549.0,0.0814
550.0,0.0818
551.0,0.08023
552.0,0.08021
553.0,0.07821
554.0,0.0795
555.0,0.07907
556.0,0.07743
557.0,0.07441
558.0,0.07321
559.0,0.07121
560.0,0.07148
561.0,0.07178
562.0,0.07063
563.0,0.07195
564.0,0.06944
565.0,0.06831
566.0,0.06679
567.0,0.06751
568.0,0.06636
569.0,0.06421
570.0,0.06374
571.0,0.06292
572.0,0.06388
573.0,0.06413
574.0,0.06353
575.0,0.06196
576.0,0.06105
577.0,0.06138
578.0,0.06017
579.0,0.06015
580.0,0.06105
581.0,0.0611
582.0,0.06197
583.0,0.06185
584.0,0.06211
585.0,0.06028
586.0,0.05867
587.0,0.05954
588.0,0.05763
589.0,0.0505
590.0,0.05252
591.0,0.05536
592.0,0.05419
593.0,0.05469
594.0,0.05384
595.0,0.05203
596.0,0.05388
597.0,0.05286
598.0,0.05236
599.0,0.05203
600.0,0.0518
601.0,0.05108
602.0,0.05043
603.0,0.05098
604.0,0.05155
605.0,0.05104
606.0,0.05063
607.0,0.05093
608.0,0.05017
609.0,0.05006
610.0,0.04953
611.0,0.04961
612.0,0.04928
613.0,0.04847
614.0,0.04762
615.0,0.04847
616.0,0.0467
617.0,0.04641
618.0,0.04801
619.0,0.04732
620.0,0.0474
621.0,0.04721
622.0,0.04642
623.0,0.04547
624.0,0.04448
625.0,0.0442
626.0,0.04466
627.0,0.04491
628.0,0.04124
629.0,0.04326
630.0,0.04205
631.0,0.04296
632.0,0.04229
633.0,0.04348
634.0,0.04294
635.0,0.04344
636.0,0.0427
637.0,0.04324
638.0,0.04352
639.0,0.04287
640.0,0.04229
641.0,0.0421
642.0,0.04176
643.0,0.04217
644.0,0.04188
645.0,0.04174
646.0,0.04051
647.0,0.03973
648.0,0.03956
649.0,0.03861
650.0,0.03879
651.0,0.04032
652.0,0.03827
653.0,0.03943
654.0,0.03884
655.0,0.03712
656.0,0.03281
657.0,0.03357
658.0,0.03752
659.0,0.03765
660.0,0.03764
661.0,0.03773
662.0,0.03762
663.0,0.03674
664.0,0.03706
665.0,0.03696
666.0,0.03684
667.0,0.03667
668.0,0.03655
669.0,0.03697
670.0,0.03664
671.0,0.03649
672.0,0.03605
673.0,0.03648
674.0,0.03618
675.0,0.03569
676.0,0.03579
677.0,0.0353
678.0,0.03526
679.0,0.03455
680.0,0.03467
681.0,0.03429
682.0,0.03409
683.0,0.03386
684.0,0.03353
685.0,0.03366
686.0,0.0333
687.0,0.02043
688.0,0.02448
689.0,0.02448
690.0,0.0258
691.0,0.02734
692.0,0.02848
693.0,0.02809
694.0,0.02771
695.0,0.02895
696.0,0.02885
697.0,0.03084
698.0,0.03022
699.0,0.02915
700.0,0.02866
701.0,0.0282
702.0,0.02834
703.0,0.02827
704.0,0.02915
705.0,0.02905
706.0,0.02894
707.0,0.02885
708.0,0.02877
709.0,0.02874
710.0,0.02856
711.0,0.02845
712.0,0.02829
713.0,0.02784
714.0,0.0278
715.0,0.02671
716.0,0.02659
717.0,0.02231
718.0,0.02023
719.0,0.0183
720.0,0.01912
721.0,0.02139
722.0,0.0249
723.0,0.02278
724.0,0.02013
725.0,0.01966
726.0,0.02059
727.0,0.02086
728.0,0.01934
729.0,0.02018
730.0,0.02131
731.0,0.0202
732.0,0.02175
733.0,0.02316
734.0,0.02366
735.0,0.02303
736.0,0.0229
737.0,0.02287
738.0,0.02327
739.0,0.02269
740.0,0.02322
741.0,0.02291
742.0,0.02284
743.0,0.02331
744.0,0.02313
745.0,0.02304
746.0,0.02303
747.0,0.02298
748.0,0.02281
749.0,0.02244
750.0,0.02233
751.0,0.02202
752.0,0.02202
753.0,0.02203
754.0,0.02198
755.0,0.02176
756.0,0.02166
757.0,0.0216
758.0,0.02122
759.0,0.02061
760.0,0.002817
761.0,0.001465
762.0,0.009209
763.0,0.004303
764.0,0.006625
765.0,0.009069
766.0,0.0115
767.0,0.015
768.0,0.01778
769.0,0.0182
770.0,0.01889
771.0,0.01903
772.0,0.01899
773.0,0.01903
774.0,0.01884
775.0,0.01861
776.0,0.01874
777.0,0.0184
778.0,0.01819
779.0,0.01811
780.0,0.01793
781.0,0.01787
782.0,0.01791
783.0,0.01752
784.0,0.01753
785.0,0.01733
786.0,0.01744
787.0,0.017
788.0,0.01669
789.0,0.01659
790.0,0.01599
791.0,0.01614
792.0,0.01596
793.0,0.01562
794.0,0.01591
795.0,0.01608
796.0,0.0154
797.0,0.01535
798.0,0.01584
799.0,0.01565
800.0,0.01527
801.0,0.01513
802.0,0.01501
803.0,0.01482
804.0,0.01478
805.0,0.0147
806.0,0.0151
807.0,0.01483
808.0,0.01478
809.0,0.01439
810.0,0.01417
811.0,0.01407
812.0,0.01352
813.0,0.01312
814.0,0.01123
815.0,0.01111
816.0,0.01019
817.0,0.01036
818.0,0.009893
819.0,0.01124
820.0,0.01045
821.0,0.01252
822.0,0.01204
823.0,0.007646
824.0,0.0115
825.0,0.01207
826.0,0.01146
827.0,0.01217
828.0,0.009967
829.0,0.01126
830.0,0.01104
831.0,0.01105
832.0,0.0106
833.0,0.01142
834.0,0.01087
835.0,0.0121
836.0,0.0114
837.0,0.01203
838.0,0.01155
839.0,0.01175
840.0,0.01197
841.0,0.01173
842.0,0.01173
843.0,0.01171
844.0,0.01148
845.0,0.01184
846.0,0.01174
847.0,0.01148
848.0,0.01134
849.0,0.01096
850.0,0.01046
851.0,0.011
852.0,0.01087
853.0,0.01043
854.0,0.008953
855.0,0.009813
856.0,0.01067
857.0,0.01088
858.0,0.01076
859.0,0.01073
860.0,0.01071
861.0,0.0106
862.0,0.01073
863.0,0.01095
864.0,0.01036
865.0,0.01023
866.0,0.009162
867.0,0.009522
868.0,0.01032
869.0,0.01007
870.0,0.01031
871.0,0.01013
872.0,0.01005
873.0,0.00999
874.0,0.009827
875.0,0.009584
876.0,0.00964
877.0,0.009698
878.0,0.009759
879.0,0.009569
880.0,0.009324
881.0,0.009138
882.0,0.009296
883.0,0.009294
884.0,0.009207
885.0,0.009234
886.0,0.008736
887.0,0.008815
888.0,0.008893
889.0,0.00898
890.0,0.008835
891.0,0.008801
892.0,0.008478
893.0,0.008129
894.0,0.007724
895.0,0.007162
896.0,0.006638
897.0,0.005529
898.0,0.006096
899.0,0.004419
900.0,0.006266
901.0,0.004649
902.0,0.00561
903.0,0.005597
904.0,0.007352
905.0,0.007021
906.0,0.006492
907.0,0.005031
908.0,0.00515
909.0,0.005658
910.0,0.004835
911.0,0.005221
912.0,0.005473
913.0,0.004845
914.0,0.004797
915.0,0.00523
916.0,0.004313
917.0,0.005683
918.0,0.0044
919.0,0.005767
920.0,0.005865
921.0,0.006129
922.0,0.005332
923.0,0.005878
924.0,0.005423
925.0,0.00527
926.0,0.005316
927.0,0.006042
928.0,0.00412
929.0,0.003683
930.0,0.002768
931.0,0.002602
932.0,0.00178
933.0,0.001406
934.0,0.0007208
935.0,0.001441
936.0,0.0008558
937.0,0.0008628
938.0,0.001073
939.0,0.002434
940.0,0.003002
941.0,0.002165
942.0,0.002545
943.0,0.001581
944.0,0.001692
945.0,0.002203
946.0,0.001032
947.0,0.002185
948.0,0.001556
949.0,0.003024
950.0,0.0007224
951.0,0.00296
952.0,0.001456
953.0,0.00194
954.0,0.002458
955.0,0.001961
956.0,0.001915
957.0,0.001429
958.0,0.00283
959.0,0.002142
960.0,0.00242
961.0,0.002774
962.0,0.002598
963.0,0.003066
964.0,0.00276
965.0,0.003031
966.0,0.003016
967.0,0.002982
968.0,0.00428
969.0,0.004459
970.0,0.004018
971.0,0.004739
972.0,0.004469
973.0,0.003742
974.0,0.003513
975.0,0.003666
976.0,0.003412
977.0,0.00401
978.0,0.003737
979.0,0.003946
980.0,0.003651
981.0,0.004534
982.0,0.004267
983.0,0.004048
984.0,0.004678
985.0,0.004203
986.0,0.004759
987.0,0.004611
988.0,0.004584
989.0,0.004711
990.0,0.004523
991.0,0.004677
992.0,0.004691
993.0,0.004534
994.0,0.00466
995.0,0.004643
996.0,0.004599
997.0,0.004592
998.0,0.004552
999.0,0.00452
1000.0,0.004463
1001.0,0.004512
1002.0,0.004334
1003.0,0.004396
1004.0,0.004262
1005.0,0.004103
1006.0,0.00424
1007.0,0.004316
1008.0,0.004271
1009.0,0.004225
1010.0,0.004187
1011.0,0.004231
1012.0,0.004171
1013.0,0.004192
1014.0,0.004147
1015.0,0.004103
1016.0,0.004068
1017.0,0.004061
1018.0,0.004034
1019.0,0.003919
1020.0,0.003979
1021.0,0.003961
1022.0,0.00391
1023.0,0.003936
1024.0,0.003858
1025.0,0.00391
1026.0,0.003874
1027.0,0.003851
1028.0,0.003828
1029.0,0.003768
1030.0,0.003784
1031.0,0.003753
1032.0,0.003729
1033.0,0.003658
1034.0,0.003645
1035.0,0.003642
1036.0,0.003645
1037.0,0.003573
1038.0,0.003575
1039.0,0.00356
1040.0,0.003532
1041.0,0.003531
1042.0,0.003493
1043.0,0.003469
1044.0,0.003468
1045.0,0.003407
1046.0,0.003356
1047.0,0.003372
1048.0,0.003378
1049.0,0.003353
1050.0,0.003325
1051.0,0.003306
1052.0,0.00328
1053.0,0.003241
1054.0,0.003235
1055.0,0.003223
1056.0,0.003198
1057.0,0.003174
1058.0,0.003084
1059.0,0.003075
1060.0,0.003058
1061.0,0.003042
1062.0,0.003044
1063.0,0.003003
1064.0,0.003028
1065.0,0.002991
1066.0,0.002924
1067.0,0.00295
1068.0,0.002872
1069.0,0.002775
1070.0,0.002855
1071.0,0.002899
1072.0,0.002847
1073.0,0.002799
1074.0,0.002872
1075.0,0.002689
1076.0,0.002847
1077.0,0.002769
1078.0,0.0027
1079.0,0.002775
1080.0,0.002693
1081.0,0.002588
1082.0,0.002644
1083.0,0.002648
1084.0,0.002544
1085.0,0.002657
1086.0,0.002365
1087.0,0.002471
1088.0,0.002592
1089.0,0.002477
1090.0,0.002393
1091.0,0.002548
1092.0,0.002538
1093.0,0.002064
1094.0,0.002297
1095.0,0.002149
1096.0,0.002027
1097.0,0.002438
1098.0,0.001975
1099.0,0.002064
1100.0,0.001876
1101.0,0.001905
1102.0,0.001795
1103.0,0.001758
1104.0,0.001756
1105.0,0.001966
1106.0,0.001395
1107.0,0.001832
1108.0,0.001483
1109.0,0.001486
1110.0,0.001788
1111.0,0.001115
1112.0,0.001462
1113.0,0.0008488
1114.0,0.0009565
1115.0,0.0007748
1116.0,0.0005895
1117.0,0.0001936
1118.0,0.0006454
1119.0,0.0002948
1120.0,0.0003729
1121.0,0.0005072
1122.0,0.0001964
1123.0,0.0003319
1124.0,0.0002768
1125.0,0.0003677
1126.0,0.0001162
1127.0,0.0004151
1128.0,0.0002332
1129.0,0.0002481
1130.0,0.0001584
1131.0,0.0008432
1132.0,0.0006397
1133.0,0.0003784
1134.0,8.729e-05
1135.0,3.229e-05
1136.0,0.0003052
1137.0,0.0008043
1138.0,0.0005465
1139.0,0.0008759
1140.0,0.0007037
1141.0,0.0005124
1142.0,0.0005995
1143.0,0.0008907
1144.0,0.000274
1145.0,0.0003495
1146.0,0.0003769
1147.0,0.0001208
1148.0,0.0007455
1149.0,0.0005726
1150.0,0.0002916
1151.0,0.000518
1152.0,0.0006573
1153.0,0.0006453
1154.0,0.0003278
1155.0,0.0008688
1156.0,0.0007646
1157.0,0.0008789
1158.0,0.0008651
1159.0,0.0009484
1160.0,0.0007867
1161.0,0.001011
1162.0,0.001008
1163.0,0.00145
1164.0,0.001202
1165.0,0.001107
1166.0,0.001107
1167.0,0.00122
1168.0,0.001228
1169.0,0.001264
1170.0,0.001393
1171.0,0.001348
1172.0,0.001379
1173.0,0.001376
1174.0,0.000914
1175.0,0.001343
1176.0,0.001504
1177.0,0.001419
1178.0,0.001005
1179.0,0.001502
1180.0,0.001297
1181.0,0.001341
1182.0,0.0008607
1183.0,0.00132
1184.0,0.001209
1185.0,0.00115
1186.0,0.001414
1187.0,0.001326
1188.0,0.0008596
1189.0,0.00122
1190.0,0.001362
1191.0,0.001265
1192.0,0.001376
1193.0,0.001302
1194.0,0.001347
1195.0,0.001253
1196.0,0.001192
1197.0,0.001347
1198.0,0.00121
1199.0,0.0009879
1200.0,0.00126
1201.0,0.001198
1202.0,0.001193
1203.0,0.001182
1204.0,0.001001
1205.0,0.001221
1206.0,0.001374
1207.0,0.001171
1208.0,0.001161
1209.0,0.001182
1210.0,0.001239
1211.0,0.001161
1212.0,0.00113
1213.0,0.001292
1214.0,0.001157
1215.0,0.001128
1216.0,0.001277
1217.0,0.001231
1218.0,0.001257
1219.0,0.001234
1220.0,0.001251
1221.0,0.001264
1222.0,0.001222
1223.0,0.001204
1224.0,0.001187
1225.0,0.001239
1226.0,0.001248
1227.0,0.001128
1228.0,0.00125
1229.0,0.001237
1230.0,0.001208
1231.0,0.00125
1232.0,0.001238
1233.0,0.001177
1234.0,0.00124
1235.0,0.001226
1236.0,0.001233
1237.0,0.001206
1238.0,0.001221
1239.0,0.001201
1240.0,0.001203
1241.0,0.001189
1242.0,0.001186
1243.0,0.001172
1244.0,0.001176
1245.0,0.001178
1246.0,0.001167
1247.0,0.001158
1248.0,0.001152
1249.0,0.001153
1250.0,0.001141
1251.0,0.001121
1252.0,0.00112
1253.0,0.001103
1254.0,0.001085
1255.0,0.001107
1256.0,0.001064
1257.0,0.001053
1258.0,0.001076
1259.0,0.00102
1260.0,0.001024
1261.0,0.0009479
1262.0,0.0009087
1263.0,0.0009073
1264.0,0.0008174
1265.0,0.0008966
1266.0,0.0008497
1267.0,0.0008692
1268.0,0.0008103
1269.0,0.0004453
1270.0,0.000856
1271.0,0.0009204
1272.0,0.0009223
1273.0,0.0009078
1274.0,0.0009101
1275.0,0.0009234
1276.0,0.0009325
1277.0,0.000939
1278.0,0.0009607
1279.0,0.0009484
1280.0,0.0009338
1281.0,0.0008913
1282.0,0.000861
1283.0,0.0009235
1284.0,0.0009415
1285.0,0.0009456
1286.0,0.0009582
1287.0,0.0009352
1288.0,0.0009334
1289.0,0.0008914
1290.0,0.0009199
1291.0,0.0009315
1292.0,0.0008543
1293.0,0.0009029
1294.0,0.0008927
1295.0,0.0008814
1296.0,0.0008276
1297.0,0.0007713
1298.0,0.0008453
1299.0,0.0008888
1300.0,0.0007186
1301.0,0.0007446
1302.0,0.0008333
1303.0,0.0007045
1304.0,0.000575
1305.0,0.0008053
1306.0,0.0008018
1307.0,0.0005875
1308.0,0.0006965
1309.0,0.0007858
1310.0,0.000569
1311.0,0.0006557
1312.0,0.0006343
1313.0,0.0006149
1314.0,0.0005362
1315.0,0.0005265
1316.0,0.0006331
1317.0,0.0005915
1318.0,0.0006536
1319.0,0.0004801
1320.0,0.0004644
1321.0,0.0005545
1322.0,0.0005565
1323.0,0.0003942
1324.0,0.0004633
1325.0,0.0006045
1326.0,0.000501
1327.0,0.0004719
1328.0,0.0003958
1329.0,0.000281
1330.0,0.0003777
1331.0,0.0002101
1332.0,0.0002189
1333.0,0.0003136
1334.0,0.0002652
1335.0,0.0003783
1336.0,0.0002868
1337.0,0.0002488
1338.0,0.0002701
1339.0,0.0002692
1340.0,0.0002621
1341.0,0.0002499
1342.0,0.0002634
1343.0,0.0001659
1344.0,9.678e-05
1345.0,0.0001417
1346.0,6.566e-05
1347.0,6.624e-05
1348.0,4.064e-06
1349.0,1.47e-05
1350.0,1.527e-05
1351.0,3.644e-06
1352.0,9.77e-07
1353.0,4.969e-08
1354.0,1.708e-07
1355.0,1.375e-09
1356.0,2.406e-08
1357.0,3.656e-08
1358.0,1.614e-09
