interpolation:linear
wavelength,value
280.0,8.093999999999999e-23
280.5,2.705e-21
281.0,1.46e-20
281.5,4.718e-19
282.0,5.191e-19
282.5,1.245e-18
283.0,3.887e-18
283.5,6.322e-18
284.0,1.041e-16
284.5,3.05e-16
285.0,5.923e-16
285.5,2.775e-15
286.0,1.108e-14
286.5,4.92e-14
287.0,1.407e-13
287.5,5.415e-13
288.0,1.876e-12
288.5,5.425e-12
289.0,1.409e-11
289.5,4.189e-11
290.0,1.156e-10
290.5,2.353e-10
291.0,5.049e-10
291.5,1.451e-09
292.0,2.95e-09
292.5,4.114e-09
293.0,8.758e-09
293.5,2.113e-08
294.0,3.295e-08
294.5,4.259e-08
295.0,7.178e-08
295.5,1.219e-07
296.0,2.311e-07
296.5,3.169e-07
297.0,4.214e-07
297.5,1.099e-06
298.0,1.686e-06
298.5,1.658e-06
299.0,3.569e-06
299.5,5.661e-06
300.0,6.053e-06
300.5,8.501e-06
301.0,1.458e-05
301.5,2.203e-05
302.0,1.83e-05
302.5,3.531e-05
303.0,6.281e-05
303.5,7.93e-05
304.0,7.625e-05
304.5,0.0001213
305.0,0.0002024
305.5,0.0002468
306.0,0.0002447
306.5,0.0003176
307.0,0.0005182
307.5,0.0007568
308.0,0.000811
308.5,0.001004
309.0,0.001185
309.5,0.00161
310.0,0.00175
310.5,0.002945
311.0,0.00394
311.5,0.003908
312.0,0.00449
312.5,0.005989
313.0,0.006812
313.5,0.006314
314.0,0.008815
314.5,0.009054
315.0,0.0122
315.5,0.009483
316.0,0.00933
316.5,0.01485
317.0,0.01838
317.5,0.01854
318.0,0.01551
318.5,0.02205
319.0,0.02801
319.5,0.02039
320.0,0.02419
320.5,0.0348
321.0,0.03515
321.5,0.03408
322.0,0.03163
322.5,0.02767
323.0,0.03008
323.5,0.04116
324.0,0.04871
324.5,0.0475
325.0,0.03822
325.5,0.05279
326.0,0.06755
326.5,0.07099
327.0,0.06936
327.5,0.06534
328.0,0.05437
328.5,0.06182
329.0,0.07879
329.5,0.09109
330.0,0.0903
330.5,0.06866
331.0,0.06869
331.5,0.07231
332.0,0.0823
332.5,0.08332
333.0,0.08178
333.5,0.07102
334.0,0.07217
334.5,0.08699
335.0,0.08382
335.5,0.09901
336.0,0.06842
336.5,0.07793
337.0,0.06262
337.5,0.07722
338.0,0.07817
338.5,0.09166
339.0,0.09072
339.5,0.08706
340.0,0.1005
340.5,0.09084
341.0,0.08961
341.5,0.08241
342.0,0.09843
342.5,0.09205
343.0,0.1009
343.5,0.09471
344.0,0.06902
344.5,0.07035
345.0,0.09324
345.5,0.0952
346.0,0.08089
346.5,0.09152
347.0,0.0979
347.5,0.07899
348.0,0.09011
348.5,0.09007
349.0,0.08348
349.5,0.0825
350.0,0.1019
350.5,0.1073
351.0,0.09558
351.5,0.09248
352.0,0.09933
352.5,0.07751
353.0,0.09757
353.5,0.1042
354.0,0.1081
354.5,0.1094
355.0,0.1088
355.5,0.09819
356.0,0.1026
356.5,0.08747
357.0,0.07214
357.5,0.08818
358.0,0.06978
358.5,0.05954
359.0,0.0831
359.5,0.1056
360.0,0.1118
360.5,0.08924
361.0,0.08124
361.5,0.09341
362.0,0.08066
362.5,0.1114
363.0,0.09993
363.5,0.09188
364.0,0.1122
364.5,0.0957
365.0,0.09729
365.5,0.1219
366.0,0.1289
366.5,0.1209
367.0,0.1176
367.5,0.1218
368.0,0.1064
368.5,0.1071
369.0,0.1155
369.5,0.1229
370.0,0.1307
370.5,0.1013
371.0,0.108
371.5,0.1349
372.0,0.08937
372.5,0.107
373.0,0.1086
373.5,0.07052
374.0,0.1023
374.5,0.08454
375.0,0.08203
375.5,0.1222
376.0,0.1011
376.5,0.1046
377.0,0.1105
377.5,0.1291
378.0,0.1396
378.5,0.1317
379.0,0.1084
379.5,0.09885
380.0,0.1026
380.5,0.124
381.0,0.124
381.5,0.09807
382.0,0.08691
382.5,0.07394
383.0,0.06831
383.5,0.06566
384.0,0.07228
384.5,0.1061
385.0,0.105
385.5,0.09758
386.0,0.0834
386.5,0.1093
387.0,0.09065
387.5,0.1016
388.0,0.0936
388.5,0.09232
389.0,0.09944
389.5,0.1202
390.0,0.1204
390.5,0.1105
391.0,0.1298
391.5,0.1321
392.0,0.111
392.5,0.09918
393.0,0.05507
393.5,0.03994
394.0,0.0811
394.5,0.1029
395.0,0.1253
395.5,0.127
396.0,0.1098
396.5,0.06407
397.0,0.04797
397.5,0.09734
398.0,0.136
398.5,0.1403
399.0,0.1516
399.5,0.1507
400.0,0.1561
401.0,0.1536
402.0,0.1613
403.0,0.1525
404.0,0.1494
405.0,0.1487
406.0,0.1456
407.0,0.1425
408.0,0.1473
409.0,0.1569
410.0,0.1364
411.0,0.147
412.0,0.1572
413.0,0.1526
414.0,0.1537
415.0,0.1533
416.0,0.1551
417.0,0.1505
418.0,0.1469
419.0,0.1481
420.0,0.1467
421.0,0.1526
422.0,0.1442
423.0,0.1401
424.0,0.1473
425.0,0.1462
426.0,0.1416
427.0,0.1383
428.0,0.1341
429.0,0.1264
430.0,0.11
431.0,0.1084
432.0,0.1391
433.0,0.139
434.0,0.1284
435.0,0.1334
436.0,0.1495
437.0,0.1467
438.0,0.1328
439.0,0.1364
440.0,0.1399
441.0,0.1439
442.0,0.1534
443.0,0.1485
444.0,0.151
445.0,0.147
446.0,0.1397
447.0,0.1502
448.0,0.1516
449.0,0.1512
450.0,0.1543
451.0,0.1591
452.0,0.1524
453.0,0.1426
454.0,0.1481
455.0,0.148
456.0,0.1504
457.0,0.1518
458.0,0.1454
459.0,0.1435
460.0,0.1428
461.0,0.145
462.0,0.1453
463.0,0.1437
464.0,0.1408
465.0,0.1384
466.0,0.1391
467.0,0.1356
468.0,0.1362
469.0,0.1358
470.0,0.1306
471.0,0.1297
472.0,0.1359
473.0,0.1334
474.0,0.1327
475.0,0.1328
476.0,0.1277
477.0,0.1269
478.0,0.1292
479.0,0.1272
480.0,0.1263
481.0,0.1275
482.0,0.1273
483.0,0.125
484.0,0.1219
485.0,0.1157
486.0,0.1008
487.0,0.1051
488.0,0.1146
489.0,0.1141
490.0,0.1192
491.0,0.1163
492.0,0.1091
493.0,0.1119
494.0,0.1124
495.0,0.1126
496.0,0.1125
497.0,0.1133
498.0,0.107
499.0,0.1073
500.0,0.1031
501.0,0.1002
502.0,0.0976
503.0,0.1005
504.0,0.09683
505.0,0.09959
506.0,0.1021
507.0,0.09662
508.0,0.09318
509.0,0.09537
510.0,0.09441
511.0,0.09639
512.0,0.09677
513.0,0.0909
514.0,0.08956
515.0,0.08797
516.0,0.08708
517.0,0.0768
518.0,0.08015
519.0,0.08344
520.0,0.08577
521.0,0.08585
522.0,0.08516
523.0,0.08295
524.0,0.08508
525.0,0.08521
526.0,0.0806
527.0,0.07513
528.0,0.07863
529.0,0.0821
530.0,0.08019
531.0,0.08065
532.0,0.07725
533.0,0.07444
534.0,0.07615
535.0,0.07736
536.0,0.07762
537.0,0.07411
538.0,0.07492
539.0,0.07378
540.0,0.07022
541.0,0.07008
542.0,0.07164
543.0,0.07032
544.0,0.07098
545.0,0.07027
546.0,0.07002
547.0,0.06949
548.0,0.06818
549.0,0.06793
550.0,0.06826
551.0,0.06694
552.0,0.06692
553.0,0.06524
554.0,0.06629
555.0,0.06591
556.0,0.06452
557.0,0.06197
558.0,0.06092
559.0,0.05919
560.0,0.05936
561.0,0.05956
562.0,0.05854
563.0,0.05957
564.0,0.05746
565.0,0.05648
566.0,0.0552
567.0,0.05576
568.0,0.05477
569.0,0.05294
570.0,0.05253
571.0,0.05184
572.0,0.0526
573.0,0.05279
574.0,0.05229
575.0,0.051
576.0,0.05027
577.0,0.05059
578.0,0.04963
579.0,0.04967
580.0,0.05048
581.0,0.05058
582.0,0.05136
583.0,0.0513
584.0,0.05155
585.0,0.05005
586.0,0.04874
587.0,0.04948
588.0,0.04786
589.0,0.04187
590.0,0.04354
591.0,0.04593
592.0,0.04492
593.0,0.04533
594.0,0.04458
595.0,0.04301
596.0,0.04457
597.0,0.04366
598.0,0.04324
599.0,0.04295
600.0,0.04274
601.0,0.04215
602.0,0.04162
603.0,0.04209
604.0,0.04259
605.0,0.0422
606.0,0.0419
607.0,0.04221
608.0,0.04163
609.0,0.0416
610.0,0.04121
611.0,0.04133
612.0,0.04111
613.0,0.04049
614.0,0.03983
615.0,0.0406
616.0,0.03915
617.0,0.03896
618.0,0.04033
619.0,0.03979
620.0,0.03989
621.0,0.03975
622.0,0.03911
623.0,0.03834
624.0,0.03753
625.0,0.03731
626.0,0.03772
627.0,0.03794
628.0,0.03471
629.0,0.03654
630.0,0.03554
631.0,0.0364
632.0,0.03588
633.0,0.03693
634.0,0.03652
635.0,0.03699
636.0,0.03641
637.0,0.03691
638.0,0.03719
639.0,0.03668
640.0,0.03623
641.0,0.0361
642.0,0.03585
643.0,0.03622
644.0,0.03601
645.0,0.03591
646.0,0.03486
647.0,0.03416
648.0,0.03406
649.0,0.03325
650.0,0.03349
651.0,0.03483
652.0,0.03304
653.0,0.03412
654.0,0.03362
655.0,0.03213
656.0,0.02844
657.0,0.02911
658.0,0.03258
659.0,0.03272
660.0,0.03274
661.0,0.03284
662.0,0.03275
663.0,0.032
664.0,0.03231
665.0,0.03226
666.0,0.03218
667.0,0.03207
668.0,0.03199
669.0,0.03238
670.0,0.03211
671.0,0.032
672.0,0.03164
673.0,0.03203
674.0,0.03179
675.0,0.03138
676.0,0.03149
677.0,0.03107
678.0,0.03105
679.0,0.03044
680.0,0.03057
681.0,0.03024
682.0,0.03007
683.0,0.02988
684.0,0.0296
685.0,0.02973
686.0,0.02942
687.0,0.01771
688.0,0.02129
689.0,0.0213
690.0,0.02252
691.0,0.02395
692.0,0.02504
693.0,0.02471
694.0,0.02443
695.0,0.0256
696.0,0.02554
697.0,0.02735
698.0,0.02681
699.0,0.02584
700.0,0.02541
701.0,0.02497
702.0,0.02513
703.0,0.02508
704.0,0.0259
705.0,0.02582
706.0,0.02573
707.0,0.02566
708.0,0.02559
709.0,0.0256
710.0,0.02543
711.0,0.02534
712.0,0.02521
713.0,0.0248
714.0,0.02478
715.0,0.02379
716.0,0.02368
717.0,0.01974
718.0,0.01794
719.0,0.01625
720.0,0.01695
721.0,0.01901
722.0,0.02218
723.0,0.02028
724.0,0.0179
725.0,0.01748
726.0,0.01829
727.0,0.01858
728.0,0.0172
729.0,0.01798
730.0,0.01895
731.0,0.01798
732.0,0.01941
733.0,0.02069
734.0,0.02116
735.0,0.02059
736.0,0.02046
737.0,0.02044
738.0,0.02085
739.0,0.02034
740.0,0.02083
741.0,0.02055
742.0,0.02051
743.0,0.02093
744.0,0.02078
745.0,0.0207
746.0,0.02069
747.0,0.02064
748.0,0.0205
749.0,0.02017
750.0,0.02008
751.0,0.0198
752.0,0.01982
753.0,0.01984
754.0,0.0198
755.0,0.0196
756.0,0.01952
757.0,0.01946
758.0,0.01913
759.0,0.01854
760.0,0.00261
761.0,0.001383
762.0,0.00814
763.0,0.00392
764.0,0.005924
765.0,0.008021
766.0,0.01014
767.0,0.01329
768.0,0.0159
769.0,0.01633
770.0,0.01701
771.0,0.01716
772.0,0.01714
773.0,0.01717
774.0,0.017
775.0,0.01678
776.0,0.0169
777.0,0.01659
778.0,0.0164
779.0,0.01633
780.0,0.01617
781.0,0.01611
782.0,0.01615
783.0,0.01581
784.0,0.01583
785.0,0.01565
786.0,0.01575
787.0,0.01534
788.0,0.01505
789.0,0.01497
790.0,0.0144
791.0,0.01457
792.0,0.01441
793.0,0.01411
794.0,0.0144
795.0,0.01455
796.0,0.01389
797.0,0.01384
798.0,0.01433
799.0,0.01415
800.0,0.0138
801.0,0.01366
802.0,0.01355
803.0,0.01337
804.0,0.01334
805.0,0.01328
806.0,0.01366
807.0,0.01341
808.0,0.01336
809.0,0.01299
810.0,0.01278
811.0,0.01269
812.0,0.01215
813.0,0.0118
814.0,0.01007
815.0,0.009975
816.0,0.00916
817.0,0.009304
818.0,0.008875
819.0,0.01009
820.0,0.009387
821.0,0.01128
822.0,0.01085
823.0,0.006879
824.0,0.01035
825.0,0.0109
826.0,0.01034
827.0,0.01099
828.0,0.00897
829.0,0.01017
830.0,0.009979
831.0,0.009977
832.0,0.009569
833.0,0.01031
834.0,0.009815
835.0,0.01096
836.0,0.01029
837.0,0.0109
838.0,0.01044
839.0,0.01064
840.0,0.01084
841.0,0.01061
842.0,0.01063
843.0,0.01063
844.0,0.0104
845.0,0.01074
846.0,0.01065
847.0,0.01042
848.0,0.01028
849.0,0.009941
850.0,0.009479
851.0,0.009959
852.0,0.009849
853.0,0.009451
854.0,0.008109
855.0,0.008895
856.0,0.009674
857.0,0.009868
858.0,0.009753
859.0,0.009732
860.0,0.009716
861.0,0.009624
862.0,0.009746
863.0,0.009942
864.0,0.009411
865.0,0.009294
866.0,0.008325
867.0,0.008654
868.0,0.00938
869.0,0.00915
870.0,0.009374
871.0,0.009208
872.0,0.009139
873.0,0.009084
874.0,0.008936
875.0,0.008716
876.0,0.008767
877.0,0.008819
878.0,0.008873
879.0,0.0087
880.0,0.008478
881.0,0.008305
882.0,0.008446
883.0,0.008447
884.0,0.008367
885.0,0.008391
886.0,0.007928
887.0,0.008007
888.0,0.008075
889.0,0.00816
890.0,0.008019
891.0,0.007993
892.0,0.007687
893.0,0.007366
894.0,0.006977
895.0,0.006448
896.0,0.005984
897.0,0.00498
898.0,0.005484
899.0,0.003987
900.0,0.005646
901.0,0.004181
902.0,0.005048
903.0,0.005029
904.0,0.006638
905.0,0.006339
906.0,0.00586
907.0,0.004526
908.0,0.004641
909.0,0.005094
910.0,0.004349
911.0,0.004714
912.0,0.004925
913.0,0.004357
914.0,0.004321
915.0,0.004688
916.0,0.003889
917.0,0.005104
918.0,0.003959
919.0,0.00519
920.0,0.005306
921.0,0.005525
922.0,0.004804
923.0,0.005303
924.0,0.00487
925.0,0.004739
926.0,0.004769
927.0,0.005422
928.0,0.003687
929.0,0.003296
930.0,0.002485
931.0,0.002336
932.0,0.001611
933.0,0.001281
934.0,0.0006714
935.0,0.001311
936.0,0.0007907
937.0,0.0007975
938.0,0.0009853
939.0,0.002184
940.0,0.002683
941.0,0.001944
942.0,0.002275
943.0,0.001432
944.0,0.001534
945.0,0.001979
946.0,0.0009464
947.0,0.001962
948.0,0.001414
949.0,0.002695
950.0,0.0006704
951.0,0.002637
952.0,0.001323
953.0,0.001749
954.0,0.002201
955.0,0.001765
956.0,0.001743
957.0,0.001299
958.0,0.002545
959.0,0.001931
960.0,0.002172
961.0,0.00249
962.0,0.002337
963.0,0.002755
964.0,0.002485
965.0,0.002719
966.0,0.002708
967.0,0.002675
968.0,0.003866
969.0,0.004005
970.0,0.003618
971.0,0.00428
972.0,0.004033
973.0,0.003362
974.0,0.003162
975.0,0.003301
976.0,0.00306
977.0,0.003622
978.0,0.003364
979.0,0.003551
980.0,0.003292
981.0,0.004095
982.0,0.003848
983.0,0.003649
984.0,0.004237
985.0,0.003787
986.0,0.00432
987.0,0.00418
988.0,0.004156
989.0,0.004282
990.0,0.004098
991.0,0.004247
992.0,0.004261
993.0,0.004113
994.0,0.004236
995.0,0.004223
996.0,0.004182
997.0,0.004177
998.0,0.004139
999.0,0.004112
1000.0,0.004057
1001.0,0.004104
1002.0,0.003931
1003.0,0.003999
1004.0,0.003873
1005.0,0.003734
1006.0,0.003856
1007.0,0.003927
1008.0,0.003883
1009.0,0.003839
1010.0,0.003804
1011.0,0.00385
1012.0,0.003793
1013.0,0.003814
1014.0,0.003773
1015.0,0.003733
1016.0,0.003701
1017.0,0.003694
1018.0,0.003671
1019.0,0.003562
1020.0,0.003621
1021.0,0.003605
1022.0,0.003557
1023.0,0.003581
1024.0,0.003505
1025.0,0.003558
1026.0,0.003525
1027.0,0.003504
1028.0,0.003482
1029.0,0.003427
1030.0,0.003444
1031.0,0.003414
1032.0,0.003393
1033.0,0.003329
1034.0,0.003317
1035.0,0.003314
1036.0,0.003317
1037.0,0.003251
1038.0,0.003253
1039.0,0.003239
1040.0,0.003213
1041.0,0.003212
1042.0,0.003177
1043.0,0.003155
1044.0,0.003154
1045.0,0.003098
1046.0,0.003051
1047.0,0.003066
1048.0,0.003071
1049.0,0.003048
1050.0,0.003021
1051.0,0.003004
1052.0,0.002979
1053.0,0.002944
1054.0,0.002938
1055.0,0.002926
1056.0,0.002903
1057.0,0.002881
1058.0,0.002798
1059.0,0.002789
1060.0,0.002773
1061.0,0.002759
1062.0,0.00276
1063.0,0.002722
1064.0,0.002745
1065.0,0.00271
1066.0,0.002651
1067.0,0.002674
1068.0,0.002602
1069.0,0.002515
1070.0,0.002587
1071.0,0.00263
1072.0,0.002581
1073.0,0.002537
1074.0,0.002607
1075.0,0.002435
1076.0,0.002584
1077.0,0.00251
1078.0,0.002445
1079.0,0.002521
1080.0,0.002442
1081.0,0.002342
1082.0,0.002399
1083.0,0.002405
1084.0,0.002302
1085.0,0.002409
1086.0,0.00214
1087.0,0.002237
1088.0,0.002353
1089.0,0.002241
1090.0,0.002165
1091.0,0.002311
1092.0,0.002303
1093.0,0.001862
1094.0,0.002082
1095.0,0.001935
1096.0,0.001824
1097.0,0.002212
1098.0,0.001774
1099.0,0.001854
1100.0,0.001686
1101.0,0.001712
1102.0,0.001611
1103.0,0.001576
1104.0,0.001575
1105.0,0.001766
1106.0,0.001247
1107.0,0.001645
1108.0,0.001328
1109.0,0.001331
1110.0,0.001601
1111.0,0.000999
1112.0,0.00131
1113.0,0.0007643
1114.0,0.0008571
1115.0,0.0006977
1116.0,0.000534
1117.0,0.0001819
1118.0,0.000582
1119.0,0.0002724
1120.0,0.000342
1121.0,0.0004597
1122.0,0.0001839
1123.0,0.0003054
1124.0,0.000256
1125.0,0.0003369
1126.0,0.0001104
1127.0,0.0003788
1128.0,0.0002173
1129.0,0.0002305
1130.0,0.0001493
1131.0,0.0007504
1132.0,0.0005746
1133.0,0.000346
1134.0,8.338e-05
1135.0,3.119e-05
1136.0,0.0002814
1137.0,0.000716
1138.0,0.0004927
1139.0,0.0007817
1140.0,0.0006303
1141.0,0.000463
1142.0,0.0005389
1143.0,0.0007922
1144.0,0.0002528
1145.0,0.0003198
1146.0,0.000344
1147.0,0.0001146
1148.0,0.0006656
1149.0,0.0005153
1150.0,0.0002689
1151.0,0.0004673
1152.0,0.0005885
1153.0,0.0005796
1154.0,0.000301
1155.0,0.0007737
1156.0,0.0006825
1157.0,0.0007864
1158.0,0.0007742
1159.0,0.0008455
1160.0,0.0007073
1161.0,0.0009064
1162.0,0.0009032
1163.0,0.001301
1164.0,0.001078
1165.0,0.0009913
1166.0,0.0009955
1167.0,0.001097
1168.0,0.001103
1169.0,0.001134
1170.0,0.001253
1171.0,0.001214
1172.0,0.001246
1173.0,0.001238
1174.0,0.0008235
1175.0,0.001213
1176.0,0.001364
1177.0,0.001282
1178.0,0.0009086
1179.0,0.001361
1180.0,0.001171
1181.0,0.001209
1182.0,0.0007767
1183.0,0.001191
1184.0,0.001091
1185.0,0.001035
1186.0,0.001278
1187.0,0.001196
1188.0,0.000772
1189.0,0.001101
1190.0,0.001233
1191.0,0.001138
1192.0,0.001246
1193.0,0.001177
1194.0,0.001219
1195.0,0.00113
1196.0,0.001073
1197.0,0.001219
1198.0,0.001097
1199.0,0.0008892
1200.0,0.001139
1201.0,0.00108
1202.0,0.00108
1203.0,0.001065
1204.0,0.0009033
1205.0,0.001106
1206.0,0.001247
1207.0,0.001058
1208.0,0.001051
1209.0,0.00107
1210.0,0.001123
1211.0,0.00105
1212.0,0.001015
1213.0,0.001169
1214.0,0.001041
1215.0,0.001015
1216.0,0.001156
1217.0,0.001114
1218.0,0.001139
1219.0,0.001116
1220.0,0.001133
1221.0,0.001147
1222.0,0.001108
1223.0,0.001091
1224.0,0.001073
1225.0,0.001123
1226.0,0.001133
1227.0,0.001019
1228.0,0.001136
1229.0,0.001123
1230.0,0.001096
1231.0,0.001137
1232.0,0.001126
1233.0,0.001066
1234.0,0.001129
1235.0,0.001116
1236.0,0.001122
1237.0,0.001097
1238.0,0.001112
1239.0,0.001094
1240.0,0.001095
1241.0,0.001082
1242.0,0.00108
1243.0,0.001068
1244.0,0.00107
1245.0,0.001072
1246.0,0.001063
1247.0,0.001054
1248.0,0.001048
1249.0,0.00105
1250.0,0.001038
1251.0,0.001019
1252.0,0.00102
1253.0,0.001002
1254.0,0.0009836
1255.0,0.001007
1256.0,0.000964
1257.0,0.0009533
1258.0,0.0009773
1259.0,0.0009215
1260.0,0.0009256
1261.0,0.0008508
1262.0,0.000813
1263.0,0.0008116
1264.0,0.0007265
1265.0,0.000802
1266.0,0.000757
1267.0,0.0007765
1268.0,0.0007208
1269.0,0.0003932
1270.0,0.0007636
1271.0,0.0008265
1272.0,0.0008284
1273.0,0.0008149
1274.0,0.0008179
1275.0,0.0008307
1276.0,0.00084
1277.0,0.0008478
1278.0,0.0008693
1279.0,0.0008586
1280.0,0.0008453
1281.0,0.0008079
1282.0,0.0007824
1283.0,0.0008387
1284.0,0.0008549
1285.0,0.0008589
1286.0,0.0008713
1287.0,0.0008487
1288.0,0.0008478
1289.0,0.0008061
1290.0,0.0008356
1291.0,0.0008468
1292.0,0.0007712
1293.0,0.0008198
1294.0,0.0008104
1295.0,0.0007974
1296.0,0.0007461
1297.0,0.0006942
1298.0,0.0007646
1299.0,0.0008074
1300.0,0.0006478
1301.0,0.0006712
1302.0,0.0007541
1303.0,0.0006353
1304.0,0.0005156
1305.0,0.0007289
1306.0,0.0007241
1307.0,0.0005284
1308.0,0.0006293
1309.0,0.0007079
1310.0,0.0005111
1311.0,0.0005915
1312.0,0.000572
1313.0,0.0005525
1314.0,0.0004814
1315.0,0.0004716
1316.0,0.00057
1317.0,0.0005323
1318.0,0.0005893
1319.0,0.0004305
1320.0,0.0004175
1321.0,0.0004983
1322.0,0.0004985
1323.0,0.0003528
1324.0,0.0004161
1325.0,0.0005429
1326.0,0.0004497
1327.0,0.0004232
1328.0,0.0003551
1329.0,0.0002523
1330.0,0.0003376
1331.0,0.0001901
1332.0,0.0001977
1333.0,0.0002798
1334.0,0.00024
1335.0,0.0003376
1336.0,0.0002571
1337.0,0.0002246
1338.0,0.0002427
1339.0,0.0002418
1340.0,0.0002363
1341.0,0.0002242
1342.0,0.0002362
1343.0,0.0001512
1344.0,8.968e-05
1345.0,0.0001294
1346.0,6.188e-05
1347.0,6.253e-05
1348.0,3.99e-06
1349.0,1.432e-05
1350.0,1.485e-05
1351.0,3.585e-06
1352.0,9.643e-07
