interpolation:linear
wavelength,value
280.0,5.344e-23
280.5,1.796e-21
281.0,9.726e-21
281.5,3.16e-19
282.0,4.982e-19
282.5,1.163e-18
283.0,3.591e-18
283.5,5.83e-18
284.0,9.547e-17
284.5,2.801e-16
285.0,6.804e-16
285.5,2.917e-15
286.0,1.146e-14
286.5,4.984e-14
287.0,1.412e-13
287.5,5.394e-13
288.0,1.752e-12
288.5,5.003e-12
289.0,1.291e-11
289.5,3.829e-11
290.0,1.056e-10
290.5,2.152e-10
291.0,4.623e-10
291.5,1.331e-09
292.0,2.726e-09
292.5,3.792e-09
293.0,8.053e-09
293.5,1.936e-08
294.0,3.018e-08
294.5,3.736e-08
295.0,6.283e-08
295.5,1.066e-07
296.0,2e-07
296.5,2.716e-07
297.0,3.58e-07
297.5,9.207e-07
298.0,1.395e-06
298.5,1.358e-06
299.0,2.896e-06
299.5,4.513e-06
300.0,4.777e-06
300.5,6.64e-06
301.0,1.12e-05
301.5,1.668e-05
302.0,1.375e-05
302.5,2.633e-05
303.0,4.594e-05
303.5,5.731e-05
304.0,5.473e-05
304.5,8.566e-05
305.0,0.0001399
305.5,0.0001685
306.0,0.0001663
306.5,0.0002143
307.0,0.0003445
307.5,0.0004966
308.0,0.0005312
308.5,0.0006537
309.0,0.0007311
309.5,0.001017
310.0,0.001118
310.5,0.001892
311.0,0.002556
311.5,0.002546
312.0,0.002988
312.5,0.004044
313.0,0.004637
313.5,0.004269
314.0,0.006067
314.5,0.006384
315.0,0.008641
315.5,0.006641
316.0,0.006665
316.5,0.01079
317.0,0.01336
317.5,0.01341
318.0,0.01136
318.5,0.01653
319.0,0.02124
319.5,0.01518
320.0,0.01797
320.5,0.02646
321.0,0.02732
321.5,0.02655
322.0,0.02409
322.5,0.02111
323.0,0.0233
323.5,0.03323
324.0,0.03949
324.5,0.03815
325.0,0.02972
325.5,0.04156
326.0,0.05497
326.5,0.05844
327.0,0.05688
327.5,0.05331
328.0,0.04366
328.5,0.05062
329.0,0.06545
329.5,0.07599
330.0,0.07511
330.5,0.05653
331.0,0.05635
331.5,0.05982
332.0,0.06887
332.5,0.07007
333.0,0.06861
333.5,0.05912
334.0,0.06002
334.5,0.07303
335.0,0.07075
335.5,0.08389
336.0,0.05798
336.5,0.06567
337.0,0.05259
337.5,0.06478
338.0,0.06608
338.5,0.07787
339.0,0.07717
339.5,0.07403
340.0,0.08514
340.5,0.077
341.0,0.07631
341.5,0.07031
342.0,0.08404
342.5,0.07865
343.0,0.08612
343.5,0.08084
344.0,0.05866
344.5,0.06001
345.0,0.07971
345.5,0.08148
346.0,0.06928
346.5,0.07844
347.0,0.08388
347.5,0.06768
348.0,0.07731
348.5,0.07734
349.0,0.07172
349.5,0.0709
350.0,0.08761
350.5,0.09228
351.0,0.08219
351.5,0.07945
352.0,0.08544
352.5,0.06673
353.0,0.08406
353.5,0.08986
354.0,0.09323
354.5,0.09442
355.0,0.09391
355.5,0.08478
356.0,0.08863
356.5,0.07558
357.0,0.06235
357.5,0.07625
358.0,0.06037
358.5,0.05153
359.0,0.07194
359.5,0.09142
360.0,0.09682
360.5,0.07733
361.0,0.07043
361.5,0.08102
362.0,0.06998
362.5,0.09673
363.0,0.08677
363.5,0.07981
364.0,0.09747
364.5,0.08318
365.0,0.08459
365.5,0.106
366.0,0.1122
366.5,0.1053
367.0,0.1024
367.5,0.1061
368.0,0.09269
368.5,0.09338
369.0,0.1007
369.5,0.1072
370.0,0.1141
370.5,0.08843
371.0,0.09435
371.5,0.1179
372.0,0.07811
372.5,0.09351
373.0,0.09497
373.5,0.0617
374.0,0.08951
374.5,0.07402
375.0,0.07184
375.5,0.1071
376.0,0.08863
376.5,0.0917
377.0,0.09694
377.5,0.1132
378.0,0.1225
378.5,0.1156
379.0,0.09525
379.5,0.08686
380.0,0.09015
380.5,0.109
381.0,0.1091
381.5,0.0863
382.0,0.07651
382.5,0.06511
383.0,0.06018
383.5,0.05787
384.0,0.06372
384.5,0.09357
385.0,0.09263
385.5,0.08612
386.0,0.07363
386.5,0.09655
387.0,0.08009
387.5,0.08979
388.0,0.08275
388.5,0.08166
389.0,0.08798
389.5,0.1064
390.0,0.1066
390.5,0.09789
391.0,0.115
391.5,0.1171
392.0,0.09844
392.5,0.08797
393.0,0.04886
393.5,0.03545
394.0,0.07201
394.5,0.09138
395.0,0.1113
395.5,0.1128
396.0,0.09765
396.5,0.05698
397.0,0.04268
397.5,0.08664
398.0,0.1211
398.5,0.1249
399.0,0.135
399.5,0.1343
400.0,0.1392
401.0,0.137
402.0,0.144
403.0,0.1362
404.0,0.1336
405.0,0.133
406.0,0.1303
407.0,0.1276
408.0,0.132
409.0,0.1406
410.0,0.1224
411.0,0.132
412.0,0.1412
413.0,0.1371
414.0,0.1382
415.0,0.1379
416.0,0.1397
417.0,0.1356
418.0,0.1325
419.0,0.1336
420.0,0.1324
421.0,0.1379
422.0,0.1304
423.0,0.1266
424.0,0.1332
425.0,0.1323
426.0,0.1283
427.0,0.1253
428.0,0.1216
429.0,0.1147
430.0,0.09986
431.0,0.09844
432.0,0.1264
433.0,0.1264
434.0,0.1168
435.0,0.1214
436.0,0.1362
437.0,0.1337
438.0,0.121
439.0,0.1244
440.0,0.1276
441.0,0.1313
442.0,0.14
443.0,0.1356
444.0,0.138
445.0,0.1344
446.0,0.1278
447.0,0.1375
448.0,0.1388
449.0,0.1385
450.0,0.1415
451.0,0.1459
452.0,0.1398
453.0,0.1309
454.0,0.136
455.0,0.1359
456.0,0.1383
457.0,0.1395
458.0,0.1337
459.0,0.132
460.0,0.1313
461.0,0.1334
462.0,0.1337
463.0,0.1323
464.0,0.1297
465.0,0.1276
466.0,0.1283
467.0,0.1252
468.0,0.1257
469.0,0.1254
470.0,0.1207
471.0,0.1199
472.0,0.1256
473.0,0.1233
474.0,0.1227
475.0,0.1229
476.0,0.1181
477.0,0.1174
478.0,0.1196
479.0,0.1177
480.0,0.1169
481.0,0.118
482.0,0.1178
483.0,0.1158
484.0,0.113
485.0,0.1073
486.0,0.0935
487.0,0.09755
488.0,0.1064
489.0,0.106
490.0,0.1107
491.0,0.108
492.0,0.1014
493.0,0.1041
494.0,0.1045
495.0,0.1048
496.0,0.1047
497.0,0.1054
498.0,0.09956
499.0,0.09981
500.0,0.0959
501.0,0.09314
502.0,0.09079
503.0,0.09348
504.0,0.09015
505.0,0.09278
506.0,0.09522
507.0,0.09018
508.0,0.08705
509.0,0.08914
510.0,0.08827
511.0,0.09015
512.0,0.09052
513.0,0.08504
514.0,0.08379
515.0,0.0823
516.0,0.08147
517.0,0.07186
518.0,0.075
519.0,0.07807
520.0,0.08026
521.0,0.08033
522.0,0.07968
523.0,0.07761
524.0,0.07958
525.0,0.07967
526.0,0.07534
527.0,0.07021
528.0,0.07346
529.0,0.07669
530.0,0.07489
531.0,0.07531
532.0,0.07212
533.0,0.06951
534.0,0.07111
535.0,0.07225
536.0,0.07251
537.0,0.06925
538.0,0.07002
539.0,0.06895
540.0,0.06562
541.0,0.06548
542.0,0.06693
543.0,0.06569
544.0,0.0663
545.0,0.06563
546.0,0.0654
547.0,0.06491
548.0,0.06369
549.0,0.06346
550.0,0.06376
551.0,0.06254
552.0,0.06252
553.0,0.06095
554.0,0.06193
555.0,0.06156
556.0,0.06026
557.0,0.05787
558.0,0.05688
559.0,0.05525
560.0,0.0554
561.0,0.05557
562.0,0.05461
563.0,0.05555
564.0,0.05357
565.0,0.05265
566.0,0.05145
567.0,0.05197
568.0,0.05103
569.0,0.04932
570.0,0.04894
571.0,0.04829
572.0,0.04899
573.0,0.04916
574.0,0.0487
575.0,0.0475
576.0,0.04683
577.0,0.04714
578.0,0.04626
579.0,0.04631
580.0,0.04709
581.0,0.0472
582.0,0.04794
583.0,0.04791
584.0,0.04814
585.0,0.04676
586.0,0.04555
587.0,0.04624
588.0,0.04472
589.0,0.03912
590.0,0.04067
591.0,0.04291
592.0,0.04196
593.0,0.04234
594.0,0.04163
595.0,0.04015
596.0,0.0416
597.0,0.04075
598.0,0.04034
599.0,0.04007
600.0,0.03987
601.0,0.03932
602.0,0.03883
603.0,0.03927
604.0,0.03975
605.0,0.0394
606.0,0.03913
607.0,0.03943
608.0,0.03891
609.0,0.03889
610.0,0.03855
611.0,0.03868
612.0,0.03849
613.0,0.03793
614.0,0.03733
615.0,0.03806
616.0,0.03672
617.0,0.03655
618.0,0.03785
619.0,0.03736
620.0,0.03746
621.0,0.03734
622.0,0.03675
623.0,0.03604
624.0,0.03528
625.0,0.03508
626.0,0.03547
627.0,0.03569
628.0,0.03262
629.0,0.03438
630.0,0.03344
631.0,0.03427
632.0,0.03379
633.0,0.0348
634.0,0.03442
635.0,0.03488
636.0,0.03434
637.0,0.03483
638.0,0.03511
639.0,0.03464
640.0,0.03423
641.0,0.03412
642.0,0.03389
643.0,0.03426
644.0,0.03406
645.0,0.03398
646.0,0.03299
647.0,0.03232
648.0,0.03224
649.0,0.03148
650.0,0.03172
651.0,0.03301
652.0,0.03131
653.0,0.03235
654.0,0.03188
655.0,0.03047
656.0,0.02698
657.0,0.02763
658.0,0.03093
659.0,0.03107
660.0,0.03109
661.0,0.0312
662.0,0.03113
663.0,0.03042
664.0,0.03072
665.0,0.03068
666.0,0.03061
667.0,0.03051
668.0,0.03045
669.0,0.03082
670.0,0.03058
671.0,0.03048
672.0,0.03014
673.0,0.03052
674.0,0.0303
675.0,0.02992
676.0,0.03002
677.0,0.02963
678.0,0.02962
679.0,0.02904
680.0,0.02917
681.0,0.02886
682.0,0.0287
683.0,0.02853
684.0,0.02826
685.0,0.02839
686.0,0.0281
687.0,0.01688
688.0,0.02027
689.0,0.02028
690.0,0.02145
691.0,0.02283
692.0,0.02388
693.0,0.02358
694.0,0.02334
695.0,0.02447
696.0,0.02442
697.0,0.02616
698.0,0.02565
699.0,0.02471
700.0,0.0243
701.0,0.02388
702.0,0.02403
703.0,0.024
704.0,0.02479
705.0,0.02471
706.0,0.02464
707.0,0.02457
708.0,0.02451
709.0,0.02452
710.0,0.02436
711.0,0.02427
712.0,0.02415
713.0,0.02376
714.0,0.02374
715.0,0.02279
716.0,0.02268
717.0,0.01889
718.0,0.01718
719.0,0.01558
720.0,0.01623
721.0,0.01821
722.0,0.02125
723.0,0.01944
724.0,0.01716
725.0,0.01676
726.0,0.01752
727.0,0.01782
728.0,0.01649
729.0,0.01725
730.0,0.01816
731.0,0.01724
732.0,0.01862
733.0,0.01985
734.0,0.02031
735.0,0.01975
736.0,0.01963
737.0,0.01962
738.0,0.02002
739.0,0.01953
740.0,0.02
741.0,0.01974
742.0,0.0197
743.0,0.02011
744.0,0.01997
745.0,0.01989
746.0,0.01988
747.0,0.01984
748.0,0.0197
749.0,0.01939
750.0,0.01931
751.0,0.01904
752.0,0.01906
753.0,0.01908
754.0,0.01904
755.0,0.01886
756.0,0.01878
757.0,0.01873
758.0,0.01841
759.0,0.01783
760.0,0.002555
761.0,0.001357
762.0,0.007839
763.0,0.003822
764.0,0.005739
765.0,0.007726
766.0,0.009727
767.0,0.01274
768.0,0.01527
769.0,0.01569
770.0,0.01636
771.0,0.01651
772.0,0.01649
773.0,0.01653
774.0,0.01636
775.0,0.01615
776.0,0.01627
777.0,0.01597
778.0,0.01578
779.0,0.01572
780.0,0.01556
781.0,0.01551
782.0,0.01555
783.0,0.01523
784.0,0.01525
785.0,0.01507
786.0,0.01517
787.0,0.01476
788.0,0.01448
789.0,0.01441
790.0,0.01387
791.0,0.01403
792.0,0.01389
793.0,0.01359
794.0,0.01387
795.0,0.01402
796.0,0.01338
797.0,0.01333
798.0,0.01381
799.0,0.01363
800.0,0.0133
801.0,0.01316
802.0,0.01306
803.0,0.01288
804.0,0.01285
805.0,0.0128
806.0,0.01316
807.0,0.01293
808.0,0.01288
809.0,0.01251
810.0,0.01231
811.0,0.01222
812.0,0.01169
813.0,0.01135
814.0,0.009696
815.0,0.009602
816.0,0.008819
817.0,0.008955
818.0,0.008542
819.0,0.00971
820.0,0.009037
821.0,0.01087
822.0,0.01045
823.0,0.006632
824.0,0.009967
825.0,0.01051
826.0,0.009961
827.0,0.0106
828.0,0.008641
829.0,0.009808
830.0,0.009622
831.0,0.009617
832.0,0.009224
833.0,0.009938
834.0,0.009462
835.0,0.01058
836.0,0.00992
837.0,0.01051
838.0,0.01007
839.0,0.01026
840.0,0.01046
841.0,0.01023
842.0,0.01026
843.0,0.01026
844.0,0.01004
845.0,0.01037
846.0,0.01028
847.0,0.01006
848.0,0.009923
849.0,0.009592
850.0,0.009145
851.0,0.009606
852.0,0.0095
853.0,0.009117
854.0,0.007821
855.0,0.008581
856.0,0.009332
857.0,0.009522
858.0,0.00941
859.0,0.009391
860.0,0.009378
861.0,0.00929
862.0,0.009408
863.0,0.009598
864.0,0.009086
865.0,0.008974
866.0,0.008039
867.0,0.008357
868.0,0.009059
869.0,0.008837
870.0,0.009053
871.0,0.008894
872.0,0.008827
873.0,0.008774
874.0,0.008632
875.0,0.008419
876.0,0.008468
877.0,0.008519
878.0,0.008571
879.0,0.008404
880.0,0.008189
881.0,0.008021
882.0,0.008157
883.0,0.008159
884.0,0.008081
885.0,0.008103
886.0,0.007655
887.0,0.007732
888.0,0.007796
889.0,0.007881
890.0,0.007742
891.0,0.007718
892.0,0.00742
893.0,0.007109
894.0,0.006729
895.0,0.006214
896.0,0.00577
897.0,0.004803
898.0,0.005285
899.0,0.00385
900.0,0.005442
901.0,0.004033
902.0,0.004864
903.0,0.004846
904.0,0.0064
905.0,0.006113
906.0,0.005651
907.0,0.004364
908.0,0.004477
909.0,0.00491
910.0,0.004195
911.0,0.004551
912.0,0.004749
913.0,0.004203
914.0,0.004169
915.0,0.004518
916.0,0.003755
917.0,0.004918
918.0,0.00382
919.0,0.005002
920.0,0.005121
921.0,0.005327
922.0,0.004633
923.0,0.005113
924.0,0.004692
925.0,0.004568
926.0,0.004593
927.0,0.00522
928.0,0.003555
929.0,0.00318
930.0,0.002402
931.0,0.002258
932.0,0.001564
933.0,0.001248
934.0,0.0006589
935.0,0.001275
936.0,0.0007733
937.0,0.0007799
938.0,0.0009617
939.0,0.002111
940.0,0.002587
941.0,0.001881
942.0,0.002196
943.0,0.00139
944.0,0.001486
945.0,0.001914
946.0,0.0009228
947.0,0.001898
948.0,0.001372
949.0,0.002599
950.0,0.0006564
951.0,0.002542
952.0,0.001287
953.0,0.001695
954.0,0.002125
955.0,0.001709
956.0,0.001691
957.0,0.001263
958.0,0.002456
959.0,0.001868
960.0,0.002099
961.0,0.002403
962.0,0.002258
963.0,0.002658
964.0,0.0024
965.0,0.002622
966.0,0.002613
967.0,0.002581
968.0,0.003731
969.0,0.003858
970.0,0.003489
971.0,0.004129
972.0,0.003889
973.0,0.003241
974.0,0.00305
975.0,0.003184
976.0,0.00295
977.0,0.003496
978.0,0.003244
979.0,0.003424
980.0,0.003177
981.0,0.00395
982.0,0.003711
983.0,0.003519
984.0,0.00409
985.0,0.003651
986.0,0.004173
987.0,0.004037
988.0,0.004015
989.0,0.004138
990.0,0.003957
991.0,0.004102
992.0,0.004117
993.0,0.003973
994.0,0.004093
995.0,0.004081
996.0,0.004041
997.0,0.004037
998.0,0.004001
999.0,0.003974
1000.0,0.003921
1001.0,0.003967
1002.0,0.003795
1003.0,0.003865
1004.0,0.003742
1005.0,0.003609
1006.0,0.003727
1007.0,0.003795
1008.0,0.003753
1009.0,0.00371
1010.0,0.003675
1011.0,0.003721
1012.0,0.003666
1013.0,0.003687
1014.0,0.003648
1015.0,0.003609
1016.0,0.003577
1017.0,0.003571
1018.0,0.003549
1019.0,0.003442
1020.0,0.0035
1021.0,0.003485
1022.0,0.003438
1023.0,0.003461
1024.0,0.003387
1025.0,0.003439
1026.0,0.003407
1027.0,0.003387
1028.0,0.003366
1029.0,0.003313
1030.0,0.003329
1031.0,0.0033
1032.0,0.00328
1033.0,0.003218
1034.0,0.003206
1035.0,0.003204
1036.0,0.003206
1037.0,0.003143
1038.0,0.003145
1039.0,0.003131
1040.0,0.003106
1041.0,0.003105
1042.0,0.003071
1043.0,0.00305
1044.0,0.003048
1045.0,0.002994
1046.0,0.002948
1047.0,0.002963
1048.0,0.002967
1049.0,0.002945
1050.0,0.002919
1051.0,0.002903
1052.0,0.002879
1053.0,0.002844
1054.0,0.002838
1055.0,0.002827
1056.0,0.002804
1057.0,0.002783
1058.0,0.002703
1059.0,0.002694
1060.0,0.002678
1061.0,0.002664
1062.0,0.002665
1063.0,0.002628
1064.0,0.00265
1065.0,0.002616
1066.0,0.002559
1067.0,0.002581
1068.0,0.002512
1069.0,0.002428
1070.0,0.002498
1071.0,0.00254
1072.0,0.002492
1073.0,0.00245
1074.0,0.002519
1075.0,0.002352
1076.0,0.002496
1077.0,0.002425
1078.0,0.002361
1079.0,0.002436
1080.0,0.002358
1081.0,0.002261
1082.0,0.002317
1083.0,0.002323
1084.0,0.002222
1085.0,0.002326
1086.0,0.002066
1087.0,0.00216
1088.0,0.002274
1089.0,0.002163
1090.0,0.00209
1091.0,0.002233
1092.0,0.002224
1093.0,0.001797
1094.0,0.002011
1095.0,0.001866
1096.0,0.001759
1097.0,0.002136
1098.0,0.00171
1099.0,0.001787
1100.0,0.001625
1101.0,0.001652
1102.0,0.001553
1103.0,0.001519
1104.0,0.001518
1105.0,0.001701
1106.0,0.001203
1107.0,0.001586
1108.0,0.001281
1109.0,0.001283
1110.0,0.001542
1111.0,0.0009643
1112.0,0.001262
1113.0,0.00074
1114.0,0.0008286
1115.0,0.0006756
1116.0,0.000519
1117.0,0.0001789
1118.0,0.0005648
1119.0,0.0002667
1120.0,0.0003344
1121.0,0.000448
1122.0,0.000181
1123.0,0.0002988
1124.0,0.0002508
1125.0,0.0003291
1126.0,0.000109
1127.0,0.0003697
1128.0,0.0002136
1129.0,0.0002265
1130.0,0.0001471
1131.0,0.0007257
1132.0,0.0005575
1133.0,0.0003383
1134.0,8.24e-05
1135.0,3.085e-05
1136.0,0.0002758
1137.0,0.0006931
1138.0,0.0004786
1139.0,0.0007544
1140.0,0.00061
1141.0,0.00045
1142.0,0.0005226
1143.0,0.0007647
1144.0,0.0002473
1145.0,0.0003126
1146.0,0.0003362
1147.0,0.0001131
1148.0,0.0006434
1149.0,0.0004999
1150.0,0.0002628
1151.0,0.000454
1152.0,0.0005698
1153.0,0.0005609
1154.0,0.0002943
1155.0,0.0007464
1156.0,0.0006594
1157.0,0.0007593
1158.0,0.0007476
1159.0,0.0008148
1160.0,0.000684
1161.0,0.0008744
1162.0,0.0008714
1163.0,0.001254
1164.0,0.00104
1165.0,0.0009561
1166.0,0.0009609
1167.0,0.001058
1168.0,0.001064
1169.0,0.001094
1170.0,0.001208
1171.0,0.001171
1172.0,0.001203
1173.0,0.001194
1174.0,0.000796
1175.0,0.001171
1176.0,0.001318
1177.0,0.001238
1178.0,0.0008784
1179.0,0.001315
1180.0,0.00113
1181.0,0.001167
1182.0,0.0007506
1183.0,0.001149
1184.0,0.001053
1185.0,0.000999
1186.0,0.001233
1187.0,0.001154
1188.0,0.0007452
1189.0,0.001063
1190.0,0.001191
1191.0,0.001098
1192.0,0.001204
1193.0,0.001137
1194.0,0.001178
1195.0,0.00109
1196.0,0.001035
1197.0,0.001177
1198.0,0.00106
1199.0,0.0008581
1200.0,0.0011
1201.0,0.001042
1202.0,0.001044
1203.0,0.001027
1204.0,0.0008723
1205.0,0.001069
1206.0,0.001205
1207.0,0.001021
1208.0,0.001015
1209.0,0.001033
1210.0,0.001084
1211.0,0.001014
1212.0,0.0009786
1213.0,0.001128
1214.0,0.001004
1215.0,0.0009792
1216.0,0.001117
1217.0,0.001075
1218.0,0.0011
1219.0,0.001077
1220.0,0.001094
1221.0,0.001108
1222.0,0.00107
1223.0,0.001054
1224.0,0.001035
1225.0,0.001085
1226.0,0.001096
1227.0,0.0009839
1228.0,0.001098
1229.0,0.001086
1230.0,0.001059
1231.0,0.001099
1232.0,0.001089
1233.0,0.00103
1234.0,0.001092
1235.0,0.001079
1236.0,0.001086
1237.0,0.001061
1238.0,0.001075
1239.0,0.001058
1240.0,0.001059
1241.0,0.001046
1242.0,0.001045
1243.0,0.001033
1244.0,0.001035
1245.0,0.001037
1246.0,0.001028
1247.0,0.001019
1248.0,0.001013
1249.0,0.001015
1250.0,0.001004
1251.0,0.000985
1252.0,0.000986
1253.0,0.000968
1254.0,0.0009502
1255.0,0.0009738
1256.0,0.0009309
1257.0,0.0009204
1258.0,0.0009445
1259.0,0.0008889
1260.0,0.000893
1261.0,0.0008193
1262.0,0.0007822
1263.0,0.0007809
1264.0,0.000698
1265.0,0.0007716
1266.0,0.0007277
1267.0,0.0007468
1268.0,0.0006926
1269.0,0.0003799
1270.0,0.0007342
1271.0,0.000796
1272.0,0.0007979
1273.0,0.0007847
1274.0,0.0007878
1275.0,0.0008004
1276.0,0.0008097
1277.0,0.0008178
1278.0,0.0008391
1279.0,0.0008291
1280.0,0.000816
1281.0,0.0007803
1282.0,0.0007563
1283.0,0.0008106
1284.0,0.0008261
1285.0,0.0008302
1286.0,0.0008425
1287.0,0.00082
1288.0,0.0008195
1289.0,0.0007781
1290.0,0.0008077
1291.0,0.0008187
1292.0,0.0007443
1293.0,0.0007924
1294.0,0.0007833
1295.0,0.0007699
1296.0,0.0007199
1297.0,0.0006695
1298.0,0.0007382
1299.0,0.0007805
1300.0,0.0006252
1301.0,0.0006477
1302.0,0.0007283
1303.0,0.0006131
1304.0,0.0004975
1305.0,0.0007039
1306.0,0.0006988
1307.0,0.0005099
1308.0,0.0006075
1309.0,0.0006826
1310.0,0.000493
1311.0,0.0005709
1312.0,0.0005523
1313.0,0.0005327
1314.0,0.0004643
1315.0,0.0004548
1316.0,0.0005499
1317.0,0.0005135
1318.0,0.0005686
1319.0,0.0004154
1320.0,0.0004029
1321.0,0.0004806
1322.0,0.0004804
1323.0,0.0003406
1324.0,0.0004018
1325.0,0.0005233
1326.0,0.0004338
1327.0,0.0004083
1328.0,0.0003428
1329.0,0.0002442
1330.0,0.000326
1331.0,0.0001849
1332.0,0.0001919
1333.0,0.0002707
1334.0,0.0002326
1335.0,0.0003257
1336.0,0.0002488
1337.0,0.0002178
1338.0,0.0002351
1339.0,0.0002341
1340.0,0.0002288
1341.0,0.0002174
1342.0,0.0002289
1343.0,0.0001477
1344.0,8.787e-05
1345.0,0.0001265
1346.0,6.105e-05
1347.0,6.175e-05
1348.0,3.96e-06
