interpolation:linear
wavelength,value
280.0,3.138e-21
280.5,9.816000000000001e-20
281.0,5.176e-19
281.5,3.128e-19
282.0,1.005e-18
282.5,2.697e-18
283.0,8.826e-18
283.5,1.45e-17
284.0,2.384e-16
284.5,6.896e-16
285.0,1.583e-15
285.5,7.711e-15
286.0,3.086e-14
286.5,1.361e-13
287.0,3.852e-13
287.5,1.456e-12
288.0,3.839e-12
288.5,1.283e-11
289.0,3.66e-11
289.5,1.163e-10
290.0,3.331e-10
290.5,6.936e-10
291.0,1.518e-09
291.5,4.433e-09
292.0,9.709e-09
292.5,1.461e-08
293.0,3.421e-08
293.5,9.351e-08
294.0,1.584e-07
294.5,1.983e-07
295.0,3.593e-07
295.5,9.181e-07
296.0,1.798e-06
296.5,2.562e-06
297.0,3.528e-06
297.5,9.793e-06
298.0,1.6e-05
298.5,1.662e-05
299.0,3.8e-05
299.5,6.83e-05
300.0,7.919e-05
300.5,0.0001221
301.0,0.0002502
301.5,0.0004603
302.0,0.00043
302.5,0.000831
303.0,0.001472
303.5,0.00184
304.0,0.001731
304.5,0.002609
305.0,0.004018
305.5,0.004645
306.0,0.004503
306.5,0.005635
307.0,0.008496
307.5,0.01148
308.0,0.01212
308.5,0.0144
309.0,0.01453
309.5,0.01645
310.0,0.01643
310.5,0.02649
311.0,0.03309
311.5,0.03182
312.0,0.03166
312.5,0.03841
313.0,0.04152
313.5,0.04015
314.0,0.05009
314.5,0.04443
315.0,0.05823
315.5,0.0484
316.0,0.0423
316.5,0.06081
317.0,0.07521
317.5,0.07786
318.0,0.06074
318.5,0.07578
319.0,0.09004
319.5,0.07256
320.0,0.08725
320.5,0.1099
321.0,0.0985
321.5,0.0942
322.0,0.09889
322.5,0.08576
323.0,0.08572
323.5,0.1063
324.0,0.1238
324.5,0.125
325.0,0.1064
325.5,0.1373
326.0,0.1684
326.5,0.1687
327.0,0.1672
327.5,0.1607
328.0,0.142
328.5,0.1494
329.0,0.1793
329.5,0.2032
330.0,0.2039
330.5,0.1618
331.0,0.164
331.5,0.1666
332.0,0.1804
332.5,0.1783
333.0,0.1768
333.5,0.1587
334.0,0.1619
334.5,0.1871
335.0,0.1757
335.5,0.2078
336.0,0.1433
336.5,0.1642
337.0,0.1339
337.5,0.1658
338.0,0.162
338.5,0.1888
339.0,0.1855
339.5,0.1783
340.0,0.2063
340.5,0.1854
341.0,0.1819
341.5,0.1653
342.0,0.1966
342.5,0.183
343.0,0.2012
343.5,0.1893
344.0,0.1385
344.5,0.1411
345.0,0.1845
345.5,0.1872
346.0,0.1582
346.5,0.1783
347.0,0.1912
347.5,0.1542
348.0,0.1746
348.5,0.1736
349.0,0.1603
349.5,0.1582
350.0,0.1949
350.5,0.2048
351.0,0.1825
351.5,0.1775
352.0,0.1894
352.5,0.147
353.0,0.1842
353.5,0.1962
354.0,0.2028
354.5,0.2049
355.0,0.2035
355.5,0.1831
356.0,0.1908
356.5,0.1623
357.0,0.1336
357.5,0.1629
358.0,0.1286
358.5,0.1095
359.0,0.1526
359.5,0.1938
360.0,0.2047
360.5,0.1629
361.0,0.1479
361.5,0.1697
362.0,0.1462
362.5,0.2015
363.0,0.1803
363.5,0.1655
364.0,0.2016
364.5,0.1717
365.0,0.1742
365.5,0.2178
366.0,0.2299
366.5,0.2152
367.0,0.2088
367.5,0.2158
368.0,0.1882
368.5,0.1892
369.0,0.2035
369.5,0.2161
370.0,0.2295
370.5,0.1774
371.0,0.1889
371.5,0.2354
372.0,0.1556
372.5,0.1859
373.0,0.1884
373.5,0.1221
374.0,0.1768
374.5,0.1459
375.0,0.1413
375.5,0.2101
376.0,0.1735
376.5,0.1791
377.0,0.1889
377.5,0.2202
378.0,0.2378
378.5,0.2238
379.0,0.184
379.5,0.1674
380.0,0.1733
380.5,0.2091
381.0,0.2087
381.5,0.1648
382.0,0.1457
382.5,0.1237
383.0,0.1141
383.5,0.1095
384.0,0.1203
384.5,0.1763
385.0,0.1741
385.5,0.1615
386.0,0.1378
386.5,0.1803
387.0,0.1492
387.5,0.167
388.0,0.1536
388.5,0.1512
389.0,0.1626
389.5,0.1961
390.0,0.1961
390.5,0.1797
391.0,0.2107
391.5,0.2141
392.0,0.1796
392.5,0.1601
393.0,0.08876
393.5,0.06428
394.0,0.1303
394.5,0.165
395.0,0.2006
395.5,0.203
396.0,0.1753
396.5,0.1021
397.0,0.07631
397.5,0.1546
398.0,0.2156
398.5,0.222
399.0,0.2395
399.5,0.2378
400.0,0.246
401.0,0.2416
402.0,0.2529
403.0,0.2383
404.0,0.2328
405.0,0.231
406.0,0.2254
407.0,0.22
408.0,0.2268
409.0,0.2409
410.0,0.2089
411.0,0.2246
412.0,0.2394
413.0,0.2317
414.0,0.2327
415.0,0.2315
416.0,0.2337
417.0,0.2261
418.0,0.2201
419.0,0.2213
420.0,0.2186
421.0,0.2268
422.0,0.2138
423.0,0.2072
424.0,0.2173
425.0,0.2152
426.0,0.208
427.0,0.2026
428.0,0.1959
429.0,0.1841
430.0,0.1599
431.0,0.1572
432.0,0.2013
433.0,0.2008
434.0,0.185
435.0,0.1917
436.0,0.2145
437.0,0.21
438.0,0.1898
439.0,0.1948
440.0,0.1994
441.0,0.205
442.0,0.218
443.0,0.2107
444.0,0.2137
445.0,0.2075
446.0,0.1966
447.0,0.2109
448.0,0.2125
449.0,0.2116
450.0,0.2157
451.0,0.222
452.0,0.2122
453.0,0.1981
454.0,0.2053
455.0,0.2049
456.0,0.2081
457.0,0.2098
458.0,0.201
459.0,0.1983
460.0,0.1972
461.0,0.2001
462.0,0.2002
463.0,0.1975
464.0,0.193
465.0,0.1892
466.0,0.1897
467.0,0.1847
468.0,0.1853
469.0,0.1847
470.0,0.1774
471.0,0.176
472.0,0.1841
473.0,0.1803
474.0,0.1792
475.0,0.1793
476.0,0.1724
477.0,0.1714
478.0,0.1747
479.0,0.1721
480.0,0.171
481.0,0.1725
482.0,0.1721
483.0,0.1687
484.0,0.1641
485.0,0.1553
486.0,0.1348
487.0,0.1403
488.0,0.1527
489.0,0.152
490.0,0.1587
491.0,0.1548
492.0,0.145
493.0,0.1486
494.0,0.149
495.0,0.1492
496.0,0.149
497.0,0.1501
498.0,0.1419
499.0,0.1425
500.0,0.1371
501.0,0.1334
502.0,0.1303
503.0,0.1344
504.0,0.1298
505.0,0.1335
506.0,0.1368
507.0,0.1293
508.0,0.1244
509.0,0.1271
510.0,0.1256
511.0,0.1281
512.0,0.1285
513.0,0.1207
514.0,0.119
515.0,0.117
516.0,0.1158
517.0,0.1022
518.0,0.1066
519.0,0.111
520.0,0.1142
521.0,0.1143
522.0,0.1136
523.0,0.1107
524.0,0.1138
525.0,0.1142
526.0,0.1083
527.0,0.1011
528.0,0.1061
529.0,0.111
530.0,0.1086
531.0,0.1094
532.0,0.1048
533.0,0.1011
534.0,0.1033
535.0,0.1049
536.0,0.1052
537.0,0.1003
538.0,0.1014
539.0,0.0999
540.0,0.09514
541.0,0.09506
542.0,0.09728
543.0,0.09555
544.0,0.09659
545.0,0.0957
546.0,0.09543
547.0,0.09472
548.0,0.09293
549.0,0.0926
550.0,0.09307
551.0,0.0913
552.0,0.09129
553.0,0.08902
554.0,0.09053
555.0,0.09008
556.0,0.08825
557.0,0.08486
558.0,0.08357
559.0,0.08136
560.0,0.08174
561.0,0.08215
562.0,0.08092
563.0,0.0825
564.0,0.07968
565.0,0.07844
566.0,0.07672
567.0,0.0776
568.0,0.07633
569.0,0.07394
570.0,0.07343
571.0,0.0725
572.0,0.07367
573.0,0.07398
574.0,0.0733
575.0,0.0715
576.0,0.07041
577.0,0.07076
578.0,0.06932
579.0,0.06924
580.0,0.0702
581.0,0.07019
582.0,0.07112
583.0,0.07094
584.0,0.0712
585.0,0.06908
586.0,0.06721
587.0,0.06821
588.0,0.06607
589.0,0.05801
590.0,0.06033
591.0,0.06355
592.0,0.06227
593.0,0.06282
594.0,0.06191
595.0,0.05992
596.0,0.06201
597.0,0.0609
598.0,0.06035
599.0,0.06
600.0,0.05974
601.0,0.05891
602.0,0.05816
603.0,0.05878
604.0,0.05941
605.0,0.05879
606.0,0.05826
607.0,0.05856
608.0,0.05762
609.0,0.05743
610.0,0.05676
611.0,0.05679
612.0,0.05636
613.0,0.05537
614.0,0.05434
615.0,0.05527
616.0,0.05319
617.0,0.05283
618.0,0.0546
619.0,0.05378
620.0,0.05385
621.0,0.05361
622.0,0.0527
623.0,0.0516
624.0,0.05044
625.0,0.0501
626.0,0.0506
627.0,0.05088
628.0,0.04691
629.0,0.04902
630.0,0.04763
631.0,0.04856
632.0,0.04777
633.0,0.04905
634.0,0.04839
635.0,0.0489
636.0,0.04803
637.0,0.04859
638.0,0.04885
639.0,0.04808
640.0,0.04739
641.0,0.04713
642.0,0.04672
643.0,0.04715
644.0,0.04679
645.0,0.04661
646.0,0.04524
647.0,0.0444
648.0,0.04419
649.0,0.04312
650.0,0.04323
651.0,0.04489
652.0,0.04266
653.0,0.04386
654.0,0.04318
655.0,0.04128
656.0,0.03645
657.0,0.03727
658.0,0.04162
659.0,0.04173
660.0,0.0417
661.0,0.04178
662.0,0.04166
663.0,0.04066
664.0,0.04098
665.0,0.04083
666.0,0.04067
667.0,0.04046
668.0,0.0403
669.0,0.04073
670.0,0.04036
671.0,0.04017
672.0,0.03967
673.0,0.04012
674.0,0.03977
675.0,0.03922
676.0,0.0393
677.0,0.03875
678.0,0.0387
679.0,0.0379
680.0,0.03803
681.0,0.0376
682.0,0.03737
683.0,0.03711
684.0,0.03674
685.0,0.03686
686.0,0.03647
687.0,0.02294
688.0,0.02727
689.0,0.02725
690.0,0.02862
691.0,0.0302
692.0,0.03135
693.0,0.03091
694.0,0.03046
695.0,0.03172
696.0,0.0316
697.0,0.03368
698.0,0.033
699.0,0.03189
700.0,0.03135
701.0,0.03086
702.0,0.03099
703.0,0.03089
704.0,0.03181
705.0,0.0317
706.0,0.03156
707.0,0.03145
708.0,0.03136
709.0,0.0313
710.0,0.03111
711.0,0.03098
712.0,0.0308
713.0,0.03032
714.0,0.03027
715.0,0.02911
716.0,0.02898
717.0,0.02451
718.0,0.02221
719.0,0.02008
720.0,0.02101
721.0,0.02341
722.0,0.02715
723.0,0.02488
724.0,0.02202
725.0,0.02154
726.0,0.02257
727.0,0.02279
728.0,0.02119
729.0,0.02204
730.0,0.02331
731.0,0.02209
732.0,0.02373
733.0,0.0252
734.0,0.02572
735.0,0.02504
736.0,0.02491
737.0,0.02488
738.0,0.02525
739.0,0.02462
740.0,0.02518
741.0,0.02482
742.0,0.02474
743.0,0.02524
744.0,0.02505
745.0,0.02494
746.0,0.02493
747.0,0.02487
748.0,0.02469
749.0,0.02429
750.0,0.02416
751.0,0.02382
752.0,0.02381
753.0,0.02382
754.0,0.02375
755.0,0.02351
756.0,0.0234
757.0,0.02333
758.0,0.02293
759.0,0.02229
760.0,0.003121
761.0,0.001595
762.0,0.01031
763.0,0.004813
764.0,0.00744
765.0,0.01016
766.0,0.01278
767.0,0.01649
768.0,0.01934
769.0,0.01974
770.0,0.02043
771.0,0.02055
772.0,0.02051
773.0,0.02055
774.0,0.02034
775.0,0.02009
776.0,0.02025
777.0,0.01988
778.0,0.01966
779.0,0.01957
780.0,0.01937
781.0,0.0193
782.0,0.01934
783.0,0.01892
784.0,0.01892
785.0,0.0187
786.0,0.01882
787.0,0.01837
788.0,0.01803
789.0,0.01793
790.0,0.01731
791.0,0.01744
792.0,0.01723
793.0,0.01686
794.0,0.01715
795.0,0.01734
796.0,0.01664
797.0,0.01659
798.0,0.01709
799.0,0.01688
800.0,0.01649
801.0,0.01634
802.0,0.01622
803.0,0.01601
804.0,0.01597
805.0,0.01587
806.0,0.01627
807.0,0.01599
808.0,0.01594
809.0,0.01554
810.0,0.01531
811.0,0.01523
812.0,0.01466
813.0,0.01424
814.0,0.01224
815.0,0.0121
816.0,0.0111
817.0,0.01128
818.0,0.01078
819.0,0.01221
820.0,0.01136
821.0,0.01355
822.0,0.01304
823.0,0.00834
824.0,0.01248
825.0,0.01304
826.0,0.0124
827.0,0.01315
828.0,0.01083
829.0,0.01218
830.0,0.01195
831.0,0.01195
832.0,0.01148
833.0,0.01234
834.0,0.01178
835.0,0.01305
836.0,0.01234
837.0,0.01298
838.0,0.01248
839.0,0.01268
840.0,0.01291
841.0,0.01265
842.0,0.01265
843.0,0.01261
844.0,0.01236
845.0,0.01275
846.0,0.01264
847.0,0.01235
848.0,0.01221
849.0,0.01181
850.0,0.01126
851.0,0.01186
852.0,0.01172
853.0,0.01124
854.0,0.009651
855.0,0.01057
856.0,0.0115
857.0,0.01172
858.0,0.01159
859.0,0.01155
860.0,0.01152
861.0,0.01141
862.0,0.01155
863.0,0.01178
864.0,0.01115
865.0,0.011
866.0,0.009853
867.0,0.01024
868.0,0.0111
869.0,0.01082
870.0,0.01108
871.0,0.01089
872.0,0.01081
873.0,0.01074
874.0,0.01056
875.0,0.0103
876.0,0.01036
877.0,0.01042
878.0,0.01049
879.0,0.01029
880.0,0.01002
881.0,0.009828
882.0,0.01
883.0,0.009996
884.0,0.009903
885.0,0.009933
886.0,0.009408
887.0,0.009485
888.0,0.009574
889.0,0.009661
890.0,0.009514
891.0,0.009472
892.0,0.009138
893.0,0.008773
894.0,0.008361
895.0,0.007782
896.0,0.007209
897.0,0.006023
898.0,0.006637
899.0,0.004816
900.0,0.006803
901.0,0.005082
902.0,0.006101
903.0,0.006103
904.0,0.00796
905.0,0.007607
906.0,0.007038
907.0,0.005486
908.0,0.005608
909.0,0.006154
910.0,0.005282
911.0,0.005681
912.0,0.005959
913.0,0.005295
914.0,0.005234
915.0,0.005725
916.0,0.004703
917.0,0.006199
918.0,0.004807
919.0,0.006276
920.0,0.00635
921.0,0.00665
922.0,0.005804
923.0,0.006373
924.0,0.005916
925.0,0.005743
926.0,0.005804
927.0,0.006578
928.0,0.004532
929.0,0.004062
930.0,0.003057
931.0,0.002868
932.0,0.001963
933.0,0.001546
934.0,0.0007877
935.0,0.001582
936.0,0.0009331
937.0,0.0009413
938.0,0.001177
939.0,0.002684
940.0,0.003313
941.0,0.002393
942.0,0.002815
943.0,0.001738
944.0,0.001849
945.0,0.002431
946.0,0.00113
947.0,0.002416
948.0,0.001704
949.0,0.003354
950.0,0.0007869
951.0,0.00328
952.0,0.001602
953.0,0.00214
954.0,0.002712
955.0,0.002165
956.0,0.002087
957.0,0.001575
958.0,0.003095
959.0,0.002352
960.0,0.002669
961.0,0.003047
962.0,0.00285
963.0,0.003358
964.0,0.003021
965.0,0.003321
966.0,0.003308
967.0,0.003273
968.0,0.004641
969.0,0.004857
970.0,0.004374
971.0,0.005133
972.0,0.004846
973.0,0.004085
974.0,0.003833
975.0,0.00399
976.0,0.003732
977.0,0.004352
978.0,0.004071
979.0,0.004294
980.0,0.003972
981.0,0.004911
982.0,0.004633
983.0,0.0044
984.0,0.005052
985.0,0.004566
986.0,0.005129
987.0,0.004983
988.0,0.004952
989.0,0.00507
990.0,0.004889
991.0,0.005038
992.0,0.005051
993.0,0.004895
994.0,0.005017
995.0,0.004996
996.0,0.00495
997.0,0.004941
998.0,0.004898
999.0,0.004864
1000.0,0.004805
1001.0,0.004855
1002.0,0.004675
1003.0,0.004731
1004.0,0.004589
1005.0,0.004414
1006.0,0.004562
1007.0,0.004644
1008.0,0.004597
1009.0,0.00455
1010.0,0.00451
1011.0,0.004552
1012.0,0.004489
1013.0,0.004509
1014.0,0.004461
1015.0,0.004414
1016.0,0.004376
1017.0,0.004369
1018.0,0.004339
1019.0,0.00422
1020.0,0.004281
1021.0,0.00426
1022.0,0.004207
1023.0,0.004236
1024.0,0.004155
1025.0,0.004205
1026.0,0.004169
1027.0,0.004143
1028.0,0.004119
1029.0,0.004055
1030.0,0.004071
1031.0,0.004037
1032.0,0.004011
1033.0,0.003935
1034.0,0.003921
1035.0,0.003918
1036.0,0.003922
1037.0,0.003844
1038.0,0.003847
1039.0,0.00383
1040.0,0.003801
1041.0,0.0038
1042.0,0.003759
1043.0,0.003734
1044.0,0.003733
1045.0,0.003668
1046.0,0.003613
1047.0,0.003631
1048.0,0.003638
1049.0,0.003611
1050.0,0.003581
1051.0,0.003561
1052.0,0.003533
1053.0,0.003492
1054.0,0.003486
1055.0,0.003474
1056.0,0.003447
1057.0,0.003422
1058.0,0.003326
1059.0,0.003316
1060.0,0.003298
1061.0,0.003281
1062.0,0.003285
1063.0,0.00324
1064.0,0.003268
1065.0,0.003229
1066.0,0.003156
1067.0,0.003184
1068.0,0.0031
1069.0,0.002995
1070.0,0.003083
1071.0,0.003127
1072.0,0.003073
1073.0,0.003021
1074.0,0.003096
1075.0,0.002908
1076.0,0.00307
1077.0,0.00299
1078.0,0.002919
1079.0,0.002991
1080.0,0.002908
1081.0,0.002799
1082.0,0.002853
1083.0,0.002855
1084.0,0.002752
1085.0,0.002868
1086.0,0.002562
1087.0,0.002672
1088.0,0.002795
1089.0,0.002679
1090.0,0.00259
1091.0,0.002749
1092.0,0.002737
1093.0,0.002243
1094.0,0.00248
1095.0,0.002337
1096.0,0.002209
1097.0,0.00263
1098.0,0.002155
1099.0,0.00225
1100.0,0.002049
1101.0,0.002078
1102.0,0.001963
1103.0,0.001925
1104.0,0.001923
1105.0,0.002144
1106.0,0.001541
1107.0,0.002002
1108.0,0.001631
1109.0,0.001632
1110.0,0.001957
1111.0,0.001229
1112.0,0.001604
1113.0,0.0009364
1114.0,0.001059
1115.0,0.0008535
1116.0,0.0006517
1117.0,0.0002103
1118.0,0.0007144
1119.0,0.0003226
1120.0,0.0004124
1121.0,0.0005651
1122.0,0.0002142
1123.0,0.0003653
1124.0,0.0003029
1125.0,0.0004058
1126.0,0.0001253
1127.0,0.0004596
1128.0,0.0002561
1129.0,0.000273
1130.0,0.0001718
1131.0,0.0009449
1132.0,0.0007127
1133.0,0.0004202
1134.0,9.345e-05
1135.0,3.374e-05
1136.0,0.0003378
1137.0,0.0009047
1138.0,0.0006073
1139.0,0.0009694
1140.0,0.0007811
1141.0,0.0005681
1142.0,0.0006655
1143.0,0.0009937
1144.0,0.0002996
1145.0,0.0003877
1146.0,0.0004193
1147.0,0.0001309
1148.0,0.0008285
1149.0,0.0006354
1150.0,0.0003184
1151.0,0.0005756
1152.0,0.0007312
1153.0,0.0007123
1154.0,0.0003626
1155.0,0.0009636
1156.0,0.0008489
1157.0,0.0009709
1158.0,0.0009558
1159.0,0.001047
1160.0,0.0008668
1161.0,0.001111
1162.0,0.001108
1163.0,0.001582
1164.0,0.001315
1165.0,0.001218
1166.0,0.00121
1167.0,0.001333
1168.0,0.001343
1169.0,0.001383
1170.0,0.001518
1171.0,0.001468
1172.0,0.001497
1173.0,0.001499
1174.0,0.001002
1175.0,0.001458
1176.0,0.001624
1177.0,0.001539
1178.0,0.001094
1179.0,0.001622
1180.0,0.001408
1181.0,0.001458
1182.0,0.0009398
1183.0,0.001433
1184.0,0.001315
1185.0,0.001253
1186.0,0.001532
1187.0,0.00144
1188.0,0.0009425
1189.0,0.001325
1190.0,0.001474
1191.0,0.001377
1192.0,0.001489
1193.0,0.001411
1194.0,0.001458
1195.0,0.001362
1196.0,0.001298
1197.0,0.001457
1198.0,0.00131
1199.0,0.001079
1200.0,0.001366
1201.0,0.001303
1202.0,0.001293
1203.0,0.001285
1204.0,0.001089
1205.0,0.00132
1206.0,0.001483
1207.0,0.001272
1208.0,0.001258
1209.0,0.00128
1210.0,0.001339
1211.0,0.001258
1212.0,0.001232
1213.0,0.001399
1214.0,0.00126
1215.0,0.001228
1216.0,0.00138
1217.0,0.001333
1218.0,0.00136
1219.0,0.001336
1220.0,0.001353
1221.0,0.001366
1222.0,0.00132
1223.0,0.001302
1224.0,0.001287
1225.0,0.00134
1226.0,0.001347
1227.0,0.001224
1228.0,0.001348
1229.0,0.001335
1230.0,0.001305
1231.0,0.001346
1232.0,0.001334
1233.0,0.001274
1234.0,0.001334
1235.0,0.00132
1236.0,0.001327
1237.0,0.0013
1238.0,0.001314
1239.0,0.001293
1240.0,0.001294
1241.0,0.001281
1242.0,0.001276
1243.0,0.001261
1244.0,0.001265
1245.0,0.001267
1246.0,0.001256
1247.0,0.001246
1248.0,0.00124
1249.0,0.001241
1250.0,0.001229
1251.0,0.001208
1252.0,0.001206
1253.0,0.001189
1254.0,0.001171
1255.0,0.001192
1256.0,0.001149
1257.0,0.001138
1258.0,0.00116
1259.0,0.001105
1260.0,0.001109
1261.0,0.001032
1262.0,0.0009925
1263.0,0.0009912
1264.0,0.0008992
1265.0,0.0009795
1266.0,0.000932
1267.0,0.0009509
1268.0,0.0008904
1269.0,0.0005036
1270.0,0.0009376
1271.0,0.001002
1272.0,0.001004
1273.0,0.0009885
1274.0,0.0009901
1275.0,0.001004
1276.0,0.001012
1277.0,0.001018
1278.0,0.001039
1279.0,0.001026
1280.0,0.00101
1281.0,0.0009626
1282.0,0.000928
1283.0,0.0009957
1284.0,0.001015
1285.0,0.00102
1286.0,0.001032
1287.0,0.001009
1288.0,0.001007
1289.0,0.0009649
1290.0,0.0009919
1291.0,0.001004
1292.0,0.0009267
1293.0,0.0009742
1294.0,0.0009634
1295.0,0.0009536
1296.0,0.0008989
1297.0,0.0008397
1298.0,0.0009151
1299.0,0.0009584
1300.0,0.0007825
1301.0,0.0008098
1302.0,0.000902
1303.0,0.0007662
1304.0,0.0006312
1305.0,0.0008718
1306.0,0.0008691
1307.0,0.0006421
1308.0,0.0007558
1309.0,0.0008534
1310.0,0.0006225
1311.0,0.000713
1312.0,0.0006909
1313.0,0.0006715
1314.0,0.0005865
1315.0,0.000578
1316.0,0.0006901
1317.0,0.000645
1318.0,0.0007105
1319.0,0.0005276
1320.0,0.0005082
1321.0,0.0006061
1322.0,0.0006103
1323.0,0.0004352
1324.0,0.0005084
1325.0,0.0006597
1326.0,0.0005491
1327.0,0.0005177
1328.0,0.0004346
1329.0,0.0003107
1330.0,0.0004185
1331.0,0.0002331
1332.0,0.000242
1333.0,0.0003503
1334.0,0.0002908
1335.0,0.0004184
1336.0,0.0003175
1337.0,0.0002748
1338.0,0.0002995
1339.0,0.000298
1340.0,0.0002884
1341.0,0.000278
1342.0,0.000293
1343.0,0.0001856
1344.0,0.0001057
1345.0,0.0001574
1346.0,7.2e-05
1347.0,7.281e-05
1348.0,4.186e-06
1349.0,1.549e-05
1350.0,1.612e-05
1351.0,3.746e-06
1352.0,9.918e-07
1353.0,5.002e-08
1354.0,1.723e-07
1355.0,1.382e-09
1356.0,2.421e-08
1357.0,3.679e-08
1358.0,1.622e-09
1359.0,2.043e-10
1360.0,7.385e-10
1361.0,8.259e-13
1362.0,2.259e-15
1363.0,9.929e-10
1364.0,4.099e-10
1365.0,7.888e-16
