interpolation:linear
wavelength,value
280.0,4.108e-21
280.5,1.274e-19
281.0,6.702e-19
281.5,4.465e-19
282.0,1.221e-18
282.5,3.174e-18
283.0,1.018e-17
283.5,1.662e-17
284.0,2.666e-16
284.5,7.654e-16
285.0,1.671e-15
285.5,8.269e-15
286.0,3.32e-14
286.5,1.47e-13
287.0,4.164e-13
287.5,1.574e-12
288.0,4.076e-12
288.5,1.385e-11
289.0,3.999e-11
289.5,1.284e-10
290.0,3.703e-10
290.5,7.749e-10
291.0,1.704e-09
291.5,5.32e-09
292.0,1.152e-08
292.5,1.75e-08
293.0,4.148e-08
293.5,1.156e-07
294.0,1.988e-07
294.5,2.46e-07
295.0,4.528e-07
295.5,1.179e-06
296.0,2.303e-06
296.5,3.273e-06
297.0,4.497e-06
297.5,1.244e-05
298.0,2.024e-05
298.5,2.096e-05
299.0,4.778e-05
299.5,8.532e-05
300.0,9.848e-05
300.5,0.0001511
301.0,0.0003062
301.5,0.0005556
302.0,0.0005142
302.5,0.0009889
303.0,0.001741
303.5,0.002167
304.0,0.002032
304.5,0.003035
305.0,0.004618
305.5,0.005297
306.0,0.005119
306.5,0.006374
307.0,0.009505
307.5,0.01271
308.0,0.01339
308.5,0.01583
309.0,0.01597
309.5,0.01795
310.0,0.01787
310.5,0.02877
311.0,0.03584
311.5,0.03442
312.0,0.03407
312.5,0.04117
313.0,0.04442
313.5,0.04302
314.0,0.05344
314.5,0.04713
315.0,0.06168
315.5,0.05141
316.0,0.04471
316.5,0.06402
317.0,0.07918
317.5,0.08205
318.0,0.06383
318.5,0.07921
319.0,0.09387
319.5,0.07595
320.0,0.09138
320.5,0.1144
321.0,0.1021
321.5,0.0976
322.0,0.103
322.5,0.08926
323.0,0.08892
323.5,0.1101
324.0,0.1281
324.5,0.1294
325.0,0.1103
325.5,0.1419
326.0,0.1741
326.5,0.1741
327.0,0.1727
327.5,0.166
328.0,0.147
328.5,0.1543
329.0,0.1847
329.5,0.2092
330.0,0.21
330.5,0.1669
331.0,0.1693
331.5,0.1717
332.0,0.1856
332.5,0.1833
333.0,0.1818
333.5,0.1634
334.0,0.1667
334.5,0.1923
335.0,0.1805
335.5,0.2136
336.0,0.1473
336.5,0.1687
337.0,0.1376
337.5,0.1704
338.0,0.1663
338.5,0.194
339.0,0.1905
339.5,0.1831
340.0,0.2117
340.5,0.1901
341.0,0.1867
341.5,0.1696
342.0,0.2017
342.5,0.1877
343.0,0.2064
343.5,0.1942
344.0,0.1419
344.5,0.1448
345.0,0.1892
345.5,0.1918
346.0,0.1621
346.5,0.1827
347.0,0.1959
347.5,0.158
348.0,0.1788
348.5,0.1777
349.0,0.1642
349.5,0.162
350.0,0.1995
350.5,0.2097
351.0,0.1868
351.5,0.1817
352.0,0.1938
352.5,0.1504
353.0,0.1885
353.5,0.2007
354.0,0.2074
354.5,0.2095
355.0,0.2081
355.5,0.1872
356.0,0.1951
356.5,0.1659
357.0,0.1366
357.5,0.1665
358.0,0.1315
358.5,0.1119
359.0,0.1559
359.5,0.1981
360.0,0.2091
360.5,0.1664
361.0,0.1511
361.5,0.1733
362.0,0.1493
362.5,0.2058
363.0,0.1841
363.5,0.169
364.0,0.2058
364.5,0.1753
365.0,0.1778
365.5,0.2223
366.0,0.2346
366.5,0.2196
367.0,0.213
367.5,0.2202
368.0,0.192
368.5,0.193
369.0,0.2076
369.5,0.2204
370.0,0.2341
370.5,0.181
371.0,0.1926
371.5,0.24
372.0,0.1587
372.5,0.1896
373.0,0.1921
373.5,0.1245
374.0,0.1802
374.5,0.1487
375.0,0.144
375.5,0.2141
376.0,0.1768
376.5,0.1825
377.0,0.1925
377.5,0.2243
378.0,0.2422
378.5,0.228
379.0,0.1874
379.5,0.1704
380.0,0.1765
380.5,0.2129
381.0,0.2125
381.5,0.1677
382.0,0.1484
382.5,0.126
383.0,0.1161
383.5,0.1114
384.0,0.1224
384.5,0.1794
385.0,0.1772
385.5,0.1644
386.0,0.1402
386.5,0.1835
387.0,0.1518
387.5,0.1699
388.0,0.1562
388.5,0.1538
389.0,0.1653
389.5,0.1995
390.0,0.1994
390.5,0.1827
391.0,0.2142
391.5,0.2176
392.0,0.1826
392.5,0.1628
393.0,0.09022
393.5,0.06533
394.0,0.1324
394.5,0.1677
395.0,0.2039
395.5,0.2063
396.0,0.1781
396.5,0.1037
397.0,0.07752
397.5,0.157
398.0,0.219
398.5,0.2255
399.0,0.2433
399.5,0.2415
400.0,0.2498
401.0,0.2453
402.0,0.2567
403.0,0.2419
404.0,0.2364
405.0,0.2345
406.0,0.2288
407.0,0.2233
408.0,0.2301
409.0,0.2444
410.0,0.212
411.0,0.2278
412.0,0.2428
413.0,0.235
414.0,0.236
415.0,0.2347
416.0,0.2369
417.0,0.2292
418.0,0.2232
419.0,0.2243
420.0,0.2215
421.0,0.2299
422.0,0.2167
423.0,0.2099
424.0,0.2202
425.0,0.218
426.0,0.2107
427.0,0.2052
428.0,0.1984
429.0,0.1865
430.0,0.1619
431.0,0.1592
432.0,0.2038
433.0,0.2033
434.0,0.1873
435.0,0.1941
436.0,0.2171
437.0,0.2126
438.0,0.1921
439.0,0.1972
440.0,0.2018
441.0,0.2074
442.0,0.2206
443.0,0.2132
444.0,0.2162
445.0,0.21
446.0,0.1989
447.0,0.2134
448.0,0.2149
449.0,0.214
450.0,0.2182
451.0,0.2245
452.0,0.2146
453.0,0.2004
454.0,0.2076
455.0,0.2072
456.0,0.2104
457.0,0.2121
458.0,0.2032
459.0,0.2005
460.0,0.1994
461.0,0.2023
462.0,0.2024
463.0,0.1996
464.0,0.1951
465.0,0.1913
466.0,0.1917
467.0,0.1867
468.0,0.1873
469.0,0.1866
470.0,0.1793
471.0,0.1778
472.0,0.186
473.0,0.1822
474.0,0.181
475.0,0.1811
476.0,0.1742
477.0,0.1732
478.0,0.1765
479.0,0.1739
480.0,0.1728
481.0,0.1744
482.0,0.1739
483.0,0.1705
484.0,0.1658
485.0,0.1569
486.0,0.1362
487.0,0.1417
488.0,0.1543
489.0,0.1535
490.0,0.1603
491.0,0.1564
492.0,0.1465
493.0,0.1502
494.0,0.1505
495.0,0.1507
496.0,0.1505
497.0,0.1516
498.0,0.1434
499.0,0.144
500.0,0.1385
501.0,0.1348
502.0,0.1317
503.0,0.1358
504.0,0.1312
505.0,0.135
506.0,0.1383
507.0,0.1307
508.0,0.1258
509.0,0.1285
510.0,0.127
511.0,0.1295
512.0,0.1299
513.0,0.122
514.0,0.1203
515.0,0.1182
516.0,0.1171
517.0,0.1033
518.0,0.1078
519.0,0.1122
520.0,0.1154
521.0,0.1156
522.0,0.1148
523.0,0.1119
524.0,0.1151
525.0,0.1155
526.0,0.1095
527.0,0.1023
528.0,0.1073
529.0,0.1123
530.0,0.1098
531.0,0.1107
532.0,0.1061
533.0,0.1023
534.0,0.1046
535.0,0.1062
536.0,0.1064
537.0,0.1015
538.0,0.1026
539.0,0.1011
540.0,0.09628
541.0,0.09621
542.0,0.09846
543.0,0.09671
544.0,0.09777
545.0,0.09687
546.0,0.09661
547.0,0.09588
548.0,0.09408
549.0,0.09374
550.0,0.09422
551.0,0.09243
552.0,0.09242
553.0,0.09013
554.0,0.09166
555.0,0.09121
556.0,0.08936
557.0,0.08593
558.0,0.08463
559.0,0.0824
560.0,0.08279
561.0,0.08322
562.0,0.08198
563.0,0.08359
564.0,0.08074
565.0,0.07948
566.0,0.07775
567.0,0.07864
568.0,0.07737
569.0,0.07495
570.0,0.07444
571.0,0.0735
572.0,0.07469
573.0,0.07501
574.0,0.07432
575.0,0.07249
576.0,0.07139
577.0,0.07173
578.0,0.07027
579.0,0.07018
580.0,0.07115
581.0,0.07113
582.0,0.07207
583.0,0.07188
584.0,0.07214
585.0,0.06999
586.0,0.0681
587.0,0.0691
588.0,0.06695
589.0,0.05879
590.0,0.06114
591.0,0.0644
592.0,0.06311
593.0,0.06367
594.0,0.06275
595.0,0.06074
596.0,0.06285
597.0,0.06174
598.0,0.06118
599.0,0.06083
600.0,0.06056
601.0,0.05972
602.0,0.05897
603.0,0.05959
604.0,0.06023
605.0,0.0596
606.0,0.05906
607.0,0.05935
608.0,0.0584
609.0,0.0582
610.0,0.05751
611.0,0.05753
612.0,0.05709
613.0,0.05609
614.0,0.05504
615.0,0.05597
616.0,0.05387
617.0,0.05349
618.0,0.05528
619.0,0.05445
620.0,0.05451
621.0,0.05428
622.0,0.05334
623.0,0.05223
624.0,0.05106
625.0,0.05071
626.0,0.05121
627.0,0.05149
628.0,0.0475
629.0,0.04962
630.0,0.04821
631.0,0.04914
632.0,0.04833
633.0,0.04962
634.0,0.04895
635.0,0.04947
636.0,0.04858
637.0,0.04914
638.0,0.0494
639.0,0.04862
640.0,0.04792
641.0,0.04765
642.0,0.04723
643.0,0.04766
644.0,0.04729
645.0,0.04711
646.0,0.04573
647.0,0.04488
648.0,0.04466
649.0,0.04358
650.0,0.04368
651.0,0.04536
652.0,0.04311
653.0,0.04432
654.0,0.04362
655.0,0.04171
656.0,0.03682
657.0,0.03765
658.0,0.04204
659.0,0.04215
660.0,0.04212
661.0,0.0422
662.0,0.04207
663.0,0.04106
664.0,0.04138
665.0,0.04123
666.0,0.04107
667.0,0.04085
668.0,0.04069
669.0,0.04112
670.0,0.04074
671.0,0.04054
672.0,0.04004
673.0,0.04049
674.0,0.04014
675.0,0.03958
676.0,0.03966
677.0,0.0391
678.0,0.03905
679.0,0.03824
680.0,0.03837
681.0,0.03793
682.0,0.0377
683.0,0.03744
684.0,0.03706
685.0,0.03719
686.0,0.03679
687.0,0.02321
688.0,0.02756
689.0,0.02754
690.0,0.02891
691.0,0.0305
692.0,0.03164
693.0,0.0312
694.0,0.03074
695.0,0.03201
696.0,0.03188
697.0,0.03397
698.0,0.03328
699.0,0.03217
700.0,0.03162
701.0,0.03113
702.0,0.03126
703.0,0.03116
704.0,0.03208
705.0,0.03197
706.0,0.03183
707.0,0.03171
708.0,0.03162
709.0,0.03156
710.0,0.03137
711.0,0.03124
712.0,0.03105
713.0,0.03057
714.0,0.03052
715.0,0.02935
716.0,0.02922
717.0,0.02474
718.0,0.02242
719.0,0.02026
720.0,0.02121
721.0,0.02362
722.0,0.02738
723.0,0.02509
724.0,0.02222
725.0,0.02173
726.0,0.02277
727.0,0.023
728.0,0.02138
729.0,0.02223
730.0,0.02352
731.0,0.02229
732.0,0.02393
733.0,0.02541
734.0,0.02593
735.0,0.02525
736.0,0.02511
737.0,0.02508
738.0,0.02545
739.0,0.02482
740.0,0.02538
741.0,0.02502
742.0,0.02494
743.0,0.02544
744.0,0.02524
745.0,0.02513
746.0,0.02513
747.0,0.02507
748.0,0.02488
749.0,0.02447
750.0,0.02435
751.0,0.024
752.0,0.024
753.0,0.024
754.0,0.02393
755.0,0.02369
756.0,0.02358
757.0,0.02351
758.0,0.0231
759.0,0.02247
760.0,0.003163
761.0,0.001614
762.0,0.01044
763.0,0.004878
764.0,0.007536
765.0,0.01028
766.0,0.01292
767.0,0.01664
768.0,0.0195
769.0,0.0199
770.0,0.02059
771.0,0.02071
772.0,0.02066
773.0,0.0207
774.0,0.02049
775.0,0.02025
776.0,0.0204
777.0,0.02003
778.0,0.01981
779.0,0.01972
780.0,0.01952
781.0,0.01945
782.0,0.01948
783.0,0.01906
784.0,0.01907
785.0,0.01884
786.0,0.01896
787.0,0.01851
788.0,0.01817
789.0,0.01807
790.0,0.01744
791.0,0.01757
792.0,0.01736
793.0,0.01699
794.0,0.01728
795.0,0.01747
796.0,0.01677
797.0,0.01672
798.0,0.01721
799.0,0.01701
800.0,0.01661
801.0,0.01646
802.0,0.01634
803.0,0.01613
804.0,0.01609
805.0,0.01599
806.0,0.0164
807.0,0.01611
808.0,0.01606
809.0,0.01565
810.0,0.01543
811.0,0.01535
812.0,0.01478
813.0,0.01436
814.0,0.01235
815.0,0.01221
816.0,0.01119
817.0,0.01138
818.0,0.01088
819.0,0.01232
820.0,0.01146
821.0,0.01366
822.0,0.01315
823.0,0.008416
824.0,0.01259
825.0,0.01314
826.0,0.0125
827.0,0.01325
828.0,0.01092
829.0,0.01228
830.0,0.01204
831.0,0.01205
832.0,0.01157
833.0,0.01244
834.0,0.01187
835.0,0.01315
836.0,0.01243
837.0,0.01308
838.0,0.01258
839.0,0.01277
840.0,0.01301
841.0,0.01274
842.0,0.01274
843.0,0.0127
844.0,0.01245
845.0,0.01284
846.0,0.01273
847.0,0.01244
848.0,0.0123
849.0,0.0119
850.0,0.01135
851.0,0.01194
852.0,0.01181
853.0,0.01132
854.0,0.009724
855.0,0.01065
856.0,0.01159
857.0,0.01181
858.0,0.01167
859.0,0.01164
860.0,0.01161
861.0,0.0115
862.0,0.01163
863.0,0.01186
864.0,0.01123
865.0,0.01108
866.0,0.009924
867.0,0.01031
868.0,0.01118
869.0,0.0109
870.0,0.01116
871.0,0.01097
872.0,0.01088
873.0,0.01082
874.0,0.01064
875.0,0.01038
876.0,0.01044
877.0,0.0105
878.0,0.01057
879.0,0.01036
880.0,0.0101
881.0,0.009899
882.0,0.01007
883.0,0.01007
884.0,0.009975
885.0,0.01
886.0,0.009477
887.0,0.009554
888.0,0.009644
889.0,0.009731
890.0,0.009584
891.0,0.009541
892.0,0.009206
893.0,0.008839
894.0,0.008427
895.0,0.007847
896.0,0.00727
897.0,0.006076
898.0,0.006695
899.0,0.004859
900.0,0.00686
901.0,0.005129
902.0,0.006153
903.0,0.006157
904.0,0.008023
905.0,0.007669
906.0,0.007096
907.0,0.005535
908.0,0.005657
909.0,0.006207
910.0,0.005331
911.0,0.00573
912.0,0.006011
913.0,0.005344
914.0,0.005282
915.0,0.005779
916.0,0.004745
917.0,0.006254
918.0,0.004851
919.0,0.00633
920.0,0.006401
921.0,0.006705
922.0,0.005854
923.0,0.006425
924.0,0.005969
925.0,0.005793
926.0,0.005856
927.0,0.006634
928.0,0.004577
929.0,0.004104
930.0,0.00309
931.0,0.002898
932.0,0.001984
933.0,0.001563
934.0,0.0007964
935.0,0.001598
936.0,0.0009426
937.0,0.0009509
938.0,0.001189
939.0,0.002712
940.0,0.003347
941.0,0.002419
942.0,0.002845
943.0,0.001756
944.0,0.001867
945.0,0.002457
946.0,0.001141
947.0,0.002443
948.0,0.001721
949.0,0.003392
950.0,0.0007951
951.0,0.003315
952.0,0.001619
953.0,0.002162
954.0,0.00274
955.0,0.002188
956.0,0.002107
957.0,0.001592
958.0,0.003124
959.0,0.002375
960.0,0.002697
961.0,0.003077
962.0,0.002878
963.0,0.00339
964.0,0.00305
965.0,0.003353
966.0,0.00334
967.0,0.003305
968.0,0.004679
969.0,0.004899
970.0,0.004412
971.0,0.005174
972.0,0.004885
973.0,0.004122
974.0,0.003868
975.0,0.004025
976.0,0.003766
977.0,0.004388
978.0,0.004107
979.0,0.004331
980.0,0.004006
981.0,0.004951
982.0,0.004672
983.0,0.004437
984.0,0.005091
985.0,0.004604
986.0,0.005167
987.0,0.005022
988.0,0.004991
989.0,0.005108
990.0,0.004927
991.0,0.005076
992.0,0.005089
993.0,0.004933
994.0,0.005054
995.0,0.005033
996.0,0.004987
997.0,0.004977
998.0,0.004934
999.0,0.004899
1000.0,0.004841
1001.0,0.00489
1002.0,0.004711
1003.0,0.004765
1004.0,0.004623
1005.0,0.004446
1006.0,0.004596
1007.0,0.004678
1008.0,0.004631
1009.0,0.004584
1010.0,0.004544
1011.0,0.004586
1012.0,0.004523
1013.0,0.004542
1014.0,0.004494
1015.0,0.004447
1016.0,0.004408
1017.0,0.004401
1018.0,0.004371
1019.0,0.004251
1020.0,0.004312
1021.0,0.004291
1022.0,0.004238
1023.0,0.004267
1024.0,0.004186
1025.0,0.004236
1026.0,0.004199
1027.0,0.004174
1028.0,0.004149
1029.0,0.004085
1030.0,0.004101
1031.0,0.004067
1032.0,0.004041
1033.0,0.003964
1034.0,0.003949
1035.0,0.003946
1036.0,0.003951
1037.0,0.003872
1038.0,0.003875
1039.0,0.003859
1040.0,0.003828
1041.0,0.003828
1042.0,0.003787
1043.0,0.003761
1044.0,0.00376
1045.0,0.003695
1046.0,0.003639
1047.0,0.003658
1048.0,0.003665
1049.0,0.003638
1050.0,0.003607
1051.0,0.003588
1052.0,0.003559
1053.0,0.003518
1054.0,0.003512
1055.0,0.0035
1056.0,0.003473
1057.0,0.003448
1058.0,0.003351
1059.0,0.003342
1060.0,0.003323
1061.0,0.003306
1062.0,0.00331
1063.0,0.003265
1064.0,0.003293
1065.0,0.003254
1066.0,0.00318
1067.0,0.003208
1068.0,0.003124
1069.0,0.003018
1070.0,0.003106
1071.0,0.003151
1072.0,0.003097
1073.0,0.003044
1074.0,0.00312
1075.0,0.00293
1076.0,0.003093
1077.0,0.003013
1078.0,0.002941
1079.0,0.003013
1080.0,0.00293
1081.0,0.002821
1082.0,0.002874
1083.0,0.002876
1084.0,0.002774
1085.0,0.00289
1086.0,0.002583
1087.0,0.002693
1088.0,0.002817
1089.0,0.0027
1090.0,0.002611
1091.0,0.00277
1092.0,0.002758
1093.0,0.002262
1094.0,0.002499
1095.0,0.002357
1096.0,0.002228
1097.0,0.00265
1098.0,0.002174
1099.0,0.002269
1100.0,0.002068
1101.0,0.002097
1102.0,0.001981
1103.0,0.001943
1104.0,0.001941
1105.0,0.002163
1106.0,0.001557
1107.0,0.00202
1108.0,0.001647
1109.0,0.001647
1110.0,0.001976
1111.0,0.001241
1112.0,0.00162
1113.0,0.0009465
1114.0,0.00107
1115.0,0.0008624
1116.0,0.0006591
1117.0,0.0002125
1118.0,0.0007224
1119.0,0.000326
1120.0,0.0004173
1121.0,0.0005721
1122.0,0.0002165
1123.0,0.0003694
1124.0,0.0003061
1125.0,0.0004105
1126.0,0.0001266
1127.0,0.0004651
1128.0,0.0002591
1129.0,0.0002762
1130.0,0.0001736
1131.0,0.0009567
1132.0,0.0007213
1133.0,0.0004254
1134.0,9.432e-05
1135.0,3.394e-05
1136.0,0.000342
1137.0,0.0009164
1138.0,0.0006145
1139.0,0.0009798
1140.0,0.0007899
1141.0,0.0005747
1142.0,0.0006731
1143.0,0.001005
1144.0,0.0003027
1145.0,0.0003924
1146.0,0.0004246
1147.0,0.0001323
1148.0,0.0008379
1149.0,0.0006427
1150.0,0.0003217
1151.0,0.0005823
1152.0,0.0007397
1153.0,0.0007199
1154.0,0.000367
1155.0,0.0009742
1156.0,0.0008584
1157.0,0.0009812
1158.0,0.000966
1159.0,0.001058
1160.0,0.0008759
1161.0,0.001122
1162.0,0.001119
1163.0,0.001596
1164.0,0.001327
1165.0,0.00123
1166.0,0.001221
1167.0,0.001345
1168.0,0.001356
1169.0,0.001396
1170.0,0.001532
1171.0,0.00148
1172.0,0.001509
1173.0,0.001512
1174.0,0.001012
1175.0,0.00147
1176.0,0.001637
1177.0,0.001552
1178.0,0.001104
1179.0,0.001635
1180.0,0.00142
1181.0,0.00147
1182.0,0.0009485
1183.0,0.001445
1184.0,0.001326
1185.0,0.001265
1186.0,0.001544
1187.0,0.001452
1188.0,0.0009516
1189.0,0.001336
1190.0,0.001486
1191.0,0.001389
1192.0,0.001501
1193.0,0.001422
1194.0,0.00147
1195.0,0.001374
1196.0,0.00131
1197.0,0.001468
1198.0,0.00132
1199.0,0.001088
1200.0,0.001377
1201.0,0.001314
1202.0,0.001303
1203.0,0.001296
1204.0,0.001099
1205.0,0.001331
1206.0,0.001494
1207.0,0.001283
1208.0,0.001268
1209.0,0.001291
1210.0,0.00135
1211.0,0.001269
1212.0,0.001243
1213.0,0.00141
1214.0,0.001271
1215.0,0.001239
1216.0,0.001391
1217.0,0.001344
1218.0,0.001371
1219.0,0.001347
1220.0,0.001364
1221.0,0.001376
1222.0,0.001331
1223.0,0.001312
1224.0,0.001297
1225.0,0.00135
1226.0,0.001358
1227.0,0.001234
1228.0,0.001358
1229.0,0.001345
1230.0,0.001315
1231.0,0.001357
1232.0,0.001344
1233.0,0.001284
1234.0,0.001344
1235.0,0.00133
1236.0,0.001336
1237.0,0.00131
1238.0,0.001323
1239.0,0.001302
1240.0,0.001303
1241.0,0.001291
1242.0,0.001285
1243.0,0.001271
1244.0,0.001275
1245.0,0.001276
1246.0,0.001265
1247.0,0.001255
1248.0,0.001249
1249.0,0.00125
1250.0,0.001238
1251.0,0.001217
1252.0,0.001215
1253.0,0.001198
1254.0,0.00118
1255.0,0.001201
1256.0,0.001158
1257.0,0.001147
1258.0,0.001169
1259.0,0.001114
1260.0,0.001118
1261.0,0.001041
1262.0,0.001001
1263.0,0.001
1264.0,0.0009079
1265.0,0.0009883
1266.0,0.0009407
1267.0,0.0009595
1268.0,0.0008989
1269.0,0.0005103
1270.0,0.0009462
1271.0,0.001011
1272.0,0.001012
1273.0,0.000997
1274.0,0.0009985
1275.0,0.001012
1276.0,0.001021
1277.0,0.001026
1278.0,0.001047
1279.0,0.001034
1280.0,0.001018
1281.0,0.00097
1282.0,0.000935
1283.0,0.001003
1284.0,0.001023
1285.0,0.001027
1286.0,0.00104
1287.0,0.001017
1288.0,0.001014
1289.0,0.0009726
1290.0,0.0009994
1291.0,0.001011
1292.0,0.0009343
1293.0,0.0009817
1294.0,0.0009708
1295.0,0.0009612
1296.0,0.0009064
1297.0,0.000847
1298.0,0.0009224
1299.0,0.0009657
1300.0,0.0007894
1301.0,0.0008167
1302.0,0.0009093
1303.0,0.0007728
1304.0,0.0006374
1305.0,0.0008788
1306.0,0.0008761
1307.0,0.000648
1308.0,0.0007622
1309.0,0.0008605
1310.0,0.0006283
1311.0,0.0007192
1312.0,0.000697
1313.0,0.0006775
1314.0,0.0005919
1315.0,0.0005836
1316.0,0.0006962
1317.0,0.0006507
1318.0,0.0007166
1319.0,0.0005328
1320.0,0.0005129
1321.0,0.0006117
1322.0,0.0006161
1323.0,0.0004398
1324.0,0.0005134
1325.0,0.0006656
1326.0,0.0005544
1327.0,0.0005227
1328.0,0.0004389
1329.0,0.0003141
1330.0,0.0004232
1331.0,0.0002358
1332.0,0.0002447
1333.0,0.0003545
1334.0,0.0002938
1335.0,0.0004228
1336.0,0.0003209
1337.0,0.0002778
1338.0,0.0003029
1339.0,0.0003013
1340.0,0.0002914
1341.0,0.0002812
1342.0,0.0002965
1343.0,0.0001881
1344.0,0.0001068
1345.0,0.0001593
1346.0,7.288e-05
1347.0,7.375e-05
1348.0,4.207e-06
1349.0,1.562e-05
1350.0,1.626e-05
1351.0,3.766e-06
1352.0,9.95e-07
1353.0,5.007e-08
1354.0,1.726e-07
1355.0,1.382e-09
1356.0,2.423e-08
1357.0,3.683e-08
1358.0,1.623e-09
1359.0,2.044e-10
1360.0,7.388e-10
1361.0,8.262e-13
1362.0,2.26e-15
1363.0,9.933e-10
1364.0,4.101e-10
1365.0,7.89e-16
