interpolation:linear
wavelength,value
280.0,3.938e-21
280.5,1.223e-19
281.0,6.436e-19
281.5,4.282e-19
282.0,1.192e-18
282.5,3.108e-18
283.0,9.988e-18
283.5,1.631e-17
284.0,2.625e-16
284.5,7.543e-16
285.0,1.658e-15
285.5,8.184e-15
286.0,3.284e-14
286.5,1.453e-13
287.0,4.115e-13
287.5,1.556e-12
288.0,4.034e-12
288.5,1.367e-11
289.0,3.941e-11
289.5,1.264e-10
290.0,3.64e-10
290.5,7.611e-10
291.0,1.673e-09
291.5,5.166e-09
292.0,1.121e-08
292.5,1.7e-08
293.0,4.023e-08
293.5,1.117e-07
294.0,1.917e-07
294.5,2.377e-07
295.0,4.362e-07
295.5,1.134e-06
296.0,2.216e-06
296.5,3.15e-06
297.0,4.33e-06
297.5,1.198e-05
298.0,1.951e-05
298.5,2.022e-05
299.0,4.611e-05
299.5,8.243e-05
300.0,9.522e-05
300.5,0.0001462
301.0,0.0002969
301.5,0.0005399
302.0,0.0005004
302.5,0.0009632
303.0,0.001697
303.5,0.002114
304.0,0.001983
304.5,0.002966
305.0,0.004522
305.5,0.005193
306.0,0.00502
306.5,0.006256
307.0,0.009345
307.5,0.01251
308.0,0.01319
308.5,0.01561
309.0,0.01574
309.5,0.01772
310.0,0.01765
310.5,0.02842
311.0,0.03541
311.5,0.03401
312.0,0.03369
312.5,0.04074
313.0,0.04397
313.5,0.04257
314.0,0.05292
314.5,0.04671
315.0,0.06115
315.5,0.05094
316.0,0.04434
316.5,0.06352
317.0,0.07856
317.5,0.0814
318.0,0.06335
318.5,0.07868
319.0,0.09328
319.5,0.07543
320.0,0.09074
320.5,0.1137
321.0,0.1016
321.5,0.09707
322.0,0.1023
322.5,0.08872
323.0,0.08842
323.5,0.1095
324.0,0.1274
324.5,0.1287
325.0,0.1097
325.5,0.1412
326.0,0.1732
326.5,0.1733
327.0,0.1719
327.5,0.1652
328.0,0.1463
328.5,0.1535
329.0,0.1839
329.5,0.2083
330.0,0.2091
330.5,0.1661
331.0,0.1685
331.5,0.171
332.0,0.1848
332.5,0.1825
333.0,0.181
333.5,0.1627
334.0,0.166
334.5,0.1915
335.0,0.1798
335.5,0.2127
336.0,0.1467
336.5,0.168
337.0,0.137
337.5,0.1697
338.0,0.1657
338.5,0.1932
339.0,0.1897
339.5,0.1824
340.0,0.2108
340.5,0.1894
341.0,0.1859
341.5,0.169
342.0,0.2009
342.5,0.187
343.0,0.2056
343.5,0.1934
344.0,0.1414
344.5,0.1442
345.0,0.1884
345.5,0.1911
346.0,0.1615
346.5,0.182
347.0,0.1952
347.5,0.1574
348.0,0.1782
348.5,0.1771
349.0,0.1636
349.5,0.1614
350.0,0.1988
350.5,0.2089
351.0,0.1862
351.5,0.1811
352.0,0.1932
352.5,0.1499
353.0,0.1878
353.5,0.2
354.0,0.2067
354.5,0.2088
355.0,0.2074
355.5,0.1866
356.0,0.1944
356.5,0.1654
357.0,0.1361
357.5,0.166
358.0,0.131
358.5,0.1115
359.0,0.1554
359.5,0.1974
360.0,0.2084
360.5,0.1659
361.0,0.1506
361.5,0.1727
362.0,0.1488
362.5,0.2051
363.0,0.1835
363.5,0.1684
364.0,0.2052
364.5,0.1747
365.0,0.1773
365.5,0.2216
366.0,0.2339
366.5,0.2189
367.0,0.2124
367.5,0.2195
368.0,0.1914
368.5,0.1924
369.0,0.207
369.5,0.2198
370.0,0.2334
370.5,0.1804
371.0,0.192
371.5,0.2393
372.0,0.1582
372.5,0.189
373.0,0.1915
373.5,0.1241
374.0,0.1797
374.5,0.1482
375.0,0.1435
375.5,0.2135
376.0,0.1763
376.5,0.182
377.0,0.1919
377.5,0.2237
378.0,0.2415
378.5,0.2274
379.0,0.1869
379.5,0.17
380.0,0.176
380.5,0.2123
381.0,0.2119
381.5,0.1673
382.0,0.148
382.5,0.1256
383.0,0.1158
383.5,0.1111
384.0,0.1221
384.5,0.1789
385.0,0.1767
385.5,0.1639
386.0,0.1399
386.5,0.183
387.0,0.1514
387.5,0.1694
388.0,0.1558
388.5,0.1534
389.0,0.1649
389.5,0.1989
390.0,0.1989
390.5,0.1823
391.0,0.2137
391.5,0.2171
392.0,0.1821
392.5,0.1624
393.0,0.09
393.5,0.06517
394.0,0.1321
394.5,0.1673
395.0,0.2034
395.5,0.2058
396.0,0.1777
396.5,0.1035
397.0,0.07734
397.5,0.1567
398.0,0.2185
398.5,0.225
399.0,0.2427
399.5,0.2409
400.0,0.2492
401.0,0.2448
402.0,0.2562
403.0,0.2414
404.0,0.2358
405.0,0.2339
406.0,0.2283
407.0,0.2228
408.0,0.2296
409.0,0.2439
410.0,0.2115
411.0,0.2273
412.0,0.2423
413.0,0.2345
414.0,0.2355
415.0,0.2343
416.0,0.2364
417.0,0.2287
418.0,0.2227
419.0,0.2238
420.0,0.2211
421.0,0.2294
422.0,0.2163
423.0,0.2095
424.0,0.2197
425.0,0.2176
426.0,0.2103
427.0,0.2048
428.0,0.198
429.0,0.1861
430.0,0.1616
431.0,0.1589
432.0,0.2035
433.0,0.2029
434.0,0.1869
435.0,0.1937
436.0,0.2167
437.0,0.2122
438.0,0.1918
439.0,0.1968
440.0,0.2015
441.0,0.207
442.0,0.2202
443.0,0.2128
444.0,0.2158
445.0,0.2096
446.0,0.1985
447.0,0.213
448.0,0.2145
449.0,0.2136
450.0,0.2178
451.0,0.2241
452.0,0.2142
453.0,0.2
454.0,0.2073
455.0,0.2068
456.0,0.21
457.0,0.2118
458.0,0.2029
459.0,0.2001
460.0,0.199
461.0,0.202
462.0,0.2021
463.0,0.1993
464.0,0.1948
465.0,0.191
466.0,0.1914
467.0,0.1864
468.0,0.187
469.0,0.1863
470.0,0.179
471.0,0.1775
472.0,0.1857
473.0,0.1819
474.0,0.1807
475.0,0.1808
476.0,0.174
477.0,0.173
478.0,0.1762
479.0,0.1736
480.0,0.1725
481.0,0.1741
482.0,0.1736
483.0,0.1703
484.0,0.1656
485.0,0.1567
486.0,0.136
487.0,0.1415
488.0,0.1541
489.0,0.1533
490.0,0.1601
491.0,0.1561
492.0,0.1463
493.0,0.1499
494.0,0.1503
495.0,0.1505
496.0,0.1503
497.0,0.1514
498.0,0.1431
499.0,0.1437
500.0,0.1383
501.0,0.1346
502.0,0.1315
503.0,0.1356
504.0,0.131
505.0,0.1347
506.0,0.1381
507.0,0.1305
508.0,0.1256
509.0,0.1283
510.0,0.1268
511.0,0.1293
512.0,0.1297
513.0,0.1218
514.0,0.1201
515.0,0.118
516.0,0.1169
517.0,0.1031
518.0,0.1076
519.0,0.112
520.0,0.1152
521.0,0.1154
522.0,0.1146
523.0,0.1118
524.0,0.1149
525.0,0.1153
526.0,0.1093
527.0,0.1021
528.0,0.1071
529.0,0.1121
530.0,0.1096
531.0,0.1105
532.0,0.1059
533.0,0.1021
534.0,0.1044
535.0,0.106
536.0,0.1062
537.0,0.1014
538.0,0.1024
539.0,0.1009
540.0,0.09611
541.0,0.09603
542.0,0.09828
543.0,0.09654
544.0,0.09759
545.0,0.09669
546.0,0.09643
547.0,0.0957
548.0,0.0939
549.0,0.09356
550.0,0.09404
551.0,0.09225
552.0,0.09224
553.0,0.08996
554.0,0.09148
555.0,0.09103
556.0,0.08919
557.0,0.08577
558.0,0.08447
559.0,0.08224
560.0,0.08263
561.0,0.08306
562.0,0.08182
563.0,0.08342
564.0,0.08058
565.0,0.07932
566.0,0.07759
567.0,0.07848
568.0,0.07721
569.0,0.0748
570.0,0.07429
571.0,0.07334
572.0,0.07454
573.0,0.07485
574.0,0.07416
575.0,0.07234
576.0,0.07124
577.0,0.07158
578.0,0.07012
579.0,0.07004
580.0,0.07101
581.0,0.07098
582.0,0.07192
583.0,0.07174
584.0,0.072
585.0,0.06985
586.0,0.06796
587.0,0.06897
588.0,0.06681
589.0,0.05867
590.0,0.06102
591.0,0.06427
592.0,0.06298
593.0,0.06354
594.0,0.06263
595.0,0.06062
596.0,0.06272
597.0,0.06161
598.0,0.06106
599.0,0.06071
600.0,0.06044
601.0,0.0596
602.0,0.05885
603.0,0.05947
604.0,0.0601
605.0,0.05947
606.0,0.05894
607.0,0.05923
608.0,0.05828
609.0,0.05808
610.0,0.05739
611.0,0.05742
612.0,0.05698
613.0,0.05598
614.0,0.05494
615.0,0.05586
616.0,0.05376
617.0,0.05339
618.0,0.05518
619.0,0.05435
620.0,0.05441
621.0,0.05418
622.0,0.05324
623.0,0.05213
624.0,0.05097
625.0,0.05061
626.0,0.05112
627.0,0.0514
628.0,0.04741
629.0,0.04953
630.0,0.04812
631.0,0.04905
632.0,0.04825
633.0,0.04954
634.0,0.04886
635.0,0.04938
636.0,0.0485
637.0,0.04906
638.0,0.04932
639.0,0.04854
640.0,0.04784
641.0,0.04757
642.0,0.04715
643.0,0.04758
644.0,0.04722
645.0,0.04704
646.0,0.04566
647.0,0.04481
648.0,0.04459
649.0,0.04351
650.0,0.04361
651.0,0.04529
652.0,0.04304
653.0,0.04425
654.0,0.04355
655.0,0.04164
656.0,0.03677
657.0,0.03759
658.0,0.04197
659.0,0.04209
660.0,0.04205
661.0,0.04213
662.0,0.04201
663.0,0.041
664.0,0.04132
665.0,0.04117
666.0,0.04101
667.0,0.04079
668.0,0.04063
669.0,0.04106
670.0,0.04068
671.0,0.04048
672.0,0.03998
673.0,0.04044
674.0,0.04008
675.0,0.03952
676.0,0.03961
677.0,0.03905
678.0,0.039
679.0,0.03819
680.0,0.03832
681.0,0.03788
682.0,0.03765
683.0,0.03739
684.0,0.03701
685.0,0.03714
686.0,0.03674
687.0,0.02317
688.0,0.02752
689.0,0.02749
690.0,0.02887
691.0,0.03045
692.0,0.0316
693.0,0.03116
694.0,0.0307
695.0,0.03197
696.0,0.03184
697.0,0.03392
698.0,0.03324
699.0,0.03212
700.0,0.03158
701.0,0.03109
702.0,0.03122
703.0,0.03112
704.0,0.03204
705.0,0.03193
706.0,0.03179
707.0,0.03167
708.0,0.03158
709.0,0.03152
710.0,0.03133
711.0,0.0312
712.0,0.03101
713.0,0.03053
714.0,0.03048
715.0,0.02931
716.0,0.02918
717.0,0.0247
718.0,0.02239
719.0,0.02023
720.0,0.02118
721.0,0.02359
722.0,0.02735
723.0,0.02506
724.0,0.02219
725.0,0.0217
726.0,0.02274
727.0,0.02297
728.0,0.02135
729.0,0.0222
730.0,0.02349
731.0,0.02226
732.0,0.0239
733.0,0.02538
734.0,0.0259
735.0,0.02522
736.0,0.02508
737.0,0.02505
738.0,0.02542
739.0,0.02479
740.0,0.02534
741.0,0.02499
742.0,0.02491
743.0,0.02541
744.0,0.02521
745.0,0.0251
746.0,0.0251
747.0,0.02504
748.0,0.02486
749.0,0.02445
750.0,0.02432
751.0,0.02397
752.0,0.02397
753.0,0.02397
754.0,0.0239
755.0,0.02366
756.0,0.02355
757.0,0.02348
758.0,0.02307
759.0,0.02244
760.0,0.003156
761.0,0.001611
762.0,0.01042
763.0,0.004868
764.0,0.007521
765.0,0.01026
766.0,0.0129
767.0,0.01662
768.0,0.01947
769.0,0.01988
770.0,0.02056
771.0,0.02068
772.0,0.02064
773.0,0.02068
774.0,0.02047
775.0,0.02022
776.0,0.02038
777.0,0.02001
778.0,0.01978
779.0,0.0197
780.0,0.0195
781.0,0.01943
782.0,0.01946
783.0,0.01904
784.0,0.01905
785.0,0.01882
786.0,0.01894
787.0,0.01849
788.0,0.01815
789.0,0.01805
790.0,0.01742
791.0,0.01755
792.0,0.01734
793.0,0.01697
794.0,0.01726
795.0,0.01745
796.0,0.01675
797.0,0.0167
798.0,0.0172
799.0,0.01699
800.0,0.01659
801.0,0.01644
802.0,0.01632
803.0,0.01612
804.0,0.01607
805.0,0.01597
806.0,0.01638
807.0,0.01609
808.0,0.01604
809.0,0.01564
810.0,0.01541
811.0,0.01533
812.0,0.01476
813.0,0.01434
814.0,0.01233
815.0,0.01219
816.0,0.01118
817.0,0.01137
818.0,0.01086
819.0,0.0123
820.0,0.01144
821.0,0.01364
822.0,0.01313
823.0,0.008404
824.0,0.01257
825.0,0.01313
826.0,0.01249
827.0,0.01324
828.0,0.01091
829.0,0.01227
830.0,0.01203
831.0,0.01203
832.0,0.01156
833.0,0.01243
834.0,0.01186
835.0,0.01313
836.0,0.01242
837.0,0.01306
838.0,0.01256
839.0,0.01276
840.0,0.01299
841.0,0.01273
842.0,0.01273
843.0,0.01269
844.0,0.01244
845.0,0.01282
846.0,0.01272
847.0,0.01243
848.0,0.01229
849.0,0.01188
850.0,0.01133
851.0,0.01193
852.0,0.01179
853.0,0.01131
854.0,0.009712
855.0,0.01064
856.0,0.01157
857.0,0.01179
858.0,0.01166
859.0,0.01162
860.0,0.0116
861.0,0.01148
862.0,0.01162
863.0,0.01185
864.0,0.01121
865.0,0.01107
866.0,0.009913
867.0,0.0103
868.0,0.01116
869.0,0.01089
870.0,0.01115
871.0,0.01095
872.0,0.01087
873.0,0.0108
874.0,0.01063
875.0,0.01036
876.0,0.01043
877.0,0.01049
878.0,0.01056
879.0,0.01035
880.0,0.01009
881.0,0.009888
882.0,0.01006
883.0,0.01006
884.0,0.009964
885.0,0.009994
886.0,0.009466
887.0,0.009544
888.0,0.009633
889.0,0.00972
890.0,0.009573
891.0,0.009531
892.0,0.009196
893.0,0.008829
894.0,0.008417
895.0,0.007837
896.0,0.00726
897.0,0.006068
898.0,0.006686
899.0,0.004852
900.0,0.006852
901.0,0.005122
902.0,0.006145
903.0,0.006149
904.0,0.008013
905.0,0.007659
906.0,0.007087
907.0,0.005527
908.0,0.00565
909.0,0.006199
910.0,0.005323
911.0,0.005723
912.0,0.006003
913.0,0.005337
914.0,0.005274
915.0,0.005771
916.0,0.004739
917.0,0.006246
918.0,0.004844
919.0,0.006322
920.0,0.006393
921.0,0.006697
922.0,0.005847
923.0,0.006417
924.0,0.00596
925.0,0.005786
926.0,0.005848
927.0,0.006625
928.0,0.00457
929.0,0.004098
930.0,0.003085
931.0,0.002893
932.0,0.001981
933.0,0.00156
934.0,0.000795
935.0,0.001596
936.0,0.0009411
937.0,0.0009494
938.0,0.001188
939.0,0.002708
940.0,0.003342
941.0,0.002415
942.0,0.00284
943.0,0.001753
944.0,0.001864
945.0,0.002453
946.0,0.00114
947.0,0.002439
948.0,0.001719
949.0,0.003386
950.0,0.0007938
951.0,0.00331
952.0,0.001617
953.0,0.002159
954.0,0.002736
955.0,0.002184
956.0,0.002104
957.0,0.001589
958.0,0.003119
959.0,0.002372
960.0,0.002692
961.0,0.003073
962.0,0.002874
963.0,0.003385
964.0,0.003046
965.0,0.003348
966.0,0.003335
967.0,0.0033
968.0,0.004673
969.0,0.004893
970.0,0.004407
971.0,0.005168
972.0,0.004879
973.0,0.004116
974.0,0.003863
975.0,0.00402
976.0,0.003761
977.0,0.004383
978.0,0.004101
979.0,0.004325
980.0,0.004001
981.0,0.004945
982.0,0.004666
983.0,0.004432
984.0,0.005085
985.0,0.004598
986.0,0.005161
987.0,0.005016
988.0,0.004985
989.0,0.005102
990.0,0.004921
991.0,0.00507
992.0,0.005083
993.0,0.004927
994.0,0.005048
995.0,0.005027
996.0,0.004981
997.0,0.004971
998.0,0.004928
999.0,0.004894
1000.0,0.004835
1001.0,0.004885
1002.0,0.004705
1003.0,0.00476
1004.0,0.004618
1005.0,0.004441
1006.0,0.004591
1007.0,0.004673
1008.0,0.004625
1009.0,0.004579
1010.0,0.004539
1011.0,0.004581
1012.0,0.004517
1013.0,0.004537
1014.0,0.004489
1015.0,0.004442
1016.0,0.004403
1017.0,0.004397
1018.0,0.004366
1019.0,0.004246
1020.0,0.004307
1021.0,0.004286
1022.0,0.004233
1023.0,0.004262
1024.0,0.004181
1025.0,0.004231
1026.0,0.004195
1027.0,0.004169
1028.0,0.004145
1029.0,0.00408
1030.0,0.004096
1031.0,0.004063
1032.0,0.004036
1033.0,0.00396
1034.0,0.003945
1035.0,0.003942
1036.0,0.003946
1037.0,0.003868
1038.0,0.003871
1039.0,0.003854
1040.0,0.003824
1041.0,0.003824
1042.0,0.003783
1043.0,0.003757
1044.0,0.003756
1045.0,0.003691
1046.0,0.003635
1047.0,0.003654
1048.0,0.00366
1049.0,0.003634
1050.0,0.003603
1051.0,0.003584
1052.0,0.003555
1053.0,0.003514
1054.0,0.003508
1055.0,0.003496
1056.0,0.003469
1057.0,0.003444
1058.0,0.003347
1059.0,0.003338
1060.0,0.00332
1061.0,0.003302
1062.0,0.003306
1063.0,0.003261
1064.0,0.003289
1065.0,0.00325
1066.0,0.003176
1067.0,0.003205
1068.0,0.003121
1069.0,0.003015
1070.0,0.003103
1071.0,0.003147
1072.0,0.003093
1073.0,0.00304
1074.0,0.003116
1075.0,0.002927
1076.0,0.003089
1077.0,0.003009
1078.0,0.002938
1079.0,0.00301
1080.0,0.002926
1081.0,0.002818
1082.0,0.002871
1083.0,0.002873
1084.0,0.002771
1085.0,0.002887
1086.0,0.002579
1087.0,0.00269
1088.0,0.002813
1089.0,0.002697
1090.0,0.002608
1091.0,0.002767
1092.0,0.002755
1093.0,0.002259
1094.0,0.002496
1095.0,0.002354
1096.0,0.002225
1097.0,0.002647
1098.0,0.002171
1099.0,0.002266
1100.0,0.002065
1101.0,0.002094
1102.0,0.001978
1103.0,0.00194
1104.0,0.001938
1105.0,0.00216
1106.0,0.001555
1107.0,0.002017
1108.0,0.001645
1109.0,0.001645
1110.0,0.001973
1111.0,0.00124
1112.0,0.001617
1113.0,0.0009449
1114.0,0.001068
1115.0,0.000861
1116.0,0.0006579
1117.0,0.0002122
1118.0,0.0007211
1119.0,0.0003255
1120.0,0.0004166
1121.0,0.000571
1122.0,0.0002162
1123.0,0.0003688
1124.0,0.0003056
1125.0,0.0004098
1126.0,0.0001264
1127.0,0.0004642
1128.0,0.0002586
1129.0,0.0002757
1130.0,0.0001733
1131.0,0.0009549
1132.0,0.0007199
1133.0,0.0004245
1134.0,9.418e-05
1135.0,3.391e-05
1136.0,0.0003413
1137.0,0.0009146
1138.0,0.0006134
1139.0,0.0009782
1140.0,0.0007886
1141.0,0.0005737
1142.0,0.0006719
1143.0,0.001004
1144.0,0.0003023
1145.0,0.0003917
1146.0,0.0004238
1147.0,0.0001321
1148.0,0.0008365
1149.0,0.0006416
1150.0,0.0003212
1151.0,0.0005813
1152.0,0.0007384
1153.0,0.0007187
1154.0,0.0003663
1155.0,0.0009726
1156.0,0.0008569
1157.0,0.0009796
1158.0,0.0009644
1159.0,0.001056
1160.0,0.0008745
1161.0,0.00112
1162.0,0.001117
1163.0,0.001594
1164.0,0.001325
1165.0,0.001228
1166.0,0.001219
1167.0,0.001343
1168.0,0.001354
1169.0,0.001394
1170.0,0.00153
1171.0,0.001478
1172.0,0.001507
1173.0,0.00151
1174.0,0.00101
1175.0,0.001469
1176.0,0.001635
1177.0,0.00155
1178.0,0.001103
1179.0,0.001633
1180.0,0.001419
1181.0,0.001468
1182.0,0.0009472
1183.0,0.001444
1184.0,0.001325
1185.0,0.001263
1186.0,0.001542
1187.0,0.00145
1188.0,0.0009502
1189.0,0.001334
1190.0,0.001484
1191.0,0.001388
1192.0,0.001499
1193.0,0.00142
1194.0,0.001468
1195.0,0.001372
1196.0,0.001308
1197.0,0.001467
1198.0,0.001319
1199.0,0.001087
1200.0,0.001376
1201.0,0.001312
1202.0,0.001302
1203.0,0.001295
1204.0,0.001097
1205.0,0.001329
1206.0,0.001493
1207.0,0.001282
1208.0,0.001267
1209.0,0.001289
1210.0,0.001348
1211.0,0.001267
1212.0,0.001241
1213.0,0.001408
1214.0,0.001269
1215.0,0.001237
1216.0,0.00139
1217.0,0.001342
1218.0,0.001369
1219.0,0.001345
1220.0,0.001362
1221.0,0.001375
1222.0,0.001329
1223.0,0.001311
1224.0,0.001296
1225.0,0.001349
1226.0,0.001356
1227.0,0.001232
1228.0,0.001357
1229.0,0.001344
1230.0,0.001313
1231.0,0.001355
1232.0,0.001342
1233.0,0.001282
1234.0,0.001343
1235.0,0.001328
1236.0,0.001335
1237.0,0.001308
1238.0,0.001322
1239.0,0.001301
1240.0,0.001302
1241.0,0.001289
1242.0,0.001284
1243.0,0.001269
1244.0,0.001273
1245.0,0.001275
1246.0,0.001264
1247.0,0.001254
1248.0,0.001248
1249.0,0.001249
1250.0,0.001237
1251.0,0.001215
1252.0,0.001214
1253.0,0.001197
1254.0,0.001178
1255.0,0.0012
1256.0,0.001157
1257.0,0.001145
1258.0,0.001168
1259.0,0.001113
1260.0,0.001117
1261.0,0.00104
1262.0,0.001
1263.0,0.0009987
1264.0,0.0009065
1265.0,0.0009869
1266.0,0.0009394
1267.0,0.0009581
1268.0,0.0008976
1269.0,0.0005093
1270.0,0.0009449
1271.0,0.001009
1272.0,0.001011
1273.0,0.0009957
1274.0,0.0009972
1275.0,0.001011
1276.0,0.001019
1277.0,0.001025
1278.0,0.001046
1279.0,0.001033
1280.0,0.001016
1281.0,0.0009689
1282.0,0.000934
1283.0,0.001002
1284.0,0.001022
1285.0,0.001026
1286.0,0.001039
1287.0,0.001016
1288.0,0.001013
1289.0,0.0009715
1290.0,0.0009983
1291.0,0.00101
1292.0,0.0009331
1293.0,0.0009806
1294.0,0.0009697
1295.0,0.00096
1296.0,0.0009052
1297.0,0.0008459
1298.0,0.0009213
1299.0,0.0009646
1300.0,0.0007883
1301.0,0.0008157
1302.0,0.0009082
1303.0,0.0007718
1304.0,0.0006365
1305.0,0.0008777
1306.0,0.0008751
1307.0,0.0006471
1308.0,0.0007612
1309.0,0.0008594
1310.0,0.0006274
1311.0,0.0007182
1312.0,0.000696
1313.0,0.0006766
1314.0,0.0005911
1315.0,0.0005827
1316.0,0.0006953
1317.0,0.0006498
1318.0,0.0007157
1319.0,0.000532
1320.0,0.0005122
1321.0,0.0006109
1322.0,0.0006153
1323.0,0.0004391
1324.0,0.0005126
1325.0,0.0006647
1326.0,0.0005536
1327.0,0.0005219
1328.0,0.0004382
1329.0,0.0003135
1330.0,0.0004225
1331.0,0.0002354
1332.0,0.0002443
1333.0,0.0003538
1334.0,0.0002933
1335.0,0.0004221
1336.0,0.0003204
1337.0,0.0002773
1338.0,0.0003024
1339.0,0.0003008
1340.0,0.0002909
1341.0,0.0002807
1342.0,0.0002959
1343.0,0.0001877
1344.0,0.0001066
1345.0,0.000159
1346.0,7.275e-05
1347.0,7.361e-05
1348.0,4.204e-06
1349.0,1.56e-05
1350.0,1.624e-05
1351.0,3.762e-06
1352.0,9.945e-07
1353.0,5.006e-08
1354.0,1.725e-07
1355.0,1.382e-09
1356.0,2.423e-08
1357.0,3.682e-08
1358.0,1.623e-09
1359.0,2.044e-10
1360.0,7.387e-10
1361.0,8.262e-13
1362.0,2.26e-15
1363.0,9.933e-10
1364.0,4.1e-10
1365.0,7.89e-16
