interpolation:linear
wavelength,value
280.0,9.199999999999999e-23
280.5,3.069e-21
281.0,1.656e-20
281.5,5.177e-19
282.0,5.272e-19
282.5,1.273e-18
283.0,3.987e-18
283.5,6.488e-18
284.0,1.07e-16
284.5,3.134e-16
285.0,5.813e-16
285.5,2.77e-15
286.0,1.109e-14
286.5,4.948e-14
287.0,1.417e-13
287.5,5.464e-13
288.0,1.915e-12
288.5,5.561e-12
289.0,1.447e-11
289.5,4.31e-11
290.0,1.19e-10
290.5,2.421e-10
291.0,5.194e-10
291.5,1.492e-09
292.0,3.025e-09
292.5,4.222e-09
293.0,8.998e-09
293.5,2.173e-08
294.0,3.39e-08
294.5,4.433e-08
295.0,7.478e-08
295.5,1.266e-07
296.0,2.406e-07
296.5,3.312e-07
297.0,4.416e-07
297.5,1.157e-06
298.0,1.783e-06
298.5,1.76e-06
299.0,3.802e-06
299.5,6.071e-06
300.0,6.516e-06
300.5,9.188e-06
301.0,1.586e-05
301.5,2.411e-05
302.0,2.008e-05
302.5,3.892e-05
303.0,6.963e-05
303.5,8.821e-05
304.0,8.496e-05
304.5,0.0001358
305.0,0.0002278
305.5,0.0002787
306.0,0.0002767
306.5,0.0003599
307.0,0.0005897
307.5,0.0008648
308.0,0.0009273
308.5,0.00115
309.0,0.001364
309.5,0.001838
310.0,0.00199
310.5,0.003343
311.0,0.004457
311.5,0.004414
312.0,0.005037
312.5,0.006687
313.0,0.007587
313.5,0.007048
314.0,0.009784
314.5,0.009974
315.0,0.01342
315.5,0.01047
316.0,0.01024
316.5,0.01621
317.0,0.02006
317.5,0.02026
318.0,0.01688
318.5,0.02385
319.0,0.03018
319.5,0.02209
320.0,0.02623
320.5,0.03746
321.0,0.03759
321.5,0.03643
322.0,0.03404
322.5,0.02976
323.0,0.03221
323.5,0.04362
324.0,0.05157
324.5,0.05041
325.0,0.04088
325.5,0.05625
326.0,0.07144
326.5,0.07485
327.0,0.0732
327.5,0.06906
328.0,0.05771
328.5,0.06526
329.0,0.08287
329.5,0.09569
330.0,0.09494
330.5,0.07239
331.0,0.07248
331.5,0.07613
332.0,0.08638
332.5,0.08732
333.0,0.08577
333.5,0.07464
334.0,0.07587
334.5,0.09122
335.0,0.08775
335.5,0.1036
336.0,0.07156
336.5,0.08163
337.0,0.06565
337.5,0.08098
338.0,0.08181
338.5,0.0958
339.0,0.09479
339.5,0.09097
340.0,0.1052
340.5,0.09499
341.0,0.0936
341.5,0.08603
342.0,0.1027
342.5,0.09605
343.0,0.1053
343.5,0.09885
344.0,0.07211
344.5,0.07344
345.0,0.09727
345.5,0.09929
346.0,0.08434
346.5,0.09541
347.0,0.1021
347.5,0.08235
348.0,0.09391
348.5,0.09384
349.0,0.08697
349.5,0.08594
350.0,0.1061
350.5,0.1118
351.0,0.09954
351.5,0.09633
352.0,0.1034
352.5,0.0807
353.0,0.1016
353.5,0.1085
354.0,0.1125
354.5,0.1139
355.0,0.1132
355.5,0.1021
356.0,0.1067
356.5,0.09097
357.0,0.07502
357.5,0.09169
358.0,0.07255
358.5,0.06189
359.0,0.08638
359.5,0.1098
360.0,0.1162
360.5,0.09273
361.0,0.08441
361.5,0.09704
362.0,0.08378
362.5,0.1158
363.0,0.1038
363.5,0.09541
364.0,0.1165
364.5,0.09936
365.0,0.101
365.5,0.1265
366.0,0.1338
366.5,0.1255
367.0,0.122
367.5,0.1264
368.0,0.1104
368.5,0.1111
369.0,0.1198
369.5,0.1274
370.0,0.1356
370.5,0.105
371.0,0.112
371.5,0.1399
372.0,0.09264
372.5,0.1109
373.0,0.1125
373.5,0.07308
374.0,0.106
374.5,0.08759
375.0,0.08497
375.5,0.1266
376.0,0.1047
376.5,0.1083
377.0,0.1144
377.5,0.1336
378.0,0.1445
378.5,0.1363
379.0,0.1122
379.5,0.1023
380.0,0.1061
380.5,0.1283
381.0,0.1283
381.5,0.1015
382.0,0.0899
382.5,0.07647
383.0,0.07064
383.5,0.0679
384.0,0.07474
384.5,0.1097
385.0,0.1085
385.5,0.1009
386.0,0.0862
386.5,0.113
387.0,0.09367
387.5,0.105
388.0,0.0967
388.5,0.09537
389.0,0.1027
389.5,0.1241
390.0,0.1243
390.5,0.1141
391.0,0.134
391.5,0.1364
392.0,0.1146
392.5,0.1024
393.0,0.05683
393.5,0.04122
394.0,0.08369
394.5,0.1062
395.0,0.1292
395.5,0.131
396.0,0.1133
396.5,0.06608
397.0,0.04947
397.5,0.1004
398.0,0.1402
398.5,0.1446
399.0,0.1562
399.5,0.1554
400.0,0.1609
401.0,0.1583
402.0,0.1662
403.0,0.1571
404.0,0.1539
405.0,0.1532
406.0,0.1499
407.0,0.1467
408.0,0.1516
409.0,0.1614
410.0,0.1404
411.0,0.1513
412.0,0.1617
413.0,0.1569
414.0,0.158
415.0,0.1576
416.0,0.1595
417.0,0.1547
418.0,0.151
419.0,0.1522
420.0,0.1507
421.0,0.1568
422.0,0.1481
423.0,0.1438
424.0,0.1512
425.0,0.15
426.0,0.1454
427.0,0.1419
428.0,0.1375
429.0,0.1296
430.0,0.1128
431.0,0.1112
432.0,0.1426
433.0,0.1425
434.0,0.1316
435.0,0.1367
436.0,0.1532
437.0,0.1503
438.0,0.1361
439.0,0.1398
440.0,0.1433
441.0,0.1474
442.0,0.1571
443.0,0.1521
444.0,0.1546
445.0,0.1505
446.0,0.1429
447.0,0.1537
448.0,0.1551
449.0,0.1546
450.0,0.1579
451.0,0.1627
452.0,0.1559
453.0,0.1458
454.0,0.1514
455.0,0.1513
456.0,0.1538
457.0,0.1552
458.0,0.1487
459.0,0.1467
460.0,0.1459
461.0,0.1482
462.0,0.1485
463.0,0.1468
464.0,0.1438
465.0,0.1414
466.0,0.142
467.0,0.1385
468.0,0.1391
469.0,0.1387
470.0,0.1334
471.0,0.1324
472.0,0.1387
473.0,0.1361
474.0,0.1354
475.0,0.1355
476.0,0.1303
477.0,0.1295
478.0,0.1319
479.0,0.1298
480.0,0.1289
481.0,0.1301
482.0,0.1298
483.0,0.1276
484.0,0.1244
485.0,0.118
486.0,0.1028
487.0,0.1072
488.0,0.1168
489.0,0.1163
490.0,0.1215
491.0,0.1185
492.0,0.1112
493.0,0.1141
494.0,0.1145
495.0,0.1148
496.0,0.1146
497.0,0.1155
498.0,0.1091
499.0,0.1093
500.0,0.105
501.0,0.102
502.0,0.09939
503.0,0.1023
504.0,0.09863
505.0,0.1014
506.0,0.104
507.0,0.09839
508.0,0.09488
509.0,0.0971
510.0,0.09611
511.0,0.09812
512.0,0.0985
513.0,0.09252
514.0,0.09117
515.0,0.08955
516.0,0.08864
517.0,0.07818
518.0,0.08159
519.0,0.08493
520.0,0.0873
521.0,0.08739
522.0,0.08669
523.0,0.08444
524.0,0.08662
525.0,0.08675
526.0,0.08207
527.0,0.07651
528.0,0.08007
529.0,0.08361
530.0,0.08168
531.0,0.08215
532.0,0.07868
533.0,0.07583
534.0,0.07756
535.0,0.07879
536.0,0.07905
537.0,0.07547
538.0,0.0763
539.0,0.07514
540.0,0.07151
541.0,0.07138
542.0,0.07296
543.0,0.07162
544.0,0.0723
545.0,0.07157
546.0,0.07133
547.0,0.07079
548.0,0.06945
549.0,0.06919
550.0,0.06952
551.0,0.06819
552.0,0.06817
553.0,0.06645
554.0,0.06753
555.0,0.06713
556.0,0.06572
557.0,0.06313
558.0,0.06206
559.0,0.06031
560.0,0.06049
561.0,0.06069
562.0,0.05966
563.0,0.06072
564.0,0.05856
565.0,0.05757
566.0,0.05626
567.0,0.05684
568.0,0.05583
569.0,0.05397
570.0,0.05356
571.0,0.05285
572.0,0.05363
573.0,0.05382
574.0,0.05331
575.0,0.052
576.0,0.05125
577.0,0.05157
578.0,0.05059
579.0,0.05062
580.0,0.05145
581.0,0.05154
582.0,0.05233
583.0,0.05227
584.0,0.05252
585.0,0.05099
586.0,0.04966
587.0,0.0504
588.0,0.04875
589.0,0.04266
590.0,0.04436
591.0,0.04679
592.0,0.04576
593.0,0.04618
594.0,0.04542
595.0,0.04383
596.0,0.04541
597.0,0.0445
598.0,0.04407
599.0,0.04377
600.0,0.04356
601.0,0.04296
602.0,0.04242
603.0,0.0429
604.0,0.0434
605.0,0.043
606.0,0.04269
607.0,0.043
608.0,0.04241
609.0,0.04237
610.0,0.04197
611.0,0.04209
612.0,0.04186
613.0,0.04122
614.0,0.04055
615.0,0.04132
616.0,0.03984
617.0,0.03964
618.0,0.04104
619.0,0.04048
620.0,0.04058
621.0,0.04044
622.0,0.03979
623.0,0.039
624.0,0.03817
625.0,0.03795
626.0,0.03836
627.0,0.03858
628.0,0.03531
629.0,0.03716
630.0,0.03614
631.0,0.03701
632.0,0.03647
633.0,0.03754
634.0,0.03711
635.0,0.03759
636.0,0.03699
637.0,0.0375
638.0,0.03778
639.0,0.03725
640.0,0.03679
641.0,0.03666
642.0,0.0364
643.0,0.03678
644.0,0.03656
645.0,0.03645
646.0,0.03539
647.0,0.03468
648.0,0.03457
649.0,0.03375
650.0,0.03398
651.0,0.03535
652.0,0.03353
653.0,0.03461
654.0,0.03411
655.0,0.0326
656.0,0.02885
657.0,0.02953
658.0,0.03304
659.0,0.03318
660.0,0.0332
661.0,0.0333
662.0,0.03321
663.0,0.03245
664.0,0.03276
665.0,0.0327
666.0,0.03262
667.0,0.0325
668.0,0.03242
669.0,0.03281
670.0,0.03254
671.0,0.03243
672.0,0.03206
673.0,0.03245
674.0,0.03221
675.0,0.03179
676.0,0.03189
677.0,0.03147
678.0,0.03145
679.0,0.03083
680.0,0.03096
681.0,0.03062
682.0,0.03045
683.0,0.03026
684.0,0.02997
685.0,0.0301
686.0,0.02979
687.0,0.01795
688.0,0.02158
689.0,0.02159
690.0,0.02282
691.0,0.02427
692.0,0.02536
693.0,0.02503
694.0,0.02474
695.0,0.02592
696.0,0.02585
697.0,0.02768
698.0,0.02714
699.0,0.02615
700.0,0.02571
701.0,0.02527
702.0,0.02543
703.0,0.02539
704.0,0.02621
705.0,0.02613
706.0,0.02604
707.0,0.02597
708.0,0.0259
709.0,0.0259
710.0,0.02573
711.0,0.02564
712.0,0.0255
713.0,0.02509
714.0,0.02506
715.0,0.02407
716.0,0.02395
717.0,0.01997
718.0,0.01815
719.0,0.01644
720.0,0.01715
721.0,0.01923
722.0,0.02243
723.0,0.02052
724.0,0.01811
725.0,0.01768
726.0,0.0185
727.0,0.01879
728.0,0.0174
729.0,0.01819
730.0,0.01917
731.0,0.01819
732.0,0.01963
733.0,0.02093
734.0,0.0214
735.0,0.02082
736.0,0.02069
737.0,0.02067
738.0,0.02108
739.0,0.02056
740.0,0.02106
741.0,0.02078
742.0,0.02073
743.0,0.02115
744.0,0.021
745.0,0.02092
746.0,0.02092
747.0,0.02087
748.0,0.02072
749.0,0.02039
750.0,0.0203
751.0,0.02002
752.0,0.02003
753.0,0.02005
754.0,0.02001
755.0,0.01981
756.0,0.01972
757.0,0.01967
758.0,0.01933
759.0,0.01874
760.0,0.002626
761.0,0.001389
762.0,0.008229
763.0,0.003949
764.0,0.00598
765.0,0.008108
766.0,0.01026
767.0,0.01345
768.0,0.01608
769.0,0.01651
770.0,0.01719
771.0,0.01733
772.0,0.01731
773.0,0.01735
774.0,0.01717
775.0,0.01696
776.0,0.01708
777.0,0.01676
778.0,0.01657
779.0,0.0165
780.0,0.01633
781.0,0.01628
782.0,0.01632
783.0,0.01598
784.0,0.01599
785.0,0.01581
786.0,0.01591
787.0,0.01549
788.0,0.0152
789.0,0.01512
790.0,0.01455
791.0,0.01472
792.0,0.01456
793.0,0.01425
794.0,0.01454
795.0,0.01469
796.0,0.01403
797.0,0.01398
798.0,0.01447
799.0,0.01429
800.0,0.01394
801.0,0.0138
802.0,0.01369
803.0,0.01351
804.0,0.01348
805.0,0.01342
806.0,0.0138
807.0,0.01355
808.0,0.0135
809.0,0.01312
810.0,0.01292
811.0,0.01282
812.0,0.01228
813.0,0.01192
814.0,0.01018
815.0,0.01008
816.0,0.009255
817.0,0.009402
818.0,0.008969
819.0,0.0102
820.0,0.009486
821.0,0.0114
822.0,0.01097
823.0,0.006949
824.0,0.01046
825.0,0.01101
826.0,0.01044
827.0,0.0111
828.0,0.009063
829.0,0.01028
830.0,0.01008
831.0,0.01008
832.0,0.009666
833.0,0.01042
834.0,0.009915
835.0,0.01107
836.0,0.0104
837.0,0.011
838.0,0.01055
839.0,0.01075
840.0,0.01095
841.0,0.01072
842.0,0.01074
843.0,0.01073
844.0,0.01051
845.0,0.01085
846.0,0.01076
847.0,0.01052
848.0,0.01038
849.0,0.01004
850.0,0.009572
851.0,0.01006
852.0,0.009946
853.0,0.009544
854.0,0.008189
855.0,0.008982
856.0,0.009769
857.0,0.009965
858.0,0.009849
859.0,0.009826
860.0,0.00981
861.0,0.009718
862.0,0.00984
863.0,0.01004
864.0,0.009501
865.0,0.009383
866.0,0.008404
867.0,0.008736
868.0,0.00947
869.0,0.009237
870.0,0.009463
871.0,0.009296
872.0,0.009226
873.0,0.00917
874.0,0.009021
875.0,0.008798
876.0,0.00885
877.0,0.008903
878.0,0.008957
879.0,0.008783
880.0,0.008558
881.0,0.008384
882.0,0.008527
883.0,0.008528
884.0,0.008447
885.0,0.008471
886.0,0.008005
887.0,0.008083
888.0,0.008152
889.0,0.008238
890.0,0.008097
891.0,0.008069
892.0,0.007762
893.0,0.007437
894.0,0.007047
895.0,0.006514
896.0,0.006045
897.0,0.00503
898.0,0.00554
899.0,0.004027
900.0,0.005703
901.0,0.004223
902.0,0.0051
903.0,0.005081
904.0,0.006705
905.0,0.006403
906.0,0.005919
907.0,0.004572
908.0,0.004687
909.0,0.005146
910.0,0.004393
911.0,0.00476
912.0,0.004975
913.0,0.004401
914.0,0.004364
915.0,0.004737
916.0,0.003927
917.0,0.005157
918.0,0.003999
919.0,0.005243
920.0,0.005358
921.0,0.005581
922.0,0.004852
923.0,0.005356
924.0,0.00492
925.0,0.004788
926.0,0.004819
927.0,0.005479
928.0,0.003726
929.0,0.00333
930.0,0.002509
931.0,0.002358
932.0,0.001625
933.0,0.001291
934.0,0.0006751
935.0,0.001322
936.0,0.0007959
937.0,0.0008027
938.0,0.0009924
939.0,0.002205
940.0,0.00271
941.0,0.001963
942.0,0.002298
943.0,0.001445
944.0,0.001547
945.0,0.001998
946.0,0.0009534
947.0,0.001981
948.0,0.001426
949.0,0.002723
950.0,0.0006745
951.0,0.002664
952.0,0.001334
953.0,0.001766
954.0,0.002223
955.0,0.001781
956.0,0.001758
957.0,0.001309
958.0,0.00257
959.0,0.001949
960.0,0.002194
961.0,0.002515
962.0,0.00236
963.0,0.002782
964.0,0.00251
965.0,0.002746
966.0,0.002735
967.0,0.002702
968.0,0.003905
969.0,0.004047
970.0,0.003654
971.0,0.004323
972.0,0.004074
973.0,0.003396
974.0,0.003193
975.0,0.003335
976.0,0.003092
977.0,0.003658
978.0,0.003398
979.0,0.003588
980.0,0.003325
981.0,0.004136
982.0,0.003886
983.0,0.003685
984.0,0.004279
985.0,0.003825
986.0,0.004361
987.0,0.00422
988.0,0.004196
989.0,0.004322
990.0,0.004138
991.0,0.004287
992.0,0.004302
993.0,0.004152
994.0,0.004276
995.0,0.004262
996.0,0.004221
997.0,0.004216
998.0,0.004178
999.0,0.00415
1000.0,0.004095
1001.0,0.004143
1002.0,0.003969
1003.0,0.004036
1004.0,0.00391
1005.0,0.003768
1006.0,0.003892
1007.0,0.003963
1008.0,0.003919
1009.0,0.003875
1010.0,0.00384
1011.0,0.003886
1012.0,0.003828
1013.0,0.00385
1014.0,0.003809
1015.0,0.003768
1016.0,0.003735
1017.0,0.003729
1018.0,0.003706
1019.0,0.003596
1020.0,0.003655
1021.0,0.003639
1022.0,0.00359
1023.0,0.003614
1024.0,0.003538
1025.0,0.003591
1026.0,0.003557
1027.0,0.003536
1028.0,0.003515
1029.0,0.003459
1030.0,0.003476
1031.0,0.003446
1032.0,0.003425
1033.0,0.00336
1034.0,0.003348
1035.0,0.003345
1036.0,0.003348
1037.0,0.003281
1038.0,0.003284
1039.0,0.003269
1040.0,0.003243
1041.0,0.003242
1042.0,0.003207
1043.0,0.003185
1044.0,0.003183
1045.0,0.003127
1046.0,0.003079
1047.0,0.003095
1048.0,0.0031
1049.0,0.003076
1050.0,0.00305
1051.0,0.003032
1052.0,0.003008
1053.0,0.002972
1054.0,0.002966
1055.0,0.002954
1056.0,0.00293
1057.0,0.002908
1058.0,0.002825
1059.0,0.002816
1060.0,0.0028
1061.0,0.002785
1062.0,0.002787
1063.0,0.002748
1064.0,0.002772
1065.0,0.002736
1066.0,0.002676
1067.0,0.0027
1068.0,0.002627
1069.0,0.002539
1070.0,0.002612
1071.0,0.002655
1072.0,0.002606
1073.0,0.002562
1074.0,0.002632
1075.0,0.002459
1076.0,0.002609
1077.0,0.002534
1078.0,0.002469
1079.0,0.002545
1080.0,0.002465
1081.0,0.002365
1082.0,0.002422
1083.0,0.002427
1084.0,0.002324
1085.0,0.002432
1086.0,0.002161
1087.0,0.002259
1088.0,0.002375
1089.0,0.002263
1090.0,0.002186
1091.0,0.002333
1092.0,0.002325
1093.0,0.001881
1094.0,0.002102
1095.0,0.001955
1096.0,0.001843
1097.0,0.002233
1098.0,0.001792
1099.0,0.001873
1100.0,0.001703
1101.0,0.00173
1102.0,0.001627
1103.0,0.001592
1104.0,0.001591
1105.0,0.001784
1106.0,0.00126
1107.0,0.001662
1108.0,0.001342
1109.0,0.001345
1110.0,0.001618
1111.0,0.001009
1112.0,0.001323
1113.0,0.0007714
1114.0,0.0008655
1115.0,0.0007042
1116.0,0.0005385
1117.0,0.0001827
1118.0,0.0005871
1119.0,0.0002741
1120.0,0.0003443
1121.0,0.0004633
1122.0,0.0001848
1123.0,0.0003074
1124.0,0.0002576
1125.0,0.0003392
1126.0,0.0001108
1127.0,0.0003815
1128.0,0.0002184
1129.0,0.0002318
1130.0,0.00015
1131.0,0.0007579
1132.0,0.0005798
1133.0,0.0003484
1134.0,8.367e-05
1135.0,3.128e-05
1136.0,0.0002831
1137.0,0.000723
1138.0,0.000497
1139.0,0.0007897
1140.0,0.0006364
1141.0,0.000467
1142.0,0.0005438
1143.0,0.0008003
1144.0,0.0002545
1145.0,0.000322
1146.0,0.0003465
1147.0,0.000115
1148.0,0.0006722
1149.0,0.0005199
1150.0,0.0002707
1151.0,0.0004713
1152.0,0.0005941
1153.0,0.0005851
1154.0,0.000303
1155.0,0.0007818
1156.0,0.0006894
1157.0,0.0007944
1158.0,0.000782
1159.0,0.0008544
1160.0,0.0007141
1161.0,0.0009156
1162.0,0.0009124
1163.0,0.001315
1164.0,0.00109
1165.0,0.001001
1166.0,0.001005
1167.0,0.001108
1168.0,0.001114
1169.0,0.001146
1170.0,0.001266
1171.0,0.001226
1172.0,0.001258
1173.0,0.00125
1174.0,0.0008314
1175.0,0.001225
1176.0,0.001377
1177.0,0.001295
1178.0,0.0009172
1179.0,0.001374
1180.0,0.001182
1181.0,0.001222
1182.0,0.0007842
1183.0,0.001203
1184.0,0.001102
1185.0,0.001046
1186.0,0.00129
1187.0,0.001208
1188.0,0.0007798
1189.0,0.001112
1190.0,0.001245
1191.0,0.00115
1192.0,0.001258
1193.0,0.001189
1194.0,0.001231
1195.0,0.001141
1196.0,0.001084
1197.0,0.001231
1198.0,0.001107
1199.0,0.0008981
1200.0,0.00115
1201.0,0.00109
1202.0,0.001091
1203.0,0.001076
1204.0,0.0009122
1205.0,0.001117
1206.0,0.001259
1207.0,0.001068
1208.0,0.001061
1209.0,0.00108
1210.0,0.001133
1211.0,0.00106
1212.0,0.001025
1213.0,0.00118
1214.0,0.001052
1215.0,0.001025
1216.0,0.001167
1217.0,0.001124
1218.0,0.00115
1219.0,0.001127
1220.0,0.001144
1221.0,0.001158
1222.0,0.001118
1223.0,0.001101
1224.0,0.001083
1225.0,0.001134
1226.0,0.001144
1227.0,0.001029
1228.0,0.001147
1229.0,0.001134
1230.0,0.001106
1231.0,0.001148
1232.0,0.001137
1233.0,0.001077
1234.0,0.00114
1235.0,0.001126
1236.0,0.001133
1237.0,0.001107
1238.0,0.001122
1239.0,0.001104
1240.0,0.001105
1241.0,0.001092
1242.0,0.00109
1243.0,0.001078
1244.0,0.00108
1245.0,0.001082
1246.0,0.001073
1247.0,0.001064
1248.0,0.001057
1249.0,0.001059
1250.0,0.001048
1251.0,0.001029
1252.0,0.001029
1253.0,0.001011
1254.0,0.0009931
1255.0,0.001016
1256.0,0.0009733
1257.0,0.0009626
1258.0,0.0009865
1259.0,0.0009307
1260.0,0.0009348
1261.0,0.0008597
1262.0,0.0008217
1263.0,0.0008204
1264.0,0.0007347
1265.0,0.0008107
1266.0,0.0007654
1267.0,0.0007849
1268.0,0.0007289
1269.0,0.0003973
1270.0,0.000772
1271.0,0.0008351
1272.0,0.0008371
1273.0,0.0008234
1274.0,0.0008264
1275.0,0.0008392
1276.0,0.0008486
1277.0,0.0008562
1278.0,0.0008778
1279.0,0.0008669
1280.0,0.0008535
1281.0,0.0008157
1282.0,0.0007897
1283.0,0.0008466
1284.0,0.0008629
1285.0,0.000867
1286.0,0.0008794
1287.0,0.0008567
1288.0,0.0008558
1289.0,0.000814
1290.0,0.0008435
1291.0,0.0008547
1292.0,0.0007789
1293.0,0.0008275
1294.0,0.0008181
1295.0,0.0008052
1296.0,0.0007536
1297.0,0.0007012
1298.0,0.0007721
1299.0,0.000815
1300.0,0.0006542
1301.0,0.0006779
1302.0,0.0007614
1303.0,0.0006416
1304.0,0.0005209
1305.0,0.000736
1306.0,0.0007313
1307.0,0.0005337
1308.0,0.0006355
1309.0,0.000715
1310.0,0.0005163
1311.0,0.0005974
1312.0,0.0005777
1313.0,0.0005581
1314.0,0.0004863
1315.0,0.0004765
1316.0,0.0005757
1317.0,0.0005377
1318.0,0.0005952
1319.0,0.0004348
1320.0,0.0004216
1321.0,0.0005033
1322.0,0.0005036
1323.0,0.0003563
1324.0,0.0004203
1325.0,0.0005485
1326.0,0.0004542
1327.0,0.0004276
1328.0,0.0003587
1329.0,0.0002547
1330.0,0.000341
1331.0,0.0001917
1332.0,0.0001994
1333.0,0.0002826
1334.0,0.0002421
1335.0,0.0003411
1336.0,0.0002596
1337.0,0.0002266
1338.0,0.0002449
1339.0,0.0002441
1340.0,0.0002385
1341.0,0.0002263
1342.0,0.0002384
1343.0,0.0001522
1344.0,9.023e-05
1345.0,0.0001303
1346.0,6.213e-05
1347.0,6.277e-05
1348.0,3.997e-06
1349.0,1.435e-05
1350.0,1.489e-05
1351.0,3.591e-06
1352.0,9.659e-07
1353.0,4.915e-08
