interpolation:linear
wavelength,value
280.0,7.382999999999999e-23
280.5,2.4700000000000002e-21
281.0,1.3350000000000001e-20
281.5,4.317e-19
282.0,5.14e-19
282.5,1.225e-18
283.0,3.818e-18
283.5,6.207e-18
284.0,1.021e-16
284.5,2.992e-16
285.0,6.041e-16
285.5,2.789e-15
286.0,1.11e-14
286.5,4.914e-14
287.0,1.403e-13
287.5,5.393e-13
288.0,1.849e-12
288.5,5.329e-12
289.0,1.382e-11
289.5,4.106e-11
290.0,1.133e-10
290.5,2.306e-10
291.0,4.95e-10
291.5,1.423e-09
292.0,2.899e-09
292.5,4.039e-09
293.0,8.594e-09
293.5,2.071e-08
294.0,3.229e-08
294.5,4.138e-08
295.0,6.97e-08
295.5,1.186e-07
296.0,2.242e-07
296.5,3.067e-07
297.0,4.069e-07
297.5,1.058e-06
298.0,1.618e-06
298.5,1.587e-06
299.0,3.408e-06
299.5,5.383e-06
300.0,5.741e-06
300.5,8.041e-06
301.0,1.373e-05
301.5,2.067e-05
302.0,1.713e-05
302.5,3.298e-05
303.0,5.844e-05
303.5,7.36e-05
304.0,7.067e-05
304.5,0.0001121
305.0,0.0001862
305.5,0.0002264
306.0,0.0002243
306.5,0.0002907
307.0,0.0004727
307.5,0.0006885
308.0,0.0007375
308.5,0.0009116
309.0,0.001069
309.5,0.00146
310.0,0.001591
310.5,0.002682
311.0,0.003596
311.5,0.00357
312.0,0.004122
312.5,0.005516
313.0,0.006286
313.5,0.005818
314.0,0.008155
314.5,0.008421
315.0,0.01136
315.5,0.008807
316.0,0.008704
316.5,0.01391
317.0,0.01721
317.5,0.01734
318.0,0.01455
318.5,0.02079
319.0,0.02648
319.5,0.0192
320.0,0.02276
320.5,0.03291
321.0,0.0334
321.5,0.0324
322.0,0.02993
322.5,0.02619
323.0,0.02856
323.5,0.03939
324.0,0.04666
324.5,0.04542
325.0,0.03633
325.5,0.05031
326.0,0.06476
326.5,0.06822
327.0,0.0666
327.5,0.06268
328.0,0.05199
328.5,0.05934
329.0,0.07586
329.5,0.08777
330.0,0.08696
330.5,0.06598
331.0,0.06596
331.5,0.06956
332.0,0.07936
332.5,0.08042
333.0,0.0789
333.5,0.0684
334.0,0.0695
334.5,0.08394
335.0,0.08096
335.5,0.09571
336.0,0.06614
336.5,0.07525
337.0,0.06043
337.5,0.0745
338.0,0.07554
338.5,0.08865
339.0,0.08777
339.5,0.08423
340.0,0.09719
340.5,0.08783
341.0,0.08672
341.5,0.07978
342.0,0.09531
342.5,0.08914
343.0,0.09766
343.5,0.0917
344.0,0.06677
344.5,0.0681
345.0,0.0903
345.5,0.09223
346.0,0.07837
346.5,0.08869
347.0,0.09487
347.5,0.07654
348.0,0.08734
348.5,0.08732
349.0,0.08094
349.5,0.07999
350.0,0.09882
350.5,0.1041
351.0,0.09269
351.5,0.08966
352.0,0.09634
352.5,0.07519
353.0,0.09466
353.5,0.1011
354.0,0.1049
354.5,0.1062
355.0,0.1056
355.5,0.09531
356.0,0.0996
356.5,0.08491
357.0,0.07003
357.5,0.08562
358.0,0.06776
358.5,0.05782
359.0,0.08071
359.5,0.1026
360.0,0.1086
360.5,0.08668
361.0,0.07892
361.5,0.09075
362.0,0.07837
362.5,0.1083
363.0,0.09711
363.5,0.0893
364.0,0.109
364.5,0.09302
365.0,0.09457
365.5,0.1185
366.0,0.1253
366.5,0.1176
367.0,0.1143
367.5,0.1184
368.0,0.1034
368.5,0.1042
369.0,0.1123
369.5,0.1195
370.0,0.1272
370.5,0.09855
371.0,0.1051
371.5,0.1313
372.0,0.08697
372.5,0.1041
373.0,0.1057
373.5,0.06864
374.0,0.09956
374.5,0.0823
375.0,0.07986
375.5,0.119
376.0,0.09847
376.5,0.1018
377.0,0.1076
377.5,0.1257
378.0,0.136
378.5,0.1283
379.0,0.1056
379.5,0.0963
380.0,0.09992
380.5,0.1208
381.0,0.1208
381.5,0.09557
382.0,0.08471
382.5,0.07207
383.0,0.06659
383.5,0.06401
384.0,0.07047
384.5,0.1034
385.0,0.1024
385.5,0.09516
386.0,0.08133
386.5,0.1066
387.0,0.08841
387.5,0.0991
388.0,0.09131
388.5,0.09007
389.0,0.09702
389.5,0.1173
390.0,0.1174
390.5,0.1079
391.0,0.1267
391.5,0.1289
392.0,0.1084
392.5,0.09681
393.0,0.05376
393.5,0.03899
394.0,0.07918
394.5,0.1005
395.0,0.1223
395.5,0.124
396.0,0.1073
396.5,0.06257
397.0,0.04686
397.5,0.09509
398.0,0.1329
398.5,0.137
399.0,0.1481
399.5,0.1473
400.0,0.1526
401.0,0.1501
402.0,0.1577
403.0,0.1491
404.0,0.1461
405.0,0.1454
406.0,0.1424
407.0,0.1394
408.0,0.1441
409.0,0.1535
410.0,0.1335
411.0,0.1439
412.0,0.1538
413.0,0.1493
414.0,0.1504
415.0,0.1501
416.0,0.1519
417.0,0.1474
418.0,0.1439
419.0,0.1451
420.0,0.1437
421.0,0.1496
422.0,0.1414
423.0,0.1373
424.0,0.1443
425.0,0.1433
426.0,0.1389
427.0,0.1356
428.0,0.1315
429.0,0.1239
430.0,0.1079
431.0,0.1063
432.0,0.1365
433.0,0.1364
434.0,0.126
435.0,0.1309
436.0,0.1468
437.0,0.144
438.0,0.1304
439.0,0.1339
440.0,0.1373
441.0,0.1413
442.0,0.1506
443.0,0.1459
444.0,0.1483
445.0,0.1444
446.0,0.1372
447.0,0.1476
448.0,0.1489
449.0,0.1485
450.0,0.1517
451.0,0.1564
452.0,0.1498
453.0,0.1402
454.0,0.1456
455.0,0.1455
456.0,0.1479
457.0,0.1493
458.0,0.143
459.0,0.1411
460.0,0.1404
461.0,0.1426
462.0,0.1429
463.0,0.1413
464.0,0.1385
465.0,0.1362
466.0,0.1368
467.0,0.1335
468.0,0.134
469.0,0.1337
470.0,0.1286
471.0,0.1277
472.0,0.1338
473.0,0.1313
474.0,0.1306
475.0,0.1307
476.0,0.1257
477.0,0.1249
478.0,0.1272
479.0,0.1253
480.0,0.1243
481.0,0.1255
482.0,0.1253
483.0,0.1231
484.0,0.1201
485.0,0.114
486.0,0.09928
487.0,0.1035
488.0,0.1129
489.0,0.1124
490.0,0.1174
491.0,0.1146
492.0,0.1075
493.0,0.1103
494.0,0.1108
495.0,0.111
496.0,0.1109
497.0,0.1117
498.0,0.1055
499.0,0.1058
500.0,0.1016
501.0,0.09872
502.0,0.09625
503.0,0.09907
504.0,0.0955
505.0,0.09822
506.0,0.1007
507.0,0.09529
508.0,0.09191
509.0,0.09408
510.0,0.09314
511.0,0.0951
512.0,0.09548
513.0,0.08968
514.0,0.08837
515.0,0.0868
516.0,0.08592
517.0,0.07578
518.0,0.07909
519.0,0.08232
520.0,0.08463
521.0,0.08471
522.0,0.08402
523.0,0.08185
524.0,0.08394
525.0,0.08405
526.0,0.07951
527.0,0.07411
528.0,0.07755
529.0,0.08097
530.0,0.07909
531.0,0.07954
532.0,0.07618
533.0,0.07341
534.0,0.0751
535.0,0.0763
536.0,0.07655
537.0,0.07309
538.0,0.0739
539.0,0.07277
540.0,0.06926
541.0,0.06912
542.0,0.07066
543.0,0.06935
544.0,0.07
545.0,0.0693
546.0,0.06906
547.0,0.06853
548.0,0.06724
549.0,0.067
550.0,0.06731
551.0,0.06602
552.0,0.066
553.0,0.06434
554.0,0.06538
555.0,0.065
556.0,0.06363
557.0,0.06111
558.0,0.06007
559.0,0.05837
560.0,0.05853
561.0,0.05872
562.0,0.05772
563.0,0.05873
564.0,0.05664
565.0,0.05568
566.0,0.05441
567.0,0.05496
568.0,0.05398
569.0,0.05217
570.0,0.05178
571.0,0.05109
572.0,0.05184
573.0,0.05202
574.0,0.05153
575.0,0.05026
576.0,0.04955
577.0,0.04986
578.0,0.04892
579.0,0.04896
580.0,0.04976
581.0,0.04987
582.0,0.05064
583.0,0.05059
584.0,0.05083
585.0,0.04936
586.0,0.04807
587.0,0.0488
588.0,0.0472
589.0,0.04129
590.0,0.04294
591.0,0.04529
592.0,0.04429
593.0,0.0447
594.0,0.04396
595.0,0.04241
596.0,0.04394
597.0,0.04305
598.0,0.04263
599.0,0.04234
600.0,0.04214
601.0,0.04155
602.0,0.04103
603.0,0.0415
604.0,0.04199
605.0,0.04161
606.0,0.04131
607.0,0.04162
608.0,0.04106
609.0,0.04103
610.0,0.04065
611.0,0.04077
612.0,0.04056
613.0,0.03995
614.0,0.03931
615.0,0.04006
616.0,0.03864
617.0,0.03845
618.0,0.03981
619.0,0.03928
620.0,0.03938
621.0,0.03925
622.0,0.03862
623.0,0.03786
624.0,0.03706
625.0,0.03684
626.0,0.03725
627.0,0.03747
628.0,0.03427
629.0,0.03609
630.0,0.0351
631.0,0.03596
632.0,0.03544
633.0,0.03648
634.0,0.03608
635.0,0.03655
636.0,0.03598
637.0,0.03647
638.0,0.03675
639.0,0.03625
640.0,0.03581
641.0,0.03568
642.0,0.03544
643.0,0.03581
644.0,0.0356
645.0,0.03551
646.0,0.03447
647.0,0.03378
648.0,0.03368
649.0,0.03288
650.0,0.03312
651.0,0.03445
652.0,0.03268
653.0,0.03375
654.0,0.03326
655.0,0.03179
656.0,0.02814
657.0,0.0288
658.0,0.03223
659.0,0.03237
660.0,0.03239
661.0,0.0325
662.0,0.03241
663.0,0.03167
664.0,0.03198
665.0,0.03193
666.0,0.03185
667.0,0.03174
668.0,0.03167
669.0,0.03205
670.0,0.03179
671.0,0.03169
672.0,0.03133
673.0,0.03171
674.0,0.03148
675.0,0.03108
676.0,0.03118
677.0,0.03077
678.0,0.03076
679.0,0.03015
680.0,0.03028
681.0,0.02995
682.0,0.02979
683.0,0.0296
684.0,0.02932
685.0,0.02945
686.0,0.02915
687.0,0.01753
688.0,0.02107
689.0,0.02109
690.0,0.02229
691.0,0.02372
692.0,0.02479
693.0,0.02447
694.0,0.02421
695.0,0.02537
696.0,0.02531
697.0,0.02711
698.0,0.02657
699.0,0.0256
700.0,0.02518
701.0,0.02474
702.0,0.0249
703.0,0.02486
704.0,0.02567
705.0,0.02559
706.0,0.02551
707.0,0.02544
708.0,0.02537
709.0,0.02538
710.0,0.02521
711.0,0.02512
712.0,0.02499
713.0,0.02458
714.0,0.02456
715.0,0.02358
716.0,0.02347
717.0,0.01956
718.0,0.01778
719.0,0.01611
720.0,0.0168
721.0,0.01884
722.0,0.02198
723.0,0.02011
724.0,0.01774
725.0,0.01733
726.0,0.01813
727.0,0.01842
728.0,0.01705
729.0,0.01783
730.0,0.01878
731.0,0.01782
732.0,0.01924
733.0,0.02052
734.0,0.02098
735.0,0.02041
736.0,0.02029
737.0,0.02027
738.0,0.02068
739.0,0.02017
740.0,0.02066
741.0,0.02039
742.0,0.02034
743.0,0.02076
744.0,0.02061
745.0,0.02053
746.0,0.02052
747.0,0.02048
748.0,0.02034
749.0,0.02001
750.0,0.01992
751.0,0.01965
752.0,0.01966
753.0,0.01968
754.0,0.01964
755.0,0.01945
756.0,0.01936
757.0,0.01931
758.0,0.01898
759.0,0.01839
760.0,0.002599
761.0,0.001377
762.0,0.008075
763.0,0.003899
764.0,0.005884
765.0,0.007957
766.0,0.01005
767.0,0.01317
768.0,0.01577
769.0,0.0162
770.0,0.01687
771.0,0.01702
772.0,0.017
773.0,0.01703
774.0,0.01686
775.0,0.01665
776.0,0.01677
777.0,0.01646
778.0,0.01627
779.0,0.0162
780.0,0.01604
781.0,0.01599
782.0,0.01603
783.0,0.01569
784.0,0.01571
785.0,0.01553
786.0,0.01563
787.0,0.01522
788.0,0.01493
789.0,0.01485
790.0,0.01429
791.0,0.01446
792.0,0.0143
793.0,0.014
794.0,0.01429
795.0,0.01444
796.0,0.01378
797.0,0.01373
798.0,0.01422
799.0,0.01404
800.0,0.01369
801.0,0.01355
802.0,0.01345
803.0,0.01327
804.0,0.01324
805.0,0.01318
806.0,0.01356
807.0,0.01331
808.0,0.01326
809.0,0.01289
810.0,0.01269
811.0,0.01259
812.0,0.01206
813.0,0.01171
814.0,0.009995
815.0,0.009897
816.0,0.009088
817.0,0.009231
818.0,0.008805
819.0,0.01001
820.0,0.009314
821.0,0.0112
822.0,0.01077
823.0,0.006827
824.0,0.01027
825.0,0.01082
826.0,0.01026
827.0,0.01091
828.0,0.008902
829.0,0.0101
830.0,0.009905
831.0,0.009902
832.0,0.009497
833.0,0.01023
834.0,0.009742
835.0,0.01088
836.0,0.01021
837.0,0.01082
838.0,0.01036
839.0,0.01056
840.0,0.01076
841.0,0.01053
842.0,0.01055
843.0,0.01055
844.0,0.01033
845.0,0.01066
846.0,0.01058
847.0,0.01034
848.0,0.01021
849.0,0.009869
850.0,0.00941
851.0,0.009886
852.0,0.009776
853.0,0.009381
854.0,0.008049
855.0,0.00883
856.0,0.009603
857.0,0.009796
858.0,0.009682
859.0,0.009661
860.0,0.009646
861.0,0.009555
862.0,0.009676
863.0,0.009871
864.0,0.009344
865.0,0.009228
866.0,0.008265
867.0,0.008592
868.0,0.009313
869.0,0.009085
870.0,0.009307
871.0,0.009143
872.0,0.009075
873.0,0.009019
874.0,0.008873
875.0,0.008654
876.0,0.008705
877.0,0.008757
878.0,0.00881
879.0,0.008639
880.0,0.008418
881.0,0.008246
882.0,0.008386
883.0,0.008388
884.0,0.008308
885.0,0.008331
886.0,0.007871
887.0,0.00795
888.0,0.008017
889.0,0.008102
890.0,0.007962
891.0,0.007935
892.0,0.007632
893.0,0.007312
894.0,0.006925
895.0,0.006399
896.0,0.005939
897.0,0.004943
898.0,0.005442
899.0,0.003959
900.0,0.005603
901.0,0.004149
902.0,0.005009
903.0,0.00499
904.0,0.006589
905.0,0.006292
906.0,0.005817
907.0,0.004492
908.0,0.004606
909.0,0.005055
910.0,0.004317
911.0,0.00468
912.0,0.004888
913.0,0.004325
914.0,0.004289
915.0,0.004653
916.0,0.003861
917.0,0.005065
918.0,0.00393
919.0,0.00515
920.0,0.005267
921.0,0.005484
922.0,0.004768
923.0,0.005263
924.0,0.004832
925.0,0.004703
926.0,0.004732
927.0,0.00538
928.0,0.003659
929.0,0.003271
930.0,0.002467
931.0,0.002319
932.0,0.001601
933.0,0.001274
934.0,0.0006687
935.0,0.001304
936.0,0.000787
937.0,0.0007937
938.0,0.0009802
939.0,0.002168
940.0,0.002662
941.0,0.00193
942.0,0.002258
943.0,0.001423
944.0,0.001524
945.0,0.001965
946.0,0.0009413
947.0,0.001948
948.0,0.001405
949.0,0.002675
950.0,0.0006674
951.0,0.002616
952.0,0.001316
953.0,0.001738
954.0,0.002185
955.0,0.001753
956.0,0.001732
957.0,0.001291
958.0,0.002526
959.0,0.001918
960.0,0.002157
961.0,0.002471
962.0,0.002321
963.0,0.002734
964.0,0.002467
965.0,0.002698
966.0,0.002688
967.0,0.002655
968.0,0.003838
969.0,0.003974
970.0,0.003591
971.0,0.004249
972.0,0.004003
973.0,0.003336
974.0,0.003138
975.0,0.003277
976.0,0.003037
977.0,0.003596
978.0,0.003339
979.0,0.003525
980.0,0.003268
981.0,0.004065
982.0,0.003819
983.0,0.003622
984.0,0.004207
985.0,0.003758
986.0,0.004289
987.0,0.00415
988.0,0.004127
989.0,0.004252
990.0,0.004069
991.0,0.004217
992.0,0.004231
993.0,0.004083
994.0,0.004206
995.0,0.004193
996.0,0.004152
997.0,0.004148
998.0,0.00411
999.0,0.004083
1000.0,0.004029
1001.0,0.004076
1002.0,0.003902
1003.0,0.003971
1004.0,0.003846
1005.0,0.003708
1006.0,0.003829
1007.0,0.003899
1008.0,0.003856
1009.0,0.003812
1010.0,0.003777
1011.0,0.003823
1012.0,0.003766
1013.0,0.003788
1014.0,0.003747
1015.0,0.003707
1016.0,0.003675
1017.0,0.003668
1018.0,0.003646
1019.0,0.003537
1020.0,0.003596
1021.0,0.00358
1022.0,0.003532
1023.0,0.003556
1024.0,0.00348
1025.0,0.003533
1026.0,0.0035
1027.0,0.003479
1028.0,0.003458
1029.0,0.003403
1030.0,0.00342
1031.0,0.00339
1032.0,0.003369
1033.0,0.003306
1034.0,0.003294
1035.0,0.003291
1036.0,0.003294
1037.0,0.003229
1038.0,0.003231
1039.0,0.003216
1040.0,0.003191
1041.0,0.00319
1042.0,0.003155
1043.0,0.003133
1044.0,0.003132
1045.0,0.003076
1046.0,0.003029
1047.0,0.003044
1048.0,0.003049
1049.0,0.003026
1050.0,0.003
1051.0,0.002983
1052.0,0.002958
1053.0,0.002923
1054.0,0.002917
1055.0,0.002906
1056.0,0.002882
1057.0,0.00286
1058.0,0.002778
1059.0,0.002769
1060.0,0.002754
1061.0,0.002739
1062.0,0.002741
1063.0,0.002702
1064.0,0.002725
1065.0,0.00269
1066.0,0.002632
1067.0,0.002654
1068.0,0.002583
1069.0,0.002497
1070.0,0.002569
1071.0,0.002611
1072.0,0.002562
1073.0,0.002519
1074.0,0.002589
1075.0,0.002418
1076.0,0.002566
1077.0,0.002492
1078.0,0.002428
1079.0,0.002503
1080.0,0.002424
1081.0,0.002325
1082.0,0.002382
1083.0,0.002388
1084.0,0.002285
1085.0,0.002391
1086.0,0.002125
1087.0,0.002221
1088.0,0.002337
1089.0,0.002224
1090.0,0.002149
1091.0,0.002295
1092.0,0.002286
1093.0,0.001848
1094.0,0.002067
1095.0,0.001921
1096.0,0.001811
1097.0,0.002196
1098.0,0.00176
1099.0,0.00184
1100.0,0.001673
1101.0,0.0017
1102.0,0.001599
1103.0,0.001564
1104.0,0.001563
1105.0,0.001752
1106.0,0.001238
1107.0,0.001632
1108.0,0.001318
1109.0,0.001321
1110.0,0.001588
1111.0,0.0009916
1112.0,0.0013
1113.0,0.0007591
1114.0,0.000851
1115.0,0.0006929
1116.0,0.0005308
1117.0,0.0001812
1118.0,0.0005783
1119.0,0.0002712
1120.0,0.0003403
1121.0,0.0004572
1122.0,0.0001833
1123.0,0.000304
1124.0,0.0002548
1125.0,0.0003352
1126.0,0.0001101
1127.0,0.0003768
1128.0,0.0002165
1129.0,0.0002296
1130.0,0.0001488
1131.0,0.000745
1132.0,0.0005709
1133.0,0.0003443
1134.0,8.318e-05
1135.0,3.112e-05
1136.0,0.0002801
1137.0,0.000711
1138.0,0.0004896
1139.0,0.0007758
1140.0,0.0006259
1141.0,0.0004602
1142.0,0.0005354
1143.0,0.0007862
1144.0,0.0002516
1145.0,0.0003182
1146.0,0.0003423
1147.0,0.0001143
1148.0,0.0006608
1149.0,0.0005119
1150.0,0.0002676
1151.0,0.0004644
1152.0,0.0005844
1153.0,0.0005756
1154.0,0.0002995
1155.0,0.0007679
1156.0,0.0006775
1157.0,0.0007806
1158.0,0.0007685
1159.0,0.0008389
1160.0,0.0007023
1161.0,0.0008996
1162.0,0.0008965
1163.0,0.001291
1164.0,0.00107
1165.0,0.0009838
1166.0,0.0009882
1167.0,0.001089
1168.0,0.001095
1169.0,0.001126
1170.0,0.001244
1171.0,0.001205
1172.0,0.001237
1173.0,0.001228
1174.0,0.0008176
1175.0,0.001204
1176.0,0.001354
1177.0,0.001273
1178.0,0.0009022
1179.0,0.001352
1180.0,0.001162
1181.0,0.001201
1182.0,0.0007712
1183.0,0.001182
1184.0,0.001083
1185.0,0.001028
1186.0,0.001269
1187.0,0.001187
1188.0,0.0007663
1189.0,0.001093
1190.0,0.001225
1191.0,0.00113
1192.0,0.001237
1193.0,0.001169
1194.0,0.001211
1195.0,0.001121
1196.0,0.001065
1197.0,0.00121
1198.0,0.001089
1199.0,0.0008826
1200.0,0.001131
1201.0,0.001072
1202.0,0.001073
1203.0,0.001057
1204.0,0.0008968
1205.0,0.001099
1206.0,0.001238
1207.0,0.00105
1208.0,0.001043
1209.0,0.001062
1210.0,0.001115
1211.0,0.001043
1212.0,0.001007
1213.0,0.00116
1214.0,0.001033
1215.0,0.001008
1216.0,0.001148
1217.0,0.001106
1218.0,0.00113
1219.0,0.001108
1220.0,0.001125
1221.0,0.001139
1222.0,0.0011
1223.0,0.001083
1224.0,0.001065
1225.0,0.001115
1226.0,0.001125
1227.0,0.001012
1228.0,0.001128
1229.0,0.001115
1230.0,0.001088
1231.0,0.001129
1232.0,0.001118
1233.0,0.001059
1234.0,0.001122
1235.0,0.001108
1236.0,0.001115
1237.0,0.001089
1238.0,0.001104
1239.0,0.001086
1240.0,0.001088
1241.0,0.001074
1242.0,0.001073
1243.0,0.001061
1244.0,0.001063
1245.0,0.001065
1246.0,0.001056
1247.0,0.001047
1248.0,0.00104
1249.0,0.001042
1250.0,0.001031
1251.0,0.001012
1252.0,0.001013
1253.0,0.0009946
1254.0,0.0009767
1255.0,0.001
1256.0,0.0009571
1257.0,0.0009464
1258.0,0.0009704
1259.0,0.0009146
1260.0,0.0009188
1261.0,0.0008442
1262.0,0.0008065
1263.0,0.0008051
1264.0,0.0007204
1265.0,0.0007956
1266.0,0.0007508
1267.0,0.0007702
1268.0,0.0007148
1269.0,0.0003903
1270.0,0.0007574
1271.0,0.0008201
1272.0,0.000822
1273.0,0.0008085
1274.0,0.0008116
1275.0,0.0008243
1276.0,0.0008337
1277.0,0.0008415
1278.0,0.000863
1279.0,0.0008524
1280.0,0.0008392
1281.0,0.0008022
1282.0,0.0007769
1283.0,0.0008328
1284.0,0.0008489
1285.0,0.0008529
1286.0,0.0008653
1287.0,0.0008427
1288.0,0.0008419
1289.0,0.0008002
1290.0,0.0008298
1291.0,0.000841
1292.0,0.0007656
1293.0,0.0008141
1294.0,0.0008048
1295.0,0.0007916
1296.0,0.0007406
1297.0,0.000689
1298.0,0.0007591
1299.0,0.0008018
1300.0,0.000643
1301.0,0.0006663
1302.0,0.0007487
1303.0,0.0006306
1304.0,0.0005118
1305.0,0.0007236
1306.0,0.0007188
1307.0,0.0005245
1308.0,0.0006247
1309.0,0.0007025
1310.0,0.0005073
1311.0,0.0005872
1312.0,0.0005679
1313.0,0.0005483
1314.0,0.0004778
1315.0,0.0004681
1316.0,0.0005657
1317.0,0.0005283
1318.0,0.000585
1319.0,0.0004273
1320.0,0.0004144
1321.0,0.0004945
1322.0,0.0004946
1323.0,0.0003502
1324.0,0.0004131
1325.0,0.0005388
1326.0,0.0004463
1327.0,0.0004201
1328.0,0.0003525
1329.0,0.0002506
1330.0,0.0003351
1331.0,0.000189
1332.0,0.0001964
1333.0,0.0002778
1334.0,0.0002384
1335.0,0.000335
1336.0,0.0002553
1337.0,0.0002231
1338.0,0.000241
1339.0,0.0002401
1340.0,0.0002347
1341.0,0.0002227
1342.0,0.0002346
1343.0,0.0001504
1344.0,8.929e-05
1345.0,0.0001288
1346.0,6.17e-05
1347.0,6.236e-05
1348.0,3.984e-06
1349.0,1.43e-05
