interpolation:linear
wavelength,value
280.0,2.943e-21
280.5,9.223000000000001e-20
281.0,4.867e-19
281.5,3.255e-19
282.0,1.01e-18
282.5,2.693e-18
283.0,8.781e-18
283.5,1.442e-17
284.0,2.365e-16
284.5,6.837e-16
285.0,1.559e-15
285.5,7.574e-15
286.0,3.029e-14
286.5,1.336e-13
287.0,3.778e-13
287.5,1.428e-12
288.0,3.791e-12
288.5,1.262e-11
289.0,3.589e-11
289.5,1.137e-10
290.0,3.251e-10
290.5,6.763e-10
291.0,1.478e-09
291.5,4.313e-09
292.0,9.336e-09
292.5,1.402e-08
293.0,3.272e-08
293.5,8.905e-08
294.0,1.504e-07
294.5,1.887e-07
295.0,3.408e-07
295.5,8.649e-07
296.0,1.695e-06
296.5,2.416e-06
297.0,3.329e-06
297.5,9.248e-06
298.0,1.512e-05
298.5,1.571e-05
299.0,3.595e-05
299.5,6.472e-05
300.0,7.511e-05
300.5,0.0001159
301.0,0.0002381
301.5,0.0004393
302.0,0.0004112
302.5,0.0007955
303.0,0.001411
303.5,0.001766
304.0,0.001663
304.5,0.002511
305.0,0.00388
305.5,0.004494
306.0,0.00436
306.5,0.005463
307.0,0.00826
307.5,0.01119
308.0,0.01182
308.5,0.01406
309.0,0.01419
309.5,0.01609
310.0,0.01609
310.5,0.02595
311.0,0.03243
311.5,0.03119
312.0,0.03109
312.5,0.03774
313.0,0.04083
313.5,0.03946
314.0,0.04929
314.5,0.04378
315.0,0.05739
315.5,0.04768
316.0,0.04171
316.5,0.06002
317.0,0.07424
317.5,0.07684
318.0,0.05999
318.5,0.07494
319.0,0.0891
319.5,0.07173
320.0,0.08625
320.5,0.1087
321.0,0.09761
321.5,0.09337
322.0,0.09789
322.5,0.0849
323.0,0.08494
323.5,0.1054
324.0,0.1227
324.5,0.1238
325.0,0.1055
325.5,0.1362
326.0,0.167
326.5,0.1673
327.0,0.1659
327.5,0.1593
328.0,0.1408
328.5,0.1482
329.0,0.1779
329.5,0.2017
330.0,0.2024
330.5,0.1605
331.0,0.1627
331.5,0.1654
332.0,0.1791
332.5,0.1771
333.0,0.1756
333.5,0.1576
334.0,0.1607
334.5,0.1858
335.0,0.1746
335.5,0.2063
336.0,0.1423
336.5,0.1631
337.0,0.133
337.5,0.1646
338.0,0.161
338.5,0.1876
339.0,0.1843
339.5,0.1771
340.0,0.205
340.5,0.1842
341.0,0.1807
341.5,0.1643
342.0,0.1954
342.5,0.1819
343.0,0.1999
343.5,0.1881
344.0,0.1376
344.5,0.1402
345.0,0.1833
345.5,0.186
346.0,0.1572
346.5,0.1772
347.0,0.1901
347.5,0.1533
348.0,0.1735
348.5,0.1725
349.0,0.1594
349.5,0.1573
350.0,0.1938
350.5,0.2036
351.0,0.1815
351.5,0.1765
352.0,0.1883
352.5,0.1461
353.0,0.1832
353.5,0.195
354.0,0.2016
354.5,0.2037
355.0,0.2024
355.5,0.1821
356.0,0.1898
356.5,0.1614
357.0,0.1329
357.5,0.162
358.0,0.1279
358.5,0.1089
359.0,0.1518
359.5,0.1928
360.0,0.2036
360.5,0.162
361.0,0.1471
361.5,0.1688
362.0,0.1454
362.5,0.2005
363.0,0.1794
363.5,0.1646
364.0,0.2006
364.5,0.1708
365.0,0.1733
365.5,0.2167
366.0,0.2287
366.5,0.2141
367.0,0.2077
367.5,0.2147
368.0,0.1872
368.5,0.1882
369.0,0.2025
369.5,0.215
370.0,0.2283
370.5,0.1766
371.0,0.188
371.5,0.2343
372.0,0.1549
372.5,0.185
373.0,0.1875
373.5,0.1215
374.0,0.1759
374.5,0.1452
375.0,0.1406
375.5,0.2091
376.0,0.1727
376.5,0.1783
377.0,0.188
377.5,0.2192
378.0,0.2367
378.5,0.2228
379.0,0.1831
379.5,0.1666
380.0,0.1725
380.5,0.2081
381.0,0.2077
381.5,0.164
382.0,0.1451
382.5,0.1232
383.0,0.1136
383.5,0.109
384.0,0.1198
384.5,0.1755
385.0,0.1734
385.5,0.1608
386.0,0.1372
386.5,0.1795
387.0,0.1486
387.5,0.1663
388.0,0.1529
388.5,0.1506
389.0,0.1619
389.5,0.1953
390.0,0.1952
390.5,0.179
391.0,0.2098
391.5,0.2132
392.0,0.1788
392.5,0.1595
393.0,0.0884
393.5,0.06401
394.0,0.1298
394.5,0.1644
395.0,0.1998
395.5,0.2022
396.0,0.1746
396.5,0.1017
397.0,0.076
397.5,0.154
398.0,0.2148
398.5,0.2211
399.0,0.2386
399.5,0.2369
400.0,0.245
401.0,0.2407
402.0,0.2519
403.0,0.2374
404.0,0.2319
405.0,0.2301
406.0,0.2246
407.0,0.2192
408.0,0.226
409.0,0.24
410.0,0.2082
411.0,0.2238
412.0,0.2385
413.0,0.2308
414.0,0.2319
415.0,0.2307
416.0,0.2329
417.0,0.2253
418.0,0.2194
419.0,0.2205
420.0,0.2178
421.0,0.2261
422.0,0.2131
423.0,0.2065
424.0,0.2166
425.0,0.2145
426.0,0.2073
427.0,0.2019
428.0,0.1952
429.0,0.1836
430.0,0.1594
431.0,0.1567
432.0,0.2007
433.0,0.2002
434.0,0.1844
435.0,0.1911
436.0,0.2138
437.0,0.2094
438.0,0.1893
439.0,0.1942
440.0,0.1988
441.0,0.2043
442.0,0.2174
443.0,0.2101
444.0,0.2131
445.0,0.2069
446.0,0.196
447.0,0.2103
448.0,0.2119
449.0,0.211
450.0,0.2151
451.0,0.2213
452.0,0.2116
453.0,0.1976
454.0,0.2047
455.0,0.2043
456.0,0.2075
457.0,0.2092
458.0,0.2004
459.0,0.1977
460.0,0.1966
461.0,0.1996
462.0,0.1996
463.0,0.1969
464.0,0.1925
465.0,0.1887
466.0,0.1892
467.0,0.1842
468.0,0.1848
469.0,0.1842
470.0,0.177
471.0,0.1755
472.0,0.1836
473.0,0.1799
474.0,0.1787
475.0,0.1788
476.0,0.172
477.0,0.171
478.0,0.1742
479.0,0.1716
480.0,0.1705
481.0,0.1721
482.0,0.1716
483.0,0.1683
484.0,0.1637
485.0,0.1549
486.0,0.1345
487.0,0.1399
488.0,0.1523
489.0,0.1516
490.0,0.1583
491.0,0.1544
492.0,0.1447
493.0,0.1483
494.0,0.1486
495.0,0.1488
496.0,0.1486
497.0,0.1497
498.0,0.1415
499.0,0.1421
500.0,0.1367
501.0,0.133
502.0,0.1299
503.0,0.134
504.0,0.1294
505.0,0.1331
506.0,0.1365
507.0,0.1289
508.0,0.1241
509.0,0.1267
510.0,0.1253
511.0,0.1278
512.0,0.1282
513.0,0.1204
514.0,0.1187
515.0,0.1166
516.0,0.1155
517.0,0.1019
518.0,0.1063
519.0,0.1107
520.0,0.1139
521.0,0.114
522.0,0.1133
523.0,0.1104
524.0,0.1135
525.0,0.1139
526.0,0.1079
527.0,0.1009
528.0,0.1058
529.0,0.1106
530.0,0.1082
531.0,0.109
532.0,0.1045
533.0,0.1008
534.0,0.103
535.0,0.1046
536.0,0.1049
537.0,0.1
538.0,0.1011
539.0,0.0996
540.0,0.09486
541.0,0.09478
542.0,0.09699
543.0,0.09527
544.0,0.09629
545.0,0.09541
546.0,0.09514
547.0,0.09443
548.0,0.09265
549.0,0.09231
550.0,0.09278
551.0,0.09102
552.0,0.091
553.0,0.08875
554.0,0.09025
555.0,0.0898
556.0,0.08798
557.0,0.0846
558.0,0.0833
559.0,0.0811
560.0,0.08148
561.0,0.08189
562.0,0.08066
563.0,0.08223
564.0,0.07942
565.0,0.07818
566.0,0.07647
567.0,0.07734
568.0,0.07608
569.0,0.07369
570.0,0.07318
571.0,0.07225
572.0,0.07342
573.0,0.07373
574.0,0.07305
575.0,0.07125
576.0,0.07017
577.0,0.07052
578.0,0.06908
579.0,0.069
580.0,0.06997
581.0,0.06995
582.0,0.07089
583.0,0.07071
584.0,0.07097
585.0,0.06885
586.0,0.06699
587.0,0.06798
588.0,0.06586
589.0,0.05782
590.0,0.06013
591.0,0.06334
592.0,0.06206
593.0,0.06261
594.0,0.0617
595.0,0.05972
596.0,0.0618
597.0,0.06069
598.0,0.06014
599.0,0.0598
600.0,0.05953
601.0,0.05871
602.0,0.05796
603.0,0.05858
604.0,0.05921
605.0,0.05859
606.0,0.05807
607.0,0.05836
608.0,0.05743
609.0,0.05724
610.0,0.05657
611.0,0.0566
612.0,0.05617
613.0,0.05519
614.0,0.05417
615.0,0.05509
616.0,0.05303
617.0,0.05266
618.0,0.05443
619.0,0.05362
620.0,0.05368
621.0,0.05345
622.0,0.05253
623.0,0.05144
624.0,0.05029
625.0,0.04995
626.0,0.05045
627.0,0.05072
628.0,0.04677
629.0,0.04887
630.0,0.04748
631.0,0.04842
632.0,0.04763
633.0,0.04891
634.0,0.04825
635.0,0.04876
636.0,0.04789
637.0,0.04846
638.0,0.04872
639.0,0.04795
640.0,0.04726
641.0,0.047
642.0,0.04659
643.0,0.04702
644.0,0.04666
645.0,0.04649
646.0,0.04512
647.0,0.04428
648.0,0.04407
649.0,0.043
650.0,0.04311
651.0,0.04478
652.0,0.04254
653.0,0.04375
654.0,0.04307
655.0,0.04117
656.0,0.03636
657.0,0.03717
658.0,0.04151
659.0,0.04163
660.0,0.0416
661.0,0.04168
662.0,0.04155
663.0,0.04056
664.0,0.04088
665.0,0.04073
666.0,0.04058
667.0,0.04037
668.0,0.04021
669.0,0.04064
670.0,0.04026
671.0,0.04007
672.0,0.03958
673.0,0.04003
674.0,0.03968
675.0,0.03913
676.0,0.03922
677.0,0.03866
678.0,0.03861
679.0,0.03782
680.0,0.03794
681.0,0.03751
682.0,0.03728
683.0,0.03703
684.0,0.03665
685.0,0.03678
686.0,0.03639
687.0,0.02288
688.0,0.0272
689.0,0.02718
690.0,0.02855
691.0,0.03013
692.0,0.03127
693.0,0.03084
694.0,0.03039
695.0,0.03165
696.0,0.03153
697.0,0.0336
698.0,0.03293
699.0,0.03182
700.0,0.03128
701.0,0.03079
702.0,0.03092
703.0,0.03083
704.0,0.03174
705.0,0.03163
706.0,0.03149
707.0,0.03138
708.0,0.03129
709.0,0.03123
710.0,0.03105
711.0,0.03092
712.0,0.03073
713.0,0.03025
714.0,0.0302
715.0,0.02904
716.0,0.02892
717.0,0.02445
718.0,0.02216
719.0,0.02003
720.0,0.02096
721.0,0.02336
722.0,0.02709
723.0,0.02482
724.0,0.02197
725.0,0.02149
726.0,0.02251
727.0,0.02274
728.0,0.02114
729.0,0.02199
730.0,0.02326
731.0,0.02204
732.0,0.02368
733.0,0.02515
734.0,0.02567
735.0,0.02499
736.0,0.02485
737.0,0.02482
738.0,0.0252
739.0,0.02457
740.0,0.02513
741.0,0.02478
742.0,0.0247
743.0,0.02519
744.0,0.025
745.0,0.02489
746.0,0.02489
747.0,0.02483
748.0,0.02464
749.0,0.02424
750.0,0.02412
751.0,0.02377
752.0,0.02377
753.0,0.02377
754.0,0.02371
755.0,0.02347
756.0,0.02336
757.0,0.02328
758.0,0.02288
759.0,0.02225
760.0,0.003111
761.0,0.00159
762.0,0.01028
763.0,0.004797
764.0,0.007416
765.0,0.01013
766.0,0.01274
767.0,0.01645
768.0,0.0193
769.0,0.0197
770.0,0.02039
771.0,0.02051
772.0,0.02047
773.0,0.02051
774.0,0.0203
775.0,0.02006
776.0,0.02021
777.0,0.01984
778.0,0.01962
779.0,0.01953
780.0,0.01933
781.0,0.01927
782.0,0.0193
783.0,0.01888
784.0,0.01889
785.0,0.01866
786.0,0.01878
787.0,0.01833
788.0,0.018
789.0,0.0179
790.0,0.01727
791.0,0.0174
792.0,0.0172
793.0,0.01683
794.0,0.01712
795.0,0.01731
796.0,0.01661
797.0,0.01656
798.0,0.01706
799.0,0.01685
800.0,0.01645
801.0,0.01631
802.0,0.01619
803.0,0.01598
804.0,0.01594
805.0,0.01584
806.0,0.01624
807.0,0.01596
808.0,0.01591
809.0,0.01551
810.0,0.01528
811.0,0.0152
812.0,0.01463
813.0,0.01421
814.0,0.01221
815.0,0.01208
816.0,0.01107
817.0,0.01126
818.0,0.01076
819.0,0.01219
820.0,0.01134
821.0,0.01352
822.0,0.01302
823.0,0.008322
824.0,0.01246
825.0,0.01302
826.0,0.01238
827.0,0.01312
828.0,0.01081
829.0,0.01216
830.0,0.01193
831.0,0.01193
832.0,0.01146
833.0,0.01232
834.0,0.01175
835.0,0.01303
836.0,0.01231
837.0,0.01295
838.0,0.01246
839.0,0.01265
840.0,0.01288
841.0,0.01263
842.0,0.01262
843.0,0.01259
844.0,0.01234
845.0,0.01272
846.0,0.01261
847.0,0.01233
848.0,0.01219
849.0,0.01179
850.0,0.01124
851.0,0.01183
852.0,0.0117
853.0,0.01122
854.0,0.009634
855.0,0.01055
856.0,0.01148
857.0,0.0117
858.0,0.01157
859.0,0.01153
860.0,0.0115
861.0,0.01139
862.0,0.01153
863.0,0.01176
864.0,0.01113
865.0,0.01098
866.0,0.009835
867.0,0.01022
868.0,0.01108
869.0,0.0108
870.0,0.01107
871.0,0.01087
872.0,0.01079
873.0,0.01072
874.0,0.01054
875.0,0.01028
876.0,0.01034
877.0,0.01041
878.0,0.01047
879.0,0.01027
880.0,0.01001
881.0,0.00981
882.0,0.009982
883.0,0.009978
884.0,0.009886
885.0,0.009915
886.0,0.00939
887.0,0.009468
888.0,0.009556
889.0,0.009643
890.0,0.009497
891.0,0.009455
892.0,0.009121
893.0,0.008756
894.0,0.008344
895.0,0.007766
896.0,0.007194
897.0,0.00601
898.0,0.006623
899.0,0.004805
900.0,0.006789
901.0,0.00507
902.0,0.006088
903.0,0.00609
904.0,0.007944
905.0,0.007592
906.0,0.007024
907.0,0.005474
908.0,0.005596
909.0,0.006141
910.0,0.00527
911.0,0.005668
912.0,0.005947
913.0,0.005283
914.0,0.005223
915.0,0.005712
916.0,0.004692
917.0,0.006186
918.0,0.004796
919.0,0.006262
920.0,0.006337
921.0,0.006637
922.0,0.005791
923.0,0.00636
924.0,0.005903
925.0,0.005731
926.0,0.005791
927.0,0.006564
928.0,0.004521
929.0,0.004052
930.0,0.003049
931.0,0.002861
932.0,0.001958
933.0,0.001542
934.0,0.0007856
935.0,0.001578
936.0,0.0009308
937.0,0.0009389
938.0,0.001174
939.0,0.002677
940.0,0.003304
941.0,0.002387
942.0,0.002807
943.0,0.001734
944.0,0.001845
945.0,0.002425
946.0,0.001127
947.0,0.00241
948.0,0.0017
949.0,0.003345
950.0,0.000785
951.0,0.003271
952.0,0.001598
953.0,0.002134
954.0,0.002705
955.0,0.002159
956.0,0.002083
957.0,0.00157
958.0,0.003088
959.0,0.002346
960.0,0.002662
961.0,0.003039
962.0,0.002843
963.0,0.00335
964.0,0.003014
965.0,0.003314
966.0,0.0033
967.0,0.003265
968.0,0.004631
969.0,0.004847
970.0,0.004365
971.0,0.005123
972.0,0.004836
973.0,0.004076
974.0,0.003825
975.0,0.003982
976.0,0.003723
977.0,0.004343
978.0,0.004062
979.0,0.004284
980.0,0.003963
981.0,0.004902
982.0,0.004624
983.0,0.004391
984.0,0.005042
985.0,0.004557
986.0,0.005119
987.0,0.004973
988.0,0.004943
989.0,0.005061
990.0,0.004879
991.0,0.005029
992.0,0.005042
993.0,0.004886
994.0,0.005008
995.0,0.004987
996.0,0.004941
997.0,0.004932
998.0,0.004889
999.0,0.004855
1000.0,0.004796
1001.0,0.004846
1002.0,0.004666
1003.0,0.004722
1004.0,0.004581
1005.0,0.004406
1006.0,0.004554
1007.0,0.004635
1008.0,0.004588
1009.0,0.004542
1010.0,0.004502
1011.0,0.004544
1012.0,0.004481
1013.0,0.004501
1014.0,0.004453
1015.0,0.004406
1016.0,0.004368
1017.0,0.004361
1018.0,0.004331
1019.0,0.004212
1020.0,0.004273
1021.0,0.004252
1022.0,0.004199
1023.0,0.004228
1024.0,0.004147
1025.0,0.004198
1026.0,0.004161
1027.0,0.004136
1028.0,0.004111
1029.0,0.004048
1030.0,0.004064
1031.0,0.00403
1032.0,0.004004
1033.0,0.003928
1034.0,0.003914
1035.0,0.003911
1036.0,0.003915
1037.0,0.003837
1038.0,0.00384
1039.0,0.003824
1040.0,0.003794
1041.0,0.003793
1042.0,0.003752
1043.0,0.003727
1044.0,0.003726
1045.0,0.003661
1046.0,0.003606
1047.0,0.003624
1048.0,0.003631
1049.0,0.003605
1050.0,0.003574
1051.0,0.003555
1052.0,0.003526
1053.0,0.003485
1054.0,0.003479
1055.0,0.003467
1056.0,0.00344
1057.0,0.003416
1058.0,0.003319
1059.0,0.00331
1060.0,0.003292
1061.0,0.003275
1062.0,0.003279
1063.0,0.003234
1064.0,0.003262
1065.0,0.003223
1066.0,0.00315
1067.0,0.003178
1068.0,0.003095
1069.0,0.002989
1070.0,0.003077
1071.0,0.003121
1072.0,0.003068
1073.0,0.003015
1074.0,0.003091
1075.0,0.002902
1076.0,0.003064
1077.0,0.002984
1078.0,0.002913
1079.0,0.002985
1080.0,0.002902
1081.0,0.002794
1082.0,0.002847
1083.0,0.002849
1084.0,0.002747
1085.0,0.002863
1086.0,0.002557
1087.0,0.002667
1088.0,0.00279
1089.0,0.002674
1090.0,0.002585
1091.0,0.002744
1092.0,0.002732
1093.0,0.002238
1094.0,0.002475
1095.0,0.002332
1096.0,0.002204
1097.0,0.002625
1098.0,0.00215
1099.0,0.002245
1100.0,0.002045
1101.0,0.002074
1102.0,0.001959
1103.0,0.001921
1104.0,0.001919
1105.0,0.00214
1106.0,0.001537
1107.0,0.001997
1108.0,0.001627
1109.0,0.001628
1110.0,0.001953
1111.0,0.001226
1112.0,0.001601
1113.0,0.0009339
1114.0,0.001056
1115.0,0.0008513
1116.0,0.0006499
1117.0,0.0002098
1118.0,0.0007124
1119.0,0.0003217
1120.0,0.0004112
1121.0,0.0005634
1122.0,0.0002137
1123.0,0.0003643
1124.0,0.0003021
1125.0,0.0004047
1126.0,0.000125
1127.0,0.0004583
1128.0,0.0002553
1129.0,0.0002722
1130.0,0.0001713
1131.0,0.000942
1132.0,0.0007106
1133.0,0.0004189
1134.0,9.324e-05
1135.0,3.37e-05
1136.0,0.0003368
1137.0,0.0009018
1138.0,0.0006056
1139.0,0.0009668
1140.0,0.0007789
1141.0,0.0005665
1142.0,0.0006636
1143.0,0.0009908
1144.0,0.0002989
1145.0,0.0003865
1146.0,0.000418
1147.0,0.0001305
1148.0,0.0008262
1149.0,0.0006336
1150.0,0.0003176
1151.0,0.0005739
1152.0,0.0007291
1153.0,0.0007105
1154.0,0.0003616
1155.0,0.000961
1156.0,0.0008465
1157.0,0.0009684
1158.0,0.0009534
1159.0,0.001045
1160.0,0.0008646
1161.0,0.001108
1162.0,0.001105
1163.0,0.001579
1164.0,0.001312
1165.0,0.001215
1166.0,0.001207
1167.0,0.00133
1168.0,0.00134
1169.0,0.00138
1170.0,0.001515
1171.0,0.001464
1172.0,0.001494
1173.0,0.001496
1174.0,0.0009997
1175.0,0.001455
1176.0,0.001621
1177.0,0.001536
1178.0,0.001092
1179.0,0.001619
1180.0,0.001406
1181.0,0.001455
1182.0,0.0009377
1183.0,0.00143
1184.0,0.001312
1185.0,0.001251
1186.0,0.001529
1187.0,0.001437
1188.0,0.0009403
1189.0,0.001322
1190.0,0.001471
1191.0,0.001374
1192.0,0.001486
1193.0,0.001408
1194.0,0.001456
1195.0,0.00136
1196.0,0.001295
1197.0,0.001454
1198.0,0.001307
1199.0,0.001076
1200.0,0.001363
1201.0,0.0013
1202.0,0.00129
1203.0,0.001283
1204.0,0.001087
1205.0,0.001318
1206.0,0.00148
1207.0,0.00127
1208.0,0.001255
1209.0,0.001278
1210.0,0.001337
1211.0,0.001256
1212.0,0.001229
1213.0,0.001396
1214.0,0.001258
1215.0,0.001225
1216.0,0.001378
1217.0,0.00133
1218.0,0.001357
1219.0,0.001334
1220.0,0.00135
1221.0,0.001363
1222.0,0.001318
1223.0,0.001299
1224.0,0.001284
1225.0,0.001337
1226.0,0.001345
1227.0,0.001221
1228.0,0.001346
1229.0,0.001333
1230.0,0.001302
1231.0,0.001344
1232.0,0.001331
1233.0,0.001271
1234.0,0.001332
1235.0,0.001318
1236.0,0.001324
1237.0,0.001298
1238.0,0.001311
1239.0,0.00129
1240.0,0.001291
1241.0,0.001279
1242.0,0.001274
1243.0,0.001259
1244.0,0.001263
1245.0,0.001265
1246.0,0.001253
1247.0,0.001244
1248.0,0.001238
1249.0,0.001239
1250.0,0.001227
1251.0,0.001205
1252.0,0.001204
1253.0,0.001187
1254.0,0.001169
1255.0,0.00119
1256.0,0.001147
1257.0,0.001136
1258.0,0.001158
1259.0,0.001103
1260.0,0.001107
1261.0,0.00103
1262.0,0.0009903
1263.0,0.000989
1264.0,0.000897
1265.0,0.0009774
1266.0,0.0009299
1267.0,0.0009487
1268.0,0.0008883
1269.0,0.000502
1270.0,0.0009355
1271.0,0.001
1272.0,0.001001
1273.0,0.0009864
1274.0,0.000988
1275.0,0.001001
1276.0,0.00101
1277.0,0.001016
1278.0,0.001037
1279.0,0.001024
1280.0,0.001008
1281.0,0.0009607
1282.0,0.0009263
1283.0,0.0009938
1284.0,0.001014
1285.0,0.001018
1286.0,0.00103
1287.0,0.001007
1288.0,0.001005
1289.0,0.000963
1290.0,0.00099
1291.0,0.001002
1292.0,0.0009248
1293.0,0.0009724
1294.0,0.0009616
1295.0,0.0009517
1296.0,0.000897
1297.0,0.0008379
1298.0,0.0009133
1299.0,0.0009566
1300.0,0.0007808
1301.0,0.0008081
1302.0,0.0009003
1303.0,0.0007646
1304.0,0.0006297
1305.0,0.0008701
1306.0,0.0008673
1307.0,0.0006406
1308.0,0.0007543
1309.0,0.0008517
1310.0,0.0006211
1311.0,0.0007115
1312.0,0.0006894
1313.0,0.00067
1314.0,0.0005851
1315.0,0.0005766
1316.0,0.0006886
1317.0,0.0006436
1318.0,0.000709
1319.0,0.0005263
1320.0,0.000507
1321.0,0.0006048
1322.0,0.0006089
1323.0,0.0004341
1324.0,0.0005072
1325.0,0.0006583
1326.0,0.0005478
1327.0,0.0005164
1328.0,0.0004336
1329.0,0.0003099
1330.0,0.0004174
1331.0,0.0002324
1332.0,0.0002414
1333.0,0.0003492
1334.0,0.0002901
1335.0,0.0004173
1336.0,0.0003166
1337.0,0.000274
1338.0,0.0002987
1339.0,0.0002972
1340.0,0.0002877
1341.0,0.0002772
1342.0,0.0002922
1343.0,0.000185
1344.0,0.0001054
1345.0,0.0001569
1346.0,7.179e-05
1347.0,7.259e-05
1348.0,4.181e-06
1349.0,1.546e-05
1350.0,1.609e-05
1351.0,3.741e-06
1352.0,9.911e-07
1353.0,5.001e-08
1354.0,1.723e-07
1355.0,1.382e-09
1356.0,2.421e-08
1357.0,3.679e-08
1358.0,1.622e-09
1359.0,2.043e-10
1360.0,7.384e-10
1361.0,8.259e-13
1362.0,2.259e-15
1363.0,9.928e-10
1364.0,4.099e-10
