interpolation:linear
wavelength,value
280.0,6.76e-23
280.5,2.264e-21
281.0,1.2240000000000001e-20
281.5,3.964e-19
282.0,5.094e-19
282.5,1.208e-18
283.0,3.754e-18
283.5,6.101e-18
284.0,1.002e-16
284.5,2.939e-16
285.0,6.19e-16
285.5,2.811e-15
286.0,1.116e-14
286.5,4.918e-14
287.0,1.402e-13
287.5,5.381e-13
288.0,1.823e-12
288.5,5.239e-12
289.0,1.357e-11
289.5,4.028e-11
290.0,1.111e-10
290.5,2.263e-10
291.0,4.857e-10
291.5,1.397e-09
292.0,2.85e-09
292.5,3.97e-09
293.0,8.441e-09
293.5,2.033e-08
294.0,3.169e-08
294.5,4.025e-08
295.0,6.776e-08
295.5,1.153e-07
296.0,2.176e-07
296.5,2.97e-07
297.0,3.933e-07
297.5,1.019e-06
298.0,1.554e-06
298.5,1.521e-06
299.0,3.26e-06
299.5,5.129e-06
300.0,5.457e-06
300.5,7.626e-06
301.0,1.297e-05
301.5,1.946e-05
302.0,1.611e-05
302.5,3.095e-05
303.0,5.461e-05
303.5,6.861e-05
304.0,6.579e-05
304.5,0.000104
305.0,0.000172
305.5,0.0002086
306.0,0.0002065
306.5,0.0002672
307.0,0.0004332
307.5,0.0006293
308.0,0.0006738
308.5,0.0008318
309.0,0.0009661
309.5,0.001327
310.0,0.001449
310.5,0.002446
311.0,0.003287
311.5,0.003266
312.0,0.003789
312.5,0.005086
313.0,0.005805
313.5,0.005365
314.0,0.007549
314.5,0.007837
315.0,0.01058
315.5,0.008184
316.0,0.008122
316.5,0.01303
317.0,0.01612
317.5,0.01623
318.0,0.01365
318.5,0.0196
319.0,0.02502
319.5,0.01807
320.0,0.02142
320.5,0.03112
321.0,0.03173
321.5,0.0308
322.0,0.02831
322.5,0.02478
323.0,0.02712
323.5,0.03771
324.0,0.0447
324.5,0.04343
325.0,0.03451
325.5,0.04792
326.0,0.06208
326.5,0.06556
327.0,0.06395
327.5,0.06012
328.0,0.04971
328.5,0.05697
329.0,0.07303
329.5,0.08458
330.0,0.08375
330.5,0.06341
331.0,0.06335
331.5,0.06692
332.0,0.07652
332.5,0.07762
333.0,0.07612
333.5,0.06589
334.0,0.06693
334.5,0.08099
335.0,0.07821
335.5,0.09252
336.0,0.06394
336.5,0.07267
337.0,0.05831
337.5,0.07187
338.0,0.07299
338.5,0.08575
339.0,0.08492
339.5,0.08148
340.0,0.09395
340.5,0.08492
341.0,0.08392
341.5,0.07723
342.0,0.09228
342.5,0.08633
343.0,0.09456
343.5,0.08878
344.0,0.06459
344.5,0.06593
345.0,0.08746
345.5,0.08935
346.0,0.07594
346.5,0.08595
347.0,0.09192
347.5,0.07417
348.0,0.08466
348.5,0.08465
349.0,0.07848
349.5,0.07756
350.0,0.09582
350.5,0.1009
351.0,0.08988
351.5,0.08693
352.0,0.09342
352.5,0.07293
353.0,0.09183
353.5,0.09813
354.0,0.1018
354.5,0.1031
355.0,0.1025
355.5,0.0925
356.0,0.09668
356.5,0.08242
357.0,0.06799
357.5,0.08312
358.0,0.06579
358.5,0.05614
359.0,0.07837
359.5,0.0996
360.0,0.1054
360.5,0.08419
361.0,0.07666
361.5,0.08816
362.0,0.07614
362.5,0.1052
363.0,0.09436
363.5,0.08677
364.0,0.106
364.5,0.09041
365.0,0.09192
365.5,0.1152
366.0,0.1218
366.5,0.1143
367.0,0.1111
367.5,0.1152
368.0,0.1006
368.5,0.1013
369.0,0.1092
369.5,0.1162
370.0,0.1237
370.5,0.09587
371.0,0.1023
371.5,0.1277
372.0,0.08462
372.5,0.1013
373.0,0.1029
373.5,0.0668
374.0,0.0969
374.5,0.08011
375.0,0.07773
375.5,0.1158
376.0,0.09586
376.5,0.09916
377.0,0.1048
377.5,0.1224
378.0,0.1324
378.5,0.1249
379.0,0.1029
379.5,0.09381
380.0,0.09734
380.5,0.1177
381.0,0.1177
381.5,0.09312
382.0,0.08254
382.5,0.07023
383.0,0.0649
383.5,0.06239
384.0,0.06869
384.5,0.1008
385.0,0.09981
385.5,0.09278
386.0,0.0793
386.5,0.104
387.0,0.08622
387.5,0.09665
388.0,0.08905
388.5,0.08785
389.0,0.09464
389.5,0.1144
390.0,0.1146
390.5,0.1052
391.0,0.1236
391.5,0.1258
392.0,0.1058
392.5,0.09449
393.0,0.05247
393.5,0.03806
394.0,0.0773
394.5,0.09808
395.0,0.1194
395.5,0.1211
396.0,0.1047
396.5,0.06111
397.0,0.04576
397.5,0.09287
398.0,0.1298
398.5,0.1339
399.0,0.1447
399.5,0.1439
400.0,0.1491
401.0,0.1467
402.0,0.1541
403.0,0.1457
404.0,0.1428
405.0,0.1422
406.0,0.1392
407.0,0.1363
408.0,0.1409
409.0,0.1501
410.0,0.1306
411.0,0.1408
412.0,0.1505
413.0,0.1462
414.0,0.1472
415.0,0.1469
416.0,0.1487
417.0,0.1443
418.0,0.1409
419.0,0.1421
420.0,0.1408
421.0,0.1465
422.0,0.1385
423.0,0.1345
424.0,0.1414
425.0,0.1404
426.0,0.1361
427.0,0.1329
428.0,0.1289
429.0,0.1215
430.0,0.1058
431.0,0.1043
432.0,0.1338
433.0,0.1338
434.0,0.1236
435.0,0.1284
436.0,0.144
437.0,0.1413
438.0,0.1279
439.0,0.1314
440.0,0.1348
441.0,0.1387
442.0,0.1479
443.0,0.1432
444.0,0.1456
445.0,0.1418
446.0,0.1348
447.0,0.145
448.0,0.1463
449.0,0.1459
450.0,0.149
451.0,0.1536
452.0,0.1472
453.0,0.1378
454.0,0.1431
455.0,0.143
456.0,0.1454
457.0,0.1467
458.0,0.1406
459.0,0.1388
460.0,0.138
461.0,0.1402
462.0,0.1406
463.0,0.139
464.0,0.1362
465.0,0.134
466.0,0.1346
467.0,0.1313
468.0,0.1319
469.0,0.1316
470.0,0.1265
471.0,0.1257
472.0,0.1317
473.0,0.1293
474.0,0.1286
475.0,0.1287
476.0,0.1238
477.0,0.123
478.0,0.1253
479.0,0.1233
480.0,0.1224
481.0,0.1236
482.0,0.1234
483.0,0.1212
484.0,0.1182
485.0,0.1123
486.0,0.09779
487.0,0.102
488.0,0.1112
489.0,0.1108
490.0,0.1157
491.0,0.1129
492.0,0.1059
493.0,0.1087
494.0,0.1091
495.0,0.1094
496.0,0.1093
497.0,0.1101
498.0,0.104
499.0,0.1042
500.0,0.1002
501.0,0.09728
502.0,0.09484
503.0,0.09766
504.0,0.09417
505.0,0.09685
506.0,0.09932
507.0,0.09398
508.0,0.09065
509.0,0.0928
510.0,0.09188
511.0,0.09382
512.0,0.09419
513.0,0.08848
514.0,0.08718
515.0,0.08563
516.0,0.08476
517.0,0.07476
518.0,0.07802
519.0,0.08122
520.0,0.0835
521.0,0.08357
522.0,0.08289
523.0,0.08075
524.0,0.08281
525.0,0.08291
526.0,0.07842
527.0,0.0731
528.0,0.07649
529.0,0.07985
530.0,0.07799
531.0,0.07844
532.0,0.07512
533.0,0.0724
534.0,0.07406
535.0,0.07524
536.0,0.0755
537.0,0.07209
538.0,0.07289
539.0,0.07178
540.0,0.06831
541.0,0.06817
542.0,0.06969
543.0,0.0684
544.0,0.06903
545.0,0.06834
546.0,0.0681
547.0,0.06759
548.0,0.06632
549.0,0.06607
550.0,0.06639
551.0,0.06511
552.0,0.06509
553.0,0.06345
554.0,0.06448
555.0,0.0641
556.0,0.06275
557.0,0.06026
558.0,0.05924
559.0,0.05755
560.0,0.05771
561.0,0.05789
562.0,0.0569
563.0,0.0579
564.0,0.05583
565.0,0.05489
566.0,0.05363
567.0,0.05418
568.0,0.05321
569.0,0.05142
570.0,0.05103
571.0,0.05035
572.0,0.05109
573.0,0.05127
574.0,0.05079
575.0,0.04954
576.0,0.04883
577.0,0.04914
578.0,0.04822
579.0,0.04826
580.0,0.04906
581.0,0.04917
582.0,0.04993
583.0,0.04988
584.0,0.05013
585.0,0.04868
586.0,0.04741
587.0,0.04813
588.0,0.04655
589.0,0.04072
590.0,0.04234
591.0,0.04467
592.0,0.04368
593.0,0.04408
594.0,0.04335
595.0,0.04181
596.0,0.04333
597.0,0.04244
598.0,0.04203
599.0,0.04174
600.0,0.04154
601.0,0.04097
602.0,0.04045
603.0,0.04091
604.0,0.0414
605.0,0.04103
606.0,0.04074
607.0,0.04104
608.0,0.04049
609.0,0.04047
610.0,0.0401
611.0,0.04022
612.0,0.04002
613.0,0.03942
614.0,0.03879
615.0,0.03954
616.0,0.03814
617.0,0.03795
618.0,0.0393
619.0,0.03878
620.0,0.03887
621.0,0.03875
622.0,0.03813
623.0,0.03738
624.0,0.0366
625.0,0.03638
626.0,0.03678
627.0,0.037
628.0,0.03383
629.0,0.03564
630.0,0.03467
631.0,0.03552
632.0,0.03501
633.0,0.03604
634.0,0.03565
635.0,0.03611
636.0,0.03555
637.0,0.03604
638.0,0.03632
639.0,0.03583
640.0,0.0354
641.0,0.03527
642.0,0.03503
643.0,0.03541
644.0,0.0352
645.0,0.03511
646.0,0.03409
647.0,0.0334
648.0,0.03331
649.0,0.03252
650.0,0.03275
651.0,0.03408
652.0,0.03232
653.0,0.03338
654.0,0.0329
655.0,0.03144
656.0,0.02784
657.0,0.0285
658.0,0.03189
659.0,0.03203
660.0,0.03205
661.0,0.03216
662.0,0.03208
663.0,0.03134
664.0,0.03165
665.0,0.0316
666.0,0.03153
667.0,0.03142
668.0,0.03135
669.0,0.03173
670.0,0.03148
671.0,0.03137
672.0,0.03102
673.0,0.0314
674.0,0.03117
675.0,0.03078
676.0,0.03088
677.0,0.03048
678.0,0.03046
679.0,0.02986
680.0,0.02999
681.0,0.02967
682.0,0.02951
683.0,0.02932
684.0,0.02904
685.0,0.02917
686.0,0.02887
687.0,0.01736
688.0,0.02086
689.0,0.02088
690.0,0.02207
691.0,0.02348
692.0,0.02456
693.0,0.02424
694.0,0.02398
695.0,0.02513
696.0,0.02508
697.0,0.02686
698.0,0.02633
699.0,0.02537
700.0,0.02495
701.0,0.02452
702.0,0.02467
703.0,0.02464
704.0,0.02544
705.0,0.02536
706.0,0.02528
707.0,0.02521
708.0,0.02515
709.0,0.02516
710.0,0.02499
711.0,0.0249
712.0,0.02477
713.0,0.02437
714.0,0.02435
715.0,0.02337
716.0,0.02327
717.0,0.01938
718.0,0.01762
719.0,0.01597
720.0,0.01665
721.0,0.01868
722.0,0.02179
723.0,0.01993
724.0,0.01759
725.0,0.01718
726.0,0.01797
727.0,0.01826
728.0,0.01691
729.0,0.01768
730.0,0.01862
731.0,0.01767
732.0,0.01908
733.0,0.02034
734.0,0.02081
735.0,0.02024
736.0,0.02011
737.0,0.0201
738.0,0.02051
739.0,0.02001
740.0,0.02049
741.0,0.02022
742.0,0.02017
743.0,0.02059
744.0,0.02044
745.0,0.02036
746.0,0.02036
747.0,0.02031
748.0,0.02017
749.0,0.01985
750.0,0.01976
751.0,0.01949
752.0,0.0195
753.0,0.01952
754.0,0.01949
755.0,0.0193
756.0,0.01921
757.0,0.01916
758.0,0.01883
759.0,0.01825
760.0,0.002587
761.0,0.001372
762.0,0.008012
763.0,0.003879
764.0,0.005845
765.0,0.007896
766.0,0.009965
767.0,0.01306
768.0,0.01564
769.0,0.01606
770.0,0.01674
771.0,0.01689
772.0,0.01687
773.0,0.0169
774.0,0.01673
775.0,0.01652
776.0,0.01664
777.0,0.01633
778.0,0.01615
779.0,0.01608
780.0,0.01592
781.0,0.01586
782.0,0.0159
783.0,0.01557
784.0,0.01559
785.0,0.01541
786.0,0.01551
787.0,0.0151
788.0,0.01481
789.0,0.01474
790.0,0.01418
791.0,0.01435
792.0,0.0142
793.0,0.01389
794.0,0.01418
795.0,0.01433
796.0,0.01368
797.0,0.01363
798.0,0.01411
799.0,0.01393
800.0,0.01359
801.0,0.01345
802.0,0.01335
803.0,0.01317
804.0,0.01314
805.0,0.01308
806.0,0.01345
807.0,0.01321
808.0,0.01316
809.0,0.01279
810.0,0.01259
811.0,0.01249
812.0,0.01196
813.0,0.01161
814.0,0.009917
815.0,0.00982
816.0,0.009018
817.0,0.009159
818.0,0.008737
819.0,0.009934
820.0,0.009242
821.0,0.01111
822.0,0.01069
823.0,0.006776
824.0,0.01019
825.0,0.01074
826.0,0.01018
827.0,0.01083
828.0,0.008834
829.0,0.01002
830.0,0.009831
831.0,0.009828
832.0,0.009426
833.0,0.01016
834.0,0.009669
835.0,0.0108
836.0,0.01014
837.0,0.01074
838.0,0.01029
839.0,0.01048
840.0,0.01069
841.0,0.01045
842.0,0.01048
843.0,0.01047
844.0,0.01025
845.0,0.01059
846.0,0.0105
847.0,0.01027
848.0,0.01013
849.0,0.009797
850.0,0.009341
851.0,0.009813
852.0,0.009705
853.0,0.009313
854.0,0.00799
855.0,0.008765
856.0,0.009533
857.0,0.009725
858.0,0.009611
859.0,0.009591
860.0,0.009576
861.0,0.009486
862.0,0.009606
863.0,0.0098
864.0,0.009277
865.0,0.009162
866.0,0.008207
867.0,0.008531
868.0,0.009247
869.0,0.00902
870.0,0.009241
871.0,0.009078
872.0,0.00901
873.0,0.008956
874.0,0.008811
875.0,0.008593
876.0,0.008643
877.0,0.008695
878.0,0.008748
879.0,0.008578
880.0,0.008358
881.0,0.008188
882.0,0.008327
883.0,0.008328
884.0,0.008249
885.0,0.008272
886.0,0.007815
887.0,0.007893
888.0,0.00796
889.0,0.008045
890.0,0.007905
891.0,0.007879
892.0,0.007577
893.0,0.007259
894.0,0.006874
895.0,0.006351
896.0,0.005895
897.0,0.004906
898.0,0.005401
899.0,0.00393
900.0,0.005561
901.0,0.004119
902.0,0.004971
903.0,0.004953
904.0,0.00654
905.0,0.006245
906.0,0.005773
907.0,0.004458
908.0,0.004572
909.0,0.005017
910.0,0.004285
911.0,0.004646
912.0,0.004852
913.0,0.004293
914.0,0.004257
915.0,0.004617
916.0,0.003833
917.0,0.005026
918.0,0.003901
919.0,0.005111
920.0,0.005229
921.0,0.005443
922.0,0.004733
923.0,0.005224
924.0,0.004796
925.0,0.004668
926.0,0.004696
927.0,0.005338
928.0,0.003632
929.0,0.003247
930.0,0.00245
931.0,0.002303
932.0,0.001591
933.0,0.001267
934.0,0.0006661
935.0,0.001296
936.0,0.0007833
937.0,0.0007901
938.0,0.0009753
939.0,0.002153
940.0,0.002642
941.0,0.001917
942.0,0.002242
943.0,0.001414
944.0,0.001514
945.0,0.001952
946.0,0.0009364
947.0,0.001935
948.0,0.001396
949.0,0.002655
950.0,0.0006644
951.0,0.002596
952.0,0.001308
953.0,0.001726
954.0,0.002169
955.0,0.001741
956.0,0.001721
957.0,0.001284
958.0,0.002508
959.0,0.001905
960.0,0.002142
961.0,0.002453
962.0,0.002304
963.0,0.002714
964.0,0.00245
965.0,0.002678
966.0,0.002668
967.0,0.002636
968.0,0.00381
969.0,0.003944
970.0,0.003564
971.0,0.004217
972.0,0.003973
973.0,0.003311
974.0,0.003115
975.0,0.003252
976.0,0.003014
977.0,0.00357
978.0,0.003314
979.0,0.003498
980.0,0.003244
981.0,0.004035
982.0,0.003791
983.0,0.003595
984.0,0.004176
985.0,0.00373
986.0,0.004259
987.0,0.004121
988.0,0.004098
989.0,0.004222
990.0,0.00404
991.0,0.004187
992.0,0.004202
993.0,0.004055
994.0,0.004177
995.0,0.004164
996.0,0.004123
997.0,0.004119
998.0,0.004082
999.0,0.004055
1000.0,0.004001
1001.0,0.004047
1002.0,0.003875
1003.0,0.003943
1004.0,0.003819
1005.0,0.003682
1006.0,0.003803
1007.0,0.003872
1008.0,0.003829
1009.0,0.003785
1010.0,0.003751
1011.0,0.003796
1012.0,0.00374
1013.0,0.003761
1014.0,0.003721
1015.0,0.003681
1016.0,0.00365
1017.0,0.003643
1018.0,0.003621
1019.0,0.003513
1020.0,0.003571
1021.0,0.003556
1022.0,0.003508
1023.0,0.003531
1024.0,0.003456
1025.0,0.003509
1026.0,0.003476
1027.0,0.003455
1028.0,0.003434
1029.0,0.00338
1030.0,0.003396
1031.0,0.003367
1032.0,0.003346
1033.0,0.003283
1034.0,0.003271
1035.0,0.003269
1036.0,0.003271
1037.0,0.003206
1038.0,0.003208
1039.0,0.003194
1040.0,0.003169
1041.0,0.003168
1042.0,0.003133
1043.0,0.003111
1044.0,0.00311
1045.0,0.003055
1046.0,0.003008
1047.0,0.003023
1048.0,0.003028
1049.0,0.003005
1050.0,0.002979
1051.0,0.002962
1052.0,0.002938
1053.0,0.002902
1054.0,0.002896
1055.0,0.002885
1056.0,0.002862
1057.0,0.00284
1058.0,0.002759
1059.0,0.00275
1060.0,0.002734
1061.0,0.002719
1062.0,0.002721
1063.0,0.002683
1064.0,0.002706
1065.0,0.002671
1066.0,0.002613
1067.0,0.002635
1068.0,0.002564
1069.0,0.002479
1070.0,0.00255
1071.0,0.002593
1072.0,0.002544
1073.0,0.002501
1074.0,0.002571
1075.0,0.002401
1076.0,0.002548
1077.0,0.002475
1078.0,0.002411
1079.0,0.002486
1080.0,0.002407
1081.0,0.002309
1082.0,0.002365
1083.0,0.002371
1084.0,0.002269
1085.0,0.002374
1086.0,0.002109
1087.0,0.002205
1088.0,0.00232
1089.0,0.002208
1090.0,0.002134
1091.0,0.002279
1092.0,0.00227
1093.0,0.001835
1094.0,0.002053
1095.0,0.001907
1096.0,0.001797
1097.0,0.00218
1098.0,0.001747
1099.0,0.001826
1100.0,0.00166
1101.0,0.001687
1102.0,0.001587
1103.0,0.001552
1104.0,0.001551
1105.0,0.001739
1106.0,0.001229
1107.0,0.00162
1108.0,0.001309
1109.0,0.001311
1110.0,0.001576
1111.0,0.0009844
1112.0,0.00129
1113.0,0.000754
1114.0,0.000845
1115.0,0.0006883
1116.0,0.0005276
1117.0,0.0001806
1118.0,0.0005746
1119.0,0.00027
1120.0,0.0003387
1121.0,0.0004547
1122.0,0.0001827
1123.0,0.0003026
1124.0,0.0002537
1125.0,0.0003335
1126.0,0.0001098
1127.0,0.0003749
1128.0,0.0002157
1129.0,0.0002288
1130.0,0.0001484
1131.0,0.0007398
1132.0,0.0005673
1133.0,0.0003427
1134.0,8.297e-05
1135.0,3.105e-05
1136.0,0.000279
1137.0,0.0007062
1138.0,0.0004867
1139.0,0.0007701
1140.0,0.0006217
1141.0,0.0004574
1142.0,0.000532
1143.0,0.0007805
1144.0,0.0002504
1145.0,0.0003167
1146.0,0.0003407
1147.0,0.000114
1148.0,0.0006561
1149.0,0.0005087
1150.0,0.0002663
1151.0,0.0004616
1152.0,0.0005805
1153.0,0.0005717
1154.0,0.0002981
1155.0,0.0007621
1156.0,0.0006727
1157.0,0.000775
1158.0,0.000763
1159.0,0.0008325
1160.0,0.0006975
1161.0,0.0008929
1162.0,0.0008898
1163.0,0.001281
1164.0,0.001062
1165.0,0.0009765
1166.0,0.000981
1167.0,0.001081
1168.0,0.001087
1169.0,0.001117
1170.0,0.001234
1171.0,0.001196
1172.0,0.001228
1173.0,0.001219
1174.0,0.0008119
1175.0,0.001195
1176.0,0.001345
1177.0,0.001264
1178.0,0.000896
1179.0,0.001342
1180.0,0.001154
1181.0,0.001192
1182.0,0.0007657
1183.0,0.001174
1184.0,0.001075
1185.0,0.00102
1186.0,0.001259
1187.0,0.001178
1188.0,0.0007608
1189.0,0.001085
1190.0,0.001216
1191.0,0.001122
1192.0,0.001229
1193.0,0.001161
1194.0,0.001202
1195.0,0.001113
1196.0,0.001057
1197.0,0.001202
1198.0,0.001082
1199.0,0.0008762
1200.0,0.001123
1201.0,0.001064
1202.0,0.001065
1203.0,0.001049
1204.0,0.0008904
1205.0,0.001091
1206.0,0.00123
1207.0,0.001043
1208.0,0.001036
1209.0,0.001055
1210.0,0.001107
1211.0,0.001035
1212.0,0.0009998
1213.0,0.001152
1214.0,0.001026
1215.0,0.001
1216.0,0.00114
1217.0,0.001098
1218.0,0.001122
1219.0,0.0011
1220.0,0.001117
1221.0,0.001131
1222.0,0.001092
1223.0,0.001075
1224.0,0.001057
1225.0,0.001107
1226.0,0.001118
1227.0,0.001005
1228.0,0.00112
1229.0,0.001107
1230.0,0.00108
1231.0,0.001122
1232.0,0.001111
1233.0,0.001051
1234.0,0.001114
1235.0,0.0011
1236.0,0.001107
1237.0,0.001082
1238.0,0.001096
1239.0,0.001079
1240.0,0.00108
1241.0,0.001067
1242.0,0.001065
1243.0,0.001053
1244.0,0.001056
1245.0,0.001058
1246.0,0.001048
1247.0,0.00104
1248.0,0.001033
1249.0,0.001035
1250.0,0.001024
1251.0,0.001005
1252.0,0.001006
1253.0,0.0009877
1254.0,0.0009697
1255.0,0.0009933
1256.0,0.0009503
1257.0,0.0009396
1258.0,0.0009637
1259.0,0.0009079
1260.0,0.0009121
1261.0,0.0008377
1262.0,0.0008001
1263.0,0.0007988
1264.0,0.0007145
1265.0,0.0007893
1266.0,0.0007447
1267.0,0.0007641
1268.0,0.000709
1269.0,0.0003875
1270.0,0.0007513
1271.0,0.0008138
1272.0,0.0008157
1273.0,0.0008023
1274.0,0.0008054
1275.0,0.0008181
1276.0,0.0008274
1277.0,0.0008353
1278.0,0.0008568
1279.0,0.0008463
1280.0,0.0008331
1281.0,0.0007965
1282.0,0.0007716
1283.0,0.000827
1284.0,0.0008429
1285.0,0.000847
1286.0,0.0008594
1287.0,0.0008368
1288.0,0.0008361
1289.0,0.0007945
1290.0,0.000824
1291.0,0.0008352
1292.0,0.00076
1293.0,0.0008084
1294.0,0.0007992
1295.0,0.0007859
1296.0,0.0007352
1297.0,0.0006839
1298.0,0.0007536
1299.0,0.0007962
1300.0,0.0006384
1301.0,0.0006614
1302.0,0.0007434
1303.0,0.000626
1304.0,0.000508
1305.0,0.0007185
1306.0,0.0007136
1307.0,0.0005206
1308.0,0.0006202
1309.0,0.0006973
1310.0,0.0005035
1311.0,0.0005829
1312.0,0.0005638
1313.0,0.0005442
1314.0,0.0004742
1315.0,0.0004646
1316.0,0.0005616
1317.0,0.0005245
1318.0,0.0005807
1319.0,0.0004241
1320.0,0.0004113
1321.0,0.0004909
1322.0,0.0004909
1323.0,0.0003476
1324.0,0.0004101
1325.0,0.0005347
1326.0,0.000443
1327.0,0.000417
1328.0,0.0003499
1329.0,0.0002489
1330.0,0.0003327
1331.0,0.0001879
1332.0,0.0001952
1333.0,0.0002759
1334.0,0.0002369
1335.0,0.0003325
1336.0,0.0002536
1337.0,0.0002217
1338.0,0.0002395
1339.0,0.0002385
1340.0,0.0002331
1341.0,0.0002213
1342.0,0.0002331
1343.0,0.0001497
1344.0,8.891e-05
1345.0,0.0001282
1346.0,6.152e-05
1347.0,6.22e-05
1348.0,3.979e-06
1349.0,1.428e-05
