interpolation:linear
wavelength,value
280.0,2.1939999999999997e-22
280.5,7.239e-21
281.0,3.886e-20
281.5,3.888e-19
282.0,6.21e-19
282.5,1.539e-18
283.0,4.869e-18
283.5,7.931e-18
284.0,1.309e-16
284.5,3.825e-16
285.0,6.264e-16
285.5,3.129e-15
286.0,1.263e-14
286.5,5.694e-14
287.0,1.636e-13
287.5,6.318e-13
288.0,2.219e-12
288.5,6.635e-12
289.0,1.755e-11
289.5,5.274e-11
290.0,1.461e-10
290.5,2.976e-10
291.0,6.383e-10
291.5,1.832e-09
292.0,3.675e-09
292.5,5.161e-09
293.0,1.108e-08
293.5,2.701e-08
294.0,4.228e-08
294.5,5.786e-08
295.0,9.811e-08
295.5,1.624e-07
296.0,3.149e-07
296.5,4.427e-07
297.0,6.017e-07
297.5,1.627e-06
298.0,2.584e-06
298.5,2.615e-06
299.0,5.801e-06
299.5,9.75e-06
300.0,1.079e-05
300.5,1.574e-05
301.0,2.88e-05
301.5,4.631e-05
302.0,3.975e-05
302.5,7.951e-05
303.0,0.0001477
303.5,0.0001914
304.0,0.000186
304.5,0.0003048
305.0,0.0005299
305.5,0.0006634
306.0,0.0006645
306.5,0.0008776
307.0,0.00149
307.5,0.002267
308.0,0.002444
308.5,0.003089
309.0,0.003146
309.5,0.004007
310.0,0.004224
310.5,0.007002
311.0,0.009136
311.5,0.00896
312.0,0.009766
312.5,0.01258
313.0,0.01404
313.5,0.01322
314.0,0.0177
314.5,0.01721
315.0,0.02295
315.5,0.0183
316.0,0.01722
316.5,0.02638
317.0,0.03264
317.5,0.03325
318.0,0.0271
318.5,0.03667
319.0,0.04542
319.5,0.03437
320.0,0.04099
320.5,0.05606
321.0,0.05412
321.5,0.05222
322.0,0.0508
322.5,0.0443
323.0,0.04665
323.5,0.06039
324.0,0.07098
324.5,0.07029
325.0,0.05879
325.5,0.07913
326.0,0.09772
326.5,0.1007
327.0,0.09898
327.5,0.09404
328.0,0.08037
328.5,0.08836
329.0,0.1099
329.5,0.126
330.0,0.1255
330.5,0.0972
331.0,0.0978
331.5,0.1014
332.0,0.1131
332.5,0.1135
333.0,0.1118
333.5,0.09846
334.0,0.1002
334.5,0.1188
335.0,0.1133
335.5,0.1333
336.0,0.09204
336.5,0.1056
337.0,0.08537
337.5,0.1055
338.0,0.1053
338.5,0.1226
339.0,0.1211
339.5,0.1162
340.0,0.1349
340.5,0.1217
341.0,0.1193
341.5,0.1092
342.0,0.1303
342.5,0.1216
343.0,0.1334
343.5,0.1254
344.0,0.0919
344.5,0.09326
345.0,0.123
345.5,0.1253
346.0,0.1063
346.5,0.1201
347.0,0.1286
347.5,0.1037
348.0,0.118
348.5,0.1177
349.0,0.109
349.5,0.1077
350.0,0.1329
350.5,0.1398
351.0,0.1246
351.5,0.1207
352.0,0.1294
352.5,0.1008
353.0,0.1266
353.5,0.1351
354.0,0.14
354.5,0.1416
355.0,0.1408
355.5,0.1269
356.0,0.1325
356.5,0.1128
357.0,0.09299
357.5,0.1136
358.0,0.0898
358.5,0.07655
359.0,0.1068
359.5,0.1357
360.0,0.1435
360.5,0.1144
361.0,0.1041
361.5,0.1196
362.0,0.1032
362.5,0.1424
363.0,0.1276
363.5,0.1172
364.0,0.143
364.5,0.1219
365.0,0.1239
365.5,0.1551
366.0,0.1639
366.5,0.1536
367.0,0.1492
367.5,0.1545
368.0,0.1348
368.5,0.1357
369.0,0.1462
369.5,0.1554
370.0,0.1653
370.5,0.1279
371.0,0.1364
371.5,0.1701
372.0,0.1126
372.5,0.1347
373.0,0.1367
373.5,0.08869
374.0,0.1285
374.5,0.1062
375.0,0.1029
375.5,0.1533
376.0,0.1267
376.5,0.131
377.0,0.1383
377.5,0.1614
378.0,0.1745
378.5,0.1644
379.0,0.1353
379.5,0.1233
380.0,0.1278
380.5,0.1543
381.0,0.1542
381.5,0.1219
382.0,0.108
382.5,0.09179
383.0,0.08474
383.5,0.0814
384.0,0.08955
384.5,0.1313
385.0,0.1299
385.5,0.1206
386.0,0.103
386.5,0.135
387.0,0.1118
387.5,0.1253
388.0,0.1153
388.5,0.1137
389.0,0.1223
389.5,0.1478
390.0,0.1479
390.5,0.1357
391.0,0.1593
391.5,0.162
392.0,0.136
392.5,0.1214
393.0,0.06738
393.5,0.04884
394.0,0.09911
394.5,0.1257
395.0,0.1529
395.5,0.1549
396.0,0.1339
396.5,0.07804
397.0,0.0584
397.5,0.1184
398.0,0.1653
398.5,0.1704
399.0,0.184
399.5,0.1829
400.0,0.1893
401.0,0.1861
402.0,0.1952
403.0,0.1843
404.0,0.1804
405.0,0.1793
406.0,0.1753
407.0,0.1714
408.0,0.177
409.0,0.1883
410.0,0.1636
411.0,0.1761
412.0,0.188
413.0,0.1823
414.0,0.1834
415.0,0.1827
416.0,0.1847
417.0,0.179
418.0,0.1746
419.0,0.1758
420.0,0.1739
421.0,0.1808
422.0,0.1707
423.0,0.1656
424.0,0.1739
425.0,0.1724
426.0,0.1669
427.0,0.1628
428.0,0.1577
429.0,0.1485
430.0,0.1291
431.0,0.1271
432.0,0.163
433.0,0.1627
434.0,0.1501
435.0,0.1558
436.0,0.1745
437.0,0.1711
438.0,0.1548
439.0,0.1589
440.0,0.1628
441.0,0.1675
442.0,0.1783
443.0,0.1725
444.0,0.1752
445.0,0.1704
446.0,0.1617
447.0,0.1737
448.0,0.1752
449.0,0.1746
450.0,0.1782
451.0,0.1835
452.0,0.1756
453.0,0.1642
454.0,0.1703
455.0,0.1701
456.0,0.1729
457.0,0.1743
458.0,0.167
459.0,0.1648
460.0,0.1639
461.0,0.1664
462.0,0.1666
463.0,0.1646
464.0,0.1611
465.0,0.1582
466.0,0.1588
467.0,0.1548
468.0,0.1553
469.0,0.1549
470.0,0.1489
471.0,0.1477
472.0,0.1547
473.0,0.1517
474.0,0.1508
475.0,0.1509
476.0,0.1451
477.0,0.1442
478.0,0.1468
479.0,0.1446
480.0,0.1436
481.0,0.1449
482.0,0.1446
483.0,0.1419
484.0,0.1383
485.0,0.1311
486.0,0.114
487.0,0.1188
488.0,0.1294
489.0,0.1288
490.0,0.1345
491.0,0.1312
492.0,0.123
493.0,0.1261
494.0,0.1265
495.0,0.1267
496.0,0.1265
497.0,0.1273
498.0,0.1202
499.0,0.1206
500.0,0.1159
501.0,0.1126
502.0,0.1098
503.0,0.1131
504.0,0.109
505.0,0.1121
506.0,0.115
507.0,0.1087
508.0,0.1048
509.0,0.1071
510.0,0.106
511.0,0.1082
512.0,0.1086
513.0,0.102
514.0,0.1005
515.0,0.0987
516.0,0.0977
517.0,0.08617
518.0,0.08993
519.0,0.09361
520.0,0.09623
521.0,0.09634
522.0,0.0956
523.0,0.09314
524.0,0.09559
525.0,0.0958
526.0,0.09068
527.0,0.08459
528.0,0.08858
529.0,0.09254
530.0,0.09044
531.0,0.09101
532.0,0.08718
533.0,0.08402
534.0,0.08593
535.0,0.08727
536.0,0.08753
537.0,0.08355
538.0,0.08445
539.0,0.08317
540.0,0.07917
541.0,0.07904
542.0,0.08082
543.0,0.07934
544.0,0.08012
545.0,0.07934
546.0,0.07908
547.0,0.07848
548.0,0.07699
549.0,0.07671
550.0,0.07708
551.0,0.0756
552.0,0.07557
553.0,0.07368
554.0,0.07489
555.0,0.07447
556.0,0.07291
557.0,0.07006
558.0,0.0689
559.0,0.067
560.0,0.06723
561.0,0.06748
562.0,0.06638
563.0,0.06759
564.0,0.06522
565.0,0.06414
566.0,0.0627
567.0,0.06336
568.0,0.06226
569.0,0.06022
570.0,0.05977
571.0,0.05899
572.0,0.05988
573.0,0.06011
574.0,0.05954
575.0,0.05807
576.0,0.05722
577.0,0.05755
578.0,0.05643
579.0,0.05643
580.0,0.05731
581.0,0.05737
582.0,0.05821
583.0,0.05812
584.0,0.05837
585.0,0.05666
586.0,0.05516
587.0,0.05598
588.0,0.05417
589.0,0.04744
590.0,0.04933
591.0,0.05201
592.0,0.0509
593.0,0.05136
594.0,0.05055
595.0,0.04882
596.0,0.05057
597.0,0.04958
598.0,0.04911
599.0,0.0488
600.0,0.04857
601.0,0.0479
602.0,0.04729
603.0,0.04782
604.0,0.04836
605.0,0.0479
606.0,0.04752
607.0,0.04783
608.0,0.04714
609.0,0.04705
610.0,0.04658
611.0,0.04667
612.0,0.04639
613.0,0.04564
614.0,0.04486
615.0,0.04569
616.0,0.04403
617.0,0.04378
618.0,0.0453
619.0,0.04466
620.0,0.04475
621.0,0.04458
622.0,0.04384
623.0,0.04296
624.0,0.04203
625.0,0.04177
626.0,0.04221
627.0,0.04245
628.0,0.03893
629.0,0.04089
630.0,0.03975
631.0,0.04065
632.0,0.04004
633.0,0.04118
634.0,0.04068
635.0,0.04117
636.0,0.0405
637.0,0.04102
638.0,0.0413
639.0,0.0407
640.0,0.04017
641.0,0.04
642.0,0.03969
643.0,0.04009
644.0,0.03983
645.0,0.0397
646.0,0.03854
647.0,0.03778
648.0,0.03764
649.0,0.03674
650.0,0.03694
651.0,0.03841
652.0,0.03644
653.0,0.03758
654.0,0.03702
655.0,0.03538
656.0,0.03129
657.0,0.03202
658.0,0.0358
659.0,0.03593
660.0,0.03593
661.0,0.03603
662.0,0.03592
663.0,0.03509
664.0,0.03541
665.0,0.03533
666.0,0.03522
667.0,0.03507
668.0,0.03497
669.0,0.03538
670.0,0.03507
671.0,0.03494
672.0,0.03452
673.0,0.03494
674.0,0.03466
675.0,0.0342
676.0,0.0343
677.0,0.03384
678.0,0.03381
679.0,0.03313
680.0,0.03326
681.0,0.03289
682.0,0.0327
683.0,0.03249
684.0,0.03217
685.0,0.0323
686.0,0.03196
687.0,0.01945
688.0,0.02335
689.0,0.02335
690.0,0.02465
691.0,0.02616
692.0,0.02728
693.0,0.02692
694.0,0.02657
695.0,0.02779
696.0,0.02771
697.0,0.02963
698.0,0.02904
699.0,0.028
700.0,0.02753
701.0,0.02708
702.0,0.02723
703.0,0.02717
704.0,0.02803
705.0,0.02793
706.0,0.02783
707.0,0.02775
708.0,0.02767
709.0,0.02766
710.0,0.02748
711.0,0.02738
712.0,0.02723
713.0,0.02679
714.0,0.02676
715.0,0.0257
716.0,0.02558
717.0,0.0214
718.0,0.01943
719.0,0.01758
720.0,0.01835
721.0,0.02056
722.0,0.02396
723.0,0.02192
724.0,0.01935
725.0,0.0189
726.0,0.01978
727.0,0.02006
728.0,0.01859
729.0,0.01941
730.0,0.02048
731.0,0.01942
732.0,0.02094
733.0,0.02231
734.0,0.0228
735.0,0.02219
736.0,0.02206
737.0,0.02203
738.0,0.02244
739.0,0.02188
740.0,0.0224
741.0,0.0221
742.0,0.02204
743.0,0.02249
744.0,0.02232
745.0,0.02223
746.0,0.02223
747.0,0.02217
748.0,0.02202
749.0,0.02166
750.0,0.02156
751.0,0.02126
752.0,0.02126
753.0,0.02128
754.0,0.02123
755.0,0.02102
756.0,0.02092
757.0,0.02086
758.0,0.0205
759.0,0.0199
760.0,0.002732
761.0,0.001432
762.0,0.008806
763.0,0.004148
764.0,0.006351
765.0,0.008673
766.0,0.011
767.0,0.0144
768.0,0.01713
769.0,0.01755
770.0,0.01824
771.0,0.01838
772.0,0.01835
773.0,0.01839
774.0,0.0182
775.0,0.01798
776.0,0.01811
777.0,0.01778
778.0,0.01757
779.0,0.0175
780.0,0.01732
781.0,0.01726
782.0,0.0173
783.0,0.01693
784.0,0.01695
785.0,0.01675
786.0,0.01686
787.0,0.01643
788.0,0.01612
789.0,0.01603
790.0,0.01544
791.0,0.0156
792.0,0.01543
793.0,0.0151
794.0,0.01539
795.0,0.01555
796.0,0.01487
797.0,0.01483
798.0,0.01532
799.0,0.01513
800.0,0.01476
801.0,0.01462
802.0,0.01451
803.0,0.01432
804.0,0.01429
805.0,0.01421
806.0,0.0146
807.0,0.01434
808.0,0.01429
809.0,0.0139
810.0,0.01369
811.0,0.01359
812.0,0.01304
813.0,0.01266
814.0,0.01082
815.0,0.01071
816.0,0.00983
817.0,0.009991
818.0,0.009533
819.0,0.01084
820.0,0.01007
821.0,0.01209
822.0,0.01163
823.0,0.007372
824.0,0.0111
825.0,0.01166
826.0,0.01107
827.0,0.01176
828.0,0.009617
829.0,0.01088
830.0,0.01067
831.0,0.01067
832.0,0.01024
833.0,0.01103
834.0,0.0105
835.0,0.0117
836.0,0.01101
837.0,0.01164
838.0,0.01117
839.0,0.01137
840.0,0.01158
841.0,0.01134
842.0,0.01135
843.0,0.01134
844.0,0.01111
845.0,0.01146
846.0,0.01137
847.0,0.01111
848.0,0.01097
849.0,0.01061
850.0,0.01012
851.0,0.01064
852.0,0.01052
853.0,0.01009
854.0,0.008661
855.0,0.009496
856.0,0.01033
857.0,0.01053
858.0,0.01041
859.0,0.01038
860.0,0.01036
861.0,0.01026
862.0,0.01039
863.0,0.0106
864.0,0.01003
865.0,0.009907
866.0,0.008872
867.0,0.009222
868.0,0.009995
869.0,0.009749
870.0,0.009987
871.0,0.00981
872.0,0.009736
873.0,0.009677
874.0,0.009519
875.0,0.009284
876.0,0.009338
877.0,0.009394
878.0,0.009452
879.0,0.009268
880.0,0.009031
881.0,0.00885
882.0,0.009002
883.0,0.009001
884.0,0.008916
885.0,0.008942
886.0,0.008456
887.0,0.008535
888.0,0.008609
889.0,0.008696
890.0,0.008552
891.0,0.008521
892.0,0.008203
893.0,0.007863
894.0,0.007462
895.0,0.00691
896.0,0.006408
897.0,0.005334
898.0,0.005879
899.0,0.004265
900.0,0.006048
901.0,0.004481
902.0,0.005412
903.0,0.005395
904.0,0.007103
905.0,0.006782
906.0,0.00627
907.0,0.004851
908.0,0.004968
909.0,0.005459
910.0,0.00466
911.0,0.00504
912.0,0.005278
913.0,0.004669
914.0,0.004626
915.0,0.005035
916.0,0.00416
917.0,0.005477
918.0,0.004241
919.0,0.005562
920.0,0.005668
921.0,0.005917
922.0,0.005144
923.0,0.005676
924.0,0.005226
925.0,0.005081
926.0,0.005121
927.0,0.005823
928.0,0.003962
929.0,0.00354
930.0,0.002663
931.0,0.002503
932.0,0.001715
933.0,0.001358
934.0,0.0007006
935.0,0.001392
936.0,0.0008303
937.0,0.0008372
938.0,0.001039
939.0,0.002341
940.0,0.002885
941.0,0.002082
942.0,0.002445
943.0,0.001525
944.0,0.001634
945.0,0.002119
946.0,0.0009992
947.0,0.002101
948.0,0.001503
949.0,0.002901
950.0,0.0007019
951.0,0.00284
952.0,0.001405
953.0,0.001869
954.0,0.002363
955.0,0.001887
956.0,0.001852
957.0,0.001379
958.0,0.002727
959.0,0.002064
960.0,0.002328
961.0,0.00267
962.0,0.002503
963.0,0.002953
964.0,0.00266
965.0,0.002918
966.0,0.002904
967.0,0.00287
968.0,0.004134
969.0,0.004298
970.0,0.003875
971.0,0.004578
972.0,0.004316
973.0,0.003606
974.0,0.003387
975.0,0.003537
976.0,0.003285
977.0,0.003872
978.0,0.003604
979.0,0.003806
980.0,0.003524
981.0,0.00438
982.0,0.004119
983.0,0.003906
984.0,0.004524
985.0,0.004056
986.0,0.004606
987.0,0.004459
988.0,0.004433
989.0,0.004562
990.0,0.004373
991.0,0.004527
992.0,0.004541
993.0,0.004386
994.0,0.004513
995.0,0.004497
996.0,0.004454
997.0,0.004447
998.0,0.004408
999.0,0.004378
1000.0,0.004322
1001.0,0.00437
1002.0,0.004193
1003.0,0.004258
1004.0,0.004127
1005.0,0.003975
1006.0,0.004106
1007.0,0.004181
1008.0,0.004136
1009.0,0.00409
1010.0,0.004053
1011.0,0.004099
1012.0,0.004039
1013.0,0.00406
1014.0,0.004017
1015.0,0.003974
1016.0,0.00394
1017.0,0.003933
1018.0,0.003908
1019.0,0.003795
1020.0,0.003855
1021.0,0.003837
1022.0,0.003787
1023.0,0.003813
1024.0,0.003735
1025.0,0.003787
1026.0,0.003752
1027.0,0.00373
1028.0,0.003708
1029.0,0.003649
1030.0,0.003666
1031.0,0.003635
1032.0,0.003612
1033.0,0.003543
1034.0,0.00353
1035.0,0.003528
1036.0,0.003531
1037.0,0.003461
1038.0,0.003463
1039.0,0.003448
1040.0,0.003421
1041.0,0.00342
1042.0,0.003383
1043.0,0.00336
1044.0,0.003358
1045.0,0.003299
1046.0,0.003249
1047.0,0.003266
1048.0,0.003271
1049.0,0.003247
1050.0,0.003219
1051.0,0.003201
1052.0,0.003175
1053.0,0.003137
1054.0,0.003131
1055.0,0.003119
1056.0,0.003095
1057.0,0.003072
1058.0,0.002984
1059.0,0.002975
1060.0,0.002959
1061.0,0.002943
1062.0,0.002945
1063.0,0.002905
1064.0,0.002929
1065.0,0.002893
1066.0,0.002829
1067.0,0.002853
1068.0,0.002777
1069.0,0.002684
1070.0,0.002762
1071.0,0.002805
1072.0,0.002754
1073.0,0.002707
1074.0,0.00278
1075.0,0.0026
1076.0,0.002755
1077.0,0.002678
1078.0,0.002611
1079.0,0.002687
1080.0,0.002605
1081.0,0.002501
1082.0,0.002558
1083.0,0.002563
1084.0,0.002459
1085.0,0.00257
1086.0,0.002286
1087.0,0.002389
1088.0,0.002508
1089.0,0.002394
1090.0,0.002312
1091.0,0.002465
1092.0,0.002456
1093.0,0.001992
1094.0,0.002221
1095.0,0.002073
1096.0,0.001955
1097.0,0.002359
1098.0,0.001903
1099.0,0.001989
1100.0,0.001808
1101.0,0.001836
1102.0,0.001729
1103.0,0.001692
1104.0,0.001691
1105.0,0.001895
1106.0,0.001341
1107.0,0.001765
1108.0,0.001426
1109.0,0.00143
1110.0,0.001721
1111.0,0.001072
1112.0,0.001407
1113.0,0.0008171
1114.0,0.0009193
1115.0,0.0007459
1116.0,0.0005681
1117.0,0.0001888
1118.0,0.0006211
1119.0,0.0002858
1120.0,0.0003603
1121.0,0.0004882
1122.0,0.0001912
1123.0,0.0003212
1124.0,0.0002684
1125.0,0.0003554
1126.0,0.0001137
1127.0,0.0004006
1128.0,0.0002265
1129.0,0.0002408
1130.0,0.0001546
1131.0,0.0008074
1132.0,0.0006145
1133.0,0.0003653
1134.0,8.565e-05
1135.0,3.186e-05
1136.0,0.0002953
1137.0,0.0007698
1138.0,0.0005255
1139.0,0.0008409
1140.0,0.0006759
1141.0,0.0004932
1142.0,0.0005762
1143.0,0.0008534
1144.0,0.0002656
1145.0,0.0003374
1146.0,0.0003635
1147.0,0.0001181
1148.0,0.0007153
1149.0,0.0005506
1150.0,0.0002827
1151.0,0.0004982
1152.0,0.000631
1153.0,0.0006206
1154.0,0.0003169
1155.0,0.0008334
1156.0,0.0007337
1157.0,0.0008446
1158.0,0.0008314
1159.0,0.0009106
1160.0,0.0007572
1161.0,0.0009729
1162.0,0.0009697
1163.0,0.001397
1164.0,0.001157
1165.0,0.001065
1166.0,0.001066
1167.0,0.001176
1168.0,0.001183
1169.0,0.001217
1170.0,0.001343
1171.0,0.0013
1172.0,0.001332
1173.0,0.001326
1174.0,0.0008808
1175.0,0.001297
1176.0,0.001455
1177.0,0.00137
1178.0,0.00097
1179.0,0.001452
1180.0,0.001252
1181.0,0.001294
1182.0,0.0008303
1183.0,0.001274
1184.0,0.001167
1185.0,0.001109
1186.0,0.001366
1187.0,0.00128
1188.0,0.0008277
1189.0,0.001178
1190.0,0.001317
1191.0,0.00122
1192.0,0.00133
1193.0,0.001258
1194.0,0.001302
1195.0,0.001209
1196.0,0.001149
1197.0,0.001302
1198.0,0.00117
1199.0,0.0009524
1200.0,0.001217
1201.0,0.001156
1202.0,0.001153
1203.0,0.00114
1204.0,0.000966
1205.0,0.00118
1206.0,0.00133
1207.0,0.001131
1208.0,0.001122
1209.0,0.001143
1210.0,0.001198
1211.0,0.001121
1212.0,0.001089
1213.0,0.001249
1214.0,0.001116
1215.0,0.001087
1216.0,0.001234
1217.0,0.001189
1218.0,0.001216
1219.0,0.001193
1220.0,0.00121
1221.0,0.001223
1222.0,0.001182
1223.0,0.001164
1224.0,0.001147
1225.0,0.001199
1226.0,0.001208
1227.0,0.00109
1228.0,0.00121
1229.0,0.001197
1230.0,0.001168
1231.0,0.001211
1232.0,0.001199
1233.0,0.001138
1234.0,0.001201
1235.0,0.001187
1236.0,0.001194
1237.0,0.001168
1238.0,0.001183
1239.0,0.001164
1240.0,0.001165
1241.0,0.001152
1242.0,0.001149
1243.0,0.001136
1244.0,0.001139
1245.0,0.001141
1246.0,0.001131
1247.0,0.001122
1248.0,0.001115
1249.0,0.001117
1250.0,0.001105
1251.0,0.001085
1252.0,0.001085
1253.0,0.001067
1254.0,0.001049
1255.0,0.001072
1256.0,0.001029
1257.0,0.001018
1258.0,0.001042
1259.0,0.0009857
1260.0,0.0009897
1261.0,0.0009136
1262.0,0.0008747
1263.0,0.0008734
1264.0,0.0007848
1265.0,0.0008631
1266.0,0.0008166
1267.0,0.0008362
1268.0,0.0007783
1269.0,0.000425
1270.0,0.0008231
1271.0,0.0008872
1272.0,0.0008892
1273.0,0.000875
1274.0,0.0008776
1275.0,0.0008907
1276.0,0.0008999
1277.0,0.0009069
1278.0,0.0009286
1279.0,0.0009168
1280.0,0.0009028
1281.0,0.000862
1282.0,0.0008335
1283.0,0.0008938
1284.0,0.0009111
1285.0,0.0009152
1286.0,0.0009278
1287.0,0.0009049
1288.0,0.0009034
1289.0,0.0008614
1290.0,0.0008904
1291.0,0.0009018
1292.0,0.0008249
1293.0,0.0008737
1294.0,0.0008638
1295.0,0.0008518
1296.0,0.0007987
1297.0,0.0007438
1298.0,0.0008169
1299.0,0.0008603
1300.0,0.0006933
1301.0,0.0007185
1302.0,0.0008053
1303.0,0.0006798
1304.0,0.0005534
1305.0,0.0007784
1306.0,0.0007744
1307.0,0.0005662
1308.0,0.0006727
1309.0,0.0007583
1310.0,0.0005481
1311.0,0.0006329
1312.0,0.000612
1313.0,0.0005926
1314.0,0.0005165
1315.0,0.0005066
1316.0,0.0006105
1317.0,0.0005703
1318.0,0.0006308
1319.0,0.000462
1320.0,0.0004475
1321.0,0.0005343
1322.0,0.0005355
1323.0,0.0003789
1324.0,0.0004461
1325.0,0.0005825
1326.0,0.0004824
1327.0,0.0004542
1328.0,0.0003809
1329.0,0.0002702
1330.0,0.0003627
1331.0,0.0002023
1332.0,0.0002108
1333.0,0.0003007
1334.0,0.0002558
1335.0,0.0003632
1336.0,0.0002756
1337.0,0.0002396
1338.0,0.0002596
1339.0,0.0002588
1340.0,0.0002525
1341.0,0.00024
1342.0,0.000253
1343.0,0.0001598
1344.0,9.395e-05
1345.0,0.0001367
1346.0,6.4e-05
1347.0,6.459e-05
1348.0,4.037e-06
1349.0,1.454e-05
1350.0,1.509e-05
1351.0,3.623e-06
1352.0,9.734e-07
1353.0,4.953e-08
1354.0,1.702e-07
1355.0,1.371e-09
1356.0,2.399e-08
1357.0,3.644e-08
1358.0,1.609e-09
