interpolation:linear
wavelength,value
280.0,9.002e-23
280.5,3.004e-21
281.0,1.621e-20
281.5,5.229e-19
282.0,5.257e-19
282.5,1.268e-18
283.0,3.97e-18
283.5,6.459e-18
284.0,1.065e-16
284.5,3.12e-16
285.0,5.827e-16
285.5,2.769e-15
286.0,1.108e-14
286.5,4.942e-14
287.0,1.415e-13
287.5,5.454e-13
288.0,1.908e-12
288.5,5.538e-12
289.0,1.441e-11
289.5,4.289e-11
290.0,1.184e-10
290.5,2.409e-10
291.0,5.169e-10
291.5,1.485e-09
292.0,3.012e-09
292.5,4.203e-09
293.0,8.956e-09
293.5,2.163e-08
294.0,3.374e-08
294.5,4.403e-08
295.0,7.426e-08
295.5,1.258e-07
296.0,2.39e-07
296.5,3.288e-07
297.0,4.382e-07
297.5,1.147e-06
298.0,1.766e-06
298.5,1.742e-06
299.0,3.761e-06
299.5,6e-06
300.0,6.435e-06
300.5,9.067e-06
301.0,1.564e-05
301.5,2.374e-05
302.0,1.976e-05
302.5,3.827e-05
303.0,6.841e-05
303.5,8.661e-05
304.0,8.34e-05
304.5,0.0001332
305.0,0.0002232
305.5,0.000273
306.0,0.0002709
306.5,0.0003523
307.0,0.0005769
307.5,0.0008453
308.0,0.0009063
308.5,0.001123
309.0,0.001332
309.5,0.001798
310.0,0.001948
310.5,0.003273
311.0,0.004367
311.5,0.004325
312.0,0.004941
312.5,0.006565
313.0,0.007452
313.5,0.00692
314.0,0.009615
314.5,0.009815
315.0,0.01321
315.5,0.0103
316.0,0.01008
316.5,0.01597
317.0,0.01977
317.5,0.01996
318.0,0.01665
318.5,0.02354
319.0,0.02981
319.5,0.0218
320.0,0.02588
320.5,0.037
321.0,0.03718
321.5,0.03603
322.0,0.03363
322.5,0.0294
323.0,0.03185
323.5,0.0432
324.0,0.05108
324.5,0.04992
325.0,0.04043
325.5,0.05567
326.0,0.07078
326.5,0.0742
327.0,0.07255
327.5,0.06842
328.0,0.05714
328.5,0.06468
329.0,0.08218
329.5,0.09491
330.0,0.09415
330.5,0.07176
331.0,0.07184
331.5,0.07548
332.0,0.08569
332.5,0.08665
333.0,0.08509
333.5,0.07402
334.0,0.07524
334.5,0.0905
335.0,0.08709
335.5,0.1028
336.0,0.07103
336.5,0.081
337.0,0.06514
337.5,0.08034
338.0,0.0812
338.5,0.0951
339.0,0.0941
339.5,0.09031
340.0,0.1044
340.5,0.09429
341.0,0.09293
341.5,0.08542
342.0,0.102
342.5,0.09538
343.0,0.1045
343.5,0.09815
344.0,0.07159
344.5,0.07292
345.0,0.09659
345.5,0.0986
346.0,0.08375
346.5,0.09475
347.0,0.1014
347.5,0.08178
348.0,0.09327
348.5,0.09321
349.0,0.08638
349.5,0.08536
350.0,0.1054
350.5,0.111
351.0,0.09887
351.5,0.09568
352.0,0.1028
352.5,0.08016
353.0,0.1009
353.5,0.1078
354.0,0.1117
354.5,0.1131
355.0,0.1125
355.5,0.1015
356.0,0.106
356.5,0.09038
357.0,0.07453
357.5,0.0911
358.0,0.07208
358.5,0.06149
359.0,0.08583
359.5,0.1091
360.0,0.1154
360.5,0.09214
361.0,0.08388
361.5,0.09643
362.0,0.08326
362.5,0.115
363.0,0.1031
363.5,0.09482
364.0,0.1157
364.5,0.09874
365.0,0.1004
365.5,0.1257
366.0,0.133
366.5,0.1247
367.0,0.1212
367.5,0.1256
368.0,0.1097
368.5,0.1104
369.0,0.1191
369.5,0.1267
370.0,0.1348
370.5,0.1044
371.0,0.1113
371.5,0.139
372.0,0.09209
372.5,0.1102
373.0,0.1119
373.5,0.07265
374.0,0.1054
374.5,0.08708
375.0,0.08448
375.5,0.1259
376.0,0.1041
376.5,0.1077
377.0,0.1138
377.5,0.1329
378.0,0.1437
378.5,0.1355
379.0,0.1116
379.5,0.1017
380.0,0.1055
380.5,0.1275
381.0,0.1275
381.5,0.1009
382.0,0.0894
382.5,0.07605
383.0,0.07025
383.5,0.06752
384.0,0.07433
384.5,0.1091
385.0,0.108
385.5,0.1003
386.0,0.08573
386.5,0.1124
387.0,0.09316
387.5,0.1044
388.0,0.09618
388.5,0.09486
389.0,0.1022
389.5,0.1235
390.0,0.1236
390.5,0.1135
391.0,0.1333
391.5,0.1357
392.0,0.114
392.5,0.1018
393.0,0.05654
393.5,0.04101
394.0,0.08325
394.5,0.1056
395.0,0.1286
395.5,0.1303
396.0,0.1127
396.5,0.06574
397.0,0.04922
397.5,0.09987
398.0,0.1395
398.5,0.1439
399.0,0.1555
399.5,0.1546
400.0,0.1601
401.0,0.1575
402.0,0.1654
403.0,0.1563
404.0,0.1532
405.0,0.1524
406.0,0.1492
407.0,0.146
408.0,0.1509
409.0,0.1607
410.0,0.1397
411.0,0.1506
412.0,0.1609
413.0,0.1562
414.0,0.1573
415.0,0.1569
416.0,0.1587
417.0,0.154
418.0,0.1503
419.0,0.1515
420.0,0.15
421.0,0.1561
422.0,0.1475
423.0,0.1432
424.0,0.1505
425.0,0.1494
426.0,0.1447
427.0,0.1413
428.0,0.137
429.0,0.1291
430.0,0.1124
431.0,0.1107
432.0,0.142
433.0,0.142
434.0,0.1311
435.0,0.1362
436.0,0.1526
437.0,0.1497
438.0,0.1355
439.0,0.1392
440.0,0.1427
441.0,0.1469
442.0,0.1565
443.0,0.1515
444.0,0.154
445.0,0.1499
446.0,0.1424
447.0,0.1531
448.0,0.1545
449.0,0.1541
450.0,0.1573
451.0,0.1621
452.0,0.1553
453.0,0.1453
454.0,0.1508
455.0,0.1507
456.0,0.1532
457.0,0.1546
458.0,0.1481
459.0,0.1462
460.0,0.1454
461.0,0.1477
462.0,0.148
463.0,0.1463
464.0,0.1433
465.0,0.1409
466.0,0.1415
467.0,0.138
468.0,0.1386
469.0,0.1382
470.0,0.1329
471.0,0.132
472.0,0.1383
473.0,0.1357
474.0,0.1349
475.0,0.1351
476.0,0.1299
477.0,0.1291
478.0,0.1314
479.0,0.1294
480.0,0.1284
481.0,0.1297
482.0,0.1294
483.0,0.1271
484.0,0.124
485.0,0.1177
486.0,0.1024
487.0,0.1068
488.0,0.1164
489.0,0.1159
490.0,0.1211
491.0,0.1182
492.0,0.1108
493.0,0.1137
494.0,0.1142
495.0,0.1144
496.0,0.1143
497.0,0.1151
498.0,0.1087
499.0,0.109
500.0,0.1047
501.0,0.1017
502.0,0.0991
503.0,0.102
504.0,0.09833
505.0,0.1011
506.0,0.1037
507.0,0.0981
508.0,0.0946
509.0,0.09681
510.0,0.09583
511.0,0.09783
512.0,0.09822
513.0,0.09225
514.0,0.0909
515.0,0.08929
516.0,0.08838
517.0,0.07795
518.0,0.08135
519.0,0.08468
520.0,0.08705
521.0,0.08713
522.0,0.08643
523.0,0.08419
524.0,0.08636
525.0,0.08649
526.0,0.08182
527.0,0.07628
528.0,0.07983
529.0,0.08336
530.0,0.08143
531.0,0.0819
532.0,0.07844
533.0,0.0756
534.0,0.07733
535.0,0.07856
536.0,0.07881
537.0,0.07525
538.0,0.07607
539.0,0.07491
540.0,0.07129
541.0,0.07116
542.0,0.07274
543.0,0.0714
544.0,0.07208
545.0,0.07136
546.0,0.07111
547.0,0.07057
548.0,0.06924
549.0,0.06898
550.0,0.06931
551.0,0.06798
552.0,0.06796
553.0,0.06625
554.0,0.06732
555.0,0.06693
556.0,0.06552
557.0,0.06293
558.0,0.06187
559.0,0.06012
560.0,0.0603
561.0,0.0605
562.0,0.05947
563.0,0.06053
564.0,0.05838
565.0,0.05739
566.0,0.05609
567.0,0.05666
568.0,0.05565
569.0,0.05379
570.0,0.05339
571.0,0.05268
572.0,0.05345
573.0,0.05365
574.0,0.05314
575.0,0.05183
576.0,0.05109
577.0,0.0514
578.0,0.05043
579.0,0.05046
580.0,0.05128
581.0,0.05138
582.0,0.05217
583.0,0.05211
584.0,0.05235
585.0,0.05083
586.0,0.0495
587.0,0.05025
588.0,0.0486
589.0,0.04253
590.0,0.04422
591.0,0.04664
592.0,0.04562
593.0,0.04604
594.0,0.04528
595.0,0.04369
596.0,0.04527
597.0,0.04436
598.0,0.04393
599.0,0.04363
600.0,0.04343
601.0,0.04283
602.0,0.04229
603.0,0.04276
604.0,0.04327
605.0,0.04287
606.0,0.04256
607.0,0.04287
608.0,0.04228
609.0,0.04224
610.0,0.04184
611.0,0.04196
612.0,0.04173
613.0,0.04109
614.0,0.04043
615.0,0.0412
616.0,0.03973
617.0,0.03953
618.0,0.04092
619.0,0.04037
620.0,0.04046
621.0,0.04033
622.0,0.03967
623.0,0.03889
624.0,0.03807
625.0,0.03784
626.0,0.03825
627.0,0.03848
628.0,0.03521
629.0,0.03706
630.0,0.03604
631.0,0.03691
632.0,0.03637
633.0,0.03744
634.0,0.03701
635.0,0.03749
636.0,0.0369
637.0,0.0374
638.0,0.03768
639.0,0.03716
640.0,0.0367
641.0,0.03656
642.0,0.03631
643.0,0.03669
644.0,0.03647
645.0,0.03636
646.0,0.0353
647.0,0.03459
648.0,0.03449
649.0,0.03367
650.0,0.0339
651.0,0.03526
652.0,0.03344
653.0,0.03453
654.0,0.03403
655.0,0.03252
656.0,0.02878
657.0,0.02946
658.0,0.03297
659.0,0.0331
660.0,0.03312
661.0,0.03322
662.0,0.03313
663.0,0.03237
664.0,0.03269
665.0,0.03263
666.0,0.03255
667.0,0.03243
668.0,0.03235
669.0,0.03274
670.0,0.03247
671.0,0.03236
672.0,0.03199
673.0,0.03238
674.0,0.03214
675.0,0.03173
676.0,0.03183
677.0,0.03141
678.0,0.03139
679.0,0.03077
680.0,0.03089
681.0,0.03056
682.0,0.03039
683.0,0.0302
684.0,0.02991
685.0,0.03004
686.0,0.02973
687.0,0.01791
688.0,0.02153
689.0,0.02155
690.0,0.02277
691.0,0.02421
692.0,0.02531
693.0,0.02498
694.0,0.02469
695.0,0.02586
696.0,0.0258
697.0,0.02763
698.0,0.02709
699.0,0.0261
700.0,0.02566
701.0,0.02522
702.0,0.02538
703.0,0.02533
704.0,0.02616
705.0,0.02607
706.0,0.02599
707.0,0.02591
708.0,0.02585
709.0,0.02585
710.0,0.02568
711.0,0.02559
712.0,0.02545
713.0,0.02504
714.0,0.02502
715.0,0.02402
716.0,0.02391
717.0,0.01993
718.0,0.01812
719.0,0.01641
720.0,0.01711
721.0,0.01919
722.0,0.02239
723.0,0.02048
724.0,0.01807
725.0,0.01765
726.0,0.01846
727.0,0.01876
728.0,0.01737
729.0,0.01815
730.0,0.01913
731.0,0.01815
732.0,0.01959
733.0,0.02089
734.0,0.02136
735.0,0.02078
736.0,0.02065
737.0,0.02064
738.0,0.02104
739.0,0.02053
740.0,0.02102
741.0,0.02074
742.0,0.02069
743.0,0.02112
744.0,0.02097
745.0,0.02088
746.0,0.02088
747.0,0.02083
748.0,0.02069
749.0,0.02036
750.0,0.02026
751.0,0.01998
752.0,0.01999
753.0,0.02001
754.0,0.01997
755.0,0.01978
756.0,0.01969
757.0,0.01963
758.0,0.0193
759.0,0.0187
760.0,0.002623
761.0,0.001388
762.0,0.008214
763.0,0.003944
764.0,0.00597
765.0,0.008094
766.0,0.01024
767.0,0.01342
768.0,0.01605
769.0,0.01648
770.0,0.01716
771.0,0.01731
772.0,0.01728
773.0,0.01732
774.0,0.01714
775.0,0.01693
776.0,0.01705
777.0,0.01674
778.0,0.01654
779.0,0.01647
780.0,0.01631
781.0,0.01625
782.0,0.01629
783.0,0.01595
784.0,0.01597
785.0,0.01578
786.0,0.01589
787.0,0.01547
788.0,0.01518
789.0,0.0151
790.0,0.01453
791.0,0.0147
792.0,0.01454
793.0,0.01423
794.0,0.01452
795.0,0.01467
796.0,0.01401
797.0,0.01396
798.0,0.01445
799.0,0.01426
800.0,0.01392
801.0,0.01377
802.0,0.01367
803.0,0.01349
804.0,0.01346
805.0,0.01339
806.0,0.01377
807.0,0.01352
808.0,0.01347
809.0,0.0131
810.0,0.01289
811.0,0.01279
812.0,0.01226
813.0,0.0119
814.0,0.01016
815.0,0.01006
816.0,0.009239
817.0,0.009386
818.0,0.008953
819.0,0.01018
820.0,0.009469
821.0,0.01138
822.0,0.01095
823.0,0.006937
824.0,0.01044
825.0,0.01099
826.0,0.01043
827.0,0.01108
828.0,0.009048
829.0,0.01026
830.0,0.01006
831.0,0.01006
832.0,0.00965
833.0,0.0104
834.0,0.009898
835.0,0.01105
836.0,0.01038
837.0,0.01099
838.0,0.01053
839.0,0.01073
840.0,0.01093
841.0,0.0107
842.0,0.01072
843.0,0.01071
844.0,0.01049
845.0,0.01083
846.0,0.01074
847.0,0.0105
848.0,0.01037
849.0,0.01002
850.0,0.009557
851.0,0.01004
852.0,0.00993
853.0,0.009528
854.0,0.008176
855.0,0.008968
856.0,0.009753
857.0,0.009949
858.0,0.009833
859.0,0.00981
860.0,0.009794
861.0,0.009702
862.0,0.009824
863.0,0.01002
864.0,0.009486
865.0,0.009368
866.0,0.008391
867.0,0.008723
868.0,0.009455
869.0,0.009222
870.0,0.009448
871.0,0.009281
872.0,0.009212
873.0,0.009155
874.0,0.009007
875.0,0.008785
876.0,0.008836
877.0,0.008889
878.0,0.008943
879.0,0.008769
880.0,0.008545
881.0,0.008371
882.0,0.008514
883.0,0.008515
884.0,0.008433
885.0,0.008457
886.0,0.007992
887.0,0.008071
888.0,0.008139
889.0,0.008225
890.0,0.008084
891.0,0.008056
892.0,0.007749
893.0,0.007425
894.0,0.007035
895.0,0.006503
896.0,0.006035
897.0,0.005022
898.0,0.005531
899.0,0.00402
900.0,0.005694
901.0,0.004216
902.0,0.005091
903.0,0.005072
904.0,0.006694
905.0,0.006392
906.0,0.005909
907.0,0.004564
908.0,0.004679
909.0,0.005137
910.0,0.004386
911.0,0.004752
912.0,0.004967
913.0,0.004394
914.0,0.004356
915.0,0.004729
916.0,0.003921
917.0,0.005148
918.0,0.003992
919.0,0.005234
920.0,0.005349
921.0,0.005572
922.0,0.004844
923.0,0.005348
924.0,0.004912
925.0,0.004779
926.0,0.00481
927.0,0.00547
928.0,0.003719
929.0,0.003324
930.0,0.002505
931.0,0.002355
932.0,0.001622
933.0,0.00129
934.0,0.0006745
935.0,0.00132
936.0,0.0007951
937.0,0.0008018
938.0,0.0009912
939.0,0.002202
940.0,0.002706
941.0,0.001959
942.0,0.002294
943.0,0.001443
944.0,0.001545
945.0,0.001995
946.0,0.0009522
947.0,0.001978
948.0,0.001424
949.0,0.002718
950.0,0.0006738
951.0,0.00266
952.0,0.001333
953.0,0.001763
954.0,0.002219
955.0,0.001779
956.0,0.001756
957.0,0.001308
958.0,0.002566
959.0,0.001946
960.0,0.00219
961.0,0.00251
962.0,0.002356
963.0,0.002778
964.0,0.002506
965.0,0.002742
966.0,0.002731
967.0,0.002698
968.0,0.003898
969.0,0.00404
970.0,0.003648
971.0,0.004316
972.0,0.004067
973.0,0.00339
974.0,0.003188
975.0,0.003329
976.0,0.003087
977.0,0.003652
978.0,0.003392
979.0,0.003581
980.0,0.00332
981.0,0.004129
982.0,0.00388
983.0,0.003679
984.0,0.004272
985.0,0.003819
986.0,0.004354
987.0,0.004213
988.0,0.004189
989.0,0.004316
990.0,0.004131
991.0,0.004281
992.0,0.004295
993.0,0.004145
994.0,0.004269
995.0,0.004256
996.0,0.004214
997.0,0.004209
998.0,0.004172
999.0,0.004144
1000.0,0.004089
1001.0,0.004136
1002.0,0.003962
1003.0,0.00403
1004.0,0.003904
1005.0,0.003763
1006.0,0.003886
1007.0,0.003957
1008.0,0.003913
1009.0,0.003869
1010.0,0.003834
1011.0,0.00388
1012.0,0.003823
1013.0,0.003844
1014.0,0.003803
1015.0,0.003762
1016.0,0.00373
1017.0,0.003723
1018.0,0.0037
1019.0,0.00359
1020.0,0.003649
1021.0,0.003633
1022.0,0.003585
1023.0,0.003609
1024.0,0.003532
1025.0,0.003585
1026.0,0.003552
1027.0,0.003531
1028.0,0.003509
1029.0,0.003454
1030.0,0.00347
1031.0,0.003441
1032.0,0.003419
1033.0,0.003354
1034.0,0.003342
1035.0,0.00334
1036.0,0.003343
1037.0,0.003276
1038.0,0.003278
1039.0,0.003264
1040.0,0.003238
1041.0,0.003237
1042.0,0.003202
1043.0,0.00318
1044.0,0.003178
1045.0,0.003122
1046.0,0.003075
1047.0,0.00309
1048.0,0.003095
1049.0,0.003071
1050.0,0.003045
1051.0,0.003028
1052.0,0.003003
1053.0,0.002967
1054.0,0.002961
1055.0,0.002949
1056.0,0.002926
1057.0,0.002904
1058.0,0.002821
1059.0,0.002811
1060.0,0.002796
1061.0,0.002781
1062.0,0.002783
1063.0,0.002744
1064.0,0.002767
1065.0,0.002732
1066.0,0.002672
1067.0,0.002695
1068.0,0.002623
1069.0,0.002535
1070.0,0.002608
1071.0,0.002651
1072.0,0.002602
1073.0,0.002558
1074.0,0.002628
1075.0,0.002455
1076.0,0.002605
1077.0,0.00253
1078.0,0.002465
1079.0,0.002541
1080.0,0.002461
1081.0,0.002361
1082.0,0.002418
1083.0,0.002424
1084.0,0.002321
1085.0,0.002428
1086.0,0.002157
1087.0,0.002255
1088.0,0.002372
1089.0,0.002259
1090.0,0.002182
1091.0,0.00233
1092.0,0.002321
1093.0,0.001877
1094.0,0.002099
1095.0,0.001952
1096.0,0.00184
1097.0,0.002229
1098.0,0.001789
1099.0,0.00187
1100.0,0.0017
1101.0,0.001727
1102.0,0.001625
1103.0,0.001589
1104.0,0.001588
1105.0,0.001781
1106.0,0.001258
1107.0,0.001659
1108.0,0.00134
1109.0,0.001342
1110.0,0.001615
1111.0,0.001007
1112.0,0.001321
1113.0,0.0007702
1114.0,0.0008641
1115.0,0.0007031
1116.0,0.0005378
1117.0,0.0001826
1118.0,0.0005863
1119.0,0.0002738
1120.0,0.0003439
1121.0,0.0004627
1122.0,0.0001847
1123.0,0.0003071
1124.0,0.0002573
1125.0,0.0003388
1126.0,0.0001108
1127.0,0.0003811
1128.0,0.0002182
1129.0,0.0002316
1130.0,0.0001499
1131.0,0.0007566
1132.0,0.0005789
1133.0,0.000348
1134.0,8.362e-05
1135.0,3.127e-05
1136.0,0.0002828
1137.0,0.0007218
1138.0,0.0004962
1139.0,0.0007884
1140.0,0.0006354
1141.0,0.0004663
1142.0,0.000543
1143.0,0.000799
1144.0,0.0002542
1145.0,0.0003216
1146.0,0.000346
1147.0,0.0001149
1148.0,0.0006711
1149.0,0.0005191
1150.0,0.0002704
1151.0,0.0004706
1152.0,0.0005931
1153.0,0.0005842
1154.0,0.0003026
1155.0,0.0007805
1156.0,0.0006882
1157.0,0.000793
1158.0,0.0007807
1159.0,0.0008529
1160.0,0.000713
1161.0,0.000914
1162.0,0.0009109
1163.0,0.001313
1164.0,0.001088
1165.0,0.0009998
1166.0,0.001004
1167.0,0.001106
1168.0,0.001112
1169.0,0.001144
1170.0,0.001264
1171.0,0.001224
1172.0,0.001256
1173.0,0.001248
1174.0,0.0008301
1175.0,0.001223
1176.0,0.001375
1177.0,0.001293
1178.0,0.0009157
1179.0,0.001372
1180.0,0.00118
1181.0,0.001219
1182.0,0.0007829
1183.0,0.001201
1184.0,0.0011
1185.0,0.001044
1186.0,0.001288
1187.0,0.001206
1188.0,0.0007785
1189.0,0.00111
1190.0,0.001243
1191.0,0.001148
1192.0,0.001256
1193.0,0.001187
1194.0,0.001229
1195.0,0.001139
1196.0,0.001082
1197.0,0.001229
1198.0,0.001106
1199.0,0.0008966
1200.0,0.001148
1201.0,0.001089
1202.0,0.001089
1203.0,0.001074
1204.0,0.0009107
1205.0,0.001115
1206.0,0.001257
1207.0,0.001067
1208.0,0.001059
1209.0,0.001079
1210.0,0.001132
1211.0,0.001059
1212.0,0.001024
1213.0,0.001178
1214.0,0.00105
1215.0,0.001024
1216.0,0.001165
1217.0,0.001123
1218.0,0.001148
1219.0,0.001125
1220.0,0.001142
1221.0,0.001156
1222.0,0.001117
1223.0,0.001099
1224.0,0.001082
1225.0,0.001132
1226.0,0.001142
1227.0,0.001028
1228.0,0.001145
1229.0,0.001132
1230.0,0.001104
1231.0,0.001146
1232.0,0.001135
1233.0,0.001075
1234.0,0.001138
1235.0,0.001124
1236.0,0.001131
1237.0,0.001105
1238.0,0.00112
1239.0,0.001102
1240.0,0.001103
1241.0,0.00109
1242.0,0.001088
1243.0,0.001076
1244.0,0.001079
1245.0,0.001081
1246.0,0.001071
1247.0,0.001062
1248.0,0.001056
1249.0,0.001058
1250.0,0.001046
1251.0,0.001027
1252.0,0.001027
1253.0,0.001009
1254.0,0.0009915
1255.0,0.001015
1256.0,0.0009717
1257.0,0.000961
1258.0,0.000985
1259.0,0.0009291
1260.0,0.0009332
1261.0,0.0008583
1262.0,0.0008203
1263.0,0.0008189
1264.0,0.0007333
1265.0,0.0008092
1266.0,0.000764
1267.0,0.0007835
1268.0,0.0007275
1269.0,0.0003966
1270.0,0.0007706
1271.0,0.0008336
1272.0,0.0008356
1273.0,0.000822
1274.0,0.000825
1275.0,0.0008378
1276.0,0.0008471
1277.0,0.0008548
1278.0,0.0008764
1279.0,0.0008655
1280.0,0.0008521
1281.0,0.0008144
1282.0,0.0007885
1283.0,0.0008453
1284.0,0.0008616
1285.0,0.0008657
1286.0,0.0008781
1287.0,0.0008554
1288.0,0.0008545
1289.0,0.0008127
1290.0,0.0008422
1291.0,0.0008534
1292.0,0.0007776
1293.0,0.0008262
1294.0,0.0008168
1295.0,0.0008039
1296.0,0.0007524
1297.0,0.0007
1298.0,0.0007708
1299.0,0.0008137
1300.0,0.0006531
1301.0,0.0006768
1302.0,0.0007602
1303.0,0.0006405
1304.0,0.00052
1305.0,0.0007348
1306.0,0.0007301
1307.0,0.0005328
1308.0,0.0006344
1309.0,0.0007138
1310.0,0.0005154
1311.0,0.0005964
1312.0,0.0005767
1313.0,0.0005572
1314.0,0.0004855
1315.0,0.0004757
1316.0,0.0005747
1317.0,0.0005368
1318.0,0.0005942
1319.0,0.0004341
1320.0,0.0004209
1321.0,0.0005025
1322.0,0.0005028
1323.0,0.0003557
1324.0,0.0004196
1325.0,0.0005475
1326.0,0.0004535
1327.0,0.0004268
1328.0,0.0003581
1329.0,0.0002543
1330.0,0.0003404
1331.0,0.0001914
1332.0,0.0001991
1333.0,0.0002821
1334.0,0.0002418
1335.0,0.0003405
1336.0,0.0002592
1337.0,0.0002263
1338.0,0.0002445
1339.0,0.0002437
1340.0,0.0002381
1341.0,0.000226
1342.0,0.0002381
1343.0,0.000152
1344.0,9.014e-05
1345.0,0.0001302
1346.0,6.209e-05
1347.0,6.273e-05
1348.0,3.996e-06
1349.0,1.435e-05
1350.0,1.488e-05
1351.0,3.59e-06
1352.0,9.656e-07
1353.0,4.914e-08
