interpolation:linear
wavelength,value
280.0,6.437999999999999e-23
280.5,2.158e-21
281.0,1.1670000000000001e-20
281.5,3.782e-19
282.0,5.071e-19
282.5,1.198e-18
283.0,3.72e-18
283.5,6.044e-18
284.0,9.921e-17
284.5,2.909e-16
285.0,6.289e-16
285.5,2.827e-15
286.0,1.12e-14
286.5,4.925e-14
287.0,1.402e-13
287.5,5.378e-13
288.0,1.808e-12
288.5,5.189e-12
289.0,1.343e-11
289.5,3.986e-11
290.0,1.1e-10
290.5,2.239e-10
291.0,4.807e-10
291.5,1.383e-09
292.0,2.824e-09
292.5,3.932e-09
293.0,8.358e-09
293.5,2.012e-08
294.0,3.137e-08
294.5,3.963e-08
295.0,6.671e-08
295.5,1.135e-07
296.0,2.139e-07
296.5,2.917e-07
297.0,3.858e-07
297.5,9.98e-07
298.0,1.52e-06
298.5,1.486e-06
299.0,3.181e-06
299.5,4.993e-06
300.0,5.307e-06
300.5,7.407e-06
301.0,1.258e-05
301.5,1.883e-05
302.0,1.557e-05
302.5,2.99e-05
303.0,5.264e-05
303.5,6.603e-05
304.0,6.327e-05
304.5,9.982e-05
305.0,0.0001647
305.5,0.0001995
306.0,0.0001973
306.5,0.0002551
307.0,0.0004129
307.5,0.0005989
308.0,0.0006411
308.5,0.000791
309.0,0.0009128
309.5,0.001257
310.0,0.001375
310.5,0.002322
311.0,0.003124
311.5,0.003106
312.0,0.003612
312.5,0.004857
313.0,0.005549
313.5,0.005124
314.0,0.007226
314.5,0.007522
315.0,0.01016
315.5,0.007849
316.0,0.007808
316.5,0.01255
317.0,0.01553
317.5,0.01562
318.0,0.01316
318.5,0.01895
319.0,0.02423
319.5,0.01746
320.0,0.02068
320.5,0.03014
321.0,0.03081
321.5,0.02991
322.0,0.02742
322.5,0.02401
323.0,0.02632
323.5,0.03678
324.0,0.04361
324.5,0.04233
325.0,0.03351
325.5,0.0466
326.0,0.06061
326.5,0.06408
327.0,0.06248
327.5,0.05871
328.0,0.04845
328.5,0.05565
329.0,0.07147
329.5,0.0828
330.0,0.08196
330.5,0.06199
331.0,0.06189
331.5,0.06545
332.0,0.07494
332.5,0.07607
333.0,0.07457
333.5,0.06449
334.0,0.0655
334.5,0.07935
335.0,0.07667
335.5,0.09074
336.0,0.06271
336.5,0.07123
337.0,0.05713
337.5,0.07041
338.0,0.07157
338.5,0.08413
339.0,0.08333
339.5,0.07995
340.0,0.09214
340.5,0.08329
341.0,0.08236
341.5,0.07581
342.0,0.09059
342.5,0.08475
343.0,0.09283
343.5,0.08715
344.0,0.06337
344.5,0.06472
345.0,0.08587
345.5,0.08774
346.0,0.07457
346.5,0.08441
347.0,0.09028
347.5,0.07284
348.0,0.08315
348.5,0.08315
349.0,0.0771
349.5,0.0762
350.0,0.09414
350.5,0.09915
351.0,0.08831
351.5,0.0854
352.0,0.09179
352.5,0.07166
353.0,0.09024
353.5,0.09644
354.0,0.1
354.5,0.1013
355.0,0.1007
355.5,0.09092
356.0,0.09503
356.5,0.08103
357.0,0.06684
357.5,0.08172
358.0,0.06468
358.5,0.0552
359.0,0.07706
359.5,0.09793
360.0,0.1037
360.5,0.08279
361.0,0.07539
361.5,0.08671
362.0,0.07489
362.5,0.1035
363.0,0.09281
363.5,0.08536
364.0,0.1042
364.5,0.08894
365.0,0.09043
365.5,0.1133
366.0,0.1199
366.5,0.1125
367.0,0.1094
367.5,0.1133
368.0,0.09899
368.5,0.09971
369.0,0.1075
369.5,0.1144
370.0,0.1218
370.5,0.09436
371.0,0.1007
371.5,0.1257
372.0,0.0833
372.5,0.09971
373.0,0.1013
373.5,0.06577
374.0,0.0954
374.5,0.07887
375.0,0.07654
375.5,0.1141
376.0,0.0944
376.5,0.09765
377.0,0.1032
377.5,0.1205
378.0,0.1304
378.5,0.123
379.0,0.1014
379.5,0.0924
380.0,0.09589
380.5,0.1159
381.0,0.1159
381.5,0.09174
382.0,0.08132
382.5,0.0692
383.0,0.06394
383.5,0.06147
384.0,0.06769
384.5,0.09937
385.0,0.09836
385.5,0.09143
386.0,0.07816
386.5,0.1025
387.0,0.08498
387.5,0.09526
388.0,0.08778
388.5,0.0866
389.0,0.0933
389.5,0.1128
390.0,0.113
390.5,0.1037
391.0,0.1219
391.5,0.1241
392.0,0.1043
392.5,0.09317
393.0,0.05174
393.5,0.03754
394.0,0.07623
394.5,0.09673
395.0,0.1178
395.5,0.1194
396.0,0.1033
396.5,0.06028
397.0,0.04514
397.5,0.09162
398.0,0.128
398.5,0.1321
399.0,0.1427
399.5,0.142
400.0,0.1471
401.0,0.1447
402.0,0.152
403.0,0.1438
404.0,0.141
405.0,0.1403
406.0,0.1374
407.0,0.1346
408.0,0.1391
409.0,0.1482
410.0,0.1289
411.0,0.139
412.0,0.1487
413.0,0.1443
414.0,0.1454
415.0,0.1451
416.0,0.1469
417.0,0.1426
418.0,0.1392
419.0,0.1404
420.0,0.1391
421.0,0.1448
422.0,0.1369
423.0,0.1329
424.0,0.1398
425.0,0.1388
426.0,0.1345
427.0,0.1314
428.0,0.1274
429.0,0.1202
430.0,0.1046
431.0,0.1031
432.0,0.1324
433.0,0.1323
434.0,0.1222
435.0,0.127
436.0,0.1425
437.0,0.1398
438.0,0.1266
439.0,0.13
440.0,0.1333
441.0,0.1373
442.0,0.1463
443.0,0.1417
444.0,0.1441
445.0,0.1403
446.0,0.1334
447.0,0.1435
448.0,0.1448
449.0,0.1444
450.0,0.1475
451.0,0.1521
452.0,0.1458
453.0,0.1364
454.0,0.1417
455.0,0.1416
456.0,0.144
457.0,0.1453
458.0,0.1392
459.0,0.1374
460.0,0.1367
461.0,0.1389
462.0,0.1392
463.0,0.1376
464.0,0.1349
465.0,0.1327
466.0,0.1334
467.0,0.1301
468.0,0.1307
469.0,0.1303
470.0,0.1254
471.0,0.1245
472.0,0.1305
473.0,0.1281
474.0,0.1274
475.0,0.1275
476.0,0.1227
477.0,0.1219
478.0,0.1241
479.0,0.1222
480.0,0.1213
481.0,0.1225
482.0,0.1223
483.0,0.1202
484.0,0.1172
485.0,0.1113
486.0,0.09694
487.0,0.1011
488.0,0.1102
489.0,0.1098
490.0,0.1147
491.0,0.1119
492.0,0.105
493.0,0.1078
494.0,0.1082
495.0,0.1085
496.0,0.1084
497.0,0.1092
498.0,0.1031
499.0,0.1034
500.0,0.09931
501.0,0.09646
502.0,0.09404
503.0,0.09683
504.0,0.09339
505.0,0.09608
506.0,0.09853
507.0,0.09323
508.0,0.08993
509.0,0.09207
510.0,0.09116
511.0,0.09308
512.0,0.09346
513.0,0.08779
514.0,0.08651
515.0,0.08497
516.0,0.08411
517.0,0.07418
518.0,0.07742
519.0,0.08059
520.0,0.08285
521.0,0.08293
522.0,0.08225
523.0,0.08012
524.0,0.08216
525.0,0.08227
526.0,0.07781
527.0,0.07252
528.0,0.07588
529.0,0.07922
530.0,0.07737
531.0,0.07781
532.0,0.07452
533.0,0.07182
534.0,0.07347
535.0,0.07464
536.0,0.0749
537.0,0.07152
538.0,0.07231
539.0,0.07121
540.0,0.06777
541.0,0.06763
542.0,0.06913
543.0,0.06785
544.0,0.06849
545.0,0.0678
546.0,0.06756
547.0,0.06705
548.0,0.06579
549.0,0.06555
550.0,0.06586
551.0,0.06459
552.0,0.06457
553.0,0.06295
554.0,0.06397
555.0,0.06359
556.0,0.06225
557.0,0.05978
558.0,0.05876
559.0,0.05709
560.0,0.05725
561.0,0.05742
562.0,0.05644
563.0,0.05743
564.0,0.05538
565.0,0.05444
566.0,0.0532
567.0,0.05373
568.0,0.05277
569.0,0.051
570.0,0.05061
571.0,0.04994
572.0,0.05066
573.0,0.05085
574.0,0.05037
575.0,0.04913
576.0,0.04843
577.0,0.04874
578.0,0.04783
579.0,0.04787
580.0,0.04866
581.0,0.04877
582.0,0.04953
583.0,0.04949
584.0,0.04973
585.0,0.04829
586.0,0.04703
587.0,0.04775
588.0,0.04618
589.0,0.0404
590.0,0.04201
591.0,0.04431
592.0,0.04333
593.0,0.04373
594.0,0.043
595.0,0.04148
596.0,0.04298
597.0,0.0421
598.0,0.04169
599.0,0.0414
600.0,0.0412
601.0,0.04063
602.0,0.04012
603.0,0.04058
604.0,0.04107
605.0,0.0407
606.0,0.04041
607.0,0.04072
608.0,0.04017
609.0,0.04015
610.0,0.03979
611.0,0.03991
612.0,0.03971
613.0,0.03912
614.0,0.03849
615.0,0.03924
616.0,0.03785
617.0,0.03767
618.0,0.03901
619.0,0.03849
620.0,0.03859
621.0,0.03846
622.0,0.03785
623.0,0.03711
624.0,0.03633
625.0,0.03612
626.0,0.03652
627.0,0.03674
628.0,0.03359
629.0,0.03538
630.0,0.03442
631.0,0.03527
632.0,0.03476
633.0,0.03579
634.0,0.0354
635.0,0.03586
636.0,0.03531
637.0,0.0358
638.0,0.03608
639.0,0.03559
640.0,0.03516
641.0,0.03504
642.0,0.03481
643.0,0.03518
644.0,0.03497
645.0,0.03488
646.0,0.03387
647.0,0.03318
648.0,0.03309
649.0,0.03231
650.0,0.03255
651.0,0.03386
652.0,0.03212
653.0,0.03317
654.0,0.0327
655.0,0.03125
656.0,0.02766
657.0,0.02832
658.0,0.0317
659.0,0.03184
660.0,0.03186
661.0,0.03197
662.0,0.03189
663.0,0.03116
664.0,0.03147
665.0,0.03142
666.0,0.03135
667.0,0.03124
668.0,0.03117
669.0,0.03155
670.0,0.0313
671.0,0.0312
672.0,0.03084
673.0,0.03123
674.0,0.031
675.0,0.03061
676.0,0.03071
677.0,0.03031
678.0,0.03029
679.0,0.0297
680.0,0.02982
681.0,0.02951
682.0,0.02934
683.0,0.02916
684.0,0.02889
685.0,0.02902
686.0,0.02872
687.0,0.01726
688.0,0.02074
689.0,0.02076
690.0,0.02195
691.0,0.02335
692.0,0.02442
693.0,0.02411
694.0,0.02385
695.0,0.025
696.0,0.02494
697.0,0.02672
698.0,0.0262
699.0,0.02524
700.0,0.02482
701.0,0.02439
702.0,0.02455
703.0,0.02451
704.0,0.02531
705.0,0.02523
706.0,0.02515
707.0,0.02508
708.0,0.02502
709.0,0.02503
710.0,0.02486
711.0,0.02477
712.0,0.02465
713.0,0.02424
714.0,0.02423
715.0,0.02326
716.0,0.02315
717.0,0.01928
718.0,0.01754
719.0,0.01589
720.0,0.01657
721.0,0.01858
722.0,0.02168
723.0,0.01984
724.0,0.0175
725.0,0.01709
726.0,0.01788
727.0,0.01817
728.0,0.01683
729.0,0.01759
730.0,0.01853
731.0,0.01758
732.0,0.01899
733.0,0.02025
734.0,0.02071
735.0,0.02014
736.0,0.02002
737.0,0.02
738.0,0.02041
739.0,0.01991
740.0,0.02039
741.0,0.02012
742.0,0.02008
743.0,0.02049
744.0,0.02035
745.0,0.02027
746.0,0.02026
747.0,0.02022
748.0,0.02008
749.0,0.01976
750.0,0.01967
751.0,0.0194
752.0,0.01941
753.0,0.01943
754.0,0.0194
755.0,0.01921
756.0,0.01913
757.0,0.01907
758.0,0.01875
759.0,0.01816
760.0,0.002581
761.0,0.001369
762.0,0.007977
763.0,0.003867
764.0,0.005824
765.0,0.007861
766.0,0.009917
767.0,0.013
768.0,0.01557
769.0,0.01599
770.0,0.01666
771.0,0.01681
772.0,0.0168
773.0,0.01683
774.0,0.01666
775.0,0.01645
776.0,0.01657
777.0,0.01626
778.0,0.01607
779.0,0.016
780.0,0.01585
781.0,0.01579
782.0,0.01583
783.0,0.0155
784.0,0.01552
785.0,0.01534
786.0,0.01544
787.0,0.01503
788.0,0.01475
789.0,0.01467
790.0,0.01412
791.0,0.01429
792.0,0.01413
793.0,0.01383
794.0,0.01412
795.0,0.01427
796.0,0.01362
797.0,0.01357
798.0,0.01405
799.0,0.01387
800.0,0.01353
801.0,0.01339
802.0,0.01329
803.0,0.01311
804.0,0.01308
805.0,0.01302
806.0,0.0134
807.0,0.01315
808.0,0.0131
809.0,0.01274
810.0,0.01253
811.0,0.01244
812.0,0.01191
813.0,0.01156
814.0,0.009873
815.0,0.009776
816.0,0.008978
817.0,0.009118
818.0,0.008698
819.0,0.009889
820.0,0.009201
821.0,0.01106
822.0,0.01064
823.0,0.006747
824.0,0.01015
825.0,0.01069
826.0,0.01014
827.0,0.01078
828.0,0.008795
829.0,0.00998
830.0,0.009789
831.0,0.009786
832.0,0.009386
833.0,0.01011
834.0,0.009627
835.0,0.01076
836.0,0.01009
837.0,0.01069
838.0,0.01024
839.0,0.01044
840.0,0.01064
841.0,0.01041
842.0,0.01043
843.0,0.01043
844.0,0.01021
845.0,0.01054
846.0,0.01046
847.0,0.01023
848.0,0.01009
849.0,0.009756
850.0,0.009302
851.0,0.009772
852.0,0.009664
853.0,0.009274
854.0,0.007956
855.0,0.008729
856.0,0.009493
857.0,0.009685
858.0,0.009571
859.0,0.009551
860.0,0.009536
861.0,0.009447
862.0,0.009567
863.0,0.00976
864.0,0.009239
865.0,0.009125
866.0,0.008173
867.0,0.008496
868.0,0.00921
869.0,0.008984
870.0,0.009204
871.0,0.009041
872.0,0.008974
873.0,0.008919
874.0,0.008775
875.0,0.008558
876.0,0.008608
877.0,0.00866
878.0,0.008713
879.0,0.008543
880.0,0.008325
881.0,0.008155
882.0,0.008293
883.0,0.008294
884.0,0.008215
885.0,0.008238
886.0,0.007783
887.0,0.007861
888.0,0.007927
889.0,0.008012
890.0,0.007872
891.0,0.007847
892.0,0.007545
893.0,0.007229
894.0,0.006845
895.0,0.006323
896.0,0.00587
897.0,0.004886
898.0,0.005378
899.0,0.003914
900.0,0.005537
901.0,0.004101
902.0,0.00495
903.0,0.004931
904.0,0.006512
905.0,0.006219
906.0,0.005749
907.0,0.004439
908.0,0.004553
909.0,0.004996
910.0,0.004267
911.0,0.004627
912.0,0.004831
913.0,0.004275
914.0,0.00424
915.0,0.004597
916.0,0.003817
917.0,0.005005
918.0,0.003885
919.0,0.005089
920.0,0.005207
921.0,0.00542
922.0,0.004713
923.0,0.005202
924.0,0.004775
925.0,0.004648
926.0,0.004675
927.0,0.005314
928.0,0.003616
929.0,0.003234
930.0,0.00244
931.0,0.002294
932.0,0.001585
933.0,0.001263
934.0,0.0006646
935.0,0.001292
936.0,0.0007813
937.0,0.000788
938.0,0.0009725
939.0,0.002144
940.0,0.002631
941.0,0.00191
942.0,0.002233
943.0,0.001409
944.0,0.001508
945.0,0.001944
946.0,0.0009336
947.0,0.001928
948.0,0.001391
949.0,0.002643
950.0,0.0006628
951.0,0.002585
952.0,0.001303
953.0,0.00172
954.0,0.00216
955.0,0.001735
956.0,0.001715
957.0,0.001279
958.0,0.002497
959.0,0.001897
960.0,0.002133
961.0,0.002443
962.0,0.002295
963.0,0.002703
964.0,0.00244
965.0,0.002667
966.0,0.002657
967.0,0.002625
968.0,0.003794
969.0,0.003927
970.0,0.003549
971.0,0.0042
972.0,0.003957
973.0,0.003297
974.0,0.003102
975.0,0.003239
976.0,0.003001
977.0,0.003555
978.0,0.0033
979.0,0.003483
980.0,0.003231
981.0,0.004018
982.0,0.003775
983.0,0.00358
984.0,0.004159
985.0,0.003714
986.0,0.004242
987.0,0.004104
988.0,0.004081
989.0,0.004205
990.0,0.004023
991.0,0.00417
992.0,0.004185
993.0,0.004038
994.0,0.00416
995.0,0.004148
996.0,0.004107
997.0,0.004102
998.0,0.004066
999.0,0.004038
1000.0,0.003985
1001.0,0.004031
1002.0,0.003859
1003.0,0.003928
1004.0,0.003804
1005.0,0.003667
1006.0,0.003787
1007.0,0.003857
1008.0,0.003814
1009.0,0.00377
1010.0,0.003736
1011.0,0.003781
1012.0,0.003725
1013.0,0.003746
1014.0,0.003707
1015.0,0.003667
1016.0,0.003635
1017.0,0.003628
1018.0,0.003606
1019.0,0.003499
1020.0,0.003557
1021.0,0.003541
1022.0,0.003494
1023.0,0.003517
1024.0,0.003442
1025.0,0.003495
1026.0,0.003462
1027.0,0.003442
1028.0,0.003421
1029.0,0.003366
1030.0,0.003383
1031.0,0.003354
1032.0,0.003333
1033.0,0.00327
1034.0,0.003258
1035.0,0.003256
1036.0,0.003258
1037.0,0.003194
1038.0,0.003196
1039.0,0.003181
1040.0,0.003156
1041.0,0.003155
1042.0,0.003121
1043.0,0.003099
1044.0,0.003098
1045.0,0.003043
1046.0,0.002996
1047.0,0.003011
1048.0,0.003016
1049.0,0.002993
1050.0,0.002967
1051.0,0.00295
1052.0,0.002926
1053.0,0.002891
1054.0,0.002885
1055.0,0.002873
1056.0,0.00285
1057.0,0.002829
1058.0,0.002748
1059.0,0.002738
1060.0,0.002723
1061.0,0.002708
1062.0,0.00271
1063.0,0.002672
1064.0,0.002695
1065.0,0.00266
1066.0,0.002602
1067.0,0.002625
1068.0,0.002554
1069.0,0.002469
1070.0,0.00254
1071.0,0.002582
1072.0,0.002534
1073.0,0.002491
1074.0,0.00256
1075.0,0.002391
1076.0,0.002537
1077.0,0.002465
1078.0,0.002401
1079.0,0.002476
1080.0,0.002397
1081.0,0.002299
1082.0,0.002355
1083.0,0.002361
1084.0,0.00226
1085.0,0.002365
1086.0,0.002101
1087.0,0.002196
1088.0,0.002311
1089.0,0.002199
1090.0,0.002125
1091.0,0.002269
1092.0,0.002261
1093.0,0.001827
1094.0,0.002044
1095.0,0.001898
1096.0,0.00179
1097.0,0.002172
1098.0,0.001739
1099.0,0.001818
1100.0,0.001653
1101.0,0.00168
1102.0,0.00158
1103.0,0.001545
1104.0,0.001545
1105.0,0.001731
1106.0,0.001224
1107.0,0.001613
1108.0,0.001303
1109.0,0.001305
1110.0,0.001569
1111.0,0.0009803
1112.0,0.001284
1113.0,0.0007511
1114.0,0.0008417
1115.0,0.0006857
1116.0,0.0005259
1117.0,0.0001803
1118.0,0.0005726
1119.0,0.0002693
1120.0,0.0003378
1121.0,0.0004533
1122.0,0.0001823
1123.0,0.0003018
1124.0,0.0002531
1125.0,0.0003326
1126.0,0.0001097
1127.0,0.0003738
1128.0,0.0002153
1129.0,0.0002283
1130.0,0.0001481
1131.0,0.0007369
1132.0,0.0005653
1133.0,0.0003418
1134.0,8.286e-05
1135.0,3.101e-05
1136.0,0.0002783
1137.0,0.0007035
1138.0,0.000485
1139.0,0.0007669
1140.0,0.0006193
1141.0,0.0004559
1142.0,0.0005301
1143.0,0.0007773
1144.0,0.0002498
1145.0,0.0003158
1146.0,0.0003397
1147.0,0.0001138
1148.0,0.0006535
1149.0,0.0005069
1150.0,0.0002656
1151.0,0.00046
1152.0,0.0005783
1153.0,0.0005695
1154.0,0.0002973
1155.0,0.0007589
1156.0,0.00067
1157.0,0.0007718
1158.0,0.0007599
1159.0,0.0008289
1160.0,0.0006947
1161.0,0.0008892
1162.0,0.0008861
1163.0,0.001276
1164.0,0.001058
1165.0,0.0009724
1166.0,0.000977
1167.0,0.001076
1168.0,0.001082
1169.0,0.001113
1170.0,0.001229
1171.0,0.001191
1172.0,0.001223
1173.0,0.001214
1174.0,0.0008087
1175.0,0.00119
1176.0,0.001339
1177.0,0.001259
1178.0,0.0008924
1179.0,0.001337
1180.0,0.001149
1181.0,0.001187
1182.0,0.0007627
1183.0,0.001169
1184.0,0.00107
1185.0,0.001016
1186.0,0.001254
1187.0,0.001173
1188.0,0.0007576
1189.0,0.001081
1190.0,0.001211
1191.0,0.001117
1192.0,0.001224
1193.0,0.001156
1194.0,0.001197
1195.0,0.001108
1196.0,0.001053
1197.0,0.001197
1198.0,0.001077
1199.0,0.0008725
1200.0,0.001118
1201.0,0.001059
1202.0,0.001061
1203.0,0.001045
1204.0,0.0008868
1205.0,0.001087
1206.0,0.001225
1207.0,0.001038
1208.0,0.001032
1209.0,0.00105
1210.0,0.001102
1211.0,0.001031
1212.0,0.0009956
1213.0,0.001147
1214.0,0.001021
1215.0,0.0009959
1216.0,0.001135
1217.0,0.001093
1218.0,0.001118
1219.0,0.001095
1220.0,0.001112
1221.0,0.001126
1222.0,0.001088
1223.0,0.001071
1224.0,0.001053
1225.0,0.001103
1226.0,0.001113
1227.0,0.001001
1228.0,0.001116
1229.0,0.001103
1230.0,0.001076
1231.0,0.001117
1232.0,0.001106
1233.0,0.001047
1234.0,0.00111
1235.0,0.001096
1236.0,0.001103
1237.0,0.001077
1238.0,0.001092
1239.0,0.001074
1240.0,0.001076
1241.0,0.001063
1242.0,0.001061
1243.0,0.001049
1244.0,0.001052
1245.0,0.001054
1246.0,0.001044
1247.0,0.001036
1248.0,0.001029
1249.0,0.001031
1250.0,0.00102
1251.0,0.001001
1252.0,0.001002
1253.0,0.0009837
1254.0,0.0009658
1255.0,0.0009894
1256.0,0.0009464
1257.0,0.0009358
1258.0,0.0009598
1259.0,0.0009041
1260.0,0.0009083
1261.0,0.000834
1262.0,0.0007965
1263.0,0.0007952
1264.0,0.0007112
1265.0,0.0007858
1266.0,0.0007413
1267.0,0.0007606
1268.0,0.0007057
1269.0,0.0003859
1270.0,0.0007479
1271.0,0.0008102
1272.0,0.0008121
1273.0,0.0007988
1274.0,0.0008019
1275.0,0.0008145
1276.0,0.0008239
1277.0,0.0008318
1278.0,0.0008533
1279.0,0.0008429
1280.0,0.0008297
1281.0,0.0007932
1282.0,0.0007685
1283.0,0.0008237
1284.0,0.0008396
1285.0,0.0008436
1286.0,0.000856
1287.0,0.0008334
1288.0,0.0008327
1289.0,0.0007912
1290.0,0.0008207
1291.0,0.0008319
1292.0,0.0007569
1293.0,0.0008052
1294.0,0.000796
1295.0,0.0007827
1296.0,0.0007321
1297.0,0.000681
1298.0,0.0007505
1299.0,0.0007931
1300.0,0.0006357
1301.0,0.0006587
1302.0,0.0007403
1303.0,0.0006234
1304.0,0.0005059
1305.0,0.0007156
1306.0,0.0007106
1307.0,0.0005185
1308.0,0.0006177
1309.0,0.0006944
1310.0,0.0005014
1311.0,0.0005805
1312.0,0.0005615
1313.0,0.0005419
1314.0,0.0004722
1315.0,0.0004626
1316.0,0.0005592
1317.0,0.0005223
1318.0,0.0005783
1319.0,0.0004224
1320.0,0.0004096
1321.0,0.0004888
1322.0,0.0004888
1323.0,0.0003462
1324.0,0.0004084
1325.0,0.0005324
1326.0,0.0004412
1327.0,0.0004152
1328.0,0.0003485
1329.0,0.0002479
1330.0,0.0003313
1331.0,0.0001873
1332.0,0.0001945
1333.0,0.0002749
1334.0,0.000236
1335.0,0.0003311
1336.0,0.0002526
1337.0,0.0002209
1338.0,0.0002386
1339.0,0.0002376
1340.0,0.0002323
1341.0,0.0002205
1342.0,0.0002322
1343.0,0.0001493
1344.0,8.87e-05
1345.0,0.0001278
1346.0,6.143e-05
1347.0,6.211e-05
1348.0,3.975e-06
