interpolation:linear
wavelength,value
280.0,4.2119999999999995e-22
280.5,1.377e-20
281.0,7.367000000000001e-20
281.5,4.488e-19
282.0,7.428e-19
282.5,1.841e-18
283.0,5.811e-18
283.5,9.45e-18
284.0,1.548e-16
284.5,4.505e-16
285.0,7.682e-16
285.5,3.81e-15
286.0,1.533e-14
286.5,6.88e-14
287.0,1.969e-13
287.5,7.57e-13
288.0,2.547e-12
288.5,7.743e-12
289.0,2.068e-11
289.5,6.253e-11
290.0,1.737e-10
290.5,3.542e-10
291.0,7.605e-10
291.5,2.183e-09
292.0,4.558e-09
292.5,6.405e-09
293.0,1.376e-08
293.5,3.357e-08
294.0,5.255e-08
294.5,7.144e-08
295.0,1.211e-07
295.5,2.132e-07
296.0,4.174e-07
296.5,5.935e-07
297.0,8.151e-07
297.5,2.245e-06
298.0,3.632e-06
298.5,3.737e-06
299.0,8.443e-06
299.5,1.474e-05
300.0,1.673e-05
300.5,2.511e-05
301.0,4.852e-05
301.5,8.281e-05
302.0,7.36e-05
302.5,0.0001468
303.0,0.0002717
303.5,0.0003508
304.0,0.0003393
304.5,0.0005486
305.0,0.0009354
305.5,0.001156
306.0,0.001151
306.5,0.001507
307.0,0.002508
307.5,0.003738
308.0,0.004016
308.5,0.005021
309.0,0.005195
309.5,0.006364
310.0,0.006592
310.5,0.01083
311.0,0.01393
311.5,0.01357
312.0,0.01436
312.5,0.01814
313.0,0.02004
313.5,0.01904
314.0,0.02491
314.5,0.02351
315.0,0.03118
315.5,0.0252
316.0,0.02315
316.5,0.03475
317.0,0.043
317.5,0.04404
318.0,0.03539
318.5,0.04666
319.0,0.05704
319.5,0.04404
320.0,0.05267
320.5,0.07016
321.0,0.06616
321.5,0.06365
322.0,0.06345
322.5,0.05523
323.0,0.05721
323.5,0.07275
324.0,0.08523
324.5,0.08498
325.0,0.07177
325.5,0.09531
326.0,0.1169
326.5,0.1193
327.0,0.1176
327.5,0.1122
328.0,0.09703
328.5,0.1051
329.0,0.1291
329.5,0.1475
330.0,0.1473
330.5,0.115
331.0,0.116
331.5,0.1195
332.0,0.132
332.5,0.1317
333.0,0.1301
333.5,0.1153
334.0,0.1175
334.5,0.138
335.0,0.131
335.5,0.1541
336.0,0.1064
336.5,0.1222
337.0,0.09911
337.5,0.1225
338.0,0.1215
338.5,0.1412
339.0,0.1392
339.5,0.1337
340.0,0.1554
340.5,0.14
341.0,0.137
341.5,0.1252
342.0,0.1492
342.5,0.1392
343.0,0.1527
343.5,0.1436
344.0,0.1054
344.5,0.1069
345.0,0.1406
345.5,0.143
346.0,0.1212
346.5,0.1369
347.0,0.1466
347.5,0.1182
348.0,0.1343
348.5,0.1339
349.0,0.1239
349.5,0.1223
350.0,0.1508
350.5,0.1587
351.0,0.1414
351.5,0.1371
352.0,0.1468
352.5,0.1142
353.0,0.1434
353.5,0.1529
354.0,0.1583
354.5,0.1601
355.0,0.1591
355.5,0.1433
356.0,0.1496
356.5,0.1273
357.0,0.1049
357.5,0.1281
358.0,0.1012
358.5,0.08624
359.0,0.1203
359.5,0.1528
360.0,0.1615
360.5,0.1287
361.0,0.117
361.5,0.1344
362.0,0.1159
362.5,0.1599
363.0,0.1432
363.5,0.1315
364.0,0.1604
364.5,0.1367
365.0,0.1388
365.5,0.1737
366.0,0.1835
366.5,0.172
367.0,0.167
367.5,0.1728
368.0,0.1507
368.5,0.1517
369.0,0.1633
369.5,0.1735
370.0,0.1845
370.5,0.1427
371.0,0.1521
371.5,0.1897
372.0,0.1255
372.5,0.1501
373.0,0.1522
373.5,0.09874
374.0,0.143
374.5,0.1181
375.0,0.1145
375.5,0.1704
376.0,0.1408
376.5,0.1455
377.0,0.1536
377.5,0.1791
378.0,0.1936
378.5,0.1824
379.0,0.15
379.5,0.1366
380.0,0.1416
380.5,0.1709
381.0,0.1707
381.5,0.1349
382.0,0.1194
382.5,0.1015
383.0,0.09367
383.5,0.08994
384.0,0.09891
384.5,0.145
385.0,0.1434
385.5,0.1331
386.0,0.1137
386.5,0.1488
387.0,0.1233
387.5,0.138
388.0,0.127
388.5,0.1252
389.0,0.1347
389.5,0.1626
390.0,0.1626
390.5,0.1492
391.0,0.1751
391.5,0.178
392.0,0.1494
392.5,0.1333
393.0,0.07396
393.5,0.05359
394.0,0.1087
394.5,0.1378
395.0,0.1676
395.5,0.1697
396.0,0.1467
396.5,0.08546
397.0,0.06393
397.5,0.1296
398.0,0.1809
398.5,0.1864
399.0,0.2012
399.5,0.1999
400.0,0.2069
401.0,0.2033
402.0,0.2131
403.0,0.2011
404.0,0.1967
405.0,0.1954
406.0,0.1909
407.0,0.1866
408.0,0.1925
409.0,0.2047
410.0,0.1777
411.0,0.1913
412.0,0.2041
413.0,0.1977
414.0,0.1988
415.0,0.198
416.0,0.2001
417.0,0.1938
418.0,0.1889
419.0,0.1901
420.0,0.188
421.0,0.1953
422.0,0.1843
423.0,0.1787
424.0,0.1876
425.0,0.1859
426.0,0.1799
427.0,0.1754
428.0,0.1697
429.0,0.1597
430.0,0.1389
431.0,0.1366
432.0,0.1751
433.0,0.1748
434.0,0.1612
435.0,0.1672
436.0,0.1872
437.0,0.1835
438.0,0.1659
439.0,0.1703
440.0,0.1744
441.0,0.1794
442.0,0.1909
443.0,0.1846
444.0,0.1874
445.0,0.1822
446.0,0.1728
447.0,0.1856
448.0,0.187
449.0,0.1864
450.0,0.1901
451.0,0.1957
452.0,0.1873
453.0,0.175
454.0,0.1815
455.0,0.1812
456.0,0.1841
457.0,0.1856
458.0,0.1778
459.0,0.1754
460.0,0.1745
461.0,0.1771
462.0,0.1773
463.0,0.175
464.0,0.1712
465.0,0.1681
466.0,0.1686
467.0,0.1643
468.0,0.1649
469.0,0.1644
470.0,0.158
471.0,0.1567
472.0,0.1641
473.0,0.1608
474.0,0.1598
475.0,0.1599
476.0,0.1538
477.0,0.1528
478.0,0.1557
479.0,0.1533
480.0,0.1522
481.0,0.1536
482.0,0.1533
483.0,0.1504
484.0,0.1464
485.0,0.1388
486.0,0.1206
487.0,0.1256
488.0,0.1368
489.0,0.1361
490.0,0.1421
491.0,0.1386
492.0,0.1299
493.0,0.1331
494.0,0.1335
495.0,0.1337
496.0,0.1335
497.0,0.1344
498.0,0.127
499.0,0.1274
500.0,0.1224
501.0,0.119
502.0,0.1161
503.0,0.1196
504.0,0.1154
505.0,0.1187
506.0,0.1217
507.0,0.115
508.0,0.1108
509.0,0.1133
510.0,0.112
511.0,0.1143
512.0,0.1147
513.0,0.1077
514.0,0.1062
515.0,0.1043
516.0,0.1033
517.0,0.09107
518.0,0.09505
519.0,0.09894
520.0,0.1017
521.0,0.1018
522.0,0.1011
523.0,0.0985
524.0,0.1011
525.0,0.1014
526.0,0.09602
527.0,0.08961
528.0,0.09388
529.0,0.09811
530.0,0.09591
531.0,0.09654
532.0,0.0925
533.0,0.08916
534.0,0.09118
535.0,0.09259
536.0,0.09285
537.0,0.08861
538.0,0.08955
539.0,0.0882
540.0,0.08397
541.0,0.08385
542.0,0.08576
543.0,0.08421
544.0,0.08506
545.0,0.08424
546.0,0.08398
547.0,0.08334
548.0,0.08176
549.0,0.08146
550.0,0.08186
551.0,0.08029
552.0,0.08027
553.0,0.07826
554.0,0.07955
555.0,0.07912
556.0,0.07748
557.0,0.07446
558.0,0.07326
559.0,0.07126
560.0,0.07153
561.0,0.07183
562.0,0.07069
563.0,0.072
564.0,0.06949
565.0,0.06836
566.0,0.06684
567.0,0.06756
568.0,0.06641
569.0,0.06425
570.0,0.06379
571.0,0.06296
572.0,0.06393
573.0,0.06418
574.0,0.06358
575.0,0.06201
576.0,0.06109
577.0,0.06142
578.0,0.06021
579.0,0.06019
580.0,0.0611
581.0,0.06114
582.0,0.06201
583.0,0.0619
584.0,0.06215
585.0,0.06032
586.0,0.05871
587.0,0.05958
588.0,0.05767
589.0,0.05054
590.0,0.05256
591.0,0.0554
592.0,0.05423
593.0,0.05473
594.0,0.05387
595.0,0.05207
596.0,0.05392
597.0,0.05289
598.0,0.0524
599.0,0.05207
600.0,0.05184
601.0,0.05112
602.0,0.05047
603.0,0.05102
604.0,0.05159
605.0,0.05108
606.0,0.05066
607.0,0.05097
608.0,0.05021
609.0,0.0501
610.0,0.04956
611.0,0.04964
612.0,0.04931
613.0,0.0485
614.0,0.04765
615.0,0.04851
616.0,0.04673
617.0,0.04645
618.0,0.04804
619.0,0.04735
620.0,0.04743
621.0,0.04725
622.0,0.04645
623.0,0.0455
624.0,0.04451
625.0,0.04423
626.0,0.04469
627.0,0.04494
628.0,0.04127
629.0,0.04329
630.0,0.04207
631.0,0.04299
632.0,0.04232
633.0,0.04351
634.0,0.04296
635.0,0.04346
636.0,0.04273
637.0,0.04327
638.0,0.04354
639.0,0.0429
640.0,0.04232
641.0,0.04212
642.0,0.04179
643.0,0.04219
644.0,0.0419
645.0,0.04176
646.0,0.04054
647.0,0.03975
648.0,0.03958
649.0,0.03864
650.0,0.03881
651.0,0.04034
652.0,0.03829
653.0,0.03945
654.0,0.03886
655.0,0.03714
656.0,0.03283
657.0,0.03358
658.0,0.03754
659.0,0.03767
660.0,0.03766
661.0,0.03775
662.0,0.03764
663.0,0.03675
664.0,0.03708
665.0,0.03698
666.0,0.03686
667.0,0.03669
668.0,0.03657
669.0,0.03698
670.0,0.03666
671.0,0.03651
672.0,0.03607
673.0,0.0365
674.0,0.0362
675.0,0.03571
676.0,0.03581
677.0,0.03532
678.0,0.03528
679.0,0.03457
680.0,0.03469
681.0,0.03431
682.0,0.0341
683.0,0.03388
684.0,0.03355
685.0,0.03367
686.0,0.03332
687.0,0.02045
688.0,0.0245
689.0,0.02449
690.0,0.02582
691.0,0.02736
692.0,0.0285
693.0,0.02811
694.0,0.02773
695.0,0.02896
696.0,0.02887
697.0,0.03085
698.0,0.03023
699.0,0.02917
700.0,0.02868
701.0,0.02821
702.0,0.02836
703.0,0.02828
704.0,0.02916
705.0,0.02906
706.0,0.02895
707.0,0.02886
708.0,0.02878
709.0,0.02875
710.0,0.02858
711.0,0.02846
712.0,0.0283
713.0,0.02785
714.0,0.02781
715.0,0.02672
716.0,0.0266
717.0,0.02232
718.0,0.02024
719.0,0.01831
720.0,0.01913
721.0,0.0214
722.0,0.02491
723.0,0.0228
724.0,0.02014
725.0,0.01967
726.0,0.0206
727.0,0.02087
728.0,0.01935
729.0,0.02019
730.0,0.02132
731.0,0.02021
732.0,0.02176
733.0,0.02317
734.0,0.02367
735.0,0.02304
736.0,0.02291
737.0,0.02288
738.0,0.02328
739.0,0.0227
740.0,0.02323
741.0,0.02292
742.0,0.02285
743.0,0.02332
744.0,0.02314
745.0,0.02305
746.0,0.02304
747.0,0.02299
748.0,0.02282
749.0,0.02245
750.0,0.02234
751.0,0.02203
752.0,0.02203
753.0,0.02204
754.0,0.02199
755.0,0.02177
756.0,0.02167
757.0,0.0216
758.0,0.02123
759.0,0.02062
760.0,0.002819
761.0,0.001466
762.0,0.009214
763.0,0.004305
764.0,0.006629
765.0,0.009074
766.0,0.01151
767.0,0.01501
768.0,0.01779
769.0,0.01821
770.0,0.0189
771.0,0.01903
772.0,0.019
773.0,0.01904
774.0,0.01885
775.0,0.01861
776.0,0.01875
777.0,0.01841
778.0,0.0182
779.0,0.01812
780.0,0.01794
781.0,0.01788
782.0,0.01791
783.0,0.01753
784.0,0.01754
785.0,0.01733
786.0,0.01745
787.0,0.01701
788.0,0.01669
789.0,0.0166
790.0,0.016
791.0,0.01615
792.0,0.01597
793.0,0.01562
794.0,0.01592
795.0,0.01609
796.0,0.0154
797.0,0.01535
798.0,0.01585
799.0,0.01565
800.0,0.01528
801.0,0.01513
802.0,0.01502
803.0,0.01482
804.0,0.01479
805.0,0.01471
806.0,0.0151
807.0,0.01483
808.0,0.01478
809.0,0.01439
810.0,0.01417
811.0,0.01408
812.0,0.01352
813.0,0.01313
814.0,0.01124
815.0,0.01111
816.0,0.0102
817.0,0.01037
818.0,0.009897
819.0,0.01124
820.0,0.01045
821.0,0.01252
822.0,0.01205
823.0,0.007649
824.0,0.01151
825.0,0.01207
826.0,0.01146
827.0,0.01217
828.0,0.009971
829.0,0.01127
830.0,0.01105
831.0,0.01105
832.0,0.0106
833.0,0.01142
834.0,0.01088
835.0,0.0121
836.0,0.01141
837.0,0.01204
838.0,0.01156
839.0,0.01176
840.0,0.01198
841.0,0.01173
842.0,0.01174
843.0,0.01172
844.0,0.01148
845.0,0.01185
846.0,0.01175
847.0,0.01148
848.0,0.01134
849.0,0.01097
850.0,0.01046
851.0,0.011
852.0,0.01088
853.0,0.01043
854.0,0.008957
855.0,0.009817
856.0,0.01068
857.0,0.01089
858.0,0.01076
859.0,0.01073
860.0,0.01071
861.0,0.01061
862.0,0.01074
863.0,0.01095
864.0,0.01036
865.0,0.01023
866.0,0.009165
867.0,0.009526
868.0,0.01032
869.0,0.01007
870.0,0.01031
871.0,0.01013
872.0,0.01006
873.0,0.009994
874.0,0.009831
875.0,0.009588
876.0,0.009644
877.0,0.009702
878.0,0.009762
879.0,0.009572
880.0,0.009327
881.0,0.009141
882.0,0.009299
883.0,0.009298
884.0,0.009211
885.0,0.009237
886.0,0.008739
887.0,0.008818
888.0,0.008896
889.0,0.008984
890.0,0.008839
891.0,0.008804
892.0,0.008481
893.0,0.008132
894.0,0.007727
895.0,0.007165
896.0,0.006641
897.0,0.005532
898.0,0.006099
899.0,0.004421
900.0,0.006268
901.0,0.004651
902.0,0.005613
903.0,0.0056
904.0,0.007355
905.0,0.007024
906.0,0.006495
907.0,0.005034
908.0,0.005152
909.0,0.005661
910.0,0.004837
911.0,0.005223
912.0,0.005475
913.0,0.004847
914.0,0.004799
915.0,0.005232
916.0,0.004314
917.0,0.005685
918.0,0.004401
919.0,0.005769
920.0,0.005867
921.0,0.006132
922.0,0.005335
923.0,0.00588
924.0,0.005425
925.0,0.005272
926.0,0.005319
927.0,0.006045
928.0,0.004122
929.0,0.003685
930.0,0.002769
931.0,0.002603
932.0,0.001781
933.0,0.001406
934.0,0.000721
935.0,0.001442
936.0,0.0008562
937.0,0.0008632
938.0,0.001074
939.0,0.002435
940.0,0.003003
941.0,0.002166
942.0,0.002546
943.0,0.001582
944.0,0.001693
945.0,0.002204
946.0,0.001033
947.0,0.002186
948.0,0.001557
949.0,0.003025
950.0,0.0007227
951.0,0.002961
952.0,0.001457
953.0,0.001941
954.0,0.002459
955.0,0.001962
956.0,0.001916
957.0,0.001429
958.0,0.002831
959.0,0.002143
960.0,0.002421
961.0,0.002775
962.0,0.002599
963.0,0.003067
964.0,0.002761
965.0,0.003032
966.0,0.003017
967.0,0.002983
968.0,0.004282
969.0,0.004461
970.0,0.004019
971.0,0.004741
972.0,0.004471
973.0,0.003743
974.0,0.003514
975.0,0.003668
976.0,0.003413
977.0,0.004011
978.0,0.003738
979.0,0.003947
980.0,0.003653
981.0,0.004536
982.0,0.004269
983.0,0.00405
984.0,0.00468
985.0,0.004205
986.0,0.004761
987.0,0.004613
988.0,0.004586
989.0,0.004712
990.0,0.004524
991.0,0.004678
992.0,0.004692
993.0,0.004536
994.0,0.004662
995.0,0.004645
996.0,0.004601
997.0,0.004594
998.0,0.004553
999.0,0.004522
1000.0,0.004465
1001.0,0.004514
1002.0,0.004336
1003.0,0.004398
1004.0,0.004264
1005.0,0.004105
1006.0,0.004241
1007.0,0.004318
1008.0,0.004272
1009.0,0.004226
1010.0,0.004189
1011.0,0.004233
1012.0,0.004173
1013.0,0.004193
1014.0,0.004149
1015.0,0.004105
1016.0,0.004069
1017.0,0.004062
1018.0,0.004036
1019.0,0.003921
1020.0,0.003981
1021.0,0.003962
1022.0,0.003911
1023.0,0.003938
1024.0,0.003859
1025.0,0.003911
1026.0,0.003876
1027.0,0.003852
1028.0,0.003829
1029.0,0.003769
1030.0,0.003786
1031.0,0.003754
1032.0,0.00373
1033.0,0.003659
1034.0,0.003646
1035.0,0.003643
1036.0,0.003647
1037.0,0.003574
1038.0,0.003577
1039.0,0.003561
1040.0,0.003533
1041.0,0.003533
1042.0,0.003495
1043.0,0.00347
1044.0,0.003469
1045.0,0.003408
1046.0,0.003357
1047.0,0.003374
1048.0,0.003379
1049.0,0.003355
1050.0,0.003326
1051.0,0.003308
1052.0,0.003281
1053.0,0.003242
1054.0,0.003236
1055.0,0.003224
1056.0,0.003199
1057.0,0.003176
1058.0,0.003085
1059.0,0.003076
1060.0,0.003059
1061.0,0.003043
1062.0,0.003046
1063.0,0.003004
1064.0,0.003029
1065.0,0.002992
1066.0,0.002925
1067.0,0.002951
1068.0,0.002873
1069.0,0.002776
1070.0,0.002856
1071.0,0.0029
1072.0,0.002849
1073.0,0.0028
1074.0,0.002873
1075.0,0.00269
1076.0,0.002848
1077.0,0.00277
1078.0,0.002701
1079.0,0.002777
1080.0,0.002694
1081.0,0.002589
1082.0,0.002645
1083.0,0.002649
1084.0,0.002545
1085.0,0.002658
1086.0,0.002366
1087.0,0.002472
1088.0,0.002593
1089.0,0.002478
1090.0,0.002394
1091.0,0.002549
1092.0,0.002539
1093.0,0.002065
1094.0,0.002297
1095.0,0.00215
1096.0,0.002028
1097.0,0.002439
1098.0,0.001976
1099.0,0.002065
1100.0,0.001877
1101.0,0.001906
1102.0,0.001796
1103.0,0.001759
1104.0,0.001757
1105.0,0.001967
1106.0,0.001396
1107.0,0.001833
1108.0,0.001484
1109.0,0.001487
1110.0,0.001789
1111.0,0.001116
1112.0,0.001463
1113.0,0.0008492
1114.0,0.000957
1115.0,0.0007751
1116.0,0.0005898
1117.0,0.0001937
1118.0,0.0006457
1119.0,0.0002949
1120.0,0.000373
1121.0,0.0005074
1122.0,0.0001965
1123.0,0.000332
1124.0,0.0002769
1125.0,0.0003679
1126.0,0.0001162
1127.0,0.0004153
1128.0,0.0002333
1129.0,0.0002482
1130.0,0.0001584
1131.0,0.0008437
1132.0,0.0006401
1133.0,0.0003786
1134.0,8.731e-05
1135.0,3.23e-05
1136.0,0.0003053
1137.0,0.0008048
1138.0,0.0005467
1139.0,0.0008764
1140.0,0.0007041
1141.0,0.0005127
1142.0,0.0005998
1143.0,0.0008911
1144.0,0.0002741
1145.0,0.0003497
1146.0,0.0003771
1147.0,0.0001208
1148.0,0.0007459
1149.0,0.0005729
1150.0,0.0002917
1151.0,0.0005183
1152.0,0.0006577
1153.0,0.0006456
1154.0,0.000328
1155.0,0.0008692
1156.0,0.000765
1157.0,0.0008793
1158.0,0.0008655
1159.0,0.0009489
1160.0,0.000787
1161.0,0.001011
1162.0,0.001008
1163.0,0.001451
1164.0,0.001202
1165.0,0.001108
1166.0,0.001107
1167.0,0.001221
1168.0,0.001228
1169.0,0.001265
1170.0,0.001394
1171.0,0.001348
1172.0,0.001379
1173.0,0.001376
1174.0,0.0009144
1175.0,0.001343
1176.0,0.001504
1177.0,0.001419
1178.0,0.001005
1179.0,0.001502
1180.0,0.001297
1181.0,0.001342
1182.0,0.0008611
1183.0,0.00132
1184.0,0.00121
1185.0,0.00115
1186.0,0.001414
1187.0,0.001326
1188.0,0.00086
1189.0,0.001221
1190.0,0.001363
1191.0,0.001265
1192.0,0.001377
1193.0,0.001302
1194.0,0.001348
1195.0,0.001254
1196.0,0.001192
1197.0,0.001347
1198.0,0.001211
1199.0,0.0009883
1200.0,0.00126
1201.0,0.001198
1202.0,0.001193
1203.0,0.001183
1204.0,0.001001
1205.0,0.001221
1206.0,0.001375
1207.0,0.001172
1208.0,0.001161
1209.0,0.001183
1210.0,0.001239
1211.0,0.001161
1212.0,0.00113
1213.0,0.001293
1214.0,0.001158
1215.0,0.001128
1216.0,0.001277
1217.0,0.001231
1218.0,0.001258
1219.0,0.001235
1220.0,0.001252
1221.0,0.001265
1222.0,0.001222
1223.0,0.001204
1224.0,0.001188
1225.0,0.00124
1226.0,0.001249
1227.0,0.001129
1228.0,0.001251
1229.0,0.001237
1230.0,0.001208
1231.0,0.001251
1232.0,0.001239
1233.0,0.001178
1234.0,0.001241
1235.0,0.001227
1236.0,0.001233
1237.0,0.001206
1238.0,0.001221
1239.0,0.001202
1240.0,0.001203
1241.0,0.00119
1242.0,0.001186
1243.0,0.001173
1244.0,0.001176
1245.0,0.001178
1246.0,0.001168
1247.0,0.001158
1248.0,0.001152
1249.0,0.001153
1250.0,0.001142
1251.0,0.001121
1252.0,0.001121
1253.0,0.001103
1254.0,0.001085
1255.0,0.001108
1256.0,0.001064
1257.0,0.001053
1258.0,0.001077
1259.0,0.001021
1260.0,0.001025
1261.0,0.0009483
1262.0,0.0009091
1263.0,0.0009077
1264.0,0.0008178
1265.0,0.000897
1266.0,0.0008501
1267.0,0.0008696
1268.0,0.0008107
1269.0,0.0004456
1270.0,0.0008564
1271.0,0.0009208
1272.0,0.0009227
1273.0,0.0009082
1274.0,0.0009105
1275.0,0.0009238
1276.0,0.0009329
1277.0,0.0009394
1278.0,0.000961
1279.0,0.0009488
1280.0,0.0009342
1281.0,0.0008916
1282.0,0.0008614
1283.0,0.0009238
1284.0,0.0009419
1285.0,0.0009459
1286.0,0.0009585
1287.0,0.0009356
1288.0,0.0009338
1289.0,0.0008917
1290.0,0.0009203
1291.0,0.0009318
1292.0,0.0008547
1293.0,0.0009033
1294.0,0.000893
1295.0,0.0008817
1296.0,0.0008279
1297.0,0.0007716
1298.0,0.0008457
1299.0,0.0008891
1300.0,0.0007189
1301.0,0.0007449
1302.0,0.0008336
1303.0,0.0007048
1304.0,0.0005752
1305.0,0.0008057
1306.0,0.0008021
1307.0,0.0005877
1308.0,0.0006968
1309.0,0.0007861
1310.0,0.0005693
1311.0,0.000656
1312.0,0.0006345
1313.0,0.0006152
1314.0,0.0005364
1315.0,0.0005267
1316.0,0.0006334
1317.0,0.0005918
1318.0,0.0006539
1319.0,0.0004803
1320.0,0.0004647
1321.0,0.0005548
1322.0,0.0005568
1323.0,0.0003944
1324.0,0.0004635
1325.0,0.0006048
1326.0,0.0005013
1327.0,0.0004721
1328.0,0.0003959
1329.0,0.0002811
1330.0,0.0003778
1331.0,0.0002102
1332.0,0.000219
1333.0,0.0003138
1334.0,0.0002653
1335.0,0.0003785
1336.0,0.0002869
1337.0,0.0002489
1338.0,0.0002702
1339.0,0.0002693
1340.0,0.0002623
1341.0,0.00025
1342.0,0.0002635
1343.0,0.000166
1344.0,9.682e-05
1345.0,0.0001418
1346.0,6.569e-05
1347.0,6.626e-05
1348.0,4.064e-06
1349.0,1.47e-05
1350.0,1.528e-05
1351.0,3.644e-06
1352.0,9.771e-07
1353.0,4.969e-08
1354.0,1.708e-07
1355.0,1.375e-09
1356.0,2.407e-08
1357.0,3.656e-08
1358.0,1.614e-09
