interpolation:linear
wavelength,value
280.0,1.1749999999999998e-22
280.5,3.906e-21
281.0,2.1040000000000002e-20
281.5,4.333e-19
282.0,5.461e-19
282.5,1.333e-18
283.0,4.196e-18
283.5,6.834e-18
284.0,1.129e-16
284.5,3.305e-16
285.0,5.75e-16
285.5,2.804e-15
286.0,1.128e-14
286.5,5.061e-14
287.0,1.453e-13
287.5,5.611e-13
288.0,1.991e-12
288.5,5.832e-12
289.0,1.525e-11
289.5,4.552e-11
290.0,1.258e-10
290.5,2.559e-10
291.0,5.489e-10
291.5,1.576e-09
292.0,3.179e-09
292.5,4.445e-09
293.0,9.493e-09
293.5,2.299e-08
294.0,3.589e-08
294.5,4.782e-08
295.0,8.08e-08
295.5,1.353e-07
296.0,2.589e-07
296.5,3.586e-07
297.0,4.81e-07
297.5,1.272e-06
298.0,1.977e-06
298.5,1.965e-06
299.0,4.276e-06
299.5,6.923e-06
300.0,7.489e-06
300.5,1.065e-05
301.0,1.865e-05
301.5,2.871e-05
302.0,2.408e-05
302.5,4.718e-05
303.0,8.531e-05
303.5,0.0001088
304.0,0.0001051
304.5,0.0001692
305.0,0.0002868
305.5,0.0003531
306.0,0.0003513
306.5,0.0004587
307.0,0.0007583
307.5,0.001121
308.0,0.001203
308.5,0.001498
309.0,0.00176
309.5,0.002335
310.0,0.002509
310.5,0.0042
311.0,0.005565
311.5,0.005496
312.0,0.006189
312.5,0.008143
313.0,0.009195
313.5,0.008577
314.0,0.01178
314.5,0.01184
315.0,0.01589
315.5,0.01248
316.0,0.01206
316.5,0.01891
317.0,0.0234
317.5,0.0237
318.0,0.01962
318.5,0.02735
319.0,0.03439
319.5,0.02542
320.0,0.03023
320.5,0.04261
321.0,0.04226
321.5,0.04089
322.0,0.03869
322.5,0.0338
323.0,0.03627
323.5,0.04833
324.0,0.05704
324.5,0.05599
325.0,0.04594
325.5,0.0628
326.0,0.07886
326.5,0.08218
327.0,0.08051
327.5,0.07613
328.0,0.06408
328.5,0.07181
329.0,0.09058
329.5,0.1044
330.0,0.1037
330.5,0.07945
331.0,0.07967
331.5,0.08336
332.0,0.09407
332.5,0.09485
333.0,0.09327
333.5,0.08147
334.0,0.08285
334.5,0.09916
335.0,0.09514
335.5,0.1121
336.0,0.07747
336.5,0.08856
337.0,0.07134
337.5,0.08804
338.0,0.08862
338.5,0.1036
339.0,0.1024
339.5,0.09829
340.0,0.1138
340.5,0.1027
341.0,0.101
341.5,0.09278
342.0,0.1108
342.5,0.1035
343.0,0.1135
343.5,0.1066
344.0,0.07788
344.5,0.07921
345.0,0.1048
345.5,0.1069
346.0,0.09076
346.5,0.1026
347.0,0.1098
347.5,0.08861
348.0,0.101
348.5,0.1009
349.0,0.09344
349.5,0.09232
350.0,0.114
350.5,0.12
351.0,0.1069
351.5,0.1035
352.0,0.1111
352.5,0.0866
353.0,0.1089
353.5,0.1163
354.0,0.1206
354.5,0.1221
355.0,0.1214
355.5,0.1094
356.0,0.1143
356.5,0.09743
357.0,0.08033
357.5,0.09816
358.0,0.07765
358.5,0.06623
359.0,0.09242
359.5,0.1174
360.0,0.1243
360.5,0.09916
361.0,0.09024
361.5,0.1037
362.0,0.08953
362.5,0.1237
363.0,0.1109
363.5,0.1019
364.0,0.1244
364.5,0.1061
365.0,0.1078
365.5,0.135
366.0,0.1428
366.5,0.1339
367.0,0.1301
367.5,0.1347
368.0,0.1177
368.5,0.1185
369.0,0.1277
369.5,0.1358
370.0,0.1444
370.5,0.1119
371.0,0.1193
371.5,0.1489
372.0,0.09862
372.5,0.118
373.0,0.1198
373.5,0.07775
374.0,0.1127
374.5,0.09316
375.0,0.09036
375.5,0.1346
376.0,0.1113
376.5,0.1151
377.0,0.1216
377.5,0.142
378.0,0.1535
378.5,0.1448
379.0,0.1192
379.5,0.1086
380.0,0.1126
380.5,0.1361
381.0,0.1361
381.5,0.1076
382.0,0.09535
382.5,0.08109
383.0,0.0749
383.5,0.07197
384.0,0.07921
384.5,0.1162
385.0,0.115
385.5,0.1068
386.0,0.09129
386.5,0.1196
387.0,0.09916
387.5,0.1111
388.0,0.1023
388.5,0.1009
389.0,0.1087
389.5,0.1313
390.0,0.1314
390.5,0.1207
391.0,0.1417
391.5,0.1442
392.0,0.1211
392.5,0.1082
393.0,0.06004
393.5,0.04354
394.0,0.08837
394.5,0.1121
395.0,0.1364
395.5,0.1382
396.0,0.1196
396.5,0.06972
397.0,0.05219
397.5,0.1059
398.0,0.1479
398.5,0.1525
399.0,0.1647
399.5,0.1638
400.0,0.1696
401.0,0.1668
402.0,0.1751
403.0,0.1654
404.0,0.162
405.0,0.1612
406.0,0.1577
407.0,0.1543
408.0,0.1594
409.0,0.1697
410.0,0.1475
411.0,0.1589
412.0,0.1698
413.0,0.1647
414.0,0.1658
415.0,0.1653
416.0,0.1672
417.0,0.1622
418.0,0.1583
419.0,0.1595
420.0,0.1579
421.0,0.1642
422.0,0.1551
423.0,0.1505
424.0,0.1582
425.0,0.1569
426.0,0.152
427.0,0.1484
428.0,0.1438
429.0,0.1355
430.0,0.1179
431.0,0.1161
432.0,0.1489
433.0,0.1488
434.0,0.1374
435.0,0.1426
436.0,0.1598
437.0,0.1568
438.0,0.1419
439.0,0.1457
440.0,0.1493
441.0,0.1537
442.0,0.1637
443.0,0.1584
444.0,0.161
445.0,0.1567
446.0,0.1488
447.0,0.1599
448.0,0.1613
449.0,0.1609
450.0,0.1642
451.0,0.1692
452.0,0.1621
453.0,0.1516
454.0,0.1573
455.0,0.1571
456.0,0.1598
457.0,0.1611
458.0,0.1544
459.0,0.1523
460.0,0.1515
461.0,0.1539
462.0,0.1541
463.0,0.1523
464.0,0.1492
465.0,0.1467
466.0,0.1473
467.0,0.1436
468.0,0.1441
469.0,0.1437
470.0,0.1382
471.0,0.1372
472.0,0.1437
473.0,0.141
474.0,0.1402
475.0,0.1403
476.0,0.1349
477.0,0.1341
478.0,0.1365
479.0,0.1344
480.0,0.1335
481.0,0.1347
482.0,0.1344
483.0,0.1321
484.0,0.1287
485.0,0.1221
486.0,0.1063
487.0,0.1108
488.0,0.1208
489.0,0.1202
490.0,0.1256
491.0,0.1225
492.0,0.1149
493.0,0.1179
494.0,0.1183
495.0,0.1186
496.0,0.1184
497.0,0.1192
498.0,0.1126
499.0,0.1128
500.0,0.1084
501.0,0.1052
502.0,0.1026
503.0,0.1056
504.0,0.1018
505.0,0.1047
506.0,0.1074
507.0,0.1016
508.0,0.09792
509.0,0.1002
510.0,0.09915
511.0,0.1012
512.0,0.1016
513.0,0.09543
514.0,0.09403
515.0,0.09237
516.0,0.09143
517.0,0.08064
518.0,0.08415
519.0,0.0876
520.0,0.09005
521.0,0.09014
522.0,0.08942
523.0,0.08711
524.0,0.08937
525.0,0.08952
526.0,0.0847
527.0,0.07898
528.0,0.08267
529.0,0.08634
530.0,0.08435
531.0,0.08485
532.0,0.08127
533.0,0.07833
534.0,0.08011
535.0,0.08138
536.0,0.08164
537.0,0.07793
538.0,0.07878
539.0,0.07758
540.0,0.07384
541.0,0.07371
542.0,0.07535
543.0,0.07397
544.0,0.07468
545.0,0.07393
546.0,0.07368
547.0,0.07312
548.0,0.07174
549.0,0.07147
550.0,0.07181
551.0,0.07043
552.0,0.07041
553.0,0.06864
554.0,0.06976
555.0,0.06935
556.0,0.0679
557.0,0.06522
558.0,0.06413
559.0,0.06233
560.0,0.06252
561.0,0.06274
562.0,0.06169
563.0,0.06279
564.0,0.06057
565.0,0.05955
566.0,0.0582
567.0,0.0588
568.0,0.05776
569.0,0.05584
570.0,0.05543
571.0,0.0547
572.0,0.0555
573.0,0.05571
574.0,0.05518
575.0,0.05382
576.0,0.05304
577.0,0.05336
578.0,0.05235
579.0,0.05237
580.0,0.05321
581.0,0.05329
582.0,0.0541
583.0,0.05403
584.0,0.05428
585.0,0.0527
586.0,0.05131
587.0,0.05208
588.0,0.05038
589.0,0.04409
590.0,0.04585
591.0,0.04836
592.0,0.0473
593.0,0.04774
594.0,0.04696
595.0,0.04533
596.0,0.04696
597.0,0.04602
598.0,0.04558
599.0,0.04528
600.0,0.04506
601.0,0.04444
602.0,0.04388
603.0,0.04437
604.0,0.04489
605.0,0.04447
606.0,0.04414
607.0,0.04445
608.0,0.04382
609.0,0.04377
610.0,0.04335
611.0,0.04346
612.0,0.04322
613.0,0.04255
614.0,0.04184
615.0,0.04263
616.0,0.0411
617.0,0.04089
618.0,0.04232
619.0,0.04174
620.0,0.04183
621.0,0.04169
622.0,0.04101
623.0,0.04019
624.0,0.03934
625.0,0.0391
626.0,0.03952
627.0,0.03975
628.0,0.03639
629.0,0.03828
630.0,0.03723
631.0,0.03811
632.0,0.03755
633.0,0.03863
634.0,0.03819
635.0,0.03867
636.0,0.03805
637.0,0.03856
638.0,0.03884
639.0,0.0383
640.0,0.03782
641.0,0.03767
642.0,0.0374
643.0,0.03778
644.0,0.03755
645.0,0.03744
646.0,0.03635
647.0,0.03562
648.0,0.0355
649.0,0.03466
650.0,0.03488
651.0,0.03627
652.0,0.03441
653.0,0.03551
654.0,0.035
655.0,0.03344
656.0,0.02959
657.0,0.03029
658.0,0.03388
659.0,0.03402
660.0,0.03403
661.0,0.03413
662.0,0.03403
663.0,0.03325
664.0,0.03357
665.0,0.0335
666.0,0.03341
667.0,0.03329
668.0,0.0332
669.0,0.03359
670.0,0.03331
671.0,0.03319
672.0,0.03281
673.0,0.03321
674.0,0.03296
675.0,0.03253
676.0,0.03263
677.0,0.03219
678.0,0.03217
679.0,0.03154
680.0,0.03166
681.0,0.03132
682.0,0.03114
683.0,0.03094
684.0,0.03065
685.0,0.03078
686.0,0.03046
687.0,0.0184
688.0,0.02211
689.0,0.02212
690.0,0.02337
691.0,0.02484
692.0,0.02594
693.0,0.0256
694.0,0.0253
695.0,0.02649
696.0,0.02642
697.0,0.02828
698.0,0.02772
699.0,0.02672
700.0,0.02627
701.0,0.02582
702.0,0.02598
703.0,0.02593
704.0,0.02677
705.0,0.02668
706.0,0.02659
707.0,0.02651
708.0,0.02644
709.0,0.02644
710.0,0.02627
711.0,0.02617
712.0,0.02603
713.0,0.02561
714.0,0.02558
715.0,0.02457
716.0,0.02445
717.0,0.02041
718.0,0.01854
719.0,0.01679
720.0,0.01751
721.0,0.01963
722.0,0.0229
723.0,0.02094
724.0,0.01848
725.0,0.01805
726.0,0.01889
727.0,0.01918
728.0,0.01776
729.0,0.01856
730.0,0.01957
731.0,0.01856
732.0,0.02003
733.0,0.02135
734.0,0.02183
735.0,0.02124
736.0,0.02111
737.0,0.02109
738.0,0.0215
739.0,0.02097
740.0,0.02147
741.0,0.02118
742.0,0.02113
743.0,0.02156
744.0,0.02141
745.0,0.02132
746.0,0.02132
747.0,0.02127
748.0,0.02112
749.0,0.02078
750.0,0.02068
751.0,0.0204
752.0,0.02041
753.0,0.02042
754.0,0.02038
755.0,0.02018
756.0,0.02009
757.0,0.02003
758.0,0.01969
759.0,0.01909
760.0,0.002656
761.0,0.001402
762.0,0.008396
763.0,0.004004
764.0,0.006084
765.0,0.008271
766.0,0.01048
767.0,0.01373
768.0,0.0164
769.0,0.01683
770.0,0.01751
771.0,0.01766
772.0,0.01763
773.0,0.01767
774.0,0.01749
775.0,0.01727
776.0,0.01739
777.0,0.01708
778.0,0.01688
779.0,0.01681
780.0,0.01664
781.0,0.01658
782.0,0.01662
783.0,0.01627
784.0,0.01629
785.0,0.0161
786.0,0.0162
787.0,0.01578
788.0,0.01548
789.0,0.0154
790.0,0.01482
791.0,0.01499
792.0,0.01483
793.0,0.01451
794.0,0.0148
795.0,0.01496
796.0,0.01429
797.0,0.01424
798.0,0.01473
799.0,0.01455
800.0,0.01419
801.0,0.01405
802.0,0.01394
803.0,0.01376
804.0,0.01373
805.0,0.01366
806.0,0.01404
807.0,0.01379
808.0,0.01374
809.0,0.01336
810.0,0.01315
811.0,0.01305
812.0,0.01251
813.0,0.01215
814.0,0.01037
815.0,0.01027
816.0,0.009429
817.0,0.00958
818.0,0.009139
819.0,0.01039
820.0,0.009664
821.0,0.01161
822.0,0.01117
823.0,0.007076
824.0,0.01065
825.0,0.01121
826.0,0.01063
827.0,0.0113
828.0,0.009231
829.0,0.01046
830.0,0.01026
831.0,0.01026
832.0,0.00984
833.0,0.0106
834.0,0.01009
835.0,0.01126
836.0,0.01058
837.0,0.0112
838.0,0.01073
839.0,0.01094
840.0,0.01114
841.0,0.01091
842.0,0.01092
843.0,0.01092
844.0,0.01069
845.0,0.01103
846.0,0.01094
847.0,0.0107
848.0,0.01056
849.0,0.01021
850.0,0.009739
851.0,0.01024
852.0,0.01012
853.0,0.009711
854.0,0.008333
855.0,0.009139
856.0,0.009939
857.0,0.01014
858.0,0.01002
859.0,0.009996
860.0,0.009979
861.0,0.009885
862.0,0.01001
863.0,0.01021
864.0,0.009664
865.0,0.009543
866.0,0.008547
867.0,0.008885
868.0,0.00963
869.0,0.009393
870.0,0.009623
871.0,0.009453
872.0,0.009382
873.0,0.009325
874.0,0.009173
875.0,0.008947
876.0,0.008999
877.0,0.009053
878.0,0.009109
879.0,0.008931
880.0,0.008703
881.0,0.008526
882.0,0.008672
883.0,0.008672
884.0,0.00859
885.0,0.008614
886.0,0.008142
887.0,0.008221
888.0,0.008291
889.0,0.008378
890.0,0.008235
891.0,0.008207
892.0,0.007896
893.0,0.007567
894.0,0.007173
895.0,0.006633
896.0,0.006154
897.0,0.005121
898.0,0.005642
899.0,0.004098
900.0,0.005807
901.0,0.0043
902.0,0.005194
903.0,0.005175
904.0,0.006826
905.0,0.006517
906.0,0.006025
907.0,0.004656
908.0,0.004771
909.0,0.00524
910.0,0.004473
911.0,0.004844
912.0,0.005066
913.0,0.004481
914.0,0.004442
915.0,0.004826
916.0,0.003997
917.0,0.005253
918.0,0.004071
919.0,0.005339
920.0,0.005452
921.0,0.005683
922.0,0.00494
923.0,0.005453
924.0,0.005012
925.0,0.004876
926.0,0.004909
927.0,0.005583
928.0,0.003796
929.0,0.003392
930.0,0.002554
931.0,0.002401
932.0,0.001651
933.0,0.00131
934.0,0.0006822
935.0,0.001342
936.0,0.0008057
937.0,0.0008125
938.0,0.001006
939.0,0.002245
940.0,0.002761
941.0,0.001997
942.0,0.002341
943.0,0.001468
944.0,0.001573
945.0,0.002034
946.0,0.0009664
947.0,0.002016
948.0,0.001448
949.0,0.002775
950.0,0.0006822
951.0,0.002716
952.0,0.001355
953.0,0.001795
954.0,0.002264
955.0,0.001812
956.0,0.001786
957.0,0.001329
958.0,0.002617
959.0,0.001983
960.0,0.002233
961.0,0.00256
962.0,0.002402
963.0,0.002833
964.0,0.002554
965.0,0.002797
966.0,0.002785
967.0,0.002752
968.0,0.003974
969.0,0.004123
970.0,0.003721
971.0,0.0044
972.0,0.004147
973.0,0.003459
974.0,0.003251
975.0,0.003395
976.0,0.00315
977.0,0.003722
978.0,0.00346
979.0,0.003653
980.0,0.003385
981.0,0.00421
982.0,0.003956
983.0,0.003752
984.0,0.004353
985.0,0.003895
986.0,0.004436
987.0,0.004292
988.0,0.004268
989.0,0.004395
990.0,0.004209
991.0,0.00436
992.0,0.004375
993.0,0.004223
994.0,0.004348
995.0,0.004334
996.0,0.004292
997.0,0.004286
998.0,0.004248
999.0,0.004219
1000.0,0.004164
1001.0,0.004212
1002.0,0.004037
1003.0,0.004104
1004.0,0.003976
1005.0,0.003831
1006.0,0.003957
1007.0,0.004029
1008.0,0.003985
1009.0,0.003941
1010.0,0.003905
1011.0,0.00395
1012.0,0.003893
1013.0,0.003914
1014.0,0.003872
1015.0,0.003831
1016.0,0.003798
1017.0,0.003791
1018.0,0.003767
1019.0,0.003656
1020.0,0.003716
1021.0,0.003699
1022.0,0.00365
1023.0,0.003675
1024.0,0.003598
1025.0,0.003651
1026.0,0.003617
1027.0,0.003595
1028.0,0.003573
1029.0,0.003517
1030.0,0.003533
1031.0,0.003503
1032.0,0.003482
1033.0,0.003416
1034.0,0.003403
1035.0,0.003401
1036.0,0.003403
1037.0,0.003336
1038.0,0.003338
1039.0,0.003323
1040.0,0.003297
1041.0,0.003296
1042.0,0.003261
1043.0,0.003238
1044.0,0.003236
1045.0,0.003179
1046.0,0.003131
1047.0,0.003147
1048.0,0.003152
1049.0,0.003128
1050.0,0.003101
1051.0,0.003084
1052.0,0.003058
1053.0,0.003022
1054.0,0.003016
1055.0,0.003004
1056.0,0.00298
1057.0,0.002958
1058.0,0.002873
1059.0,0.002864
1060.0,0.002848
1061.0,0.002833
1062.0,0.002835
1063.0,0.002796
1064.0,0.002819
1065.0,0.002784
1066.0,0.002723
1067.0,0.002746
1068.0,0.002673
1069.0,0.002583
1070.0,0.002658
1071.0,0.002701
1072.0,0.002651
1073.0,0.002606
1074.0,0.002677
1075.0,0.002501
1076.0,0.002653
1077.0,0.002578
1078.0,0.002512
1079.0,0.002588
1080.0,0.002508
1081.0,0.002406
1082.0,0.002463
1083.0,0.002469
1084.0,0.002365
1085.0,0.002474
1086.0,0.002199
1087.0,0.002298
1088.0,0.002416
1089.0,0.002302
1090.0,0.002224
1091.0,0.002373
1092.0,0.002364
1093.0,0.001914
1094.0,0.002138
1095.0,0.001991
1096.0,0.001876
1097.0,0.002271
1098.0,0.001825
1099.0,0.001908
1100.0,0.001734
1101.0,0.001762
1102.0,0.001658
1103.0,0.001622
1104.0,0.001621
1105.0,0.001817
1106.0,0.001284
1107.0,0.001693
1108.0,0.001367
1109.0,0.00137
1110.0,0.001649
1111.0,0.001028
1112.0,0.001348
1113.0,0.0007847
1114.0,0.0008811
1115.0,0.0007163
1116.0,0.0005469
1117.0,0.0001844
1118.0,0.0005968
1119.0,0.0002774
1120.0,0.0003487
1121.0,0.0004702
1122.0,0.0001866
1123.0,0.0003112
1124.0,0.0002606
1125.0,0.0003437
1126.0,0.0001116
1127.0,0.0003868
1128.0,0.0002206
1129.0,0.0002342
1130.0,0.0001513
1131.0,0.000772
1132.0,0.0005896
1133.0,0.0003531
1134.0,8.421e-05
1135.0,3.145e-05
1136.0,0.0002864
1137.0,0.0007362
1138.0,0.000505
1139.0,0.0008046
1140.0,0.0006477
1141.0,0.0004744
1142.0,0.0005531
1143.0,0.0008156
1144.0,0.0002576
1145.0,0.0003262
1146.0,0.0003511
1147.0,0.0001158
1148.0,0.0006846
1149.0,0.0005287
1150.0,0.0002741
1151.0,0.0004789
1152.0,0.0006046
1153.0,0.0005954
1154.0,0.0003068
1155.0,0.0007968
1156.0,0.0007022
1157.0,0.0008091
1158.0,0.0007964
1159.0,0.000871
1160.0,0.0007267
1161.0,0.0009325
1162.0,0.0009293
1163.0,0.00134
1164.0,0.00111
1165.0,0.00102
1166.0,0.001024
1167.0,0.001128
1168.0,0.001135
1169.0,0.001167
1170.0,0.001289
1171.0,0.001248
1172.0,0.00128
1173.0,0.001273
1174.0,0.000846
1175.0,0.001246
1176.0,0.0014
1177.0,0.001318
1178.0,0.0009329
1179.0,0.001398
1180.0,0.001203
1181.0,0.001243
1182.0,0.0007979
1183.0,0.001224
1184.0,0.001121
1185.0,0.001064
1186.0,0.001313
1187.0,0.001229
1188.0,0.000794
1189.0,0.001132
1190.0,0.001267
1191.0,0.001171
1192.0,0.00128
1193.0,0.00121
1194.0,0.001252
1195.0,0.001161
1196.0,0.001103
1197.0,0.001252
1198.0,0.001126
1199.0,0.0009143
1200.0,0.00117
1201.0,0.00111
1202.0,0.001109
1203.0,0.001095
1204.0,0.0009283
1205.0,0.001136
1206.0,0.00128
1207.0,0.001087
1208.0,0.001079
1209.0,0.001099
1210.0,0.001153
1211.0,0.001079
1212.0,0.001044
1213.0,0.001201
1214.0,0.001071
1215.0,0.001044
1216.0,0.001187
1217.0,0.001144
1218.0,0.001169
1219.0,0.001147
1220.0,0.001164
1221.0,0.001177
1222.0,0.001137
1223.0,0.00112
1224.0,0.001103
1225.0,0.001153
1226.0,0.001163
1227.0,0.001048
1228.0,0.001166
1229.0,0.001153
1230.0,0.001125
1231.0,0.001167
1232.0,0.001156
1233.0,0.001095
1234.0,0.001158
1235.0,0.001145
1236.0,0.001151
1237.0,0.001125
1238.0,0.00114
1239.0,0.001122
1240.0,0.001123
1241.0,0.00111
1242.0,0.001108
1243.0,0.001095
1244.0,0.001098
1245.0,0.0011
1246.0,0.00109
1247.0,0.001081
1248.0,0.001075
1249.0,0.001077
1250.0,0.001065
1251.0,0.001046
1252.0,0.001046
1253.0,0.001028
1254.0,0.00101
1255.0,0.001033
1256.0,0.0009901
1257.0,0.0009793
1258.0,0.001003
1259.0,0.0009473
1260.0,0.0009514
1261.0,0.000876
1262.0,0.0008376
1263.0,0.0008363
1264.0,0.0007496
1265.0,0.0008264
1266.0,0.0007807
1267.0,0.0008003
1268.0,0.0007436
1269.0,0.0004051
1270.0,0.0007873
1271.0,0.0008508
1272.0,0.0008528
1273.0,0.000839
1274.0,0.0008418
1275.0,0.0008548
1276.0,0.0008641
1277.0,0.0008716
1278.0,0.0008932
1279.0,0.000882
1280.0,0.0008684
1281.0,0.0008297
1282.0,0.000803
1283.0,0.0008609
1284.0,0.0008775
1285.0,0.0008816
1286.0,0.0008941
1287.0,0.0008713
1288.0,0.0008702
1289.0,0.0008283
1290.0,0.0008577
1291.0,0.000869
1292.0,0.0007928
1293.0,0.0008415
1294.0,0.0008319
1295.0,0.0008193
1296.0,0.0007672
1297.0,0.000714
1298.0,0.0007856
1299.0,0.0008287
1300.0,0.0006659
1301.0,0.0006901
1302.0,0.0007746
1303.0,0.0006531
1304.0,0.0005305
1305.0,0.0007488
1306.0,0.0007443
1307.0,0.0005433
1308.0,0.0006467
1309.0,0.000728
1310.0,0.0005258
1311.0,0.000608
1312.0,0.0005879
1313.0,0.0005684
1314.0,0.0004953
1315.0,0.0004854
1316.0,0.0005861
1317.0,0.0005474
1318.0,0.0006059
1319.0,0.0004428
1320.0,0.0004293
1321.0,0.0005125
1322.0,0.0005131
1323.0,0.0003629
1324.0,0.0004279
1325.0,0.0005587
1326.0,0.0004626
1327.0,0.0004354
1328.0,0.0003652
1329.0,0.0002592
1330.0,0.0003473
1331.0,0.0001947
1332.0,0.0002026
1333.0,0.0002877
1334.0,0.0002461
1335.0,0.0003476
1336.0,0.0002642
1337.0,0.0002304
1338.0,0.0002491
1339.0,0.0002483
1340.0,0.0002426
1341.0,0.0002302
1342.0,0.0002426
1343.0,0.0001543
1344.0,9.127e-05
1345.0,0.0001321
1346.0,6.262e-05
1347.0,6.324e-05
1348.0,4.01e-06
1349.0,1.441e-05
1350.0,1.494e-05
1351.0,3.602e-06
1352.0,9.685e-07
