interpolation:linear
wavelength,value
280.0,2.883e-21
280.5,9.041000000000001e-20
281.0,4.772e-19
281.5,3.302e-19
282.0,1.012e-18
282.5,2.692e-18
283.0,8.769e-18
283.5,1.439e-17
284.0,2.358e-16
284.5,6.819e-16
285.0,1.551e-15
285.5,7.53e-15
286.0,3.011e-14
286.5,1.327e-13
287.0,3.755e-13
287.5,1.42e-12
288.0,3.777e-12
288.5,1.256e-11
289.0,3.566e-11
289.5,1.13e-10
290.0,3.227e-10
290.5,6.709e-10
291.0,1.466e-09
291.5,4.275e-09
292.0,9.221e-09
292.5,1.384e-08
293.0,3.227e-08
293.5,8.769e-08
294.0,1.479e-07
294.5,1.858e-07
295.0,3.352e-07
295.5,8.486e-07
296.0,1.663e-06
296.5,2.371e-06
297.0,3.268e-06
297.5,9.08e-06
298.0,1.485e-05
298.5,1.543e-05
299.0,3.532e-05
299.5,6.361e-05
300.0,7.384e-05
300.5,0.000114
301.0,0.0002344
301.5,0.0004327
302.0,0.0004053
302.5,0.0007844
303.0,0.001392
303.5,0.001743
304.0,0.001642
304.5,0.00248
305.0,0.003836
305.5,0.004446
306.0,0.004314
306.5,0.005409
307.0,0.008184
307.5,0.01109
308.0,0.01172
308.5,0.01395
309.0,0.01409
309.5,0.01598
310.0,0.01598
310.5,0.02578
311.0,0.03222
311.5,0.03099
312.0,0.0309
312.5,0.03753
313.0,0.0406
313.5,0.03924
314.0,0.04903
314.5,0.04357
315.0,0.05712
315.5,0.04744
316.0,0.04152
316.5,0.05977
317.0,0.07393
317.5,0.07651
318.0,0.05975
318.5,0.07467
319.0,0.0888
319.5,0.07146
320.0,0.08592
320.5,0.1084
321.0,0.09732
321.5,0.0931
322.0,0.09757
322.5,0.08462
323.0,0.08468
323.5,0.1051
324.0,0.1224
324.5,0.1235
325.0,0.1052
325.5,0.1358
326.0,0.1665
326.5,0.1669
327.0,0.1655
327.5,0.1589
328.0,0.1404
328.5,0.1478
329.0,0.1775
329.5,0.2012
330.0,0.2019
330.5,0.1601
331.0,0.1623
331.5,0.1649
332.0,0.1787
332.5,0.1767
333.0,0.1752
333.5,0.1572
334.0,0.1603
334.5,0.1854
335.0,0.1742
335.5,0.2059
336.0,0.142
336.5,0.1627
337.0,0.1327
337.5,0.1643
338.0,0.1606
338.5,0.1872
339.0,0.1839
339.5,0.1767
340.0,0.2046
340.5,0.1838
341.0,0.1803
341.5,0.1639
342.0,0.1949
342.5,0.1815
343.0,0.1995
343.5,0.1877
344.0,0.1373
344.5,0.1399
345.0,0.183
345.5,0.1856
346.0,0.1569
346.5,0.1769
347.0,0.1897
347.5,0.153
348.0,0.1732
348.5,0.1722
349.0,0.1591
349.5,0.157
350.0,0.1934
350.5,0.2032
351.0,0.1811
351.5,0.1761
352.0,0.1879
352.5,0.1458
353.0,0.1828
353.5,0.1947
354.0,0.2013
354.5,0.2034
355.0,0.202
355.5,0.1818
356.0,0.1894
356.5,0.1611
357.0,0.1326
357.5,0.1617
358.0,0.1277
358.5,0.1087
359.0,0.1515
359.5,0.1925
360.0,0.2032
360.5,0.1618
361.0,0.1469
361.5,0.1685
362.0,0.1451
362.5,0.2001
363.0,0.1791
363.5,0.1643
364.0,0.2002
364.5,0.1705
365.0,0.173
365.5,0.2163
366.0,0.2283
366.5,0.2137
367.0,0.2074
367.5,0.2144
368.0,0.1869
368.5,0.1879
369.0,0.2022
369.5,0.2147
370.0,0.228
370.5,0.1763
371.0,0.1877
371.5,0.2339
372.0,0.1546
372.5,0.1847
373.0,0.1872
373.5,0.1214
374.0,0.1757
374.5,0.1449
375.0,0.1404
375.5,0.2088
376.0,0.1724
376.5,0.178
377.0,0.1877
377.5,0.2188
378.0,0.2363
378.5,0.2225
379.0,0.1828
379.5,0.1663
380.0,0.1723
380.5,0.2078
381.0,0.2074
381.5,0.1638
382.0,0.1449
382.5,0.123
383.0,0.1134
383.5,0.1088
384.0,0.1196
384.5,0.1752
385.0,0.1731
385.5,0.1606
386.0,0.137
386.5,0.1793
387.0,0.1484
387.5,0.166
388.0,0.1527
388.5,0.1503
389.0,0.1617
389.5,0.195
390.0,0.195
390.5,0.1787
391.0,0.2096
391.5,0.2129
392.0,0.1786
392.5,0.1593
393.0,0.08828
393.5,0.06393
394.0,0.1296
394.5,0.1641
395.0,0.1995
395.5,0.2019
396.0,0.1744
396.5,0.1015
397.0,0.07591
397.5,0.1538
398.0,0.2145
398.5,0.2208
399.0,0.2383
399.5,0.2366
400.0,0.2447
401.0,0.2404
402.0,0.2516
403.0,0.2371
404.0,0.2317
405.0,0.2298
406.0,0.2243
407.0,0.2189
408.0,0.2257
409.0,0.2397
410.0,0.2079
411.0,0.2235
412.0,0.2383
413.0,0.2306
414.0,0.2316
415.0,0.2304
416.0,0.2326
417.0,0.2251
418.0,0.2191
419.0,0.2203
420.0,0.2176
421.0,0.2258
422.0,0.2129
423.0,0.2063
424.0,0.2164
425.0,0.2142
426.0,0.2071
427.0,0.2017
428.0,0.195
429.0,0.1834
430.0,0.1592
431.0,0.1566
432.0,0.2005
433.0,0.2
434.0,0.1842
435.0,0.1909
436.0,0.2136
437.0,0.2092
438.0,0.1891
439.0,0.194
440.0,0.1986
441.0,0.2041
442.0,0.2172
443.0,0.2099
444.0,0.2129
445.0,0.2067
446.0,0.1958
447.0,0.2101
448.0,0.2117
449.0,0.2108
450.0,0.2149
451.0,0.2211
452.0,0.2114
453.0,0.1974
454.0,0.2046
455.0,0.2042
456.0,0.2073
457.0,0.209
458.0,0.2002
459.0,0.1976
460.0,0.1965
461.0,0.1994
462.0,0.1995
463.0,0.1968
464.0,0.1923
465.0,0.1886
466.0,0.189
467.0,0.1841
468.0,0.1846
469.0,0.184
470.0,0.1768
471.0,0.1754
472.0,0.1834
473.0,0.1797
474.0,0.1785
475.0,0.1786
476.0,0.1718
477.0,0.1708
478.0,0.1741
479.0,0.1715
480.0,0.1704
481.0,0.1719
482.0,0.1715
483.0,0.1682
484.0,0.1635
485.0,0.1548
486.0,0.1344
487.0,0.1398
488.0,0.1522
489.0,0.1515
490.0,0.1581
491.0,0.1542
492.0,0.1445
493.0,0.1481
494.0,0.1485
495.0,0.1487
496.0,0.1485
497.0,0.1496
498.0,0.1414
499.0,0.142
500.0,0.1366
501.0,0.1329
502.0,0.1298
503.0,0.1339
504.0,0.1293
505.0,0.133
506.0,0.1363
507.0,0.1288
508.0,0.124
509.0,0.1266
510.0,0.1252
511.0,0.1277
512.0,0.1281
513.0,0.1203
514.0,0.1186
515.0,0.1165
516.0,0.1154
517.0,0.1018
518.0,0.1063
519.0,0.1106
520.0,0.1138
521.0,0.1139
522.0,0.1132
523.0,0.1103
524.0,0.1134
525.0,0.1138
526.0,0.1078
527.0,0.1008
528.0,0.1057
529.0,0.1105
530.0,0.1081
531.0,0.1089
532.0,0.1044
533.0,0.1007
534.0,0.1029
535.0,0.1045
536.0,0.1048
537.0,0.09995
538.0,0.101
539.0,0.09951
540.0,0.09477
541.0,0.09469
542.0,0.09689
543.0,0.09517
544.0,0.0962
545.0,0.09531
546.0,0.09505
547.0,0.09433
548.0,0.09256
549.0,0.09222
550.0,0.09269
551.0,0.09093
552.0,0.09091
553.0,0.08866
554.0,0.09016
555.0,0.08971
556.0,0.08789
557.0,0.08451
558.0,0.08322
559.0,0.08102
560.0,0.08139
561.0,0.0818
562.0,0.08057
563.0,0.08214
564.0,0.07933
565.0,0.07809
566.0,0.07639
567.0,0.07726
568.0,0.076
569.0,0.07361
570.0,0.0731
571.0,0.07218
572.0,0.07334
573.0,0.07365
574.0,0.07297
575.0,0.07117
576.0,0.07009
577.0,0.07044
578.0,0.06901
579.0,0.06893
580.0,0.06989
581.0,0.06988
582.0,0.07081
583.0,0.07063
584.0,0.07089
585.0,0.06878
586.0,0.06692
587.0,0.06791
588.0,0.06579
589.0,0.05776
590.0,0.06006
591.0,0.06327
592.0,0.062
593.0,0.06255
594.0,0.06164
595.0,0.05965
596.0,0.06173
597.0,0.06063
598.0,0.06008
599.0,0.05973
600.0,0.05946
601.0,0.05864
602.0,0.0579
603.0,0.05851
604.0,0.05914
605.0,0.05853
606.0,0.058
607.0,0.0583
608.0,0.05737
609.0,0.05718
610.0,0.05651
611.0,0.05654
612.0,0.05612
613.0,0.05513
614.0,0.05412
615.0,0.05503
616.0,0.05297
617.0,0.05261
618.0,0.05437
619.0,0.05356
620.0,0.05363
621.0,0.0534
622.0,0.05248
623.0,0.05139
624.0,0.05024
625.0,0.0499
626.0,0.0504
627.0,0.05067
628.0,0.04672
629.0,0.04883
630.0,0.04744
631.0,0.04837
632.0,0.04758
633.0,0.04886
634.0,0.0482
635.0,0.04872
636.0,0.04785
637.0,0.04841
638.0,0.04867
639.0,0.04791
640.0,0.04722
641.0,0.04696
642.0,0.04655
643.0,0.04698
644.0,0.04662
645.0,0.04645
646.0,0.04509
647.0,0.04425
648.0,0.04403
649.0,0.04297
650.0,0.04308
651.0,0.04474
652.0,0.04251
653.0,0.04371
654.0,0.04303
655.0,0.04114
656.0,0.03633
657.0,0.03714
658.0,0.04148
659.0,0.0416
660.0,0.04156
661.0,0.04165
662.0,0.04152
663.0,0.04053
664.0,0.04085
665.0,0.0407
666.0,0.04055
667.0,0.04033
668.0,0.04018
669.0,0.04061
670.0,0.04023
671.0,0.04004
672.0,0.03955
673.0,0.04
674.0,0.03965
675.0,0.0391
676.0,0.03919
677.0,0.03864
678.0,0.03858
679.0,0.03779
680.0,0.03791
681.0,0.03748
682.0,0.03726
683.0,0.037
684.0,0.03663
685.0,0.03676
686.0,0.03636
687.0,0.02286
688.0,0.02717
689.0,0.02715
690.0,0.02852
691.0,0.03011
692.0,0.03125
693.0,0.03082
694.0,0.03037
695.0,0.03163
696.0,0.03151
697.0,0.03358
698.0,0.0329
699.0,0.03179
700.0,0.03126
701.0,0.03077
702.0,0.0309
703.0,0.0308
704.0,0.03172
705.0,0.03161
706.0,0.03147
707.0,0.03136
708.0,0.03127
709.0,0.03121
710.0,0.03103
711.0,0.0309
712.0,0.03071
713.0,0.03023
714.0,0.03018
715.0,0.02903
716.0,0.0289
717.0,0.02443
718.0,0.02214
719.0,0.02001
720.0,0.02094
721.0,0.02334
722.0,0.02707
723.0,0.02481
724.0,0.02196
725.0,0.02147
726.0,0.0225
727.0,0.02273
728.0,0.02113
729.0,0.02197
730.0,0.02324
731.0,0.02203
732.0,0.02366
733.0,0.02513
734.0,0.02565
735.0,0.02498
736.0,0.02484
737.0,0.02481
738.0,0.02518
739.0,0.02455
740.0,0.02511
741.0,0.02476
742.0,0.02468
743.0,0.02518
744.0,0.02498
745.0,0.02487
746.0,0.02487
747.0,0.02481
748.0,0.02463
749.0,0.02422
750.0,0.0241
751.0,0.02376
752.0,0.02375
753.0,0.02376
754.0,0.02369
755.0,0.02345
756.0,0.02334
757.0,0.02327
758.0,0.02287
759.0,0.02224
760.0,0.003108
761.0,0.001589
762.0,0.01027
763.0,0.004792
764.0,0.007409
765.0,0.01012
766.0,0.01273
767.0,0.01644
768.0,0.01928
769.0,0.01969
770.0,0.02038
771.0,0.0205
772.0,0.02046
773.0,0.02049
774.0,0.02029
775.0,0.02004
776.0,0.0202
777.0,0.01983
778.0,0.01961
779.0,0.01952
780.0,0.01932
781.0,0.01925
782.0,0.01929
783.0,0.01887
784.0,0.01888
785.0,0.01865
786.0,0.01877
787.0,0.01832
788.0,0.01799
789.0,0.01789
790.0,0.01726
791.0,0.01739
792.0,0.01719
793.0,0.01682
794.0,0.01711
795.0,0.0173
796.0,0.0166
797.0,0.01655
798.0,0.01705
799.0,0.01684
800.0,0.01644
801.0,0.0163
802.0,0.01618
803.0,0.01597
804.0,0.01593
805.0,0.01583
806.0,0.01623
807.0,0.01595
808.0,0.0159
809.0,0.0155
810.0,0.01527
811.0,0.01519
812.0,0.01462
813.0,0.0142
814.0,0.01221
815.0,0.01207
816.0,0.01107
817.0,0.01125
818.0,0.01075
819.0,0.01218
820.0,0.01133
821.0,0.01352
822.0,0.01301
823.0,0.008316
824.0,0.01245
825.0,0.01301
826.0,0.01237
827.0,0.01312
828.0,0.0108
829.0,0.01215
830.0,0.01192
831.0,0.01192
832.0,0.01145
833.0,0.01231
834.0,0.01175
835.0,0.01302
836.0,0.0123
837.0,0.01295
838.0,0.01245
839.0,0.01265
840.0,0.01288
841.0,0.01262
842.0,0.01262
843.0,0.01258
844.0,0.01233
845.0,0.01272
846.0,0.01261
847.0,0.01232
848.0,0.01218
849.0,0.01178
850.0,0.01124
851.0,0.01183
852.0,0.01169
853.0,0.01121
854.0,0.009628
855.0,0.01055
856.0,0.01147
857.0,0.01169
858.0,0.01156
859.0,0.01152
860.0,0.0115
861.0,0.01138
862.0,0.01152
863.0,0.01175
864.0,0.01112
865.0,0.01098
866.0,0.00983
867.0,0.01022
868.0,0.01107
869.0,0.0108
870.0,0.01106
871.0,0.01086
872.0,0.01078
873.0,0.01071
874.0,0.01054
875.0,0.01028
876.0,0.01034
877.0,0.0104
878.0,0.01047
879.0,0.01026
880.0,0.01
881.0,0.009804
882.0,0.009976
883.0,0.009972
884.0,0.00988
885.0,0.009909
886.0,0.009385
887.0,0.009462
888.0,0.00955
889.0,0.009638
890.0,0.009491
891.0,0.009449
892.0,0.009116
893.0,0.008751
894.0,0.008339
895.0,0.007761
896.0,0.007189
897.0,0.006006
898.0,0.006618
899.0,0.004802
900.0,0.006785
901.0,0.005067
902.0,0.006084
903.0,0.006085
904.0,0.007939
905.0,0.007587
906.0,0.00702
907.0,0.00547
908.0,0.005592
909.0,0.006137
910.0,0.005266
911.0,0.005665
912.0,0.005942
913.0,0.005279
914.0,0.005219
915.0,0.005708
916.0,0.004689
917.0,0.006181
918.0,0.004792
919.0,0.006258
920.0,0.006333
921.0,0.006633
922.0,0.005787
923.0,0.006356
924.0,0.005899
925.0,0.005726
926.0,0.005787
927.0,0.006559
928.0,0.004517
929.0,0.004049
930.0,0.003046
931.0,0.002858
932.0,0.001956
933.0,0.001541
934.0,0.0007849
935.0,0.001576
936.0,0.0009301
937.0,0.0009382
938.0,0.001173
939.0,0.002675
940.0,0.003302
941.0,0.002385
942.0,0.002805
943.0,0.001732
944.0,0.001843
945.0,0.002423
946.0,0.001126
947.0,0.002408
948.0,0.001699
949.0,0.003342
950.0,0.0007843
951.0,0.003268
952.0,0.001597
953.0,0.002132
954.0,0.002702
955.0,0.002157
956.0,0.002081
957.0,0.001569
958.0,0.003086
959.0,0.002344
960.0,0.002659
961.0,0.003037
962.0,0.002841
963.0,0.003348
964.0,0.003012
965.0,0.003311
966.0,0.003297
967.0,0.003262
968.0,0.004628
969.0,0.004843
970.0,0.004362
971.0,0.005119
972.0,0.004833
973.0,0.004073
974.0,0.003822
975.0,0.003979
976.0,0.00372
977.0,0.00434
978.0,0.004059
979.0,0.004282
980.0,0.00396
981.0,0.004898
982.0,0.00462
983.0,0.004388
984.0,0.005039
985.0,0.004554
986.0,0.005116
987.0,0.00497
988.0,0.00494
989.0,0.005058
990.0,0.004876
991.0,0.005026
992.0,0.005039
993.0,0.004883
994.0,0.005005
995.0,0.004984
996.0,0.004938
997.0,0.004929
998.0,0.004886
999.0,0.004852
1000.0,0.004793
1001.0,0.004843
1002.0,0.004664
1003.0,0.004719
1004.0,0.004578
1005.0,0.004403
1006.0,0.004551
1007.0,0.004633
1008.0,0.004586
1009.0,0.004539
1010.0,0.004499
1011.0,0.004542
1012.0,0.004479
1013.0,0.004498
1014.0,0.004451
1015.0,0.004404
1016.0,0.004366
1017.0,0.004359
1018.0,0.004329
1019.0,0.00421
1020.0,0.004271
1021.0,0.00425
1022.0,0.004197
1023.0,0.004225
1024.0,0.004145
1025.0,0.004195
1026.0,0.004159
1027.0,0.004133
1028.0,0.004109
1029.0,0.004045
1030.0,0.004061
1031.0,0.004028
1032.0,0.004002
1033.0,0.003926
1034.0,0.003911
1035.0,0.003908
1036.0,0.003912
1037.0,0.003835
1038.0,0.003838
1039.0,0.003821
1040.0,0.003791
1041.0,0.003791
1042.0,0.00375
1043.0,0.003725
1044.0,0.003724
1045.0,0.003659
1046.0,0.003604
1047.0,0.003622
1048.0,0.003629
1049.0,0.003602
1050.0,0.003572
1051.0,0.003553
1052.0,0.003524
1053.0,0.003483
1054.0,0.003477
1055.0,0.003465
1056.0,0.003438
1057.0,0.003414
1058.0,0.003317
1059.0,0.003308
1060.0,0.00329
1061.0,0.003273
1062.0,0.003277
1063.0,0.003232
1064.0,0.00326
1065.0,0.003221
1066.0,0.003148
1067.0,0.003176
1068.0,0.003093
1069.0,0.002988
1070.0,0.003075
1071.0,0.003119
1072.0,0.003066
1073.0,0.003013
1074.0,0.003089
1075.0,0.0029
1076.0,0.003062
1077.0,0.002982
1078.0,0.002911
1079.0,0.002983
1080.0,0.0029
1081.0,0.002792
1082.0,0.002846
1083.0,0.002848
1084.0,0.002745
1085.0,0.002861
1086.0,0.002555
1087.0,0.002666
1088.0,0.002788
1089.0,0.002672
1090.0,0.002584
1091.0,0.002742
1092.0,0.00273
1093.0,0.002237
1094.0,0.002473
1095.0,0.002331
1096.0,0.002202
1097.0,0.002623
1098.0,0.002149
1099.0,0.002243
1100.0,0.002043
1101.0,0.002072
1102.0,0.001957
1103.0,0.001919
1104.0,0.001917
1105.0,0.002138
1106.0,0.001536
1107.0,0.001996
1108.0,0.001625
1109.0,0.001626
1110.0,0.001952
1111.0,0.001225
1112.0,0.001599
1113.0,0.0009332
1114.0,0.001055
1115.0,0.0008506
1116.0,0.0006493
1117.0,0.0002096
1118.0,0.0007118
1119.0,0.0003214
1120.0,0.0004108
1121.0,0.0005628
1122.0,0.0002135
1123.0,0.000364
1124.0,0.0003018
1125.0,0.0004043
1126.0,0.0001249
1127.0,0.0004579
1128.0,0.0002551
1129.0,0.000272
1130.0,0.0001712
1131.0,0.0009411
1132.0,0.00071
1133.0,0.0004185
1134.0,9.318e-05
1135.0,3.368e-05
1136.0,0.0003365
1137.0,0.0009009
1138.0,0.000605
1139.0,0.000966
1140.0,0.0007782
1141.0,0.000566
1142.0,0.000663
1143.0,0.0009899
1144.0,0.0002986
1145.0,0.0003862
1146.0,0.0004176
1147.0,0.0001304
1148.0,0.0008255
1149.0,0.0006331
1150.0,0.0003174
1151.0,0.0005734
1152.0,0.0007285
1153.0,0.0007099
1154.0,0.0003612
1155.0,0.0009602
1156.0,0.0008458
1157.0,0.0009676
1158.0,0.0009526
1159.0,0.001044
1160.0,0.0008639
1161.0,0.001107
1162.0,0.001104
1163.0,0.001578
1164.0,0.001311
1165.0,0.001214
1166.0,0.001206
1167.0,0.001329
1168.0,0.001339
1169.0,0.001379
1170.0,0.001514
1171.0,0.001463
1172.0,0.001493
1173.0,0.001494
1174.0,0.0009989
1175.0,0.001454
1176.0,0.00162
1177.0,0.001535
1178.0,0.001091
1179.0,0.001618
1180.0,0.001405
1181.0,0.001454
1182.0,0.000937
1183.0,0.001429
1184.0,0.001311
1185.0,0.00125
1186.0,0.001528
1187.0,0.001436
1188.0,0.0009396
1189.0,0.001321
1190.0,0.00147
1191.0,0.001374
1192.0,0.001485
1193.0,0.001407
1194.0,0.001455
1195.0,0.001359
1196.0,0.001294
1197.0,0.001453
1198.0,0.001306
1199.0,0.001075
1200.0,0.001362
1201.0,0.001299
1202.0,0.001289
1203.0,0.001282
1204.0,0.001086
1205.0,0.001317
1206.0,0.001479
1207.0,0.001269
1208.0,0.001255
1209.0,0.001277
1210.0,0.001336
1211.0,0.001255
1212.0,0.001229
1213.0,0.001395
1214.0,0.001257
1215.0,0.001225
1216.0,0.001377
1217.0,0.00133
1218.0,0.001356
1219.0,0.001333
1220.0,0.001349
1221.0,0.001362
1222.0,0.001317
1223.0,0.001299
1224.0,0.001283
1225.0,0.001336
1226.0,0.001344
1227.0,0.00122
1228.0,0.001345
1229.0,0.001332
1230.0,0.001302
1231.0,0.001343
1232.0,0.001331
1233.0,0.00127
1234.0,0.001331
1235.0,0.001317
1236.0,0.001323
1237.0,0.001297
1238.0,0.001311
1239.0,0.001289
1240.0,0.001291
1241.0,0.001278
1242.0,0.001273
1243.0,0.001258
1244.0,0.001262
1245.0,0.001264
1246.0,0.001253
1247.0,0.001243
1248.0,0.001237
1249.0,0.001238
1250.0,0.001226
1251.0,0.001205
1252.0,0.001203
1253.0,0.001186
1254.0,0.001168
1255.0,0.001189
1256.0,0.001146
1257.0,0.001135
1258.0,0.001157
1259.0,0.001102
1260.0,0.001106
1261.0,0.001029
1262.0,0.0009896
1263.0,0.0009883
1264.0,0.0008964
1265.0,0.0009767
1266.0,0.0009292
1267.0,0.000948
1268.0,0.0008876
1269.0,0.0005014
1270.0,0.0009348
1271.0,0.0009993
1272.0,0.001001
1273.0,0.0009857
1274.0,0.0009874
1275.0,0.001001
1276.0,0.001009
1277.0,0.001015
1278.0,0.001036
1279.0,0.001023
1280.0,0.001007
1281.0,0.0009601
1282.0,0.0009258
1283.0,0.0009932
1284.0,0.001013
1285.0,0.001017
1286.0,0.00103
1287.0,0.001007
1288.0,0.001004
1289.0,0.0009624
1290.0,0.0009894
1291.0,0.001001
1292.0,0.0009242
1293.0,0.0009718
1294.0,0.000961
1295.0,0.0009511
1296.0,0.0008964
1297.0,0.0008373
1298.0,0.0009127
1299.0,0.000956
1300.0,0.0007803
1301.0,0.0008075
1302.0,0.0008997
1303.0,0.0007641
1304.0,0.0006292
1305.0,0.0008695
1306.0,0.0008668
1307.0,0.0006402
1308.0,0.0007538
1309.0,0.0008511
1310.0,0.0006206
1311.0,0.000711
1312.0,0.0006889
1313.0,0.0006695
1314.0,0.0005847
1315.0,0.0005761
1316.0,0.0006881
1317.0,0.0006431
1318.0,0.0007085
1319.0,0.0005259
1320.0,0.0005066
1321.0,0.0006043
1322.0,0.0006084
1323.0,0.0004338
1324.0,0.0005068
1325.0,0.0006578
1326.0,0.0005474
1327.0,0.000516
1328.0,0.0004332
1329.0,0.0003096
1330.0,0.0004171
1331.0,0.0002322
1332.0,0.0002412
1333.0,0.0003489
1334.0,0.0002899
1335.0,0.0004169
1336.0,0.0003164
1337.0,0.0002738
1338.0,0.0002984
1339.0,0.000297
1340.0,0.0002874
1341.0,0.0002769
1342.0,0.0002919
1343.0,0.0001848
1344.0,0.0001053
1345.0,0.0001567
1346.0,7.172e-05
1347.0,7.252e-05
1348.0,4.179e-06
1349.0,1.544e-05
1350.0,1.608e-05
1351.0,3.74e-06
1352.0,9.908e-07
1353.0,5e-08
1354.0,1.722e-07
1355.0,1.382e-09
1356.0,2.42e-08
1357.0,3.678e-08
1358.0,1.622e-09
1359.0,2.043e-10
1360.0,7.384e-10
1361.0,8.258e-13
1362.0,2.259e-15
1363.0,9.928e-10
