interpolation:linear
wavelength,value
280.0,1.108e-21
280.5,3.561e-20
281.0,1.894e-19
281.5,5.206e-19
282.0,9.567e-19
282.5,2.382e-18
283.0,7.512e-18
283.5,1.22e-17
284.0,1.975e-16
284.5,5.711e-16
285.0,1.132e-15
285.5,5.456e-15
286.0,2.18e-14
286.5,9.644e-14
287.0,2.737e-13
287.5,1.041e-12
288.0,3.191e-12
288.5,9.993e-12
289.0,2.719e-11
289.5,8.33e-11
290.0,2.331e-10
290.5,4.776e-10
291.0,1.029e-09
291.5,2.963e-09
292.0,6.107e-09
292.5,8.815e-09
293.0,1.955e-08
293.5,4.962e-08
294.0,7.969e-08
294.5,1.044e-07
295.0,1.804e-07
295.5,4.11e-07
296.0,7.344e-07
296.5,1.051e-06
297.0,1.454e-06
297.5,4.059e-06
298.0,6.665e-06
298.5,6.952e-06
299.0,1.596e-05
299.5,2.889e-05
300.0,3.363e-05
300.5,5.21e-05
301.0,0.0001076
301.5,0.0001996
302.0,0.0001875
302.5,0.0003691
303.0,0.0006703
303.5,0.0008531
304.0,0.0008145
304.5,0.001274
305.0,0.002069
305.5,0.002476
306.0,0.002434
306.5,0.003116
307.0,0.004939
307.5,0.007006
308.0,0.00746
308.5,0.009089
309.0,0.009259
309.5,0.01084
310.0,0.011
310.5,0.01788
311.0,0.02262
311.5,0.02187
312.0,0.02236
312.5,0.0276
313.0,0.03013
313.5,0.02891
314.0,0.03684
314.5,0.03358
315.0,0.04424
315.5,0.03633
316.0,0.03246
316.5,0.04757
317.0,0.05884
317.5,0.06063
318.0,0.04793
318.5,0.06129
319.0,0.07375
319.5,0.05831
320.0,0.06995
320.5,0.09032
321.0,0.08284
321.5,0.07944
322.0,0.08148
322.5,0.07078
323.0,0.07189
323.5,0.09003
324.0,0.1051
324.5,0.1055
325.0,0.08968
325.5,0.1172
326.0,0.1435
326.5,0.1449
327.0,0.1433
327.5,0.1373
328.0,0.1202
328.5,0.1281
329.0,0.1552
329.5,0.1766
330.0,0.1768
330.5,0.1393
331.0,0.141
331.5,0.1441
332.0,0.1573
332.5,0.1562
333.0,0.1546
333.5,0.138
334.0,0.1407
334.5,0.1638
335.0,0.1546
335.5,0.1821
336.0,0.1257
336.5,0.1444
337.0,0.1174
337.5,0.1453
338.0,0.1429
338.5,0.1662
339.0,0.1635
339.5,0.1571
340.0,0.1823
340.5,0.164
341.0,0.1606
341.5,0.1463
342.0,0.1742
342.5,0.1623
343.0,0.1783
343.5,0.1677
344.0,0.1229
344.5,0.1249
345.0,0.1638
345.5,0.1663
346.0,0.1408
346.5,0.1588
347.0,0.1702
347.5,0.1373
348.0,0.1556
348.5,0.1549
349.0,0.1432
349.5,0.1413
350.0,0.1742
350.5,0.1832
351.0,0.1632
351.5,0.1585
352.0,0.1694
352.5,0.1316
353.0,0.1651
353.5,0.1759
354.0,0.182
354.5,0.184
355.0,0.1828
355.5,0.1645
356.0,0.1716
356.5,0.146
357.0,0.1202
357.5,0.1467
358.0,0.1158
358.5,0.09866
359.0,0.1375
359.5,0.1747
360.0,0.1846
360.5,0.147
361.0,0.1336
361.5,0.1533
362.0,0.1321
362.5,0.1822
363.0,0.1631
363.5,0.1497
364.0,0.1825
364.5,0.1555
365.0,0.1578
365.5,0.1974
366.0,0.2084
366.5,0.1952
367.0,0.1894
367.5,0.1959
368.0,0.1709
368.5,0.1718
369.0,0.1849
369.5,0.1964
370.0,0.2087
370.5,0.1614
371.0,0.1719
371.5,0.2143
372.0,0.1418
372.5,0.1694
373.0,0.1717
373.5,0.1114
374.0,0.1612
374.5,0.1331
375.0,0.1289
375.5,0.1918
376.0,0.1585
376.5,0.1636
377.0,0.1727
377.5,0.2013
378.0,0.2175
378.5,0.2048
379.0,0.1684
379.5,0.1532
380.0,0.1587
380.5,0.1916
381.0,0.1913
381.5,0.1511
382.0,0.1337
382.5,0.1135
383.0,0.1047
383.5,0.1005
384.0,0.1105
384.5,0.162
385.0,0.1601
385.5,0.1485
386.0,0.1268
386.5,0.1659
387.0,0.1374
387.5,0.1537
388.0,0.1414
388.5,0.1393
389.0,0.1498
389.5,0.1808
390.0,0.1808
390.5,0.1658
391.0,0.1945
391.5,0.1976
392.0,0.1658
392.5,0.1479
393.0,0.08202
393.5,0.05941
394.0,0.1205
394.5,0.1526
395.0,0.1856
395.5,0.1879
396.0,0.1623
396.5,0.09453
397.0,0.07068
397.5,0.1432
398.0,0.1998
398.5,0.2058
399.0,0.2221
399.5,0.2206
400.0,0.2282
401.0,0.2242
402.0,0.2348
403.0,0.2214
404.0,0.2165
405.0,0.2149
406.0,0.2098
407.0,0.2049
408.0,0.2113
409.0,0.2245
410.0,0.1948
411.0,0.2095
412.0,0.2234
413.0,0.2163
414.0,0.2174
415.0,0.2164
416.0,0.2185
417.0,0.2115
418.0,0.2061
419.0,0.2072
420.0,0.2048
421.0,0.2126
422.0,0.2005
423.0,0.1943
424.0,0.2039
425.0,0.202
426.0,0.1954
427.0,0.1904
428.0,0.1841
429.0,0.1732
430.0,0.1505
431.0,0.148
432.0,0.1896
433.0,0.1891
434.0,0.1743
435.0,0.1807
436.0,0.2022
437.0,0.1981
438.0,0.1791
439.0,0.1838
440.0,0.1882
441.0,0.1935
442.0,0.2059
443.0,0.199
444.0,0.2019
445.0,0.1962
446.0,0.1859
447.0,0.1996
448.0,0.2011
449.0,0.2003
450.0,0.2043
451.0,0.2102
452.0,0.201
453.0,0.1878
454.0,0.1946
455.0,0.1943
456.0,0.1973
457.0,0.199
458.0,0.1906
459.0,0.188
460.0,0.187
461.0,0.1898
462.0,0.1899
463.0,0.1874
464.0,0.1832
465.0,0.1798
466.0,0.1802
467.0,0.1756
468.0,0.1761
469.0,0.1756
470.0,0.1687
471.0,0.1673
472.0,0.1751
473.0,0.1716
474.0,0.1705
475.0,0.1706
476.0,0.1641
477.0,0.1631
478.0,0.1661
479.0,0.1636
480.0,0.1625
481.0,0.164
482.0,0.1636
483.0,0.1605
484.0,0.1562
485.0,0.1478
486.0,0.1284
487.0,0.1336
488.0,0.1455
489.0,0.1448
490.0,0.1512
491.0,0.1474
492.0,0.1381
493.0,0.1416
494.0,0.142
495.0,0.1421
496.0,0.1419
497.0,0.143
498.0,0.1351
499.0,0.1356
500.0,0.1304
501.0,0.1268
502.0,0.1238
503.0,0.1276
504.0,0.1232
505.0,0.1267
506.0,0.1299
507.0,0.1228
508.0,0.1182
509.0,0.1208
510.0,0.1194
511.0,0.1218
512.0,0.1222
513.0,0.1148
514.0,0.1131
515.0,0.1112
516.0,0.1101
517.0,0.09709
518.0,0.1013
519.0,0.1055
520.0,0.1085
521.0,0.1086
522.0,0.1078
523.0,0.1051
524.0,0.108
525.0,0.1083
526.0,0.1026
527.0,0.09583
528.0,0.1005
529.0,0.105
530.0,0.1027
531.0,0.1034
532.0,0.09914
533.0,0.09556
534.0,0.09772
535.0,0.09922
536.0,0.09948
537.0,0.09492
538.0,0.09593
539.0,0.09449
540.0,0.08998
541.0,0.08988
542.0,0.09195
543.0,0.0903
544.0,0.09125
545.0,0.09039
546.0,0.09012
547.0,0.08944
548.0,0.08776
549.0,0.08743
550.0,0.08787
551.0,0.08619
552.0,0.08617
553.0,0.08403
554.0,0.08543
555.0,0.08499
556.0,0.08325
557.0,0.08003
558.0,0.07878
559.0,0.07666
560.0,0.07699
561.0,0.07735
562.0,0.07615
563.0,0.07761
564.0,0.07493
565.0,0.07374
566.0,0.07211
567.0,0.07291
568.0,0.0717
569.0,0.06941
570.0,0.06893
571.0,0.06804
572.0,0.06912
573.0,0.0694
574.0,0.06876
575.0,0.06706
576.0,0.06605
577.0,0.06639
578.0,0.06506
579.0,0.06501
580.0,0.06595
581.0,0.06596
582.0,0.06687
583.0,0.06672
584.0,0.06698
585.0,0.06499
586.0,0.06324
587.0,0.06418
588.0,0.06215
589.0,0.05452
590.0,0.05669
591.0,0.05974
592.0,0.05851
593.0,0.05903
594.0,0.05815
595.0,0.05624
596.0,0.05822
597.0,0.05715
598.0,0.05662
599.0,0.05629
600.0,0.05603
601.0,0.05526
602.0,0.05456
603.0,0.05514
604.0,0.05575
605.0,0.05518
606.0,0.0547
607.0,0.05501
608.0,0.05415
609.0,0.054
610.0,0.05339
611.0,0.05345
612.0,0.05306
613.0,0.05216
614.0,0.05122
615.0,0.05211
616.0,0.05017
617.0,0.04985
618.0,0.05154
619.0,0.05078
620.0,0.05085
621.0,0.05064
622.0,0.04978
623.0,0.04875
624.0,0.04768
625.0,0.04736
626.0,0.04784
627.0,0.04811
628.0,0.04427
629.0,0.04634
630.0,0.04503
631.0,0.04596
632.0,0.04523
633.0,0.04647
634.0,0.04586
635.0,0.04637
636.0,0.04556
637.0,0.04612
638.0,0.04638
639.0,0.04567
640.0,0.04503
641.0,0.0448
642.0,0.04443
643.0,0.04484
644.0,0.04452
645.0,0.04436
646.0,0.04306
647.0,0.04224
648.0,0.04205
649.0,0.04103
650.0,0.04118
651.0,0.04278
652.0,0.04062
653.0,0.04181
654.0,0.04117
655.0,0.03935
656.0,0.03477
657.0,0.03556
658.0,0.03972
659.0,0.03985
660.0,0.03983
661.0,0.03991
662.0,0.03979
663.0,0.03885
664.0,0.03917
665.0,0.03904
666.0,0.0389
667.0,0.03871
668.0,0.03858
669.0,0.039
670.0,0.03864
671.0,0.03847
672.0,0.038
673.0,0.03844
674.0,0.03812
675.0,0.0376
676.0,0.03769
677.0,0.03716
678.0,0.03712
679.0,0.03636
680.0,0.03648
681.0,0.03607
682.0,0.03586
683.0,0.03562
684.0,0.03526
685.0,0.03539
686.0,0.03501
687.0,0.02176
688.0,0.02597
689.0,0.02596
690.0,0.02731
691.0,0.02888
692.0,0.03002
693.0,0.02961
694.0,0.02919
695.0,0.03044
696.0,0.03033
697.0,0.03237
698.0,0.03172
699.0,0.03062
700.0,0.03011
701.0,0.02963
702.0,0.02977
703.0,0.02968
704.0,0.03058
705.0,0.03048
706.0,0.03035
707.0,0.03025
708.0,0.03017
709.0,0.03012
710.0,0.02994
711.0,0.02981
712.0,0.02964
713.0,0.02918
714.0,0.02913
715.0,0.028
716.0,0.02788
717.0,0.02348
718.0,0.02129
719.0,0.01925
720.0,0.02012
721.0,0.02247
722.0,0.02611
723.0,0.02391
724.0,0.02114
725.0,0.02066
726.0,0.02164
727.0,0.02189
728.0,0.02033
729.0,0.02117
730.0,0.02238
731.0,0.02121
732.0,0.02281
733.0,0.02426
734.0,0.02477
735.0,0.02411
736.0,0.02398
737.0,0.02395
738.0,0.02434
739.0,0.02373
740.0,0.02427
741.0,0.02394
742.0,0.02387
743.0,0.02435
744.0,0.02417
745.0,0.02406
746.0,0.02406
747.0,0.024
748.0,0.02383
749.0,0.02344
750.0,0.02332
751.0,0.02299
752.0,0.02299
753.0,0.02299
754.0,0.02293
755.0,0.0227
756.0,0.0226
757.0,0.02253
758.0,0.02214
759.0,0.02152
760.0,0.00296
761.0,0.001523
762.0,0.009779
763.0,0.004551
764.0,0.007035
765.0,0.00963
766.0,0.01217
767.0,0.01579
768.0,0.01861
769.0,0.01903
770.0,0.01972
771.0,0.01985
772.0,0.01981
773.0,0.01985
774.0,0.01965
775.0,0.01941
776.0,0.01955
777.0,0.0192
778.0,0.01898
779.0,0.0189
780.0,0.01871
781.0,0.01864
782.0,0.01868
783.0,0.01827
784.0,0.01828
785.0,0.01807
786.0,0.01818
787.0,0.01774
788.0,0.01741
789.0,0.01731
790.0,0.0167
791.0,0.01684
792.0,0.01664
793.0,0.01629
794.0,0.01658
795.0,0.01676
796.0,0.01606
797.0,0.01602
798.0,0.01651
799.0,0.01631
800.0,0.01592
801.0,0.01578
802.0,0.01566
803.0,0.01546
804.0,0.01542
805.0,0.01533
806.0,0.01573
807.0,0.01545
808.0,0.0154
809.0,0.015
810.0,0.01478
811.0,0.01469
812.0,0.01413
813.0,0.01372
814.0,0.01177
815.0,0.01164
816.0,0.01067
817.0,0.01085
818.0,0.01037
819.0,0.01176
820.0,0.01093
821.0,0.01307
822.0,0.01258
823.0,0.008012
824.0,0.01203
825.0,0.01259
826.0,0.01196
827.0,0.01269
828.0,0.01043
829.0,0.01176
830.0,0.01153
831.0,0.01153
832.0,0.01107
833.0,0.01191
834.0,0.01136
835.0,0.01261
836.0,0.0119
837.0,0.01254
838.0,0.01205
839.0,0.01225
840.0,0.01248
841.0,0.01222
842.0,0.01222
843.0,0.01219
844.0,0.01195
845.0,0.01233
846.0,0.01222
847.0,0.01195
848.0,0.01181
849.0,0.01142
850.0,0.01089
851.0,0.01146
852.0,0.01133
853.0,0.01086
854.0,0.009328
855.0,0.01022
856.0,0.01112
857.0,0.01133
858.0,0.0112
859.0,0.01117
860.0,0.01115
861.0,0.01104
862.0,0.01117
863.0,0.01139
864.0,0.01078
865.0,0.01065
866.0,0.009533
867.0,0.009908
868.0,0.01074
869.0,0.01047
870.0,0.01073
871.0,0.01054
872.0,0.01046
873.0,0.01039
874.0,0.01022
875.0,0.00997
876.0,0.01003
877.0,0.01009
878.0,0.01015
879.0,0.009954
880.0,0.0097
881.0,0.009508
882.0,0.009674
883.0,0.009671
884.0,0.009581
885.0,0.009609
886.0,0.009096
887.0,0.009174
888.0,0.009258
889.0,0.009346
890.0,0.009199
891.0,0.009161
892.0,0.008832
893.0,0.008474
894.0,0.008064
895.0,0.007492
896.0,0.006941
897.0,0.00579
898.0,0.006383
899.0,0.004627
900.0,0.006552
901.0,0.004876
902.0,0.005871
903.0,0.005865
904.0,0.007677
905.0,0.007333
906.0,0.006783
907.0,0.005271
908.0,0.005391
909.0,0.005921
910.0,0.00507
911.0,0.005463
912.0,0.00573
913.0,0.005081
914.0,0.005027
915.0,0.005491
916.0,0.004517
917.0,0.005956
918.0,0.004613
919.0,0.006037
920.0,0.006122
921.0,0.006407
922.0,0.005582
923.0,0.006142
924.0,0.005684
925.0,0.00552
926.0,0.005575
927.0,0.006328
928.0,0.004335
929.0,0.00388
930.0,0.002917
931.0,0.002739
932.0,0.001873
933.0,0.001476
934.0,0.000753
935.0,0.001513
936.0,0.0008943
937.0,0.0009017
938.0,0.001125
939.0,0.002563
940.0,0.003164
941.0,0.002282
942.0,0.002685
943.0,0.001662
944.0,0.001773
945.0,0.00232
946.0,0.001081
947.0,0.002303
948.0,0.001632
949.0,0.003195
950.0,0.000754
951.0,0.003126
952.0,0.00153
953.0,0.002042
954.0,0.00259
955.0,0.002065
956.0,0.002004
957.0,0.001502
958.0,0.002969
959.0,0.00225
960.0,0.002548
961.0,0.002916
962.0,0.002729
963.0,0.003219
964.0,0.002896
965.0,0.003183
966.0,0.003168
967.0,0.003134
968.0,0.004471
969.0,0.004671
970.0,0.004206
971.0,0.004949
972.0,0.00467
973.0,0.003923
974.0,0.003681
975.0,0.003838
976.0,0.00358
977.0,0.004191
978.0,0.003913
979.0,0.00413
980.0,0.003821
981.0,0.004735
982.0,0.004462
983.0,0.004235
984.0,0.004878
985.0,0.004396
986.0,0.004957
987.0,0.00481
988.0,0.004781
989.0,0.004903
990.0,0.004718
991.0,0.00487
992.0,0.004884
993.0,0.004727
994.0,0.004851
995.0,0.004832
996.0,0.004787
997.0,0.004779
998.0,0.004737
999.0,0.004704
1000.0,0.004646
1001.0,0.004695
1002.0,0.004517
1003.0,0.004575
1004.0,0.004437
1005.0,0.00427
1006.0,0.004412
1007.0,0.004492
1008.0,0.004445
1009.0,0.004399
1010.0,0.00436
1011.0,0.004403
1012.0,0.004341
1013.0,0.004361
1014.0,0.004315
1015.0,0.00427
1016.0,0.004233
1017.0,0.004226
1018.0,0.004197
1019.0,0.00408
1020.0,0.004141
1021.0,0.004121
1022.0,0.004069
1023.0,0.004096
1024.0,0.004017
1025.0,0.004068
1026.0,0.004032
1027.0,0.004007
1028.0,0.003984
1029.0,0.003922
1030.0,0.003938
1031.0,0.003905
1032.0,0.00388
1033.0,0.003806
1034.0,0.003792
1035.0,0.00379
1036.0,0.003793
1037.0,0.003718
1038.0,0.003721
1039.0,0.003705
1040.0,0.003676
1041.0,0.003675
1042.0,0.003636
1043.0,0.003611
1044.0,0.00361
1045.0,0.003547
1046.0,0.003493
1047.0,0.003511
1048.0,0.003517
1049.0,0.003491
1050.0,0.003462
1051.0,0.003443
1052.0,0.003415
1053.0,0.003375
1054.0,0.003369
1055.0,0.003357
1056.0,0.003331
1057.0,0.003307
1058.0,0.003213
1059.0,0.003204
1060.0,0.003186
1061.0,0.00317
1062.0,0.003173
1063.0,0.00313
1064.0,0.003156
1065.0,0.003118
1066.0,0.003048
1067.0,0.003075
1068.0,0.002994
1069.0,0.002893
1070.0,0.002977
1071.0,0.003021
1072.0,0.002968
1073.0,0.002917
1074.0,0.002992
1075.0,0.002806
1076.0,0.002966
1077.0,0.002887
1078.0,0.002817
1079.0,0.002891
1080.0,0.002808
1081.0,0.002701
1082.0,0.002756
1083.0,0.002759
1084.0,0.002655
1085.0,0.00277
1086.0,0.00247
1087.0,0.002579
1088.0,0.002701
1089.0,0.002585
1090.0,0.002498
1091.0,0.002655
1092.0,0.002644
1093.0,0.002159
1094.0,0.002394
1095.0,0.002249
1096.0,0.002123
1097.0,0.00254
1098.0,0.00207
1099.0,0.002163
1100.0,0.001968
1101.0,0.001996
1102.0,0.001884
1103.0,0.001846
1104.0,0.001844
1105.0,0.002061
1106.0,0.001471
1107.0,0.001921
1108.0,0.00156
1109.0,0.001562
1110.0,0.001877
1111.0,0.001174
1112.0,0.001537
1113.0,0.0008937
1114.0,0.001009
1115.0,0.0008153
1116.0,0.0006209
1117.0,0.0002016
1118.0,0.0006805
1119.0,0.0003085
1120.0,0.0003923
1121.0,0.000536
1122.0,0.0002049
1123.0,0.0003484
1124.0,0.0002897
1125.0,0.0003866
1126.0,0.0001204
1127.0,0.0004372
1128.0,0.0002441
1129.0,0.0002601
1130.0,0.0001647
1131.0,0.000895
1132.0,0.0006767
1133.0,0.000399
1134.0,9.013e-05
1135.0,3.298e-05
1136.0,0.000321
1137.0,0.0008552
1138.0,0.0005772
1139.0,0.0009245
1140.0,0.0007434
1141.0,0.0005406
1142.0,0.0006331
1143.0,0.0009436
1144.0,0.0002867
1145.0,0.0003683
1146.0,0.0003978
1147.0,0.0001255
1148.0,0.0007883
1149.0,0.0006046
1150.0,0.0003049
1151.0,0.0005471
1152.0,0.0006951
1153.0,0.0006799
1154.0,0.0003448
1155.0,0.000918
1156.0,0.0008081
1157.0,0.0009265
1158.0,0.0009121
1159.0,0.001
1160.0,0.000828
1161.0,0.001063
1162.0,0.00106
1163.0,0.00152
1164.0,0.001261
1165.0,0.001165
1166.0,0.001161
1167.0,0.001279
1168.0,0.001288
1169.0,0.001327
1170.0,0.001459
1171.0,0.001411
1172.0,0.001441
1173.0,0.001441
1174.0,0.0009598
1175.0,0.001404
1176.0,0.001568
1177.0,0.001483
1178.0,0.001052
1179.0,0.001566
1180.0,0.001356
1181.0,0.001403
1182.0,0.0009021
1183.0,0.00138
1184.0,0.001265
1185.0,0.001204
1186.0,0.001477
1187.0,0.001386
1188.0,0.0009029
1189.0,0.001276
1190.0,0.001422
1191.0,0.001324
1192.0,0.001436
1193.0,0.00136
1194.0,0.001406
1195.0,0.001311
1196.0,0.001248
1197.0,0.001406
1198.0,0.001263
1199.0,0.001036
1200.0,0.001316
1201.0,0.001253
1202.0,0.001246
1203.0,0.001237
1204.0,0.001048
1205.0,0.001274
1206.0,0.001432
1207.0,0.001225
1208.0,0.001212
1209.0,0.001235
1210.0,0.001292
1211.0,0.001212
1212.0,0.001184
1213.0,0.001349
1214.0,0.001212
1215.0,0.001181
1216.0,0.001332
1217.0,0.001285
1218.0,0.001312
1219.0,0.001289
1220.0,0.001305
1221.0,0.001318
1222.0,0.001274
1223.0,0.001256
1224.0,0.00124
1225.0,0.001293
1226.0,0.001301
1227.0,0.001179
1228.0,0.001303
1229.0,0.001289
1230.0,0.00126
1231.0,0.001302
1232.0,0.001289
1233.0,0.001229
1234.0,0.001291
1235.0,0.001276
1236.0,0.001283
1237.0,0.001256
1238.0,0.00127
1239.0,0.00125
1240.0,0.001251
1241.0,0.001238
1242.0,0.001234
1243.0,0.00122
1244.0,0.001224
1245.0,0.001225
1246.0,0.001214
1247.0,0.001205
1248.0,0.001199
1249.0,0.0012
1250.0,0.001188
1251.0,0.001167
1252.0,0.001166
1253.0,0.001149
1254.0,0.001131
1255.0,0.001153
1256.0,0.001109
1257.0,0.001098
1258.0,0.001121
1259.0,0.001066
1260.0,0.00107
1261.0,0.0009928
1262.0,0.0009533
1263.0,0.0009519
1264.0,0.0008608
1265.0,0.0009407
1266.0,0.0008934
1267.0,0.0009126
1268.0,0.0008528
1269.0,0.000475
1270.0,0.0008994
1271.0,0.0009639
1272.0,0.0009656
1273.0,0.0009508
1274.0,0.0009528
1275.0,0.0009661
1276.0,0.000975
1277.0,0.000981
1278.0,0.001002
1279.0,0.0009897
1280.0,0.0009743
1281.0,0.0009293
1282.0,0.0008968
1283.0,0.000962
1284.0,0.000981
1285.0,0.0009851
1286.0,0.0009977
1287.0,0.0009747
1288.0,0.0009725
1289.0,0.0009306
1290.0,0.0009584
1291.0,0.00097
1292.0,0.0008929
1293.0,0.000941
1294.0,0.0009304
1295.0,0.0009199
1296.0,0.0008655
1297.0,0.0008076
1298.0,0.0008825
1299.0,0.000926
1300.0,0.0007523
1301.0,0.0007791
1302.0,0.0008699
1303.0,0.0007371
1304.0,0.0006044
1305.0,0.0008407
1306.0,0.0008376
1307.0,0.0006162
1308.0,0.000728
1309.0,0.0008218
1310.0,0.0005971
1311.0,0.000686
1312.0,0.0006641
1313.0,0.0006448
1314.0,0.0005626
1315.0,0.0005535
1316.0,0.0006632
1317.0,0.0006198
1318.0,0.0006838
1319.0,0.0005049
1320.0,0.0004874
1321.0,0.0005817
1322.0,0.0005848
1323.0,0.0004155
1324.0,0.0004869
1325.0,0.0006337
1326.0,0.0005262
1327.0,0.0004958
1328.0,0.000416
1329.0,0.0002962
1330.0,0.0003987
1331.0,0.0002217
1332.0,0.0002307
1333.0,0.0003323
1334.0,0.0002784
1335.0,0.0003991
1336.0,0.0003026
1337.0,0.000262
1338.0,0.0002851
1339.0,0.000284
1340.0,0.0002757
1341.0,0.0002642
1342.0,0.0002785
1343.0,0.0001755
1344.0,0.0001012
1345.0,0.0001494
1346.0,6.859e-05
1347.0,6.924e-05
1348.0,4.114e-06
1349.0,1.502e-05
1350.0,1.563e-05
1351.0,3.683e-06
1352.0,9.826e-07
1353.0,4.985e-08
1354.0,1.715e-07
1355.0,1.379e-09
1356.0,2.414e-08
1357.0,3.668e-08
1358.0,1.619e-09
1359.0,2.039e-10
1360.0,7.371e-10
1361.0,8.245e-13
