interpolation:linear
wavelength,value
280.0,3.951e-21
280.5,1.227e-19
281.0,6.457e-19
281.5,4.297e-19
282.0,1.194e-18
282.5,3.113e-18
283.0,1e-17
283.5,1.634e-17
284.0,2.628e-16
284.5,7.552e-16
285.0,1.659e-15
285.5,8.19e-15
286.0,3.287e-14
286.5,1.454e-13
287.0,4.118e-13
287.5,1.557e-12
288.0,4.037e-12
288.5,1.368e-11
289.0,3.946e-11
289.5,1.265e-10
290.0,3.645e-10
290.5,7.622e-10
291.0,1.675e-09
291.5,5.178e-09
292.0,1.123e-08
292.5,1.704e-08
293.0,4.032e-08
293.5,1.12e-07
294.0,1.922e-07
294.5,2.383e-07
295.0,4.375e-07
295.5,1.137e-06
296.0,2.222e-06
296.5,3.159e-06
297.0,4.343e-06
297.5,1.202e-05
298.0,1.957e-05
298.5,2.028e-05
299.0,4.624e-05
299.5,8.265e-05
300.0,9.547e-05
300.5,0.0001466
301.0,0.0002976
301.5,0.0005411
302.0,0.0005015
302.5,0.0009652
303.0,0.001701
303.5,0.002119
304.0,0.001987
304.5,0.002971
305.0,0.004529
305.5,0.005201
306.0,0.005028
306.5,0.006266
307.0,0.009358
307.5,0.01253
308.0,0.01321
308.5,0.01562
309.0,0.01576
309.5,0.01774
310.0,0.01767
310.5,0.02844
311.0,0.03545
311.5,0.03404
312.0,0.03372
312.5,0.04077
313.0,0.04401
313.5,0.04261
314.0,0.05296
314.5,0.04674
315.0,0.06119
315.5,0.05098
316.0,0.04437
316.5,0.06356
317.0,0.07861
317.5,0.08145
318.0,0.06339
318.5,0.07873
319.0,0.09333
319.5,0.07547
320.0,0.09079
320.5,0.1138
321.0,0.1016
321.5,0.09712
322.0,0.1024
322.5,0.08876
323.0,0.08846
323.5,0.1096
324.0,0.1275
324.5,0.1288
325.0,0.1097
325.5,0.1412
326.0,0.1733
326.5,0.1733
327.0,0.1719
327.5,0.1653
328.0,0.1463
328.5,0.1536
329.0,0.184
329.5,0.2084
330.0,0.2091
330.5,0.1662
331.0,0.1685
331.5,0.171
332.0,0.1848
332.5,0.1826
333.0,0.1811
333.5,0.1627
334.0,0.166
334.5,0.1916
335.0,0.1798
335.5,0.2128
336.0,0.1468
336.5,0.168
337.0,0.1371
337.5,0.1697
338.0,0.1657
338.5,0.1932
339.0,0.1898
339.5,0.1824
340.0,0.2109
340.5,0.1895
341.0,0.186
341.5,0.169
342.0,0.2009
342.5,0.187
343.0,0.2056
343.5,0.1935
344.0,0.1414
344.5,0.1443
345.0,0.1885
345.5,0.1912
346.0,0.1616
346.5,0.1821
347.0,0.1953
347.5,0.1575
348.0,0.1782
348.5,0.1772
349.0,0.1636
349.5,0.1614
350.0,0.1989
350.5,0.209
351.0,0.1862
351.5,0.1811
352.0,0.1932
352.5,0.1499
353.0,0.1879
353.5,0.2
354.0,0.2068
354.5,0.2089
355.0,0.2075
355.5,0.1867
356.0,0.1945
356.5,0.1654
357.0,0.1362
357.5,0.166
358.0,0.1311
358.5,0.1116
359.0,0.1555
359.5,0.1975
360.0,0.2085
360.5,0.1659
361.0,0.1507
361.5,0.1728
362.0,0.1488
362.5,0.2052
363.0,0.1836
363.5,0.1685
364.0,0.2052
364.5,0.1748
365.0,0.1773
365.5,0.2217
366.0,0.234
366.5,0.219
367.0,0.2124
367.5,0.2196
368.0,0.1914
368.5,0.1924
369.0,0.207
369.5,0.2198
370.0,0.2334
370.5,0.1805
371.0,0.1921
371.5,0.2394
372.0,0.1583
372.5,0.189
373.0,0.1916
373.5,0.1242
374.0,0.1797
374.5,0.1483
375.0,0.1436
375.5,0.2135
376.0,0.1763
376.5,0.182
377.0,0.192
377.5,0.2237
378.0,0.2416
378.5,0.2274
379.0,0.1869
379.5,0.17
380.0,0.176
380.5,0.2124
381.0,0.2119
381.5,0.1673
382.0,0.148
382.5,0.1256
383.0,0.1158
383.5,0.1111
384.0,0.1221
384.5,0.1789
385.0,0.1768
385.5,0.164
386.0,0.1399
386.5,0.183
387.0,0.1515
387.5,0.1694
388.0,0.1558
388.5,0.1534
389.0,0.1649
389.5,0.199
390.0,0.1989
390.5,0.1823
391.0,0.2137
391.5,0.2171
392.0,0.1821
392.5,0.1624
393.0,0.09002
393.5,0.06518
394.0,0.1321
394.5,0.1673
395.0,0.2034
395.5,0.2058
396.0,0.1777
396.5,0.1035
397.0,0.07735
397.5,0.1567
398.0,0.2185
398.5,0.225
399.0,0.2427
399.5,0.241
400.0,0.2493
401.0,0.2448
402.0,0.2562
403.0,0.2414
404.0,0.2359
405.0,0.234
406.0,0.2283
407.0,0.2228
408.0,0.2297
409.0,0.2439
410.0,0.2116
411.0,0.2274
412.0,0.2423
413.0,0.2345
414.0,0.2355
415.0,0.2343
416.0,0.2365
417.0,0.2288
418.0,0.2227
419.0,0.2239
420.0,0.2211
421.0,0.2294
422.0,0.2163
423.0,0.2095
424.0,0.2198
425.0,0.2176
426.0,0.2103
427.0,0.2048
428.0,0.198
429.0,0.1862
430.0,0.1617
431.0,0.1589
432.0,0.2035
433.0,0.203
434.0,0.187
435.0,0.1937
436.0,0.2167
437.0,0.2122
438.0,0.1918
439.0,0.1968
440.0,0.2015
441.0,0.2071
442.0,0.2203
443.0,0.2129
444.0,0.2159
445.0,0.2096
446.0,0.1986
447.0,0.213
448.0,0.2146
449.0,0.2137
450.0,0.2178
451.0,0.2241
452.0,0.2143
453.0,0.2
454.0,0.2073
455.0,0.2069
456.0,0.2101
457.0,0.2118
458.0,0.2029
459.0,0.2002
460.0,0.1991
461.0,0.202
462.0,0.2021
463.0,0.1993
464.0,0.1948
465.0,0.191
466.0,0.1914
467.0,0.1864
468.0,0.187
469.0,0.1863
470.0,0.1791
471.0,0.1776
472.0,0.1857
473.0,0.1819
474.0,0.1808
475.0,0.1809
476.0,0.174
477.0,0.173
478.0,0.1763
479.0,0.1736
480.0,0.1725
481.0,0.1741
482.0,0.1737
483.0,0.1703
484.0,0.1656
485.0,0.1567
486.0,0.136
487.0,0.1415
488.0,0.1541
489.0,0.1533
490.0,0.1601
491.0,0.1561
492.0,0.1463
493.0,0.15
494.0,0.1503
495.0,0.1505
496.0,0.1503
497.0,0.1514
498.0,0.1432
499.0,0.1437
500.0,0.1383
501.0,0.1346
502.0,0.1315
503.0,0.1356
504.0,0.131
505.0,0.1348
506.0,0.1381
507.0,0.1305
508.0,0.1256
509.0,0.1283
510.0,0.1268
511.0,0.1293
512.0,0.1297
513.0,0.1219
514.0,0.1201
515.0,0.118
516.0,0.1169
517.0,0.1031
518.0,0.1076
519.0,0.1121
520.0,0.1152
521.0,0.1154
522.0,0.1147
523.0,0.1118
524.0,0.1149
525.0,0.1153
526.0,0.1093
527.0,0.1021
528.0,0.1071
529.0,0.1121
530.0,0.1097
531.0,0.1105
532.0,0.1059
533.0,0.1021
534.0,0.1044
535.0,0.106
536.0,0.1063
537.0,0.1014
538.0,0.1024
539.0,0.1009
540.0,0.09612
541.0,0.09605
542.0,0.09829
543.0,0.09655
544.0,0.0976
545.0,0.09671
546.0,0.09644
547.0,0.09572
548.0,0.09392
549.0,0.09358
550.0,0.09406
551.0,0.09227
552.0,0.09226
553.0,0.08998
554.0,0.0915
555.0,0.09105
556.0,0.08921
557.0,0.08578
558.0,0.08448
559.0,0.08226
560.0,0.08265
561.0,0.08307
562.0,0.08183
563.0,0.08343
564.0,0.08059
565.0,0.07934
566.0,0.07761
567.0,0.0785
568.0,0.07722
569.0,0.07481
570.0,0.0743
571.0,0.07336
572.0,0.07455
573.0,0.07486
574.0,0.07418
575.0,0.07235
576.0,0.07125
577.0,0.0716
578.0,0.07013
579.0,0.07005
580.0,0.07102
581.0,0.071
582.0,0.07194
583.0,0.07175
584.0,0.07201
585.0,0.06986
586.0,0.06797
587.0,0.06898
588.0,0.06683
589.0,0.05868
590.0,0.06103
591.0,0.06428
592.0,0.06299
593.0,0.06355
594.0,0.06264
595.0,0.06063
596.0,0.06274
597.0,0.06162
598.0,0.06107
599.0,0.06072
600.0,0.06045
601.0,0.05961
602.0,0.05886
603.0,0.05948
604.0,0.06011
605.0,0.05948
606.0,0.05895
607.0,0.05924
608.0,0.05829
609.0,0.05809
610.0,0.0574
611.0,0.05743
612.0,0.05699
613.0,0.05598
614.0,0.05494
615.0,0.05587
616.0,0.05377
617.0,0.0534
618.0,0.05518
619.0,0.05436
620.0,0.05442
621.0,0.05418
622.0,0.05325
623.0,0.05214
624.0,0.05097
625.0,0.05062
626.0,0.05112
627.0,0.05141
628.0,0.04742
629.0,0.04954
630.0,0.04812
631.0,0.04906
632.0,0.04825
633.0,0.04954
634.0,0.04887
635.0,0.04939
636.0,0.0485
637.0,0.04907
638.0,0.04933
639.0,0.04855
640.0,0.04784
641.0,0.04758
642.0,0.04716
643.0,0.04759
644.0,0.04722
645.0,0.04704
646.0,0.04566
647.0,0.04482
648.0,0.0446
649.0,0.04352
650.0,0.04362
651.0,0.0453
652.0,0.04304
653.0,0.04425
654.0,0.04356
655.0,0.04165
656.0,0.03677
657.0,0.0376
658.0,0.04198
659.0,0.04209
660.0,0.04206
661.0,0.04214
662.0,0.04201
663.0,0.04101
664.0,0.04132
665.0,0.04117
666.0,0.04101
667.0,0.04079
668.0,0.04063
669.0,0.04106
670.0,0.04068
671.0,0.04049
672.0,0.03999
673.0,0.04044
674.0,0.04009
675.0,0.03953
676.0,0.03961
677.0,0.03905
678.0,0.039
679.0,0.03819
680.0,0.03832
681.0,0.03788
682.0,0.03765
683.0,0.0374
684.0,0.03702
685.0,0.03714
686.0,0.03675
687.0,0.02318
688.0,0.02752
689.0,0.0275
690.0,0.02887
691.0,0.03046
692.0,0.0316
693.0,0.03116
694.0,0.0307
695.0,0.03197
696.0,0.03184
697.0,0.03393
698.0,0.03324
699.0,0.03213
700.0,0.03158
701.0,0.03109
702.0,0.03122
703.0,0.03112
704.0,0.03205
705.0,0.03193
706.0,0.03179
707.0,0.03168
708.0,0.03159
709.0,0.03152
710.0,0.03134
711.0,0.0312
712.0,0.03102
713.0,0.03054
714.0,0.03048
715.0,0.02932
716.0,0.02919
717.0,0.02471
718.0,0.02239
719.0,0.02024
720.0,0.02118
721.0,0.02359
722.0,0.02735
723.0,0.02506
724.0,0.02219
725.0,0.02171
726.0,0.02274
727.0,0.02297
728.0,0.02136
729.0,0.0222
730.0,0.02349
731.0,0.02226
732.0,0.0239
733.0,0.02538
734.0,0.0259
735.0,0.02522
736.0,0.02508
737.0,0.02505
738.0,0.02542
739.0,0.02479
740.0,0.02535
741.0,0.02499
742.0,0.02491
743.0,0.02541
744.0,0.02522
745.0,0.02511
746.0,0.0251
747.0,0.02504
748.0,0.02486
749.0,0.02445
750.0,0.02432
751.0,0.02397
752.0,0.02397
753.0,0.02397
754.0,0.02391
755.0,0.02366
756.0,0.02355
757.0,0.02348
758.0,0.02308
759.0,0.02244
760.0,0.003157
761.0,0.001611
762.0,0.01042
763.0,0.004869
764.0,0.007523
765.0,0.01026
766.0,0.0129
767.0,0.01662
768.0,0.01947
769.0,0.01988
770.0,0.02057
771.0,0.02068
772.0,0.02064
773.0,0.02068
774.0,0.02047
775.0,0.02022
776.0,0.02038
777.0,0.02001
778.0,0.01978
779.0,0.0197
780.0,0.0195
781.0,0.01943
782.0,0.01946
783.0,0.01904
784.0,0.01905
785.0,0.01882
786.0,0.01894
787.0,0.01849
788.0,0.01815
789.0,0.01805
790.0,0.01742
791.0,0.01755
792.0,0.01735
793.0,0.01697
794.0,0.01726
795.0,0.01745
796.0,0.01675
797.0,0.0167
798.0,0.0172
799.0,0.01699
800.0,0.01659
801.0,0.01645
802.0,0.01632
803.0,0.01612
804.0,0.01607
805.0,0.01597
806.0,0.01638
807.0,0.01609
808.0,0.01604
809.0,0.01564
810.0,0.01541
811.0,0.01534
812.0,0.01476
813.0,0.01434
814.0,0.01233
815.0,0.01219
816.0,0.01118
817.0,0.01137
818.0,0.01086
819.0,0.0123
820.0,0.01144
821.0,0.01364
822.0,0.01313
823.0,0.008405
824.0,0.01257
825.0,0.01313
826.0,0.01249
827.0,0.01324
828.0,0.01091
829.0,0.01227
830.0,0.01203
831.0,0.01203
832.0,0.01156
833.0,0.01243
834.0,0.01186
835.0,0.01314
836.0,0.01242
837.0,0.01306
838.0,0.01257
839.0,0.01276
840.0,0.01299
841.0,0.01273
842.0,0.01273
843.0,0.01269
844.0,0.01244
845.0,0.01283
846.0,0.01272
847.0,0.01243
848.0,0.01229
849.0,0.01188
850.0,0.01134
851.0,0.01193
852.0,0.0118
853.0,0.01131
854.0,0.009713
855.0,0.01064
856.0,0.01157
857.0,0.0118
858.0,0.01166
859.0,0.01162
860.0,0.0116
861.0,0.01148
862.0,0.01162
863.0,0.01185
864.0,0.01122
865.0,0.01107
866.0,0.009914
867.0,0.0103
868.0,0.01117
869.0,0.01089
870.0,0.01115
871.0,0.01096
872.0,0.01087
873.0,0.01081
874.0,0.01063
875.0,0.01037
876.0,0.01043
877.0,0.01049
878.0,0.01056
879.0,0.01035
880.0,0.01009
881.0,0.009889
882.0,0.01006
883.0,0.01006
884.0,0.009965
885.0,0.009995
886.0,0.009467
887.0,0.009545
888.0,0.009634
889.0,0.009721
890.0,0.009574
891.0,0.009531
892.0,0.009197
893.0,0.00883
894.0,0.008418
895.0,0.007838
896.0,0.007261
897.0,0.006069
898.0,0.006686
899.0,0.004853
900.0,0.006852
901.0,0.005122
902.0,0.006146
903.0,0.006149
904.0,0.008014
905.0,0.00766
906.0,0.007088
907.0,0.005528
908.0,0.00565
909.0,0.006199
910.0,0.005324
911.0,0.005723
912.0,0.006004
913.0,0.005337
914.0,0.005275
915.0,0.005771
916.0,0.004739
917.0,0.006246
918.0,0.004845
919.0,0.006322
920.0,0.006394
921.0,0.006697
922.0,0.005847
923.0,0.006418
924.0,0.005961
925.0,0.005786
926.0,0.005849
927.0,0.006626
928.0,0.004571
929.0,0.004099
930.0,0.003085
931.0,0.002894
932.0,0.001981
933.0,0.001561
934.0,0.0007951
935.0,0.001596
936.0,0.0009412
937.0,0.0009495
938.0,0.001188
939.0,0.002708
940.0,0.003342
941.0,0.002416
942.0,0.00284
943.0,0.001754
944.0,0.001864
945.0,0.002453
946.0,0.00114
947.0,0.002439
948.0,0.001719
949.0,0.003386
950.0,0.0007939
951.0,0.00331
952.0,0.001617
953.0,0.002159
954.0,0.002736
955.0,0.002185
956.0,0.002104
957.0,0.00159
958.0,0.00312
959.0,0.002372
960.0,0.002693
961.0,0.003073
962.0,0.002874
963.0,0.003386
964.0,0.003046
965.0,0.003349
966.0,0.003336
967.0,0.0033
968.0,0.004674
969.0,0.004893
970.0,0.004407
971.0,0.005168
972.0,0.004879
973.0,0.004117
974.0,0.003863
975.0,0.00402
976.0,0.003761
977.0,0.004383
978.0,0.004102
979.0,0.004325
980.0,0.004001
981.0,0.004945
982.0,0.004666
983.0,0.004432
984.0,0.005085
985.0,0.004599
986.0,0.005162
987.0,0.005016
988.0,0.004985
989.0,0.005103
990.0,0.004922
991.0,0.00507
992.0,0.005083
993.0,0.004928
994.0,0.005049
995.0,0.005028
996.0,0.004981
997.0,0.004972
998.0,0.004929
999.0,0.004894
1000.0,0.004836
1001.0,0.004885
1002.0,0.004706
1003.0,0.00476
1004.0,0.004618
1005.0,0.004442
1006.0,0.004591
1007.0,0.004673
1008.0,0.004626
1009.0,0.004579
1010.0,0.004539
1011.0,0.004581
1012.0,0.004518
1013.0,0.004537
1014.0,0.004489
1015.0,0.004442
1016.0,0.004404
1017.0,0.004397
1018.0,0.004366
1019.0,0.004247
1020.0,0.004308
1021.0,0.004287
1022.0,0.004233
1023.0,0.004262
1024.0,0.004182
1025.0,0.004232
1026.0,0.004195
1027.0,0.004169
1028.0,0.004145
1029.0,0.004081
1030.0,0.004097
1031.0,0.004063
1032.0,0.004037
1033.0,0.00396
1034.0,0.003945
1035.0,0.003942
1036.0,0.003947
1037.0,0.003868
1038.0,0.003871
1039.0,0.003855
1040.0,0.003825
1041.0,0.003824
1042.0,0.003783
1043.0,0.003757
1044.0,0.003757
1045.0,0.003691
1046.0,0.003636
1047.0,0.003654
1048.0,0.003661
1049.0,0.003634
1050.0,0.003603
1051.0,0.003584
1052.0,0.003555
1053.0,0.003514
1054.0,0.003508
1055.0,0.003496
1056.0,0.003469
1057.0,0.003445
1058.0,0.003347
1059.0,0.003338
1060.0,0.00332
1061.0,0.003303
1062.0,0.003306
1063.0,0.003262
1064.0,0.003289
1065.0,0.00325
1066.0,0.003177
1067.0,0.003205
1068.0,0.003121
1069.0,0.003015
1070.0,0.003103
1071.0,0.003147
1072.0,0.003094
1073.0,0.00304
1074.0,0.003117
1075.0,0.002927
1076.0,0.00309
1077.0,0.00301
1078.0,0.002938
1079.0,0.00301
1080.0,0.002927
1081.0,0.002818
1082.0,0.002871
1083.0,0.002873
1084.0,0.002771
1085.0,0.002887
1086.0,0.00258
1087.0,0.00269
1088.0,0.002814
1089.0,0.002697
1090.0,0.002608
1091.0,0.002767
1092.0,0.002755
1093.0,0.002259
1094.0,0.002496
1095.0,0.002354
1096.0,0.002225
1097.0,0.002647
1098.0,0.002171
1099.0,0.002267
1100.0,0.002065
1101.0,0.002094
1102.0,0.001979
1103.0,0.001941
1104.0,0.001939
1105.0,0.002161
1106.0,0.001555
1107.0,0.002017
1108.0,0.001645
1109.0,0.001645
1110.0,0.001973
1111.0,0.00124
1112.0,0.001618
1113.0,0.000945
1114.0,0.001069
1115.0,0.0008611
1116.0,0.000658
1117.0,0.0002122
1118.0,0.0007212
1119.0,0.0003255
1120.0,0.0004166
1121.0,0.0005711
1122.0,0.0002162
1123.0,0.0003689
1124.0,0.0003056
1125.0,0.0004098
1126.0,0.0001264
1127.0,0.0004643
1128.0,0.0002586
1129.0,0.0002758
1130.0,0.0001733
1131.0,0.000955
1132.0,0.0007201
1133.0,0.0004246
1134.0,9.419e-05
1135.0,3.391e-05
1136.0,0.0003414
1137.0,0.0009148
1138.0,0.0006134
1139.0,0.0009783
1140.0,0.0007887
1141.0,0.0005738
1142.0,0.000672
1143.0,0.001004
1144.0,0.0003023
1145.0,0.0003917
1146.0,0.0004238
1147.0,0.0001321
1148.0,0.0008366
1149.0,0.0006417
1150.0,0.0003212
1151.0,0.0005814
1152.0,0.0007385
1153.0,0.0007188
1154.0,0.0003664
1155.0,0.0009727
1156.0,0.000857
1157.0,0.0009797
1158.0,0.0009646
1159.0,0.001057
1160.0,0.0008746
1161.0,0.00112
1162.0,0.001117
1163.0,0.001594
1164.0,0.001325
1165.0,0.001228
1166.0,0.001219
1167.0,0.001343
1168.0,0.001354
1169.0,0.001394
1170.0,0.00153
1171.0,0.001479
1172.0,0.001508
1173.0,0.00151
1174.0,0.001011
1175.0,0.001469
1176.0,0.001635
1177.0,0.00155
1178.0,0.001103
1179.0,0.001633
1180.0,0.001419
1181.0,0.001469
1182.0,0.0009473
1183.0,0.001444
1184.0,0.001325
1185.0,0.001263
1186.0,0.001543
1187.0,0.00145
1188.0,0.0009503
1189.0,0.001334
1190.0,0.001484
1191.0,0.001388
1192.0,0.001499
1193.0,0.00142
1194.0,0.001469
1195.0,0.001372
1196.0,0.001308
1197.0,0.001467
1198.0,0.001319
1199.0,0.001087
1200.0,0.001376
1201.0,0.001312
1202.0,0.001302
1203.0,0.001295
1204.0,0.001098
1205.0,0.00133
1206.0,0.001493
1207.0,0.001282
1208.0,0.001267
1209.0,0.001289
1210.0,0.001348
1211.0,0.001267
1212.0,0.001242
1213.0,0.001408
1214.0,0.00127
1215.0,0.001237
1216.0,0.00139
1217.0,0.001342
1218.0,0.001369
1219.0,0.001346
1220.0,0.001362
1221.0,0.001375
1222.0,0.001329
1223.0,0.001311
1224.0,0.001296
1225.0,0.001349
1226.0,0.001356
1227.0,0.001232
1228.0,0.001357
1229.0,0.001344
1230.0,0.001314
1231.0,0.001355
1232.0,0.001342
1233.0,0.001282
1234.0,0.001343
1235.0,0.001329
1236.0,0.001335
1237.0,0.001309
1238.0,0.001322
1239.0,0.001301
1240.0,0.001302
1241.0,0.001289
1242.0,0.001284
1243.0,0.001269
1244.0,0.001273
1245.0,0.001275
1246.0,0.001264
1247.0,0.001254
1248.0,0.001248
1249.0,0.001249
1250.0,0.001237
1251.0,0.001215
1252.0,0.001214
1253.0,0.001197
1254.0,0.001179
1255.0,0.0012
1256.0,0.001157
1257.0,0.001145
1258.0,0.001168
1259.0,0.001113
1260.0,0.001117
1261.0,0.00104
1262.0,0.001
1263.0,0.0009988
1264.0,0.0009067
1265.0,0.000987
1266.0,0.0009395
1267.0,0.0009582
1268.0,0.0008977
1269.0,0.0005094
1270.0,0.000945
1271.0,0.001009
1272.0,0.001011
1273.0,0.0009958
1274.0,0.0009973
1275.0,0.001011
1276.0,0.001019
1277.0,0.001025
1278.0,0.001046
1279.0,0.001033
1280.0,0.001017
1281.0,0.000969
1282.0,0.0009341
1283.0,0.001002
1284.0,0.001022
1285.0,0.001026
1286.0,0.001039
1287.0,0.001016
1288.0,0.001013
1289.0,0.0009715
1290.0,0.0009984
1291.0,0.00101
1292.0,0.0009332
1293.0,0.0009807
1294.0,0.0009698
1295.0,0.0009601
1296.0,0.0009053
1297.0,0.0008459
1298.0,0.0009214
1299.0,0.0009647
1300.0,0.0007884
1301.0,0.0008157
1302.0,0.0009082
1303.0,0.0007719
1304.0,0.0006365
1305.0,0.0008778
1306.0,0.0008751
1307.0,0.0006472
1308.0,0.0007613
1309.0,0.0008595
1310.0,0.0006275
1311.0,0.0007183
1312.0,0.0006961
1313.0,0.0006767
1314.0,0.0005911
1315.0,0.0005828
1316.0,0.0006953
1317.0,0.0006499
1318.0,0.0007157
1319.0,0.0005321
1320.0,0.0005122
1321.0,0.0006109
1322.0,0.0006153
1323.0,0.0004392
1324.0,0.0005127
1325.0,0.0006648
1326.0,0.0005536
1327.0,0.000522
1328.0,0.0004383
1329.0,0.0003136
1330.0,0.0004225
1331.0,0.0002354
1332.0,0.0002443
1333.0,0.0003539
1334.0,0.0002934
1335.0,0.0004222
1336.0,0.0003205
1337.0,0.0002773
1338.0,0.0003024
1339.0,0.0003009
1340.0,0.0002909
1341.0,0.0002807
1342.0,0.000296
1343.0,0.0001878
1344.0,0.0001067
1345.0,0.000159
1346.0,7.276e-05
1347.0,7.362e-05
1348.0,4.204e-06
1349.0,1.56e-05
1350.0,1.624e-05
1351.0,3.763e-06
1352.0,9.945e-07
1353.0,5.006e-08
1354.0,1.725e-07
1355.0,1.382e-09
1356.0,2.423e-08
1357.0,3.682e-08
1358.0,1.623e-09
1359.0,2.044e-10
1360.0,7.388e-10
1361.0,8.262e-13
1362.0,2.26e-15
1363.0,9.933e-10
1364.0,4.1e-10
1365.0,7.89e-16
