interpolation:linear
wavelength,value
280.0,3.5569999999999997e-23
280.5,1.202e-21
281.0,6.531e-21
281.5,2.134e-19
282.0,4.746e-19
282.5,1.082e-18
283.0,3.314e-18
283.5,5.374e-18
284.0,8.776e-17
284.5,2.578e-16
285.0,9.098e-16
285.5,3.286e-15
286.0,1.256e-14
286.5,5.273e-14
287.0,1.472e-13
287.5,5.552e-13
288.0,1.627e-12
288.5,4.607e-12
289.0,1.185e-11
289.5,3.511e-11
290.0,9.692e-11
290.5,1.977e-10
291.0,4.255e-10
291.5,1.228e-09
292.0,2.518e-09
292.5,3.498e-09
293.0,7.417e-09
293.5,1.78e-08
294.0,2.775e-08
294.5,3.278e-08
295.0,5.506e-08
295.5,9.261e-08
296.0,1.726e-07
296.5,2.326e-07
297.0,3.048e-07
297.5,7.767e-07
298.0,1.168e-06
298.5,1.13e-06
299.0,2.393e-06
299.5,3.689e-06
300.0,3.882e-06
300.5,5.362e-06
301.0,8.959e-06
301.5,1.323e-05
302.0,1.086e-05
302.5,2.055e-05
303.0,3.507e-05
303.5,4.315e-05
304.0,4.085e-05
304.5,6.254e-05
305.0,9.937e-05
305.5,0.0001179
306.0,0.0001157
306.5,0.0001478
307.0,0.0002335
307.5,0.0003318
308.0,0.0003542
308.5,0.0004332
309.0,0.0004378
309.5,0.0006188
310.0,0.0006859
310.5,0.001166
311.0,0.001587
311.5,0.001586
312.0,0.001894
312.5,0.002593
313.0,0.002993
313.5,0.00274
314.0,0.003953
314.5,0.004246
315.0,0.005771
315.5,0.004391
316.0,0.004485
316.5,0.007378
317.0,0.00913
317.5,0.009128
318.0,0.007814
318.5,0.01162
319.0,0.0151
319.5,0.01061
320.0,0.01252
320.5,0.01886
321.0,0.01988
321.5,0.01937
322.0,0.0172
322.5,0.01509
323.0,0.0169
323.5,0.02556
324.0,0.03052
324.5,0.02915
325.0,0.02163
325.5,0.03062
326.0,0.04267
326.5,0.04602
327.0,0.04457
327.5,0.04151
328.0,0.03333
328.5,0.0396
329.0,0.05209
329.5,0.0608
330.0,0.05987
330.5,0.04448
331.0,0.04415
331.5,0.04736
332.0,0.05528
332.5,0.05659
333.0,0.05524
333.5,0.04715
334.0,0.0478
334.5,0.05883
335.0,0.05736
335.5,0.06839
336.0,0.04728
336.5,0.05314
337.0,0.04237
337.5,0.05211
338.0,0.05366
338.5,0.06366
339.0,0.06316
339.5,0.06058
340.0,0.06924
340.5,0.06269
341.0,0.06253
341.5,0.05773
342.0,0.06905
342.5,0.06467
343.0,0.07077
343.5,0.06641
344.0,0.04789
344.5,0.04926
345.0,0.06559
345.5,0.06712
346.0,0.05712
346.5,0.06472
347.0,0.06916
347.5,0.05581
348.0,0.06384
348.5,0.06392
349.0,0.05932
349.5,0.05864
350.0,0.0725
350.5,0.0764
351.0,0.06803
351.5,0.0657
352.0,0.07074
352.5,0.0553
353.0,0.06972
353.5,0.07457
354.0,0.07741
354.5,0.07843
355.0,0.07802
355.5,0.07047
356.0,0.07371
356.5,0.06288
357.0,0.05189
357.5,0.06349
358.0,0.05028
358.5,0.04294
359.0,0.05997
359.5,0.07621
360.0,0.08075
360.5,0.06452
361.0,0.0588
361.5,0.06767
362.0,0.05848
362.5,0.08086
363.0,0.07256
363.5,0.06677
364.0,0.08157
364.5,0.06964
365.0,0.07084
365.5,0.08883
366.0,0.09403
366.5,0.08827
367.0,0.08588
367.5,0.08903
368.0,0.07782
368.5,0.07842
369.0,0.0846
369.5,0.09009
370.0,0.09594
370.5,0.07439
371.0,0.0794
371.5,0.09922
372.0,0.06578
372.5,0.07879
373.0,0.08005
373.5,0.05202
374.0,0.0755
374.5,0.06246
375.0,0.06064
375.5,0.09043
376.0,0.07488
376.5,0.0775
377.0,0.08196
377.5,0.09578
378.0,0.1037
378.5,0.09788
379.0,0.08067
379.5,0.07359
380.0,0.07641
380.5,0.09243
381.0,0.09251
381.5,0.07324
382.0,0.06496
382.5,0.0553
383.0,0.05113
383.5,0.04919
384.0,0.05419
384.5,0.0796
385.0,0.07884
385.5,0.07333
386.0,0.06272
386.5,0.08227
387.0,0.06827
387.5,0.07658
388.0,0.0706
388.5,0.06969
389.0,0.07513
389.5,0.09086
390.0,0.09106
390.5,0.08369
391.0,0.09837
391.5,0.1002
392.0,0.08426
392.5,0.07533
393.0,0.04186
393.5,0.03038
394.0,0.06173
394.5,0.07838
395.0,0.09549
395.5,0.09686
396.0,0.08385
396.5,0.04895
397.0,0.03668
397.5,0.07449
398.0,0.1042
398.5,0.1075
399.0,0.1162
399.5,0.1157
400.0,0.1199
401.0,0.1181
402.0,0.1242
403.0,0.1176
404.0,0.1154
405.0,0.115
406.0,0.1127
407.0,0.1105
408.0,0.1144
409.0,0.122
410.0,0.1062
411.0,0.1146
412.0,0.1227
413.0,0.1193
414.0,0.1203
415.0,0.1201
416.0,0.1217
417.0,0.1183
418.0,0.1156
419.0,0.1167
420.0,0.1158
421.0,0.1206
422.0,0.1141
423.0,0.1109
424.0,0.1168
425.0,0.116
426.0,0.1126
427.0,0.1101
428.0,0.1069
429.0,0.1009
430.0,0.08791
431.0,0.08672
432.0,0.1114
433.0,0.1115
434.0,0.1031
435.0,0.1072
436.0,0.1203
437.0,0.1182
438.0,0.1071
439.0,0.1101
440.0,0.113
441.0,0.1164
442.0,0.1241
443.0,0.1203
444.0,0.1225
445.0,0.1194
446.0,0.1136
447.0,0.1223
448.0,0.1235
449.0,0.1233
450.0,0.126
451.0,0.13
452.0,0.1247
453.0,0.1168
454.0,0.1214
455.0,0.1214
456.0,0.1236
457.0,0.1248
458.0,0.1196
459.0,0.1181
460.0,0.1175
461.0,0.1194
462.0,0.1198
463.0,0.1186
464.0,0.1163
465.0,0.1146
466.0,0.1152
467.0,0.1125
468.0,0.113
469.0,0.1128
470.0,0.1086
471.0,0.1079
472.0,0.1132
473.0,0.1111
474.0,0.1106
475.0,0.1108
476.0,0.1066
477.0,0.1059
478.0,0.1079
479.0,0.1062
480.0,0.1054
481.0,0.1065
482.0,0.1063
483.0,0.1046
484.0,0.1021
485.0,0.09705
486.0,0.08463
487.0,0.08835
488.0,0.09638
489.0,0.09603
490.0,0.1003
491.0,0.09796
492.0,0.09195
493.0,0.09444
494.0,0.09488
495.0,0.09514
496.0,0.09509
497.0,0.09578
498.0,0.09045
499.0,0.09067
500.0,0.08711
501.0,0.08459
502.0,0.08244
503.0,0.08487
504.0,0.08185
505.0,0.08425
506.0,0.08649
507.0,0.08195
508.0,0.07916
509.0,0.08115
510.0,0.08046
511.0,0.08225
512.0,0.08267
513.0,0.07773
514.0,0.07665
515.0,0.07535
516.0,0.07465
517.0,0.0659
518.0,0.06884
519.0,0.07167
520.0,0.07368
521.0,0.07375
522.0,0.07314
523.0,0.07125
524.0,0.07304
525.0,0.0731
526.0,0.06911
527.0,0.06439
528.0,0.06736
529.0,0.0703
530.0,0.06864
531.0,0.06901
532.0,0.06609
533.0,0.0637
534.0,0.06518
535.0,0.06625
536.0,0.0665
537.0,0.06353
538.0,0.06425
539.0,0.06327
540.0,0.06021
541.0,0.06008
542.0,0.06141
543.0,0.06027
544.0,0.06082
545.0,0.0602
546.0,0.05999
547.0,0.05955
548.0,0.05844
549.0,0.05823
550.0,0.05851
551.0,0.05739
552.0,0.05738
553.0,0.05594
554.0,0.05684
555.0,0.0565
556.0,0.05531
557.0,0.05311
558.0,0.05219
559.0,0.05069
560.0,0.05081
561.0,0.05095
562.0,0.05006
563.0,0.05091
564.0,0.04909
565.0,0.04824
566.0,0.04714
567.0,0.04761
568.0,0.04674
569.0,0.04517
570.0,0.04482
571.0,0.04422
572.0,0.04485
573.0,0.04502
574.0,0.04459
575.0,0.0435
576.0,0.0429
577.0,0.0432
578.0,0.04241
579.0,0.04247
580.0,0.0432
581.0,0.04332
582.0,0.04403
583.0,0.044
584.0,0.04424
585.0,0.04297
586.0,0.04187
587.0,0.04252
588.0,0.04112
589.0,0.03597
590.0,0.0374
591.0,0.03946
592.0,0.03857
593.0,0.03892
594.0,0.03826
595.0,0.03689
596.0,0.03822
597.0,0.03742
598.0,0.03705
599.0,0.03679
600.0,0.03661
601.0,0.0361
602.0,0.03565
603.0,0.03607
604.0,0.03651
605.0,0.0362
606.0,0.03597
607.0,0.03626
608.0,0.0358
609.0,0.03581
610.0,0.03551
611.0,0.03565
612.0,0.03549
613.0,0.03499
614.0,0.03446
615.0,0.03515
616.0,0.03392
617.0,0.03378
618.0,0.035
619.0,0.03455
620.0,0.03466
621.0,0.03456
622.0,0.03403
623.0,0.03338
624.0,0.03269
625.0,0.03251
626.0,0.03288
627.0,0.03308
628.0,0.03022
629.0,0.03188
630.0,0.03102
631.0,0.03181
632.0,0.03138
633.0,0.03232
634.0,0.03199
635.0,0.03243
636.0,0.03194
637.0,0.03241
638.0,0.03269
639.0,0.03226
640.0,0.03189
641.0,0.0318
642.0,0.03161
643.0,0.03196
644.0,0.03179
645.0,0.03172
646.0,0.0308
647.0,0.03018
648.0,0.03012
649.0,0.02941
650.0,0.02966
651.0,0.03087
652.0,0.02928
653.0,0.03027
654.0,0.02984
655.0,0.02853
656.0,0.02527
657.0,0.02588
658.0,0.02898
659.0,0.02912
660.0,0.02916
661.0,0.02928
662.0,0.02921
663.0,0.02855
664.0,0.02885
665.0,0.02881
666.0,0.02876
667.0,0.02867
668.0,0.02862
669.0,0.02898
670.0,0.02876
671.0,0.02868
672.0,0.02836
673.0,0.02873
674.0,0.02853
675.0,0.02818
676.0,0.02828
677.0,0.02792
678.0,0.02792
679.0,0.02738
680.0,0.0275
681.0,0.02721
682.0,0.02707
683.0,0.02691
684.0,0.02666
685.0,0.02679
686.0,0.02652
687.0,0.01593
688.0,0.01909
689.0,0.01911
690.0,0.0202
691.0,0.02151
692.0,0.02252
693.0,0.02224
694.0,0.02204
695.0,0.02312
696.0,0.02308
697.0,0.02474
698.0,0.02426
699.0,0.02337
700.0,0.02298
701.0,0.02258
702.0,0.02273
703.0,0.02271
704.0,0.02347
705.0,0.0234
706.0,0.02332
707.0,0.02327
708.0,0.02321
709.0,0.02323
710.0,0.02308
711.0,0.023
712.0,0.02289
713.0,0.02251
714.0,0.0225
715.0,0.02159
716.0,0.02149
717.0,0.01789
718.0,0.01629
719.0,0.01478
720.0,0.01539
721.0,0.01726
722.0,0.02014
723.0,0.01844
724.0,0.01628
725.0,0.0159
726.0,0.01663
727.0,0.01691
728.0,0.01566
729.0,0.01638
730.0,0.01723
731.0,0.01636
732.0,0.01768
733.0,0.01885
734.0,0.01929
735.0,0.01876
736.0,0.01864
737.0,0.01863
738.0,0.01902
739.0,0.01857
740.0,0.01902
741.0,0.01877
742.0,0.01873
743.0,0.01912
744.0,0.01899
745.0,0.01892
746.0,0.01891
747.0,0.01887
748.0,0.01875
749.0,0.01845
750.0,0.01837
751.0,0.01812
752.0,0.01814
753.0,0.01816
754.0,0.01813
755.0,0.01796
756.0,0.01789
757.0,0.01784
758.0,0.01753
759.0,0.01697
760.0,0.002488
761.0,0.001324
762.0,0.007509
763.0,0.003711
764.0,0.005537
765.0,0.007403
766.0,0.009264
767.0,0.0121
768.0,0.01451
769.0,0.01493
770.0,0.01558
771.0,0.01574
772.0,0.01572
773.0,0.01575
774.0,0.0156
775.0,0.0154
776.0,0.01551
777.0,0.01522
778.0,0.01504
779.0,0.01498
780.0,0.01483
781.0,0.01479
782.0,0.01483
783.0,0.01452
784.0,0.01454
785.0,0.01437
786.0,0.01447
787.0,0.01408
788.0,0.01381
789.0,0.01375
790.0,0.01322
791.0,0.01339
792.0,0.01325
793.0,0.01297
794.0,0.01325
795.0,0.01338
796.0,0.01276
797.0,0.01271
798.0,0.01318
799.0,0.01301
800.0,0.01269
801.0,0.01256
802.0,0.01246
803.0,0.01229
804.0,0.01227
805.0,0.01221
806.0,0.01257
807.0,0.01234
808.0,0.01229
809.0,0.01194
810.0,0.01175
811.0,0.01166
812.0,0.01114
813.0,0.01083
814.0,0.009251
815.0,0.009165
816.0,0.008419
817.0,0.008544
818.0,0.008151
819.0,0.009258
820.0,0.008624
821.0,0.01037
822.0,0.009976
823.0,0.006343
824.0,0.009511
825.0,0.01004
826.0,0.009512
827.0,0.01012
828.0,0.008252
829.0,0.009371
830.0,0.009196
831.0,0.00919
832.0,0.008814
833.0,0.009494
834.0,0.009043
835.0,0.01011
836.0,0.009477
837.0,0.01005
838.0,0.009628
839.0,0.009808
840.0,0.009998
841.0,0.009778
842.0,0.009804
843.0,0.009809
844.0,0.0096
845.0,0.009915
846.0,0.009835
847.0,0.00962
848.0,0.009489
849.0,0.009173
850.0,0.008745
851.0,0.009182
852.0,0.009082
853.0,0.008716
854.0,0.007477
855.0,0.008206
856.0,0.008924
857.0,0.009106
858.0,0.009
859.0,0.008983
860.0,0.008972
861.0,0.008889
862.0,0.009003
863.0,0.009185
864.0,0.008696
865.0,0.00859
866.0,0.007695
867.0,0.008
868.0,0.008672
869.0,0.008461
870.0,0.008668
871.0,0.008516
872.0,0.008453
873.0,0.008402
874.0,0.008266
875.0,0.008062
876.0,0.008109
877.0,0.008159
878.0,0.008208
879.0,0.008048
880.0,0.007842
881.0,0.00768
882.0,0.007809
883.0,0.007812
884.0,0.007737
885.0,0.007758
886.0,0.007328
887.0,0.007402
888.0,0.007464
889.0,0.007546
890.0,0.007411
891.0,0.007389
892.0,0.007102
893.0,0.006803
894.0,0.006435
895.0,0.00594
896.0,0.005517
897.0,0.004597
898.0,0.005053
899.0,0.00369
900.0,0.005202
901.0,0.003862
902.0,0.004648
903.0,0.004633
904.0,0.006118
905.0,0.005846
906.0,0.005404
907.0,0.004176
908.0,0.004286
909.0,0.004694
910.0,0.004017
911.0,0.00436
912.0,0.004543
913.0,0.004025
914.0,0.003994
915.0,0.004322
916.0,0.003599
917.0,0.004702
918.0,0.00366
919.0,0.004782
920.0,0.004903
921.0,0.005093
922.0,0.004434
923.0,0.00489
924.0,0.004486
925.0,0.004368
926.0,0.00439
927.0,0.004985
928.0,0.003405
929.0,0.003049
930.0,0.00231
931.0,0.002171
932.0,0.001513
933.0,0.001211
934.0,0.0006448
935.0,0.001236
936.0,0.0007538
937.0,0.0007603
938.0,0.0009355
939.0,0.00203
940.0,0.00248
941.0,0.001811
942.0,0.00211
943.0,0.001344
944.0,0.001433
945.0,0.001842
946.0,0.0008968
947.0,0.001828
948.0,0.001326
949.0,0.002494
950.0,0.0006406
951.0,0.002437
952.0,0.001246
953.0,0.001634
954.0,0.00204
955.0,0.001647
956.0,0.001631
957.0,0.001223
958.0,0.002355
959.0,0.001798
960.0,0.002018
961.0,0.002306
962.0,0.002168
963.0,0.002547
964.0,0.002303
965.0,0.002511
966.0,0.002505
967.0,0.002474
968.0,0.003572
969.0,0.003688
970.0,0.003339
971.0,0.00395
972.0,0.00372
973.0,0.003101
974.0,0.002921
975.0,0.003047
976.0,0.002822
977.0,0.003348
978.0,0.003105
979.0,0.003275
980.0,0.003042
981.0,0.003779
982.0,0.003552
983.0,0.003369
984.0,0.003916
985.0,0.003492
986.0,0.003997
987.0,0.003868
988.0,0.003849
989.0,0.003966
990.0,0.00379
991.0,0.00393
992.0,0.003945
993.0,0.003807
994.0,0.003923
995.0,0.003912
996.0,0.003873
997.0,0.00387
998.0,0.003835
999.0,0.00381
1000.0,0.003758
1001.0,0.003803
1002.0,0.003635
1003.0,0.003705
1004.0,0.003587
1005.0,0.00346
1006.0,0.003573
1007.0,0.003639
1008.0,0.003598
1009.0,0.003556
1010.0,0.003523
1011.0,0.003568
1012.0,0.003514
1013.0,0.003535
1014.0,0.003498
1015.0,0.00346
1016.0,0.00343
1017.0,0.003424
1018.0,0.003404
1019.0,0.0033
1020.0,0.003357
1021.0,0.003343
1022.0,0.003297
1023.0,0.003319
1024.0,0.003246
1025.0,0.003298
1026.0,0.003267
1027.0,0.003248
1028.0,0.003228
1029.0,0.003176
1030.0,0.003192
1031.0,0.003165
1032.0,0.003146
1033.0,0.003086
1034.0,0.003075
1035.0,0.003073
1036.0,0.003075
1037.0,0.003014
1038.0,0.003016
1039.0,0.003002
1040.0,0.002978
1041.0,0.002977
1042.0,0.002945
1043.0,0.002924
1044.0,0.002923
1045.0,0.002871
1046.0,0.002827
1047.0,0.002841
1048.0,0.002845
1049.0,0.002823
1050.0,0.002798
1051.0,0.002782
1052.0,0.002759
1053.0,0.002726
1054.0,0.00272
1055.0,0.002709
1056.0,0.002687
1057.0,0.002666
1058.0,0.002589
1059.0,0.00258
1060.0,0.002566
1061.0,0.002552
1062.0,0.002553
1063.0,0.002517
1064.0,0.002539
1065.0,0.002505
1066.0,0.002451
1067.0,0.002472
1068.0,0.002405
1069.0,0.002326
1070.0,0.002392
1071.0,0.002434
1072.0,0.002387
1073.0,0.002347
1074.0,0.002414
1075.0,0.002254
1076.0,0.002392
1077.0,0.002324
1078.0,0.002263
1079.0,0.002335
1080.0,0.002259
1081.0,0.002167
1082.0,0.00222
1083.0,0.002227
1084.0,0.002129
1085.0,0.002229
1086.0,0.001979
1087.0,0.00207
1088.0,0.002179
1089.0,0.002071
1090.0,0.002002
1091.0,0.00214
1092.0,0.002132
1093.0,0.001721
1094.0,0.001927
1095.0,0.001786
1096.0,0.001684
1097.0,0.002047
1098.0,0.001636
1099.0,0.00171
1100.0,0.001555
1101.0,0.001581
1102.0,0.001487
1103.0,0.001454
1104.0,0.001454
1105.0,0.001627
1106.0,0.001154
1107.0,0.001518
1108.0,0.001228
1109.0,0.001229
1110.0,0.001474
1111.0,0.0009256
1112.0,0.001209
1113.0,0.0007131
1114.0,0.0007973
1115.0,0.0006513
1116.0,0.0005028
1117.0,0.0001756
1118.0,0.0005463
1119.0,0.0002605
1120.0,0.0003265
1121.0,0.0004359
1122.0,0.0001777
1123.0,0.0002918
1124.0,0.0002451
1125.0,0.0003209
1126.0,0.0001074
1127.0,0.0003601
1128.0,0.0002095
1129.0,0.000222
1130.0,0.0001445
1131.0,0.0006996
1132.0,0.0005394
1133.0,0.0003301
1134.0,8.118e-05
1135.0,3.041e-05
1136.0,0.0002699
1137.0,0.0006692
1138.0,0.0004638
1139.0,0.0007245
1140.0,0.0005882
1141.0,0.0004362
1142.0,0.0005053
1143.0,0.0007352
1144.0,0.0002413
1145.0,0.0003051
1146.0,0.0003281
1147.0,0.0001114
1148.0,0.0006196
1149.0,0.0004834
1150.0,0.0002561
1151.0,0.00044
1152.0,0.0005498
1153.0,0.0005407
1154.0,0.0002873
1155.0,0.0007165
1156.0,0.0006345
1157.0,0.0007292
1158.0,0.0007183
1159.0,0.0007807
1160.0,0.000658
1161.0,0.0008383
1162.0,0.0008356
1163.0,0.001199
1164.0,0.0009956
1165.0,0.0009165
1166.0,0.0009212
1167.0,0.001013
1168.0,0.00102
1169.0,0.001048
1170.0,0.001157
1171.0,0.001121
1172.0,0.001152
1173.0,0.001143
1174.0,0.0007649
1175.0,0.001122
1176.0,0.001264
1177.0,0.001186
1178.0,0.0008436
1179.0,0.00126
1180.0,0.001083
1181.0,0.001118
1182.0,0.0007207
1183.0,0.001101
1184.0,0.001009
1185.0,0.0009572
1186.0,0.001182
1187.0,0.001105
1188.0,0.0007148
1189.0,0.001018
1190.0,0.001142
1191.0,0.001051
1192.0,0.001154
1193.0,0.00109
1194.0,0.001129
1195.0,0.001044
1196.0,0.0009914
1197.0,0.001128
1198.0,0.001017
1199.0,0.0008224
1200.0,0.001054
1201.0,0.0009977
1202.0,0.001001
1203.0,0.0009835
1204.0,0.0008364
1205.0,0.001025
1206.0,0.001155
1207.0,0.0009791
1208.0,0.0009732
1209.0,0.0009901
1210.0,0.00104
1211.0,0.0009727
1212.0,0.0009366
1213.0,0.001081
1214.0,0.000961
1215.0,0.0009377
1216.0,0.00107
1217.0,0.00103
1218.0,0.001054
1219.0,0.001032
1220.0,0.001049
1221.0,0.001063
1222.0,0.001027
1223.0,0.00101
1224.0,0.0009919
1225.0,0.00104
1226.0,0.001051
1227.0,0.0009426
1228.0,0.001053
1229.0,0.001041
1230.0,0.001016
1231.0,0.001055
1232.0,0.001045
1233.0,0.000988
1234.0,0.001049
1235.0,0.001035
1236.0,0.001042
1237.0,0.001018
1238.0,0.001032
1239.0,0.001015
1240.0,0.001017
1241.0,0.001004
1242.0,0.001003
1243.0,0.0009916
1244.0,0.0009936
1245.0,0.0009956
1246.0,0.0009869
1247.0,0.0009784
1248.0,0.0009719
1249.0,0.0009743
1250.0,0.0009636
1251.0,0.000945
1252.0,0.0009463
1253.0,0.0009283
1254.0,0.0009107
1255.0,0.0009344
1256.0,0.000892
1257.0,0.0008817
1258.0,0.0009057
1259.0,0.0008507
1260.0,0.0008549
1261.0,0.0007828
1262.0,0.0007468
1263.0,0.0007455
1264.0,0.0006658
1265.0,0.0007366
1266.0,0.0006942
1267.0,0.0007128
1268.0,0.0006607
1269.0,0.0003665
1270.0,0.0007005
1271.0,0.0007607
1272.0,0.0007624
1273.0,0.0007496
1274.0,0.0007529
1275.0,0.0007651
1276.0,0.0007743
1277.0,0.0007827
1278.0,0.0008037
1279.0,0.0007944
1280.0,0.0007817
1281.0,0.0007479
1282.0,0.0007254
1283.0,0.0007773
1284.0,0.0007922
1285.0,0.0007963
1286.0,0.0008083
1287.0,0.0007863
1288.0,0.0007861
1289.0,0.0007455
1290.0,0.0007747
1291.0,0.0007856
1292.0,0.000713
1293.0,0.0007601
1294.0,0.0007514
1295.0,0.0007376
1296.0,0.0006895
1297.0,0.0006411
1298.0,0.0007072
1299.0,0.0007487
1300.0,0.0005992
1301.0,0.0006203
1302.0,0.0006982
1303.0,0.0005874
1304.0,0.0004769
1305.0,0.0006745
1306.0,0.0006691
1307.0,0.0004887
1308.0,0.0005821
1309.0,0.0006532
1310.0,0.0004724
1311.0,0.0005471
1312.0,0.0005296
1313.0,0.00051
1314.0,0.0004446
1315.0,0.0004356
1316.0,0.0005268
1317.0,0.000492
1318.0,0.0005446
1319.0,0.0003984
1320.0,0.0003863
1321.0,0.0004604
1322.0,0.0004599
1323.0,0.0003271
1324.0,0.0003855
1325.0,0.0005007
1326.0,0.0004158
1327.0,0.0003914
1328.0,0.0003289
1329.0,0.0002355
1330.0,0.0003134
1331.0,0.0001793
1332.0,0.0001857
1333.0,0.000261
1334.0,0.0002244
1335.0,0.0003125
1336.0,0.0002397
1337.0,0.0002104
1338.0,0.000227
1339.0,0.0002258
1340.0,0.0002206
1341.0,0.0002101
1342.0,0.000221
1343.0,0.0001441
1344.0,8.591e-05
