interpolation:linear
wavelength,value
280.0,8.808999999999999e-22
280.5,2.844e-20
281.0,1.515e-19
281.5,5.267e-19
282.0,9.103e-19
282.5,2.256e-18
283.0,7.103e-18
283.5,1.153e-17
284.0,1.87e-16
284.5,5.414e-16
285.0,1.032e-15
285.5,5.003e-15
286.0,2.002e-14
286.5,8.885e-14
287.0,2.527e-13
287.5,9.636e-13
288.0,3.035e-12
288.5,9.414e-12
289.0,2.545e-11
289.5,7.762e-11
290.0,2.166e-10
290.5,4.43e-10
291.0,9.534e-10
291.5,2.741e-09
292.0,5.881e-09
292.5,8.373e-09
293.0,1.827e-08
293.5,4.538e-08
294.0,7.189e-08
294.5,9.482e-08
295.0,1.62e-07
295.5,3.485e-07
296.0,6.319e-07
296.5,9.043e-07
297.0,1.25e-06
297.5,3.484e-06
298.0,5.709e-06
298.5,5.943e-06
299.0,1.361e-05
299.5,2.45e-05
300.0,2.841e-05
300.5,4.378e-05
301.0,8.938e-05
301.5,0.0001632
302.0,0.0001516
302.5,0.0002996
303.0,0.000547
303.5,0.0006989
304.0,0.0006694
304.5,0.001056
305.0,0.001736
305.5,0.002095
306.0,0.002066
306.5,0.002659
307.0,0.004266
307.5,0.006125
308.0,0.006536
308.5,0.008013
309.0,0.0082
309.5,0.009691
310.0,0.009875
310.5,0.01609
311.0,0.02042
311.5,0.01978
312.0,0.02037
312.5,0.02527
313.0,0.02765
313.5,0.02648
314.0,0.03393
314.5,0.03116
315.0,0.0411
315.5,0.03364
316.0,0.03023
316.5,0.04453
317.0,0.05509
317.5,0.05669
318.0,0.04497
318.5,0.05788
319.0,0.06989
319.5,0.05498
320.0,0.06591
320.5,0.08567
321.0,0.07904
321.5,0.07585
322.0,0.07733
322.5,0.0672
323.0,0.06854
323.5,0.08609
324.0,0.1006
324.5,0.1008
325.0,0.08561
325.5,0.1123
326.0,0.1375
326.5,0.1391
327.0,0.1375
327.5,0.1316
328.0,0.1149
328.5,0.1229
329.0,0.1493
329.5,0.17
330.0,0.1702
330.5,0.1338
331.0,0.1353
331.5,0.1385
332.0,0.1516
332.5,0.1507
333.0,0.1491
333.5,0.1329
334.0,0.1355
334.5,0.158
335.0,0.1493
335.5,0.1758
336.0,0.1213
336.5,0.1394
337.0,0.1133
337.5,0.1402
338.0,0.1381
338.5,0.1606
339.0,0.1581
339.5,0.1519
340.0,0.1763
340.5,0.1587
341.0,0.1553
341.5,0.1416
342.0,0.1686
342.5,0.1571
343.0,0.1726
343.5,0.1623
344.0,0.119
344.5,0.1209
345.0,0.1586
345.5,0.1612
346.0,0.1364
346.5,0.1539
347.0,0.1649
347.5,0.133
348.0,0.1509
348.5,0.1502
349.0,0.1389
349.5,0.1371
350.0,0.169
350.5,0.1777
351.0,0.1584
351.5,0.1538
352.0,0.1644
352.5,0.1277
353.0,0.1603
353.5,0.1708
354.0,0.1768
354.5,0.1787
355.0,0.1775
355.5,0.1598
356.0,0.1667
356.5,0.1419
357.0,0.1168
357.5,0.1426
358.0,0.1126
358.5,0.09592
359.0,0.1337
359.5,0.1699
360.0,0.1795
360.5,0.143
361.0,0.1299
361.5,0.1491
362.0,0.1285
362.5,0.1773
363.0,0.1587
363.5,0.1457
364.0,0.1776
364.5,0.1513
365.0,0.1536
365.5,0.1922
366.0,0.203
366.5,0.1901
367.0,0.1845
367.5,0.1908
368.0,0.1664
368.5,0.1674
369.0,0.1802
369.5,0.1914
370.0,0.2034
370.5,0.1573
371.0,0.1676
371.5,0.2089
372.0,0.1382
372.5,0.1652
373.0,0.1675
373.5,0.1086
374.0,0.1573
374.5,0.1298
375.0,0.1258
375.5,0.1871
376.0,0.1546
376.5,0.1597
377.0,0.1685
377.5,0.1965
378.0,0.2123
378.5,0.1999
379.0,0.1644
379.5,0.1496
380.0,0.155
380.5,0.1871
381.0,0.1868
381.5,0.1476
382.0,0.1306
382.5,0.1109
383.0,0.1023
383.5,0.09823
384.0,0.108
384.5,0.1583
385.0,0.1564
385.5,0.1452
386.0,0.1239
386.5,0.1622
387.0,0.1343
387.5,0.1503
388.0,0.1383
388.5,0.1362
389.0,0.1465
389.5,0.1769
390.0,0.1769
390.5,0.1622
391.0,0.1903
391.5,0.1934
392.0,0.1623
392.5,0.1448
393.0,0.08028
393.5,0.05815
394.0,0.1179
394.5,0.1494
395.0,0.1817
395.5,0.1839
396.0,0.1589
396.5,0.09257
397.0,0.06922
397.5,0.1403
398.0,0.1957
398.5,0.2016
399.0,0.2176
399.5,0.2161
400.0,0.2236
401.0,0.2197
402.0,0.2301
403.0,0.217
404.0,0.2122
405.0,0.2107
406.0,0.2057
407.0,0.2009
408.0,0.2072
409.0,0.2203
410.0,0.1912
411.0,0.2056
412.0,0.2193
413.0,0.2123
414.0,0.2134
415.0,0.2124
416.0,0.2146
417.0,0.2077
418.0,0.2024
419.0,0.2036
420.0,0.2012
421.0,0.2089
422.0,0.197
423.0,0.191
424.0,0.2004
425.0,0.1986
426.0,0.1921
427.0,0.1871
428.0,0.181
429.0,0.1703
430.0,0.148
431.0,0.1455
432.0,0.1865
433.0,0.1861
434.0,0.1715
435.0,0.1778
436.0,0.199
437.0,0.195
438.0,0.1763
439.0,0.1809
440.0,0.1853
441.0,0.1904
442.0,0.2027
443.0,0.1959
444.0,0.1988
445.0,0.1932
446.0,0.1831
447.0,0.1966
448.0,0.1981
449.0,0.1973
450.0,0.2012
451.0,0.2071
452.0,0.1981
453.0,0.185
454.0,0.1918
455.0,0.1915
456.0,0.1945
457.0,0.1961
458.0,0.1879
459.0,0.1853
460.0,0.1843
461.0,0.1871
462.0,0.1872
463.0,0.1848
464.0,0.1807
465.0,0.1773
466.0,0.1777
467.0,0.1732
468.0,0.1737
469.0,0.1732
470.0,0.1664
471.0,0.1651
472.0,0.1727
473.0,0.1693
474.0,0.1682
475.0,0.1683
476.0,0.1619
477.0,0.1609
478.0,0.1639
479.0,0.1614
480.0,0.1603
481.0,0.1618
482.0,0.1614
483.0,0.1583
484.0,0.1541
485.0,0.1459
486.0,0.1267
487.0,0.1319
488.0,0.1436
489.0,0.1429
490.0,0.1492
491.0,0.1455
492.0,0.1364
493.0,0.1398
494.0,0.1402
495.0,0.1403
496.0,0.1401
497.0,0.1411
498.0,0.1333
499.0,0.1338
500.0,0.1287
501.0,0.1251
502.0,0.1221
503.0,0.1259
504.0,0.1215
505.0,0.125
506.0,0.1281
507.0,0.1211
508.0,0.1166
509.0,0.1191
510.0,0.1178
511.0,0.1202
512.0,0.1206
513.0,0.1133
514.0,0.1116
515.0,0.1097
516.0,0.1086
517.0,0.09578
518.0,0.09996
519.0,0.1041
520.0,0.107
521.0,0.1071
522.0,0.1064
523.0,0.1037
524.0,0.1065
525.0,0.1068
526.0,0.1012
527.0,0.09447
528.0,0.09902
529.0,0.1035
530.0,0.1012
531.0,0.1019
532.0,0.09769
533.0,0.09416
534.0,0.09629
535.0,0.09777
536.0,0.09803
537.0,0.09354
538.0,0.09453
539.0,0.09312
540.0,0.08866
541.0,0.08856
542.0,0.0906
543.0,0.08897
544.0,0.08989
545.0,0.08904
546.0,0.08878
547.0,0.0881
548.0,0.08644
549.0,0.08612
550.0,0.08655
551.0,0.0849
552.0,0.08488
553.0,0.08276
554.0,0.08414
555.0,0.0837
556.0,0.08198
557.0,0.07881
558.0,0.07757
559.0,0.07548
560.0,0.07579
561.0,0.07613
562.0,0.07495
563.0,0.07637
564.0,0.07373
565.0,0.07255
566.0,0.07095
567.0,0.07173
568.0,0.07053
569.0,0.06828
570.0,0.06779
571.0,0.06692
572.0,0.06797
573.0,0.06824
574.0,0.06761
575.0,0.06594
576.0,0.06496
577.0,0.06529
578.0,0.06399
579.0,0.06394
580.0,0.06488
581.0,0.0649
582.0,0.0658
583.0,0.06565
584.0,0.06591
585.0,0.06396
586.0,0.06224
587.0,0.06317
588.0,0.06116
589.0,0.05364
590.0,0.05578
591.0,0.05878
592.0,0.05756
593.0,0.05808
594.0,0.0572
595.0,0.05532
596.0,0.05727
597.0,0.05621
598.0,0.05569
599.0,0.05535
600.0,0.0551
601.0,0.05434
602.0,0.05365
603.0,0.05423
604.0,0.05483
605.0,0.05427
606.0,0.05381
607.0,0.05411
608.0,0.05328
609.0,0.05314
610.0,0.05254
611.0,0.05261
612.0,0.05224
613.0,0.05135
614.0,0.05043
615.0,0.05131
616.0,0.04941
617.0,0.0491
618.0,0.05076
619.0,0.05002
620.0,0.0501
621.0,0.04989
622.0,0.04905
623.0,0.04804
624.0,0.04698
625.0,0.04667
626.0,0.04714
627.0,0.04741
628.0,0.04361
629.0,0.04567
630.0,0.04438
631.0,0.04531
632.0,0.04459
633.0,0.04581
634.0,0.04522
635.0,0.04573
636.0,0.04494
637.0,0.04549
638.0,0.04576
639.0,0.04506
640.0,0.04444
641.0,0.04421
642.0,0.04385
643.0,0.04426
644.0,0.04394
645.0,0.04379
646.0,0.0425
647.0,0.04169
648.0,0.0415
649.0,0.04051
650.0,0.04066
651.0,0.04224
652.0,0.04011
653.0,0.0413
654.0,0.04066
655.0,0.03887
656.0,0.03434
657.0,0.03513
658.0,0.03924
659.0,0.03937
660.0,0.03935
661.0,0.03944
662.0,0.03932
663.0,0.03839
664.0,0.03871
665.0,0.03859
666.0,0.03846
667.0,0.03827
668.0,0.03814
669.0,0.03856
670.0,0.03821
671.0,0.03804
672.0,0.03758
673.0,0.03802
674.0,0.0377
675.0,0.03718
676.0,0.03727
677.0,0.03676
678.0,0.03671
679.0,0.03597
680.0,0.03609
681.0,0.03569
682.0,0.03547
683.0,0.03524
684.0,0.03488
685.0,0.03501
686.0,0.03464
687.0,0.02146
688.0,0.02564
689.0,0.02563
690.0,0.02698
691.0,0.02854
692.0,0.02969
693.0,0.02928
694.0,0.02886
695.0,0.03012
696.0,0.03001
697.0,0.03204
698.0,0.03139
699.0,0.0303
700.0,0.02979
701.0,0.02932
702.0,0.02946
703.0,0.02937
704.0,0.03027
705.0,0.03017
706.0,0.03005
707.0,0.02994
708.0,0.02986
709.0,0.02982
710.0,0.02964
711.0,0.02952
712.0,0.02935
713.0,0.02889
714.0,0.02884
715.0,0.02772
716.0,0.0276
717.0,0.02323
718.0,0.02105
719.0,0.01904
720.0,0.0199
721.0,0.02223
722.0,0.02585
723.0,0.02366
724.0,0.02092
725.0,0.02044
726.0,0.02141
727.0,0.02167
728.0,0.02011
729.0,0.02095
730.0,0.02215
731.0,0.02099
732.0,0.02258
733.0,0.02402
734.0,0.02453
735.0,0.02388
736.0,0.02374
737.0,0.02372
738.0,0.02411
739.0,0.02351
740.0,0.02405
741.0,0.02372
742.0,0.02365
743.0,0.02412
744.0,0.02394
745.0,0.02384
746.0,0.02384
747.0,0.02378
748.0,0.02361
749.0,0.02322
750.0,0.02311
751.0,0.02278
752.0,0.02278
753.0,0.02279
754.0,0.02273
755.0,0.0225
756.0,0.02239
757.0,0.02233
758.0,0.02194
759.0,0.02132
760.0,0.002925
761.0,0.001509
762.0,0.00965
763.0,0.004492
764.0,0.00694
765.0,0.009503
766.0,0.01202
767.0,0.01562
768.0,0.01843
769.0,0.01885
770.0,0.01954
771.0,0.01967
772.0,0.01963
773.0,0.01967
774.0,0.01947
775.0,0.01923
776.0,0.01938
777.0,0.01903
778.0,0.01881
779.0,0.01873
780.0,0.01854
781.0,0.01847
782.0,0.01851
783.0,0.01811
784.0,0.01812
785.0,0.01791
786.0,0.01802
787.0,0.01758
788.0,0.01725
789.0,0.01716
790.0,0.01654
791.0,0.01669
792.0,0.0165
793.0,0.01614
794.0,0.01643
795.0,0.01661
796.0,0.01592
797.0,0.01587
798.0,0.01637
799.0,0.01617
800.0,0.01578
801.0,0.01564
802.0,0.01552
803.0,0.01532
804.0,0.01528
805.0,0.01519
806.0,0.01559
807.0,0.01532
808.0,0.01526
809.0,0.01487
810.0,0.01465
811.0,0.01456
812.0,0.014
813.0,0.01359
814.0,0.01165
815.0,0.01152
816.0,0.01057
817.0,0.01075
818.0,0.01026
819.0,0.01165
820.0,0.01083
821.0,0.01295
822.0,0.01246
823.0,0.007931
824.0,0.01191
825.0,0.01248
826.0,0.01185
827.0,0.01258
828.0,0.01032
829.0,0.01165
830.0,0.01142
831.0,0.01142
832.0,0.01097
833.0,0.01181
834.0,0.01125
835.0,0.0125
836.0,0.01179
837.0,0.01243
838.0,0.01194
839.0,0.01214
840.0,0.01237
841.0,0.01211
842.0,0.01212
843.0,0.01209
844.0,0.01185
845.0,0.01222
846.0,0.01212
847.0,0.01185
848.0,0.01171
849.0,0.01132
850.0,0.0108
851.0,0.01136
852.0,0.01123
853.0,0.01077
854.0,0.009247
855.0,0.01013
856.0,0.01102
857.0,0.01124
858.0,0.01111
859.0,0.01107
860.0,0.01105
861.0,0.01094
862.0,0.01108
863.0,0.0113
864.0,0.01069
865.0,0.01056
866.0,0.009452
867.0,0.009824
868.0,0.01065
869.0,0.01038
870.0,0.01064
871.0,0.01045
872.0,0.01037
873.0,0.0103
874.0,0.01014
875.0,0.009886
876.0,0.009944
877.0,0.01
878.0,0.01007
879.0,0.00987
880.0,0.009618
881.0,0.009428
882.0,0.009591
883.0,0.009589
884.0,0.0095
885.0,0.009527
886.0,0.009018
887.0,0.009096
888.0,0.009178
889.0,0.009266
890.0,0.00912
891.0,0.009082
892.0,0.008755
893.0,0.008398
894.0,0.00799
895.0,0.00742
896.0,0.006875
897.0,0.005732
898.0,0.00632
899.0,0.004581
900.0,0.006489
901.0,0.004826
902.0,0.005814
903.0,0.005806
904.0,0.007606
905.0,0.007265
906.0,0.006719
907.0,0.005218
908.0,0.005338
909.0,0.005863
910.0,0.005017
911.0,0.00541
912.0,0.005673
913.0,0.005029
914.0,0.004976
915.0,0.005433
916.0,0.004472
917.0,0.005896
918.0,0.004566
919.0,0.005977
920.0,0.006066
921.0,0.006346
922.0,0.005527
923.0,0.006084
924.0,0.005627
925.0,0.005465
926.0,0.005518
927.0,0.006265
928.0,0.004287
929.0,0.003836
930.0,0.002883
931.0,0.002708
932.0,0.001852
933.0,0.00146
934.0,0.0007453
935.0,0.001496
936.0,0.0008853
937.0,0.0008926
938.0,0.001113
939.0,0.002534
940.0,0.003127
941.0,0.002256
942.0,0.002653
943.0,0.001643
944.0,0.001755
945.0,0.002294
946.0,0.00107
947.0,0.002276
948.0,0.001615
949.0,0.003156
950.0,0.0007466
951.0,0.003088
952.0,0.001513
953.0,0.002019
954.0,0.00256
955.0,0.002041
956.0,0.001984
957.0,0.001485
958.0,0.002938
959.0,0.002226
960.0,0.002519
961.0,0.002884
962.0,0.0027
963.0,0.003185
964.0,0.002866
965.0,0.003149
966.0,0.003134
967.0,0.0031
968.0,0.004429
969.0,0.004624
970.0,0.004165
971.0,0.004903
972.0,0.004626
973.0,0.003883
974.0,0.003644
975.0,0.0038
976.0,0.003543
977.0,0.004151
978.0,0.003874
979.0,0.00409
980.0,0.003783
981.0,0.004691
982.0,0.004419
983.0,0.004194
984.0,0.004834
985.0,0.004354
986.0,0.004914
987.0,0.004766
988.0,0.004738
989.0,0.004861
990.0,0.004675
991.0,0.004828
992.0,0.004842
993.0,0.004685
994.0,0.00481
995.0,0.004791
996.0,0.004746
997.0,0.004738
998.0,0.004697
999.0,0.004664
1000.0,0.004606
1001.0,0.004655
1002.0,0.004477
1003.0,0.004536
1004.0,0.004399
1005.0,0.004233
1006.0,0.004375
1007.0,0.004453
1008.0,0.004407
1009.0,0.004361
1010.0,0.004322
1011.0,0.004366
1012.0,0.004304
1013.0,0.004324
1014.0,0.004279
1015.0,0.004233
1016.0,0.004197
1017.0,0.00419
1018.0,0.004162
1019.0,0.004045
1020.0,0.004106
1021.0,0.004086
1022.0,0.004034
1023.0,0.004061
1024.0,0.003982
1025.0,0.004033
1026.0,0.003997
1027.0,0.003973
1028.0,0.00395
1029.0,0.003888
1030.0,0.003904
1031.0,0.003872
1032.0,0.003847
1033.0,0.003774
1034.0,0.00376
1035.0,0.003757
1036.0,0.003761
1037.0,0.003686
1038.0,0.003689
1039.0,0.003673
1040.0,0.003644
1041.0,0.003644
1042.0,0.003604
1043.0,0.00358
1044.0,0.003579
1045.0,0.003516
1046.0,0.003463
1047.0,0.003481
1048.0,0.003487
1049.0,0.003461
1050.0,0.003432
1051.0,0.003413
1052.0,0.003385
1053.0,0.003346
1054.0,0.00334
1055.0,0.003328
1056.0,0.003302
1057.0,0.003278
1058.0,0.003185
1059.0,0.003176
1060.0,0.003158
1061.0,0.003142
1062.0,0.003145
1063.0,0.003102
1064.0,0.003128
1065.0,0.00309
1066.0,0.003021
1067.0,0.003048
1068.0,0.002967
1069.0,0.002867
1070.0,0.00295
1071.0,0.002994
1072.0,0.002942
1073.0,0.002891
1074.0,0.002966
1075.0,0.00278
1076.0,0.00294
1077.0,0.002861
1078.0,0.002791
1079.0,0.002865
1080.0,0.002783
1081.0,0.002676
1082.0,0.002731
1083.0,0.002734
1084.0,0.002631
1085.0,0.002745
1086.0,0.002447
1087.0,0.002555
1088.0,0.002677
1089.0,0.002561
1090.0,0.002475
1091.0,0.002632
1092.0,0.002621
1093.0,0.002138
1094.0,0.002373
1095.0,0.002227
1096.0,0.002102
1097.0,0.002518
1098.0,0.002049
1099.0,0.002141
1100.0,0.001947
1101.0,0.001976
1102.0,0.001864
1103.0,0.001826
1104.0,0.001824
1105.0,0.00204
1106.0,0.001454
1107.0,0.001902
1108.0,0.001543
1109.0,0.001545
1110.0,0.001858
1111.0,0.001161
1112.0,0.00152
1113.0,0.0008835
1114.0,0.0009972
1115.0,0.0008061
1116.0,0.0006137
1117.0,0.0001997
1118.0,0.0006725
1119.0,0.0003052
1120.0,0.0003877
1121.0,0.0005293
1122.0,0.0002029
1123.0,0.0003445
1124.0,0.0002866
1125.0,0.0003822
1126.0,0.0001194
1127.0,0.0004321
1128.0,0.0002415
1129.0,0.0002572
1130.0,0.0001631
1131.0,0.0008832
1132.0,0.0006682
1133.0,0.0003941
1134.0,8.943e-05
1135.0,3.282e-05
1136.0,0.0003173
1137.0,0.0008435
1138.0,0.0005702
1139.0,0.0009136
1140.0,0.0007344
1141.0,0.0005341
1142.0,0.0006255
1143.0,0.0009316
1144.0,0.0002838
1145.0,0.0003639
1146.0,0.0003929
1147.0,0.0001243
1148.0,0.0007786
1149.0,0.0005973
1150.0,0.0003018
1151.0,0.0005404
1152.0,0.0006865
1153.0,0.0006721
1154.0,0.0003408
1155.0,0.0009069
1156.0,0.0007982
1157.0,0.0009158
1158.0,0.0009015
1159.0,0.0009885
1160.0,0.0008186
1161.0,0.001051
1162.0,0.001048
1163.0,0.001505
1164.0,0.001248
1165.0,0.001152
1166.0,0.001149
1167.0,0.001266
1168.0,0.001275
1169.0,0.001313
1170.0,0.001445
1171.0,0.001397
1172.0,0.001428
1173.0,0.001426
1174.0,0.0009495
1175.0,0.00139
1176.0,0.001554
1177.0,0.001469
1178.0,0.001041
1179.0,0.001552
1180.0,0.001343
1181.0,0.001389
1182.0,0.0008929
1183.0,0.001367
1184.0,0.001253
1185.0,0.001192
1186.0,0.001463
1187.0,0.001373
1188.0,0.0008933
1189.0,0.001263
1190.0,0.001409
1191.0,0.001311
1192.0,0.001423
1193.0,0.001347
1194.0,0.001393
1195.0,0.001298
1196.0,0.001236
1197.0,0.001393
1198.0,0.001251
1199.0,0.001025
1200.0,0.001304
1201.0,0.001241
1202.0,0.001234
1203.0,0.001225
1204.0,0.001037
1205.0,0.001262
1206.0,0.001419
1207.0,0.001213
1208.0,0.001201
1209.0,0.001223
1210.0,0.00128
1211.0,0.001201
1212.0,0.001172
1213.0,0.001337
1214.0,0.0012
1215.0,0.001169
1216.0,0.00132
1217.0,0.001273
1218.0,0.0013
1219.0,0.001277
1220.0,0.001294
1221.0,0.001307
1222.0,0.001263
1223.0,0.001244
1224.0,0.001229
1225.0,0.001281
1226.0,0.00129
1227.0,0.001168
1228.0,0.001291
1229.0,0.001278
1230.0,0.001248
1231.0,0.00129
1232.0,0.001278
1233.0,0.001217
1234.0,0.00128
1235.0,0.001265
1236.0,0.001272
1237.0,0.001245
1238.0,0.00126
1239.0,0.001239
1240.0,0.001241
1241.0,0.001228
1242.0,0.001224
1243.0,0.00121
1244.0,0.001213
1245.0,0.001215
1246.0,0.001204
1247.0,0.001195
1248.0,0.001188
1249.0,0.00119
1250.0,0.001178
1251.0,0.001157
1252.0,0.001156
1253.0,0.001139
1254.0,0.001121
1255.0,0.001143
1256.0,0.001099
1257.0,0.001088
1258.0,0.001111
1259.0,0.001056
1260.0,0.00106
1261.0,0.000983
1262.0,0.0009435
1263.0,0.0009421
1264.0,0.0008512
1265.0,0.000931
1266.0,0.0008838
1267.0,0.0009031
1268.0,0.0008434
1269.0,0.0004682
1270.0,0.0008898
1271.0,0.0009544
1272.0,0.0009561
1273.0,0.0009414
1274.0,0.0009434
1275.0,0.0009568
1276.0,0.0009657
1277.0,0.0009718
1278.0,0.0009932
1279.0,0.0009807
1280.0,0.0009655
1281.0,0.000921
1282.0,0.000889
1283.0,0.0009536
1284.0,0.0009724
1285.0,0.0009764
1286.0,0.000989
1287.0,0.0009661
1288.0,0.0009639
1289.0,0.000922
1290.0,0.0009499
1291.0,0.0009616
1292.0,0.0008844
1293.0,0.0009326
1294.0,0.0009222
1295.0,0.0009115
1296.0,0.0008572
1297.0,0.0007996
1298.0,0.0008744
1299.0,0.0009178
1300.0,0.0007449
1301.0,0.0007715
1302.0,0.0008619
1303.0,0.0007299
1304.0,0.0005978
1305.0,0.0008329
1306.0,0.0008297
1307.0,0.0006098
1308.0,0.0007211
1309.0,0.0008139
1310.0,0.0005909
1311.0,0.0006793
1312.0,0.0006575
1313.0,0.0006382
1314.0,0.0005568
1315.0,0.0005475
1316.0,0.0006565
1317.0,0.0006135
1318.0,0.0006771
1319.0,0.0004993
1320.0,0.0004823
1321.0,0.0005757
1322.0,0.0005785
1323.0,0.0004107
1324.0,0.0004816
1325.0,0.0006273
1326.0,0.0005206
1327.0,0.0004905
1328.0,0.0004115
1329.0,0.0002928
1330.0,0.000394
1331.0,0.000219
1332.0,0.000228
1333.0,0.0003281
1334.0,0.0002754
1335.0,0.0003945
1336.0,0.000299
1337.0,0.000259
1338.0,0.0002817
1339.0,0.0002806
1340.0,0.0002726
1341.0,0.0002609
1342.0,0.000275
1343.0,0.0001732
1344.0,0.0001001
1345.0,0.0001476
1346.0,6.786e-05
1347.0,6.849e-05
1348.0,4.101e-06
1349.0,1.494e-05
1350.0,1.554e-05
1351.0,3.672e-06
1352.0,9.811e-07
1353.0,4.982e-08
1354.0,1.713e-07
1355.0,1.378e-09
1356.0,2.413e-08
1357.0,3.666e-08
1358.0,1.618e-09
1359.0,2.038e-10
1360.0,7.367e-10
