interpolation:linear
wavelength,value
280.0,7.278e-23
280.5,2.435e-21
281.0,1.3160000000000001e-20
281.5,4.257e-19
282.0,5.132e-19
282.5,1.222e-18
283.0,3.807e-18
283.5,6.19e-18
284.0,1.018e-16
284.5,2.984e-16
285.0,6.062e-16
285.5,2.792e-15
286.0,1.111e-14
286.5,4.914e-14
287.0,1.402e-13
287.5,5.39e-13
288.0,1.845e-12
288.5,5.315e-12
289.0,1.378e-11
289.5,4.093e-11
290.0,1.129e-10
290.5,2.299e-10
291.0,4.935e-10
291.5,1.419e-09
292.0,2.891e-09
292.5,4.028e-09
293.0,8.568e-09
293.5,2.065e-08
294.0,3.219e-08
294.5,4.119e-08
295.0,6.938e-08
295.5,1.18e-07
296.0,2.231e-07
296.5,3.052e-07
297.0,4.047e-07
297.5,1.051e-06
298.0,1.607e-06
298.5,1.576e-06
299.0,3.384e-06
299.5,5.341e-06
300.0,5.694e-06
300.5,7.972e-06
301.0,1.361e-05
301.5,2.047e-05
302.0,1.696e-05
302.5,3.264e-05
303.0,5.779e-05
303.5,7.275e-05
304.0,6.984e-05
304.5,0.0001107
305.0,0.0001838
305.5,0.0002234
306.0,0.0002213
306.5,0.0002867
307.0,0.000466
307.5,0.0006784
308.0,0.0007267
308.5,0.000898
309.0,0.001052
309.5,0.001438
310.0,0.001568
310.5,0.002643
311.0,0.003544
311.5,0.003519
312.0,0.004067
312.5,0.005445
313.0,0.006206
313.5,0.005743
314.0,0.008054
314.5,0.008325
315.0,0.01123
315.5,0.008704
316.0,0.008608
316.5,0.01376
317.0,0.01703
317.5,0.01716
318.0,0.0144
318.5,0.0206
319.0,0.02624
319.5,0.01901
320.0,0.02254
320.5,0.03262
321.0,0.03313
321.5,0.03214
322.0,0.02966
322.5,0.02596
323.0,0.02833
323.5,0.03912
324.0,0.04634
324.5,0.04509
325.0,0.03603
325.5,0.04992
326.0,0.06432
326.5,0.06779
327.0,0.06617
327.5,0.06226
328.0,0.05162
328.5,0.05895
329.0,0.0754
329.5,0.08725
330.0,0.08644
330.5,0.06557
331.0,0.06554
331.5,0.06913
332.0,0.0789
332.5,0.07997
333.0,0.07845
333.5,0.068
334.0,0.06908
334.5,0.08346
335.0,0.08052
335.5,0.09519
336.0,0.06578
336.5,0.07484
337.0,0.06008
337.5,0.07407
338.0,0.07513
338.5,0.08818
339.0,0.08731
339.5,0.08378
340.0,0.09667
340.5,0.08736
341.0,0.08627
341.5,0.07937
342.0,0.09482
342.5,0.08869
343.0,0.09716
343.5,0.09123
344.0,0.06641
344.5,0.06775
345.0,0.08984
345.5,0.09176
346.0,0.07798
346.5,0.08825
347.0,0.09439
347.5,0.07616
348.0,0.08691
348.5,0.08688
349.0,0.08054
349.5,0.0796
350.0,0.09833
350.5,0.1036
351.0,0.09223
351.5,0.08922
352.0,0.09586
352.5,0.07482
353.0,0.0942
353.5,0.1007
354.0,0.1044
354.5,0.1057
355.0,0.1051
355.5,0.09485
356.0,0.09913
356.5,0.08451
357.0,0.0697
357.5,0.08521
358.0,0.06744
358.5,0.05755
359.0,0.08033
359.5,0.1021
360.0,0.1081
360.5,0.08628
361.0,0.07856
361.5,0.09034
362.0,0.07801
362.5,0.1078
363.0,0.09667
363.5,0.08889
364.0,0.1085
364.5,0.0926
365.0,0.09414
365.5,0.118
366.0,0.1248
366.5,0.1171
367.0,0.1138
367.5,0.1179
368.0,0.103
368.5,0.1037
369.0,0.1118
369.5,0.119
370.0,0.1266
370.5,0.09812
371.0,0.1047
371.5,0.1307
372.0,0.08659
372.5,0.1036
373.0,0.1052
373.5,0.06835
374.0,0.09913
374.5,0.08195
375.0,0.07951
375.5,0.1185
376.0,0.09805
376.5,0.1014
377.0,0.1072
377.5,0.1252
378.0,0.1354
378.5,0.1277
379.0,0.1052
379.5,0.0959
380.0,0.09951
380.5,0.1203
381.0,0.1203
381.5,0.09518
382.0,0.08436
382.5,0.07177
383.0,0.06631
383.5,0.06375
384.0,0.07018
384.5,0.103
385.0,0.102
385.5,0.09478
386.0,0.08101
386.5,0.1062
387.0,0.08806
387.5,0.0987
388.0,0.09094
388.5,0.08971
389.0,0.09664
389.5,0.1168
390.0,0.117
390.5,0.1074
391.0,0.1262
391.5,0.1284
392.0,0.1079
392.5,0.09644
393.0,0.05355
393.5,0.03884
394.0,0.07888
394.5,0.1001
395.0,0.1219
395.5,0.1235
396.0,0.1069
396.5,0.06234
397.0,0.04668
397.5,0.09473
398.0,0.1324
398.5,0.1365
399.0,0.1475
399.5,0.1467
400.0,0.152
401.0,0.1496
402.0,0.1571
403.0,0.1485
404.0,0.1456
405.0,0.1449
406.0,0.1419
407.0,0.1389
408.0,0.1436
409.0,0.1529
410.0,0.133
411.0,0.1434
412.0,0.1533
413.0,0.1488
414.0,0.1499
415.0,0.1496
416.0,0.1514
417.0,0.1469
418.0,0.1434
419.0,0.1446
420.0,0.1433
421.0,0.1491
422.0,0.1409
423.0,0.1368
424.0,0.1439
425.0,0.1428
426.0,0.1384
427.0,0.1352
428.0,0.1311
429.0,0.1236
430.0,0.1076
431.0,0.106
432.0,0.136
433.0,0.136
434.0,0.1256
435.0,0.1305
436.0,0.1463
437.0,0.1436
438.0,0.13
439.0,0.1335
440.0,0.1369
441.0,0.1409
442.0,0.1502
443.0,0.1454
444.0,0.1479
445.0,0.144
446.0,0.1368
447.0,0.1472
448.0,0.1485
449.0,0.1481
450.0,0.1513
451.0,0.1559
452.0,0.1494
453.0,0.1398
454.0,0.1452
455.0,0.1451
456.0,0.1475
457.0,0.1489
458.0,0.1426
459.0,0.1408
460.0,0.14
461.0,0.1422
462.0,0.1425
463.0,0.1409
464.0,0.1381
465.0,0.1359
466.0,0.1365
467.0,0.1331
468.0,0.1337
469.0,0.1334
470.0,0.1283
471.0,0.1274
472.0,0.1335
473.0,0.131
474.0,0.1303
475.0,0.1304
476.0,0.1254
477.0,0.1246
478.0,0.1269
479.0,0.1249
480.0,0.124
481.0,0.1252
482.0,0.125
483.0,0.1228
484.0,0.1198
485.0,0.1137
486.0,0.09904
487.0,0.1033
488.0,0.1126
489.0,0.1121
490.0,0.1171
491.0,0.1143
492.0,0.1072
493.0,0.1101
494.0,0.1105
495.0,0.1107
496.0,0.1106
497.0,0.1114
498.0,0.1052
499.0,0.1055
500.0,0.1014
501.0,0.09849
502.0,0.09603
503.0,0.09885
504.0,0.09528
505.0,0.098
506.0,0.1005
507.0,0.09508
508.0,0.09171
509.0,0.09387
510.0,0.09294
511.0,0.09489
512.0,0.09527
513.0,0.08949
514.0,0.08818
515.0,0.08661
516.0,0.08573
517.0,0.07562
518.0,0.07892
519.0,0.08215
520.0,0.08445
521.0,0.08453
522.0,0.08384
523.0,0.08167
524.0,0.08376
525.0,0.08387
526.0,0.07933
527.0,0.07395
528.0,0.07738
529.0,0.08079
530.0,0.07891
531.0,0.07936
532.0,0.07601
533.0,0.07325
534.0,0.07493
535.0,0.07613
536.0,0.07638
537.0,0.07293
538.0,0.07374
539.0,0.07261
540.0,0.06911
541.0,0.06897
542.0,0.0705
543.0,0.0692
544.0,0.06984
545.0,0.06914
546.0,0.0689
547.0,0.06838
548.0,0.0671
549.0,0.06685
550.0,0.06717
551.0,0.06587
552.0,0.06585
553.0,0.0642
554.0,0.06524
555.0,0.06485
556.0,0.06348
557.0,0.06097
558.0,0.05994
559.0,0.05824
560.0,0.0584
561.0,0.05859
562.0,0.05759
563.0,0.0586
564.0,0.05651
565.0,0.05555
566.0,0.05429
567.0,0.05484
568.0,0.05386
569.0,0.05205
570.0,0.05166
571.0,0.05097
572.0,0.05171
573.0,0.0519
574.0,0.05141
575.0,0.05014
576.0,0.04943
577.0,0.04974
578.0,0.04881
579.0,0.04885
580.0,0.04965
581.0,0.04975
582.0,0.05052
583.0,0.05047
584.0,0.05072
585.0,0.04925
586.0,0.04796
587.0,0.04869
588.0,0.04709
589.0,0.0412
590.0,0.04284
591.0,0.04519
592.0,0.04419
593.0,0.0446
594.0,0.04386
595.0,0.04231
596.0,0.04384
597.0,0.04295
598.0,0.04253
599.0,0.04224
600.0,0.04204
601.0,0.04146
602.0,0.04094
603.0,0.0414
604.0,0.04189
605.0,0.04152
606.0,0.04122
607.0,0.04153
608.0,0.04096
609.0,0.04094
610.0,0.04056
611.0,0.04068
612.0,0.04047
613.0,0.03986
614.0,0.03922
615.0,0.03998
616.0,0.03856
617.0,0.03837
618.0,0.03973
619.0,0.0392
620.0,0.0393
621.0,0.03917
622.0,0.03854
623.0,0.03778
624.0,0.03699
625.0,0.03677
626.0,0.03717
627.0,0.03739
628.0,0.0342
629.0,0.03602
630.0,0.03503
631.0,0.03589
632.0,0.03537
633.0,0.03641
634.0,0.03601
635.0,0.03648
636.0,0.03591
637.0,0.0364
638.0,0.03669
639.0,0.03618
640.0,0.03574
641.0,0.03562
642.0,0.03537
643.0,0.03575
644.0,0.03554
645.0,0.03544
646.0,0.03441
647.0,0.03372
648.0,0.03362
649.0,0.03282
650.0,0.03306
651.0,0.03439
652.0,0.03262
653.0,0.03369
654.0,0.0332
655.0,0.03173
656.0,0.02809
657.0,0.02876
658.0,0.03218
659.0,0.03232
660.0,0.03234
661.0,0.03244
662.0,0.03236
663.0,0.03162
664.0,0.03193
665.0,0.03188
666.0,0.0318
667.0,0.03169
668.0,0.03162
669.0,0.032
670.0,0.03174
671.0,0.03164
672.0,0.03128
673.0,0.03166
674.0,0.03143
675.0,0.03103
676.0,0.03113
677.0,0.03072
678.0,0.03071
679.0,0.03011
680.0,0.03023
681.0,0.02991
682.0,0.02974
683.0,0.02956
684.0,0.02928
685.0,0.02941
686.0,0.0291
687.0,0.01751
688.0,0.02104
689.0,0.02105
690.0,0.02226
691.0,0.02368
692.0,0.02476
693.0,0.02444
694.0,0.02417
695.0,0.02533
696.0,0.02527
697.0,0.02707
698.0,0.02653
699.0,0.02556
700.0,0.02514
701.0,0.02471
702.0,0.02486
703.0,0.02482
704.0,0.02563
705.0,0.02555
706.0,0.02547
707.0,0.0254
708.0,0.02533
709.0,0.02534
710.0,0.02518
711.0,0.02508
712.0,0.02496
713.0,0.02455
714.0,0.02453
715.0,0.02355
716.0,0.02344
717.0,0.01953
718.0,0.01776
719.0,0.01609
720.0,0.01677
721.0,0.01881
722.0,0.02195
723.0,0.02008
724.0,0.01772
725.0,0.0173
726.0,0.0181
727.0,0.01839
728.0,0.01703
729.0,0.0178
730.0,0.01876
731.0,0.0178
732.0,0.01921
733.0,0.02049
734.0,0.02096
735.0,0.02039
736.0,0.02026
737.0,0.02024
738.0,0.02065
739.0,0.02015
740.0,0.02063
741.0,0.02036
742.0,0.02031
743.0,0.02073
744.0,0.02058
745.0,0.0205
746.0,0.0205
747.0,0.02045
748.0,0.02031
749.0,0.01999
750.0,0.0199
751.0,0.01962
752.0,0.01963
753.0,0.01965
754.0,0.01962
755.0,0.01942
756.0,0.01934
757.0,0.01929
758.0,0.01896
759.0,0.01837
760.0,0.002597
761.0,0.001377
762.0,0.008065
763.0,0.003896
764.0,0.005878
765.0,0.007947
766.0,0.01004
767.0,0.01316
768.0,0.01575
769.0,0.01617
770.0,0.01685
771.0,0.017
772.0,0.01698
773.0,0.01701
774.0,0.01684
775.0,0.01663
776.0,0.01675
777.0,0.01644
778.0,0.01625
779.0,0.01618
780.0,0.01602
781.0,0.01597
782.0,0.01601
783.0,0.01567
784.0,0.01569
785.0,0.01551
786.0,0.01561
787.0,0.0152
788.0,0.01491
789.0,0.01484
790.0,0.01428
791.0,0.01444
792.0,0.01429
793.0,0.01398
794.0,0.01427
795.0,0.01442
796.0,0.01377
797.0,0.01372
798.0,0.0142
799.0,0.01402
800.0,0.01368
801.0,0.01354
802.0,0.01343
803.0,0.01325
804.0,0.01323
805.0,0.01316
806.0,0.01354
807.0,0.01329
808.0,0.01324
809.0,0.01288
810.0,0.01267
811.0,0.01257
812.0,0.01204
813.0,0.01169
814.0,0.009983
815.0,0.009884
816.0,0.009077
817.0,0.009219
818.0,0.008794
819.0,0.01
820.0,0.009302
821.0,0.01118
822.0,0.01076
823.0,0.006819
824.0,0.01026
825.0,0.01081
826.0,0.01025
827.0,0.0109
828.0,0.008891
829.0,0.01009
830.0,0.009893
831.0,0.00989
832.0,0.009486
833.0,0.01022
834.0,0.00973
835.0,0.01087
836.0,0.0102
837.0,0.0108
838.0,0.01035
839.0,0.01055
840.0,0.01075
841.0,0.01052
842.0,0.01054
843.0,0.01054
844.0,0.01032
845.0,0.01065
846.0,0.01056
847.0,0.01033
848.0,0.0102
849.0,0.009857
850.0,0.009399
851.0,0.009874
852.0,0.009765
853.0,0.00937
854.0,0.00804
855.0,0.008819
856.0,0.009591
857.0,0.009785
858.0,0.009671
859.0,0.00965
860.0,0.009634
861.0,0.009544
862.0,0.009665
863.0,0.009859
864.0,0.009333
865.0,0.009217
866.0,0.008256
867.0,0.008582
868.0,0.009303
869.0,0.009075
870.0,0.009297
871.0,0.009133
872.0,0.009064
873.0,0.009009
874.0,0.008863
875.0,0.008644
876.0,0.008695
877.0,0.008747
878.0,0.0088
879.0,0.008629
880.0,0.008408
881.0,0.008237
882.0,0.008377
883.0,0.008378
884.0,0.008298
885.0,0.008321
886.0,0.007862
887.0,0.00794
888.0,0.008008
889.0,0.008093
890.0,0.007952
891.0,0.007926
892.0,0.007623
893.0,0.007304
894.0,0.006917
895.0,0.006391
896.0,0.005932
897.0,0.004937
898.0,0.005436
899.0,0.003954
900.0,0.005596
901.0,0.004145
902.0,0.005003
903.0,0.004984
904.0,0.006581
905.0,0.006284
906.0,0.00581
907.0,0.004487
908.0,0.004601
909.0,0.005049
910.0,0.004312
911.0,0.004674
912.0,0.004882
913.0,0.004319
914.0,0.004284
915.0,0.004647
916.0,0.003856
917.0,0.005059
918.0,0.003925
919.0,0.005144
920.0,0.005261
921.0,0.005477
922.0,0.004762
923.0,0.005257
924.0,0.004826
925.0,0.004697
926.0,0.004726
927.0,0.005373
928.0,0.003655
929.0,0.003268
930.0,0.002464
931.0,0.002316
932.0,0.001599
933.0,0.001273
934.0,0.0006683
935.0,0.001302
936.0,0.0007864
937.0,0.0007931
938.0,0.0009794
939.0,0.002166
940.0,0.002659
941.0,0.001928
942.0,0.002256
943.0,0.001422
944.0,0.001522
945.0,0.001963
946.0,0.0009405
947.0,0.001946
948.0,0.001403
949.0,0.002671
950.0,0.0006669
951.0,0.002613
952.0,0.001314
953.0,0.001736
954.0,0.002182
955.0,0.001751
956.0,0.001731
957.0,0.00129
958.0,0.002523
959.0,0.001916
960.0,0.002154
961.0,0.002469
962.0,0.002318
963.0,0.002731
964.0,0.002465
965.0,0.002695
966.0,0.002685
967.0,0.002652
968.0,0.003834
969.0,0.00397
970.0,0.003586
971.0,0.004244
972.0,0.003998
973.0,0.003332
974.0,0.003135
975.0,0.003273
976.0,0.003033
977.0,0.003592
978.0,0.003335
979.0,0.00352
980.0,0.003264
981.0,0.00406
982.0,0.003815
983.0,0.003617
984.0,0.004202
985.0,0.003754
986.0,0.004284
987.0,0.004145
988.0,0.004122
989.0,0.004247
990.0,0.004064
991.0,0.004212
992.0,0.004227
993.0,0.004079
994.0,0.004202
995.0,0.004189
996.0,0.004148
997.0,0.004143
998.0,0.004106
999.0,0.004078
1000.0,0.004024
1001.0,0.004071
1002.0,0.003898
1003.0,0.003966
1004.0,0.003842
1005.0,0.003703
1006.0,0.003825
1007.0,0.003895
1008.0,0.003852
1009.0,0.003808
1010.0,0.003773
1011.0,0.003819
1012.0,0.003762
1013.0,0.003783
1014.0,0.003743
1015.0,0.003703
1016.0,0.003671
1017.0,0.003664
1018.0,0.003642
1019.0,0.003533
1020.0,0.003592
1021.0,0.003576
1022.0,0.003529
1023.0,0.003552
1024.0,0.003476
1025.0,0.003529
1026.0,0.003496
1027.0,0.003476
1028.0,0.003454
1029.0,0.003399
1030.0,0.003416
1031.0,0.003387
1032.0,0.003366
1033.0,0.003302
1034.0,0.00329
1035.0,0.003288
1036.0,0.00329
1037.0,0.003225
1038.0,0.003227
1039.0,0.003213
1040.0,0.003187
1041.0,0.003186
1042.0,0.003152
1043.0,0.00313
1044.0,0.003128
1045.0,0.003073
1046.0,0.003026
1047.0,0.003041
1048.0,0.003046
1049.0,0.003023
1050.0,0.002996
1051.0,0.00298
1052.0,0.002955
1053.0,0.00292
1054.0,0.002914
1055.0,0.002902
1056.0,0.002879
1057.0,0.002857
1058.0,0.002775
1059.0,0.002766
1060.0,0.002751
1061.0,0.002736
1062.0,0.002737
1063.0,0.002699
1064.0,0.002722
1065.0,0.002687
1066.0,0.002629
1067.0,0.002651
1068.0,0.00258
1069.0,0.002494
1070.0,0.002566
1071.0,0.002608
1072.0,0.00256
1073.0,0.002516
1074.0,0.002586
1075.0,0.002415
1076.0,0.002563
1077.0,0.002489
1078.0,0.002425
1079.0,0.0025
1080.0,0.002422
1081.0,0.002323
1082.0,0.002379
1083.0,0.002385
1084.0,0.002283
1085.0,0.002389
1086.0,0.002122
1087.0,0.002219
1088.0,0.002334
1089.0,0.002222
1090.0,0.002146
1091.0,0.002292
1092.0,0.002284
1093.0,0.001846
1094.0,0.002065
1095.0,0.001919
1096.0,0.001808
1097.0,0.002194
1098.0,0.001758
1099.0,0.001838
1100.0,0.001671
1101.0,0.001698
1102.0,0.001597
1103.0,0.001562
1104.0,0.001561
1105.0,0.00175
1106.0,0.001236
1107.0,0.00163
1108.0,0.001317
1109.0,0.001319
1110.0,0.001586
1111.0,0.0009904
1112.0,0.001298
1113.0,0.0007582
1114.0,0.00085
1115.0,0.0006922
1116.0,0.0005303
1117.0,0.0001811
1118.0,0.0005777
1119.0,0.000271
1120.0,0.00034
1121.0,0.0004568
1122.0,0.0001832
1123.0,0.0003037
1124.0,0.0002547
1125.0,0.0003349
1126.0,0.0001101
1127.0,0.0003765
1128.0,0.0002164
1129.0,0.0002295
1130.0,0.0001488
1131.0,0.0007442
1132.0,0.0005703
1133.0,0.0003441
1134.0,8.314e-05
1135.0,3.111e-05
1136.0,0.00028
1137.0,0.0007102
1138.0,0.0004891
1139.0,0.0007749
1140.0,0.0006252
1141.0,0.0004597
1142.0,0.0005348
1143.0,0.0007853
1144.0,0.0002514
1145.0,0.0003179
1146.0,0.000342
1147.0,0.0001142
1148.0,0.00066
1149.0,0.0005114
1150.0,0.0002674
1151.0,0.0004639
1152.0,0.0005838
1153.0,0.0005749
1154.0,0.0002993
1155.0,0.0007669
1156.0,0.0006768
1157.0,0.0007797
1158.0,0.0007676
1159.0,0.0008379
1160.0,0.0007015
1161.0,0.0008985
1162.0,0.0008954
1163.0,0.00129
1164.0,0.001069
1165.0,0.0009826
1166.0,0.000987
1167.0,0.001087
1168.0,0.001094
1169.0,0.001125
1170.0,0.001242
1171.0,0.001203
1172.0,0.001235
1173.0,0.001227
1174.0,0.0008167
1175.0,0.001203
1176.0,0.001353
1177.0,0.001271
1178.0,0.0009012
1179.0,0.00135
1180.0,0.001161
1181.0,0.001199
1182.0,0.0007703
1183.0,0.001181
1184.0,0.001081
1185.0,0.001026
1186.0,0.001267
1187.0,0.001186
1188.0,0.0007654
1189.0,0.001092
1190.0,0.001223
1191.0,0.001129
1192.0,0.001236
1193.0,0.001168
1194.0,0.001209
1195.0,0.00112
1196.0,0.001064
1197.0,0.001209
1198.0,0.001088
1199.0,0.0008816
1200.0,0.00113
1201.0,0.00107
1202.0,0.001071
1203.0,0.001056
1204.0,0.0008958
1205.0,0.001097
1206.0,0.001237
1207.0,0.001049
1208.0,0.001042
1209.0,0.001061
1210.0,0.001113
1211.0,0.001041
1212.0,0.001006
1213.0,0.001159
1214.0,0.001032
1215.0,0.001006
1216.0,0.001147
1217.0,0.001104
1218.0,0.001129
1219.0,0.001107
1220.0,0.001124
1221.0,0.001137
1222.0,0.001099
1223.0,0.001082
1224.0,0.001064
1225.0,0.001114
1226.0,0.001124
1227.0,0.001011
1228.0,0.001127
1229.0,0.001114
1230.0,0.001087
1231.0,0.001128
1232.0,0.001117
1233.0,0.001058
1234.0,0.00112
1235.0,0.001107
1236.0,0.001114
1237.0,0.001088
1238.0,0.001103
1239.0,0.001085
1240.0,0.001086
1241.0,0.001073
1242.0,0.001071
1243.0,0.001059
1244.0,0.001062
1245.0,0.001064
1246.0,0.001054
1247.0,0.001046
1248.0,0.001039
1249.0,0.001041
1250.0,0.00103
1251.0,0.001011
1252.0,0.001011
1253.0,0.0009935
1254.0,0.0009755
1255.0,0.0009991
1256.0,0.000956
1257.0,0.0009453
1258.0,0.0009694
1259.0,0.0009136
1260.0,0.0009177
1261.0,0.0008432
1262.0,0.0008055
1263.0,0.0008041
1264.0,0.0007195
1265.0,0.0007946
1266.0,0.0007498
1267.0,0.0007692
1268.0,0.0007139
1269.0,0.0003898
1270.0,0.0007564
1271.0,0.0008191
1272.0,0.000821
1273.0,0.0008075
1274.0,0.0008106
1275.0,0.0008233
1276.0,0.0008327
1277.0,0.0008405
1278.0,0.000862
1279.0,0.0008515
1280.0,0.0008382
1281.0,0.0008012
1282.0,0.0007761
1283.0,0.0008319
1284.0,0.0008479
1285.0,0.000852
1286.0,0.0008644
1287.0,0.0008417
1288.0,0.000841
1289.0,0.0007993
1290.0,0.0008289
1291.0,0.00084
1292.0,0.0007647
1293.0,0.0008132
1294.0,0.0008039
1295.0,0.0007907
1296.0,0.0007397
1297.0,0.0006882
1298.0,0.0007582
1299.0,0.0008009
1300.0,0.0006423
1301.0,0.0006655
1302.0,0.0007478
1303.0,0.0006299
1304.0,0.0005112
1305.0,0.0007228
1306.0,0.000718
1307.0,0.0005238
1308.0,0.000624
1309.0,0.0007017
1310.0,0.0005067
1311.0,0.0005865
1312.0,0.0005672
1313.0,0.0005477
1314.0,0.0004772
1315.0,0.0004675
1316.0,0.0005651
1317.0,0.0005277
1318.0,0.0005843
1319.0,0.0004268
1320.0,0.0004139
1321.0,0.0004939
1322.0,0.000494
1323.0,0.0003497
1324.0,0.0004126
1325.0,0.0005381
1326.0,0.0004458
1327.0,0.0004196
1328.0,0.0003521
1329.0,0.0002503
1330.0,0.0003347
1331.0,0.0001888
1332.0,0.0001962
1333.0,0.0002775
1334.0,0.0002381
1335.0,0.0003346
1336.0,0.000255
1337.0,0.0002229
1338.0,0.0002408
1339.0,0.0002399
1340.0,0.0002344
1341.0,0.0002225
1342.0,0.0002344
1343.0,0.0001503
1344.0,8.923e-05
1345.0,0.0001287
1346.0,6.167e-05
1347.0,6.234e-05
1348.0,3.984e-06
1349.0,1.43e-05
1350.0,1.483e-05
