interpolation:linear
wavelength,value
280.0,8.774999999999999e-22
280.5,2.8330000000000004e-20
281.0,1.509e-19
281.5,5.266e-19
282.0,9.094e-19
282.5,2.254e-18
283.0,7.096e-18
283.5,1.152e-17
284.0,1.868e-16
284.5,5.409e-16
285.0,1.03e-15
285.5,4.996e-15
286.0,1.999e-14
286.5,8.872e-14
287.0,2.523e-13
287.5,9.623e-13
288.0,3.032e-12
288.5,9.404e-12
289.0,2.542e-11
289.5,7.753e-11
290.0,2.163e-10
290.5,4.425e-10
291.0,9.521e-10
291.5,2.737e-09
292.0,5.879e-09
292.5,8.368e-09
293.0,1.825e-08
293.5,4.532e-08
294.0,7.177e-08
294.5,9.468e-08
295.0,1.617e-07
295.5,3.475e-07
296.0,6.304e-07
296.5,9.021e-07
297.0,1.247e-06
297.5,3.475e-06
298.0,5.694e-06
298.5,5.928e-06
299.0,1.358e-05
299.5,2.444e-05
300.0,2.834e-05
300.5,4.366e-05
301.0,8.91e-05
301.5,0.0001627
302.0,0.0001511
302.5,0.0002986
303.0,0.0005451
303.5,0.0006965
304.0,0.0006672
304.5,0.001053
305.0,0.001731
305.5,0.002088
306.0,0.00206
306.5,0.002652
307.0,0.004255
307.5,0.00611
308.0,0.006521
308.5,0.007995
309.0,0.008183
309.5,0.009672
310.0,0.009856
310.5,0.01606
311.0,0.02039
311.5,0.01975
312.0,0.02034
312.5,0.02523
313.0,0.02761
313.5,0.02644
314.0,0.03388
314.5,0.03112
315.0,0.04105
315.5,0.03359
316.0,0.0302
316.5,0.04448
317.0,0.05503
317.5,0.05663
318.0,0.04492
318.5,0.05783
319.0,0.06982
319.5,0.05492
320.0,0.06584
320.5,0.08559
321.0,0.07897
321.5,0.07579
322.0,0.07726
322.5,0.06714
323.0,0.06849
323.5,0.08602
324.0,0.1005
324.5,0.1008
325.0,0.08554
325.5,0.1122
326.0,0.1374
326.5,0.139
327.0,0.1374
327.5,0.1315
328.0,0.1149
328.5,0.1228
329.0,0.1492
329.5,0.1699
330.0,0.1701
330.5,0.1337
331.0,0.1352
331.5,0.1384
332.0,0.1515
332.5,0.1506
333.0,0.149
333.5,0.1328
334.0,0.1354
334.5,0.1579
335.0,0.1492
335.5,0.1757
336.0,0.1212
336.5,0.1393
337.0,0.1132
337.5,0.1401
338.0,0.1381
338.5,0.1605
339.0,0.158
339.5,0.1518
340.0,0.1762
340.5,0.1586
341.0,0.1552
341.5,0.1415
342.0,0.1685
342.5,0.157
343.0,0.1725
343.5,0.1622
344.0,0.119
344.5,0.1208
345.0,0.1585
345.5,0.1611
346.0,0.1363
346.5,0.1538
347.0,0.1648
347.5,0.133
348.0,0.1508
348.5,0.1502
349.0,0.1388
349.5,0.137
350.0,0.1689
350.5,0.1776
351.0,0.1583
351.5,0.1537
352.0,0.1643
352.5,0.1277
353.0,0.1602
353.5,0.1708
354.0,0.1767
354.5,0.1786
355.0,0.1774
355.5,0.1598
356.0,0.1666
356.5,0.1418
357.0,0.1168
357.5,0.1425
358.0,0.1126
358.5,0.09587
359.0,0.1337
359.5,0.1698
360.0,0.1794
360.5,0.1429
361.0,0.1298
361.5,0.149
362.0,0.1285
362.5,0.1772
363.0,0.1586
363.5,0.1457
364.0,0.1776
364.5,0.1513
365.0,0.1536
365.5,0.1921
366.0,0.2029
366.5,0.19
367.0,0.1844
367.5,0.1907
368.0,0.1664
368.5,0.1673
369.0,0.1801
369.5,0.1913
370.0,0.2033
370.5,0.1573
371.0,0.1675
371.5,0.2088
372.0,0.1381
372.5,0.1651
373.0,0.1674
373.5,0.1085
374.0,0.1572
374.5,0.1298
375.0,0.1257
375.5,0.1871
376.0,0.1545
376.5,0.1596
377.0,0.1684
377.5,0.1964
378.0,0.2122
378.5,0.1998
379.0,0.1643
379.5,0.1496
380.0,0.1549
380.5,0.187
381.0,0.1867
381.5,0.1475
382.0,0.1305
382.5,0.1109
383.0,0.1023
383.5,0.09819
384.0,0.1079
384.5,0.1582
385.0,0.1564
385.5,0.1451
386.0,0.1239
386.5,0.1621
387.0,0.1343
387.5,0.1503
388.0,0.1383
388.5,0.1362
389.0,0.1465
389.5,0.1768
390.0,0.1768
390.5,0.1621
391.0,0.1902
391.5,0.1933
392.0,0.1622
392.5,0.1447
393.0,0.08025
393.5,0.05813
394.0,0.1179
394.5,0.1494
395.0,0.1816
395.5,0.1839
396.0,0.1588
396.5,0.09253
397.0,0.0692
397.5,0.1402
398.0,0.1957
398.5,0.2016
399.0,0.2175
399.5,0.216
400.0,0.2236
401.0,0.2196
402.0,0.23
403.0,0.217
404.0,0.2121
405.0,0.2106
406.0,0.2057
407.0,0.2009
408.0,0.2072
409.0,0.2202
410.0,0.1911
411.0,0.2055
412.0,0.2192
413.0,0.2123
414.0,0.2134
415.0,0.2124
416.0,0.2145
417.0,0.2077
418.0,0.2023
419.0,0.2035
420.0,0.2011
421.0,0.2088
422.0,0.197
423.0,0.1909
424.0,0.2004
425.0,0.1985
426.0,0.192
427.0,0.1871
428.0,0.181
429.0,0.1703
430.0,0.1479
431.0,0.1455
432.0,0.1864
433.0,0.186
434.0,0.1715
435.0,0.1778
436.0,0.199
437.0,0.1949
438.0,0.1762
439.0,0.1809
440.0,0.1852
441.0,0.1904
442.0,0.2026
443.0,0.1959
444.0,0.1988
445.0,0.1931
446.0,0.1831
447.0,0.1965
448.0,0.198
449.0,0.1973
450.0,0.2012
451.0,0.2071
452.0,0.1981
453.0,0.185
454.0,0.1918
455.0,0.1915
456.0,0.1945
457.0,0.1961
458.0,0.1878
459.0,0.1853
460.0,0.1843
461.0,0.187
462.0,0.1872
463.0,0.1847
464.0,0.1806
465.0,0.1772
466.0,0.1777
467.0,0.1731
468.0,0.1737
469.0,0.1731
470.0,0.1664
471.0,0.165
472.0,0.1727
473.0,0.1692
474.0,0.1682
475.0,0.1682
476.0,0.1618
477.0,0.1608
478.0,0.1638
479.0,0.1613
480.0,0.1603
481.0,0.1617
482.0,0.1613
483.0,0.1583
484.0,0.154
485.0,0.1459
486.0,0.1267
487.0,0.1319
488.0,0.1436
489.0,0.1429
490.0,0.1492
491.0,0.1455
492.0,0.1363
493.0,0.1397
494.0,0.1401
495.0,0.1403
496.0,0.1401
497.0,0.1411
498.0,0.1333
499.0,0.1338
500.0,0.1286
501.0,0.1251
502.0,0.1221
503.0,0.1259
504.0,0.1215
505.0,0.125
506.0,0.1281
507.0,0.121
508.0,0.1166
509.0,0.1191
510.0,0.1178
511.0,0.1201
512.0,0.1206
513.0,0.1132
514.0,0.1116
515.0,0.1096
516.0,0.1086
517.0,0.09576
518.0,0.09994
519.0,0.104
520.0,0.107
521.0,0.1071
522.0,0.1063
523.0,0.1036
524.0,0.1065
525.0,0.1068
526.0,0.1012
527.0,0.09445
528.0,0.09899
529.0,0.1035
530.0,0.1012
531.0,0.1019
532.0,0.09766
533.0,0.09414
534.0,0.09627
535.0,0.09774
536.0,0.09801
537.0,0.09351
538.0,0.09451
539.0,0.09309
540.0,0.08864
541.0,0.08854
542.0,0.09057
543.0,0.08895
544.0,0.08987
545.0,0.08902
546.0,0.08875
547.0,0.08808
548.0,0.08642
549.0,0.0861
550.0,0.08653
551.0,0.08487
552.0,0.08486
553.0,0.08274
554.0,0.08412
555.0,0.08368
556.0,0.08196
557.0,0.07879
558.0,0.07754
559.0,0.07546
560.0,0.07577
561.0,0.07611
562.0,0.07493
563.0,0.07635
564.0,0.07371
565.0,0.07253
566.0,0.07093
567.0,0.07171
568.0,0.07051
569.0,0.06826
570.0,0.06777
571.0,0.0669
572.0,0.06795
573.0,0.06822
574.0,0.06759
575.0,0.06592
576.0,0.06494
577.0,0.06528
578.0,0.06397
579.0,0.06393
580.0,0.06486
581.0,0.06488
582.0,0.06578
583.0,0.06564
584.0,0.06589
585.0,0.06394
586.0,0.06223
587.0,0.06315
588.0,0.06114
589.0,0.05362
590.0,0.05576
591.0,0.05876
592.0,0.05755
593.0,0.05807
594.0,0.05719
595.0,0.0553
596.0,0.05725
597.0,0.05619
598.0,0.05567
599.0,0.05534
600.0,0.05509
601.0,0.05432
602.0,0.05364
603.0,0.05421
604.0,0.05481
605.0,0.05426
606.0,0.05379
607.0,0.0541
608.0,0.05326
609.0,0.05312
610.0,0.05253
611.0,0.05259
612.0,0.05222
613.0,0.05134
614.0,0.05042
615.0,0.0513
616.0,0.0494
617.0,0.04909
618.0,0.05075
619.0,0.05001
620.0,0.05009
621.0,0.04988
622.0,0.04904
623.0,0.04802
624.0,0.04697
625.0,0.04666
626.0,0.04713
627.0,0.0474
628.0,0.0436
629.0,0.04566
630.0,0.04437
631.0,0.0453
632.0,0.04458
633.0,0.0458
634.0,0.04521
635.0,0.04572
636.0,0.04493
637.0,0.04548
638.0,0.04575
639.0,0.04505
640.0,0.04443
641.0,0.0442
642.0,0.04384
643.0,0.04425
644.0,0.04393
645.0,0.04378
646.0,0.04249
647.0,0.04168
648.0,0.0415
649.0,0.0405
650.0,0.04065
651.0,0.04223
652.0,0.0401
653.0,0.04129
654.0,0.04066
655.0,0.03886
656.0,0.03434
657.0,0.03512
658.0,0.03924
659.0,0.03936
660.0,0.03934
661.0,0.03943
662.0,0.03931
663.0,0.03838
664.0,0.0387
665.0,0.03858
666.0,0.03845
667.0,0.03826
668.0,0.03813
669.0,0.03855
670.0,0.0382
671.0,0.03803
672.0,0.03757
673.0,0.03801
674.0,0.03769
675.0,0.03718
676.0,0.03727
677.0,0.03675
678.0,0.03671
679.0,0.03596
680.0,0.03608
681.0,0.03568
682.0,0.03547
683.0,0.03523
684.0,0.03488
685.0,0.03501
686.0,0.03464
687.0,0.02146
688.0,0.02564
689.0,0.02563
690.0,0.02697
691.0,0.02854
692.0,0.02968
693.0,0.02927
694.0,0.02886
695.0,0.03011
696.0,0.03
697.0,0.03203
698.0,0.03139
699.0,0.0303
700.0,0.02979
701.0,0.02931
702.0,0.02945
703.0,0.02937
704.0,0.03027
705.0,0.03016
706.0,0.03004
707.0,0.02994
708.0,0.02986
709.0,0.02981
710.0,0.02963
711.0,0.02951
712.0,0.02934
713.0,0.02888
714.0,0.02884
715.0,0.02772
716.0,0.02759
717.0,0.02322
718.0,0.02105
719.0,0.01904
720.0,0.0199
721.0,0.02223
722.0,0.02585
723.0,0.02366
724.0,0.02091
725.0,0.02044
726.0,0.02141
727.0,0.02167
728.0,0.02011
729.0,0.02095
730.0,0.02214
731.0,0.02098
732.0,0.02258
733.0,0.02402
734.0,0.02453
735.0,0.02387
736.0,0.02374
737.0,0.02371
738.0,0.0241
739.0,0.0235
740.0,0.02404
741.0,0.02371
742.0,0.02364
743.0,0.02412
744.0,0.02394
745.0,0.02384
746.0,0.02383
747.0,0.02377
748.0,0.0236
749.0,0.02322
750.0,0.0231
751.0,0.02277
752.0,0.02277
753.0,0.02278
754.0,0.02272
755.0,0.0225
756.0,0.02239
757.0,0.02232
758.0,0.02194
759.0,0.02132
760.0,0.002925
761.0,0.001508
762.0,0.009648
763.0,0.004491
764.0,0.006939
765.0,0.009501
766.0,0.01202
767.0,0.01562
768.0,0.01843
769.0,0.01885
770.0,0.01954
771.0,0.01967
772.0,0.01963
773.0,0.01967
774.0,0.01947
775.0,0.01923
776.0,0.01937
777.0,0.01902
778.0,0.01881
779.0,0.01872
780.0,0.01853
781.0,0.01847
782.0,0.01851
783.0,0.01811
784.0,0.01812
785.0,0.0179
786.0,0.01802
787.0,0.01757
788.0,0.01725
789.0,0.01715
790.0,0.01654
791.0,0.01668
792.0,0.01649
793.0,0.01614
794.0,0.01643
795.0,0.01661
796.0,0.01592
797.0,0.01587
798.0,0.01636
799.0,0.01617
800.0,0.01578
801.0,0.01563
802.0,0.01552
803.0,0.01532
804.0,0.01528
805.0,0.01519
806.0,0.01559
807.0,0.01531
808.0,0.01526
809.0,0.01487
810.0,0.01464
811.0,0.01456
812.0,0.01399
813.0,0.01359
814.0,0.01165
815.0,0.01152
816.0,0.01057
817.0,0.01074
818.0,0.01026
819.0,0.01164
820.0,0.01083
821.0,0.01295
822.0,0.01246
823.0,0.007929
824.0,0.01191
825.0,0.01247
826.0,0.01185
827.0,0.01258
828.0,0.01032
829.0,0.01165
830.0,0.01142
831.0,0.01142
832.0,0.01096
833.0,0.0118
834.0,0.01125
835.0,0.0125
836.0,0.01179
837.0,0.01243
838.0,0.01194
839.0,0.01214
840.0,0.01237
841.0,0.01211
842.0,0.01212
843.0,0.01209
844.0,0.01185
845.0,0.01222
846.0,0.01212
847.0,0.01185
848.0,0.0117
849.0,0.01132
850.0,0.01079
851.0,0.01136
852.0,0.01123
853.0,0.01077
854.0,0.009245
855.0,0.01013
856.0,0.01102
857.0,0.01123
858.0,0.0111
859.0,0.01107
860.0,0.01105
861.0,0.01094
862.0,0.01108
863.0,0.0113
864.0,0.01069
865.0,0.01055
866.0,0.009451
867.0,0.009822
868.0,0.01065
869.0,0.01038
870.0,0.01063
871.0,0.01045
872.0,0.01037
873.0,0.0103
874.0,0.01013
875.0,0.009884
876.0,0.009942
877.0,0.01
878.0,0.01006
879.0,0.009869
880.0,0.009616
881.0,0.009426
882.0,0.00959
883.0,0.009588
884.0,0.009498
885.0,0.009526
886.0,0.009016
887.0,0.009095
888.0,0.009177
889.0,0.009265
890.0,0.009119
891.0,0.009081
892.0,0.008753
893.0,0.008397
894.0,0.007988
895.0,0.007418
896.0,0.006874
897.0,0.005731
898.0,0.006319
899.0,0.00458
900.0,0.006488
901.0,0.004825
902.0,0.005813
903.0,0.005805
904.0,0.007605
905.0,0.007264
906.0,0.006718
907.0,0.005217
908.0,0.005337
909.0,0.005862
910.0,0.005016
911.0,0.005409
912.0,0.005672
913.0,0.005028
914.0,0.004975
915.0,0.005432
916.0,0.004471
917.0,0.005895
918.0,0.004565
919.0,0.005976
920.0,0.006065
921.0,0.006345
922.0,0.005526
923.0,0.006083
924.0,0.005626
925.0,0.005464
926.0,0.005517
927.0,0.006264
928.0,0.004286
929.0,0.003835
930.0,0.002883
931.0,0.002708
932.0,0.001851
933.0,0.00146
934.0,0.0007452
935.0,0.001496
936.0,0.0008852
937.0,0.0008925
938.0,0.001113
939.0,0.002533
940.0,0.003127
941.0,0.002255
942.0,0.002653
943.0,0.001643
944.0,0.001755
945.0,0.002293
946.0,0.00107
947.0,0.002276
948.0,0.001614
949.0,0.003155
950.0,0.0007465
951.0,0.003088
952.0,0.001513
953.0,0.002019
954.0,0.002559
955.0,0.002041
956.0,0.001983
957.0,0.001485
958.0,0.002937
959.0,0.002225
960.0,0.002519
961.0,0.002883
962.0,0.002699
963.0,0.003184
964.0,0.002865
965.0,0.003149
966.0,0.003134
967.0,0.003099
968.0,0.004429
969.0,0.004623
970.0,0.004164
971.0,0.004902
972.0,0.004625
973.0,0.003882
974.0,0.003643
975.0,0.003799
976.0,0.003542
977.0,0.00415
978.0,0.003874
979.0,0.004089
980.0,0.003783
981.0,0.00469
982.0,0.004418
983.0,0.004193
984.0,0.004833
985.0,0.004353
986.0,0.004913
987.0,0.004765
988.0,0.004737
989.0,0.004861
990.0,0.004674
991.0,0.004827
992.0,0.004841
993.0,0.004684
994.0,0.004809
995.0,0.00479
996.0,0.004745
997.0,0.004737
998.0,0.004696
999.0,0.004663
1000.0,0.004606
1001.0,0.004655
1002.0,0.004476
1003.0,0.004536
1004.0,0.004398
1005.0,0.004233
1006.0,0.004374
1007.0,0.004453
1008.0,0.004406
1009.0,0.00436
1010.0,0.004322
1011.0,0.004365
1012.0,0.004304
1013.0,0.004324
1014.0,0.004278
1015.0,0.004233
1016.0,0.004196
1017.0,0.004189
1018.0,0.004161
1019.0,0.004044
1020.0,0.004105
1021.0,0.004086
1022.0,0.004034
1023.0,0.004061
1024.0,0.003981
1025.0,0.004033
1026.0,0.003997
1027.0,0.003973
1028.0,0.003949
1029.0,0.003887
1030.0,0.003904
1031.0,0.003871
1032.0,0.003846
1033.0,0.003774
1034.0,0.00376
1035.0,0.003757
1036.0,0.00376
1037.0,0.003686
1038.0,0.003688
1039.0,0.003673
1040.0,0.003644
1041.0,0.003643
1042.0,0.003604
1043.0,0.003579
1044.0,0.003578
1045.0,0.003516
1046.0,0.003463
1047.0,0.00348
1048.0,0.003486
1049.0,0.003461
1050.0,0.003431
1051.0,0.003412
1052.0,0.003385
1053.0,0.003345
1054.0,0.003339
1055.0,0.003327
1056.0,0.003301
1057.0,0.003278
1058.0,0.003185
1059.0,0.003175
1060.0,0.003158
1061.0,0.003141
1062.0,0.003144
1063.0,0.003101
1064.0,0.003128
1065.0,0.00309
1066.0,0.003021
1067.0,0.003047
1068.0,0.002967
1069.0,0.002866
1070.0,0.00295
1071.0,0.002994
1072.0,0.002941
1073.0,0.002891
1074.0,0.002966
1075.0,0.00278
1076.0,0.00294
1077.0,0.002861
1078.0,0.002791
1079.0,0.002865
1080.0,0.002782
1081.0,0.002676
1082.0,0.002731
1083.0,0.002734
1084.0,0.00263
1085.0,0.002745
1086.0,0.002446
1087.0,0.002555
1088.0,0.002676
1089.0,0.002561
1090.0,0.002474
1091.0,0.002631
1092.0,0.002621
1093.0,0.002137
1094.0,0.002373
1095.0,0.002227
1096.0,0.002102
1097.0,0.002518
1098.0,0.002049
1099.0,0.00214
1100.0,0.001947
1101.0,0.001976
1102.0,0.001864
1103.0,0.001826
1104.0,0.001824
1105.0,0.00204
1106.0,0.001454
1107.0,0.001901
1108.0,0.001542
1109.0,0.001545
1110.0,0.001857
1111.0,0.001161
1112.0,0.00152
1113.0,0.0008833
1114.0,0.000997
1115.0,0.000806
1116.0,0.0006136
1117.0,0.0001996
1118.0,0.0006723
1119.0,0.0003052
1120.0,0.0003877
1121.0,0.0005292
1122.0,0.0002028
1123.0,0.0003444
1124.0,0.0002866
1125.0,0.0003821
1126.0,0.0001194
1127.0,0.000432
1128.0,0.0002415
1129.0,0.0002572
1130.0,0.0001631
1131.0,0.000883
1132.0,0.0006681
1133.0,0.000394
1134.0,8.942e-05
1135.0,3.281e-05
1136.0,0.0003172
1137.0,0.0008433
1138.0,0.00057
1139.0,0.0009134
1140.0,0.0007342
1141.0,0.000534
1142.0,0.0006253
1143.0,0.0009314
1144.0,0.0002837
1145.0,0.0003638
1146.0,0.0003928
1147.0,0.0001243
1148.0,0.0007784
1149.0,0.0005972
1150.0,0.0003017
1151.0,0.0005403
1152.0,0.0006864
1153.0,0.000672
1154.0,0.0003407
1155.0,0.0009067
1156.0,0.0007981
1157.0,0.0009156
1158.0,0.0009014
1159.0,0.0009883
1160.0,0.0008185
1161.0,0.001051
1162.0,0.001048
1163.0,0.001505
1164.0,0.001248
1165.0,0.001152
1166.0,0.001148
1167.0,0.001266
1168.0,0.001275
1169.0,0.001313
1170.0,0.001445
1171.0,0.001397
1172.0,0.001427
1173.0,0.001426
1174.0,0.0009493
1175.0,0.00139
1176.0,0.001554
1177.0,0.001468
1178.0,0.001041
1179.0,0.001552
1180.0,0.001343
1181.0,0.001389
1182.0,0.0008927
1183.0,0.001367
1184.0,0.001253
1185.0,0.001192
1186.0,0.001463
1187.0,0.001373
1188.0,0.0008931
1189.0,0.001263
1190.0,0.001408
1191.0,0.001311
1192.0,0.001423
1193.0,0.001347
1194.0,0.001393
1195.0,0.001298
1196.0,0.001235
1197.0,0.001393
1198.0,0.001251
1199.0,0.001025
1200.0,0.001304
1201.0,0.001241
1202.0,0.001234
1203.0,0.001225
1204.0,0.001037
1205.0,0.001262
1206.0,0.001419
1207.0,0.001213
1208.0,0.001201
1209.0,0.001223
1210.0,0.00128
1211.0,0.001201
1212.0,0.001172
1213.0,0.001336
1214.0,0.0012
1215.0,0.001169
1216.0,0.00132
1217.0,0.001273
1218.0,0.0013
1219.0,0.001277
1220.0,0.001293
1221.0,0.001306
1222.0,0.001262
1223.0,0.001244
1224.0,0.001228
1225.0,0.001281
1226.0,0.00129
1227.0,0.001168
1228.0,0.001291
1229.0,0.001278
1230.0,0.001248
1231.0,0.00129
1232.0,0.001278
1233.0,0.001217
1234.0,0.001279
1235.0,0.001265
1236.0,0.001272
1237.0,0.001245
1238.0,0.001259
1239.0,0.001239
1240.0,0.00124
1241.0,0.001227
1242.0,0.001223
1243.0,0.001209
1244.0,0.001213
1245.0,0.001215
1246.0,0.001204
1247.0,0.001195
1248.0,0.001188
1249.0,0.00119
1250.0,0.001178
1251.0,0.001157
1252.0,0.001156
1253.0,0.001139
1254.0,0.00112
1255.0,0.001143
1256.0,0.001099
1257.0,0.001088
1258.0,0.001111
1259.0,0.001056
1260.0,0.00106
1261.0,0.0009828
1262.0,0.0009433
1263.0,0.000942
1264.0,0.000851
1265.0,0.0009309
1266.0,0.0008836
1267.0,0.0009029
1268.0,0.0008433
1269.0,0.0004681
1270.0,0.0008897
1271.0,0.0009542
1272.0,0.0009559
1273.0,0.0009412
1274.0,0.0009433
1275.0,0.0009566
1276.0,0.0009655
1277.0,0.0009716
1278.0,0.0009931
1279.0,0.0009805
1280.0,0.0009653
1281.0,0.0009209
1282.0,0.0008889
1283.0,0.0009535
1284.0,0.0009722
1285.0,0.0009763
1286.0,0.0009889
1287.0,0.0009659
1288.0,0.0009638
1289.0,0.0009219
1290.0,0.0009498
1291.0,0.0009614
1292.0,0.0008842
1293.0,0.0009325
1294.0,0.000922
1295.0,0.0009114
1296.0,0.000857
1297.0,0.0007994
1298.0,0.0008742
1299.0,0.0009177
1300.0,0.0007447
1301.0,0.0007714
1302.0,0.0008618
1303.0,0.0007298
1304.0,0.0005977
1305.0,0.0008328
1306.0,0.0008296
1307.0,0.0006097
1308.0,0.0007209
1309.0,0.0008138
1310.0,0.0005908
1311.0,0.0006792
1312.0,0.0006574
1313.0,0.0006381
1314.0,0.0005567
1315.0,0.0005474
1316.0,0.0006564
1317.0,0.0006134
1318.0,0.000677
1319.0,0.0004993
1320.0,0.0004822
1321.0,0.0005756
1322.0,0.0005784
1323.0,0.0004106
1324.0,0.0004815
1325.0,0.0006271
1326.0,0.0005205
1327.0,0.0004904
1328.0,0.0004114
1329.0,0.0002927
1330.0,0.0003939
1331.0,0.0002189
1332.0,0.0002279
1333.0,0.000328
1334.0,0.0002753
1335.0,0.0003944
1336.0,0.000299
1337.0,0.000259
1338.0,0.0002816
1339.0,0.0002806
1340.0,0.0002726
1341.0,0.0002609
1342.0,0.000275
1343.0,0.0001732
1344.0,0.0001001
1345.0,0.0001476
1346.0,6.785e-05
1347.0,6.847e-05
1348.0,4.1e-06
1349.0,1.493e-05
1350.0,1.554e-05
1351.0,3.672e-06
1352.0,9.811e-07
1353.0,4.982e-08
1354.0,1.713e-07
1355.0,1.378e-09
1356.0,2.413e-08
1357.0,3.666e-08
1358.0,1.618e-09
1359.0,2.038e-10
