interpolation:linear
wavelength,value
280.0,2.9630000000000002e-21
280.5,9.285000000000001e-20
281.0,4.899e-19
281.5,3.239e-19
282.0,1.01e-18
282.5,2.693e-18
283.0,8.786e-18
283.5,1.442e-17
284.0,2.367e-16
284.5,6.844e-16
285.0,1.562e-15
285.5,7.589e-15
286.0,3.035e-14
286.5,1.338e-13
287.0,3.786e-13
287.5,1.431e-12
288.0,3.796e-12
288.5,1.264e-11
289.0,3.596e-11
289.5,1.14e-10
290.0,3.26e-10
290.5,6.781e-10
291.0,1.483e-09
291.5,4.325e-09
292.0,9.374e-09
292.5,1.408e-08
293.0,3.288e-08
293.5,8.952e-08
294.0,1.512e-07
294.5,1.897e-07
295.0,3.427e-07
295.5,8.704e-07
296.0,1.706e-06
296.5,2.431e-06
297.0,3.35e-06
297.5,9.305e-06
298.0,1.521e-05
298.5,1.581e-05
299.0,3.617e-05
299.5,6.509e-05
300.0,7.554e-05
300.5,0.0001166
301.0,0.0002394
301.5,0.0004415
302.0,0.0004132
302.5,0.0007993
303.0,0.001418
303.5,0.001774
304.0,0.001671
304.5,0.002522
305.0,0.003895
305.5,0.00451
306.0,0.004375
306.5,0.005482
307.0,0.008285
307.5,0.01122
308.0,0.01185
308.5,0.0141
309.0,0.01423
309.5,0.01613
310.0,0.01612
310.5,0.02601
311.0,0.0325
311.5,0.03126
312.0,0.03115
312.5,0.03781
313.0,0.0409
313.5,0.03954
314.0,0.04938
314.5,0.04385
315.0,0.05748
315.5,0.04775
316.0,0.04177
316.5,0.06011
317.0,0.07435
317.5,0.07695
318.0,0.06007
318.5,0.07503
319.0,0.0892
319.5,0.07182
320.0,0.08635
320.5,0.1089
321.0,0.09771
321.5,0.09346
322.0,0.098
322.5,0.08499
323.0,0.08502
323.5,0.1055
324.0,0.1228
324.5,0.124
325.0,0.1056
325.5,0.1363
326.0,0.1672
326.5,0.1675
327.0,0.166
327.5,0.1595
328.0,0.1409
328.5,0.1483
329.0,0.1781
329.5,0.2018
330.0,0.2025
330.5,0.1607
331.0,0.1629
331.5,0.1655
332.0,0.1792
332.5,0.1772
333.0,0.1757
333.5,0.1577
334.0,0.1608
334.5,0.1859
335.0,0.1747
335.5,0.2065
336.0,0.1424
336.5,0.1632
337.0,0.1331
337.5,0.1648
338.0,0.1611
338.5,0.1877
339.0,0.1844
339.5,0.1772
340.0,0.2051
340.5,0.1843
341.0,0.1808
341.5,0.1644
342.0,0.1955
342.5,0.182
343.0,0.2001
343.5,0.1882
344.0,0.1377
344.5,0.1403
345.0,0.1835
345.5,0.1861
346.0,0.1574
346.5,0.1774
347.0,0.1902
347.5,0.1534
348.0,0.1736
348.5,0.1726
349.0,0.1595
349.5,0.1574
350.0,0.1939
350.5,0.2038
351.0,0.1816
351.5,0.1766
352.0,0.1884
352.5,0.1462
353.0,0.1833
353.5,0.1952
354.0,0.2018
354.5,0.2039
355.0,0.2025
355.5,0.1822
356.0,0.1899
356.5,0.1615
357.0,0.133
357.5,0.1621
358.0,0.128
358.5,0.109
359.0,0.1518
359.5,0.1929
360.0,0.2037
360.5,0.1621
361.0,0.1472
361.5,0.1689
362.0,0.1455
362.5,0.2006
363.0,0.1795
363.5,0.1647
364.0,0.2007
364.5,0.1709
365.0,0.1734
365.5,0.2168
366.0,0.2288
366.5,0.2142
367.0,0.2078
367.5,0.2149
368.0,0.1873
368.5,0.1883
369.0,0.2026
369.5,0.2151
370.0,0.2285
370.5,0.1767
371.0,0.1881
371.5,0.2344
372.0,0.155
372.5,0.1851
373.0,0.1876
373.5,0.1216
374.0,0.176
374.5,0.1452
375.0,0.1407
375.5,0.2092
376.0,0.1728
376.5,0.1784
377.0,0.1881
377.5,0.2193
378.0,0.2368
378.5,0.2229
379.0,0.1832
379.5,0.1667
380.0,0.1726
380.5,0.2082
381.0,0.2078
381.5,0.1641
382.0,0.1451
382.5,0.1232
383.0,0.1136
383.5,0.109
384.0,0.1198
384.5,0.1756
385.0,0.1734
385.5,0.1609
386.0,0.1373
386.5,0.1796
387.0,0.1487
387.5,0.1663
388.0,0.153
388.5,0.1506
389.0,0.162
389.5,0.1954
390.0,0.1953
390.5,0.1791
391.0,0.2099
391.5,0.2133
392.0,0.1789
392.5,0.1596
393.0,0.08844
393.5,0.06404
394.0,0.1298
394.5,0.1644
395.0,0.1999
395.5,0.2023
396.0,0.1747
396.5,0.1017
397.0,0.07604
397.5,0.154
398.0,0.2148
398.5,0.2212
399.0,0.2387
399.5,0.237
400.0,0.2451
401.0,0.2408
402.0,0.252
403.0,0.2375
404.0,0.232
405.0,0.2302
406.0,0.2247
407.0,0.2193
408.0,0.226
409.0,0.2401
410.0,0.2083
411.0,0.2239
412.0,0.2386
413.0,0.2309
414.0,0.232
415.0,0.2308
416.0,0.2329
417.0,0.2254
418.0,0.2195
419.0,0.2206
420.0,0.2179
421.0,0.2261
422.0,0.2132
423.0,0.2066
424.0,0.2167
425.0,0.2145
426.0,0.2074
427.0,0.202
428.0,0.1953
429.0,0.1836
430.0,0.1595
431.0,0.1568
432.0,0.2008
433.0,0.2003
434.0,0.1845
435.0,0.1912
436.0,0.2139
437.0,0.2095
438.0,0.1893
439.0,0.1943
440.0,0.1989
441.0,0.2044
442.0,0.2174
443.0,0.2102
444.0,0.2131
445.0,0.207
446.0,0.1961
447.0,0.2104
448.0,0.2119
449.0,0.211
450.0,0.2152
451.0,0.2214
452.0,0.2117
453.0,0.1976
454.0,0.2048
455.0,0.2044
456.0,0.2076
457.0,0.2093
458.0,0.2005
459.0,0.1978
460.0,0.1967
461.0,0.1996
462.0,0.1997
463.0,0.197
464.0,0.1925
465.0,0.1888
466.0,0.1892
467.0,0.1843
468.0,0.1849
469.0,0.1842
470.0,0.177
471.0,0.1756
472.0,0.1837
473.0,0.1799
474.0,0.1787
475.0,0.1788
476.0,0.172
477.0,0.171
478.0,0.1743
479.0,0.1717
480.0,0.1705
481.0,0.1721
482.0,0.1717
483.0,0.1683
484.0,0.1637
485.0,0.1549
486.0,0.1345
487.0,0.14
488.0,0.1524
489.0,0.1516
490.0,0.1583
491.0,0.1544
492.0,0.1447
493.0,0.1483
494.0,0.1487
495.0,0.1489
496.0,0.1486
497.0,0.1497
498.0,0.1416
499.0,0.1421
500.0,0.1368
501.0,0.133
502.0,0.13
503.0,0.134
504.0,0.1295
505.0,0.1332
506.0,0.1365
507.0,0.129
508.0,0.1241
509.0,0.1268
510.0,0.1253
511.0,0.1278
512.0,0.1282
513.0,0.1204
514.0,0.1187
515.0,0.1167
516.0,0.1155
517.0,0.1019
518.0,0.1064
519.0,0.1107
520.0,0.1139
521.0,0.1141
522.0,0.1133
523.0,0.1104
524.0,0.1135
525.0,0.1139
526.0,0.108
527.0,0.1009
528.0,0.1058
529.0,0.1107
530.0,0.1083
531.0,0.1091
532.0,0.1046
533.0,0.1008
534.0,0.1031
535.0,0.1046
536.0,0.1049
537.0,0.1001
538.0,0.1011
539.0,0.09963
540.0,0.09489
541.0,0.09481
542.0,0.09702
543.0,0.0953
544.0,0.09632
545.0,0.09544
546.0,0.09517
547.0,0.09446
548.0,0.09268
549.0,0.09234
550.0,0.09281
551.0,0.09105
552.0,0.09103
553.0,0.08878
554.0,0.09028
555.0,0.08983
556.0,0.08801
557.0,0.08463
558.0,0.08333
559.0,0.08113
560.0,0.08151
561.0,0.08192
562.0,0.08068
563.0,0.08226
564.0,0.07945
565.0,0.07821
566.0,0.0765
567.0,0.07737
568.0,0.07611
569.0,0.07372
570.0,0.07321
571.0,0.07228
572.0,0.07345
573.0,0.07376
574.0,0.07308
575.0,0.07128
576.0,0.0702
577.0,0.07054
578.0,0.06911
579.0,0.06903
580.0,0.07
581.0,0.06998
582.0,0.07091
583.0,0.07073
584.0,0.07099
585.0,0.06887
586.0,0.06702
587.0,0.06801
588.0,0.06588
589.0,0.05784
590.0,0.06015
591.0,0.06336
592.0,0.06209
593.0,0.06264
594.0,0.06173
595.0,0.05974
596.0,0.06182
597.0,0.06072
598.0,0.06017
599.0,0.05982
600.0,0.05955
601.0,0.05873
602.0,0.05798
603.0,0.0586
604.0,0.05923
605.0,0.05861
606.0,0.05809
607.0,0.05838
608.0,0.05745
609.0,0.05726
610.0,0.05659
611.0,0.05662
612.0,0.05619
613.0,0.05521
614.0,0.05419
615.0,0.05511
616.0,0.05304
617.0,0.05268
618.0,0.05445
619.0,0.05363
620.0,0.0537
621.0,0.05347
622.0,0.05255
623.0,0.05146
624.0,0.05031
625.0,0.04996
626.0,0.05046
627.0,0.05074
628.0,0.04678
629.0,0.04889
630.0,0.0475
631.0,0.04843
632.0,0.04764
633.0,0.04892
634.0,0.04826
635.0,0.04878
636.0,0.04791
637.0,0.04847
638.0,0.04873
639.0,0.04797
640.0,0.04728
641.0,0.04702
642.0,0.04661
643.0,0.04703
644.0,0.04668
645.0,0.0465
646.0,0.04514
647.0,0.0443
648.0,0.04408
649.0,0.04302
650.0,0.04312
651.0,0.04479
652.0,0.04256
653.0,0.04376
654.0,0.04308
655.0,0.04118
656.0,0.03637
657.0,0.03719
658.0,0.04152
659.0,0.04164
660.0,0.04161
661.0,0.04169
662.0,0.04157
663.0,0.04057
664.0,0.04089
665.0,0.04074
666.0,0.04059
667.0,0.04038
668.0,0.04022
669.0,0.04065
670.0,0.04027
671.0,0.04008
672.0,0.03959
673.0,0.04004
674.0,0.03969
675.0,0.03914
676.0,0.03923
677.0,0.03867
678.0,0.03862
679.0,0.03783
680.0,0.03795
681.0,0.03752
682.0,0.03729
683.0,0.03704
684.0,0.03666
685.0,0.03679
686.0,0.0364
687.0,0.02288
688.0,0.0272
689.0,0.02718
690.0,0.02855
691.0,0.03014
692.0,0.03128
693.0,0.03085
694.0,0.0304
695.0,0.03166
696.0,0.03154
697.0,0.03361
698.0,0.03293
699.0,0.03182
700.0,0.03128
701.0,0.0308
702.0,0.03093
703.0,0.03083
704.0,0.03175
705.0,0.03164
706.0,0.0315
707.0,0.03139
708.0,0.0313
709.0,0.03124
710.0,0.03106
711.0,0.03092
712.0,0.03074
713.0,0.03026
714.0,0.03021
715.0,0.02905
716.0,0.02892
717.0,0.02446
718.0,0.02216
719.0,0.02003
720.0,0.02096
721.0,0.02336
722.0,0.0271
723.0,0.02483
724.0,0.02198
725.0,0.02149
726.0,0.02252
727.0,0.02275
728.0,0.02115
729.0,0.022
730.0,0.02326
731.0,0.02205
732.0,0.02368
733.0,0.02516
734.0,0.02567
735.0,0.025
736.0,0.02486
737.0,0.02483
738.0,0.0252
739.0,0.02458
740.0,0.02513
741.0,0.02478
742.0,0.0247
743.0,0.0252
744.0,0.02501
745.0,0.0249
746.0,0.02489
747.0,0.02483
748.0,0.02465
749.0,0.02424
750.0,0.02412
751.0,0.02377
752.0,0.02377
753.0,0.02378
754.0,0.02371
755.0,0.02347
756.0,0.02336
757.0,0.02329
758.0,0.02289
759.0,0.02226
760.0,0.003113
761.0,0.001591
762.0,0.01029
763.0,0.004799
764.0,0.007419
765.0,0.01013
766.0,0.01275
767.0,0.01645
768.0,0.0193
769.0,0.01971
770.0,0.0204
771.0,0.02052
772.0,0.02047
773.0,0.02051
774.0,0.02031
775.0,0.02006
776.0,0.02021
777.0,0.01985
778.0,0.01962
779.0,0.01954
780.0,0.01934
781.0,0.01927
782.0,0.0193
783.0,0.01889
784.0,0.01889
785.0,0.01867
786.0,0.01879
787.0,0.01834
788.0,0.018
789.0,0.0179
790.0,0.01728
791.0,0.01741
792.0,0.0172
793.0,0.01684
794.0,0.01712
795.0,0.01731
796.0,0.01661
797.0,0.01657
798.0,0.01706
799.0,0.01686
800.0,0.01646
801.0,0.01631
802.0,0.01619
803.0,0.01598
804.0,0.01594
805.0,0.01584
806.0,0.01625
807.0,0.01597
808.0,0.01591
809.0,0.01551
810.0,0.01528
811.0,0.01521
812.0,0.01463
813.0,0.01422
814.0,0.01222
815.0,0.01208
816.0,0.01108
817.0,0.01126
818.0,0.01076
819.0,0.01219
820.0,0.01134
821.0,0.01353
822.0,0.01302
823.0,0.008324
824.0,0.01246
825.0,0.01302
826.0,0.01238
827.0,0.01313
828.0,0.01081
829.0,0.01216
830.0,0.01193
831.0,0.01193
832.0,0.01146
833.0,0.01232
834.0,0.01176
835.0,0.01303
836.0,0.01231
837.0,0.01296
838.0,0.01246
839.0,0.01266
840.0,0.01289
841.0,0.01263
842.0,0.01263
843.0,0.01259
844.0,0.01234
845.0,0.01273
846.0,0.01262
847.0,0.01233
848.0,0.01219
849.0,0.01179
850.0,0.01125
851.0,0.01184
852.0,0.0117
853.0,0.01122
854.0,0.009636
855.0,0.01055
856.0,0.01148
857.0,0.0117
858.0,0.01157
859.0,0.01153
860.0,0.01151
861.0,0.01139
862.0,0.01153
863.0,0.01176
864.0,0.01113
865.0,0.01099
866.0,0.009837
867.0,0.01022
868.0,0.01108
869.0,0.0108
870.0,0.01107
871.0,0.01087
872.0,0.01079
873.0,0.01072
874.0,0.01055
875.0,0.01029
876.0,0.01035
877.0,0.01041
878.0,0.01047
879.0,0.01027
880.0,0.01001
881.0,0.009812
882.0,0.009984
883.0,0.00998
884.0,0.009887
885.0,0.009917
886.0,0.009392
887.0,0.00947
888.0,0.009558
889.0,0.009645
890.0,0.009498
891.0,0.009456
892.0,0.009123
893.0,0.008758
894.0,0.008346
895.0,0.007768
896.0,0.007196
897.0,0.006012
898.0,0.006624
899.0,0.004806
900.0,0.006791
901.0,0.005072
902.0,0.006089
903.0,0.006091
904.0,0.007946
905.0,0.007593
906.0,0.007026
907.0,0.005475
908.0,0.005597
909.0,0.006142
910.0,0.005271
911.0,0.00567
912.0,0.005948
913.0,0.005285
914.0,0.005224
915.0,0.005714
916.0,0.004694
917.0,0.006187
918.0,0.004797
919.0,0.006264
920.0,0.006338
921.0,0.006638
922.0,0.005793
923.0,0.006362
924.0,0.005905
925.0,0.005732
926.0,0.005793
927.0,0.006565
928.0,0.004522
929.0,0.004053
930.0,0.00305
931.0,0.002861
932.0,0.001958
933.0,0.001543
934.0,0.0007858
935.0,0.001578
936.0,0.0009311
937.0,0.0009392
938.0,0.001174
939.0,0.002678
940.0,0.003305
941.0,0.002388
942.0,0.002808
943.0,0.001734
944.0,0.001845
945.0,0.002425
946.0,0.001127
947.0,0.00241
948.0,0.0017
949.0,0.003346
950.0,0.0007852
951.0,0.003272
952.0,0.001598
953.0,0.002135
954.0,0.002705
955.0,0.002159
956.0,0.002083
957.0,0.001571
958.0,0.003089
959.0,0.002347
960.0,0.002662
961.0,0.00304
962.0,0.002844
963.0,0.003351
964.0,0.003015
965.0,0.003314
966.0,0.003301
967.0,0.003266
968.0,0.004632
969.0,0.004848
970.0,0.004366
971.0,0.005124
972.0,0.004837
973.0,0.004077
974.0,0.003826
975.0,0.003983
976.0,0.003724
977.0,0.004344
978.0,0.004063
979.0,0.004285
980.0,0.003964
981.0,0.004903
982.0,0.004625
983.0,0.004392
984.0,0.005043
985.0,0.004558
986.0,0.00512
987.0,0.004974
988.0,0.004944
989.0,0.005062
990.0,0.00488
991.0,0.00503
992.0,0.005043
993.0,0.004887
994.0,0.005009
995.0,0.004988
996.0,0.004942
997.0,0.004933
998.0,0.00489
999.0,0.004856
1000.0,0.004797
1001.0,0.004847
1002.0,0.004667
1003.0,0.004723
1004.0,0.004582
1005.0,0.004407
1006.0,0.004555
1007.0,0.004636
1008.0,0.004589
1009.0,0.004542
1010.0,0.004503
1011.0,0.004545
1012.0,0.004482
1013.0,0.004502
1014.0,0.004454
1015.0,0.004407
1016.0,0.004369
1017.0,0.004362
1018.0,0.004332
1019.0,0.004213
1020.0,0.004274
1021.0,0.004253
1022.0,0.0042
1023.0,0.004229
1024.0,0.004148
1025.0,0.004199
1026.0,0.004162
1027.0,0.004136
1028.0,0.004112
1029.0,0.004048
1030.0,0.004064
1031.0,0.004031
1032.0,0.004005
1033.0,0.003929
1034.0,0.003914
1035.0,0.003911
1036.0,0.003916
1037.0,0.003838
1038.0,0.003841
1039.0,0.003824
1040.0,0.003794
1041.0,0.003794
1042.0,0.003753
1043.0,0.003728
1044.0,0.003727
1045.0,0.003662
1046.0,0.003607
1047.0,0.003625
1048.0,0.003632
1049.0,0.003605
1050.0,0.003575
1051.0,0.003555
1052.0,0.003527
1053.0,0.003486
1054.0,0.00348
1055.0,0.003468
1056.0,0.003441
1057.0,0.003417
1058.0,0.00332
1059.0,0.003311
1060.0,0.003293
1061.0,0.003276
1062.0,0.003279
1063.0,0.003235
1064.0,0.003262
1065.0,0.003224
1066.0,0.003151
1067.0,0.003179
1068.0,0.003095
1069.0,0.00299
1070.0,0.003077
1071.0,0.003122
1072.0,0.003068
1073.0,0.003015
1074.0,0.003091
1075.0,0.002903
1076.0,0.003065
1077.0,0.002985
1078.0,0.002914
1079.0,0.002986
1080.0,0.002903
1081.0,0.002794
1082.0,0.002848
1083.0,0.00285
1084.0,0.002747
1085.0,0.002863
1086.0,0.002557
1087.0,0.002668
1088.0,0.002791
1089.0,0.002674
1090.0,0.002586
1091.0,0.002745
1092.0,0.002733
1093.0,0.002239
1094.0,0.002476
1095.0,0.002333
1096.0,0.002204
1097.0,0.002625
1098.0,0.002151
1099.0,0.002245
1100.0,0.002045
1101.0,0.002074
1102.0,0.001959
1103.0,0.001921
1104.0,0.001919
1105.0,0.00214
1106.0,0.001537
1107.0,0.001998
1108.0,0.001627
1109.0,0.001628
1110.0,0.001953
1111.0,0.001226
1112.0,0.001601
1113.0,0.0009342
1114.0,0.001056
1115.0,0.0008515
1116.0,0.0006501
1117.0,0.0002098
1118.0,0.0007126
1119.0,0.0003218
1120.0,0.0004113
1121.0,0.0005636
1122.0,0.0002137
1123.0,0.0003644
1124.0,0.0003022
1125.0,0.0004048
1126.0,0.0001251
1127.0,0.0004585
1128.0,0.0002554
1129.0,0.0002723
1130.0,0.0001714
1131.0,0.0009424
1132.0,0.0007109
1133.0,0.000419
1134.0,9.327e-05
1135.0,3.37e-05
1136.0,0.0003369
1137.0,0.0009021
1138.0,0.0006058
1139.0,0.0009671
1140.0,0.0007791
1141.0,0.0005667
1142.0,0.0006638
1143.0,0.0009911
1144.0,0.0002989
1145.0,0.0003866
1146.0,0.0004182
1147.0,0.0001306
1148.0,0.0008265
1149.0,0.0006338
1150.0,0.0003177
1151.0,0.0005741
1152.0,0.0007294
1153.0,0.0007107
1154.0,0.0003617
1155.0,0.0009613
1156.0,0.0008468
1157.0,0.0009686
1158.0,0.0009536
1159.0,0.001045
1160.0,0.0008648
1161.0,0.001108
1162.0,0.001105
1163.0,0.001579
1164.0,0.001312
1165.0,0.001215
1166.0,0.001207
1167.0,0.00133
1168.0,0.001341
1169.0,0.00138
1170.0,0.001515
1171.0,0.001465
1172.0,0.001494
1173.0,0.001496
1174.0,0.001
1175.0,0.001455
1176.0,0.001621
1177.0,0.001536
1178.0,0.001092
1179.0,0.001619
1180.0,0.001406
1181.0,0.001455
1182.0,0.0009379
1183.0,0.001431
1184.0,0.001313
1185.0,0.001251
1186.0,0.001529
1187.0,0.001437
1188.0,0.0009405
1189.0,0.001322
1190.0,0.001472
1191.0,0.001375
1192.0,0.001486
1193.0,0.001408
1194.0,0.001456
1195.0,0.00136
1196.0,0.001296
1197.0,0.001454
1198.0,0.001307
1199.0,0.001076
1200.0,0.001364
1201.0,0.0013
1202.0,0.00129
1203.0,0.001283
1204.0,0.001087
1205.0,0.001318
1206.0,0.00148
1207.0,0.00127
1208.0,0.001256
1209.0,0.001278
1210.0,0.001337
1211.0,0.001256
1212.0,0.00123
1213.0,0.001396
1214.0,0.001258
1215.0,0.001226
1216.0,0.001378
1217.0,0.001331
1218.0,0.001358
1219.0,0.001334
1220.0,0.001351
1221.0,0.001363
1222.0,0.001318
1223.0,0.0013
1224.0,0.001285
1225.0,0.001337
1226.0,0.001345
1227.0,0.001221
1228.0,0.001346
1229.0,0.001333
1230.0,0.001303
1231.0,0.001344
1232.0,0.001332
1233.0,0.001271
1234.0,0.001332
1235.0,0.001318
1236.0,0.001324
1237.0,0.001298
1238.0,0.001312
1239.0,0.00129
1240.0,0.001292
1241.0,0.001279
1242.0,0.001274
1243.0,0.001259
1244.0,0.001263
1245.0,0.001265
1246.0,0.001254
1247.0,0.001244
1248.0,0.001238
1249.0,0.001239
1250.0,0.001227
1251.0,0.001206
1252.0,0.001204
1253.0,0.001187
1254.0,0.001169
1255.0,0.00119
1256.0,0.001147
1257.0,0.001136
1258.0,0.001158
1259.0,0.001103
1260.0,0.001107
1261.0,0.00103
1262.0,0.0009906
1263.0,0.0009893
1264.0,0.0008973
1265.0,0.0009776
1266.0,0.0009301
1267.0,0.0009489
1268.0,0.0008885
1269.0,0.0005022
1270.0,0.0009357
1271.0,0.001
1272.0,0.001002
1273.0,0.0009866
1274.0,0.0009883
1275.0,0.001002
1276.0,0.00101
1277.0,0.001016
1278.0,0.001037
1279.0,0.001024
1280.0,0.001008
1281.0,0.0009609
1282.0,0.0009265
1283.0,0.000994
1284.0,0.001014
1285.0,0.001018
1286.0,0.00103
1287.0,0.001007
1288.0,0.001005
1289.0,0.0009632
1290.0,0.0009902
1291.0,0.001002
1292.0,0.000925
1293.0,0.0009726
1294.0,0.0009618
1295.0,0.000952
1296.0,0.0008972
1297.0,0.0008381
1298.0,0.0009135
1299.0,0.0009568
1300.0,0.000781
1301.0,0.0008082
1302.0,0.0009005
1303.0,0.0007648
1304.0,0.0006299
1305.0,0.0008702
1306.0,0.0008675
1307.0,0.0006408
1308.0,0.0007545
1309.0,0.0008518
1310.0,0.0006212
1311.0,0.0007117
1312.0,0.0006895
1313.0,0.0006701
1314.0,0.0005853
1315.0,0.0005767
1316.0,0.0006887
1317.0,0.0006437
1318.0,0.0007092
1319.0,0.0005264
1320.0,0.0005071
1321.0,0.0006049
1322.0,0.000609
1323.0,0.0004342
1324.0,0.0005074
1325.0,0.0006584
1326.0,0.000548
1327.0,0.0005166
1328.0,0.0004337
1329.0,0.0003099
1330.0,0.0004175
1331.0,0.0002325
1332.0,0.0002414
1333.0,0.0003493
1334.0,0.0002902
1335.0,0.0004174
1336.0,0.0003167
1337.0,0.0002741
1338.0,0.0002988
1339.0,0.0002973
1340.0,0.0002877
1341.0,0.0002772
1342.0,0.0002923
1343.0,0.0001851
1344.0,0.0001055
1345.0,0.0001569
1346.0,7.181e-05
1347.0,7.261e-05
1348.0,4.181e-06
1349.0,1.546e-05
1350.0,1.609e-05
1351.0,3.742e-06
1352.0,9.911e-07
1353.0,5.001e-08
1354.0,1.723e-07
1355.0,1.382e-09
1356.0,2.421e-08
1357.0,3.679e-08
1358.0,1.622e-09
1359.0,2.043e-10
1360.0,7.384e-10
1361.0,8.259e-13
1362.0,2.259e-15
