interpolation:linear
wavelength,value
280.0,1.207e-22
280.5,4.0120000000000004e-21
281.0,2.1610000000000003e-20
281.5,4.275e-19
282.0,5.485e-19
282.5,1.341e-18
283.0,4.221e-18
283.5,6.875e-18
284.0,1.136e-16
284.5,3.325e-16
285.0,5.753e-16
285.5,2.812e-15
286.0,1.131e-14
286.5,5.079e-14
287.0,1.458e-13
287.5,5.632e-13
288.0,2e-12
288.5,5.864e-12
289.0,1.534e-11
289.5,4.58e-11
290.0,1.265e-10
290.5,2.575e-10
291.0,5.523e-10
291.5,1.586e-09
292.0,3.197e-09
292.5,4.471e-09
293.0,9.551e-09
293.5,2.314e-08
294.0,3.613e-08
294.5,4.822e-08
295.0,8.149e-08
295.5,1.363e-07
296.0,2.609e-07
296.5,3.617e-07
297.0,4.854e-07
297.5,1.285e-06
298.0,1.999e-06
298.5,1.989e-06
299.0,4.331e-06
299.5,7.023e-06
300.0,7.605e-06
300.5,1.082e-05
301.0,1.898e-05
301.5,2.928e-05
302.0,2.457e-05
302.5,4.823e-05
303.0,8.73e-05
303.5,0.0001114
304.0,0.0001076
304.5,0.0001735
305.0,0.0002943
305.5,0.0003626
306.0,0.0003609
306.5,0.0004714
307.0,0.0007801
307.5,0.001154
308.0,0.001239
308.5,0.001544
309.0,0.001809
309.5,0.002396
310.0,0.002572
310.5,0.004303
311.0,0.005699
311.5,0.005626
312.0,0.006326
312.5,0.008315
313.0,0.009384
313.5,0.008757
314.0,0.01201
314.5,0.01206
315.0,0.01618
315.5,0.01271
316.0,0.01227
316.5,0.01922
317.0,0.02378
317.5,0.02409
318.0,0.01993
318.5,0.02774
319.0,0.03486
319.5,0.0258
320.0,0.03068
320.5,0.04319
321.0,0.04278
321.5,0.04139
322.0,0.03921
322.5,0.03425
323.0,0.03673
323.5,0.04886
324.0,0.05764
324.5,0.05661
325.0,0.04651
325.5,0.06352
326.0,0.07969
326.5,0.08299
327.0,0.08132
327.5,0.07691
328.0,0.06479
328.5,0.07254
329.0,0.09143
329.5,0.1053
330.0,0.1047
330.5,0.08023
331.0,0.08047
331.5,0.08416
332.0,0.09491
332.5,0.09568
333.0,0.0941
333.5,0.08222
334.0,0.08362
334.5,0.1
335.0,0.09595
335.5,0.1131
336.0,0.07812
336.5,0.08932
337.0,0.07197
337.5,0.08882
338.0,0.08936
338.5,0.1044
339.0,0.1032
339.5,0.09909
340.0,0.1148
340.5,0.1036
341.0,0.1019
341.5,0.09352
342.0,0.1116
342.5,0.1043
343.0,0.1144
343.5,0.1074
344.0,0.07851
344.5,0.07984
345.0,0.1056
345.5,0.1077
346.0,0.09146
346.5,0.1034
347.0,0.1107
347.5,0.08929
348.0,0.1017
348.5,0.1016
349.0,0.09414
349.5,0.09301
350.0,0.1148
350.5,0.1209
351.0,0.1077
351.5,0.1043
352.0,0.1119
352.5,0.08724
353.0,0.1098
353.5,0.1172
354.0,0.1215
354.5,0.1229
355.0,0.1222
355.5,0.1102
356.0,0.1152
356.5,0.09813
357.0,0.08091
357.5,0.09886
358.0,0.07821
358.5,0.0667
359.0,0.09308
359.5,0.1183
360.0,0.1252
360.5,0.09986
361.0,0.09088
361.5,0.1044
362.0,0.09016
362.5,0.1245
363.0,0.1116
363.5,0.1026
364.0,0.1252
364.5,0.1068
365.0,0.1085
365.5,0.1359
366.0,0.1437
366.5,0.1348
367.0,0.131
367.5,0.1356
368.0,0.1184
368.5,0.1192
369.0,0.1285
369.5,0.1367
370.0,0.1454
370.5,0.1126
371.0,0.1201
371.5,0.1499
372.0,0.09927
372.5,0.1188
373.0,0.1205
373.5,0.07826
374.0,0.1135
374.5,0.09376
375.0,0.09094
375.5,0.1355
376.0,0.112
376.5,0.1158
377.0,0.1224
377.5,0.1429
378.0,0.1545
378.5,0.1457
379.0,0.1199
379.5,0.1093
380.0,0.1133
380.5,0.137
381.0,0.1369
381.5,0.1083
382.0,0.09594
382.5,0.08159
383.0,0.07535
383.5,0.07241
384.0,0.07969
384.5,0.1169
385.0,0.1157
385.5,0.1075
386.0,0.09184
386.5,0.1203
387.0,0.09975
387.5,0.1118
388.0,0.1029
388.5,0.1015
389.0,0.1093
389.5,0.1321
390.0,0.1322
390.5,0.1214
391.0,0.1425
391.5,0.145
392.0,0.1218
392.5,0.1088
393.0,0.06038
393.5,0.04378
394.0,0.08888
394.5,0.1127
395.0,0.1372
395.5,0.139
396.0,0.1202
396.5,0.07011
397.0,0.05248
397.5,0.1065
398.0,0.1487
398.5,0.1533
399.0,0.1656
399.5,0.1647
400.0,0.1705
401.0,0.1677
402.0,0.176
403.0,0.1663
404.0,0.1629
405.0,0.162
406.0,0.1585
407.0,0.1551
408.0,0.1602
409.0,0.1705
410.0,0.1482
411.0,0.1597
412.0,0.1706
413.0,0.1655
414.0,0.1666
415.0,0.1661
416.0,0.1681
417.0,0.163
418.0,0.159
419.0,0.1602
420.0,0.1586
421.0,0.165
422.0,0.1558
423.0,0.1512
424.0,0.1589
425.0,0.1577
426.0,0.1527
427.0,0.1491
428.0,0.1444
429.0,0.1361
430.0,0.1184
431.0,0.1166
432.0,0.1496
433.0,0.1495
434.0,0.138
435.0,0.1433
436.0,0.1605
437.0,0.1575
438.0,0.1425
439.0,0.1463
440.0,0.15
441.0,0.1543
442.0,0.1644
443.0,0.1591
444.0,0.1617
445.0,0.1573
446.0,0.1494
447.0,0.1606
448.0,0.162
449.0,0.1615
450.0,0.1649
451.0,0.1699
452.0,0.1627
453.0,0.1522
454.0,0.1579
455.0,0.1578
456.0,0.1604
457.0,0.1618
458.0,0.155
459.0,0.1529
460.0,0.1521
461.0,0.1545
462.0,0.1547
463.0,0.1529
464.0,0.1498
465.0,0.1472
466.0,0.1478
467.0,0.1441
468.0,0.1447
469.0,0.1443
470.0,0.1387
471.0,0.1377
472.0,0.1443
473.0,0.1415
474.0,0.1407
475.0,0.1408
476.0,0.1354
477.0,0.1346
478.0,0.137
479.0,0.1349
480.0,0.1339
481.0,0.1352
482.0,0.1349
483.0,0.1325
484.0,0.1292
485.0,0.1225
486.0,0.1067
487.0,0.1112
488.0,0.1212
489.0,0.1206
490.0,0.126
491.0,0.1229
492.0,0.1153
493.0,0.1183
494.0,0.1187
495.0,0.119
496.0,0.1188
497.0,0.1196
498.0,0.1129
499.0,0.1132
500.0,0.1087
501.0,0.1056
502.0,0.1029
503.0,0.106
504.0,0.1022
505.0,0.1051
506.0,0.1077
507.0,0.1019
508.0,0.09824
509.0,0.1005
510.0,0.09948
511.0,0.1015
512.0,0.1019
513.0,0.09574
514.0,0.09434
515.0,0.09266
516.0,0.09172
517.0,0.0809
518.0,0.08442
519.0,0.08788
520.0,0.09034
521.0,0.09043
522.0,0.08971
523.0,0.0874
524.0,0.08966
525.0,0.08982
526.0,0.08498
527.0,0.07924
528.0,0.08295
529.0,0.08663
530.0,0.08464
531.0,0.08514
532.0,0.08155
533.0,0.07859
534.0,0.08039
535.0,0.08165
536.0,0.08191
537.0,0.0782
538.0,0.07905
539.0,0.07785
540.0,0.07409
541.0,0.07396
542.0,0.07561
543.0,0.07422
544.0,0.07493
545.0,0.07419
546.0,0.07393
547.0,0.07337
548.0,0.07199
549.0,0.07172
550.0,0.07206
551.0,0.07067
552.0,0.07065
553.0,0.06888
554.0,0.07
555.0,0.06959
556.0,0.06813
557.0,0.06545
558.0,0.06435
559.0,0.06255
560.0,0.06274
561.0,0.06296
562.0,0.06191
563.0,0.06301
564.0,0.06078
565.0,0.05976
566.0,0.05841
567.0,0.05901
568.0,0.05797
569.0,0.05605
570.0,0.05563
571.0,0.05489
572.0,0.05571
573.0,0.05591
574.0,0.05538
575.0,0.05402
576.0,0.05324
577.0,0.05356
578.0,0.05253
579.0,0.05256
580.0,0.0534
581.0,0.05348
582.0,0.05429
583.0,0.05422
584.0,0.05447
585.0,0.05288
586.0,0.05149
587.0,0.05226
588.0,0.05055
589.0,0.04425
590.0,0.04601
591.0,0.04853
592.0,0.04747
593.0,0.0479
594.0,0.04712
595.0,0.04549
596.0,0.04712
597.0,0.04619
598.0,0.04574
599.0,0.04544
600.0,0.04522
601.0,0.0446
602.0,0.04403
603.0,0.04453
604.0,0.04505
605.0,0.04463
606.0,0.04429
607.0,0.0446
608.0,0.04398
609.0,0.04392
610.0,0.0435
611.0,0.04361
612.0,0.04336
613.0,0.04269
614.0,0.04198
615.0,0.04277
616.0,0.04124
617.0,0.04102
618.0,0.04246
619.0,0.04188
620.0,0.04197
621.0,0.04182
622.0,0.04114
623.0,0.04032
624.0,0.03946
625.0,0.03922
626.0,0.03964
627.0,0.03988
628.0,0.03651
629.0,0.0384
630.0,0.03734
631.0,0.03823
632.0,0.03766
633.0,0.03875
634.0,0.03831
635.0,0.03879
636.0,0.03816
637.0,0.03868
638.0,0.03896
639.0,0.03841
640.0,0.03792
641.0,0.03778
642.0,0.0375
643.0,0.03789
644.0,0.03766
645.0,0.03754
646.0,0.03645
647.0,0.03572
648.0,0.0356
649.0,0.03475
650.0,0.03497
651.0,0.03637
652.0,0.0345
653.0,0.03561
654.0,0.03509
655.0,0.03353
656.0,0.02967
657.0,0.03037
658.0,0.03397
659.0,0.03411
660.0,0.03412
661.0,0.03422
662.0,0.03412
663.0,0.03334
664.0,0.03365
665.0,0.03359
666.0,0.0335
667.0,0.03337
668.0,0.03328
669.0,0.03368
670.0,0.0334
671.0,0.03328
672.0,0.03289
673.0,0.03329
674.0,0.03304
675.0,0.03261
676.0,0.03271
677.0,0.03227
678.0,0.03225
679.0,0.03161
680.0,0.03173
681.0,0.03139
682.0,0.03121
683.0,0.03102
684.0,0.03072
685.0,0.03085
686.0,0.03053
687.0,0.01844
688.0,0.02217
689.0,0.02218
690.0,0.02343
691.0,0.0249
692.0,0.02601
693.0,0.02566
694.0,0.02536
695.0,0.02655
696.0,0.02648
697.0,0.02834
698.0,0.02778
699.0,0.02678
700.0,0.02633
701.0,0.02588
702.0,0.02604
703.0,0.02599
704.0,0.02682
705.0,0.02674
706.0,0.02665
707.0,0.02657
708.0,0.0265
709.0,0.0265
710.0,0.02633
711.0,0.02623
712.0,0.02609
713.0,0.02566
714.0,0.02564
715.0,0.02462
716.0,0.02451
717.0,0.02045
718.0,0.01858
719.0,0.01683
720.0,0.01755
721.0,0.01968
722.0,0.02295
723.0,0.02099
724.0,0.01852
725.0,0.01809
726.0,0.01893
727.0,0.01922
728.0,0.0178
729.0,0.0186
730.0,0.01961
731.0,0.0186
732.0,0.02007
733.0,0.02139
734.0,0.02187
735.0,0.02128
736.0,0.02115
737.0,0.02113
738.0,0.02154
739.0,0.02101
740.0,0.02151
741.0,0.02123
742.0,0.02117
743.0,0.02161
744.0,0.02145
745.0,0.02137
746.0,0.02136
747.0,0.02131
748.0,0.02116
749.0,0.02082
750.0,0.02073
751.0,0.02044
752.0,0.02045
753.0,0.02046
754.0,0.02042
755.0,0.02022
756.0,0.02013
757.0,0.02007
758.0,0.01973
759.0,0.01913
760.0,0.002659
761.0,0.001403
762.0,0.008414
763.0,0.004011
764.0,0.006096
765.0,0.008289
766.0,0.0105
767.0,0.01376
768.0,0.01643
769.0,0.01686
770.0,0.01754
771.0,0.01769
772.0,0.01767
773.0,0.0177
774.0,0.01752
775.0,0.0173
776.0,0.01743
777.0,0.01711
778.0,0.01691
779.0,0.01684
780.0,0.01667
781.0,0.01661
782.0,0.01665
783.0,0.0163
784.0,0.01632
785.0,0.01613
786.0,0.01623
787.0,0.01581
788.0,0.01551
789.0,0.01543
790.0,0.01485
791.0,0.01502
792.0,0.01485
793.0,0.01454
794.0,0.01483
795.0,0.01498
796.0,0.01432
797.0,0.01427
798.0,0.01476
799.0,0.01457
800.0,0.01422
801.0,0.01408
802.0,0.01397
803.0,0.01378
804.0,0.01375
805.0,0.01368
806.0,0.01407
807.0,0.01381
808.0,0.01376
809.0,0.01339
810.0,0.01318
811.0,0.01308
812.0,0.01254
813.0,0.01217
814.0,0.0104
815.0,0.01029
816.0,0.009447
817.0,0.009599
818.0,0.009158
819.0,0.01041
820.0,0.009683
821.0,0.01163
822.0,0.01119
823.0,0.00709
824.0,0.01068
825.0,0.01123
826.0,0.01065
827.0,0.01132
828.0,0.009248
829.0,0.01048
830.0,0.01028
831.0,0.01028
832.0,0.009859
833.0,0.01062
834.0,0.01011
835.0,0.01128
836.0,0.0106
837.0,0.01122
838.0,0.01075
839.0,0.01096
840.0,0.01117
841.0,0.01093
842.0,0.01094
843.0,0.01094
844.0,0.01071
845.0,0.01105
846.0,0.01096
847.0,0.01072
848.0,0.01058
849.0,0.01023
850.0,0.009757
851.0,0.01025
852.0,0.01014
853.0,0.009729
854.0,0.008348
855.0,0.009156
856.0,0.009958
857.0,0.01016
858.0,0.01004
859.0,0.01001
860.0,0.009997
861.0,0.009903
862.0,0.01003
863.0,0.01023
864.0,0.009681
865.0,0.00956
866.0,0.008563
867.0,0.008901
868.0,0.009647
869.0,0.00941
870.0,0.00964
871.0,0.00947
872.0,0.009399
873.0,0.009341
874.0,0.009189
875.0,0.008962
876.0,0.009015
877.0,0.009069
878.0,0.009125
879.0,0.008947
880.0,0.008718
881.0,0.008542
882.0,0.008687
883.0,0.008688
884.0,0.008605
885.0,0.00863
886.0,0.008157
887.0,0.008236
888.0,0.008306
889.0,0.008393
890.0,0.00825
891.0,0.008222
892.0,0.00791
893.0,0.007581
894.0,0.007186
895.0,0.006646
896.0,0.006166
897.0,0.005131
898.0,0.005653
899.0,0.004105
900.0,0.005819
901.0,0.004308
902.0,0.005204
903.0,0.005186
904.0,0.006839
905.0,0.00653
906.0,0.006037
907.0,0.004665
908.0,0.004781
909.0,0.00525
910.0,0.004481
911.0,0.004853
912.0,0.005076
913.0,0.00449
914.0,0.004451
915.0,0.004836
916.0,0.004004
917.0,0.005263
918.0,0.004079
919.0,0.005349
920.0,0.005462
921.0,0.005694
922.0,0.004949
923.0,0.005463
924.0,0.005022
925.0,0.004885
926.0,0.004919
927.0,0.005594
928.0,0.003803
929.0,0.003398
930.0,0.002559
931.0,0.002405
932.0,0.001654
933.0,0.001312
934.0,0.000683
935.0,0.001344
936.0,0.0008067
937.0,0.0008136
938.0,0.001007
939.0,0.002249
940.0,0.002767
941.0,0.002001
942.0,0.002346
943.0,0.00147
944.0,0.001575
945.0,0.002037
946.0,0.0009679
947.0,0.002019
948.0,0.001451
949.0,0.002781
950.0,0.0006831
951.0,0.002721
952.0,0.001357
953.0,0.001799
954.0,0.002269
955.0,0.001815
956.0,0.001789
957.0,0.001332
958.0,0.002622
959.0,0.001986
960.0,0.002237
961.0,0.002565
962.0,0.002407
963.0,0.002838
964.0,0.002559
965.0,0.002803
966.0,0.002791
967.0,0.002758
968.0,0.003981
969.0,0.004131
970.0,0.003728
971.0,0.004408
972.0,0.004155
973.0,0.003466
974.0,0.003257
975.0,0.003402
976.0,0.003156
977.0,0.003729
978.0,0.003466
979.0,0.00366
980.0,0.003391
981.0,0.004218
982.0,0.003964
983.0,0.003759
984.0,0.004361
985.0,0.003902
986.0,0.004444
987.0,0.0043
988.0,0.004275
989.0,0.004403
990.0,0.004217
991.0,0.004368
992.0,0.004382
993.0,0.004231
994.0,0.004356
995.0,0.004341
996.0,0.004299
997.0,0.004294
998.0,0.004256
999.0,0.004227
1000.0,0.004172
1001.0,0.004219
1002.0,0.004044
1003.0,0.004111
1004.0,0.003983
1005.0,0.003838
1006.0,0.003964
1007.0,0.004037
1008.0,0.003992
1009.0,0.003948
1010.0,0.003912
1011.0,0.003957
1012.0,0.003899
1013.0,0.00392
1014.0,0.003879
1015.0,0.003837
1016.0,0.003804
1017.0,0.003797
1018.0,0.003774
1019.0,0.003663
1020.0,0.003722
1021.0,0.003705
1022.0,0.003657
1023.0,0.003681
1024.0,0.003604
1025.0,0.003657
1026.0,0.003623
1027.0,0.003602
1028.0,0.00358
1029.0,0.003523
1030.0,0.00354
1031.0,0.00351
1032.0,0.003488
1033.0,0.003422
1034.0,0.003409
1035.0,0.003407
1036.0,0.003409
1037.0,0.003342
1038.0,0.003344
1039.0,0.003329
1040.0,0.003303
1041.0,0.003302
1042.0,0.003266
1043.0,0.003244
1044.0,0.003242
1045.0,0.003185
1046.0,0.003137
1047.0,0.003152
1048.0,0.003157
1049.0,0.003134
1050.0,0.003106
1051.0,0.003089
1052.0,0.003064
1053.0,0.003027
1054.0,0.003021
1055.0,0.00301
1056.0,0.002986
1057.0,0.002963
1058.0,0.002879
1059.0,0.002869
1060.0,0.002853
1061.0,0.002838
1062.0,0.00284
1063.0,0.002801
1064.0,0.002825
1065.0,0.002789
1066.0,0.002727
1067.0,0.002751
1068.0,0.002678
1069.0,0.002588
1070.0,0.002662
1071.0,0.002706
1072.0,0.002656
1073.0,0.002611
1074.0,0.002682
1075.0,0.002506
1076.0,0.002658
1077.0,0.002582
1078.0,0.002517
1079.0,0.002592
1080.0,0.002512
1081.0,0.002411
1082.0,0.002468
1083.0,0.002473
1084.0,0.002369
1085.0,0.002478
1086.0,0.002203
1087.0,0.002303
1088.0,0.00242
1089.0,0.002307
1090.0,0.002228
1091.0,0.002378
1092.0,0.002369
1093.0,0.001918
1094.0,0.002142
1095.0,0.001994
1096.0,0.00188
1097.0,0.002275
1098.0,0.001829
1099.0,0.001912
1100.0,0.001738
1101.0,0.001765
1102.0,0.001661
1103.0,0.001625
1104.0,0.001624
1105.0,0.001821
1106.0,0.001286
1107.0,0.001696
1108.0,0.00137
1109.0,0.001373
1110.0,0.001652
1111.0,0.00103
1112.0,0.001351
1113.0,0.0007861
1114.0,0.0008828
1115.0,0.0007176
1116.0,0.0005479
1117.0,0.0001846
1118.0,0.0005979
1119.0,0.0002777
1120.0,0.0003492
1121.0,0.000471
1122.0,0.0001867
1123.0,0.0003116
1124.0,0.0002609
1125.0,0.0003442
1126.0,0.0001117
1127.0,0.0003874
1128.0,0.0002209
1129.0,0.0002345
1130.0,0.0001514
1131.0,0.0007735
1132.0,0.0005907
1133.0,0.0003536
1134.0,8.427e-05
1135.0,3.147e-05
1136.0,0.0002868
1137.0,0.0007376
1138.0,0.0005059
1139.0,0.0008063
1140.0,0.000649
1141.0,0.0004752
1142.0,0.0005541
1143.0,0.0008173
1144.0,0.0002579
1145.0,0.0003267
1146.0,0.0003517
1147.0,0.0001159
1148.0,0.000686
1149.0,0.0005296
1150.0,0.0002745
1151.0,0.0004798
1152.0,0.0006058
1153.0,0.0005965
1154.0,0.0003073
1155.0,0.0007985
1156.0,0.0007036
1157.0,0.0008107
1158.0,0.000798
1159.0,0.0008728
1160.0,0.0007281
1161.0,0.0009344
1162.0,0.0009312
1163.0,0.001342
1164.0,0.001112
1165.0,0.001022
1166.0,0.001026
1167.0,0.00113
1168.0,0.001137
1169.0,0.00117
1170.0,0.001291
1171.0,0.00125
1172.0,0.001282
1173.0,0.001275
1174.0,0.0008475
1175.0,0.001249
1176.0,0.001403
1177.0,0.00132
1178.0,0.0009346
1179.0,0.001401
1180.0,0.001205
1181.0,0.001246
1182.0,0.0007994
1183.0,0.001227
1184.0,0.001123
1185.0,0.001067
1186.0,0.001316
1187.0,0.001232
1188.0,0.0007955
1189.0,0.001134
1190.0,0.001269
1191.0,0.001173
1192.0,0.001282
1193.0,0.001212
1194.0,0.001255
1195.0,0.001164
1196.0,0.001105
1197.0,0.001255
1198.0,0.001128
1199.0,0.000916
1200.0,0.001173
1201.0,0.001112
1202.0,0.001111
1203.0,0.001097
1204.0,0.00093
1205.0,0.001138
1206.0,0.001283
1207.0,0.001089
1208.0,0.001081
1209.0,0.001101
1210.0,0.001155
1211.0,0.001081
1212.0,0.001046
1213.0,0.001203
1214.0,0.001073
1215.0,0.001046
1216.0,0.00119
1217.0,0.001146
1218.0,0.001172
1219.0,0.001149
1220.0,0.001166
1221.0,0.001179
1222.0,0.00114
1223.0,0.001122
1224.0,0.001105
1225.0,0.001156
1226.0,0.001165
1227.0,0.00105
1228.0,0.001168
1229.0,0.001155
1230.0,0.001127
1231.0,0.001169
1232.0,0.001158
1233.0,0.001097
1234.0,0.00116
1235.0,0.001147
1236.0,0.001153
1237.0,0.001127
1238.0,0.001142
1239.0,0.001124
1240.0,0.001125
1241.0,0.001112
1242.0,0.00111
1243.0,0.001097
1244.0,0.0011
1245.0,0.001102
1246.0,0.001092
1247.0,0.001083
1248.0,0.001077
1249.0,0.001079
1250.0,0.001067
1251.0,0.001048
1252.0,0.001048
1253.0,0.00103
1254.0,0.001012
1255.0,0.001035
1256.0,0.0009919
1257.0,0.0009811
1258.0,0.001005
1259.0,0.0009491
1260.0,0.0009532
1261.0,0.0008777
1262.0,0.0008394
1263.0,0.000838
1264.0,0.0007512
1265.0,0.0008281
1266.0,0.0007824
1267.0,0.000802
1268.0,0.0007452
1269.0,0.0004059
1270.0,0.000789
1271.0,0.0008524
1272.0,0.0008545
1273.0,0.0008406
1274.0,0.0008435
1275.0,0.0008564
1276.0,0.0008658
1277.0,0.0008732
1278.0,0.0008948
1279.0,0.0008836
1280.0,0.00087
1281.0,0.0008312
1282.0,0.0008044
1283.0,0.0008624
1284.0,0.0008791
1285.0,0.0008832
1286.0,0.0008957
1287.0,0.0008729
1288.0,0.0008717
1289.0,0.0008298
1290.0,0.0008592
1291.0,0.0008705
1292.0,0.0007942
1293.0,0.000843
1294.0,0.0008334
1295.0,0.0008208
1296.0,0.0007686
1297.0,0.0007153
1298.0,0.0007871
1299.0,0.0008302
1300.0,0.0006671
1301.0,0.0006914
1302.0,0.0007761
1303.0,0.0006543
1304.0,0.0005315
1305.0,0.0007501
1306.0,0.0007457
1307.0,0.0005444
1308.0,0.0006479
1309.0,0.0007294
1310.0,0.0005268
1311.0,0.0006092
1312.0,0.000589
1313.0,0.0005695
1314.0,0.0004963
1315.0,0.0004864
1316.0,0.0005872
1317.0,0.0005485
1318.0,0.000607
1319.0,0.0004437
1320.0,0.0004301
1321.0,0.0005135
1322.0,0.0005141
1323.0,0.0003636
1324.0,0.0004287
1325.0,0.0005598
1326.0,0.0004635
1327.0,0.0004363
1328.0,0.000366
1329.0,0.0002597
1330.0,0.000348
1331.0,0.0001951
1332.0,0.000203
1333.0,0.0002883
1334.0,0.0002465
1335.0,0.0003483
1336.0,0.0002647
1337.0,0.0002308
1338.0,0.0002496
1339.0,0.0002488
1340.0,0.000243
1341.0,0.0002307
1342.0,0.000243
1343.0,0.0001545
1344.0,9.138e-05
1345.0,0.0001323
1346.0,6.268e-05
1347.0,6.33e-05
1348.0,4.011e-06
1349.0,1.441e-05
1350.0,1.495e-05
1351.0,3.603e-06
1352.0,9.688e-07
1353.0,4.93e-08
