interpolation:linear
wavelength,value
280.0,5.081e-22
280.5,1.656e-20
281.0,8.851000000000001e-20
281.5,4.744e-19
282.0,7.845e-19
282.5,1.942e-18
283.0,6.123e-18
283.5,9.953e-18
284.0,1.626e-16
284.5,4.725e-16
285.0,8.252e-16
285.5,4.072e-15
286.0,1.636e-14
286.5,7.323e-14
287.0,2.093e-13
287.5,8.03e-13
288.0,2.662e-12
288.5,8.128e-12
289.0,2.176e-11
289.5,6.591e-11
290.0,1.832e-10
290.5,3.739e-10
291.0,8.03e-10
291.5,2.306e-09
292.0,4.993e-09
292.5,6.999e-09
293.0,1.499e-08
293.5,3.644e-08
294.0,5.692e-08
294.5,7.671e-08
295.0,1.298e-07
295.5,2.345e-07
296.0,4.6e-07
296.5,6.556e-07
297.0,9.024e-07
297.5,2.495e-06
298.0,4.054e-06
298.5,4.186e-06
299.0,9.498e-06
299.5,1.674e-05
300.0,1.912e-05
300.5,2.891e-05
301.0,5.674e-05
301.5,9.861e-05
302.0,8.864e-05
302.5,0.0001765
303.0,0.0003257
303.5,0.0004195
304.0,0.0004048
304.5,0.0006509
305.0,0.0011
305.5,0.001352
306.0,0.001344
306.5,0.001752
307.0,0.002891
307.5,0.00427
308.0,0.00458
308.5,0.0057
309.0,0.005894
309.5,0.007149
310.0,0.007371
310.5,0.01208
311.0,0.01548
311.5,0.01506
312.0,0.01582
312.5,0.01988
313.0,0.0219
313.5,0.02086
314.0,0.02713
314.5,0.02542
315.0,0.03366
315.5,0.0273
316.0,0.02493
316.5,0.03722
317.0,0.04606
317.5,0.04723
318.0,0.03782
318.5,0.04954
319.0,0.06035
319.5,0.04684
320.0,0.05605
320.5,0.07416
321.0,0.06952
321.5,0.06684
322.0,0.06704
322.5,0.05833
323.0,0.06016
323.5,0.07622
324.0,0.08923
324.5,0.08911
325.0,0.07538
325.5,0.09977
326.0,0.1223
326.5,0.1245
327.0,0.1228
327.5,0.1173
328.0,0.1017
328.5,0.1097
329.0,0.1344
329.5,0.1534
330.0,0.1533
330.5,0.1199
331.0,0.1211
331.5,0.1245
332.0,0.1371
332.5,0.1367
333.0,0.1351
333.5,0.1199
334.0,0.1222
334.5,0.1433
335.0,0.1359
335.5,0.1598
336.0,0.1103
336.5,0.1268
337.0,0.1029
337.5,0.1272
338.0,0.1259
338.5,0.1463
339.0,0.1442
339.5,0.1385
340.0,0.1609
340.5,0.1449
341.0,0.1418
341.5,0.1295
342.0,0.1543
342.5,0.1439
343.0,0.158
343.5,0.1485
344.0,0.109
344.5,0.1106
345.0,0.1454
345.5,0.1478
346.0,0.1252
346.5,0.1414
347.0,0.1515
347.5,0.1222
348.0,0.1387
348.5,0.1382
349.0,0.1279
349.5,0.1262
350.0,0.1557
350.5,0.1637
351.0,0.1459
351.5,0.1416
352.0,0.1515
352.5,0.1178
353.0,0.1479
353.5,0.1577
354.0,0.1632
354.5,0.1651
355.0,0.164
355.5,0.1477
356.0,0.1541
356.5,0.1312
357.0,0.1081
357.5,0.1319
358.0,0.1043
358.5,0.08882
359.0,0.1239
359.5,0.1574
360.0,0.1663
360.5,0.1325
361.0,0.1205
361.5,0.1383
362.0,0.1193
362.5,0.1646
363.0,0.1474
363.5,0.1353
364.0,0.165
364.5,0.1406
365.0,0.1428
365.5,0.1787
366.0,0.1887
366.5,0.1768
367.0,0.1717
367.5,0.1776
368.0,0.155
368.5,0.1559
369.0,0.1678
369.5,0.1783
370.0,0.1895
370.5,0.1467
371.0,0.1562
371.5,0.1949
372.0,0.1289
372.5,0.1541
373.0,0.1563
373.5,0.1014
374.0,0.1469
374.5,0.1213
375.0,0.1175
375.5,0.1749
376.0,0.1445
376.5,0.1493
377.0,0.1576
377.5,0.1838
378.0,0.1986
378.5,0.1871
379.0,0.1539
379.5,0.1401
380.0,0.1452
380.5,0.1753
381.0,0.1751
381.5,0.1383
382.0,0.1224
382.5,0.104
383.0,0.09601
383.5,0.09218
384.0,0.1014
384.5,0.1486
385.0,0.1469
385.5,0.1364
386.0,0.1164
386.5,0.1524
387.0,0.1263
387.5,0.1413
388.0,0.1301
388.5,0.1282
389.0,0.1379
389.5,0.1665
390.0,0.1665
390.5,0.1527
391.0,0.1792
391.5,0.1821
392.0,0.1529
392.5,0.1364
393.0,0.07567
393.5,0.05483
394.0,0.1112
394.5,0.1409
395.0,0.1714
395.5,0.1736
396.0,0.15
396.5,0.08739
397.0,0.06537
397.5,0.1325
398.0,0.1849
398.5,0.1905
399.0,0.2056
399.5,0.2043
400.0,0.2114
401.0,0.2078
402.0,0.2177
403.0,0.2054
404.0,0.2009
405.0,0.1995
406.0,0.195
407.0,0.1905
408.0,0.1965
409.0,0.2089
410.0,0.1814
411.0,0.1952
412.0,0.2082
413.0,0.2017
414.0,0.2028
415.0,0.2019
416.0,0.204
417.0,0.1976
418.0,0.1926
419.0,0.1938
420.0,0.1916
421.0,0.199
422.0,0.1877
423.0,0.182
424.0,0.1911
425.0,0.1894
426.0,0.1832
427.0,0.1786
428.0,0.1728
429.0,0.1626
430.0,0.1414
431.0,0.1391
432.0,0.1782
433.0,0.1779
434.0,0.164
435.0,0.1701
436.0,0.1904
437.0,0.1866
438.0,0.1687
439.0,0.1732
440.0,0.1774
441.0,0.1824
442.0,0.1941
443.0,0.1877
444.0,0.1905
445.0,0.1852
446.0,0.1756
447.0,0.1886
448.0,0.1901
449.0,0.1894
450.0,0.1932
451.0,0.1989
452.0,0.1903
453.0,0.1778
454.0,0.1843
455.0,0.184
456.0,0.187
457.0,0.1885
458.0,0.1806
459.0,0.1782
460.0,0.1772
461.0,0.1798
462.0,0.18
463.0,0.1777
464.0,0.1738
465.0,0.1706
466.0,0.1711
467.0,0.1667
468.0,0.1673
469.0,0.1668
470.0,0.1603
471.0,0.159
472.0,0.1664
473.0,0.1631
474.0,0.1621
475.0,0.1622
476.0,0.156
477.0,0.155
478.0,0.1579
479.0,0.1555
480.0,0.1544
481.0,0.1559
482.0,0.1555
483.0,0.1526
484.0,0.1485
485.0,0.1407
486.0,0.1223
487.0,0.1273
488.0,0.1387
489.0,0.138
490.0,0.144
491.0,0.1405
492.0,0.1316
493.0,0.1349
494.0,0.1353
495.0,0.1355
496.0,0.1353
497.0,0.1362
498.0,0.1287
499.0,0.1291
500.0,0.1241
501.0,0.1206
502.0,0.1177
503.0,0.1213
504.0,0.1171
505.0,0.1204
506.0,0.1234
507.0,0.1167
508.0,0.1124
509.0,0.1149
510.0,0.1136
511.0,0.1159
512.0,0.1163
513.0,0.1092
514.0,0.1076
515.0,0.1058
516.0,0.1047
517.0,0.09235
518.0,0.09638
519.0,0.1003
520.0,0.1031
521.0,0.1033
522.0,0.1025
523.0,0.0999
524.0,0.1026
525.0,0.1029
526.0,0.09741
527.0,0.09092
528.0,0.09526
529.0,0.09957
530.0,0.09735
531.0,0.09799
532.0,0.0939
533.0,0.0905
534.0,0.09255
535.0,0.09398
536.0,0.09424
537.0,0.08993
538.0,0.09089
539.0,0.08953
540.0,0.08523
541.0,0.08512
542.0,0.08706
543.0,0.08549
544.0,0.08636
545.0,0.08553
546.0,0.08527
547.0,0.08462
548.0,0.08302
549.0,0.08271
550.0,0.08312
551.0,0.08153
552.0,0.0815
553.0,0.07947
554.0,0.08078
555.0,0.08035
556.0,0.07869
557.0,0.07563
558.0,0.07442
559.0,0.07239
560.0,0.07267
561.0,0.07299
562.0,0.07183
563.0,0.07317
564.0,0.07063
565.0,0.06948
566.0,0.06794
567.0,0.06868
568.0,0.06751
569.0,0.06533
570.0,0.06486
571.0,0.06402
572.0,0.06501
573.0,0.06526
574.0,0.06466
575.0,0.06306
576.0,0.06212
577.0,0.06246
578.0,0.06122
579.0,0.0612
580.0,0.06211
581.0,0.06215
582.0,0.06302
583.0,0.0629
584.0,0.06316
585.0,0.06129
586.0,0.05966
587.0,0.06054
588.0,0.0586
589.0,0.05137
590.0,0.05342
591.0,0.0563
592.0,0.05512
593.0,0.05562
594.0,0.05476
595.0,0.05293
596.0,0.05481
597.0,0.05378
598.0,0.05328
599.0,0.05295
600.0,0.05271
601.0,0.05198
602.0,0.05132
603.0,0.05188
604.0,0.05245
605.0,0.05193
606.0,0.0515
607.0,0.05181
608.0,0.05103
609.0,0.05091
610.0,0.05036
611.0,0.05043
612.0,0.05009
613.0,0.04926
614.0,0.04839
615.0,0.04926
616.0,0.04745
617.0,0.04715
618.0,0.04877
619.0,0.04807
620.0,0.04814
621.0,0.04795
622.0,0.04715
623.0,0.04618
624.0,0.04517
625.0,0.04488
626.0,0.04534
627.0,0.0456
628.0,0.0419
629.0,0.04392
630.0,0.04269
631.0,0.04361
632.0,0.04293
633.0,0.04412
634.0,0.04357
635.0,0.04407
636.0,0.04332
637.0,0.04386
638.0,0.04414
639.0,0.04348
640.0,0.04289
641.0,0.04268
642.0,0.04234
643.0,0.04275
644.0,0.04245
645.0,0.0423
646.0,0.04106
647.0,0.04027
648.0,0.0401
649.0,0.03914
650.0,0.03931
651.0,0.04085
652.0,0.03878
653.0,0.03995
654.0,0.03934
655.0,0.0376
656.0,0.03324
657.0,0.034
658.0,0.038
659.0,0.03812
660.0,0.03811
661.0,0.0382
662.0,0.03809
663.0,0.03719
664.0,0.03752
665.0,0.03741
666.0,0.03729
667.0,0.03711
668.0,0.03699
669.0,0.03741
670.0,0.03708
671.0,0.03692
672.0,0.03648
673.0,0.0369
674.0,0.0366
675.0,0.03611
676.0,0.0362
677.0,0.0357
678.0,0.03567
679.0,0.03494
680.0,0.03507
681.0,0.03468
682.0,0.03447
683.0,0.03425
684.0,0.03391
685.0,0.03403
686.0,0.03368
687.0,0.02072
688.0,0.0248
689.0,0.0248
690.0,0.02613
691.0,0.02768
692.0,0.02881
693.0,0.02842
694.0,0.02803
695.0,0.02927
696.0,0.02917
697.0,0.03117
698.0,0.03054
699.0,0.02947
700.0,0.02898
701.0,0.02851
702.0,0.02865
703.0,0.02857
704.0,0.02946
705.0,0.02936
706.0,0.02925
707.0,0.02915
708.0,0.02907
709.0,0.02904
710.0,0.02886
711.0,0.02875
712.0,0.02858
713.0,0.02813
714.0,0.02809
715.0,0.02699
716.0,0.02687
717.0,0.02256
718.0,0.02046
719.0,0.01851
720.0,0.01934
721.0,0.02162
722.0,0.02517
723.0,0.02303
724.0,0.02034
725.0,0.01988
726.0,0.02082
727.0,0.02108
728.0,0.01955
729.0,0.02039
730.0,0.02154
731.0,0.02042
732.0,0.02198
733.0,0.0234
734.0,0.0239
735.0,0.02327
736.0,0.02313
737.0,0.02311
738.0,0.0235
739.0,0.02292
740.0,0.02345
741.0,0.02313
742.0,0.02307
743.0,0.02353
744.0,0.02336
745.0,0.02326
746.0,0.02326
747.0,0.0232
748.0,0.02303
749.0,0.02266
750.0,0.02255
751.0,0.02223
752.0,0.02223
753.0,0.02224
754.0,0.02219
755.0,0.02196
756.0,0.02186
757.0,0.0218
758.0,0.02142
759.0,0.0208
760.0,0.002845
761.0,0.001476
762.0,0.009328
763.0,0.004352
764.0,0.006709
765.0,0.009186
766.0,0.01164
767.0,0.01517
768.0,0.01796
769.0,0.01838
770.0,0.01907
771.0,0.0192
772.0,0.01917
773.0,0.01921
774.0,0.01901
775.0,0.01878
776.0,0.01892
777.0,0.01858
778.0,0.01836
779.0,0.01828
780.0,0.0181
781.0,0.01804
782.0,0.01807
783.0,0.01769
784.0,0.0177
785.0,0.01749
786.0,0.0176
787.0,0.01716
788.0,0.01684
789.0,0.01675
790.0,0.01614
791.0,0.01629
792.0,0.01611
793.0,0.01576
794.0,0.01606
795.0,0.01623
796.0,0.01554
797.0,0.01549
798.0,0.01599
799.0,0.01579
800.0,0.01541
801.0,0.01527
802.0,0.01515
803.0,0.01496
804.0,0.01492
805.0,0.01484
806.0,0.01523
807.0,0.01496
808.0,0.01491
809.0,0.01452
810.0,0.0143
811.0,0.01421
812.0,0.01365
813.0,0.01325
814.0,0.01135
815.0,0.01122
816.0,0.0103
817.0,0.01047
818.0,0.009994
819.0,0.01135
820.0,0.01055
821.0,0.01264
822.0,0.01216
823.0,0.007724
824.0,0.01162
825.0,0.01218
826.0,0.01157
827.0,0.01228
828.0,0.01007
829.0,0.01137
830.0,0.01115
831.0,0.01115
832.0,0.0107
833.0,0.01152
834.0,0.01098
835.0,0.01221
836.0,0.01151
837.0,0.01214
838.0,0.01166
839.0,0.01186
840.0,0.01208
841.0,0.01183
842.0,0.01184
843.0,0.01182
844.0,0.01158
845.0,0.01195
846.0,0.01185
847.0,0.01158
848.0,0.01144
849.0,0.01106
850.0,0.01055
851.0,0.0111
852.0,0.01097
853.0,0.01052
854.0,0.009034
855.0,0.009902
856.0,0.01077
857.0,0.01098
858.0,0.01085
859.0,0.01082
860.0,0.0108
861.0,0.0107
862.0,0.01083
863.0,0.01105
864.0,0.01045
865.0,0.01032
866.0,0.009242
867.0,0.009606
868.0,0.01041
869.0,0.01015
870.0,0.0104
871.0,0.01022
872.0,0.01014
873.0,0.01008
874.0,0.009913
875.0,0.009668
876.0,0.009724
877.0,0.009783
878.0,0.009844
879.0,0.009652
880.0,0.009405
881.0,0.009218
882.0,0.009378
883.0,0.009376
884.0,0.009288
885.0,0.009315
886.0,0.008814
887.0,0.008893
888.0,0.008972
889.0,0.00906
890.0,0.008914
891.0,0.008879
892.0,0.008554
893.0,0.008204
894.0,0.007797
895.0,0.007233
896.0,0.006703
897.0,0.005585
898.0,0.006158
899.0,0.004464
900.0,0.006327
901.0,0.004697
902.0,0.005666
903.0,0.005654
904.0,0.007422
905.0,0.007088
906.0,0.006555
907.0,0.005083
908.0,0.005201
909.0,0.005715
910.0,0.004885
911.0,0.005273
912.0,0.005528
913.0,0.004895
914.0,0.004846
915.0,0.005285
916.0,0.004356
917.0,0.005741
918.0,0.004445
919.0,0.005825
920.0,0.00592
921.0,0.006189
922.0,0.005386
923.0,0.005935
924.0,0.005479
925.0,0.005324
926.0,0.005372
927.0,0.006104
928.0,0.004165
929.0,0.003724
930.0,0.002799
931.0,0.00263
932.0,0.001799
933.0,0.00142
934.0,0.0007271
935.0,0.001456
936.0,0.0008636
937.0,0.0008707
938.0,0.001084
939.0,0.002461
940.0,0.003036
941.0,0.002189
942.0,0.002574
943.0,0.001598
944.0,0.001709
945.0,0.002227
946.0,0.001042
947.0,0.002209
948.0,0.001572
949.0,0.003059
950.0,0.0007288
951.0,0.002995
952.0,0.001471
953.0,0.001962
954.0,0.002486
955.0,0.001982
956.0,0.001934
957.0,0.001444
958.0,0.002859
959.0,0.002164
960.0,0.002447
961.0,0.002804
962.0,0.002625
963.0,0.003098
964.0,0.002789
965.0,0.003063
966.0,0.003048
967.0,0.003014
968.0,0.004321
969.0,0.004504
970.0,0.004058
971.0,0.004784
972.0,0.004513
973.0,0.00378
974.0,0.003548
975.0,0.003703
976.0,0.003447
977.0,0.004049
978.0,0.003775
979.0,0.003985
980.0,0.003688
981.0,0.004577
982.0,0.004309
983.0,0.004088
984.0,0.004721
985.0,0.004244
986.0,0.004802
987.0,0.004654
988.0,0.004626
989.0,0.004752
990.0,0.004565
991.0,0.004719
992.0,0.004732
993.0,0.004576
994.0,0.004702
995.0,0.004684
996.0,0.00464
997.0,0.004632
998.0,0.004592
999.0,0.00456
1000.0,0.004503
1001.0,0.004552
1002.0,0.004374
1003.0,0.004435
1004.0,0.0043
1005.0,0.004139
1006.0,0.004277
1007.0,0.004354
1008.0,0.004308
1009.0,0.004262
1010.0,0.004224
1011.0,0.004269
1012.0,0.004208
1013.0,0.004228
1014.0,0.004183
1015.0,0.004139
1016.0,0.004103
1017.0,0.004097
1018.0,0.004069
1019.0,0.003954
1020.0,0.004014
1021.0,0.003996
1022.0,0.003944
1023.0,0.003971
1024.0,0.003892
1025.0,0.003944
1026.0,0.003908
1027.0,0.003885
1028.0,0.003862
1029.0,0.003801
1030.0,0.003817
1031.0,0.003786
1032.0,0.003761
1033.0,0.00369
1034.0,0.003677
1035.0,0.003674
1036.0,0.003677
1037.0,0.003604
1038.0,0.003607
1039.0,0.003591
1040.0,0.003563
1041.0,0.003562
1042.0,0.003524
1043.0,0.0035
1044.0,0.003499
1045.0,0.003437
1046.0,0.003385
1047.0,0.003402
1048.0,0.003408
1049.0,0.003383
1050.0,0.003354
1051.0,0.003336
1052.0,0.003309
1053.0,0.00327
1054.0,0.003264
1055.0,0.003252
1056.0,0.003226
1057.0,0.003203
1058.0,0.003112
1059.0,0.003103
1060.0,0.003086
1061.0,0.003069
1062.0,0.003072
1063.0,0.00303
1064.0,0.003056
1065.0,0.003018
1066.0,0.002951
1067.0,0.002977
1068.0,0.002898
1069.0,0.0028
1070.0,0.002881
1071.0,0.002925
1072.0,0.002874
1073.0,0.002824
1074.0,0.002898
1075.0,0.002714
1076.0,0.002873
1077.0,0.002794
1078.0,0.002725
1079.0,0.0028
1080.0,0.002718
1081.0,0.002612
1082.0,0.002668
1083.0,0.002672
1084.0,0.002568
1085.0,0.002681
1086.0,0.002388
1087.0,0.002495
1088.0,0.002615
1089.0,0.0025
1090.0,0.002415
1091.0,0.002571
1092.0,0.002561
1093.0,0.002084
1094.0,0.002318
1095.0,0.002171
1096.0,0.002048
1097.0,0.00246
1098.0,0.001995
1099.0,0.002085
1100.0,0.001896
1101.0,0.001924
1102.0,0.001814
1103.0,0.001776
1104.0,0.001775
1105.0,0.001987
1106.0,0.001411
1107.0,0.001851
1108.0,0.001499
1109.0,0.001502
1110.0,0.001807
1111.0,0.001128
1112.0,0.001478
1113.0,0.0008581
1114.0,0.0009675
1115.0,0.0007832
1116.0,0.000596
1117.0,0.0001952
1118.0,0.0006526
1119.0,0.0002975
1120.0,0.0003767
1121.0,0.000513
1122.0,0.0001981
1123.0,0.0003352
1124.0,0.0002794
1125.0,0.0003715
1126.0,0.000117
1127.0,0.0004196
1128.0,0.0002353
1129.0,0.0002505
1130.0,0.0001596
1131.0,0.0008539
1132.0,0.0006473
1133.0,0.0003825
1134.0,8.783e-05
1135.0,3.243e-05
1136.0,0.0003083
1137.0,0.0008147
1138.0,0.0005528
1139.0,0.0008861
1140.0,0.0007119
1141.0,0.0005182
1142.0,0.0006064
1143.0,0.0009017
1144.0,0.0002766
1145.0,0.0003532
1146.0,0.0003811
1147.0,0.0001217
1148.0,0.0007544
1149.0,0.0005792
1150.0,0.0002943
1151.0,0.000524
1152.0,0.0006651
1153.0,0.0006525
1154.0,0.0003312
1155.0,0.0008791
1156.0,0.0007736
1157.0,0.0008889
1158.0,0.000875
1159.0,0.0009593
1160.0,0.0007953
1161.0,0.001022
1162.0,0.001019
1163.0,0.001465
1164.0,0.001214
1165.0,0.001119
1166.0,0.001118
1167.0,0.001233
1168.0,0.001241
1169.0,0.001277
1170.0,0.001407
1171.0,0.001361
1172.0,0.001392
1173.0,0.00139
1174.0,0.0009236
1175.0,0.001356
1176.0,0.001517
1177.0,0.001433
1178.0,0.001015
1179.0,0.001516
1180.0,0.001309
1181.0,0.001354
1182.0,0.0008695
1183.0,0.001333
1184.0,0.001221
1185.0,0.001161
1186.0,0.001427
1187.0,0.001339
1188.0,0.0008688
1189.0,0.001232
1190.0,0.001375
1191.0,0.001278
1192.0,0.001389
1193.0,0.001314
1194.0,0.00136
1195.0,0.001265
1196.0,0.001204
1197.0,0.00136
1198.0,0.001222
1199.0,0.000998
1200.0,0.001272
1201.0,0.00121
1202.0,0.001204
1203.0,0.001194
1204.0,0.001011
1205.0,0.001232
1206.0,0.001387
1207.0,0.001183
1208.0,0.001172
1209.0,0.001194
1210.0,0.00125
1211.0,0.001172
1212.0,0.001141
1213.0,0.001305
1214.0,0.001169
1215.0,0.001139
1216.0,0.001288
1217.0,0.001243
1218.0,0.001269
1219.0,0.001246
1220.0,0.001263
1221.0,0.001276
1222.0,0.001233
1223.0,0.001215
1224.0,0.001199
1225.0,0.001251
1226.0,0.00126
1227.0,0.001139
1228.0,0.001262
1229.0,0.001248
1230.0,0.001219
1231.0,0.001261
1232.0,0.001249
1233.0,0.001188
1234.0,0.001251
1235.0,0.001237
1236.0,0.001244
1237.0,0.001217
1238.0,0.001232
1239.0,0.001212
1240.0,0.001213
1241.0,0.0012
1242.0,0.001196
1243.0,0.001183
1244.0,0.001186
1245.0,0.001188
1246.0,0.001177
1247.0,0.001168
1248.0,0.001162
1249.0,0.001163
1250.0,0.001151
1251.0,0.001131
1252.0,0.00113
1253.0,0.001113
1254.0,0.001095
1255.0,0.001117
1256.0,0.001074
1257.0,0.001063
1258.0,0.001086
1259.0,0.00103
1260.0,0.001034
1261.0,0.0009576
1262.0,0.0009182
1263.0,0.0009169
1264.0,0.0008267
1265.0,0.0009061
1266.0,0.000859
1267.0,0.0008785
1268.0,0.0008194
1269.0,0.0004514
1270.0,0.0008653
1271.0,0.0009297
1272.0,0.0009316
1273.0,0.0009171
1274.0,0.0009193
1275.0,0.0009326
1276.0,0.0009416
1277.0,0.0009481
1278.0,0.0009696
1279.0,0.0009573
1280.0,0.0009426
1281.0,0.0008995
1282.0,0.0008688
1283.0,0.0009318
1284.0,0.00095
1285.0,0.0009541
1286.0,0.0009667
1287.0,0.0009437
1288.0,0.0009418
1289.0,0.0008998
1290.0,0.0009282
1291.0,0.0009398
1292.0,0.0008626
1293.0,0.0009111
1294.0,0.0009008
1295.0,0.0008897
1296.0,0.0008357
1297.0,0.000779
1298.0,0.0008533
1299.0,0.0008968
1300.0,0.0007258
1301.0,0.000752
1302.0,0.0008412
1303.0,0.0007114
1304.0,0.0005812
1305.0,0.0008129
1306.0,0.0008095
1307.0,0.0005936
1308.0,0.0007033
1309.0,0.0007935
1310.0,0.000575
1311.0,0.0006622
1312.0,0.0006406
1313.0,0.0006213
1314.0,0.0005418
1315.0,0.0005322
1316.0,0.0006395
1317.0,0.0005975
1318.0,0.0006601
1319.0,0.0004853
1320.0,0.0004693
1321.0,0.0005603
1322.0,0.0005625
1323.0,0.0003987
1324.0,0.0004683
1325.0,0.0006107
1326.0,0.0005064
1327.0,0.0004769
1328.0,0.0004
1329.0,0.0002842
1330.0,0.000382
1331.0,0.0002125
1332.0,0.0002213
1333.0,0.0003175
1334.0,0.0002679
1335.0,0.0003827
1336.0,0.0002901
1337.0,0.0002516
1338.0,0.0002732
1339.0,0.0002723
1340.0,0.000265
1341.0,0.0002529
1342.0,0.0002665
1343.0,0.0001678
1344.0,9.766e-05
1345.0,0.0001432
1346.0,6.621e-05
1347.0,6.68e-05
1348.0,4.073e-06
1349.0,1.475e-05
1350.0,1.534e-05
1351.0,3.65e-06
1352.0,9.781e-07
1353.0,4.973e-08
1354.0,1.71e-07
1355.0,1.376e-09
1356.0,2.408e-08
1357.0,3.659e-08
1358.0,1.615e-09
1359.0,2.035e-10
