interpolation:linear
wavelength,value
280.0,1.6459999999999998e-22
280.5,5.452e-21
281.0,2.931e-20
281.5,3.907e-19
282.0,5.815e-19
282.5,1.435e-18
283.0,4.533e-18
283.5,7.385e-18
284.0,1.221e-16
284.5,3.57e-16
285.0,5.92e-16
285.5,2.939e-15
286.0,1.185e-14
286.5,5.343e-14
287.0,1.535e-13
287.5,5.934e-13
288.0,2.106e-12
288.5,6.242e-12
289.0,1.642e-11
289.5,4.921e-11
290.0,1.362e-10
290.5,2.772e-10
291.0,5.945e-10
291.5,1.706e-09
292.0,3.424e-09
292.5,4.799e-09
293.0,1.028e-08
293.5,2.499e-08
294.0,3.907e-08
294.5,5.302e-08
295.0,8.978e-08
295.5,1.487e-07
296.0,2.867e-07
296.5,4.006e-07
297.0,5.414e-07
297.5,1.45e-06
298.0,2.281e-06
298.5,2.29e-06
299.0,5.036e-06
299.5,8.32e-06
300.0,9.113e-06
300.5,1.313e-05
301.0,2.352e-05
301.5,3.702e-05
302.0,3.141e-05
302.5,6.23e-05
303.0,0.0001143
303.5,0.000147
304.0,0.0001425
304.5,0.0002316
305.0,0.000398
305.5,0.0004942
306.0,0.0004934
306.5,0.000648
307.0,0.001085
307.5,0.001626
308.0,0.001749
308.5,0.002193
309.0,0.00244
309.5,0.003166
310.0,0.003367
310.5,0.005604
311.0,0.007364
311.5,0.007245
312.0,0.008012
312.5,0.01042
313.0,0.01169
313.5,0.01096
314.0,0.01484
314.5,0.01464
315.0,0.01958
315.5,0.01551
316.0,0.01477
316.5,0.02285
317.0,0.02828
317.5,0.02874
318.0,0.02358
318.5,0.03233
319.0,0.04031
319.5,0.0302
320.0,0.03597
320.5,0.04985
321.0,0.0487
321.5,0.04704
322.0,0.04521
322.5,0.03945
323.0,0.0419
323.5,0.05486
324.0,0.06459
324.5,0.06372
325.0,0.05292
325.5,0.07171
326.0,0.08909
326.5,0.09222
327.0,0.09054
327.5,0.08585
328.0,0.0729
328.5,0.0808
329.0,0.1011
329.5,0.1162
330.0,0.1156
330.5,0.0891
331.0,0.08953
331.5,0.09321
332.0,0.1045
332.5,0.105
333.0,0.1034
333.5,0.09074
334.0,0.09233
334.5,0.1099
335.0,0.1051
335.5,0.1237
336.0,0.08544
336.5,0.09789
337.0,0.07902
337.5,0.09757
338.0,0.09776
338.5,0.114
339.0,0.1126
339.5,0.1081
340.0,0.1254
340.5,0.1131
341.0,0.111
341.5,0.1018
342.0,0.1215
342.5,0.1135
343.0,0.1244
343.5,0.1169
344.0,0.08559
344.5,0.08692
345.0,0.1148
345.5,0.117
346.0,0.0993
346.5,0.1123
347.0,0.1202
347.5,0.09693
348.0,0.1104
348.5,0.1102
349.0,0.102
349.5,0.1008
350.0,0.1244
350.5,0.1309
351.0,0.1166
351.5,0.113
352.0,0.1212
352.5,0.09441
353.0,0.1187
353.5,0.1267
354.0,0.1313
354.5,0.1329
355.0,0.1321
355.5,0.1191
356.0,0.1243
356.5,0.1059
357.0,0.08733
357.5,0.1067
358.0,0.08437
358.5,0.07194
359.0,0.1004
359.5,0.1275
360.0,0.1349
360.5,0.1076
361.0,0.0979
361.5,0.1125
362.0,0.09708
362.5,0.1341
363.0,0.1201
363.5,0.1104
364.0,0.1347
364.5,0.1149
365.0,0.1167
365.5,0.1461
366.0,0.1545
366.5,0.1448
367.0,0.1407
367.5,0.1457
368.0,0.1272
368.5,0.128
369.0,0.1379
369.5,0.1467
370.0,0.156
370.5,0.1208
371.0,0.1288
371.5,0.1607
372.0,0.1064
372.5,0.1273
373.0,0.1292
373.5,0.08384
374.0,0.1215
374.5,0.1004
375.0,0.09736
375.5,0.145
376.0,0.1199
376.5,0.1239
377.0,0.1309
377.5,0.1528
378.0,0.1652
378.5,0.1557
379.0,0.1282
379.5,0.1168
380.0,0.1211
380.5,0.1463
381.0,0.1462
381.5,0.1156
382.0,0.1024
382.5,0.08706
383.0,0.08039
383.5,0.07723
384.0,0.08497
384.5,0.1247
385.0,0.1233
385.5,0.1145
386.0,0.09785
386.5,0.1282
387.0,0.1062
387.5,0.119
388.0,0.1096
388.5,0.108
389.0,0.1163
389.5,0.1405
390.0,0.1406
390.5,0.1291
391.0,0.1515
391.5,0.1541
392.0,0.1295
392.5,0.1156
393.0,0.06415
393.5,0.0465
394.0,0.09438
394.5,0.1197
395.0,0.1456
395.5,0.1475
396.0,0.1276
396.5,0.07438
397.0,0.05567
397.5,0.1129
398.0,0.1577
398.5,0.1625
399.0,0.1755
399.5,0.1745
400.0,0.1807
401.0,0.1776
402.0,0.1864
403.0,0.176
404.0,0.1723
405.0,0.1713
406.0,0.1676
407.0,0.1639
408.0,0.1693
409.0,0.1801
410.0,0.1565
411.0,0.1686
412.0,0.18
413.0,0.1746
414.0,0.1757
415.0,0.1751
416.0,0.1771
417.0,0.1717
418.0,0.1675
419.0,0.1687
420.0,0.1669
421.0,0.1735
422.0,0.1639
423.0,0.159
424.0,0.167
425.0,0.1657
426.0,0.1604
427.0,0.1565
428.0,0.1516
429.0,0.1428
430.0,0.1242
431.0,0.1223
432.0,0.1568
433.0,0.1567
434.0,0.1446
435.0,0.1501
436.0,0.1681
437.0,0.1649
438.0,0.1491
439.0,0.1532
440.0,0.1569
441.0,0.1614
442.0,0.1719
443.0,0.1664
444.0,0.169
445.0,0.1644
446.0,0.1561
447.0,0.1677
448.0,0.1692
449.0,0.1686
450.0,0.1721
451.0,0.1773
452.0,0.1697
453.0,0.1587
454.0,0.1647
455.0,0.1645
456.0,0.1672
457.0,0.1686
458.0,0.1615
459.0,0.1594
460.0,0.1585
461.0,0.161
462.0,0.1612
463.0,0.1592
464.0,0.1559
465.0,0.1532
466.0,0.1538
467.0,0.1499
468.0,0.1505
469.0,0.15
470.0,0.1442
471.0,0.1432
472.0,0.1499
473.0,0.147
474.0,0.1462
475.0,0.1463
476.0,0.1407
477.0,0.1398
478.0,0.1424
479.0,0.1402
480.0,0.1392
481.0,0.1405
482.0,0.1402
483.0,0.1376
484.0,0.1341
485.0,0.1272
486.0,0.1107
487.0,0.1153
488.0,0.1257
489.0,0.1251
490.0,0.1306
491.0,0.1275
492.0,0.1195
493.0,0.1226
494.0,0.123
495.0,0.1232
496.0,0.123
497.0,0.1238
498.0,0.1169
499.0,0.1172
500.0,0.1126
501.0,0.1094
502.0,0.1066
503.0,0.1098
504.0,0.1059
505.0,0.1089
506.0,0.1116
507.0,0.1056
508.0,0.1018
509.0,0.1041
510.0,0.103
511.0,0.1051
512.0,0.1055
513.0,0.0991
514.0,0.09765
515.0,0.09592
516.0,0.09495
517.0,0.08375
518.0,0.0874
519.0,0.09097
520.0,0.09352
521.0,0.09362
522.0,0.09289
523.0,0.09049
524.0,0.09286
525.0,0.09304
526.0,0.08805
527.0,0.08212
528.0,0.08598
529.0,0.08981
530.0,0.08776
531.0,0.0883
532.0,0.08458
533.0,0.08151
534.0,0.08337
535.0,0.08468
536.0,0.08494
537.0,0.08107
538.0,0.08195
539.0,0.08071
540.0,0.07682
541.0,0.07669
542.0,0.07841
543.0,0.07697
544.0,0.07772
545.0,0.07695
546.0,0.0767
547.0,0.07611
548.0,0.07467
549.0,0.0744
550.0,0.07475
551.0,0.07332
552.0,0.07329
553.0,0.07145
554.0,0.07262
555.0,0.07221
556.0,0.0707
557.0,0.06792
558.0,0.06679
559.0,0.06493
560.0,0.06514
561.0,0.06538
562.0,0.0643
563.0,0.06546
564.0,0.06315
565.0,0.06211
566.0,0.0607
567.0,0.06134
568.0,0.06026
569.0,0.05827
570.0,0.05784
571.0,0.05708
572.0,0.05794
573.0,0.05815
574.0,0.0576
575.0,0.05618
576.0,0.05536
577.0,0.05569
578.0,0.05462
579.0,0.05463
580.0,0.05549
581.0,0.05556
582.0,0.05639
583.0,0.05631
584.0,0.05656
585.0,0.0549
586.0,0.05345
587.0,0.05425
588.0,0.05249
589.0,0.04595
590.0,0.04778
591.0,0.05039
592.0,0.0493
593.0,0.04975
594.0,0.04895
595.0,0.04727
596.0,0.04896
597.0,0.048
598.0,0.04754
599.0,0.04723
600.0,0.04701
601.0,0.04636
602.0,0.04577
603.0,0.04628
604.0,0.04681
605.0,0.04637
606.0,0.04602
607.0,0.04633
608.0,0.04566
609.0,0.0456
610.0,0.04514
611.0,0.04525
612.0,0.04498
613.0,0.04427
614.0,0.04352
615.0,0.04433
616.0,0.04273
617.0,0.0425
618.0,0.04397
619.0,0.04337
620.0,0.04346
621.0,0.0433
622.0,0.04258
623.0,0.04173
624.0,0.04084
625.0,0.04058
626.0,0.04102
627.0,0.04125
628.0,0.0378
629.0,0.03973
630.0,0.03863
631.0,0.03952
632.0,0.03893
633.0,0.04005
634.0,0.03958
635.0,0.04006
636.0,0.03941
637.0,0.03993
638.0,0.04021
639.0,0.03964
640.0,0.03913
641.0,0.03897
642.0,0.03868
643.0,0.03907
644.0,0.03882
645.0,0.0387
646.0,0.03757
647.0,0.03683
648.0,0.03669
649.0,0.03582
650.0,0.03603
651.0,0.03746
652.0,0.03554
653.0,0.03667
654.0,0.03613
655.0,0.03452
656.0,0.03054
657.0,0.03125
658.0,0.03495
659.0,0.03509
660.0,0.03509
661.0,0.03519
662.0,0.03509
663.0,0.03428
664.0,0.0346
665.0,0.03452
666.0,0.03442
667.0,0.03429
668.0,0.03419
669.0,0.03459
670.0,0.0343
671.0,0.03417
672.0,0.03377
673.0,0.03418
674.0,0.03391
675.0,0.03347
676.0,0.03357
677.0,0.03311
678.0,0.03309
679.0,0.03243
680.0,0.03255
681.0,0.0322
682.0,0.03201
683.0,0.03181
684.0,0.0315
685.0,0.03163
686.0,0.0313
687.0,0.01898
688.0,0.0228
689.0,0.02281
690.0,0.02408
691.0,0.02558
692.0,0.02669
693.0,0.02634
694.0,0.02601
695.0,0.02722
696.0,0.02714
697.0,0.02904
698.0,0.02846
699.0,0.02744
700.0,0.02698
701.0,0.02653
702.0,0.02668
703.0,0.02662
704.0,0.02747
705.0,0.02738
706.0,0.02729
707.0,0.0272
708.0,0.02713
709.0,0.02712
710.0,0.02695
711.0,0.02685
712.0,0.0267
713.0,0.02627
714.0,0.02624
715.0,0.0252
716.0,0.02509
717.0,0.02096
718.0,0.01903
719.0,0.01723
720.0,0.01798
721.0,0.02015
722.0,0.02349
723.0,0.02149
724.0,0.01896
725.0,0.01852
726.0,0.01939
727.0,0.01967
728.0,0.01822
729.0,0.01903
730.0,0.02008
731.0,0.01904
732.0,0.02053
733.0,0.02189
734.0,0.02237
735.0,0.02177
736.0,0.02164
737.0,0.02162
738.0,0.02202
739.0,0.02148
740.0,0.02199
741.0,0.0217
742.0,0.02164
743.0,0.02208
744.0,0.02192
745.0,0.02183
746.0,0.02183
747.0,0.02178
748.0,0.02162
749.0,0.02127
750.0,0.02117
751.0,0.02088
752.0,0.02089
753.0,0.0209
754.0,0.02086
755.0,0.02065
756.0,0.02056
757.0,0.0205
758.0,0.02015
759.0,0.01954
760.0,0.002697
761.0,0.001418
762.0,0.00862
763.0,0.004081
764.0,0.006228
765.0,0.008491
766.0,0.01077
767.0,0.0141
768.0,0.01681
769.0,0.01723
770.0,0.01792
771.0,0.01806
772.0,0.01804
773.0,0.01807
774.0,0.01789
775.0,0.01767
776.0,0.0178
777.0,0.01747
778.0,0.01727
779.0,0.01719
780.0,0.01702
781.0,0.01696
782.0,0.017
783.0,0.01664
784.0,0.01666
785.0,0.01646
786.0,0.01657
787.0,0.01614
788.0,0.01584
789.0,0.01575
790.0,0.01517
791.0,0.01533
792.0,0.01516
793.0,0.01484
794.0,0.01513
795.0,0.01529
796.0,0.01462
797.0,0.01457
798.0,0.01506
799.0,0.01487
800.0,0.01451
801.0,0.01437
802.0,0.01426
803.0,0.01407
804.0,0.01404
805.0,0.01397
806.0,0.01435
807.0,0.0141
808.0,0.01405
809.0,0.01367
810.0,0.01345
811.0,0.01335
812.0,0.01281
813.0,0.01243
814.0,0.01062
815.0,0.01051
816.0,0.009652
817.0,0.009809
818.0,0.009359
819.0,0.01064
820.0,0.009893
821.0,0.01188
822.0,0.01143
823.0,0.007241
824.0,0.0109
825.0,0.01146
826.0,0.01088
827.0,0.01156
828.0,0.009446
829.0,0.0107
830.0,0.01049
831.0,0.01049
832.0,0.01006
833.0,0.01084
834.0,0.01032
835.0,0.01151
836.0,0.01082
837.0,0.01144
838.0,0.01098
839.0,0.01118
840.0,0.01139
841.0,0.01115
842.0,0.01116
843.0,0.01115
844.0,0.01092
845.0,0.01127
846.0,0.01118
847.0,0.01093
848.0,0.01079
849.0,0.01044
850.0,0.009952
851.0,0.01046
852.0,0.01034
853.0,0.009924
854.0,0.008517
855.0,0.009339
856.0,0.01016
857.0,0.01036
858.0,0.01024
859.0,0.01021
860.0,0.01019
861.0,0.0101
862.0,0.01022
863.0,0.01043
864.0,0.00987
865.0,0.009747
866.0,0.008729
867.0,0.009074
868.0,0.009835
869.0,0.009593
870.0,0.009827
871.0,0.009653
872.0,0.00958
873.0,0.009522
874.0,0.009367
875.0,0.009135
876.0,0.009189
877.0,0.009244
878.0,0.009301
879.0,0.00912
880.0,0.008887
881.0,0.008707
882.0,0.008857
883.0,0.008856
884.0,0.008773
885.0,0.008798
886.0,0.008317
887.0,0.008397
888.0,0.008469
889.0,0.008556
890.0,0.008413
891.0,0.008382
892.0,0.008068
893.0,0.007732
894.0,0.007334
895.0,0.006788
896.0,0.006295
897.0,0.005239
898.0,0.005774
899.0,0.00419
900.0,0.005941
901.0,0.0044
902.0,0.005315
903.0,0.005298
904.0,0.00698
905.0,0.006665
906.0,0.006162
907.0,0.004764
908.0,0.004881
909.0,0.005362
910.0,0.004577
911.0,0.004953
912.0,0.005184
913.0,0.004585
914.0,0.004544
915.0,0.004942
916.0,0.004088
917.0,0.005377
918.0,0.004165
919.0,0.005463
920.0,0.005572
921.0,0.005813
922.0,0.005054
923.0,0.005577
924.0,0.005131
925.0,0.00499
926.0,0.005027
927.0,0.005717
928.0,0.003888
929.0,0.003473
930.0,0.002613
931.0,0.002457
932.0,0.001686
933.0,0.001336
934.0,0.000692
935.0,0.001369
936.0,0.000819
937.0,0.0008258
938.0,0.001024
939.0,0.002297
940.0,0.002829
941.0,0.002044
942.0,0.002398
943.0,0.001499
944.0,0.001606
945.0,0.002081
946.0,0.0009842
947.0,0.002062
948.0,0.001478
949.0,0.002844
950.0,0.0006929
951.0,0.002784
952.0,0.001382
953.0,0.001835
954.0,0.002318
955.0,0.001853
956.0,0.001822
957.0,0.001356
958.0,0.002678
959.0,0.002027
960.0,0.002285
961.0,0.002621
962.0,0.002458
963.0,0.002899
964.0,0.002613
965.0,0.002864
966.0,0.002851
967.0,0.002817
968.0,0.004063
969.0,0.00422
970.0,0.003807
971.0,0.004499
972.0,0.004241
973.0,0.003541
974.0,0.003326
975.0,0.003474
976.0,0.003225
977.0,0.003806
978.0,0.00354
979.0,0.003738
980.0,0.003462
981.0,0.004305
982.0,0.004047
983.0,0.003838
984.0,0.004449
985.0,0.003984
986.0,0.004531
987.0,0.004385
988.0,0.00436
989.0,0.004488
990.0,0.0043
991.0,0.004453
992.0,0.004468
993.0,0.004314
994.0,0.00444
995.0,0.004425
996.0,0.004382
997.0,0.004376
998.0,0.004338
999.0,0.004308
1000.0,0.004252
1001.0,0.0043
1002.0,0.004124
1003.0,0.00419
1004.0,0.00406
1005.0,0.003911
1006.0,0.00404
1007.0,0.004114
1008.0,0.004069
1009.0,0.004024
1010.0,0.003988
1011.0,0.004033
1012.0,0.003975
1013.0,0.003995
1014.0,0.003953
1015.0,0.003911
1016.0,0.003877
1017.0,0.00387
1018.0,0.003846
1019.0,0.003734
1020.0,0.003793
1021.0,0.003776
1022.0,0.003727
1023.0,0.003752
1024.0,0.003674
1025.0,0.003727
1026.0,0.003693
1027.0,0.003671
1028.0,0.003648
1029.0,0.003591
1030.0,0.003607
1031.0,0.003577
1032.0,0.003554
1033.0,0.003487
1034.0,0.003474
1035.0,0.003472
1036.0,0.003475
1037.0,0.003406
1038.0,0.003408
1039.0,0.003393
1040.0,0.003366
1041.0,0.003365
1042.0,0.003329
1043.0,0.003306
1044.0,0.003305
1045.0,0.003246
1046.0,0.003197
1047.0,0.003213
1048.0,0.003218
1049.0,0.003194
1050.0,0.003167
1051.0,0.003149
1052.0,0.003123
1053.0,0.003086
1054.0,0.00308
1055.0,0.003069
1056.0,0.003044
1057.0,0.003022
1058.0,0.002935
1059.0,0.002926
1060.0,0.00291
1061.0,0.002894
1062.0,0.002897
1063.0,0.002856
1064.0,0.002881
1065.0,0.002845
1066.0,0.002782
1067.0,0.002806
1068.0,0.002731
1069.0,0.00264
1070.0,0.002716
1071.0,0.002759
1072.0,0.002709
1073.0,0.002662
1074.0,0.002734
1075.0,0.002556
1076.0,0.00271
1077.0,0.002634
1078.0,0.002567
1079.0,0.002643
1080.0,0.002562
1081.0,0.002459
1082.0,0.002516
1083.0,0.002521
1084.0,0.002417
1085.0,0.002527
1086.0,0.002247
1087.0,0.002349
1088.0,0.002468
1089.0,0.002353
1090.0,0.002273
1091.0,0.002424
1092.0,0.002415
1093.0,0.001957
1094.0,0.002185
1095.0,0.002037
1096.0,0.00192
1097.0,0.00232
1098.0,0.001868
1099.0,0.001953
1100.0,0.001775
1101.0,0.001803
1102.0,0.001697
1103.0,0.001661
1104.0,0.00166
1105.0,0.001861
1106.0,0.001315
1107.0,0.001733
1108.0,0.0014
1109.0,0.001403
1110.0,0.001689
1111.0,0.001052
1112.0,0.001381
1113.0,0.0008024
1114.0,0.000902
1115.0,0.0007325
1116.0,0.0005584
1117.0,0.0001868
1118.0,0.00061
1119.0,0.0002819
1120.0,0.0003549
1121.0,0.0004799
1122.0,0.000189
1123.0,0.0003166
1124.0,0.0002648
1125.0,0.00035
1126.0,0.0001127
1127.0,0.0003942
1128.0,0.0002238
1129.0,0.0002377
1130.0,0.000153
1131.0,0.0007912
1132.0,0.0006031
1133.0,0.0003596
1134.0,8.497e-05
1135.0,3.167e-05
1136.0,0.0002911
1137.0,0.0007544
1138.0,0.0005161
1139.0,0.0008245
1140.0,0.0006631
1141.0,0.0004846
1142.0,0.0005656
1143.0,0.0008362
1144.0,0.0002619
1145.0,0.0003322
1146.0,0.0003577
1147.0,0.000117
1148.0,0.0007014
1149.0,0.0005406
1150.0,0.0002788
1151.0,0.0004894
1152.0,0.000619
1153.0,0.0006092
1154.0,0.0003122
1155.0,0.0008169
1156.0,0.0007194
1157.0,0.0008286
1158.0,0.0008156
1159.0,0.0008928
1160.0,0.0007434
1161.0,0.0009548
1162.0,0.0009516
1163.0,0.001372
1164.0,0.001136
1165.0,0.001045
1166.0,0.001047
1167.0,0.001155
1168.0,0.001161
1169.0,0.001195
1170.0,0.001319
1171.0,0.001277
1172.0,0.001309
1173.0,0.001303
1174.0,0.0008652
1175.0,0.001274
1176.0,0.001431
1177.0,0.001347
1178.0,0.0009534
1179.0,0.001428
1180.0,0.00123
1181.0,0.001272
1182.0,0.0008158
1183.0,0.001252
1184.0,0.001147
1185.0,0.001089
1186.0,0.001342
1187.0,0.001257
1188.0,0.0008126
1189.0,0.001158
1190.0,0.001295
1191.0,0.001198
1192.0,0.001308
1193.0,0.001237
1194.0,0.00128
1195.0,0.001188
1196.0,0.001129
1197.0,0.00128
1198.0,0.001151
1199.0,0.0009354
1200.0,0.001196
1201.0,0.001135
1202.0,0.001133
1203.0,0.00112
1204.0,0.0009492
1205.0,0.001161
1206.0,0.001308
1207.0,0.001111
1208.0,0.001103
1209.0,0.001123
1210.0,0.001178
1211.0,0.001102
1212.0,0.001069
1213.0,0.001228
1214.0,0.001096
1215.0,0.001068
1216.0,0.001213
1217.0,0.001169
1218.0,0.001195
1219.0,0.001172
1220.0,0.001189
1221.0,0.001203
1222.0,0.001162
1223.0,0.001144
1224.0,0.001127
1225.0,0.001179
1226.0,0.001188
1227.0,0.001071
1228.0,0.001191
1229.0,0.001177
1230.0,0.001149
1231.0,0.001191
1232.0,0.00118
1233.0,0.001119
1234.0,0.001182
1235.0,0.001169
1236.0,0.001175
1237.0,0.001149
1238.0,0.001164
1239.0,0.001145
1240.0,0.001147
1241.0,0.001133
1242.0,0.001131
1243.0,0.001118
1244.0,0.001121
1245.0,0.001123
1246.0,0.001113
1247.0,0.001104
1248.0,0.001097
1249.0,0.001099
1250.0,0.001088
1251.0,0.001068
1252.0,0.001068
1253.0,0.00105
1254.0,0.001032
1255.0,0.001055
1256.0,0.001012
1257.0,0.001001
1258.0,0.001025
1259.0,0.0009687
1260.0,0.0009727
1261.0,0.0008969
1262.0,0.0008583
1263.0,0.0008569
1264.0,0.0007691
1265.0,0.0008468
1266.0,0.0008006
1267.0,0.0008203
1268.0,0.0007628
1269.0,0.0004158
1270.0,0.0008072
1271.0,0.000871
1272.0,0.000873
1273.0,0.000859
1274.0,0.0008617
1275.0,0.0008748
1276.0,0.0008841
1277.0,0.0008913
1278.0,0.0009129
1279.0,0.0009014
1280.0,0.0008876
1281.0,0.0008477
1282.0,0.00082
1283.0,0.0008792
1284.0,0.0008963
1285.0,0.0009004
1286.0,0.0009129
1287.0,0.00089
1288.0,0.0008887
1289.0,0.0008467
1290.0,0.0008759
1291.0,0.0008873
1292.0,0.0008107
1293.0,0.0008595
1294.0,0.0008497
1295.0,0.0008374
1296.0,0.0007847
1297.0,0.0007305
1298.0,0.000803
1299.0,0.0008463
1300.0,0.0006811
1301.0,0.0007059
1302.0,0.0007917
1303.0,0.0006679
1304.0,0.0005431
1305.0,0.0007653
1306.0,0.000761
1307.0,0.000556
1308.0,0.0006611
1309.0,0.0007449
1310.0,0.0005382
1311.0,0.0006218
1312.0,0.0006012
1313.0,0.0005818
1314.0,0.000507
1315.0,0.0004971
1316.0,0.0005996
1317.0,0.0005601
1318.0,0.0006197
1319.0,0.0004534
1320.0,0.0004394
1321.0,0.0005246
1322.0,0.0005255
1323.0,0.0003717
1324.0,0.000438
1325.0,0.0005719
1326.0,0.0004736
1327.0,0.0004458
1328.0,0.0003739
1329.0,0.0002652
1330.0,0.0003557
1331.0,0.0001988
1332.0,0.0002071
1333.0,0.0002948
1334.0,0.0002514
1335.0,0.0003562
1336.0,0.0002704
1337.0,0.0002354
1338.0,0.0002548
1339.0,0.0002541
1340.0,0.000248
1341.0,0.0002356
1342.0,0.0002482
1343.0,0.0001572
1344.0,9.271e-05
1345.0,0.0001346
1346.0,6.334e-05
1347.0,6.394e-05
1348.0,4.025e-06
1349.0,1.448e-05
1350.0,1.502e-05
1351.0,3.614e-06
1352.0,9.714e-07
1353.0,4.943e-08
1354.0,1.699e-07
1355.0,1.368e-09
1356.0,2.394e-08
