interpolation:linear
wavelength,value
280.0,3.9e-23
280.5,1.317e-21
281.0,7.148e-21
281.5,2.333e-19
282.0,4.811e-19
282.5,1.101e-18
283.0,3.377e-18
283.5,5.477e-18
284.0,8.946e-17
284.5,2.627e-16
285.0,8.381e-16
285.5,3.181e-15
286.0,1.225e-14
286.5,5.19e-14
287.0,1.455e-13
287.5,5.504e-13
288.0,1.655e-12
288.5,4.695e-12
289.0,1.209e-11
289.5,3.58e-11
290.0,9.881e-11
290.5,2.015e-10
291.0,4.335e-10
291.5,1.25e-09
292.0,2.565e-09
292.5,3.565e-09
293.0,7.56e-09
293.5,1.815e-08
294.0,2.829e-08
294.5,3.379e-08
295.0,5.675e-08
295.5,9.552e-08
296.0,1.782e-07
296.5,2.406e-07
297.0,3.155e-07
297.5,8.054e-07
298.0,1.212e-06
298.5,1.174e-06
299.0,2.491e-06
299.5,3.847e-06
300.0,4.052e-06
300.5,5.603e-06
301.0,9.376e-06
301.5,1.386e-05
302.0,1.139e-05
302.5,2.165e-05
303.0,3.715e-05
303.5,4.587e-05
304.0,4.352e-05
304.5,6.701e-05
305.0,0.0001072
305.5,0.0001277
306.0,0.0001255
306.5,0.0001607
307.0,0.0002549
307.5,0.0003635
308.0,0.0003882
308.5,0.0004755
309.0,0.0004933
309.5,0.0006954
310.0,0.0007695
310.5,0.001308
311.0,0.001777
311.5,0.001775
312.0,0.002112
312.5,0.002885
313.0,0.003325
313.5,0.003048
314.0,0.004383
314.5,0.004689
315.0,0.006367
315.5,0.004855
316.0,0.00494
316.5,0.008101
317.0,0.01002
317.5,0.01003
318.0,0.008568
318.5,0.01268
319.0,0.01644
319.5,0.01159
320.0,0.0137
320.5,0.02053
321.0,0.02154
321.5,0.02098
322.0,0.01871
322.5,0.01641
323.0,0.01832
323.5,0.0273
324.0,0.03255
324.5,0.03118
325.0,0.02343
325.5,0.03308
326.0,0.04546
326.5,0.04885
327.0,0.04737
327.5,0.04419
328.0,0.03566
328.5,0.04211
329.0,0.05516
329.5,0.06429
330.0,0.06337
330.5,0.04723
331.0,0.04693
331.5,0.05021
332.0,0.05841
332.5,0.05971
333.0,0.05833
333.5,0.0499
334.0,0.0506
334.5,0.06211
335.0,0.06046
335.5,0.07198
336.0,0.04976
336.5,0.05604
337.0,0.04473
337.5,0.05504
338.0,0.05654
338.5,0.06696
339.0,0.06642
339.5,0.06371
340.0,0.07293
340.5,0.06602
341.0,0.06574
341.5,0.06066
342.0,0.07255
342.5,0.06793
343.0,0.07435
343.5,0.06977
344.0,0.0504
344.5,0.05176
345.0,0.06889
345.5,0.07048
346.0,0.05996
346.5,0.06793
347.0,0.07261
347.5,0.05858
348.0,0.06699
348.5,0.06706
349.0,0.06222
349.5,0.06152
350.0,0.07605
350.5,0.08012
351.0,0.07135
351.5,0.06893
352.0,0.07419
352.5,0.05799
353.0,0.07309
353.5,0.07817
354.0,0.08114
354.5,0.0822
355.0,0.08176
355.5,0.07384
356.0,0.07722
356.5,0.06587
357.0,0.05436
357.5,0.0665
358.0,0.05266
358.5,0.04496
359.0,0.06279
359.5,0.0798
360.0,0.08455
360.5,0.06755
361.0,0.06155
361.5,0.07083
362.0,0.0612
362.5,0.08462
363.0,0.07592
363.5,0.06985
364.0,0.08534
364.5,0.07285
365.0,0.0741
365.5,0.0929
366.0,0.09833
366.5,0.0923
367.0,0.08979
367.5,0.09308
368.0,0.08135
368.5,0.08197
369.0,0.08843
369.5,0.09415
370.0,0.1003
370.5,0.07772
371.0,0.08295
371.5,0.1037
372.0,0.06871
372.5,0.08229
373.0,0.0836
373.5,0.05433
374.0,0.07884
374.5,0.06521
375.0,0.06331
375.5,0.0944
376.0,0.07816
376.5,0.08089
377.0,0.08554
377.5,0.09994
378.0,0.1082
378.5,0.1021
379.0,0.08416
379.5,0.07676
380.0,0.0797
380.5,0.0964
381.0,0.09647
381.5,0.07637
382.0,0.06773
382.5,0.05765
383.0,0.0533
383.5,0.05127
384.0,0.05648
384.5,0.08295
385.0,0.08215
385.5,0.0764
386.0,0.06534
386.5,0.0857
387.0,0.07111
387.5,0.07975
388.0,0.07352
388.5,0.07257
389.0,0.07822
389.5,0.09459
390.0,0.09479
390.5,0.0871
391.0,0.1024
391.5,0.1043
392.0,0.08768
392.5,0.07837
393.0,0.04354
393.5,0.0316
394.0,0.06421
394.5,0.08151
395.0,0.09931
395.5,0.1007
396.0,0.08719
396.5,0.05089
397.0,0.03813
397.5,0.07743
398.0,0.1083
398.5,0.1117
399.0,0.1208
399.5,0.1202
400.0,0.1246
401.0,0.1227
402.0,0.129
403.0,0.1221
404.0,0.1198
405.0,0.1194
406.0,0.117
407.0,0.1147
408.0,0.1186
409.0,0.1265
410.0,0.1101
411.0,0.1189
412.0,0.1272
413.0,0.1236
414.0,0.1247
415.0,0.1245
416.0,0.1261
417.0,0.1225
418.0,0.1197
419.0,0.1209
420.0,0.1198
421.0,0.1248
422.0,0.1181
423.0,0.1148
424.0,0.1208
425.0,0.12
426.0,0.1164
427.0,0.1138
428.0,0.1105
429.0,0.1042
430.0,0.09084
431.0,0.0896
432.0,0.1151
433.0,0.1152
434.0,0.1065
435.0,0.1107
436.0,0.1242
437.0,0.122
438.0,0.1105
439.0,0.1136
440.0,0.1166
441.0,0.1201
442.0,0.128
443.0,0.1241
444.0,0.1263
445.0,0.1231
446.0,0.1171
447.0,0.1261
448.0,0.1273
449.0,0.1271
450.0,0.1298
451.0,0.134
452.0,0.1285
453.0,0.1203
454.0,0.125
455.0,0.125
456.0,0.1272
457.0,0.1284
458.0,0.1231
459.0,0.1215
460.0,0.1209
461.0,0.1229
462.0,0.1233
463.0,0.122
464.0,0.1197
465.0,0.1178
466.0,0.1185
467.0,0.1156
468.0,0.1162
469.0,0.1159
470.0,0.1116
471.0,0.1109
472.0,0.1163
473.0,0.1142
474.0,0.1137
475.0,0.1138
476.0,0.1094
477.0,0.1088
478.0,0.1108
479.0,0.1091
480.0,0.1083
481.0,0.1093
482.0,0.1092
483.0,0.1074
484.0,0.1048
485.0,0.09961
486.0,0.08684
487.0,0.09065
488.0,0.09888
489.0,0.09851
490.0,0.1029
491.0,0.1005
492.0,0.0943
493.0,0.09684
494.0,0.09728
495.0,0.09754
496.0,0.09748
497.0,0.09819
498.0,0.09273
499.0,0.09295
500.0,0.0893
501.0,0.08672
502.0,0.08452
503.0,0.08702
504.0,0.08392
505.0,0.08638
506.0,0.08866
507.0,0.08399
508.0,0.08112
509.0,0.08316
510.0,0.08243
511.0,0.08426
512.0,0.08469
513.0,0.07962
514.0,0.07852
515.0,0.07719
516.0,0.07642
517.0,0.06741
518.0,0.07036
519.0,0.07326
520.0,0.07532
521.0,0.07538
522.0,0.07476
523.0,0.07282
524.0,0.07466
525.0,0.07472
526.0,0.07065
527.0,0.06583
528.0,0.06886
529.0,0.07188
530.0,0.07018
531.0,0.07057
532.0,0.06758
533.0,0.06513
534.0,0.06664
535.0,0.06773
536.0,0.06798
537.0,0.06494
538.0,0.06567
539.0,0.06467
540.0,0.06154
541.0,0.06141
542.0,0.06277
543.0,0.0616
544.0,0.06216
545.0,0.06154
546.0,0.06132
547.0,0.06087
548.0,0.05973
549.0,0.05951
550.0,0.0598
551.0,0.05866
552.0,0.05864
553.0,0.05717
554.0,0.05809
555.0,0.05774
556.0,0.05652
557.0,0.05428
558.0,0.05334
559.0,0.05181
560.0,0.05193
561.0,0.05208
562.0,0.05117
563.0,0.05205
564.0,0.05018
565.0,0.04932
566.0,0.04819
567.0,0.04867
568.0,0.04779
569.0,0.04618
570.0,0.04582
571.0,0.04521
572.0,0.04586
573.0,0.04603
574.0,0.04559
575.0,0.04448
576.0,0.04386
577.0,0.04416
578.0,0.04335
579.0,0.04341
580.0,0.04415
581.0,0.04427
582.0,0.04498
583.0,0.04496
584.0,0.04519
585.0,0.0439
586.0,0.04277
587.0,0.04343
588.0,0.042
589.0,0.03673
590.0,0.0382
591.0,0.0403
592.0,0.0394
593.0,0.03976
594.0,0.03908
595.0,0.03768
596.0,0.03905
597.0,0.03823
598.0,0.03785
599.0,0.03758
600.0,0.0374
601.0,0.03688
602.0,0.03642
603.0,0.03685
604.0,0.0373
605.0,0.03698
606.0,0.03674
607.0,0.03703
608.0,0.03656
609.0,0.03656
610.0,0.03625
611.0,0.03639
612.0,0.03623
613.0,0.0357
614.0,0.03516
615.0,0.03586
616.0,0.03461
617.0,0.03446
618.0,0.0357
619.0,0.03524
620.0,0.03534
621.0,0.03524
622.0,0.03469
623.0,0.03403
624.0,0.03333
625.0,0.03314
626.0,0.03351
627.0,0.03372
628.0,0.0308
629.0,0.03249
630.0,0.03161
631.0,0.03242
632.0,0.03197
633.0,0.03293
634.0,0.03259
635.0,0.03303
636.0,0.03253
637.0,0.033
638.0,0.03328
639.0,0.03284
640.0,0.03247
641.0,0.03237
642.0,0.03217
643.0,0.03252
644.0,0.03235
645.0,0.03227
646.0,0.03134
647.0,0.0307
648.0,0.03064
649.0,0.02992
650.0,0.03016
651.0,0.03139
652.0,0.02978
653.0,0.03078
654.0,0.03035
655.0,0.02901
656.0,0.02569
657.0,0.02631
658.0,0.02946
659.0,0.0296
660.0,0.02964
661.0,0.02975
662.0,0.02968
663.0,0.02901
664.0,0.02931
665.0,0.02928
666.0,0.02922
667.0,0.02913
668.0,0.02907
669.0,0.02944
670.0,0.02921
671.0,0.02913
672.0,0.0288
673.0,0.02917
674.0,0.02896
675.0,0.02861
676.0,0.02871
677.0,0.02834
678.0,0.02834
679.0,0.02779
680.0,0.02791
681.0,0.02762
682.0,0.02747
683.0,0.02731
684.0,0.02706
685.0,0.02718
686.0,0.02691
687.0,0.01616
688.0,0.01938
689.0,0.01939
690.0,0.02051
691.0,0.02183
692.0,0.02285
693.0,0.02257
694.0,0.02236
695.0,0.02346
696.0,0.02341
697.0,0.02509
698.0,0.02461
699.0,0.0237
700.0,0.02331
701.0,0.0229
702.0,0.02305
703.0,0.02303
704.0,0.0238
705.0,0.02372
706.0,0.02365
707.0,0.02359
708.0,0.02353
709.0,0.02355
710.0,0.0234
711.0,0.02331
712.0,0.0232
713.0,0.02282
714.0,0.0228
715.0,0.02189
716.0,0.02179
717.0,0.01814
718.0,0.01651
719.0,0.01498
720.0,0.0156
721.0,0.0175
722.0,0.02041
723.0,0.01869
724.0,0.01649
725.0,0.01611
726.0,0.01685
727.0,0.01713
728.0,0.01587
729.0,0.01659
730.0,0.01746
731.0,0.01658
732.0,0.01791
733.0,0.0191
734.0,0.01954
735.0,0.01901
736.0,0.01888
737.0,0.01887
738.0,0.01927
739.0,0.01881
740.0,0.01926
741.0,0.01901
742.0,0.01897
743.0,0.01937
744.0,0.01923
745.0,0.01916
746.0,0.01916
747.0,0.01911
748.0,0.01898
749.0,0.01869
750.0,0.0186
751.0,0.01835
752.0,0.01837
753.0,0.01839
754.0,0.01836
755.0,0.01818
756.0,0.01811
757.0,0.01806
758.0,0.01775
759.0,0.01719
760.0,0.002505
761.0,0.001333
762.0,0.007589
763.0,0.003738
764.0,0.005586
765.0,0.007481
766.0,0.009376
767.0,0.01225
768.0,0.0147
769.0,0.01512
770.0,0.01578
771.0,0.01593
772.0,0.01592
773.0,0.01595
774.0,0.01579
775.0,0.01559
776.0,0.0157
777.0,0.01541
778.0,0.01523
779.0,0.01516
780.0,0.01501
781.0,0.01497
782.0,0.01501
783.0,0.0147
784.0,0.01472
785.0,0.01455
786.0,0.01465
787.0,0.01425
788.0,0.01398
789.0,0.01391
790.0,0.01338
791.0,0.01355
792.0,0.01341
793.0,0.01312
794.0,0.0134
795.0,0.01354
796.0,0.01292
797.0,0.01286
798.0,0.01334
799.0,0.01317
800.0,0.01284
801.0,0.01271
802.0,0.01261
803.0,0.01243
804.0,0.01241
805.0,0.01236
806.0,0.01272
807.0,0.01249
808.0,0.01244
809.0,0.01208
810.0,0.01189
811.0,0.0118
812.0,0.01128
813.0,0.01096
814.0,0.009361
815.0,0.009273
816.0,0.008518
817.0,0.008645
818.0,0.008248
819.0,0.00937
820.0,0.008726
821.0,0.01049
822.0,0.01009
823.0,0.006414
824.0,0.009624
825.0,0.01016
826.0,0.009624
827.0,0.01024
828.0,0.008349
829.0,0.009479
830.0,0.009302
831.0,0.009296
832.0,0.008916
833.0,0.009604
834.0,0.009147
835.0,0.01023
836.0,0.009587
837.0,0.01017
838.0,0.009738
839.0,0.009921
840.0,0.01011
841.0,0.009891
842.0,0.009916
843.0,0.009921
844.0,0.009709
845.0,0.01003
846.0,0.009946
847.0,0.009729
848.0,0.009597
849.0,0.009277
850.0,0.008845
851.0,0.009287
852.0,0.009186
853.0,0.008816
854.0,0.007562
855.0,0.008299
856.0,0.009025
857.0,0.00921
858.0,0.009102
859.0,0.009085
860.0,0.009073
861.0,0.008988
862.0,0.009104
863.0,0.009288
864.0,0.008793
865.0,0.008686
866.0,0.007781
867.0,0.008089
868.0,0.008769
869.0,0.008554
870.0,0.008764
871.0,0.00861
872.0,0.008546
873.0,0.008494
874.0,0.008357
875.0,0.008151
876.0,0.008199
877.0,0.008248
878.0,0.008298
879.0,0.008136
880.0,0.007928
881.0,0.007765
882.0,0.007896
883.0,0.007898
884.0,0.007823
885.0,0.007844
886.0,0.007409
887.0,0.007484
888.0,0.007546
889.0,0.007629
890.0,0.007493
891.0,0.007471
892.0,0.007181
893.0,0.006879
894.0,0.006508
895.0,0.006008
896.0,0.00558
897.0,0.004648
898.0,0.00511
899.0,0.00373
900.0,0.005261
901.0,0.003904
902.0,0.004701
903.0,0.004685
904.0,0.006188
905.0,0.005912
906.0,0.005465
907.0,0.004222
908.0,0.004333
909.0,0.004747
910.0,0.004061
911.0,0.004407
912.0,0.004593
913.0,0.004069
914.0,0.004037
915.0,0.00437
916.0,0.003638
917.0,0.004755
918.0,0.003699
919.0,0.004836
920.0,0.004957
921.0,0.005151
922.0,0.004483
923.0,0.004945
924.0,0.004537
925.0,0.004417
926.0,0.00444
927.0,0.005043
928.0,0.003441
929.0,0.003081
930.0,0.002332
931.0,0.002192
932.0,0.001525
933.0,0.00122
934.0,0.0006483
935.0,0.001245
936.0,0.0007586
937.0,0.0007651
938.0,0.0009419
939.0,0.002049
940.0,0.002506
941.0,0.001828
942.0,0.002131
943.0,0.001355
944.0,0.001446
945.0,0.00186
946.0,0.0009031
947.0,0.001845
948.0,0.001337
949.0,0.002519
950.0,0.0006445
951.0,0.002462
952.0,0.001256
953.0,0.001649
954.0,0.002061
955.0,0.001662
956.0,0.001645
957.0,0.001233
958.0,0.00238
959.0,0.001815
960.0,0.002038
961.0,0.002329
962.0,0.00219
963.0,0.002574
964.0,0.002327
965.0,0.002538
966.0,0.002531
967.0,0.0025
968.0,0.003611
969.0,0.00373
970.0,0.003376
971.0,0.003994
972.0,0.003762
973.0,0.003135
974.0,0.002953
975.0,0.003081
976.0,0.002854
977.0,0.003385
978.0,0.003139
979.0,0.003311
980.0,0.003075
981.0,0.003821
982.0,0.003591
983.0,0.003406
984.0,0.003959
985.0,0.003531
986.0,0.004041
987.0,0.00391
988.0,0.00389
989.0,0.004008
990.0,0.003831
991.0,0.003973
992.0,0.003988
993.0,0.003848
994.0,0.003965
995.0,0.003954
996.0,0.003915
997.0,0.003911
998.0,0.003876
999.0,0.003851
1000.0,0.003798
1001.0,0.003844
1002.0,0.003675
1003.0,0.003745
1004.0,0.003626
1005.0,0.003497
1006.0,0.003611
1007.0,0.003678
1008.0,0.003636
1009.0,0.003594
1010.0,0.00356
1011.0,0.003606
1012.0,0.003552
1013.0,0.003573
1014.0,0.003535
1015.0,0.003497
1016.0,0.003467
1017.0,0.00346
1018.0,0.00344
1019.0,0.003335
1020.0,0.003392
1021.0,0.003378
1022.0,0.003332
1023.0,0.003355
1024.0,0.003281
1025.0,0.003333
1026.0,0.003302
1027.0,0.003283
1028.0,0.003262
1029.0,0.00321
1030.0,0.003226
1031.0,0.003199
1032.0,0.003179
1033.0,0.003119
1034.0,0.003108
1035.0,0.003105
1036.0,0.003108
1037.0,0.003046
1038.0,0.003048
1039.0,0.003034
1040.0,0.00301
1041.0,0.003009
1042.0,0.002976
1043.0,0.002955
1044.0,0.002954
1045.0,0.002901
1046.0,0.002857
1047.0,0.002871
1048.0,0.002875
1049.0,0.002853
1050.0,0.002828
1051.0,0.002812
1052.0,0.002789
1053.0,0.002755
1054.0,0.002749
1055.0,0.002738
1056.0,0.002716
1057.0,0.002695
1058.0,0.002618
1059.0,0.002609
1060.0,0.002594
1061.0,0.00258
1062.0,0.002581
1063.0,0.002545
1064.0,0.002566
1065.0,0.002533
1066.0,0.002478
1067.0,0.002499
1068.0,0.002432
1069.0,0.002351
1070.0,0.002419
1071.0,0.00246
1072.0,0.002413
1073.0,0.002372
1074.0,0.00244
1075.0,0.002278
1076.0,0.002418
1077.0,0.002349
1078.0,0.002287
1079.0,0.00236
1080.0,0.002284
1081.0,0.00219
1082.0,0.002244
1083.0,0.002251
1084.0,0.002152
1085.0,0.002253
1086.0,0.002001
1087.0,0.002092
1088.0,0.002203
1089.0,0.002094
1090.0,0.002024
1091.0,0.002163
1092.0,0.002155
1093.0,0.00174
1094.0,0.001948
1095.0,0.001806
1096.0,0.001702
1097.0,0.002069
1098.0,0.001654
1099.0,0.001729
1100.0,0.001573
1101.0,0.001599
1102.0,0.001503
1103.0,0.00147
1104.0,0.00147
1105.0,0.001645
1106.0,0.001166
1107.0,0.001535
1108.0,0.001241
1109.0,0.001242
1110.0,0.001491
1111.0,0.000935
1112.0,0.001222
1113.0,0.0007196
1114.0,0.0008048
1115.0,0.0006572
1116.0,0.0005067
1117.0,0.0001764
1118.0,0.0005507
1119.0,0.000262
1120.0,0.0003284
1121.0,0.0004388
1122.0,0.0001785
1123.0,0.0002935
1124.0,0.0002465
1125.0,0.0003229
1126.0,0.0001078
1127.0,0.0003624
1128.0,0.0002105
1129.0,0.0002231
1130.0,0.0001451
1131.0,0.0007058
1132.0,0.0005437
1133.0,0.0003321
1134.0,8.149e-05
1135.0,3.053e-05
1136.0,0.0002714
1137.0,0.0006748
1138.0,0.0004673
1139.0,0.0007317
1140.0,0.0005934
1141.0,0.0004395
1142.0,0.0005094
1143.0,0.0007423
1144.0,0.0002427
1145.0,0.0003069
1146.0,0.00033
1147.0,0.0001118
1148.0,0.0006253
1149.0,0.0004874
1150.0,0.0002577
1151.0,0.0004433
1152.0,0.0005546
1153.0,0.0005455
1154.0,0.000289
1155.0,0.0007237
1156.0,0.0006404
1157.0,0.0007365
1158.0,0.0007253
1159.0,0.0007889
1160.0,0.0006643
1161.0,0.0008471
1162.0,0.0008443
1163.0,0.001212
1164.0,0.001006
1165.0,0.0009261
1166.0,0.0009309
1167.0,0.001024
1168.0,0.001031
1169.0,0.001059
1170.0,0.00117
1171.0,0.001134
1172.0,0.001165
1173.0,0.001155
1174.0,0.0007725
1175.0,0.001134
1176.0,0.001277
1177.0,0.001199
1178.0,0.0008522
1179.0,0.001274
1180.0,0.001095
1181.0,0.00113
1182.0,0.000728
1183.0,0.001113
1184.0,0.001019
1185.0,0.0009675
1186.0,0.001194
1187.0,0.001117
1188.0,0.0007222
1189.0,0.001029
1190.0,0.001154
1191.0,0.001063
1192.0,0.001166
1193.0,0.001101
1194.0,0.001141
1195.0,0.001055
1196.0,0.001002
1197.0,0.00114
1198.0,0.001028
1199.0,0.0008311
1200.0,0.001066
1201.0,0.001008
1202.0,0.001012
1203.0,0.0009942
1204.0,0.0008452
1205.0,0.001036
1206.0,0.001168
1207.0,0.0009895
1208.0,0.0009835
1209.0,0.001001
1210.0,0.001051
1211.0,0.000983
1212.0,0.0009469
1213.0,0.001093
1214.0,0.0009715
1215.0,0.0009479
1216.0,0.001082
1217.0,0.001041
1218.0,0.001065
1219.0,0.001043
1220.0,0.00106
1221.0,0.001074
1222.0,0.001037
1223.0,0.001021
1224.0,0.001003
1225.0,0.001051
1226.0,0.001062
1227.0,0.0009527
1228.0,0.001064
1229.0,0.001052
1230.0,0.001026
1231.0,0.001066
1232.0,0.001056
1233.0,0.0009985
1234.0,0.001059
1235.0,0.001046
1236.0,0.001053
1237.0,0.001028
1238.0,0.001043
1239.0,0.001026
1240.0,0.001027
1241.0,0.001014
1242.0,0.001013
1243.0,0.001002
1244.0,0.001004
1245.0,0.001006
1246.0,0.0009971
1247.0,0.0009886
1248.0,0.0009821
1249.0,0.0009844
1250.0,0.0009737
1251.0,0.0009549
1252.0,0.0009561
1253.0,0.0009381
1254.0,0.0009205
1255.0,0.0009442
1256.0,0.0009016
1257.0,0.0008912
1258.0,0.0009153
1259.0,0.0008601
1260.0,0.0008643
1261.0,0.0007917
1262.0,0.0007555
1263.0,0.0007541
1264.0,0.0006736
1265.0,0.0007452
1266.0,0.0007024
1267.0,0.0007211
1268.0,0.0006685
1269.0,0.0003696
1270.0,0.0007087
1271.0,0.0007694
1272.0,0.0007711
1273.0,0.0007582
1274.0,0.0007615
1275.0,0.0007738
1276.0,0.0007831
1277.0,0.0007914
1278.0,0.0008124
1279.0,0.000803
1280.0,0.0007902
1281.0,0.0007559
1282.0,0.000733
1283.0,0.0007856
1284.0,0.0008006
1285.0,0.0008047
1286.0,0.0008168
1287.0,0.0007946
1288.0,0.0007944
1289.0,0.0007535
1290.0,0.0007828
1291.0,0.0007938
1292.0,0.0007207
1293.0,0.0007681
1294.0,0.0007593
1295.0,0.0007456
1296.0,0.000697
1297.0,0.0006481
1298.0,0.0007149
1299.0,0.0007565
1300.0,0.0006056
1301.0,0.000627
1302.0,0.0007056
1303.0,0.0005937
1304.0,0.0004819
1305.0,0.0006818
1306.0,0.0006764
1307.0,0.0004939
1308.0,0.0005884
1309.0,0.0006604
1310.0,0.0004774
1311.0,0.0005529
1312.0,0.0005352
1313.0,0.0005156
1314.0,0.0004494
1315.0,0.0004403
1316.0,0.0005325
1317.0,0.0004972
1318.0,0.0005505
1319.0,0.0004025
1320.0,0.0003904
1321.0,0.0004653
1322.0,0.0004649
1323.0,0.0003303
1324.0,0.0003895
1325.0,0.0005062
1326.0,0.0004202
1327.0,0.0003955
1328.0,0.0003323
1329.0,0.0002376
1330.0,0.0003164
1331.0,0.0001806
1332.0,0.0001872
1333.0,0.0002633
1334.0,0.0002264
1335.0,0.0003157
1336.0,0.0002419
1337.0,0.0002122
1338.0,0.000229
1339.0,0.0002278
1340.0,0.0002226
1341.0,0.0002118
1342.0,0.0002229
1343.0,0.000145
1344.0,8.638e-05
1345.0,0.0001242
