interpolation:linear
wavelength,value
280.0,2.814e-21
280.5,8.830000000000001e-20
281.0,4.661e-19
281.5,3.359e-19
282.0,1.014e-18
282.5,2.691e-18
283.0,8.752e-18
283.5,1.435e-17
284.0,2.351e-16
284.5,6.796e-16
285.0,1.542e-15
285.5,7.477e-15
286.0,2.989e-14
286.5,1.317e-13
287.0,3.727e-13
287.5,1.409e-12
288.0,3.76e-12
288.5,1.248e-11
289.0,3.54e-11
289.5,1.12e-10
290.0,3.198e-10
290.5,6.646e-10
291.0,1.452e-09
291.5,4.231e-09
292.0,9.088e-09
292.5,1.363e-08
293.0,3.174e-08
293.5,8.611e-08
294.0,1.451e-07
294.5,1.824e-07
295.0,3.287e-07
295.5,8.296e-07
296.0,1.626e-06
296.5,2.319e-06
297.0,3.197e-06
297.5,8.885e-06
298.0,1.453e-05
298.5,1.511e-05
299.0,3.459e-05
299.5,6.232e-05
300.0,7.237e-05
300.5,0.0001118
301.0,0.00023
301.5,0.000425
302.0,0.0003983
302.5,0.0007713
303.0,0.00137
303.5,0.001716
304.0,0.001616
304.5,0.002444
305.0,0.003785
305.5,0.00439
306.0,0.004261
306.5,0.005344
307.0,0.008095
307.5,0.01098
308.0,0.01161
308.5,0.01383
309.0,0.01396
309.5,0.01584
310.0,0.01585
310.5,0.02557
311.0,0.03197
311.5,0.03076
312.0,0.03069
312.5,0.03728
313.0,0.04034
313.5,0.03898
314.0,0.04872
314.5,0.04332
315.0,0.0568
315.5,0.04717
316.0,0.0413
316.5,0.05948
317.0,0.07356
317.5,0.07612
318.0,0.05946
318.5,0.07434
319.0,0.08844
319.5,0.07114
320.0,0.08554
320.5,0.108
321.0,0.09698
321.5,0.09278
322.0,0.09719
322.5,0.08429
323.0,0.08438
323.5,0.1048
324.0,0.122
324.5,0.1231
325.0,0.1048
325.5,0.1354
326.0,0.166
326.5,0.1664
327.0,0.1649
327.5,0.1584
328.0,0.1399
328.5,0.1474
329.0,0.177
329.5,0.2006
330.0,0.2013
330.5,0.1597
331.0,0.1618
331.5,0.1645
332.0,0.1782
332.5,0.1762
333.0,0.1747
333.5,0.1567
334.0,0.1599
334.5,0.1849
335.0,0.1737
335.5,0.2053
336.0,0.1416
336.5,0.1623
337.0,0.1323
337.5,0.1638
338.0,0.1602
338.5,0.1867
339.0,0.1834
339.5,0.1763
340.0,0.204
340.5,0.1834
341.0,0.1798
341.5,0.1635
342.0,0.1945
342.5,0.1811
343.0,0.199
343.5,0.1872
344.0,0.137
344.5,0.1396
345.0,0.1825
345.5,0.1852
346.0,0.1566
346.5,0.1765
347.0,0.1892
347.5,0.1526
348.0,0.1728
348.5,0.1718
349.0,0.1587
349.5,0.1566
350.0,0.193
350.5,0.2028
351.0,0.1807
351.5,0.1757
352.0,0.1875
352.5,0.1455
353.0,0.1824
353.5,0.1942
354.0,0.2008
354.5,0.2029
355.0,0.2016
355.5,0.1814
356.0,0.189
356.5,0.1608
357.0,0.1324
357.5,0.1614
358.0,0.1274
358.5,0.1085
359.0,0.1512
359.5,0.192
360.0,0.2028
360.5,0.1614
361.0,0.1466
361.5,0.1681
362.0,0.1448
362.5,0.1997
363.0,0.1787
363.5,0.164
364.0,0.1998
364.5,0.1702
365.0,0.1727
365.5,0.2159
366.0,0.2279
366.5,0.2133
367.0,0.207
367.5,0.214
368.0,0.1865
368.5,0.1875
369.0,0.2018
369.5,0.2143
370.0,0.2275
370.5,0.1759
371.0,0.1873
371.5,0.2334
372.0,0.1544
372.5,0.1844
373.0,0.1869
373.5,0.1211
374.0,0.1753
374.5,0.1447
375.0,0.1401
375.5,0.2084
376.0,0.1721
376.5,0.1777
377.0,0.1874
377.5,0.2184
378.0,0.2359
378.5,0.2221
379.0,0.1825
379.5,0.166
380.0,0.1719
380.5,0.2074
381.0,0.2071
381.5,0.1635
382.0,0.1446
382.5,0.1228
383.0,0.1132
383.5,0.1086
384.0,0.1194
384.5,0.1749
385.0,0.1728
385.5,0.1603
386.0,0.1368
386.5,0.179
387.0,0.1481
387.5,0.1657
388.0,0.1524
388.5,0.1501
389.0,0.1614
389.5,0.1947
390.0,0.1947
390.5,0.1784
391.0,0.2092
391.5,0.2125
392.0,0.1783
392.5,0.159
393.0,0.08814
393.5,0.06383
394.0,0.1294
394.5,0.1639
395.0,0.1992
395.5,0.2016
396.0,0.1741
396.5,0.1014
397.0,0.07579
397.5,0.1535
398.0,0.2142
398.5,0.2205
399.0,0.2379
399.5,0.2362
400.0,0.2443
401.0,0.24
402.0,0.2512
403.0,0.2368
404.0,0.2313
405.0,0.2295
406.0,0.224
407.0,0.2186
408.0,0.2254
409.0,0.2394
410.0,0.2076
411.0,0.2232
412.0,0.2379
413.0,0.2303
414.0,0.2313
415.0,0.2301
416.0,0.2323
417.0,0.2248
418.0,0.2188
419.0,0.22
420.0,0.2173
421.0,0.2255
422.0,0.2126
423.0,0.206
424.0,0.2161
425.0,0.214
426.0,0.2068
427.0,0.2015
428.0,0.1948
429.0,0.1831
430.0,0.159
431.0,0.1564
432.0,0.2002
433.0,0.1997
434.0,0.184
435.0,0.1907
436.0,0.2133
437.0,0.2089
438.0,0.1888
439.0,0.1938
440.0,0.1984
441.0,0.2039
442.0,0.2169
443.0,0.2096
444.0,0.2126
445.0,0.2065
446.0,0.1956
447.0,0.2099
448.0,0.2114
449.0,0.2105
450.0,0.2147
451.0,0.2209
452.0,0.2112
453.0,0.1972
454.0,0.2043
455.0,0.2039
456.0,0.2071
457.0,0.2088
458.0,0.2
459.0,0.1973
460.0,0.1962
461.0,0.1992
462.0,0.1993
463.0,0.1966
464.0,0.1921
465.0,0.1884
466.0,0.1888
467.0,0.1839
468.0,0.1845
469.0,0.1838
470.0,0.1766
471.0,0.1752
472.0,0.1833
473.0,0.1795
474.0,0.1784
475.0,0.1785
476.0,0.1717
477.0,0.1707
478.0,0.1739
479.0,0.1713
480.0,0.1702
481.0,0.1718
482.0,0.1713
483.0,0.168
484.0,0.1634
485.0,0.1546
486.0,0.1342
487.0,0.1397
488.0,0.1521
489.0,0.1513
490.0,0.158
491.0,0.1541
492.0,0.1444
493.0,0.148
494.0,0.1484
495.0,0.1485
496.0,0.1483
497.0,0.1494
498.0,0.1413
499.0,0.1418
500.0,0.1365
501.0,0.1327
502.0,0.1297
503.0,0.1337
504.0,0.1292
505.0,0.1329
506.0,0.1362
507.0,0.1287
508.0,0.1238
509.0,0.1265
510.0,0.125
511.0,0.1275
512.0,0.128
513.0,0.1202
514.0,0.1185
515.0,0.1164
516.0,0.1153
517.0,0.1017
518.0,0.1061
519.0,0.1105
520.0,0.1136
521.0,0.1138
522.0,0.113
523.0,0.1102
524.0,0.1132
525.0,0.1137
526.0,0.1077
527.0,0.1006
528.0,0.1055
529.0,0.1104
530.0,0.108
531.0,0.1088
532.0,0.1043
533.0,0.1005
534.0,0.1028
535.0,0.1044
536.0,0.1046
537.0,0.09983
538.0,0.1009
539.0,0.09939
540.0,0.09466
541.0,0.09458
542.0,0.09678
543.0,0.09506
544.0,0.09609
545.0,0.0952
546.0,0.09494
547.0,0.09422
548.0,0.09245
549.0,0.09211
550.0,0.09258
551.0,0.09082
552.0,0.09081
553.0,0.08856
554.0,0.09005
555.0,0.0896
556.0,0.08778
557.0,0.08441
558.0,0.08311
559.0,0.08092
560.0,0.08129
561.0,0.0817
562.0,0.08047
563.0,0.08204
564.0,0.07923
565.0,0.07799
566.0,0.07629
567.0,0.07716
568.0,0.0759
569.0,0.07351
570.0,0.07301
571.0,0.07208
572.0,0.07324
573.0,0.07355
574.0,0.07287
575.0,0.07108
576.0,0.07
577.0,0.07035
578.0,0.06892
579.0,0.06884
580.0,0.0698
581.0,0.06979
582.0,0.07072
583.0,0.07054
584.0,0.0708
585.0,0.06869
586.0,0.06684
587.0,0.06783
588.0,0.0657
589.0,0.05768
590.0,0.05998
591.0,0.06319
592.0,0.06192
593.0,0.06247
594.0,0.06156
595.0,0.05957
596.0,0.06165
597.0,0.06055
598.0,0.06
599.0,0.05965
600.0,0.05939
601.0,0.05856
602.0,0.05782
603.0,0.05843
604.0,0.05906
605.0,0.05845
606.0,0.05793
607.0,0.05822
608.0,0.05729
609.0,0.05711
610.0,0.05644
611.0,0.05647
612.0,0.05605
613.0,0.05507
614.0,0.05405
615.0,0.05497
616.0,0.05291
617.0,0.05255
618.0,0.05431
619.0,0.0535
620.0,0.05356
621.0,0.05333
622.0,0.05242
623.0,0.05133
624.0,0.05018
625.0,0.04984
626.0,0.05034
627.0,0.05062
628.0,0.04666
629.0,0.04877
630.0,0.04738
631.0,0.04832
632.0,0.04753
633.0,0.04881
634.0,0.04815
635.0,0.04866
636.0,0.0478
637.0,0.04836
638.0,0.04862
639.0,0.04786
640.0,0.04717
641.0,0.04691
642.0,0.04651
643.0,0.04693
644.0,0.04658
645.0,0.0464
646.0,0.04504
647.0,0.0442
648.0,0.04399
649.0,0.04292
650.0,0.04303
651.0,0.0447
652.0,0.04246
653.0,0.04367
654.0,0.04299
655.0,0.0411
656.0,0.03629
657.0,0.03711
658.0,0.04144
659.0,0.04156
660.0,0.04152
661.0,0.04161
662.0,0.04148
663.0,0.04049
664.0,0.04081
665.0,0.04066
666.0,0.04051
667.0,0.0403
668.0,0.04014
669.0,0.04057
670.0,0.0402
671.0,0.04001
672.0,0.03951
673.0,0.03996
674.0,0.03962
675.0,0.03907
676.0,0.03915
677.0,0.0386
678.0,0.03855
679.0,0.03776
680.0,0.03788
681.0,0.03745
682.0,0.03722
683.0,0.03697
684.0,0.0366
685.0,0.03672
686.0,0.03633
687.0,0.02283
688.0,0.02715
689.0,0.02713
690.0,0.0285
691.0,0.03008
692.0,0.03122
693.0,0.03079
694.0,0.03034
695.0,0.0316
696.0,0.03148
697.0,0.03355
698.0,0.03288
699.0,0.03177
700.0,0.03123
701.0,0.03074
702.0,0.03088
703.0,0.03078
704.0,0.0317
705.0,0.03158
706.0,0.03145
707.0,0.03133
708.0,0.03125
709.0,0.03118
710.0,0.031
711.0,0.03087
712.0,0.03069
713.0,0.03021
714.0,0.03016
715.0,0.029
716.0,0.02887
717.0,0.02441
718.0,0.02212
719.0,0.02
720.0,0.02092
721.0,0.02332
722.0,0.02705
723.0,0.02479
724.0,0.02194
725.0,0.02145
726.0,0.02248
727.0,0.02271
728.0,0.02111
729.0,0.02196
730.0,0.02322
731.0,0.02201
732.0,0.02364
733.0,0.02511
734.0,0.02563
735.0,0.02496
736.0,0.02482
737.0,0.02479
738.0,0.02516
739.0,0.02454
740.0,0.02509
741.0,0.02474
742.0,0.02466
743.0,0.02516
744.0,0.02497
745.0,0.02486
746.0,0.02485
747.0,0.02479
748.0,0.02461
749.0,0.02421
750.0,0.02408
751.0,0.02374
752.0,0.02374
753.0,0.02374
754.0,0.02367
755.0,0.02343
756.0,0.02332
757.0,0.02325
758.0,0.02285
759.0,0.02222
760.0,0.003105
761.0,0.001587
762.0,0.01026
763.0,0.004786
764.0,0.0074
765.0,0.0101
766.0,0.01272
767.0,0.01642
768.0,0.01927
769.0,0.01968
770.0,0.02036
771.0,0.02048
772.0,0.02044
773.0,0.02048
774.0,0.02028
775.0,0.02003
776.0,0.02018
777.0,0.01982
778.0,0.01959
779.0,0.01951
780.0,0.01931
781.0,0.01924
782.0,0.01927
783.0,0.01886
784.0,0.01886
785.0,0.01864
786.0,0.01876
787.0,0.01831
788.0,0.01798
789.0,0.01787
790.0,0.01725
791.0,0.01738
792.0,0.01718
793.0,0.01681
794.0,0.01709
795.0,0.01729
796.0,0.01659
797.0,0.01654
798.0,0.01703
799.0,0.01683
800.0,0.01643
801.0,0.01629
802.0,0.01617
803.0,0.01596
804.0,0.01592
805.0,0.01582
806.0,0.01622
807.0,0.01594
808.0,0.01589
809.0,0.01549
810.0,0.01526
811.0,0.01518
812.0,0.01461
813.0,0.01419
814.0,0.0122
815.0,0.01206
816.0,0.01106
817.0,0.01124
818.0,0.01074
819.0,0.01217
820.0,0.01132
821.0,0.0135
822.0,0.013
823.0,0.008309
824.0,0.01244
825.0,0.013
826.0,0.01236
827.0,0.01311
828.0,0.01079
829.0,0.01214
830.0,0.01191
831.0,0.01191
832.0,0.01144
833.0,0.0123
834.0,0.01174
835.0,0.01301
836.0,0.01229
837.0,0.01294
838.0,0.01244
839.0,0.01264
840.0,0.01287
841.0,0.01261
842.0,0.01261
843.0,0.01257
844.0,0.01232
845.0,0.01271
846.0,0.0126
847.0,0.01232
848.0,0.01217
849.0,0.01177
850.0,0.01123
851.0,0.01182
852.0,0.01168
853.0,0.0112
854.0,0.009621
855.0,0.01054
856.0,0.01146
857.0,0.01168
858.0,0.01155
859.0,0.01152
860.0,0.01149
861.0,0.01138
862.0,0.01151
863.0,0.01174
864.0,0.01111
865.0,0.01097
866.0,0.009823
867.0,0.01021
868.0,0.01106
869.0,0.01079
870.0,0.01105
871.0,0.01086
872.0,0.01077
873.0,0.01071
874.0,0.01053
875.0,0.01027
876.0,0.01033
877.0,0.01039
878.0,0.01046
879.0,0.01026
880.0,0.009993
881.0,0.009797
882.0,0.009969
883.0,0.009965
884.0,0.009873
885.0,0.009902
886.0,0.009378
887.0,0.009456
888.0,0.009544
889.0,0.009631
890.0,0.009484
891.0,0.009442
892.0,0.009109
893.0,0.008744
894.0,0.008333
895.0,0.007755
896.0,0.007184
897.0,0.006001
898.0,0.006613
899.0,0.004798
900.0,0.00678
901.0,0.005062
902.0,0.006079
903.0,0.00608
904.0,0.007933
905.0,0.007581
906.0,0.007014
907.0,0.005465
908.0,0.005587
909.0,0.006132
910.0,0.005262
911.0,0.00566
912.0,0.005938
913.0,0.005275
914.0,0.005214
915.0,0.005703
916.0,0.004685
917.0,0.006176
918.0,0.004788
919.0,0.006253
920.0,0.006328
921.0,0.006627
922.0,0.005783
923.0,0.006351
924.0,0.005894
925.0,0.005722
926.0,0.005782
927.0,0.006554
928.0,0.004513
929.0,0.004045
930.0,0.003043
931.0,0.002855
932.0,0.001954
933.0,0.001539
934.0,0.0007841
935.0,0.001575
936.0,0.0009292
937.0,0.0009373
938.0,0.001172
939.0,0.002672
940.0,0.003298
941.0,0.002382
942.0,0.002802
943.0,0.001731
944.0,0.001842
945.0,0.00242
946.0,0.001125
947.0,0.002405
948.0,0.001697
949.0,0.003339
950.0,0.0007836
951.0,0.003265
952.0,0.001595
953.0,0.00213
954.0,0.0027
955.0,0.002155
956.0,0.002079
957.0,0.001567
958.0,0.003083
959.0,0.002342
960.0,0.002657
961.0,0.003034
962.0,0.002839
963.0,0.003345
964.0,0.003009
965.0,0.003308
966.0,0.003294
967.0,0.003259
968.0,0.004625
969.0,0.004839
970.0,0.004358
971.0,0.005115
972.0,0.004829
973.0,0.00407
974.0,0.003819
975.0,0.003976
976.0,0.003717
977.0,0.004337
978.0,0.004056
979.0,0.004278
980.0,0.003957
981.0,0.004895
982.0,0.004617
983.0,0.004384
984.0,0.005035
985.0,0.00455
986.0,0.005113
987.0,0.004967
988.0,0.004936
989.0,0.005055
990.0,0.004873
991.0,0.005022
992.0,0.005035
993.0,0.004879
994.0,0.005001
995.0,0.004981
996.0,0.004935
997.0,0.004925
998.0,0.004883
999.0,0.004849
1000.0,0.00479
1001.0,0.00484
1002.0,0.00466
1003.0,0.004716
1004.0,0.004575
1005.0,0.0044
1006.0,0.004548
1007.0,0.00463
1008.0,0.004582
1009.0,0.004536
1010.0,0.004496
1011.0,0.004538
1012.0,0.004475
1013.0,0.004495
1014.0,0.004447
1015.0,0.004401
1016.0,0.004363
1017.0,0.004356
1018.0,0.004326
1019.0,0.004207
1020.0,0.004268
1021.0,0.004247
1022.0,0.004194
1023.0,0.004222
1024.0,0.004142
1025.0,0.004192
1026.0,0.004156
1027.0,0.00413
1028.0,0.004106
1029.0,0.004042
1030.0,0.004058
1031.0,0.004025
1032.0,0.003999
1033.0,0.003923
1034.0,0.003909
1035.0,0.003906
1036.0,0.00391
1037.0,0.003832
1038.0,0.003835
1039.0,0.003819
1040.0,0.003789
1041.0,0.003788
1042.0,0.003748
1043.0,0.003722
1044.0,0.003721
1045.0,0.003656
1046.0,0.003601
1047.0,0.00362
1048.0,0.003626
1049.0,0.0036
1050.0,0.003569
1051.0,0.00355
1052.0,0.003522
1053.0,0.003481
1054.0,0.003475
1055.0,0.003463
1056.0,0.003436
1057.0,0.003411
1058.0,0.003315
1059.0,0.003306
1060.0,0.003288
1061.0,0.003271
1062.0,0.003274
1063.0,0.00323
1064.0,0.003257
1065.0,0.003219
1066.0,0.003146
1067.0,0.003174
1068.0,0.00309
1069.0,0.002985
1070.0,0.003073
1071.0,0.003117
1072.0,0.003064
1073.0,0.003011
1074.0,0.003087
1075.0,0.002898
1076.0,0.00306
1077.0,0.00298
1078.0,0.002909
1079.0,0.002981
1080.0,0.002898
1081.0,0.00279
1082.0,0.002843
1083.0,0.002846
1084.0,0.002743
1085.0,0.002859
1086.0,0.002553
1087.0,0.002664
1088.0,0.002786
1089.0,0.00267
1090.0,0.002582
1091.0,0.00274
1092.0,0.002728
1093.0,0.002235
1094.0,0.002472
1095.0,0.002329
1096.0,0.0022
1097.0,0.002621
1098.0,0.002147
1099.0,0.002241
1100.0,0.002041
1101.0,0.002071
1102.0,0.001955
1103.0,0.001917
1104.0,0.001915
1105.0,0.002136
1106.0,0.001534
1107.0,0.001994
1108.0,0.001624
1109.0,0.001625
1110.0,0.00195
1111.0,0.001224
1112.0,0.001598
1113.0,0.0009322
1114.0,0.001054
1115.0,0.0008497
1116.0,0.0006486
1117.0,0.0002094
1118.0,0.000711
1119.0,0.0003211
1120.0,0.0004104
1121.0,0.0005622
1122.0,0.0002133
1123.0,0.0003636
1124.0,0.0003015
1125.0,0.0004039
1126.0,0.0001248
1127.0,0.0004574
1128.0,0.0002548
1129.0,0.0002717
1130.0,0.000171
1131.0,0.00094
1132.0,0.0007092
1133.0,0.000418
1134.0,9.31e-05
1135.0,3.367e-05
1136.0,0.0003361
1137.0,0.0008998
1138.0,0.0006043
1139.0,0.000965
1140.0,0.0007774
1141.0,0.0005654
1142.0,0.0006623
1143.0,0.0009888
1144.0,0.0002983
1145.0,0.0003857
1146.0,0.0004172
1147.0,0.0001303
1148.0,0.0008246
1149.0,0.0006324
1150.0,0.0003171
1151.0,0.0005727
1152.0,0.0007277
1153.0,0.0007092
1154.0,0.0003608
1155.0,0.0009592
1156.0,0.0008449
1157.0,0.0009666
1158.0,0.0009516
1159.0,0.001043
1160.0,0.000863
1161.0,0.001106
1162.0,0.001103
1163.0,0.001576
1164.0,0.00131
1165.0,0.001213
1166.0,0.001205
1167.0,0.001327
1168.0,0.001338
1169.0,0.001377
1170.0,0.001513
1171.0,0.001462
1172.0,0.001491
1173.0,0.001493
1174.0,0.000998
1175.0,0.001453
1176.0,0.001619
1177.0,0.001534
1178.0,0.00109
1179.0,0.001617
1180.0,0.001403
1181.0,0.001453
1182.0,0.0009362
1183.0,0.001428
1184.0,0.00131
1185.0,0.001249
1186.0,0.001527
1187.0,0.001435
1188.0,0.0009387
1189.0,0.00132
1190.0,0.001469
1191.0,0.001372
1192.0,0.001484
1193.0,0.001406
1194.0,0.001453
1195.0,0.001358
1196.0,0.001293
1197.0,0.001452
1198.0,0.001305
1199.0,0.001074
1200.0,0.001361
1201.0,0.001298
1202.0,0.001288
1203.0,0.001281
1204.0,0.001085
1205.0,0.001316
1206.0,0.001478
1207.0,0.001268
1208.0,0.001254
1209.0,0.001276
1210.0,0.001335
1211.0,0.001254
1212.0,0.001228
1213.0,0.001394
1214.0,0.001256
1215.0,0.001223
1216.0,0.001376
1217.0,0.001329
1218.0,0.001355
1219.0,0.001332
1220.0,0.001348
1221.0,0.001361
1222.0,0.001316
1223.0,0.001298
1224.0,0.001282
1225.0,0.001335
1226.0,0.001343
1227.0,0.001219
1228.0,0.001344
1229.0,0.001331
1230.0,0.001301
1231.0,0.001342
1232.0,0.00133
1233.0,0.001269
1234.0,0.00133
1235.0,0.001316
1236.0,0.001322
1237.0,0.001296
1238.0,0.00131
1239.0,0.001288
1240.0,0.00129
1241.0,0.001277
1242.0,0.001272
1243.0,0.001257
1244.0,0.001261
1245.0,0.001263
1246.0,0.001252
1247.0,0.001242
1248.0,0.001236
1249.0,0.001237
1250.0,0.001225
1251.0,0.001204
1252.0,0.001202
1253.0,0.001185
1254.0,0.001167
1255.0,0.001189
1256.0,0.001145
1257.0,0.001134
1258.0,0.001157
1259.0,0.001102
1260.0,0.001105
1261.0,0.001029
1262.0,0.0009888
1263.0,0.0009875
1264.0,0.0008955
1265.0,0.0009759
1266.0,0.0009283
1267.0,0.0009472
1268.0,0.0008868
1269.0,0.0005008
1270.0,0.000934
1271.0,0.0009985
1272.0,0.0009999
1273.0,0.0009849
1274.0,0.0009866
1275.0,0.001
1276.0,0.001009
1277.0,0.001014
1278.0,0.001035
1279.0,0.001022
1280.0,0.001006
1281.0,0.0009594
1282.0,0.0009251
1283.0,0.0009925
1284.0,0.001012
1285.0,0.001016
1286.0,0.001029
1287.0,0.001006
1288.0,0.001003
1289.0,0.0009617
1290.0,0.0009887
1291.0,0.001
1292.0,0.0009235
1293.0,0.0009711
1294.0,0.0009603
1295.0,0.0009504
1296.0,0.0008957
1297.0,0.0008366
1298.0,0.000912
1299.0,0.0009553
1300.0,0.0007796
1301.0,0.0008069
1302.0,0.000899
1303.0,0.0007634
1304.0,0.0006287
1305.0,0.0008688
1306.0,0.0008661
1307.0,0.0006396
1308.0,0.0007532
1309.0,0.0008504
1310.0,0.0006201
1311.0,0.0007105
1312.0,0.0006883
1313.0,0.0006689
1314.0,0.0005842
1315.0,0.0005756
1316.0,0.0006875
1317.0,0.0006426
1318.0,0.000708
1319.0,0.0005254
1320.0,0.0005062
1321.0,0.0006038
1322.0,0.0006079
1323.0,0.0004333
1324.0,0.0005064
1325.0,0.0006572
1326.0,0.0005469
1327.0,0.0005156
1328.0,0.0004328
1329.0,0.0003093
1330.0,0.0004166
1331.0,0.0002319
1332.0,0.0002409
1333.0,0.0003485
1334.0,0.0002896
1335.0,0.0004165
1336.0,0.000316
1337.0,0.0002735
1338.0,0.0002981
1339.0,0.0002967
1340.0,0.0002871
1341.0,0.0002766
1342.0,0.0002916
1343.0,0.0001846
1344.0,0.0001052
1345.0,0.0001566
1346.0,7.164e-05
1347.0,7.243e-05
1348.0,4.177e-06
1349.0,1.543e-05
1350.0,1.607e-05
1351.0,3.738e-06
1352.0,9.906e-07
1353.0,5e-08
1354.0,1.722e-07
1355.0,1.382e-09
1356.0,2.42e-08
1357.0,3.678e-08
1358.0,1.622e-09
1359.0,2.043e-10
1360.0,7.384e-10
1361.0,8.258e-13
1362.0,2.259e-15
1363.0,9.928e-10
1364.0,4.098e-10
