interpolation:linear
wavelength,value
280.0,9.780999999999999e-23
280.5,3.2600000000000002e-21
281.0,1.7580000000000002e-20
281.5,4.897e-19
282.0,5.314e-19
282.5,1.287e-18
283.0,4.037e-18
283.5,6.571e-18
284.0,1.084e-16
284.5,3.175e-16
285.0,5.78e-16
285.5,2.773e-15
286.0,1.112e-14
286.5,4.969e-14
287.0,1.424e-13
287.5,5.494e-13
288.0,1.934e-12
288.5,5.628e-12
289.0,1.466e-11
289.5,4.369e-11
290.0,1.206e-10
290.5,2.455e-10
291.0,5.265e-10
291.5,1.512e-09
292.0,3.062e-09
292.5,4.275e-09
293.0,9.117e-09
293.5,2.203e-08
294.0,3.438e-08
294.5,4.518e-08
295.0,7.625e-08
295.5,1.288e-07
296.0,2.452e-07
296.5,3.38e-07
297.0,4.514e-07
297.5,1.185e-06
298.0,1.831e-06
298.5,1.81e-06
299.0,3.917e-06
299.5,6.276e-06
300.0,6.749e-06
300.5,9.535e-06
301.0,1.652e-05
301.5,2.518e-05
302.0,2.101e-05
302.5,4.081e-05
303.0,7.321e-05
303.5,9.289e-05
304.0,8.953e-05
304.5,0.0001434
305.0,0.0002412
305.5,0.0002956
306.0,0.0002936
306.5,0.0003822
307.0,0.0006277
307.5,0.0009223
308.0,0.0009892
308.5,0.001228
309.0,0.001456
309.5,0.001955
310.0,0.002112
310.5,0.003545
311.0,0.00472
311.5,0.004671
312.0,0.005312
312.5,0.007036
313.0,0.007973
313.5,0.007415
314.0,0.01027
314.5,0.01043
315.0,0.01402
315.5,0.01096
316.0,0.01068
316.5,0.01687
317.0,0.02088
317.5,0.0211
318.0,0.01756
318.5,0.02471
319.0,0.03123
319.5,0.02291
320.0,0.02722
320.5,0.03874
321.0,0.03876
321.5,0.03755
322.0,0.03519
322.5,0.03077
323.0,0.03322
323.5,0.0448
324.0,0.05294
324.5,0.05181
325.0,0.04215
325.5,0.0579
326.0,0.0733
326.5,0.07669
327.0,0.07504
327.5,0.07083
328.0,0.0593
328.5,0.06691
329.0,0.08481
329.5,0.09787
330.0,0.09714
330.5,0.07416
331.0,0.07429
331.5,0.07795
332.0,0.08832
332.5,0.08922
333.0,0.08766
333.5,0.07636
334.0,0.07763
334.5,0.09322
335.0,0.08962
335.5,0.1057
336.0,0.07305
336.5,0.08338
337.0,0.06709
337.5,0.08276
338.0,0.08353
338.5,0.09776
339.0,0.09671
339.5,0.09282
340.0,0.1074
340.5,0.09695
341.0,0.09548
341.5,0.08774
342.0,0.1048
342.5,0.09794
343.0,0.1073
343.5,0.1008
344.0,0.07357
344.5,0.0749
345.0,0.09917
345.5,0.1012
346.0,0.08596
346.5,0.09724
347.0,0.104
347.5,0.08394
348.0,0.09571
348.5,0.09562
349.0,0.08861
349.5,0.08756
350.0,0.1081
350.5,0.1138
351.0,0.1014
351.5,0.09815
352.0,0.1054
352.5,0.08219
353.0,0.1034
353.5,0.1105
354.0,0.1145
354.5,0.1159
355.0,0.1153
355.5,0.104
356.0,0.1087
356.5,0.09261
357.0,0.07637
357.5,0.09333
358.0,0.07385
358.5,0.06299
359.0,0.08792
359.5,0.1117
360.0,0.1182
360.5,0.09436
361.0,0.08589
361.5,0.09874
362.0,0.08525
362.5,0.1178
363.0,0.1056
363.5,0.09706
364.0,0.1185
364.5,0.1011
365.0,0.1027
365.5,0.1287
366.0,0.1361
366.5,0.1276
367.0,0.1241
367.5,0.1285
368.0,0.1122
368.5,0.113
369.0,0.1218
369.5,0.1296
370.0,0.1378
370.5,0.1068
371.0,0.1139
371.5,0.1422
372.0,0.09417
372.5,0.1127
373.0,0.1144
373.5,0.07427
374.0,0.1077
374.5,0.08901
375.0,0.08635
375.5,0.1286
376.0,0.1064
376.5,0.1101
377.0,0.1163
377.5,0.1358
378.0,0.1468
378.5,0.1385
379.0,0.114
379.5,0.1039
380.0,0.1078
380.5,0.1303
381.0,0.1303
381.5,0.103
382.0,0.0913
382.5,0.07766
383.0,0.07173
383.5,0.06894
384.0,0.07588
384.5,0.1114
385.0,0.1102
385.5,0.1024
386.0,0.08751
386.5,0.1147
387.0,0.09508
387.5,0.1065
388.0,0.09814
388.5,0.0968
389.0,0.1042
389.5,0.126
390.0,0.1261
390.5,0.1158
391.0,0.136
391.5,0.1384
392.0,0.1163
392.5,0.1039
393.0,0.05766
393.5,0.04181
394.0,0.08489
394.5,0.1077
395.0,0.1311
395.5,0.1328
396.0,0.1149
396.5,0.06701
397.0,0.05017
397.5,0.1018
398.0,0.1422
398.5,0.1466
399.0,0.1584
399.5,0.1575
400.0,0.1632
401.0,0.1605
402.0,0.1685
403.0,0.1592
404.0,0.156
405.0,0.1552
406.0,0.1519
407.0,0.1487
408.0,0.1536
409.0,0.1636
410.0,0.1422
411.0,0.1532
412.0,0.1638
413.0,0.1589
414.0,0.16
415.0,0.1596
416.0,0.1615
417.0,0.1566
418.0,0.1529
419.0,0.1541
420.0,0.1525
421.0,0.1587
422.0,0.1499
423.0,0.1456
424.0,0.153
425.0,0.1518
426.0,0.1471
427.0,0.1436
428.0,0.1392
429.0,0.1311
430.0,0.1141
431.0,0.1124
432.0,0.1442
433.0,0.1442
434.0,0.1331
435.0,0.1382
436.0,0.1549
437.0,0.152
438.0,0.1376
439.0,0.1413
440.0,0.1448
441.0,0.149
442.0,0.1588
443.0,0.1537
444.0,0.1562
445.0,0.1521
446.0,0.1445
447.0,0.1553
448.0,0.1567
449.0,0.1563
450.0,0.1595
451.0,0.1644
452.0,0.1575
453.0,0.1473
454.0,0.1529
455.0,0.1528
456.0,0.1553
457.0,0.1567
458.0,0.1501
459.0,0.1482
460.0,0.1474
461.0,0.1497
462.0,0.15
463.0,0.1482
464.0,0.1452
465.0,0.1428
466.0,0.1434
467.0,0.1398
468.0,0.1404
469.0,0.14
470.0,0.1346
471.0,0.1337
472.0,0.14
473.0,0.1374
474.0,0.1367
475.0,0.1368
476.0,0.1315
477.0,0.1307
478.0,0.1331
479.0,0.131
480.0,0.1301
481.0,0.1313
482.0,0.131
483.0,0.1287
484.0,0.1255
485.0,0.1191
486.0,0.1037
487.0,0.1081
488.0,0.1178
489.0,0.1173
490.0,0.1225
491.0,0.1196
492.0,0.1121
493.0,0.1151
494.0,0.1155
495.0,0.1157
496.0,0.1156
497.0,0.1164
498.0,0.11
499.0,0.1103
500.0,0.1059
501.0,0.1028
502.0,0.1002
503.0,0.1032
504.0,0.09945
505.0,0.1023
506.0,0.1049
507.0,0.09921
508.0,0.09567
509.0,0.0979
510.0,0.0969
511.0,0.09892
512.0,0.0993
513.0,0.09327
514.0,0.09191
515.0,0.09028
516.0,0.08936
517.0,0.07881
518.0,0.08225
519.0,0.08562
520.0,0.08801
521.0,0.0881
522.0,0.08739
523.0,0.08513
524.0,0.08733
525.0,0.08746
526.0,0.08274
527.0,0.07714
528.0,0.08074
529.0,0.08431
530.0,0.08236
531.0,0.08285
532.0,0.07935
533.0,0.07647
534.0,0.07822
535.0,0.07946
536.0,0.07972
537.0,0.07611
538.0,0.07694
539.0,0.07577
540.0,0.07211
541.0,0.07197
542.0,0.07358
543.0,0.07222
544.0,0.07291
545.0,0.07218
546.0,0.07193
547.0,0.07139
548.0,0.07004
549.0,0.06978
550.0,0.07011
551.0,0.06876
552.0,0.06874
553.0,0.06701
554.0,0.0681
555.0,0.0677
556.0,0.06628
557.0,0.06367
558.0,0.06259
559.0,0.06083
560.0,0.06101
561.0,0.06121
562.0,0.06018
563.0,0.06125
564.0,0.05907
565.0,0.05808
566.0,0.05676
567.0,0.05734
568.0,0.05632
569.0,0.05445
570.0,0.05404
571.0,0.05332
572.0,0.05411
573.0,0.05431
574.0,0.05379
575.0,0.05246
576.0,0.05171
577.0,0.05203
578.0,0.05104
579.0,0.05107
580.0,0.0519
581.0,0.05199
582.0,0.05278
583.0,0.05272
584.0,0.05297
585.0,0.05143
586.0,0.05008
587.0,0.05083
588.0,0.04917
589.0,0.04303
590.0,0.04474
591.0,0.04719
592.0,0.04616
593.0,0.04658
594.0,0.04581
595.0,0.04421
596.0,0.04581
597.0,0.04489
598.0,0.04445
599.0,0.04416
600.0,0.04395
601.0,0.04334
602.0,0.04279
603.0,0.04328
604.0,0.04378
605.0,0.04338
606.0,0.04306
607.0,0.04337
608.0,0.04277
609.0,0.04273
610.0,0.04232
611.0,0.04244
612.0,0.04221
613.0,0.04156
614.0,0.04088
615.0,0.04165
616.0,0.04017
617.0,0.03996
618.0,0.04137
619.0,0.04081
620.0,0.0409
621.0,0.04076
622.0,0.0401
623.0,0.0393
624.0,0.03847
625.0,0.03824
626.0,0.03866
627.0,0.03888
628.0,0.03558
629.0,0.03745
630.0,0.03642
631.0,0.03729
632.0,0.03675
633.0,0.03782
634.0,0.03739
635.0,0.03786
636.0,0.03726
637.0,0.03777
638.0,0.03805
639.0,0.03752
640.0,0.03706
641.0,0.03692
642.0,0.03666
643.0,0.03704
644.0,0.03681
645.0,0.03671
646.0,0.03564
647.0,0.03492
648.0,0.03481
649.0,0.03398
650.0,0.03421
651.0,0.03559
652.0,0.03375
653.0,0.03485
654.0,0.03434
655.0,0.03282
656.0,0.02904
657.0,0.02973
658.0,0.03326
659.0,0.03339
660.0,0.03341
661.0,0.03351
662.0,0.03342
663.0,0.03265
664.0,0.03297
665.0,0.03291
666.0,0.03282
667.0,0.0327
668.0,0.03262
669.0,0.03301
670.0,0.03274
671.0,0.03263
672.0,0.03225
673.0,0.03265
674.0,0.0324
675.0,0.03198
676.0,0.03208
677.0,0.03166
678.0,0.03164
679.0,0.03101
680.0,0.03114
681.0,0.0308
682.0,0.03063
683.0,0.03044
684.0,0.03015
685.0,0.03028
686.0,0.02996
687.0,0.01807
688.0,0.02172
689.0,0.02173
690.0,0.02296
691.0,0.02441
692.0,0.02551
693.0,0.02518
694.0,0.02489
695.0,0.02606
696.0,0.026
697.0,0.02784
698.0,0.02729
699.0,0.0263
700.0,0.02586
701.0,0.02542
702.0,0.02557
703.0,0.02553
704.0,0.02635
705.0,0.02627
706.0,0.02618
707.0,0.02611
708.0,0.02604
709.0,0.02604
710.0,0.02587
711.0,0.02577
712.0,0.02564
713.0,0.02522
714.0,0.0252
715.0,0.02419
716.0,0.02408
717.0,0.02009
718.0,0.01825
719.0,0.01653
720.0,0.01724
721.0,0.01933
722.0,0.02255
723.0,0.02063
724.0,0.0182
725.0,0.01778
726.0,0.0186
727.0,0.01889
728.0,0.01749
729.0,0.01828
730.0,0.01927
731.0,0.01828
732.0,0.01973
733.0,0.02104
734.0,0.02151
735.0,0.02093
736.0,0.0208
737.0,0.02078
738.0,0.02119
739.0,0.02067
740.0,0.02116
741.0,0.02088
742.0,0.02083
743.0,0.02126
744.0,0.02111
745.0,0.02102
746.0,0.02102
747.0,0.02097
748.0,0.02082
749.0,0.02049
750.0,0.0204
751.0,0.02011
752.0,0.02013
753.0,0.02014
754.0,0.0201
755.0,0.01991
756.0,0.01982
757.0,0.01976
758.0,0.01942
759.0,0.01883
760.0,0.002634
761.0,0.001393
762.0,0.008272
763.0,0.003963
764.0,0.006006
765.0,0.00815
766.0,0.01031
767.0,0.01352
768.0,0.01616
769.0,0.01659
770.0,0.01727
771.0,0.01742
772.0,0.0174
773.0,0.01743
774.0,0.01725
775.0,0.01704
776.0,0.01716
777.0,0.01684
778.0,0.01665
779.0,0.01658
780.0,0.01641
781.0,0.01636
782.0,0.0164
783.0,0.01605
784.0,0.01607
785.0,0.01588
786.0,0.01599
787.0,0.01557
788.0,0.01528
789.0,0.0152
790.0,0.01462
791.0,0.01479
792.0,0.01463
793.0,0.01432
794.0,0.01461
795.0,0.01476
796.0,0.0141
797.0,0.01405
798.0,0.01454
799.0,0.01435
800.0,0.014
801.0,0.01386
802.0,0.01376
803.0,0.01357
804.0,0.01354
805.0,0.01348
806.0,0.01386
807.0,0.01361
808.0,0.01356
809.0,0.01319
810.0,0.01298
811.0,0.01288
812.0,0.01234
813.0,0.01198
814.0,0.01023
815.0,0.01013
816.0,0.0093
817.0,0.009448
818.0,0.009013
819.0,0.01025
820.0,0.009532
821.0,0.01145
822.0,0.01102
823.0,0.006981
824.0,0.01051
825.0,0.01106
826.0,0.01049
827.0,0.01115
828.0,0.009106
829.0,0.01032
830.0,0.01013
831.0,0.01012
832.0,0.009711
833.0,0.01046
834.0,0.009961
835.0,0.01112
836.0,0.01044
837.0,0.01105
838.0,0.0106
839.0,0.0108
840.0,0.011
841.0,0.01077
842.0,0.01078
843.0,0.01078
844.0,0.01055
845.0,0.0109
846.0,0.01081
847.0,0.01057
848.0,0.01043
849.0,0.01008
850.0,0.009615
851.0,0.0101
852.0,0.009991
853.0,0.009587
854.0,0.008226
855.0,0.009023
856.0,0.009813
857.0,0.01001
858.0,0.009893
859.0,0.00987
860.0,0.009854
861.0,0.009761
862.0,0.009883
863.0,0.01008
864.0,0.009543
865.0,0.009425
866.0,0.008441
867.0,0.008775
868.0,0.009511
869.0,0.009277
870.0,0.009504
871.0,0.009336
872.0,0.009266
873.0,0.00921
874.0,0.00906
875.0,0.008837
876.0,0.008888
877.0,0.008942
878.0,0.008996
879.0,0.008821
880.0,0.008595
881.0,0.008421
882.0,0.008564
883.0,0.008565
884.0,0.008484
885.0,0.008508
886.0,0.00804
887.0,0.008119
888.0,0.008188
889.0,0.008274
890.0,0.008132
891.0,0.008105
892.0,0.007796
893.0,0.007471
894.0,0.007079
895.0,0.006545
896.0,0.006073
897.0,0.005053
898.0,0.005566
899.0,0.004045
900.0,0.00573
901.0,0.004242
902.0,0.005124
903.0,0.005105
904.0,0.006736
905.0,0.006432
906.0,0.005946
907.0,0.004593
908.0,0.004709
909.0,0.00517
910.0,0.004413
911.0,0.004782
912.0,0.004999
913.0,0.004421
914.0,0.004384
915.0,0.00476
916.0,0.003945
917.0,0.005181
918.0,0.004017
919.0,0.005267
920.0,0.005382
921.0,0.005607
922.0,0.004875
923.0,0.005381
924.0,0.004944
925.0,0.00481
926.0,0.004842
927.0,0.005506
928.0,0.003743
929.0,0.003345
930.0,0.00252
931.0,0.002369
932.0,0.001631
933.0,0.001296
934.0,0.0006769
935.0,0.001327
936.0,0.0007984
937.0,0.0008052
938.0,0.0009957
939.0,0.002215
940.0,0.002723
941.0,0.001971
942.0,0.002309
943.0,0.00145
944.0,0.001554
945.0,0.002007
946.0,0.0009567
947.0,0.00199
948.0,0.001431
949.0,0.002736
950.0,0.0006764
951.0,0.002677
952.0,0.001339
953.0,0.001773
954.0,0.002233
955.0,0.001789
956.0,0.001765
957.0,0.001314
958.0,0.002582
959.0,0.001958
960.0,0.002204
961.0,0.002526
962.0,0.002371
963.0,0.002795
964.0,0.002521
965.0,0.002759
966.0,0.002748
967.0,0.002715
968.0,0.003922
969.0,0.004066
970.0,0.003671
971.0,0.004343
972.0,0.004093
973.0,0.003412
974.0,0.003208
975.0,0.00335
976.0,0.003107
977.0,0.003674
978.0,0.003414
979.0,0.003604
980.0,0.003341
981.0,0.004155
982.0,0.003904
983.0,0.003702
984.0,0.004298
985.0,0.003843
986.0,0.00438
987.0,0.004238
988.0,0.004214
989.0,0.004341
990.0,0.004156
991.0,0.004306
992.0,0.004321
993.0,0.00417
994.0,0.004295
995.0,0.004281
996.0,0.004239
997.0,0.004234
998.0,0.004196
999.0,0.004168
1000.0,0.004113
1001.0,0.004161
1002.0,0.003986
1003.0,0.004053
1004.0,0.003927
1005.0,0.003785
1006.0,0.003909
1007.0,0.00398
1008.0,0.003936
1009.0,0.003892
1010.0,0.003857
1011.0,0.003902
1012.0,0.003845
1013.0,0.003866
1014.0,0.003825
1015.0,0.003784
1016.0,0.003751
1017.0,0.003745
1018.0,0.003721
1019.0,0.003611
1020.0,0.00367
1021.0,0.003654
1022.0,0.003606
1023.0,0.00363
1024.0,0.003553
1025.0,0.003606
1026.0,0.003573
1027.0,0.003552
1028.0,0.00353
1029.0,0.003474
1030.0,0.00349
1031.0,0.003461
1032.0,0.003439
1033.0,0.003374
1034.0,0.003362
1035.0,0.003359
1036.0,0.003362
1037.0,0.003295
1038.0,0.003298
1039.0,0.003283
1040.0,0.003257
1041.0,0.003256
1042.0,0.003221
1043.0,0.003198
1044.0,0.003197
1045.0,0.00314
1046.0,0.003093
1047.0,0.003108
1048.0,0.003113
1049.0,0.00309
1050.0,0.003063
1051.0,0.003046
1052.0,0.003021
1053.0,0.002984
1054.0,0.002979
1055.0,0.002967
1056.0,0.002943
1057.0,0.002921
1058.0,0.002838
1059.0,0.002828
1060.0,0.002813
1061.0,0.002797
1062.0,0.002799
1063.0,0.00276
1064.0,0.002784
1065.0,0.002748
1066.0,0.002688
1067.0,0.002712
1068.0,0.002639
1069.0,0.002551
1070.0,0.002624
1071.0,0.002667
1072.0,0.002618
1073.0,0.002573
1074.0,0.002644
1075.0,0.00247
1076.0,0.00262
1077.0,0.002545
1078.0,0.00248
1079.0,0.002556
1080.0,0.002476
1081.0,0.002375
1082.0,0.002432
1083.0,0.002438
1084.0,0.002335
1085.0,0.002443
1086.0,0.002171
1087.0,0.002269
1088.0,0.002386
1089.0,0.002273
1090.0,0.002196
1091.0,0.002344
1092.0,0.002335
1093.0,0.001889
1094.0,0.002111
1095.0,0.001964
1096.0,0.001851
1097.0,0.002243
1098.0,0.0018
1099.0,0.001882
1100.0,0.001711
1101.0,0.001738
1102.0,0.001635
1103.0,0.0016
1104.0,0.001599
1105.0,0.001793
1106.0,0.001266
1107.0,0.00167
1108.0,0.001348
1109.0,0.001351
1110.0,0.001626
1111.0,0.001014
1112.0,0.00133
1113.0,0.0007748
1114.0,0.0008694
1115.0,0.0007073
1116.0,0.0005406
1117.0,0.0001832
1118.0,0.0005896
1119.0,0.0002749
1120.0,0.0003454
1121.0,0.0004651
1122.0,0.0001853
1123.0,0.0003083
1124.0,0.0002583
1125.0,0.0003403
1126.0,0.000111
1127.0,0.0003829
1128.0,0.000219
1129.0,0.0002324
1130.0,0.0001503
1131.0,0.0007614
1132.0,0.0005823
1133.0,0.0003496
1134.0,8.381e-05
1135.0,3.132e-05
1136.0,0.0002839
1137.0,0.0007263
1138.0,0.000499
1139.0,0.0007935
1140.0,0.0006393
1141.0,0.0004688
1142.0,0.0005462
1143.0,0.0008042
1144.0,0.0002552
1145.0,0.000323
1146.0,0.0003476
1147.0,0.0001152
1148.0,0.0006754
1149.0,0.0005221
1150.0,0.0002716
1151.0,0.0004732
1152.0,0.0005968
1153.0,0.0005877
1154.0,0.0003039
1155.0,0.0007856
1156.0,0.0006926
1157.0,0.0007981
1158.0,0.0007856
1159.0,0.0008586
1160.0,0.0007173
1161.0,0.0009199
1162.0,0.0009167
1163.0,0.001321
1164.0,0.001095
1165.0,0.001006
1166.0,0.00101
1167.0,0.001113
1168.0,0.001119
1169.0,0.001151
1170.0,0.001272
1171.0,0.001232
1172.0,0.001264
1173.0,0.001256
1174.0,0.0008351
1175.0,0.00123
1176.0,0.001383
1177.0,0.001301
1178.0,0.0009212
1179.0,0.001381
1180.0,0.001188
1181.0,0.001227
1182.0,0.0007877
1183.0,0.001208
1184.0,0.001107
1185.0,0.00105
1186.0,0.001296
1187.0,0.001213
1188.0,0.0007834
1189.0,0.001117
1190.0,0.001251
1191.0,0.001155
1192.0,0.001264
1193.0,0.001194
1194.0,0.001237
1195.0,0.001146
1196.0,0.001089
1197.0,0.001236
1198.0,0.001112
1199.0,0.0009022
1200.0,0.001155
1201.0,0.001096
1202.0,0.001095
1203.0,0.001081
1204.0,0.0009163
1205.0,0.001122
1206.0,0.001264
1207.0,0.001073
1208.0,0.001066
1209.0,0.001085
1210.0,0.001138
1211.0,0.001065
1212.0,0.00103
1213.0,0.001186
1214.0,0.001057
1215.0,0.00103
1216.0,0.001172
1217.0,0.001129
1218.0,0.001155
1219.0,0.001132
1220.0,0.001149
1221.0,0.001163
1222.0,0.001123
1223.0,0.001106
1224.0,0.001088
1225.0,0.001139
1226.0,0.001149
1227.0,0.001034
1228.0,0.001151
1229.0,0.001138
1230.0,0.001111
1231.0,0.001153
1232.0,0.001142
1233.0,0.001081
1234.0,0.001144
1235.0,0.001131
1236.0,0.001138
1237.0,0.001112
1238.0,0.001126
1239.0,0.001108
1240.0,0.00111
1241.0,0.001096
1242.0,0.001094
1243.0,0.001082
1244.0,0.001085
1245.0,0.001087
1246.0,0.001077
1247.0,0.001068
1248.0,0.001062
1249.0,0.001064
1250.0,0.001053
1251.0,0.001033
1252.0,0.001033
1253.0,0.001015
1254.0,0.0009974
1255.0,0.001021
1256.0,0.0009776
1257.0,0.0009669
1258.0,0.0009908
1259.0,0.0009349
1260.0,0.000939
1261.0,0.0008639
1262.0,0.0008258
1263.0,0.0008244
1264.0,0.0007385
1265.0,0.0008147
1266.0,0.0007693
1267.0,0.0007889
1268.0,0.0007326
1269.0,0.0003992
1270.0,0.0007759
1271.0,0.0008391
1272.0,0.0008411
1273.0,0.0008274
1274.0,0.0008303
1275.0,0.0008432
1276.0,0.0008526
1277.0,0.0008602
1278.0,0.0008818
1279.0,0.0008708
1280.0,0.0008573
1281.0,0.0008193
1282.0,0.0007932
1283.0,0.0008503
1284.0,0.0008667
1285.0,0.0008708
1286.0,0.0008832
1287.0,0.0008605
1288.0,0.0008595
1289.0,0.0008177
1290.0,0.0008471
1291.0,0.0008584
1292.0,0.0007824
1293.0,0.0008311
1294.0,0.0008216
1295.0,0.0008088
1296.0,0.0007571
1297.0,0.0007045
1298.0,0.0007756
1299.0,0.0008185
1300.0,0.0006572
1301.0,0.0006811
1302.0,0.0007648
1303.0,0.0006445
1304.0,0.0005233
1305.0,0.0007392
1306.0,0.0007346
1307.0,0.0005361
1308.0,0.0006383
1309.0,0.0007184
1310.0,0.0005187
1311.0,0.0006001
1312.0,0.0005803
1313.0,0.0005608
1314.0,0.0004886
1315.0,0.0004788
1316.0,0.0005784
1317.0,0.0005402
1318.0,0.0005979
1319.0,0.0004369
1320.0,0.0004236
1321.0,0.0005057
1322.0,0.0005061
1323.0,0.000358
1324.0,0.0004222
1325.0,0.0005511
1326.0,0.0004564
1327.0,0.0004296
1328.0,0.0003604
1329.0,0.0002559
1330.0,0.0003426
1331.0,0.0001925
1332.0,0.0002002
1333.0,0.0002839
1334.0,0.0002431
1335.0,0.0003427
1336.0,0.0002608
1337.0,0.0002275
1338.0,0.000246
1339.0,0.0002451
1340.0,0.0002395
1341.0,0.0002273
1342.0,0.0002395
1343.0,0.0001527
1344.0,9.049e-05
1345.0,0.0001308
1346.0,6.225e-05
1347.0,6.289e-05
1348.0,4.001e-06
1349.0,1.437e-05
1350.0,1.49e-05
