interpolation:linear
wavelength,value
280.0,1.2e-24
280.5,4.4119999999999997e-23
281.0,2.51e-22
281.5,8.92e-21
282.0,7.687000000000001e-20
282.5,3.111e-19
283.0,1.455e-18
283.5,2.824e-18
284.0,8.189e-17
284.5,2.98e-16
285.0,7.395e-16
285.5,6.08e-15
286.0,2.931e-14
286.5,1.777e-13
287.0,6.225e-13
287.5,3.007e-12
288.0,1.447e-11
288.5,5.946e-11
289.0,2.063e-10
289.5,7.966e-10
290.0,2.663e-09
290.5,6.313e-09
291.0,1.597e-08
291.5,5.523e-08
292.0,1.458e-07
292.5,2.245e-07
293.0,5.358e-07
293.5,1.486e-06
294.0,2.562e-06
294.5,4.609e-06
295.0,8.334e-06
295.5,2.084e-05
296.0,3.833e-05
296.5,5.099e-05
297.0,6.617e-05
297.5,0.0001656
298.0,0.0002455
298.5,0.0002354
299.0,0.0004946
299.5,0.0007474
300.0,0.0007816
300.5,0.001072
301.0,0.001764
301.5,0.002576
302.0,0.002114
302.5,0.004006
303.0,0.006893
303.5,0.008443
304.0,0.007758
304.5,0.0108
305.0,0.0148
305.5,0.01595
306.0,0.01514
306.5,0.01817
307.0,0.02465
307.5,0.03012
308.0,0.03154
308.5,0.03585
309.0,0.03189
309.5,0.03538
310.0,0.03509
310.5,0.05663
311.0,0.0703
311.5,0.06774
312.0,0.06543
312.5,0.07785
313.0,0.08364
313.5,0.08288
314.0,0.1005
314.5,0.08531
315.0,0.1117
315.5,0.09633
316.0,0.08115
316.5,0.1129
317.0,0.141
317.5,0.1491
318.0,0.1139
318.5,0.1352
319.0,0.1571
319.5,0.1342
320.0,0.1639
320.5,0.1956
321.0,0.1668
321.5,0.1599
322.0,0.1804
322.5,0.1573
323.0,0.1521
323.5,0.1771
324.0,0.2064
324.5,0.2139
325.0,0.1939
325.5,0.2436
326.0,0.2889
326.5,0.2847
327.0,0.2872
327.5,0.2814
328.0,0.2586
328.5,0.2642
329.0,0.3095
329.5,0.35
330.0,0.357
330.5,0.2929
331.0,0.3018
331.5,0.3034
332.0,0.3219
332.5,0.3166
333.0,0.3189
333.5,0.2947
334.0,0.304
334.5,0.3456
335.0,0.3226
335.5,0.367
336.0,0.2549
336.5,0.3107
337.0,0.2579
337.5,0.3229
338.0,0.3117
338.5,0.3526
339.0,0.3523
339.5,0.3388
340.0,0.4086
340.5,0.3691
341.0,0.3548
341.5,0.3299
342.0,0.3964
342.5,0.3728
343.0,0.4097
343.5,0.3859
344.0,0.2901
344.5,0.2877
345.0,0.3863
345.5,0.397
346.0,0.3392
346.5,0.3859
347.0,0.4143
347.5,0.3356
348.0,0.3854
348.5,0.3873
349.0,0.3607
349.5,0.3581
350.0,0.4444
350.5,0.4702
351.0,0.4208
351.5,0.4082
352.0,0.4412
352.5,0.3461
353.0,0.4377
353.5,0.4697
354.0,0.4894
354.5,0.4979
355.0,0.4975
355.5,0.4508
356.0,0.4731
356.5,0.4052
357.0,0.3359
357.5,0.4125
358.0,0.3279
358.5,0.281
359.0,0.3942
359.5,0.5035
360.0,0.5353
360.5,0.4292
361.0,0.3924
361.5,0.4528
362.0,0.3925
362.5,0.5445
363.0,0.4902
363.5,0.4526
364.0,0.5548
364.5,0.4755
365.0,0.4855
365.5,0.6108
366.0,0.6487
366.5,0.6109
367.0,0.5965
367.5,0.6205
368.0,0.5443
368.5,0.5505
369.0,0.5959
369.5,0.6367
370.0,0.6803
370.5,0.5292
371.0,0.5668
371.5,0.7108
372.0,0.4729
372.5,0.5683
373.0,0.5793
373.5,0.3777
374.0,0.5501
374.5,0.4565
375.0,0.4448
375.5,0.6656
376.0,0.553
376.5,0.5744
377.0,0.6094
377.5,0.7145
378.0,0.7762
378.5,0.7354
379.0,0.6084
379.5,0.5571
380.0,0.5805
380.5,0.7046
381.0,0.7075
381.5,0.5619
382.0,0.5
382.5,0.4271
383.0,0.3962
383.5,0.3823
384.0,0.4226
384.5,0.6227
385.0,0.6187
385.5,0.5773
386.0,0.4954
386.5,0.6519
387.0,0.5428
387.5,0.6109
388.0,0.5651
388.5,0.5596
389.0,0.6053
389.5,0.7345
390.0,0.7384
390.5,0.6809
391.0,0.8029
391.5,0.8205
392.0,0.6924
392.5,0.6209
393.0,0.3461
393.5,0.252
394.0,0.5136
394.5,0.6541
395.0,0.7995
395.5,0.8136
396.0,0.7066
396.5,0.4137
397.0,0.311
397.5,0.6336
398.0,0.8889
398.5,0.9203
399.0,0.9978
399.5,0.9961
400.0,1.036
401.0,1.067
402.0,1.129
403.0,1.076
404.0,1.062
405.0,1.065
406.0,1.051
407.0,1.037
408.0,1.08
409.0,1.159
410.0,1.015
411.0,1.102
412.0,1.187
413.0,1.16
414.0,1.177
415.0,1.183
416.0,1.207
417.0,1.18
418.0,1.161
419.0,1.179
420.0,1.177
421.0,1.234
422.0,1.176
423.0,1.151
424.0,1.22
425.0,1.221
426.0,1.191
427.0,1.171
428.0,1.144
429.0,1.085
430.0,0.9514
431.0,0.9453
432.0,1.223
433.0,1.232
434.0,1.146
435.0,1.2
436.0,1.354
437.0,1.337
438.0,1.22
439.0,1.265
440.0,1.307
441.0,1.356
442.0,1.457
443.0,1.423
444.0,1.456
445.0,1.427
446.0,1.363
447.0,1.476
448.0,1.502
449.0,1.51
450.0,1.554
451.0,1.615
452.0,1.558
453.0,1.467
454.0,1.534
455.0,1.546
456.0,1.585
457.0,1.614
458.0,1.562
459.0,1.556
460.0,1.563
461.0,1.601
462.0,1.615
463.0,1.606
464.0,1.581
465.0,1.562
466.0,1.579
467.0,1.553
468.0,1.573
469.0,1.584
470.0,1.536
471.0,1.536
472.0,1.62
473.0,1.601
474.0,1.607
475.0,1.624
476.0,1.578
477.0,1.586
478.0,1.631
479.0,1.623
480.0,1.627
481.0,1.659
482.0,1.669
483.0,1.65
484.0,1.617
485.0,1.542
486.0,1.349
487.0,1.415
488.0,1.554
489.0,1.561
490.0,1.644
491.0,1.616
492.0,1.528
493.0,1.58
494.0,1.597
495.0,1.612
496.0,1.624
497.0,1.651
498.0,1.575
499.0,1.597
500.0,1.553
501.0,1.527
502.0,1.508
503.0,1.573
504.0,1.539
505.0,1.592
506.0,1.645
507.0,1.566
508.0,1.518
509.0,1.561
510.0,1.553
511.0,1.595
512.0,1.614
513.0,1.528
514.0,1.519
515.0,1.505
516.0,1.503
517.0,1.336
518.0,1.406
519.0,1.476
520.0,1.531
521.0,1.547
522.0,1.55
523.0,1.524
524.0,1.58
525.0,1.601
526.0,1.531
527.0,1.444
528.0,1.529
529.0,1.614
530.0,1.592
531.0,1.617
532.0,1.563
533.0,1.518
534.0,1.564
535.0,1.598
536.0,1.614
537.0,1.551
538.0,1.579
539.0,1.567
540.0,1.503
541.0,1.516
542.0,1.565
543.0,1.548
544.0,1.577
545.0,1.573
546.0,1.582
547.0,1.581
548.0,1.563
549.0,1.568
550.0,1.588
551.0,1.569
552.0,1.581
553.0,1.554
554.0,1.592
555.0,1.597
556.0,1.577
557.0,1.529
558.0,1.519
559.0,1.492
560.0,1.512
561.0,1.533
562.0,1.524
563.0,1.567
564.0,1.526
565.0,1.514
566.0,1.493
567.0,1.523
568.0,1.512
569.0,1.481
570.0,1.481
571.0,1.472
572.0,1.51
573.0,1.528
574.0,1.524
575.0,1.497
576.0,1.484
577.0,1.501
578.0,1.478
579.0,1.482
580.0,1.509
581.0,1.515
582.0,1.543
583.0,1.545
584.0,1.559
585.0,1.521
586.0,1.49
587.0,1.525
588.0,1.493
589.0,1.333
590.0,1.394
591.0,1.47
592.0,1.455
593.0,1.473
594.0,1.465
595.0,1.433
596.0,1.482
597.0,1.469
598.0,1.463
599.0,1.464
600.0,1.465
601.0,1.452
602.0,1.442
603.0,1.466
604.0,1.491
605.0,1.483
606.0,1.477
607.0,1.491
608.0,1.474
609.0,1.477
610.0,1.466
611.0,1.473
612.0,1.469
613.0,1.451
614.0,1.431
615.0,1.462
616.0,1.414
617.0,1.411
618.0,1.465
619.0,1.451
620.0,1.46
621.0,1.463
622.0,1.447
623.0,1.426
624.0,1.401
625.0,1.399
626.0,1.42
627.0,1.438
628.0,1.364
629.0,1.412
630.0,1.38
631.0,1.405
632.0,1.388
633.0,1.427
634.0,1.411
635.0,1.433
636.0,1.413
637.0,1.436
638.0,1.448
639.0,1.432
640.0,1.417
641.0,1.416
642.0,1.409
643.0,1.429
644.0,1.423
645.0,1.427
646.0,1.396
647.0,1.386
648.0,1.388
649.0,1.362
650.0,1.362
651.0,1.419
652.0,1.369
653.0,1.401
654.0,1.385
655.0,1.338
656.0,1.183
657.0,1.215
658.0,1.36
659.0,1.369
660.0,1.375
661.0,1.384
662.0,1.389
663.0,1.361
664.0,1.376
665.0,1.376
666.0,1.376
667.0,1.375
668.0,1.375
669.0,1.396
670.0,1.39
671.0,1.389
672.0,1.378
673.0,1.398
674.0,1.393
675.0,1.38
676.0,1.39
677.0,1.376
678.0,1.38
679.0,1.358
680.0,1.369
681.0,1.36
682.0,1.358
683.0,1.356
684.0,1.35
685.0,1.361
686.0,1.354
687.0,0.989
688.0,1.116
689.0,1.118
690.0,1.159
691.0,1.204
692.0,1.235
693.0,1.227
694.0,1.217
695.0,1.257
696.0,1.259
697.0,1.322
698.0,1.302
699.0,1.28
700.0,1.265
701.0,1.255
702.0,1.261
703.0,1.263
704.0,1.299
705.0,1.301
706.0,1.298
707.0,1.298
708.0,1.301
709.0,1.3
710.0,1.302
711.0,1.299
712.0,1.294
713.0,1.283
714.0,1.287
715.0,1.25
716.0,1.252
717.0,1.119
718.0,1.035
719.0,0.9519
720.0,0.9993
721.0,1.082
722.0,1.216
723.0,1.144
724.0,1.044
725.0,1.032
726.0,1.078
727.0,1.086
728.0,1.032
729.0,1.058
730.0,1.119
731.0,1.075
732.0,1.138
733.0,1.192
734.0,1.217
735.0,1.194
736.0,1.192
737.0,1.198
738.0,1.208
739.0,1.185
740.0,1.214
741.0,1.2
742.0,1.2
743.0,1.231
744.0,1.226
745.0,1.226
746.0,1.232
747.0,1.235
748.0,1.232
749.0,1.218
750.0,1.218
751.0,1.205
752.0,1.211
753.0,1.217
754.0,1.22
755.0,1.213
756.0,1.213
757.0,1.215
758.0,1.2
759.0,1.18
760.0,0.2916
761.0,0.1759
762.0,0.6968
763.0,0.4064
764.0,0.5588
765.0,0.6975
766.0,0.8115
767.0,0.9805
768.0,1.098
769.0,1.114
770.0,1.143
771.0,1.149
772.0,1.15
773.0,1.158
774.0,1.152
775.0,1.144
776.0,1.158
777.0,1.142
778.0,1.136
779.0,1.137
780.0,1.13
781.0,1.132
782.0,1.139
783.0,1.119
784.0,1.124
785.0,1.117
786.0,1.129
787.0,1.113
788.0,1.101
789.0,1.101
790.0,1.077
791.0,1.082
792.0,1.073
793.0,1.057
794.0,1.069
795.0,1.089
796.0,1.063
797.0,1.064
798.0,1.089
799.0,1.083
800.0,1.066
801.0,1.064
802.0,1.061
803.0,1.054
804.0,1.055
805.0,1.05
806.0,1.076
807.0,1.064
808.0,1.065
809.0,1.047
810.0,1.041
811.0,1.045
812.0,1.021
813.0,1.003
814.0,0.8988
815.0,0.8929
816.0,0.8337
817.0,0.8469
818.0,0.8191
819.0,0.901
820.0,0.8545
821.0,0.9788
822.0,0.9543
823.0,0.6814
824.0,0.9334
825.0,0.9633
826.0,0.9328
827.0,0.978
828.0,0.8473
829.0,0.9261
830.0,0.916
831.0,0.9186
832.0,0.8939
833.0,0.9416
834.0,0.9143
835.0,0.9918
836.0,0.9573
837.0,0.9942
838.0,0.9668
839.0,0.9786
840.0,0.9992
841.0,0.9867
842.0,0.9866
843.0,0.9837
844.0,0.9714
845.0,1.003
846.0,0.9979
847.0,0.9786
848.0,0.9737
849.0,0.9461
850.0,0.9064
851.0,0.9608
852.0,0.9537
853.0,0.9172
854.0,0.7927
855.0,0.8699
856.0,0.9512
857.0,0.9718
858.0,0.965
859.0,0.9655
860.0,0.967
861.0,0.9618
862.0,0.9769
863.0,1.0
864.0,0.95
865.0,0.9417
866.0,0.8468
867.0,0.8837
868.0,0.9617
869.0,0.9418
870.0,0.9687
871.0,0.9556
872.0,0.9522
873.0,0.9504
874.0,0.9391
875.0,0.9202
876.0,0.9299
877.0,0.9393
878.0,0.9497
879.0,0.9351
880.0,0.9151
881.0,0.902
882.0,0.9217
883.0,0.9242
884.0,0.9202
885.0,0.9272
886.0,0.8855
887.0,0.8936
888.0,0.9077
889.0,0.9165
890.0,0.9108
891.0,0.9083
892.0,0.8845
893.0,0.8599
894.0,0.8352
895.0,0.7964
896.0,0.7537
897.0,0.6574
898.0,0.7116
899.0,0.5536
900.0,0.7227
901.0,0.5797
902.0,0.6643
903.0,0.676
904.0,0.8294
905.0,0.8041
906.0,0.7552
907.0,0.6283
908.0,0.6388
909.0,0.6849
910.0,0.6183
911.0,0.6515
912.0,0.6782
913.0,0.6281
914.0,0.6206
915.0,0.6714
916.0,0.5724
917.0,0.7124
918.0,0.5873
919.0,0.7222
920.0,0.7234
921.0,0.7508
922.0,0.6802
923.0,0.7248
924.0,0.6977
925.0,0.6828
926.0,0.6903
927.0,0.7642
928.0,0.5852
929.0,0.5408
930.0,0.4357
931.0,0.411
932.0,0.3068
933.0,0.2553
934.0,0.1525
935.0,0.2564
936.0,0.1679
937.0,0.1713
938.0,0.2075
939.0,0.3984
940.0,0.4719
941.0,0.3663
942.0,0.4176
943.0,0.2827
944.0,0.2907
945.0,0.376
946.0,0.2022
947.0,0.3804
948.0,0.2814
949.0,0.4984
950.0,0.1556
951.0,0.4889
952.0,0.2771
953.0,0.3485
954.0,0.4169
955.0,0.3513
956.0,0.3363
957.0,0.279
958.0,0.4617
959.0,0.3779
960.0,0.4232
961.0,0.4666
962.0,0.4426
963.0,0.5029
964.0,0.4633
965.0,0.5002
966.0,0.5021
967.0,0.5007
968.0,0.6461
969.0,0.6766
970.0,0.625
971.0,0.7045
972.0,0.6761
973.0,0.5996
974.0,0.5709
975.0,0.5882
976.0,0.5643
977.0,0.6308
978.0,0.6041
979.0,0.6291
980.0,0.5939
981.0,0.7002
982.0,0.6735
983.0,0.649
984.0,0.7172
985.0,0.6709
986.0,0.7272
987.0,0.7158
988.0,0.7146
989.0,0.7235
990.0,0.7101
991.0,0.726
992.0,0.73
993.0,0.7165
994.0,0.7295
995.0,0.7282
996.0,0.7254
997.0,0.7263
998.0,0.7231
999.0,0.7204
1000.0,0.716
1001.0,0.7242
1002.0,0.707
1003.0,0.7116
1004.0,0.6949
1005.0,0.6686
1006.0,0.6952
1007.0,0.7097
1008.0,0.7064
1009.0,0.7031
1010.0,0.7005
1011.0,0.7061
1012.0,0.7005
1013.0,0.7043
1014.0,0.6994
1015.0,0.6949
1016.0,0.6918
1017.0,0.6937
1018.0,0.6908
1019.0,0.6771
1020.0,0.6874
1021.0,0.6863
1022.0,0.6813
1023.0,0.6887
1024.0,0.6808
1025.0,0.6879
1026.0,0.6852
1027.0,0.6836
1028.0,0.6823
1029.0,0.6743
1030.0,0.6786
1031.0,0.6761
1032.0,0.674
1033.0,0.6639
1034.0,0.6639
1035.0,0.666
1036.0,0.6696
1037.0,0.6587
1038.0,0.6617
1039.0,0.6614
1040.0,0.6587
1041.0,0.6615
1042.0,0.6569
1043.0,0.6549
1044.0,0.6573
1045.0,0.6484
1046.0,0.6413
1047.0,0.6472
1048.0,0.6509
1049.0,0.6486
1050.0,0.6457
1051.0,0.645
1052.0,0.6424
1053.0,0.6375
1054.0,0.639
1055.0,0.6395
1056.0,0.6375
1057.0,0.6356
1058.0,0.6202
1059.0,0.621
1060.0,0.6202
1061.0,0.6196
1062.0,0.623
1063.0,0.617
1064.0,0.6242
1065.0,0.6201
1066.0,0.6076
1067.0,0.6156
1068.0,0.6024
1069.0,0.5836
1070.0,0.6037
1071.0,0.6122
1072.0,0.6059
1073.0,0.597
1074.0,0.6114
1075.0,0.5837
1076.0,0.6111
1077.0,0.6018
1078.0,0.5911
1079.0,0.6009
1080.0,0.5926
1081.0,0.575
1082.0,0.5818
1083.0,0.583
1084.0,0.5744
1085.0,0.5938
1086.0,0.5464
1087.0,0.5606
1088.0,0.583
1089.0,0.5678
1090.0,0.5573
1091.0,0.5819
1092.0,0.5798
1093.0,0.5
1094.0,0.5315
1095.0,0.5197
1096.0,0.5001
1097.0,0.5663
1098.0,0.4932
1099.0,0.5131
1100.0,0.4809
1101.0,0.4857
1102.0,0.4662
1103.0,0.4633
1104.0,0.4637
1105.0,0.5023
1106.0,0.3986
1107.0,0.4799
1108.0,0.4155
1109.0,0.4145
1110.0,0.4768
1111.0,0.3352
1112.0,0.4107
1113.0,0.2738
1114.0,0.3045
1115.0,0.2529
1116.0,0.2095
1117.0,0.08566
1118.0,0.2251
1119.0,0.1185
1120.0,0.1493
1121.0,0.1939
1122.0,0.08754
1123.0,0.1347
1124.0,0.1138
1125.0,0.1468
1126.0,0.05708
1127.0,0.1651
1128.0,0.1052
1129.0,0.1106
1130.0,0.07563
1131.0,0.2981
1132.0,0.2367
1133.0,0.158
1134.0,0.04543
1135.0,0.01679
1136.0,0.1346
1137.0,0.2952
1138.0,0.2098
1139.0,0.298
1140.0,0.2547
1141.0,0.1993
1142.0,0.2262
1143.0,0.315
1144.0,0.1177
1145.0,0.1521
1146.0,0.1642
1147.0,0.06404
1148.0,0.2728
1149.0,0.2225
1150.0,0.1262
1151.0,0.2083
1152.0,0.251
1153.0,0.2406
1154.0,0.1488
1155.0,0.3112
1156.0,0.2831
1157.0,0.3134
1158.0,0.3098
1159.0,0.3303
1160.0,0.287
1161.0,0.3448
1162.0,0.3472
1163.0,0.4541
1164.0,0.395
1165.0,0.3777
1166.0,0.3716
1167.0,0.402
1168.0,0.4075
1169.0,0.4152
1170.0,0.4469
1171.0,0.4365
1172.0,0.4419
1173.0,0.446
1174.0,0.3307
1175.0,0.4338
1176.0,0.471
1177.0,0.456
1178.0,0.3518
1179.0,0.4746
1180.0,0.4302
1181.0,0.4433
1182.0,0.3161
1183.0,0.4351
1184.0,0.4111
1185.0,0.3996
1186.0,0.4639
1187.0,0.4449
1188.0,0.3223
1189.0,0.4152
1190.0,0.4534
1191.0,0.4357
1192.0,0.4591
1193.0,0.4419
1194.0,0.4541
1195.0,0.4332
1196.0,0.4196
1197.0,0.4523
1198.0,0.4167
1199.0,0.3629
1200.0,0.4366
1201.0,0.424
1202.0,0.4199
1203.0,0.4165
1204.0,0.369
1205.0,0.4271
1206.0,0.4671
1207.0,0.4196
1208.0,0.4105
1209.0,0.4183
1210.0,0.4339
1211.0,0.4165
1212.0,0.4151
1213.0,0.4536
1214.0,0.4233
1215.0,0.4161
1216.0,0.452
1217.0,0.4417
1218.0,0.4485
1219.0,0.4437
1220.0,0.4487
1221.0,0.4523
1222.0,0.4415
1223.0,0.4381
1224.0,0.4366
1225.0,0.4495
1226.0,0.4515
1227.0,0.4208
1228.0,0.4529
1229.0,0.4515
1230.0,0.4446
1231.0,0.4546
1232.0,0.452
1233.0,0.4399
1234.0,0.4535
1235.0,0.4511
1236.0,0.454
1237.0,0.4491
1238.0,0.4525
1239.0,0.4467
1240.0,0.4483
1241.0,0.447
1242.0,0.4453
1243.0,0.4416
1244.0,0.4451
1245.0,0.4468
1246.0,0.4442
1247.0,0.4427
1248.0,0.4428
1249.0,0.4438
1250.0,0.4414
1251.0,0.4362
1252.0,0.4357
1253.0,0.4333
1254.0,0.4299
1255.0,0.4355
1256.0,0.4255
1257.0,0.4236
1258.0,0.4298
1259.0,0.4176
1260.0,0.4193
1261.0,0.4001
1262.0,0.3903
1263.0,0.3912
1264.0,0.3663
1265.0,0.3886
1266.0,0.377
1267.0,0.3815
1268.0,0.3652
1269.0,0.2502
1270.0,0.3809
1271.0,0.3982
1272.0,0.399
1273.0,0.3953
1274.0,0.3959
1275.0,0.4009
1276.0,0.4039
1277.0,0.4057
1278.0,0.4117
1279.0,0.4082
1280.0,0.4029
1281.0,0.3837
1282.0,0.3684
1283.0,0.397
1284.0,0.4068
1285.0,0.4093
1286.0,0.4141
1287.0,0.409
1288.0,0.4086
1289.0,0.3983
1290.0,0.4048
1291.0,0.41
1292.0,0.3901
1293.0,0.4032
1294.0,0.4007
1295.0,0.4
1296.0,0.3851
1297.0,0.3668
1298.0,0.3897
1299.0,0.4033
1300.0,0.3502
1301.0,0.3591
1302.0,0.3883
1303.0,0.3446
1304.0,0.3023
1305.0,0.381
1306.0,0.3816
1307.0,0.3059
1308.0,0.3439
1309.0,0.3793
1310.0,0.3005
1311.0,0.3316
1312.0,0.3239
1313.0,0.319
1314.0,0.2885
1315.0,0.2866
1316.0,0.3277
1317.0,0.3114
1318.0,0.335
1319.0,0.2718
1320.0,0.2612
1321.0,0.3008
1322.0,0.3052
1323.0,0.2379
1324.0,0.2665
1325.0,0.3235
1326.0,0.2829
1327.0,0.2711
1328.0,0.2364
1329.0,0.1845
1330.0,0.2366
1331.0,0.1513
1332.0,0.1533
1333.0,0.2111
1334.0,0.1753
1335.0,0.2369
1336.0,0.1916
1337.0,0.172
1338.0,0.1858
1339.0,0.1838
1340.0,0.1767
1341.0,0.1774
1342.0,0.186
1343.0,0.1364
1344.0,0.08141
1345.0,0.1162
1346.0,0.06496
1347.0,0.06726
1348.0,0.005894
1349.0,0.01935
1350.0,0.01886
1351.0,0.005988
1352.0,0.002125
1353.0,0.0001504
1354.0,0.0004239
1355.0,6.533e-06
1356.0,7.556e-05
1357.0,0.0001138
1358.0,7.539e-06
1359.0,1.524e-06
1360.0,4.084e-06
1361.0,1.274e-08
1362.0,5.563e-11
1363.0,6.195e-06
1364.0,2.707e-06
1365.0,3.338e-11
1366.0,2.38e-05
1367.0,9.217e-06
1368.0,7.58e-13
1369.0,1.048e-06
1370.0,6.296e-07
1371.0,4.655e-08
1372.0,5.096e-06
1373.0,7.353e-05
1374.0,0.0002733
1375.0,0.0004933
1376.0,0.0003774
1377.0,0.0001825
1378.0,0.001586
1379.0,7.785e-05
1380.0,0.0001272
1381.0,3.893e-06
1382.0,4.855e-06
1383.0,8.991e-08
1384.0,1.277e-06
1385.0,3.704e-06
1386.0,4.944e-06
1387.0,0.0003183
1388.0,6.629e-06
1389.0,0.0008556
1390.0,0.0007339
1391.0,0.0005186
1392.0,3.719e-05
1393.0,0.0001735
1394.0,0.0001262
1395.0,1.243e-06
1396.0,1.606e-08
1397.0,7.584e-05
1398.0,0.001814
1399.0,0.001151
1400.0,9e-09
1401.0,2.621e-08
1402.0,0.002405
1403.0,0.003179
1404.0,0.0009931
1405.0,7.184e-07
1406.0,0.00281
1407.0,0.0002395
1408.0,0.002269
1409.0,0.0008974
1410.0,0.0006583
1411.0,0.002771
1412.0,0.00346
1413.0,0.02788
1414.0,0.0005104
1415.0,0.0002659
1416.0,0.04045
1417.0,0.01414
1418.0,0.01621
1419.0,0.002615
1420.0,0.01
1421.0,0.01095
1422.0,0.05222
1423.0,0.01065
1424.0,0.01951
1425.0,0.02931
1426.0,0.0316
1427.0,0.05422
1428.0,0.005658
1429.0,0.04224
1430.0,0.06784
1431.0,0.07348
1432.0,0.00451
1433.0,0.04822
1434.0,0.02527
1435.0,0.02779
1436.0,0.0496
1437.0,0.03803
1438.0,0.0172
1439.0,0.06565
1440.0,0.04941
1441.0,0.03955
1442.0,0.04345
1443.0,0.05169
1444.0,0.07038
1445.0,0.05736
1446.0,0.02651
1447.0,0.04171
1448.0,0.1246
1449.0,0.1105
1450.0,0.03085
1451.0,0.01298
1452.0,0.06865
1453.0,0.08881
1454.0,0.1447
1455.0,0.07113
1456.0,0.09677
1457.0,0.1252
1458.0,0.1432
1459.0,0.17
1460.0,0.09093
1461.0,0.09686
1462.0,0.1383
1463.0,0.04725
1464.0,0.1603
1465.0,0.09729
1466.0,0.07192
