interpolation:linear
wavelength,value
280.0,4.6230000000000003e-26
280.5,2.09e-24
281.0,1.283e-23
281.5,5.568e-22
282.0,5.42e-21
282.5,2.381e-20
283.0,1.219e-19
283.5,2.474e-19
284.0,8.841e-18
284.5,3.538e-17
285.0,9.734e-17
285.5,9.035e-16
286.0,4.574e-15
286.5,3.067e-14
287.0,1.158e-13
287.5,6.165e-13
288.0,3.354e-12
288.5,1.472e-11
289.0,5.46e-11
289.5,2.271e-10
290.0,8.066e-10
290.5,2.011e-09
291.0,5.408e-09
291.5,2.022e-08
292.0,5.686e-08
292.5,9.071e-08
293.0,2.267e-07
293.5,6.688e-07
294.0,1.203e-06
294.5,2.234e-06
295.0,4.203e-06
295.5,1.104e-05
296.0,2.101e-05
296.5,2.886e-05
297.0,3.841e-05
297.5,9.959e-05
298.0,0.000152
298.5,0.0001489
299.0,0.0003191
299.5,0.0004978
300.0,0.0005294
300.5,0.0007381
301.0,0.001244
301.5,0.001851
302.0,0.001533
302.5,0.002953
303.0,0.005185
303.5,0.006424
304.0,0.005937
304.5,0.008374
305.0,0.01168
305.5,0.01271
306.0,0.01212
306.5,0.01464
307.0,0.02013
307.5,0.02488
308.0,0.02612
308.5,0.02986
309.0,0.02668
309.5,0.02996
310.0,0.02988
310.5,0.04838
311.0,0.06032
311.5,0.05827
312.0,0.05677
312.5,0.06793
313.0,0.07322
313.5,0.07242
314.0,0.08843
314.5,0.07562
315.0,0.09921
315.5,0.0853
316.0,0.07231
316.5,0.1011
317.0,0.1264
317.5,0.1335
318.0,0.1024
318.5,0.1222
319.0,0.1425
319.5,0.1212
320.0,0.1481
320.5,0.1778
321.0,0.1523
321.5,0.1461
322.0,0.1643
322.5,0.1433
323.0,0.1391
323.5,0.1628
324.0,0.19
324.5,0.1967
325.0,0.1778
325.5,0.224
326.0,0.2666
326.5,0.2633
327.0,0.2656
327.5,0.2601
328.0,0.2385
328.5,0.2446
329.0,0.2872
329.5,0.3252
330.0,0.3317
330.5,0.2718
331.0,0.28
331.5,0.282
332.0,0.2999
332.5,0.2952
333.0,0.2974
333.5,0.2746
334.0,0.2833
334.5,0.3227
335.0,0.3015
335.5,0.3433
336.0,0.2385
336.5,0.2906
337.0,0.2412
337.5,0.3021
338.0,0.2921
338.5,0.3306
339.0,0.3305
339.5,0.3179
340.0,0.3834
340.5,0.3466
341.0,0.3334
341.5,0.3101
342.0,0.3728
342.5,0.3508
343.0,0.3856
343.5,0.3633
344.0,0.273
344.5,0.271
345.0,0.3641
345.5,0.3744
346.0,0.32
346.5,0.3642
347.0,0.3911
347.5,0.3169
348.0,0.3641
348.5,0.366
349.0,0.341
349.5,0.3387
350.0,0.4204
350.5,0.445
351.0,0.3983
351.5,0.3865
352.0,0.4179
352.5,0.328
353.0,0.4149
353.5,0.4454
354.0,0.4642
354.5,0.4723
355.0,0.4721
355.5,0.428
356.0,0.4493
356.5,0.3849
357.0,0.3191
357.5,0.392
358.0,0.3117
358.5,0.2672
359.0,0.3749
359.5,0.4789
360.0,0.5094
360.5,0.4085
361.0,0.3736
361.5,0.4313
362.0,0.374
362.5,0.519
363.0,0.4674
363.5,0.4316
364.0,0.5293
364.5,0.4537
365.0,0.4634
365.5,0.5832
366.0,0.6196
366.5,0.5837
367.0,0.57
367.5,0.5931
368.0,0.5204
368.5,0.5265
369.0,0.57
369.5,0.6092
370.0,0.6511
370.5,0.5066
371.0,0.5427
371.5,0.6808
372.0,0.453
372.5,0.5445
373.0,0.5552
373.5,0.3621
374.0,0.5275
374.5,0.4379
375.0,0.4267
375.5,0.6387
376.0,0.5307
376.5,0.5513
377.0,0.5851
377.5,0.6861
378.0,0.7455
378.5,0.7065
379.0,0.5845
379.5,0.5354
380.0,0.558
380.5,0.6774
381.0,0.6804
381.5,0.5405
382.0,0.4811
382.5,0.411
383.0,0.3814
383.5,0.3681
384.0,0.4069
384.5,0.5998
385.0,0.5961
385.5,0.5563
386.0,0.4775
386.5,0.6285
387.0,0.5234
387.5,0.5891
388.0,0.5451
388.5,0.5399
389.0,0.584
389.5,0.7088
390.0,0.7128
390.5,0.6574
391.0,0.7753
391.5,0.7924
392.0,0.6688
392.5,0.5999
393.0,0.3344
393.5,0.2436
394.0,0.4965
394.5,0.6325
395.0,0.7732
395.5,0.787
396.0,0.6836
396.5,0.4003
397.0,0.301
397.5,0.6132
398.0,0.8605
398.5,0.891
399.0,0.9663
399.5,0.9648
400.0,1.004
401.0,1.034
402.0,1.095
403.0,1.043
404.0,1.03
405.0,1.033
406.0,1.02
407.0,1.006
408.0,1.049
409.0,1.126
410.0,0.9865
411.0,1.071
412.0,1.154
413.0,1.129
414.0,1.145
415.0,1.151
416.0,1.175
417.0,1.149
418.0,1.131
419.0,1.149
420.0,1.147
421.0,1.203
422.0,1.146
423.0,1.122
424.0,1.19
425.0,1.191
426.0,1.162
427.0,1.143
428.0,1.116
429.0,1.059
430.0,0.9292
431.0,0.9233
432.0,1.195
433.0,1.204
434.0,1.12
435.0,1.173
436.0,1.324
437.0,1.308
438.0,1.193
439.0,1.237
440.0,1.279
441.0,1.328
442.0,1.427
443.0,1.393
444.0,1.426
445.0,1.398
446.0,1.336
447.0,1.446
448.0,1.472
449.0,1.48
450.0,1.524
451.0,1.583
452.0,1.528
453.0,1.439
454.0,1.505
455.0,1.517
456.0,1.555
457.0,1.584
458.0,1.533
459.0,1.528
460.0,1.535
461.0,1.572
462.0,1.586
463.0,1.578
464.0,1.553
465.0,1.535
466.0,1.552
467.0,1.526
468.0,1.547
469.0,1.558
470.0,1.51
471.0,1.51
472.0,1.594
473.0,1.575
474.0,1.58
475.0,1.597
476.0,1.552
477.0,1.56
478.0,1.605
479.0,1.597
480.0,1.602
481.0,1.633
482.0,1.643
483.0,1.624
484.0,1.593
485.0,1.519
486.0,1.329
487.0,1.394
488.0,1.531
489.0,1.538
490.0,1.62
491.0,1.593
492.0,1.506
493.0,1.558
494.0,1.575
495.0,1.59
496.0,1.601
497.0,1.628
498.0,1.554
499.0,1.576
500.0,1.532
501.0,1.506
502.0,1.488
503.0,1.551
504.0,1.517
505.0,1.57
506.0,1.622
507.0,1.545
508.0,1.498
509.0,1.54
510.0,1.533
511.0,1.575
512.0,1.593
513.0,1.509
514.0,1.5
515.0,1.486
516.0,1.484
517.0,1.32
518.0,1.389
519.0,1.458
520.0,1.513
521.0,1.528
522.0,1.531
523.0,1.505
524.0,1.561
525.0,1.581
526.0,1.512
527.0,1.427
528.0,1.511
529.0,1.594
530.0,1.573
531.0,1.597
532.0,1.544
533.0,1.5
534.0,1.545
535.0,1.579
536.0,1.595
537.0,1.533
538.0,1.561
539.0,1.549
540.0,1.486
541.0,1.498
542.0,1.546
543.0,1.53
544.0,1.559
545.0,1.555
546.0,1.563
547.0,1.563
548.0,1.545
549.0,1.55
550.0,1.57
551.0,1.552
552.0,1.563
553.0,1.537
554.0,1.574
555.0,1.579
556.0,1.559
557.0,1.512
558.0,1.502
559.0,1.476
560.0,1.495
561.0,1.516
562.0,1.507
563.0,1.549
564.0,1.508
565.0,1.497
566.0,1.476
567.0,1.506
568.0,1.495
569.0,1.463
570.0,1.463
571.0,1.454
572.0,1.492
573.0,1.509
574.0,1.505
575.0,1.478
576.0,1.466
577.0,1.482
578.0,1.46
579.0,1.465
580.0,1.491
581.0,1.498
582.0,1.526
583.0,1.529
584.0,1.542
585.0,1.505
586.0,1.474
587.0,1.508
588.0,1.476
589.0,1.316
590.0,1.376
591.0,1.452
592.0,1.437
593.0,1.456
594.0,1.448
595.0,1.415
596.0,1.466
597.0,1.452
598.0,1.447
599.0,1.448
600.0,1.449
601.0,1.437
602.0,1.427
603.0,1.451
604.0,1.475
605.0,1.468
606.0,1.462
607.0,1.476
608.0,1.46
609.0,1.462
610.0,1.452
611.0,1.46
612.0,1.456
613.0,1.437
614.0,1.418
615.0,1.449
616.0,1.401
617.0,1.398
618.0,1.452
619.0,1.438
620.0,1.448
621.0,1.45
622.0,1.434
623.0,1.413
624.0,1.389
625.0,1.386
626.0,1.407
627.0,1.425
628.0,1.347
629.0,1.398
630.0,1.366
631.0,1.392
632.0,1.375
633.0,1.415
634.0,1.4
635.0,1.421
636.0,1.402
637.0,1.425
638.0,1.437
639.0,1.421
640.0,1.407
641.0,1.406
642.0,1.399
643.0,1.419
644.0,1.414
645.0,1.417
646.0,1.386
647.0,1.374
648.0,1.377
649.0,1.351
650.0,1.352
651.0,1.41
652.0,1.358
653.0,1.392
654.0,1.376
655.0,1.328
656.0,1.175
657.0,1.207
658.0,1.351
659.0,1.36
660.0,1.366
661.0,1.376
662.0,1.38
663.0,1.353
664.0,1.368
665.0,1.368
666.0,1.369
667.0,1.367
668.0,1.367
669.0,1.389
670.0,1.383
671.0,1.382
672.0,1.371
673.0,1.391
674.0,1.386
675.0,1.374
676.0,1.383
677.0,1.37
678.0,1.373
679.0,1.351
680.0,1.362
681.0,1.354
682.0,1.352
683.0,1.35
684.0,1.344
685.0,1.355
686.0,1.348
687.0,0.9647
688.0,1.097
689.0,1.1
690.0,1.143
691.0,1.191
692.0,1.224
693.0,1.216
694.0,1.206
695.0,1.248
696.0,1.25
697.0,1.316
698.0,1.296
699.0,1.272
700.0,1.257
701.0,1.247
702.0,1.253
703.0,1.255
704.0,1.292
705.0,1.294
706.0,1.291
707.0,1.292
708.0,1.295
709.0,1.295
710.0,1.296
711.0,1.294
712.0,1.289
713.0,1.277
714.0,1.282
715.0,1.244
716.0,1.246
717.0,1.107
718.0,1.021
719.0,0.9386
720.0,0.985
721.0,1.071
722.0,1.208
723.0,1.134
724.0,1.033
725.0,1.02
726.0,1.066
727.0,1.075
728.0,1.019
729.0,1.048
730.0,1.108
731.0,1.064
732.0,1.128
733.0,1.185
734.0,1.211
735.0,1.187
736.0,1.186
737.0,1.191
738.0,1.203
739.0,1.18
740.0,1.209
741.0,1.196
742.0,1.196
743.0,1.227
744.0,1.223
745.0,1.222
746.0,1.228
747.0,1.231
748.0,1.229
749.0,1.215
750.0,1.214
751.0,1.202
752.0,1.207
753.0,1.213
754.0,1.216
755.0,1.21
756.0,1.209
757.0,1.211
758.0,1.196
759.0,1.176
760.0,0.2663
761.0,0.1557
762.0,0.6728
763.0,0.379
764.0,0.5317
765.0,0.6734
766.0,0.793
767.0,0.9674
768.0,1.09
769.0,1.108
770.0,1.139
771.0,1.146
772.0,1.147
773.0,1.155
774.0,1.15
775.0,1.141
776.0,1.155
777.0,1.14
778.0,1.133
779.0,1.134
780.0,1.128
781.0,1.129
782.0,1.136
783.0,1.116
784.0,1.122
785.0,1.114
786.0,1.127
787.0,1.11
788.0,1.097
789.0,1.097
790.0,1.072
791.0,1.078
792.0,1.07
793.0,1.053
794.0,1.067
795.0,1.086
796.0,1.058
797.0,1.06
798.0,1.086
799.0,1.08
800.0,1.063
801.0,1.061
802.0,1.058
803.0,1.05
804.0,1.051
805.0,1.047
806.0,1.073
807.0,1.061
808.0,1.062
809.0,1.044
810.0,1.037
811.0,1.041
812.0,1.015
813.0,0.9965
814.0,0.8895
815.0,0.8837
816.0,0.8246
817.0,0.8382
818.0,0.8097
819.0,0.8942
820.0,0.8466
821.0,0.9744
822.0,0.9492
823.0,0.67
824.0,0.9269
825.0,0.9586
826.0,0.9269
827.0,0.9733
828.0,0.8391
829.0,0.9206
830.0,0.9101
831.0,0.9129
832.0,0.8875
833.0,0.9371
834.0,0.9086
835.0,0.9885
836.0,0.9523
837.0,0.9911
838.0,0.963
839.0,0.9757
840.0,0.9965
841.0,0.9836
842.0,0.984
843.0,0.9818
844.0,0.9692
845.0,1.001
846.0,0.996
847.0,0.977
848.0,0.9718
849.0,0.9443
850.0,0.9047
851.0,0.9588
852.0,0.9518
853.0,0.9156
854.0,0.7911
855.0,0.8685
856.0,0.9495
857.0,0.9702
858.0,0.9634
859.0,0.964
860.0,0.9655
861.0,0.9604
862.0,0.9754
863.0,0.9985
864.0,0.9487
865.0,0.9404
866.0,0.8456
867.0,0.8825
868.0,0.9604
869.0,0.9405
870.0,0.9674
871.0,0.9543
872.0,0.9509
873.0,0.9491
874.0,0.9379
875.0,0.919
876.0,0.9286
877.0,0.938
878.0,0.9484
879.0,0.9339
880.0,0.9139
881.0,0.9006
882.0,0.9203
883.0,0.9229
884.0,0.9189
885.0,0.9259
886.0,0.8838
887.0,0.8922
888.0,0.9061
889.0,0.9153
890.0,0.9091
891.0,0.9069
892.0,0.8825
893.0,0.8571
894.0,0.8311
895.0,0.7907
896.0,0.7473
897.0,0.6492
898.0,0.7043
899.0,0.5446
900.0,0.7168
901.0,0.5704
902.0,0.6579
903.0,0.6681
904.0,0.8254
905.0,0.7994
906.0,0.75
907.0,0.6201
908.0,0.6309
909.0,0.6784
910.0,0.609
911.0,0.6437
912.0,0.6709
913.0,0.6186
914.0,0.6118
915.0,0.6623
916.0,0.5635
917.0,0.7051
918.0,0.578
919.0,0.7156
920.0,0.7184
921.0,0.7461
922.0,0.6735
923.0,0.7205
924.0,0.6908
925.0,0.6759
926.0,0.6834
927.0,0.7589
928.0,0.5743
929.0,0.5289
930.0,0.4231
931.0,0.3997
932.0,0.2953
933.0,0.2441
934.0,0.1423
935.0,0.2465
936.0,0.1592
937.0,0.1621
938.0,0.1972
939.0,0.3875
940.0,0.461
941.0,0.3549
942.0,0.4065
943.0,0.2729
944.0,0.2826
945.0,0.3648
946.0,0.193
947.0,0.3683
948.0,0.2718
949.0,0.4857
950.0,0.1464
951.0,0.477
952.0,0.266
953.0,0.3372
954.0,0.4065
955.0,0.3403
956.0,0.327
957.0,0.2674
958.0,0.4535
959.0,0.3678
960.0,0.412
961.0,0.4567
962.0,0.4329
963.0,0.494
964.0,0.4543
965.0,0.4917
966.0,0.493
967.0,0.4914
968.0,0.6415
969.0,0.6713
970.0,0.619
971.0,0.701
972.0,0.672
973.0,0.5927
974.0,0.5638
975.0,0.5822
976.0,0.5569
977.0,0.6258
978.0,0.5979
979.0,0.6237
980.0,0.5881
981.0,0.6969
982.0,0.6691
983.0,0.644
984.0,0.7151
985.0,0.6666
986.0,0.7259
987.0,0.7137
988.0,0.7124
989.0,0.7226
990.0,0.7081
991.0,0.7251
992.0,0.7291
993.0,0.7148
994.0,0.7287
995.0,0.7276
996.0,0.7247
997.0,0.7256
998.0,0.7223
999.0,0.7196
1000.0,0.715
1001.0,0.7235
1002.0,0.7055
1003.0,0.7109
1004.0,0.694
1005.0,0.6679
1006.0,0.6944
1007.0,0.709
1008.0,0.7055
1009.0,0.7021
1010.0,0.6994
1011.0,0.7054
1012.0,0.6997
1013.0,0.7037
1014.0,0.6988
1015.0,0.6942
1016.0,0.6912
1017.0,0.693
1018.0,0.6902
1019.0,0.6762
1020.0,0.6867
1021.0,0.6857
1022.0,0.6807
1023.0,0.6879
1024.0,0.6797
1025.0,0.6873
1026.0,0.6845
1027.0,0.6829
1028.0,0.6816
1029.0,0.6736
1030.0,0.678
1031.0,0.6754
1032.0,0.6734
1033.0,0.6633
1034.0,0.6633
1035.0,0.6654
1036.0,0.669
1037.0,0.6581
1038.0,0.6611
1039.0,0.6607
1040.0,0.6581
1041.0,0.6608
1042.0,0.6562
1043.0,0.6542
1044.0,0.6566
1045.0,0.6477
1046.0,0.6406
1047.0,0.6465
1048.0,0.6501
1049.0,0.6478
1050.0,0.6449
1051.0,0.6441
1052.0,0.6416
1053.0,0.6366
1054.0,0.6381
1055.0,0.6386
1056.0,0.6365
1057.0,0.6346
1058.0,0.6191
1059.0,0.6199
1060.0,0.619
1061.0,0.6184
1062.0,0.6218
1063.0,0.6157
1064.0,0.623
1065.0,0.6188
1066.0,0.6064
1067.0,0.6143
1068.0,0.6011
1069.0,0.5824
1070.0,0.6024
1071.0,0.6111
1072.0,0.6046
1073.0,0.5958
1074.0,0.6105
1075.0,0.5819
1076.0,0.6101
1077.0,0.6004
1078.0,0.5894
1079.0,0.6001
1080.0,0.5912
1081.0,0.5732
1082.0,0.5807
1083.0,0.5821
1084.0,0.5723
1085.0,0.5924
1086.0,0.5437
1087.0,0.5589
1088.0,0.5819
1089.0,0.5659
1090.0,0.5548
1091.0,0.5806
1092.0,0.5787
1093.0,0.4964
1094.0,0.5302
1095.0,0.5164
1096.0,0.4962
1097.0,0.5653
1098.0,0.489
1099.0,0.5092
1100.0,0.476
1101.0,0.4812
1102.0,0.4611
1103.0,0.4578
1104.0,0.4583
1105.0,0.4982
1106.0,0.3909
1107.0,0.4751
1108.0,0.4087
1109.0,0.4082
1110.0,0.4717
1111.0,0.328
1112.0,0.4047
1113.0,0.2659
1114.0,0.2962
1115.0,0.2459
1116.0,0.2013
1117.0,0.07955
1118.0,0.2172
1119.0,0.1122
1120.0,0.1414
1121.0,0.1849
1122.0,0.08165
1123.0,0.1276
1124.0,0.1078
1125.0,0.1396
1126.0,0.05239
1127.0,0.1571
1128.0,0.09808
1129.0,0.1034
1130.0,0.06982
1131.0,0.2882
1132.0,0.2279
1133.0,0.1496
1134.0,0.04141
1135.0,0.01536
1136.0,0.1267
1137.0,0.2846
1138.0,0.2017
1139.0,0.291
1140.0,0.2469
1141.0,0.1916
1142.0,0.2184
1143.0,0.3061
1144.0,0.1119
1145.0,0.1442
1146.0,0.1556
1147.0,0.05871
1148.0,0.2651
1149.0,0.2147
1150.0,0.12
1151.0,0.2002
1152.0,0.2429
1153.0,0.2341
1154.0,0.1405
1155.0,0.3038
1156.0,0.2755
1157.0,0.3062
1158.0,0.3028
1159.0,0.324
1160.0,0.28
1161.0,0.3391
1162.0,0.3412
1163.0,0.4506
1164.0,0.3903
1165.0,0.3718
1166.0,0.3667
1167.0,0.3975
1168.0,0.4026
1169.0,0.4108
1170.0,0.4434
1171.0,0.4329
1172.0,0.4389
1173.0,0.4425
1174.0,0.3246
1175.0,0.4309
1176.0,0.4695
1177.0,0.4535
1178.0,0.3472
1179.0,0.4731
1180.0,0.4271
1181.0,0.4403
1182.0,0.3111
1183.0,0.4325
1184.0,0.4077
1185.0,0.3956
1186.0,0.4618
1187.0,0.4421
1188.0,0.317
1189.0,0.4124
1190.0,0.4513
1191.0,0.4324
1192.0,0.4572
1193.0,0.4395
1194.0,0.452
1195.0,0.4303
1196.0,0.4161
1197.0,0.4508
1198.0,0.4145
1199.0,0.3588
1200.0,0.4342
1201.0,0.4209
1202.0,0.4172
1203.0,0.4139
1204.0,0.3654
1205.0,0.4251
1206.0,0.4661
1207.0,0.4168
1208.0,0.4084
1209.0,0.4163
1210.0,0.4323
1211.0,0.4141
1212.0,0.4119
1213.0,0.4522
1214.0,0.4204
1215.0,0.4131
1216.0,0.4506
1217.0,0.4399
1218.0,0.4471
1219.0,0.4422
1220.0,0.4474
1221.0,0.4512
1222.0,0.4402
1223.0,0.4366
1224.0,0.4348
1225.0,0.4484
1226.0,0.4506
1227.0,0.4189
1228.0,0.4522
1229.0,0.4507
1230.0,0.4436
1231.0,0.4542
1232.0,0.4516
1233.0,0.4386
1234.0,0.4533
1235.0,0.4508
1236.0,0.4538
1237.0,0.4485
1238.0,0.4522
1239.0,0.4465
1240.0,0.448
1241.0,0.4466
1242.0,0.445
1243.0,0.4414
1244.0,0.4447
1245.0,0.4465
1246.0,0.4439
1247.0,0.4424
1248.0,0.4424
1249.0,0.4435
1250.0,0.441
1251.0,0.4357
1252.0,0.4353
1253.0,0.4327
1254.0,0.4291
1255.0,0.4351
1256.0,0.4245
1257.0,0.4226
1258.0,0.4292
1259.0,0.4162
1260.0,0.418
1261.0,0.3978
1262.0,0.3875
1263.0,0.3883
1264.0,0.3624
1265.0,0.3858
1266.0,0.3736
1267.0,0.3785
1268.0,0.3615
1269.0,0.2417
1270.0,0.3778
1271.0,0.3961
1272.0,0.397
1273.0,0.3932
1274.0,0.394
1275.0,0.3991
1276.0,0.4023
1277.0,0.4043
1278.0,0.4107
1279.0,0.4071
1280.0,0.4019
1281.0,0.3829
1282.0,0.368
1283.0,0.3965
1284.0,0.4062
1285.0,0.4087
1286.0,0.4137
1287.0,0.4083
1288.0,0.408
1289.0,0.397
1290.0,0.4042
1291.0,0.4095
1292.0,0.3885
1293.0,0.4025
1294.0,0.3999
1295.0,0.3989
1296.0,0.3832
1297.0,0.3644
1298.0,0.3884
1299.0,0.4027
1300.0,0.3474
1301.0,0.3567
1302.0,0.3871
1303.0,0.3421
1304.0,0.298
1305.0,0.3796
1306.0,0.38
1307.0,0.3022
1308.0,0.3417
1309.0,0.3777
1310.0,0.2968
1311.0,0.329
1312.0,0.3211
1313.0,0.3158
1314.0,0.2849
1315.0,0.2826
1316.0,0.3248
1317.0,0.3084
1318.0,0.3327
1319.0,0.2673
1320.0,0.2574
1321.0,0.2973
1322.0,0.3014
1323.0,0.2327
1324.0,0.2621
1325.0,0.3206
1326.0,0.2789
1327.0,0.267
1328.0,0.2321
1329.0,0.1793
1330.0,0.2308
1331.0,0.1453
1332.0,0.148
1333.0,0.2045
1334.0,0.1706
1335.0,0.2318
1336.0,0.1863
1337.0,0.1665
1338.0,0.18
1339.0,0.1784
1340.0,0.172
1341.0,0.1714
1342.0,0.1798
1343.0,0.129
1344.0,0.07699
1345.0,0.1104
1346.0,0.05968
1347.0,0.0615
1348.0,0.00495
1349.0,0.01669
1350.0,0.01657
1351.0,0.004883
1352.0,0.001613
1353.0,0.000104
1354.0,0.0003097
1355.0,3.997e-06
1356.0,5.181e-05
1357.0,7.836e-05
1358.0,4.646e-06
1359.0,8.283e-07
1360.0,2.406e-06
1361.0,5.678e-09
1362.0,2.171e-11
1363.0,3.566e-06
1364.0,1.526e-06
1365.0,1.133e-11
1366.0,1.42e-05
1367.0,5.545e-06
1368.0,1.933e-13
1369.0,5.842e-07
1370.0,3.333e-07
1371.0,2.287e-08
1372.0,3.058e-06
1373.0,4.846e-05
1374.0,0.0001915
1375.0,0.0003477
1376.0,0.0002765
1377.0,0.0001316
1378.0,0.001188
1379.0,5.583e-05
1380.0,8.84e-05
1381.0,2.577e-06
1382.0,2.872e-06
1383.0,4.992e-08
1384.0,6.99e-07
1385.0,2.316e-06
1386.0,2.827e-06
1387.0,0.0002171
1388.0,4.41e-06
1389.0,0.0006202
1390.0,0.0005334
1391.0,0.0003702
1392.0,2.571e-05
1393.0,0.0001245
1394.0,8.287e-05
1395.0,7.48e-07
1396.0,7.416e-09
1397.0,5.303e-05
1398.0,0.001354
1399.0,0.0008579
1400.0,3.882e-09
1401.0,1.243e-08
1402.0,0.001932
1403.0,0.002523
1404.0,0.0007829
1405.0,4.131e-07
1406.0,0.002171
1407.0,0.0001855
1408.0,0.001758
1409.0,0.000665
1410.0,0.0004975
1411.0,0.002204
1412.0,0.002811
1413.0,0.02437
1414.0,0.0003873
1415.0,0.0001971
1416.0,0.03664
1417.0,0.01222
1418.0,0.01402
1419.0,0.002232
1420.0,0.008625
1421.0,0.009379
1422.0,0.04751
1423.0,0.009513
1424.0,0.01756
1425.0,0.02623
1426.0,0.02875
1427.0,0.05052
1428.0,0.004726
1429.0,0.03882
1430.0,0.0636
1431.0,0.06923
1432.0,0.003751
1433.0,0.04492
1434.0,0.02329
1435.0,0.02478
1436.0,0.04546
1437.0,0.03483
1438.0,0.01537
1439.0,0.06078
1440.0,0.04564
1441.0,0.0359
1442.0,0.03961
1443.0,0.04805
1444.0,0.06581
1445.0,0.05285
1446.0,0.02419
1447.0,0.03804
1448.0,0.1192
1449.0,0.1048
1450.0,0.02816
1451.0,0.01163
1452.0,0.06434
1453.0,0.08375
1454.0,0.1394
1455.0,0.06735
1456.0,0.09119
1457.0,0.1198
1458.0,0.1387
1459.0,0.1644
1460.0,0.08694
1461.0,0.09188
1462.0,0.1326
1463.0,0.04425
1464.0,0.1552
1465.0,0.09391
1466.0,0.06744
1467.0,0.03666
