interpolation:linear
wavelength,value
280.0,1.1000000000000001e-20
280.5,2.265e-19
281.0,1.043e-18
281.5,2.114e-17
282.0,1.296e-16
282.5,4.166e-16
283.0,1.513e-15
283.5,2.59e-15
284.0,4.183e-14
284.5,1.166e-13
285.0,2.168e-13
285.5,1.269e-12
286.0,5.33e-12
286.5,2.436e-11
287.0,6.93e-11
287.5,2.547e-10
288.0,8.683e-10
288.5,2.972e-09
289.0,8.538e-09
289.5,2.679e-08
290.0,7.56e-08
290.5,1.554e-07
291.0,3.313e-07
291.5,9.218e-07
292.0,2.038e-06
292.5,2.84e-06
293.0,5.965e-06
293.5,1.389e-05
294.0,2.129e-05
294.5,3.505e-05
295.0,5.667e-05
295.5,0.0001234
296.0,0.0002065
296.5,0.0002511
297.0,0.0003035
297.5,0.0006872
298.0,0.0009403
298.5,0.0008493
299.0,0.001687
299.5,0.002332
300.0,0.002328
300.5,0.00305
301.0,0.004698
301.5,0.006502
302.0,0.0052
302.5,0.009407
303.0,0.0153
303.5,0.01815
304.0,0.01641
304.5,0.02201
305.0,0.02875
305.5,0.03007
306.0,0.0282
306.5,0.03323
307.0,0.04349
307.5,0.05141
308.0,0.05348
308.5,0.05982
309.0,0.05253
309.5,0.05634
310.0,0.05501
310.5,0.08802
311.0,0.1079
311.5,0.1033
312.0,0.09735
312.5,0.114
313.0,0.1214
313.5,0.1209
314.0,0.144
314.5,0.1195
315.0,0.1558
315.5,0.1354
316.0,0.1121
316.5,0.1536
317.0,0.1917
317.5,0.2031
318.0,0.1536
318.5,0.1792
319.0,0.2063
319.5,0.1781
320.0,0.2177
320.5,0.2556
321.0,0.2149
321.5,0.2054
322.0,0.2346
322.5,0.2041
323.0,0.1954
323.5,0.224
324.0,0.2603
324.5,0.2707
325.0,0.2473
325.5,0.3083
326.0,0.3618
326.5,0.3541
327.0,0.3575
327.5,0.3507
328.0,0.3246
328.5,0.328
329.0,0.3812
329.5,0.4299
330.0,0.4385
330.5,0.361
331.0,0.3722
331.5,0.3723
332.0,0.3926
332.5,0.3849
333.0,0.3877
333.5,0.3591
334.0,0.3701
334.5,0.4188
335.0,0.3897
335.5,0.4424
336.0,0.3069
336.5,0.3743
337.0,0.3108
337.5,0.3889
338.0,0.374
338.5,0.4221
339.0,0.4211
339.5,0.4046
340.0,0.4881
340.5,0.4404
341.0,0.4223
341.5,0.392
342.0,0.4705
342.5,0.442
343.0,0.4854
343.5,0.4569
344.0,0.3436
344.5,0.3401
345.0,0.4557
345.5,0.4678
346.0,0.3993
346.5,0.4536
347.0,0.4867
347.5,0.3939
348.0,0.4519
348.5,0.4536
349.0,0.422
349.5,0.4185
350.0,0.5188
350.5,0.5485
351.0,0.4905
351.5,0.4756
352.0,0.5134
352.5,0.4023
353.0,0.5082
353.5,0.545
354.0,0.5673
354.5,0.5768
355.0,0.5759
355.5,0.5213
356.0,0.5467
356.5,0.4679
357.0,0.3875
357.5,0.4756
358.0,0.3778
358.5,0.3236
359.0,0.4535
359.5,0.5789
360.0,0.6151
360.5,0.4928
361.0,0.4501
361.5,0.519
362.0,0.4493
362.5,0.6227
363.0,0.5601
363.5,0.5166
364.0,0.6328
364.5,0.5419
365.0,0.5529
365.5,0.6952
366.0,0.7377
366.5,0.6941
367.0,0.6772
367.5,0.7041
368.0,0.6172
368.5,0.6237
369.0,0.6747
369.5,0.7204
370.0,0.7692
370.5,0.5979
371.0,0.6399
371.5,0.802
372.0,0.5333
372.5,0.6404
373.0,0.6524
373.5,0.4251
374.0,0.6186
374.5,0.5131
375.0,0.4996
375.5,0.7472
376.0,0.6205
376.5,0.6441
377.0,0.6829
377.5,0.8001
378.0,0.8688
378.5,0.8228
379.0,0.6803
379.5,0.6227
380.0,0.6485
380.5,0.7866
381.0,0.7893
381.5,0.6264
382.0,0.557
382.5,0.4754
383.0,0.4407
383.5,0.4251
384.0,0.4695
384.5,0.6915
385.0,0.6867
385.5,0.6403
386.0,0.5491
386.5,0.7222
387.0,0.6011
387.5,0.6761
388.0,0.6251
388.5,0.6187
389.0,0.6688
389.5,0.8111
390.0,0.8151
390.5,0.7511
391.0,0.8853
391.5,0.9043
392.0,0.7627
392.5,0.6836
393.0,0.3808
393.5,0.2771
394.0,0.5646
394.5,0.7186
395.0,0.878
395.5,0.8932
396.0,0.7753
396.5,0.4537
397.0,0.3409
397.5,0.6941
398.0,0.9735
398.5,1.007
399.0,1.092
399.5,1.089
400.0,1.133
401.0,1.166
402.0,1.232
403.0,1.173
404.0,1.157
405.0,1.159
406.0,1.142
407.0,1.126
408.0,1.173
409.0,1.257
410.0,1.1
411.0,1.194
412.0,1.284
413.0,1.255
414.0,1.272
415.0,1.277
416.0,1.301
417.0,1.272
418.0,1.251
419.0,1.269
420.0,1.266
421.0,1.326
422.0,1.263
423.0,1.236
424.0,1.309
425.0,1.309
426.0,1.276
427.0,1.254
428.0,1.223
429.0,1.16
430.0,1.016
431.0,1.009
432.0,1.305
433.0,1.314
434.0,1.222
435.0,1.278
436.0,1.441
437.0,1.423
438.0,1.297
439.0,1.344
440.0,1.388
441.0,1.44
442.0,1.546
443.0,1.509
444.0,1.543
445.0,1.512
446.0,1.444
447.0,1.562
448.0,1.59
449.0,1.596
450.0,1.642
451.0,1.705
452.0,1.645
453.0,1.548
454.0,1.617
455.0,1.629
456.0,1.67
457.0,1.7
458.0,1.645
459.0,1.638
460.0,1.644
461.0,1.684
462.0,1.698
463.0,1.688
464.0,1.66
465.0,1.64
466.0,1.657
467.0,1.629
468.0,1.65
469.0,1.661
470.0,1.61
471.0,1.609
472.0,1.697
473.0,1.677
474.0,1.683
475.0,1.7
476.0,1.653
477.0,1.661
478.0,1.708
479.0,1.698
480.0,1.702
481.0,1.734
482.0,1.743
483.0,1.722
484.0,1.687
485.0,1.608
486.0,1.406
487.0,1.474
488.0,1.619
489.0,1.626
490.0,1.711
491.0,1.682
492.0,1.59
493.0,1.643
494.0,1.661
495.0,1.676
496.0,1.688
497.0,1.716
498.0,1.637
499.0,1.66
500.0,1.613
501.0,1.586
502.0,1.567
503.0,1.635
504.0,1.601
505.0,1.654
506.0,1.709
507.0,1.627
508.0,1.576
509.0,1.62
510.0,1.611
511.0,1.654
512.0,1.672
513.0,1.584
514.0,1.574
515.0,1.559
516.0,1.556
517.0,1.383
518.0,1.456
519.0,1.528
520.0,1.585
521.0,1.601
522.0,1.604
523.0,1.576
524.0,1.635
525.0,1.657
526.0,1.584
527.0,1.495
528.0,1.583
529.0,1.67
530.0,1.648
531.0,1.674
532.0,1.617
533.0,1.571
534.0,1.618
535.0,1.653
536.0,1.669
537.0,1.603
538.0,1.632
539.0,1.619
540.0,1.553
541.0,1.566
542.0,1.617
543.0,1.6
544.0,1.63
545.0,1.625
546.0,1.634
547.0,1.633
548.0,1.614
549.0,1.619
550.0,1.639
551.0,1.62
552.0,1.632
553.0,1.604
554.0,1.643
555.0,1.647
556.0,1.627
557.0,1.578
558.0,1.568
559.0,1.54
560.0,1.561
561.0,1.583
562.0,1.573
563.0,1.618
564.0,1.576
565.0,1.564
566.0,1.542
567.0,1.573
568.0,1.563
569.0,1.533
570.0,1.533
571.0,1.522
572.0,1.564
573.0,1.582
574.0,1.578
575.0,1.551
576.0,1.537
577.0,1.554
578.0,1.53
579.0,1.533
580.0,1.559
581.0,1.564
582.0,1.591
583.0,1.593
584.0,1.606
585.0,1.566
586.0,1.535
587.0,1.571
588.0,1.541
589.0,1.382
590.0,1.445
591.0,1.52
592.0,1.506
593.0,1.522
594.0,1.515
595.0,1.484
596.0,1.53
597.0,1.517
598.0,1.51
599.0,1.51
600.0,1.509
601.0,1.495
602.0,1.485
603.0,1.509
604.0,1.533
605.0,1.525
606.0,1.518
607.0,1.532
608.0,1.515
609.0,1.517
610.0,1.505
611.0,1.513
612.0,1.508
613.0,1.489
614.0,1.468
615.0,1.499
616.0,1.45
617.0,1.446
618.0,1.502
619.0,1.487
620.0,1.497
621.0,1.5
622.0,1.484
623.0,1.463
624.0,1.437
625.0,1.434
626.0,1.456
627.0,1.475
628.0,1.412
629.0,1.453
630.0,1.421
631.0,1.442
632.0,1.423
633.0,1.462
634.0,1.444
635.0,1.466
636.0,1.445
637.0,1.467
638.0,1.479
639.0,1.462
640.0,1.446
641.0,1.445
642.0,1.437
643.0,1.457
644.0,1.451
645.0,1.454
646.0,1.425
647.0,1.417
648.0,1.42
649.0,1.394
650.0,1.389
651.0,1.447
652.0,1.401
653.0,1.428
654.0,1.412
655.0,1.366
656.0,1.206
657.0,1.238
658.0,1.385
659.0,1.393
660.0,1.398
661.0,1.408
662.0,1.414
663.0,1.385
664.0,1.399
665.0,1.398
666.0,1.398
667.0,1.396
668.0,1.395
669.0,1.416
670.0,1.41
671.0,1.409
672.0,1.397
673.0,1.418
674.0,1.412
675.0,1.399
676.0,1.409
677.0,1.395
678.0,1.398
679.0,1.376
680.0,1.387
681.0,1.378
682.0,1.376
683.0,1.374
684.0,1.367
685.0,1.379
686.0,1.371
687.0,1.06
688.0,1.169
689.0,1.171
690.0,1.204
691.0,1.241
692.0,1.265
693.0,1.258
694.0,1.249
695.0,1.283
696.0,1.285
697.0,1.34
698.0,1.32
699.0,1.304
700.0,1.289
701.0,1.28
702.0,1.284
703.0,1.286
704.0,1.319
705.0,1.321
706.0,1.316
707.0,1.316
708.0,1.32
709.0,1.317
710.0,1.319
711.0,1.316
712.0,1.31
713.0,1.299
714.0,1.303
715.0,1.268
716.0,1.27
717.0,1.157
718.0,1.075
719.0,0.992
720.0,1.042
721.0,1.115
722.0,1.236
723.0,1.172
724.0,1.079
725.0,1.07
726.0,1.114
727.0,1.119
728.0,1.07
729.0,1.09
730.0,1.151
731.0,1.109
732.0,1.165
733.0,1.212
734.0,1.236
735.0,1.213
736.0,1.211
737.0,1.217
738.0,1.223
739.0,1.2
740.0,1.227
741.0,1.212
742.0,1.211
743.0,1.242
744.0,1.237
745.0,1.236
746.0,1.242
747.0,1.245
748.0,1.242
749.0,1.228
750.0,1.227
751.0,1.215
752.0,1.22
753.0,1.226
754.0,1.229
755.0,1.222
756.0,1.222
757.0,1.224
758.0,1.209
759.0,1.192
760.0,0.3757
761.0,0.2473
762.0,0.7687
763.0,0.494
764.0,0.642
765.0,0.7696
766.0,0.8658
767.0,1.018
768.0,1.118
769.0,1.13
770.0,1.154
771.0,1.158
772.0,1.159
773.0,1.166
774.0,1.16
775.0,1.151
776.0,1.165
777.0,1.15
778.0,1.143
779.0,1.144
780.0,1.138
781.0,1.139
782.0,1.146
783.0,1.126
784.0,1.132
785.0,1.124
786.0,1.137
787.0,1.123
788.0,1.111
789.0,1.112
790.0,1.091
791.0,1.093
792.0,1.084
793.0,1.067
794.0,1.076
795.0,1.097
796.0,1.075
797.0,1.077
798.0,1.097
799.0,1.092
800.0,1.076
801.0,1.076
802.0,1.072
803.0,1.066
804.0,1.066
805.0,1.059
806.0,1.084
807.0,1.072
808.0,1.073
809.0,1.057
810.0,1.051
811.0,1.058
812.0,1.036
813.0,1.02
814.0,0.9264
815.0,0.9201
816.0,0.8615
817.0,0.8732
818.0,0.8471
819.0,0.9212
820.0,0.878
821.0,0.9917
822.0,0.9693
823.0,0.7164
824.0,0.9525
825.0,0.9769
826.0,0.9502
827.0,0.9916
828.0,0.8719
829.0,0.9425
830.0,0.9337
831.0,0.9357
832.0,0.9129
833.0,0.9544
834.0,0.9311
835.0,1.001
836.0,0.9717
837.0,1.003
838.0,0.9776
839.0,0.9869
840.0,1.007
841.0,0.9954
842.0,0.9937
843.0,0.9893
844.0,0.9778
845.0,1.008
846.0,1.003
847.0,0.9831
848.0,0.9788
849.0,0.9511
850.0,0.9111
851.0,0.9665
852.0,0.959
853.0,0.9217
854.0,0.7971
855.0,0.874
856.0,0.956
857.0,0.9762
858.0,0.9695
859.0,0.9697
860.0,0.971
861.0,0.9659
862.0,0.9809
863.0,1.004
864.0,0.9539
865.0,0.9454
866.0,0.8501
867.0,0.8872
868.0,0.9654
869.0,0.9454
870.0,0.9724
871.0,0.9592
872.0,0.9558
873.0,0.9539
874.0,0.9426
875.0,0.9236
876.0,0.9334
877.0,0.9428
878.0,0.9534
879.0,0.9387
880.0,0.9186
881.0,0.9057
882.0,0.9256
883.0,0.9278
884.0,0.9239
885.0,0.9309
886.0,0.8903
887.0,0.8975
888.0,0.9124
889.0,0.92
890.0,0.9156
891.0,0.9124
892.0,0.8901
893.0,0.8678
894.0,0.847
895.0,0.8131
896.0,0.7729
897.0,0.6825
898.0,0.7336
899.0,0.5817
900.0,0.7404
901.0,0.608
902.0,0.6834
903.0,0.6995
904.0,0.8411
905.0,0.8182
906.0,0.7707
907.0,0.6532
908.0,0.6628
909.0,0.7043
910.0,0.6465
911.0,0.6754
912.0,0.7
913.0,0.6572
914.0,0.6477
915.0,0.6984
916.0,0.6002
917.0,0.7338
918.0,0.6157
919.0,0.7417
920.0,0.7385
921.0,0.7642
922.0,0.7001
923.0,0.7376
924.0,0.7179
925.0,0.7033
926.0,0.7104
927.0,0.7792
928.0,0.6181
929.0,0.5769
930.0,0.4748
931.0,0.4459
932.0,0.3425
933.0,0.2911
934.0,0.1866
935.0,0.2874
936.0,0.1961
937.0,0.2016
938.0,0.2409
939.0,0.4322
940.0,0.5052
941.0,0.4017
942.0,0.4513
943.0,0.3134
944.0,0.3162
945.0,0.4109
946.0,0.2317
947.0,0.4182
948.0,0.3118
949.0,0.5369
950.0,0.1864
951.0,0.525
952.0,0.3126
953.0,0.3838
954.0,0.4489
955.0,0.3857
956.0,0.3666
957.0,0.3163
958.0,0.4871
959.0,0.4095
960.0,0.4578
961.0,0.497
962.0,0.4729
963.0,0.5301
964.0,0.4911
965.0,0.5261
966.0,0.5301
967.0,0.5291
968.0,0.6601
969.0,0.692
970.0,0.6431
971.0,0.7148
972.0,0.6879
973.0,0.6203
974.0,0.5925
975.0,0.6062
976.0,0.5867
977.0,0.6459
978.0,0.6227
979.0,0.6449
980.0,0.6114
981.0,0.7098
982.0,0.6862
983.0,0.6636
984.0,0.7232
985.0,0.6834
986.0,0.731
987.0,0.7218
988.0,0.7206
989.0,0.7259
990.0,0.7157
991.0,0.7287
992.0,0.7324
993.0,0.7212
994.0,0.7317
995.0,0.7301
996.0,0.7277
997.0,0.7284
998.0,0.7253
999.0,0.7224
1000.0,0.7186
1001.0,0.7262
1002.0,0.7112
1003.0,0.7137
1004.0,0.6976
1005.0,0.6702
1006.0,0.6974
1007.0,0.7117
1008.0,0.7088
1009.0,0.706
1010.0,0.7036
1011.0,0.708
1012.0,0.7029
1013.0,0.7061
1014.0,0.7011
1015.0,0.6967
1016.0,0.6937
1017.0,0.6956
1018.0,0.6925
1019.0,0.6796
1020.0,0.6891
1021.0,0.6879
1022.0,0.6833
1023.0,0.6907
1024.0,0.6837
1025.0,0.6895
1026.0,0.6871
1027.0,0.6854
1028.0,0.6842
1029.0,0.6763
1030.0,0.6803
1031.0,0.6778
1032.0,0.6757
1033.0,0.6655
1034.0,0.6655
1035.0,0.6676
1036.0,0.6713
1037.0,0.6603
1038.0,0.6634
1039.0,0.6631
1040.0,0.6605
1041.0,0.6633
1042.0,0.6587
1043.0,0.6567
1044.0,0.6592
1045.0,0.6504
1046.0,0.6433
1047.0,0.6493
1048.0,0.653
1049.0,0.6508
1050.0,0.648
1051.0,0.6473
1052.0,0.6448
1053.0,0.64
1054.0,0.6416
1055.0,0.6423
1056.0,0.6403
1057.0,0.6386
1058.0,0.6232
1059.0,0.6242
1060.0,0.6234
1061.0,0.6228
1062.0,0.6264
1063.0,0.6205
1064.0,0.6277
1065.0,0.6239
1066.0,0.6111
1067.0,0.6192
1068.0,0.6062
1069.0,0.5871
1070.0,0.6076
1071.0,0.6153
1072.0,0.6096
1073.0,0.6005
1074.0,0.6141
1075.0,0.5887
1076.0,0.6139
1077.0,0.606
1078.0,0.5957
1079.0,0.6033
1080.0,0.5969
1081.0,0.5801
1082.0,0.585
1083.0,0.5857
1084.0,0.5804
1085.0,0.5977
1086.0,0.5545
1087.0,0.5654
1088.0,0.5861
1089.0,0.5732
1090.0,0.5645
1091.0,0.5857
1092.0,0.583
1093.0,0.5106
1094.0,0.5354
1095.0,0.5292
1096.0,0.5117
1097.0,0.5693
1098.0,0.5053
1099.0,0.5244
1100.0,0.4953
1101.0,0.4992
1102.0,0.4811
1103.0,0.4798
1104.0,0.48
1105.0,0.5141
1106.0,0.4218
1107.0,0.4939
1108.0,0.436
1109.0,0.4335
1110.0,0.4915
1111.0,0.3574
1112.0,0.4289
1113.0,0.2987
1114.0,0.3302
1115.0,0.2746
1116.0,0.2357
1117.0,0.1064
1118.0,0.2496
1119.0,0.139
1120.0,0.1747
1121.0,0.2219
1122.0,0.1068
1123.0,0.1575
1124.0,0.1332
1125.0,0.1701
1126.0,0.07285
1127.0,0.1907
1128.0,0.1285
1129.0,0.1338
1130.0,0.09548
1131.0,0.3284
1132.0,0.264
1133.0,0.1846
1134.0,0.05944
1135.0,0.02186
1136.0,0.1603
1137.0,0.3269
1138.0,0.235
1139.0,0.3191
1140.0,0.2787
1141.0,0.2233
1142.0,0.2499
1143.0,0.3419
1144.0,0.1365
1145.0,0.1774
1146.0,0.1916
1147.0,0.08203
1148.0,0.2962
1149.0,0.2466
1150.0,0.1466
1151.0,0.2335
1152.0,0.2757
1153.0,0.2602
1154.0,0.1758
1155.0,0.3334
1156.0,0.3061
1157.0,0.3354
1158.0,0.3312
1159.0,0.3491
1160.0,0.3088
1161.0,0.3624
1162.0,0.3654
1163.0,0.4644
1164.0,0.4092
1165.0,0.3956
1166.0,0.3867
1167.0,0.4155
1168.0,0.422
1169.0,0.4281
1170.0,0.4571
1171.0,0.4473
1172.0,0.4508
1173.0,0.4561
1174.0,0.3494
1175.0,0.4425
1176.0,0.4757
1177.0,0.4634
1178.0,0.3661
1179.0,0.479
1180.0,0.4397
1181.0,0.4522
1182.0,0.3316
1183.0,0.4426
1184.0,0.4212
1185.0,0.4118
1186.0,0.47
1187.0,0.4532
1188.0,0.3385
1189.0,0.4237
1190.0,0.4594
1191.0,0.4453
1192.0,0.4647
1193.0,0.4488
1194.0,0.4602
1195.0,0.4417
1196.0,0.4297
1197.0,0.4567
1198.0,0.4234
1199.0,0.3753
1200.0,0.4437
1201.0,0.433
1202.0,0.4278
1203.0,0.4241
1204.0,0.3799
1205.0,0.4333
1206.0,0.4699
1207.0,0.428
1208.0,0.4169
1209.0,0.4243
1210.0,0.4386
1211.0,0.4236
1212.0,0.4244
1213.0,0.4576
1214.0,0.4315
1215.0,0.4249
1216.0,0.4559
1217.0,0.4468
1218.0,0.4525
1219.0,0.4482
1220.0,0.4526
1221.0,0.4555
1222.0,0.4455
1223.0,0.4425
1224.0,0.4417
1225.0,0.4527
1226.0,0.454
1227.0,0.4262
1228.0,0.4548
1229.0,0.4539
1230.0,0.4476
1231.0,0.4558
1232.0,0.4533
1233.0,0.4434
1234.0,0.4542
1235.0,0.4522
1236.0,0.4548
1237.0,0.4507
1238.0,0.4533
1239.0,0.4475
1240.0,0.449
1241.0,0.4482
1242.0,0.446
1243.0,0.4423
1244.0,0.4459
1245.0,0.4476
1246.0,0.4449
1247.0,0.4436
1248.0,0.444
1249.0,0.4447
1250.0,0.4424
1251.0,0.4376
1252.0,0.4366
1253.0,0.4351
1254.0,0.4322
1255.0,0.4367
1256.0,0.4281
1257.0,0.4265
1258.0,0.4316
1259.0,0.4216
1260.0,0.4231
1261.0,0.4065
1262.0,0.3982
1263.0,0.3992
1264.0,0.3775
1265.0,0.3964
1266.0,0.3868
1267.0,0.3899
1268.0,0.3757
1269.0,0.2754
1270.0,0.3899
1271.0,0.4043
1272.0,0.4048
1273.0,0.4013
1274.0,0.4016
1275.0,0.406
1276.0,0.4085
1277.0,0.4097
1278.0,0.4145
1279.0,0.4111
1280.0,0.4057
1281.0,0.3858
1282.0,0.3695
1283.0,0.3985
1284.0,0.4085
1285.0,0.4108
1286.0,0.4151
1287.0,0.411
1288.0,0.4103
1289.0,0.4017
1290.0,0.4064
1291.0,0.4112
1292.0,0.3948
1293.0,0.4054
1294.0,0.403
1295.0,0.403
1296.0,0.3903
1297.0,0.3738
1298.0,0.3935
1299.0,0.4051
1300.0,0.3585
1301.0,0.3662
1302.0,0.3919
1303.0,0.3521
1304.0,0.3152
1305.0,0.3851
1306.0,0.3859
1307.0,0.317
1308.0,0.3504
1309.0,0.384
1310.0,0.3116
1311.0,0.3393
1312.0,0.3325
1313.0,0.3283
1314.0,0.2994
1315.0,0.2987
1316.0,0.3363
1317.0,0.3203
1318.0,0.342
1319.0,0.2854
1320.0,0.2726
1321.0,0.3112
1322.0,0.3167
1323.0,0.2537
1324.0,0.2799
1325.0,0.3322
1326.0,0.2949
1327.0,0.2837
1328.0,0.2496
1329.0,0.2005
1330.0,0.254
1331.0,0.1703
1332.0,0.1699
1333.0,0.2314
1334.0,0.1902
1335.0,0.2523
1336.0,0.2077
1337.0,0.1892
1338.0,0.2036
1339.0,0.2007
1340.0,0.1912
1341.0,0.1958
1342.0,0.2051
1343.0,0.1601
1344.0,0.09602
1345.0,0.1349
1346.0,0.08271
1347.0,0.08662
1348.0,0.009788
1349.0,0.02956
1350.0,0.02722
1351.0,0.01074
1352.0,0.004614
1353.0,0.0004343
1354.0,0.001047
1355.0,2.702e-05
1356.0,0.000225
1357.0,0.0003339
1358.0,3.056e-05
1359.0,8.744e-06
1360.0,1.876e-05
1361.0,1.303e-07
1362.0,8.593e-10
1363.0,2.945e-05
1364.0,1.401e-05
1365.0,7.504e-10
1366.0,0.0001021
1367.0,3.968e-05
1368.0,3.758e-11
1369.0,5.653e-06
1370.0,3.916e-06
1371.0,3.631e-07
1372.0,2.226e-05
1373.0,0.0002431
1374.0,0.0007574
1375.0,0.00132
1376.0,0.0009268
1377.0,0.0004712
1378.0,0.0036
1379.0,0.0002056
1380.0,0.0003639
1381.0,1.309e-05
1382.0,2.201e-05
1383.0,5.029e-07
1384.0,7.217e-06
1385.0,1.455e-05
1386.0,2.448e-05
1387.0,0.0009339
1388.0,2.191e-05
1389.0,0.002135
1390.0,0.001807
1391.0,0.001357
1392.0,0.000109
1393.0,0.0004539
1394.0,0.0004175
1395.0,5.458e-06
1396.0,1.493e-07
1397.0,0.0002144
1398.0,0.004125
1399.0,0.002652
1400.0,1.007e-07
1401.0,2.258e-07
1402.0,0.004529
1403.0,0.006166
1404.0,0.001967
1405.0,3.586e-06
1406.0,0.005806
1407.0,0.0005087
1408.0,0.004672
1409.0,0.002086
1410.0,0.00148
1411.0,0.005354
1412.0,0.006304
1413.0,0.04068
1414.0,0.001138
1415.0,0.0006347
1416.0,0.05377
1417.0,0.02167
1418.0,0.02445
1419.0,0.004128
1420.0,0.01525
1421.0,0.01724
1422.0,0.06822
1423.0,0.01489
1424.0,0.02657
1425.0,0.04039
1426.0,0.04165
1427.0,0.06643
1428.0,0.009526
1429.0,0.05385
1430.0,0.0817
1431.0,0.08721
1432.0,0.007698
1433.0,0.0593
1434.0,0.03215
1435.0,0.0387
1436.0,0.06377
1437.0,0.04921
1438.0,0.02391
1439.0,0.08183
1440.0,0.06222
1441.0,0.0523
1442.0,0.05643
1443.0,0.06352
1444.0,0.08546
1445.0,0.07239
1446.0,0.03435
1447.0,0.0544
1448.0,0.1413
1449.0,0.1285
1450.0,0.0403
1451.0,0.01793
1452.0,0.08272
1453.0,0.105
1454.0,0.1611
1455.0,0.08324
1456.0,0.1149
1457.0,0.1423
1458.0,0.157
1459.0,0.1871
1460.0,0.1037
1461.0,0.1126
1462.0,0.1559
1463.0,0.05739
1464.0,0.1759
1465.0,0.1078
1466.0,0.08648
1467.0,0.05148
1468.0,0.09871
1469.0,0.1176
