interpolation:linear
wavelength,value
280.0,6.986e-25
280.5,2.658e-23
281.0,1.5309999999999998e-22
281.5,5.626e-21
282.0,4.947e-20
282.5,2.029e-19
283.0,9.635e-19
283.5,1.884e-18
284.0,5.657e-17
284.5,2.091e-16
285.0,5.28e-16
285.5,4.429e-15
286.0,2.152e-14
286.5,1.327e-13
287.0,4.707e-13
287.5,2.311e-12
288.0,1.135e-11
288.5,4.715e-11
289.0,1.654e-10
289.5,6.466e-10
290.0,2.184e-09
290.5,5.22e-09
291.0,1.334e-08
291.5,4.673e-08
292.0,1.247e-07
292.5,1.931e-07
293.0,4.644e-07
293.5,1.301e-06
294.0,2.259e-06
294.5,4.086e-06
295.0,7.438e-06
295.5,1.875e-05
296.0,3.469e-05
296.5,4.639e-05
297.0,6.045e-05
297.5,0.0001521
298.0,0.0002267
298.5,0.0002182
299.0,0.0004599
299.5,0.0006986
300.0,0.0007326
300.5,0.001008
301.0,0.001665
301.5,0.002439
302.0,0.002005
302.5,0.003808
303.0,0.006575
303.5,0.008068
304.0,0.007421
304.5,0.01035
305.0,0.01423
305.5,0.01536
306.0,0.01459
306.5,0.01753
307.0,0.02384
307.5,0.02917
308.0,0.03057
308.5,0.03478
309.0,0.03096
309.5,0.03442
310.0,0.03417
310.5,0.05517
311.0,0.06853
311.5,0.06607
312.0,0.06391
312.5,0.07611
313.0,0.08181
313.5,0.08104
314.0,0.09843
314.5,0.08362
315.0,0.1095
315.5,0.0944
316.0,0.07961
316.5,0.1108
317.0,0.1385
317.5,0.1464
318.0,0.1119
318.5,0.1329
319.0,0.1545
319.5,0.1319
320.0,0.1612
320.5,0.1925
321.0,0.1643
321.5,0.1575
322.0,0.1776
322.5,0.1549
323.0,0.1499
323.5,0.1746
324.0,0.2036
324.5,0.211
325.0,0.1911
325.5,0.2402
326.0,0.2851
326.5,0.281
327.0,0.2835
327.5,0.2778
328.0,0.2552
328.5,0.2609
329.0,0.3056
329.5,0.3457
330.0,0.3526
330.5,0.2893
331.0,0.2981
331.5,0.2997
332.0,0.3182
332.5,0.3129
333.0,0.3152
333.5,0.2913
334.0,0.3004
334.5,0.3417
335.0,0.319
335.5,0.363
336.0,0.2521
336.5,0.3072
337.0,0.2551
337.5,0.3194
338.0,0.3084
338.5,0.3489
339.0,0.3485
339.5,0.3352
340.0,0.4043
340.5,0.3653
341.0,0.3512
341.5,0.3265
342.0,0.3924
342.5,0.3691
343.0,0.4056
343.5,0.382
344.0,0.2871
344.5,0.2849
345.0,0.3825
345.5,0.3932
346.0,0.336
346.5,0.3822
347.0,0.4103
347.5,0.3324
348.0,0.3818
348.5,0.3837
349.0,0.3573
349.5,0.3548
350.0,0.4403
350.5,0.4659
351.0,0.417
351.5,0.4045
352.0,0.4373
352.5,0.343
353.0,0.4338
353.5,0.4656
354.0,0.4851
354.5,0.4935
355.0,0.4932
355.5,0.4469
356.0,0.4691
356.5,0.4018
357.0,0.333
357.5,0.409
358.0,0.3251
358.5,0.2787
359.0,0.3909
359.5,0.4993
360.0,0.5309
360.5,0.4257
361.0,0.3892
361.5,0.4492
362.0,0.3894
362.5,0.5402
363.0,0.4863
363.5,0.449
364.0,0.5505
364.5,0.4718
365.0,0.4817
365.5,0.6062
366.0,0.6438
366.5,0.6063
367.0,0.592
367.5,0.6159
368.0,0.5403
368.5,0.5464
369.0,0.5916
369.5,0.6321
370.0,0.6754
370.5,0.5254
371.0,0.5627
371.5,0.7057
372.0,0.4695
372.5,0.5643
373.0,0.5752
373.5,0.3751
374.0,0.5463
374.5,0.4534
375.0,0.4417
375.5,0.6611
376.0,0.5493
376.5,0.5705
377.0,0.6053
377.5,0.7097
378.0,0.771
378.5,0.7305
379.0,0.6044
379.5,0.5534
380.0,0.5767
380.5,0.7
381.0,0.7029
381.5,0.5583
382.0,0.4968
382.5,0.4244
383.0,0.3937
383.5,0.3799
384.0,0.4199
384.5,0.6189
385.0,0.6149
385.5,0.5737
386.0,0.4924
386.5,0.648
387.0,0.5395
387.5,0.6072
388.0,0.5617
388.5,0.5563
389.0,0.6017
389.5,0.7301
390.0,0.7341
390.5,0.6769
391.0,0.7982
391.5,0.8158
392.0,0.6884
392.5,0.6174
393.0,0.3441
393.5,0.2506
394.0,0.5107
394.5,0.6504
395.0,0.7951
395.5,0.8091
396.0,0.7028
396.5,0.4115
397.0,0.3093
397.5,0.6301
398.0,0.8841
398.5,0.9153
399.0,0.9925
399.5,0.9908
400.0,1.031
401.0,1.062
402.0,1.123
403.0,1.07
404.0,1.057
405.0,1.06
406.0,1.045
407.0,1.031
408.0,1.075
409.0,1.154
410.0,1.01
411.0,1.097
412.0,1.181
413.0,1.155
414.0,1.172
415.0,1.178
416.0,1.201
417.0,1.175
418.0,1.156
419.0,1.174
420.0,1.172
421.0,1.229
422.0,1.171
423.0,1.146
424.0,1.215
425.0,1.216
426.0,1.186
427.0,1.167
428.0,1.139
429.0,1.081
430.0,0.9476
431.0,0.9416
432.0,1.218
433.0,1.227
434.0,1.142
435.0,1.195
436.0,1.349
437.0,1.332
438.0,1.215
439.0,1.26
440.0,1.302
441.0,1.352
442.0,1.452
443.0,1.418
444.0,1.451
445.0,1.422
446.0,1.359
447.0,1.471
448.0,1.497
449.0,1.505
450.0,1.549
451.0,1.609
452.0,1.553
453.0,1.463
454.0,1.529
455.0,1.541
456.0,1.58
457.0,1.609
458.0,1.557
459.0,1.551
460.0,1.558
461.0,1.596
462.0,1.61
463.0,1.601
464.0,1.576
465.0,1.558
466.0,1.574
467.0,1.548
468.0,1.569
469.0,1.58
470.0,1.531
471.0,1.531
472.0,1.616
473.0,1.597
474.0,1.602
475.0,1.619
476.0,1.574
477.0,1.581
478.0,1.627
479.0,1.619
480.0,1.623
481.0,1.655
482.0,1.664
483.0,1.645
484.0,1.613
485.0,1.538
486.0,1.346
487.0,1.411
488.0,1.55
489.0,1.557
490.0,1.64
491.0,1.613
492.0,1.524
493.0,1.576
494.0,1.593
495.0,1.608
496.0,1.62
497.0,1.647
498.0,1.572
499.0,1.594
500.0,1.55
501.0,1.523
502.0,1.505
503.0,1.569
504.0,1.535
505.0,1.588
506.0,1.641
507.0,1.563
508.0,1.514
509.0,1.557
510.0,1.55
511.0,1.592
512.0,1.61
513.0,1.525
514.0,1.516
515.0,1.502
516.0,1.5
517.0,1.333
518.0,1.403
519.0,1.473
520.0,1.528
521.0,1.544
522.0,1.547
523.0,1.521
524.0,1.577
525.0,1.598
526.0,1.528
527.0,1.441
528.0,1.526
529.0,1.611
530.0,1.589
531.0,1.614
532.0,1.56
533.0,1.515
534.0,1.561
535.0,1.595
536.0,1.611
537.0,1.548
538.0,1.576
539.0,1.564
540.0,1.501
541.0,1.513
542.0,1.562
543.0,1.545
544.0,1.574
545.0,1.57
546.0,1.579
547.0,1.578
548.0,1.56
549.0,1.565
550.0,1.585
551.0,1.566
552.0,1.578
553.0,1.551
554.0,1.589
555.0,1.594
556.0,1.574
557.0,1.526
558.0,1.516
559.0,1.49
560.0,1.509
561.0,1.53
562.0,1.521
563.0,1.564
564.0,1.523
565.0,1.511
566.0,1.49
567.0,1.52
568.0,1.509
569.0,1.478
570.0,1.478
571.0,1.469
572.0,1.507
573.0,1.525
574.0,1.521
575.0,1.494
576.0,1.481
577.0,1.498
578.0,1.475
579.0,1.48
580.0,1.506
581.0,1.512
582.0,1.54
583.0,1.543
584.0,1.556
585.0,1.518
586.0,1.487
587.0,1.522
588.0,1.49
589.0,1.33
590.0,1.391
591.0,1.467
592.0,1.452
593.0,1.47
594.0,1.462
595.0,1.43
596.0,1.48
597.0,1.466
598.0,1.46
599.0,1.461
600.0,1.462
601.0,1.449
602.0,1.44
603.0,1.464
604.0,1.488
605.0,1.48
606.0,1.474
607.0,1.488
608.0,1.472
609.0,1.474
610.0,1.463
611.0,1.471
612.0,1.467
613.0,1.449
614.0,1.429
615.0,1.46
616.0,1.412
617.0,1.409
618.0,1.463
619.0,1.449
620.0,1.458
621.0,1.461
622.0,1.445
623.0,1.424
624.0,1.399
625.0,1.397
626.0,1.418
627.0,1.436
628.0,1.361
629.0,1.41
630.0,1.378
631.0,1.403
632.0,1.385
633.0,1.425
634.0,1.41
635.0,1.431
636.0,1.411
637.0,1.434
638.0,1.447
639.0,1.43
640.0,1.416
641.0,1.414
642.0,1.408
643.0,1.427
644.0,1.422
645.0,1.425
646.0,1.395
647.0,1.384
648.0,1.386
649.0,1.36
650.0,1.36
651.0,1.418
652.0,1.367
653.0,1.4
654.0,1.384
655.0,1.336
656.0,1.182
657.0,1.214
658.0,1.358
659.0,1.368
660.0,1.373
661.0,1.383
662.0,1.387
663.0,1.36
664.0,1.374
665.0,1.374
666.0,1.375
667.0,1.373
668.0,1.374
669.0,1.395
670.0,1.389
671.0,1.388
672.0,1.376
673.0,1.397
674.0,1.392
675.0,1.379
676.0,1.389
677.0,1.375
678.0,1.379
679.0,1.357
680.0,1.368
681.0,1.359
682.0,1.357
683.0,1.355
684.0,1.349
685.0,1.36
686.0,1.353
687.0,0.985
688.0,1.112
689.0,1.115
690.0,1.156
691.0,1.202
692.0,1.233
693.0,1.225
694.0,1.215
695.0,1.255
696.0,1.257
697.0,1.321
698.0,1.301
699.0,1.279
700.0,1.264
701.0,1.254
702.0,1.259
703.0,1.262
704.0,1.297
705.0,1.3
706.0,1.297
707.0,1.297
708.0,1.3
709.0,1.299
710.0,1.301
711.0,1.298
712.0,1.293
713.0,1.282
714.0,1.287
715.0,1.249
716.0,1.251
717.0,1.117
718.0,1.032
719.0,0.9496
720.0,0.9969
721.0,1.08
722.0,1.214
723.0,1.142
724.0,1.042
725.0,1.03
726.0,1.076
727.0,1.084
728.0,1.029
729.0,1.057
730.0,1.118
731.0,1.073
732.0,1.136
733.0,1.191
734.0,1.216
735.0,1.193
736.0,1.191
737.0,1.197
738.0,1.208
739.0,1.184
740.0,1.213
741.0,1.2
742.0,1.2
743.0,1.23
744.0,1.226
745.0,1.225
746.0,1.231
747.0,1.234
748.0,1.232
749.0,1.218
750.0,1.217
751.0,1.205
752.0,1.21
753.0,1.216
754.0,1.219
755.0,1.212
756.0,1.212
757.0,1.214
758.0,1.199
759.0,1.179
760.0,0.2873
761.0,0.1723
762.0,0.6928
763.0,0.4017
764.0,0.5542
765.0,0.6935
766.0,0.8084
767.0,0.9783
768.0,1.097
769.0,1.113
770.0,1.142
771.0,1.148
772.0,1.15
773.0,1.158
774.0,1.152
775.0,1.143
776.0,1.157
777.0,1.142
778.0,1.135
779.0,1.136
780.0,1.13
781.0,1.131
782.0,1.138
783.0,1.119
784.0,1.124
785.0,1.116
786.0,1.129
787.0,1.113
788.0,1.1
789.0,1.101
790.0,1.076
791.0,1.081
792.0,1.073
793.0,1.056
794.0,1.069
795.0,1.088
796.0,1.062
797.0,1.063
798.0,1.088
799.0,1.083
800.0,1.066
801.0,1.064
802.0,1.061
803.0,1.054
804.0,1.054
805.0,1.049
806.0,1.076
807.0,1.064
808.0,1.064
809.0,1.047
810.0,1.04
811.0,1.045
812.0,1.02
813.0,1.002
814.0,0.8972
815.0,0.8913
816.0,0.8322
817.0,0.8454
818.0,0.8175
819.0,0.8999
820.0,0.8531
821.0,0.9781
822.0,0.9534
823.0,0.6794
824.0,0.9323
825.0,0.9625
826.0,0.9318
827.0,0.9772
828.0,0.8459
829.0,0.9252
830.0,0.915
831.0,0.9177
832.0,0.8928
833.0,0.9408
834.0,0.9134
835.0,0.9912
836.0,0.9565
837.0,0.9937
838.0,0.9662
839.0,0.9781
840.0,0.9988
841.0,0.9862
842.0,0.9861
843.0,0.9834
844.0,0.9711
845.0,1.002
846.0,0.9976
847.0,0.9784
848.0,0.9734
849.0,0.9458
850.0,0.9061
851.0,0.9605
852.0,0.9534
853.0,0.9169
854.0,0.7924
855.0,0.8697
856.0,0.9509
857.0,0.9715
858.0,0.9647
859.0,0.9652
860.0,0.9667
861.0,0.9616
862.0,0.9766
863.0,0.9998
864.0,0.9498
865.0,0.9415
866.0,0.8466
867.0,0.8835
868.0,0.9615
869.0,0.9416
870.0,0.9684
871.0,0.9553
872.0,0.952
873.0,0.9501
874.0,0.9389
875.0,0.92
876.0,0.9297
877.0,0.9391
878.0,0.9495
879.0,0.9349
880.0,0.9149
881.0,0.9017
882.0,0.9215
883.0,0.924
884.0,0.92
885.0,0.927
886.0,0.8852
887.0,0.8934
888.0,0.9074
889.0,0.9163
890.0,0.9105
891.0,0.9081
892.0,0.8841
893.0,0.8594
894.0,0.8345
895.0,0.7954
896.0,0.7526
897.0,0.656
898.0,0.7104
899.0,0.5521
900.0,0.7218
901.0,0.5781
902.0,0.6632
903.0,0.6747
904.0,0.8288
905.0,0.8033
906.0,0.7544
907.0,0.6269
908.0,0.6375
909.0,0.6838
910.0,0.6167
911.0,0.6502
912.0,0.6769
913.0,0.6265
914.0,0.6191
915.0,0.6699
916.0,0.5709
917.0,0.7111
918.0,0.5857
919.0,0.7211
920.0,0.7225
921.0,0.75
922.0,0.6791
923.0,0.7241
924.0,0.6965
925.0,0.6817
926.0,0.6891
927.0,0.7633
928.0,0.5833
929.0,0.5388
930.0,0.4335
931.0,0.4091
932.0,0.3048
933.0,0.2534
934.0,0.1508
935.0,0.2547
936.0,0.1664
937.0,0.1697
938.0,0.2057
939.0,0.3966
940.0,0.47
941.0,0.3644
942.0,0.4157
943.0,0.281
944.0,0.2893
945.0,0.3741
946.0,0.2006
947.0,0.3783
948.0,0.2797
949.0,0.4963
950.0,0.154
951.0,0.4869
952.0,0.2752
953.0,0.3465
954.0,0.4152
955.0,0.3495
956.0,0.3347
957.0,0.277
958.0,0.4603
959.0,0.3762
960.0,0.4213
961.0,0.4649
962.0,0.441
963.0,0.5014
964.0,0.4617
965.0,0.4987
966.0,0.5006
967.0,0.4991
968.0,0.6453
969.0,0.6757
970.0,0.624
971.0,0.7039
972.0,0.6754
973.0,0.5985
974.0,0.5697
975.0,0.5872
976.0,0.5631
977.0,0.63
978.0,0.603
979.0,0.6282
980.0,0.5929
981.0,0.6996
982.0,0.6727
983.0,0.6481
984.0,0.7168
985.0,0.6702
986.0,0.727
987.0,0.7155
988.0,0.7142
989.0,0.7233
990.0,0.7098
991.0,0.7259
992.0,0.7298
993.0,0.7162
994.0,0.7294
995.0,0.7281
996.0,0.7253
997.0,0.7262
998.0,0.723
999.0,0.7202
1000.0,0.7158
1001.0,0.7241
1002.0,0.7067
1003.0,0.7115
1004.0,0.6948
1005.0,0.6685
1006.0,0.6951
1007.0,0.7096
1008.0,0.7062
1009.0,0.703
1010.0,0.7003
1011.0,0.706
1012.0,0.7004
1013.0,0.7042
1014.0,0.6993
1015.0,0.6948
1016.0,0.6917
1017.0,0.6936
1018.0,0.6907
1019.0,0.677
1020.0,0.6873
1021.0,0.6862
1022.0,0.6812
1023.0,0.6885
1024.0,0.6806
1025.0,0.6878
1026.0,0.6851
1027.0,0.6835
1028.0,0.6822
1029.0,0.6742
1030.0,0.6785
1031.0,0.676
1032.0,0.6739
1033.0,0.6638
1034.0,0.6638
1035.0,0.6659
1036.0,0.6695
1037.0,0.6586
1038.0,0.6616
1039.0,0.6613
1040.0,0.6586
1041.0,0.6614
1042.0,0.6568
1043.0,0.6548
1044.0,0.6571
1045.0,0.6483
1046.0,0.6412
1047.0,0.6471
1048.0,0.6507
1049.0,0.6485
1050.0,0.6456
1051.0,0.6448
1052.0,0.6423
1053.0,0.6373
1054.0,0.6388
1055.0,0.6394
1056.0,0.6373
1057.0,0.6355
1058.0,0.62
1059.0,0.6208
1060.0,0.62
1061.0,0.6194
1062.0,0.6228
1063.0,0.6168
1064.0,0.624
1065.0,0.6199
1066.0,0.6074
1067.0,0.6154
1068.0,0.6022
1069.0,0.5834
1070.0,0.6035
1071.0,0.612
1072.0,0.6057
1073.0,0.5968
1074.0,0.6113
1075.0,0.5834
1076.0,0.611
1077.0,0.6016
1078.0,0.5908
1079.0,0.6008
1080.0,0.5924
1081.0,0.5747
1082.0,0.5816
1083.0,0.5829
1084.0,0.574
1085.0,0.5935
1086.0,0.546
1087.0,0.5603
1088.0,0.5828
1089.0,0.5675
1090.0,0.5569
1091.0,0.5817
1092.0,0.5796
1093.0,0.4994
1094.0,0.5313
1095.0,0.5191
1096.0,0.4995
1097.0,0.5662
1098.0,0.4925
1099.0,0.5125
1100.0,0.48
1101.0,0.485
1102.0,0.4653
1103.0,0.4624
1104.0,0.4628
1105.0,0.5016
1106.0,0.3973
1107.0,0.4791
1108.0,0.4143
1109.0,0.4135
1110.0,0.4759
1111.0,0.334
1112.0,0.4097
1113.0,0.2725
1114.0,0.3031
1115.0,0.2517
1116.0,0.2081
1117.0,0.08461
1118.0,0.2237
1119.0,0.1174
1120.0,0.148
1121.0,0.1923
1122.0,0.08653
1123.0,0.1335
1124.0,0.1128
1125.0,0.1456
1126.0,0.05627
1127.0,0.1637
1128.0,0.1039
1129.0,0.1093
1130.0,0.07463
1131.0,0.2964
1132.0,0.2352
1133.0,0.1565
1134.0,0.04473
1135.0,0.01654
1136.0,0.1333
1137.0,0.2934
1138.0,0.2084
1139.0,0.2968
1140.0,0.2534
1141.0,0.198
1142.0,0.2248
1143.0,0.3135
1144.0,0.1167
1145.0,0.1508
1146.0,0.1627
1147.0,0.06312
1148.0,0.2715
1149.0,0.2211
1150.0,0.1251
1151.0,0.2069
1152.0,0.2496
1153.0,0.2395
1154.0,0.1474
1155.0,0.3099
1156.0,0.2818
1157.0,0.3122
1158.0,0.3087
1159.0,0.3293
1160.0,0.2858
1161.0,0.3439
1162.0,0.3462
1163.0,0.4535
1164.0,0.3942
1165.0,0.3767
1166.0,0.3708
1167.0,0.4012
1168.0,0.4067
1169.0,0.4145
1170.0,0.4464
1171.0,0.4359
1172.0,0.4414
1173.0,0.4454
1174.0,0.3297
1175.0,0.4334
1176.0,0.4708
1177.0,0.4556
1178.0,0.351
1179.0,0.4744
1180.0,0.4297
1181.0,0.4428
1182.0,0.3152
1183.0,0.4346
1184.0,0.4105
1185.0,0.3989
1186.0,0.4636
1187.0,0.4445
1188.0,0.3214
1189.0,0.4148
1190.0,0.453
1191.0,0.4351
1192.0,0.4588
1193.0,0.4415
1194.0,0.4538
1195.0,0.4327
1196.0,0.419
1197.0,0.4521
1198.0,0.4164
1199.0,0.3622
1200.0,0.4362
1201.0,0.4235
1202.0,0.4194
1203.0,0.4161
1204.0,0.3684
1205.0,0.4268
1206.0,0.4669
1207.0,0.4192
1208.0,0.4102
1209.0,0.418
1210.0,0.4336
1211.0,0.4161
1212.0,0.4145
1213.0,0.4533
1214.0,0.4228
1215.0,0.4156
1216.0,0.4517
1217.0,0.4414
1218.0,0.4483
1219.0,0.4435
1220.0,0.4485
1221.0,0.4521
1222.0,0.4413
1223.0,0.4378
1224.0,0.4363
1225.0,0.4493
1226.0,0.4513
1227.0,0.4204
1228.0,0.4528
1229.0,0.4514
1230.0,0.4445
1231.0,0.4545
1232.0,0.4519
1233.0,0.4397
1234.0,0.4535
1235.0,0.4511
1236.0,0.454
1237.0,0.449
1238.0,0.4525
1239.0,0.4467
1240.0,0.4482
1241.0,0.4469
1242.0,0.4453
1243.0,0.4416
1244.0,0.445
1245.0,0.4467
1246.0,0.4441
1247.0,0.4426
1248.0,0.4427
1249.0,0.4438
1250.0,0.4413
1251.0,0.4362
1252.0,0.4356
1253.0,0.4332
1254.0,0.4297
1255.0,0.4355
1256.0,0.4253
1257.0,0.4234
1258.0,0.4297
1259.0,0.4173
1260.0,0.4191
1261.0,0.3997
1262.0,0.3898
1263.0,0.3907
1264.0,0.3657
1265.0,0.3881
1266.0,0.3764
1267.0,0.381
1268.0,0.3646
1269.0,0.2488
1270.0,0.3804
1271.0,0.3979
1272.0,0.3987
1273.0,0.3949
1274.0,0.3956
1275.0,0.4006
1276.0,0.4037
1277.0,0.4054
1278.0,0.4115
1279.0,0.408
1280.0,0.4027
1281.0,0.3835
1282.0,0.3683
1283.0,0.3969
1284.0,0.4067
1285.0,0.4092
1286.0,0.414
1287.0,0.4089
1288.0,0.4085
1289.0,0.3981
1290.0,0.4047
1291.0,0.4099
1292.0,0.3898
1293.0,0.4031
1294.0,0.4005
1295.0,0.3998
1296.0,0.3848
1297.0,0.3664
1298.0,0.3895
1299.0,0.4032
1300.0,0.3497
1301.0,0.3587
1302.0,0.3881
1303.0,0.3442
1304.0,0.3015
1305.0,0.3808
1306.0,0.3813
1307.0,0.3053
1308.0,0.3435
1309.0,0.379
1310.0,0.2998
1311.0,0.3311
1312.0,0.3234
1313.0,0.3185
1314.0,0.2879
1315.0,0.2859
1316.0,0.3272
1317.0,0.3109
1318.0,0.3346
1319.0,0.271
1320.0,0.2605
1321.0,0.3002
1322.0,0.3046
1323.0,0.237
1324.0,0.2657
1325.0,0.323
1326.0,0.2822
1327.0,0.2704
1328.0,0.2357
1329.0,0.1836
1330.0,0.2356
1331.0,0.1503
1332.0,0.1524
1333.0,0.21
1334.0,0.1745
1335.0,0.2361
1336.0,0.1907
1337.0,0.171
1338.0,0.1848
1339.0,0.1829
1340.0,0.1759
1341.0,0.1764
1342.0,0.1849
1343.0,0.1352
1344.0,0.08065
1345.0,0.1152
1346.0,0.06405
1347.0,0.06627
1348.0,0.005724
1349.0,0.01888
1350.0,0.01846
1351.0,0.005787
1352.0,0.002029
1353.0,0.0001414
1354.0,0.0004022
1355.0,6.017e-06
1356.0,7.094e-05
1357.0,0.0001069
1358.0,6.953e-06
1359.0,1.376e-06
1360.0,3.738e-06
1361.0,1.113e-08
1362.0,4.752e-11
1363.0,5.651e-06
1364.0,2.46e-06
1365.0,2.787e-11
1366.0,2.184e-05
1367.0,8.467e-06
1368.0,6.035e-13
1369.0,9.503e-07
1370.0,5.662e-07
1371.0,4.134e-08
1372.0,4.679e-06
1373.0,6.859e-05
1374.0,0.0002576
1375.0,0.0004654
1376.0,0.0003583
1377.0,0.0001728
1378.0,0.001511
1379.0,7.363e-05
1380.0,0.0001197
1381.0,3.632e-06
1382.0,4.448e-06
1383.0,8.147e-08
1384.0,1.155e-06
1385.0,3.424e-06
1386.0,4.503e-06
1387.0,0.0002987
1388.0,6.191e-06
1389.0,0.0008109
1390.0,0.000696
1391.0,0.0004903
1392.0,3.496e-05
1393.0,0.0001642
1394.0,0.0001176
1395.0,1.141e-06
1396.0,1.411e-08
1397.0,7.143e-05
1398.0,0.001727
1399.0,0.001096
1400.0,7.821e-09
1401.0,2.313e-08
1402.0,0.002318
1403.0,0.003059
1404.0,0.0009544
1405.0,6.548e-07
1406.0,0.002692
1407.0,0.0002295
1408.0,0.002175
1409.0,0.0008538
1410.0,0.0006282
1411.0,0.002667
1412.0,0.003342
1413.0,0.02727
1414.0,0.0004874
1415.0,0.0002529
1416.0,0.03979
1417.0,0.0138
1418.0,0.01582
1419.0,0.002547
1420.0,0.009758
1421.0,0.01067
1422.0,0.0514
1423.0,0.01045
1424.0,0.01917
1425.0,0.02877
1426.0,0.03111
1427.0,0.05359
1428.0,0.00549
1429.0,0.04165
1430.0,0.06711
1431.0,0.07275
1432.0,0.004373
1433.0,0.04765
1434.0,0.02493
1435.0,0.02727
1436.0,0.04888
1437.0,0.03748
1438.0,0.01688
1439.0,0.06481
1440.0,0.04876
1441.0,0.03891
1442.0,0.04278
1443.0,0.05106
1444.0,0.0696
1445.0,0.05658
1446.0,0.02611
1447.0,0.04107
1448.0,0.1237
1449.0,0.1095
1450.0,0.03038
1451.0,0.01274
1452.0,0.06791
1453.0,0.08795
1454.0,0.1438
1455.0,0.07048
1456.0,0.09582
1457.0,0.1243
1458.0,0.1425
1459.0,0.1691
1460.0,0.09025
1461.0,0.09601
1462.0,0.1373
1463.0,0.04674
1464.0,0.1594
1465.0,0.09672
1466.0,0.07115
1467.0,0.03941
