interpolation:linear
wavelength,value
280.0,4.6229999999999997e-23
280.5,1.3480000000000001e-21
281.0,7.043e-21
281.5,1.999e-19
282.0,1.503e-18
282.5,5.549e-18
283.0,2.346e-17
283.5,4.329e-17
284.0,9.932e-16
284.5,3.248e-15
285.0,7.183e-15
285.5,5.155e-14
286.0,2.351e-13
286.5,1.273e-12
287.0,4.104e-12
287.5,1.777e-11
288.0,7.448e-11
288.5,2.845e-10
289.0,9.152e-10
289.5,3.253e-09
290.0,1.016e-08
290.5,2.275e-08
291.0,5.374e-08
291.5,1.704e-07
292.0,4.19e-07
292.5,6.198e-07
293.0,1.406e-06
293.5,3.635e-06
294.0,5.979e-06
294.5,1.038e-05
295.0,1.795e-05
295.5,4.247e-05
296.0,7.522e-05
296.5,9.652e-05
297.0,0.0001217
297.5,0.0002927
298.0,0.0004202
298.5,0.0003934
299.0,0.0008083
299.5,0.001179
300.0,0.00121
300.5,0.001629
301.0,0.002611
301.5,0.003732
302.0,0.003031
302.5,0.005638
303.0,0.009485
303.5,0.01147
304.0,0.01047
304.5,0.01436
305.0,0.01931
305.5,0.02056
306.0,0.01942
306.5,0.02314
307.0,0.03094
307.5,0.0373
308.0,0.03897
308.5,0.04401
309.0,0.03894
309.5,0.04263
310.0,0.04201
310.5,0.06757
311.0,0.08344
311.5,0.0802
312.0,0.07671
312.5,0.09069
313.0,0.09709
313.5,0.0964
314.0,0.1161
314.5,0.09765
315.0,0.1276
315.5,0.1104
316.0,0.09234
316.5,0.1277
317.0,0.1595
317.5,0.1687
318.0,0.1284
318.5,0.1513
319.0,0.1752
319.5,0.1503
320.0,0.1837
320.5,0.2177
321.0,0.1846
321.5,0.1768
322.0,0.2004
322.5,0.1746
323.0,0.1682
323.5,0.1946
324.0,0.2265
324.5,0.2351
325.0,0.2138
325.5,0.2677
326.0,0.3162
326.5,0.3107
327.0,0.3135
327.5,0.3074
328.0,0.2833
328.5,0.2881
329.0,0.3364
329.5,0.38
330.0,0.3876
330.5,0.3185
331.0,0.3282
331.5,0.3293
332.0,0.3486
332.5,0.3423
333.0,0.3449
333.5,0.319
334.0,0.3289
334.5,0.3733
335.0,0.3479
335.5,0.3955
336.0,0.2746
336.5,0.3347
337.0,0.2779
337.5,0.3479
338.0,0.3353
338.5,0.379
339.0,0.3783
339.5,0.3637
340.0,0.4387
340.5,0.3962
341.0,0.3805
341.5,0.3535
342.0,0.4246
342.5,0.3992
343.0,0.4385
343.5,0.4129
344.0,0.3104
344.5,0.3077
345.0,0.4127
345.5,0.424
346.0,0.3621
346.5,0.4117
347.0,0.4419
347.5,0.3579
348.0,0.4108
348.5,0.4126
349.0,0.3841
349.5,0.3811
350.0,0.4728
350.5,0.5001
351.0,0.4474
351.5,0.434
352.0,0.4688
352.5,0.3676
353.0,0.4647
353.5,0.4985
354.0,0.5192
354.5,0.5281
355.0,0.5275
355.5,0.4778
356.0,0.5013
356.5,0.4293
357.0,0.3557
357.5,0.4367
358.0,0.347
358.5,0.2973
359.0,0.4169
359.5,0.5324
360.0,0.566
360.5,0.4536
361.0,0.4145
361.5,0.4782
362.0,0.4143
362.5,0.5745
363.0,0.517
363.5,0.4772
364.0,0.5848
364.5,0.501
365.0,0.5114
365.5,0.6433
366.0,0.683
366.5,0.643
367.0,0.6276
367.5,0.6527
368.0,0.5724
368.5,0.5787
369.0,0.6263
369.5,0.669
370.0,0.7146
370.5,0.5558
371.0,0.595
371.5,0.746
372.0,0.4962
372.5,0.5962
373.0,0.6075
373.5,0.396
374.0,0.5766
374.5,0.4784
375.0,0.466
375.5,0.6972
376.0,0.5791
376.5,0.6014
377.0,0.6378
377.5,0.7476
378.0,0.8121
378.5,0.7692
379.0,0.6362
379.5,0.5825
380.0,0.6069
380.5,0.7364
381.0,0.7392
381.5,0.5869
382.0,0.5221
382.5,0.4458
383.0,0.4135
383.5,0.3989
384.0,0.4408
384.5,0.6494
385.0,0.6451
385.5,0.6018
386.0,0.5163
386.5,0.6792
387.0,0.5654
387.5,0.6362
388.0,0.5884
388.5,0.5826
389.0,0.63
389.5,0.7642
390.0,0.7682
390.5,0.7082
391.0,0.8349
391.5,0.8531
392.0,0.7197
392.5,0.6453
393.0,0.3596
393.5,0.2618
394.0,0.5335
394.5,0.6792
395.0,0.8301
395.5,0.8446
396.0,0.7334
396.5,0.4293
397.0,0.3226
397.5,0.6571
398.0,0.9218
398.5,0.9542
399.0,1.034
399.5,1.032
400.0,1.074
401.0,1.106
402.0,1.169
403.0,1.114
404.0,1.099
405.0,1.102
406.0,1.086
407.0,1.071
408.0,1.116
409.0,1.197
410.0,1.048
411.0,1.138
412.0,1.225
413.0,1.197
414.0,1.214
415.0,1.22
416.0,1.244
417.0,1.216
418.0,1.196
419.0,1.214
420.0,1.212
421.0,1.27
422.0,1.21
423.0,1.184
424.0,1.255
425.0,1.255
426.0,1.224
427.0,1.204
428.0,1.175
429.0,1.114
430.0,0.9769
431.0,0.9704
432.0,1.255
433.0,1.264
434.0,1.176
435.0,1.231
436.0,1.388
437.0,1.371
438.0,1.25
439.0,1.296
440.0,1.339
441.0,1.389
442.0,1.492
443.0,1.457
444.0,1.49
445.0,1.461
446.0,1.395
447.0,1.51
448.0,1.537
449.0,1.544
450.0,1.589
451.0,1.65
452.0,1.592
453.0,1.499
454.0,1.567
455.0,1.579
456.0,1.618
457.0,1.648
458.0,1.594
459.0,1.588
460.0,1.595
461.0,1.634
462.0,1.648
463.0,1.639
464.0,1.612
465.0,1.593
466.0,1.61
467.0,1.583
468.0,1.604
469.0,1.614
470.0,1.565
471.0,1.565
472.0,1.651
473.0,1.631
474.0,1.637
475.0,1.654
476.0,1.608
477.0,1.615
478.0,1.662
479.0,1.653
480.0,1.657
481.0,1.689
482.0,1.698
483.0,1.678
484.0,1.645
485.0,1.568
486.0,1.372
487.0,1.438
488.0,1.58
489.0,1.587
490.0,1.67
491.0,1.643
492.0,1.553
493.0,1.605
494.0,1.622
495.0,1.638
496.0,1.649
497.0,1.677
498.0,1.6
499.0,1.622
500.0,1.577
501.0,1.55
502.0,1.532
503.0,1.597
504.0,1.563
505.0,1.616
506.0,1.67
507.0,1.59
508.0,1.541
509.0,1.584
510.0,1.576
511.0,1.618
512.0,1.637
513.0,1.55
514.0,1.541
515.0,1.526
516.0,1.524
517.0,1.355
518.0,1.426
519.0,1.497
520.0,1.552
521.0,1.569
522.0,1.571
523.0,1.545
524.0,1.602
525.0,1.623
526.0,1.552
527.0,1.464
528.0,1.551
529.0,1.636
530.0,1.614
531.0,1.639
532.0,1.584
533.0,1.539
534.0,1.585
535.0,1.62
536.0,1.636
537.0,1.572
538.0,1.6
539.0,1.588
540.0,1.523
541.0,1.536
542.0,1.586
543.0,1.569
544.0,1.598
545.0,1.593
546.0,1.603
547.0,1.602
548.0,1.583
549.0,1.588
550.0,1.608
551.0,1.589
552.0,1.601
553.0,1.574
554.0,1.612
555.0,1.617
556.0,1.597
557.0,1.549
558.0,1.538
559.0,1.511
560.0,1.532
561.0,1.553
562.0,1.543
563.0,1.587
564.0,1.546
565.0,1.534
566.0,1.513
567.0,1.543
568.0,1.533
569.0,1.502
570.0,1.501
571.0,1.492
572.0,1.532
573.0,1.549
574.0,1.546
575.0,1.518
576.0,1.505
577.0,1.522
578.0,1.498
579.0,1.503
580.0,1.528
581.0,1.534
582.0,1.562
583.0,1.564
584.0,1.577
585.0,1.539
586.0,1.508
587.0,1.543
588.0,1.512
589.0,1.353
590.0,1.414
591.0,1.489
592.0,1.475
593.0,1.493
594.0,1.485
595.0,1.453
596.0,1.501
597.0,1.488
598.0,1.482
599.0,1.482
600.0,1.482
601.0,1.469
602.0,1.459
603.0,1.483
604.0,1.508
605.0,1.5
606.0,1.493
607.0,1.507
608.0,1.49
609.0,1.493
610.0,1.481
611.0,1.489
612.0,1.485
613.0,1.466
614.0,1.446
615.0,1.477
616.0,1.428
617.0,1.425
618.0,1.48
619.0,1.465
620.0,1.475
621.0,1.477
622.0,1.462
623.0,1.441
624.0,1.416
625.0,1.413
626.0,1.434
627.0,1.453
628.0,1.383
629.0,1.428
630.0,1.396
631.0,1.42
632.0,1.402
633.0,1.441
634.0,1.425
635.0,1.446
636.0,1.426
637.0,1.448
638.0,1.461
639.0,1.444
640.0,1.429
641.0,1.427
642.0,1.42
643.0,1.44
644.0,1.434
645.0,1.438
646.0,1.408
647.0,1.398
648.0,1.401
649.0,1.374
650.0,1.372
651.0,1.43
652.0,1.381
653.0,1.412
654.0,1.396
655.0,1.349
656.0,1.192
657.0,1.224
658.0,1.37
659.0,1.379
660.0,1.384
661.0,1.394
662.0,1.399
663.0,1.371
664.0,1.385
665.0,1.384
666.0,1.385
667.0,1.383
668.0,1.383
669.0,1.404
670.0,1.398
671.0,1.397
672.0,1.385
673.0,1.406
674.0,1.401
675.0,1.388
676.0,1.397
677.0,1.383
678.0,1.387
679.0,1.365
680.0,1.376
681.0,1.367
682.0,1.366
683.0,1.363
684.0,1.357
685.0,1.368
686.0,1.361
687.0,1.017
688.0,1.137
689.0,1.139
690.0,1.177
691.0,1.218
692.0,1.247
693.0,1.239
694.0,1.23
695.0,1.267
696.0,1.269
697.0,1.329
698.0,1.309
699.0,1.29
700.0,1.274
701.0,1.265
702.0,1.27
703.0,1.272
704.0,1.307
705.0,1.309
706.0,1.305
707.0,1.305
708.0,1.309
709.0,1.307
710.0,1.309
711.0,1.306
712.0,1.3
713.0,1.289
714.0,1.294
715.0,1.257
716.0,1.259
717.0,1.134
718.0,1.05
719.0,0.9674
720.0,1.016
721.0,1.095
722.0,1.224
723.0,1.155
724.0,1.058
725.0,1.047
726.0,1.092
727.0,1.099
728.0,1.046
729.0,1.071
730.0,1.132
731.0,1.088
732.0,1.148
733.0,1.2
734.0,1.225
735.0,1.202
736.0,1.2
737.0,1.205
738.0,1.214
739.0,1.191
740.0,1.219
741.0,1.205
742.0,1.205
743.0,1.235
744.0,1.231
745.0,1.23
746.0,1.236
747.0,1.239
748.0,1.236
749.0,1.222
750.0,1.221
751.0,1.209
752.0,1.214
753.0,1.221
754.0,1.224
755.0,1.217
756.0,1.216
757.0,1.218
758.0,1.203
759.0,1.185
760.0,0.3228
761.0,0.2016
762.0,0.7248
763.0,0.4395
764.0,0.5907
765.0,0.7256
766.0,0.8328
767.0,0.9954
768.0,1.106
769.0,1.12
770.0,1.148
771.0,1.152
772.0,1.154
773.0,1.161
774.0,1.156
775.0,1.147
776.0,1.161
777.0,1.145
778.0,1.139
779.0,1.14
780.0,1.133
781.0,1.135
782.0,1.142
783.0,1.122
784.0,1.127
785.0,1.119
786.0,1.132
787.0,1.117
788.0,1.105
789.0,1.106
790.0,1.083
791.0,1.086
792.0,1.077
793.0,1.061
794.0,1.072
795.0,1.092
796.0,1.067
797.0,1.069
798.0,1.092
799.0,1.087
800.0,1.07
801.0,1.069
802.0,1.066
803.0,1.059
804.0,1.059
805.0,1.054
806.0,1.079
807.0,1.067
808.0,1.068
809.0,1.051
810.0,1.045
811.0,1.05
812.0,1.027
813.0,1.009
814.0,0.9095
815.0,0.9035
816.0,0.8444
817.0,0.8571
818.0,0.8299
819.0,0.9089
820.0,0.8636
821.0,0.9839
822.0,0.9602
823.0,0.6948
824.0,0.9409
825.0,0.9686
826.0,0.9396
827.0,0.9833
828.0,0.8569
829.0,0.9325
830.0,0.9229
831.0,0.9253
832.0,0.9012
833.0,0.9467
834.0,0.9209
835.0,0.9955
836.0,0.963
837.0,0.9978
838.0,0.9711
839.0,0.9819
840.0,1.002
841.0,0.9902
842.0,0.9894
843.0,0.986
844.0,0.974
845.0,1.005
846.0,0.9999
847.0,0.9804
848.0,0.9757
849.0,0.9481
850.0,0.9082
851.0,0.9631
852.0,0.9558
853.0,0.919
854.0,0.7945
855.0,0.8716
856.0,0.9531
857.0,0.9735
858.0,0.9668
859.0,0.9672
860.0,0.9686
861.0,0.9635
862.0,0.9785
863.0,1.002
864.0,0.9516
865.0,0.9432
866.0,0.8481
867.0,0.8851
868.0,0.9632
869.0,0.9432
870.0,0.9701
871.0,0.957
872.0,0.9536
873.0,0.9518
874.0,0.9405
875.0,0.9216
876.0,0.9313
877.0,0.9407
878.0,0.9512
879.0,0.9365
880.0,0.9165
881.0,0.9034
882.0,0.9233
883.0,0.9256
884.0,0.9217
885.0,0.9287
886.0,0.8874
887.0,0.8952
888.0,0.9096
889.0,0.9179
890.0,0.9127
891.0,0.91
892.0,0.8867
893.0,0.863
894.0,0.8399
895.0,0.803
896.0,0.7611
897.0,0.667
898.0,0.7201
899.0,0.5643
900.0,0.7296
901.0,0.5906
902.0,0.6717
903.0,0.6851
904.0,0.834
905.0,0.8096
906.0,0.7612
907.0,0.6379
908.0,0.648
909.0,0.6924
910.0,0.6291
911.0,0.6607
912.0,0.6866
913.0,0.6393
914.0,0.6311
915.0,0.682
916.0,0.5831
917.0,0.7207
918.0,0.5982
919.0,0.7298
920.0,0.7292
921.0,0.7561
922.0,0.688
923.0,0.7299
924.0,0.7056
925.0,0.6908
926.0,0.6982
927.0,0.7702
928.0,0.5979
929.0,0.5547
930.0,0.4506
931.0,0.4244
932.0,0.3204
933.0,0.2688
934.0,0.1651
935.0,0.2681
936.0,0.1785
937.0,0.1826
938.0,0.22
939.0,0.4114
940.0,0.4847
941.0,0.3798
942.0,0.4306
943.0,0.2944
944.0,0.3004
945.0,0.3893
946.0,0.2133
947.0,0.3948
948.0,0.2928
949.0,0.5133
950.0,0.1669
951.0,0.5029
952.0,0.2905
953.0,0.3619
954.0,0.4292
955.0,0.3644
956.0,0.3477
957.0,0.293
958.0,0.4715
959.0,0.3899
960.0,0.4364
961.0,0.4782
962.0,0.4542
963.0,0.5133
964.0,0.4739
965.0,0.5102
966.0,0.5129
967.0,0.5116
968.0,0.6516
969.0,0.6827
970.0,0.6321
971.0,0.7085
972.0,0.6807
973.0,0.6077
974.0,0.5792
975.0,0.5952
976.0,0.573
977.0,0.6367
978.0,0.6113
979.0,0.6353
980.0,0.6007
981.0,0.704
982.0,0.6785
983.0,0.6547
984.0,0.7196
985.0,0.6758
986.0,0.7287
987.0,0.7182
988.0,0.717
989.0,0.7244
990.0,0.7124
991.0,0.7271
992.0,0.7309
993.0,0.7184
994.0,0.7304
995.0,0.729
996.0,0.7263
997.0,0.7271
998.0,0.724
999.0,0.7212
1000.0,0.717
1001.0,0.725
1002.0,0.7087
1003.0,0.7124
1004.0,0.696
1005.0,0.6692
1006.0,0.6961
1007.0,0.7105
1008.0,0.7073
1009.0,0.7043
1010.0,0.7017
1011.0,0.7069
1012.0,0.7015
1013.0,0.705
1014.0,0.7001
1015.0,0.6956
1016.0,0.6926
1017.0,0.6945
1018.0,0.6915
1019.0,0.6781
1020.0,0.6881
1021.0,0.6869
1022.0,0.6821
1023.0,0.6895
1024.0,0.6819
1025.0,0.6885
1026.0,0.686
1027.0,0.6843
1028.0,0.683
1029.0,0.6751
1030.0,0.6793
1031.0,0.6768
1032.0,0.6747
1033.0,0.6646
1034.0,0.6646
1035.0,0.6666
1036.0,0.6703
1037.0,0.6594
1038.0,0.6623
1039.0,0.6621
1040.0,0.6594
1041.0,0.6622
1042.0,0.6576
1043.0,0.6556
1044.0,0.658
1045.0,0.6492
1046.0,0.6421
1047.0,0.648
1048.0,0.6517
1049.0,0.6495
1050.0,0.6466
1051.0,0.6459
1052.0,0.6434
1053.0,0.6385
1054.0,0.64
1055.0,0.6406
1056.0,0.6386
1057.0,0.6368
1058.0,0.6214
1059.0,0.6223
1060.0,0.6215
1061.0,0.6209
1062.0,0.6244
1063.0,0.6184
1064.0,0.6256
1065.0,0.6217
1066.0,0.609
1067.0,0.617
1068.0,0.6039
1069.0,0.585
1070.0,0.6053
1071.0,0.6134
1072.0,0.6073
1073.0,0.5984
1074.0,0.6125
1075.0,0.5857
1076.0,0.6122
1077.0,0.6035
1078.0,0.5929
1079.0,0.6019
1080.0,0.5943
1081.0,0.577
1082.0,0.5831
1083.0,0.5841
1084.0,0.5768
1085.0,0.5953
1086.0,0.5496
1087.0,0.5625
1088.0,0.5843
1089.0,0.57
1090.0,0.5601
1091.0,0.5834
1092.0,0.5811
1093.0,0.5041
1094.0,0.5331
1095.0,0.5234
1096.0,0.5047
1097.0,0.5675
1098.0,0.4979
1099.0,0.5176
1100.0,0.4865
1101.0,0.491
1102.0,0.472
1103.0,0.4698
1104.0,0.4701
1105.0,0.5069
1106.0,0.4076
1107.0,0.4853
1108.0,0.4234
1109.0,0.4219
1110.0,0.4825
1111.0,0.3437
1112.0,0.4177
1113.0,0.2832
1114.0,0.3143
1115.0,0.2612
1116.0,0.2194
1117.0,0.09325
1118.0,0.2344
1119.0,0.1261
1120.0,0.1589
1121.0,0.2045
1122.0,0.09472
1123.0,0.1433
1124.0,0.1211
1125.0,0.1556
1126.0,0.06288
1127.0,0.1747
1128.0,0.1138
1129.0,0.1192
1130.0,0.08288
1131.0,0.3098
1132.0,0.2471
1133.0,0.168
1134.0,0.0505
1135.0,0.01861
1136.0,0.1443
1137.0,0.3074
1138.0,0.2194
1139.0,0.3062
1140.0,0.2639
1141.0,0.2085
1142.0,0.2353
1143.0,0.3253
1144.0,0.1247
1145.0,0.1617
1146.0,0.1745
1147.0,0.07065
1148.0,0.2818
1149.0,0.2317
1150.0,0.1337
1151.0,0.2179
1152.0,0.2605
1153.0,0.2482
1154.0,0.1589
1155.0,0.3198
1156.0,0.292
1157.0,0.3219
1158.0,0.3181
1159.0,0.3376
1160.0,0.2953
1161.0,0.3516
1162.0,0.3542
1163.0,0.4582
1164.0,0.4006
1165.0,0.3847
1166.0,0.3774
1167.0,0.4072
1168.0,0.4131
1169.0,0.4203
1170.0,0.4509
1171.0,0.4407
1172.0,0.4454
1173.0,0.45
1174.0,0.3378
1175.0,0.4372
1176.0,0.4729
1177.0,0.4589
1178.0,0.3573
1179.0,0.4764
1180.0,0.4339
1181.0,0.4468
1182.0,0.322
1183.0,0.438
1184.0,0.415
1185.0,0.4044
1186.0,0.4663
1187.0,0.4482
1188.0,0.3286
1189.0,0.4185
1190.0,0.4557
1191.0,0.4395
1192.0,0.4613
1193.0,0.4446
1194.0,0.4565
1195.0,0.4365
1196.0,0.4235
1197.0,0.4541
1198.0,0.4193
1199.0,0.3677
1200.0,0.4394
1201.0,0.4275
1202.0,0.4229
1203.0,0.4195
1204.0,0.3732
1205.0,0.4295
1206.0,0.4682
1207.0,0.4229
1208.0,0.413
1209.0,0.4206
1210.0,0.4357
1211.0,0.4192
1212.0,0.4188
1213.0,0.4552
1214.0,0.4265
1215.0,0.4196
1216.0,0.4535
1217.0,0.4437
1218.0,0.4501
1219.0,0.4455
1220.0,0.4502
1221.0,0.4536
1222.0,0.4431
1223.0,0.4398
1224.0,0.4386
1225.0,0.4508
1226.0,0.4525
1227.0,0.4229
1228.0,0.4536
1229.0,0.4525
1230.0,0.4458
1231.0,0.4551
1232.0,0.4525
1233.0,0.4413
1234.0,0.4538
1235.0,0.4516
1236.0,0.4544
1237.0,0.4498
1238.0,0.4528
1239.0,0.4471
1240.0,0.4486
1241.0,0.4475
1242.0,0.4456
1243.0,0.4419
1244.0,0.4454
1245.0,0.4471
1246.0,0.4445
1247.0,0.443
1248.0,0.4433
1249.0,0.4442
1250.0,0.4418
1251.0,0.4368
1252.0,0.4361
1253.0,0.434
1254.0,0.4308
1255.0,0.436
1256.0,0.4265
1257.0,0.4247
1258.0,0.4305
1259.0,0.4192
1260.0,0.4208
1261.0,0.4026
1262.0,0.3934
1263.0,0.3943
1264.0,0.3707
1265.0,0.3917
1266.0,0.3809
1267.0,0.3848
1268.0,0.3694
1269.0,0.26
1270.0,0.3845
1271.0,0.4007
1272.0,0.4013
1273.0,0.3977
1274.0,0.3982
1275.0,0.4029
1276.0,0.4058
1277.0,0.4073
1278.0,0.4128
1279.0,0.4093
1280.0,0.404
1281.0,0.3845
1282.0,0.3688
1283.0,0.3976
1284.0,0.4075
1285.0,0.4099
1286.0,0.4145
1287.0,0.4098
1288.0,0.4093
1289.0,0.3996
1290.0,0.4054
1291.0,0.4105
1292.0,0.392
1293.0,0.4041
1294.0,0.4016
1295.0,0.4012
1296.0,0.3872
1297.0,0.3696
1298.0,0.3912
1299.0,0.404
1300.0,0.3534
1301.0,0.3619
1302.0,0.3897
1303.0,0.3475
1304.0,0.3073
1305.0,0.3826
1306.0,0.3833
1307.0,0.3102
1308.0,0.3464
1309.0,0.3812
1310.0,0.3047
1311.0,0.3345
1312.0,0.3272
1313.0,0.3226
1314.0,0.2927
1315.0,0.2913
1316.0,0.331
1317.0,0.3148
1318.0,0.3377
1319.0,0.277
1320.0,0.2656
1321.0,0.3048
1322.0,0.3097
1323.0,0.2439
1324.0,0.2716
1325.0,0.3269
1326.0,0.2875
1327.0,0.276
1328.0,0.2415
1329.0,0.1906
1330.0,0.2433
1331.0,0.1585
1332.0,0.1596
1333.0,0.2189
1334.0,0.1809
1335.0,0.2429
1336.0,0.1978
1337.0,0.1785
1338.0,0.1926
1339.0,0.1903
1340.0,0.1822
1341.0,0.1844
1342.0,0.1933
1343.0,0.1454
1344.0,0.08682
1345.0,0.1233
1346.0,0.07149
1347.0,0.07439
1348.0,0.007195
1349.0,0.02289
1350.0,0.02183
1351.0,0.007546
1352.0,0.002895
1353.0,0.0002287
1354.0,0.0006059
1355.0,1.144e-05
1356.0,0.0001162
1357.0,0.0001741
1358.0,1.309e-05
1359.0,3.043e-06
1360.0,7.457e-06
1361.0,3.193e-08
1362.0,1.632e-10
1363.0,1.153e-05
1364.0,5.188e-06
1365.0,1.142e-10
1366.0,4.256e-05
1367.0,1.642e-05
1368.0,3.563e-12
1369.0,2.038e-06
1370.0,1.297e-06
1371.0,1.046e-07
1372.0,9.118e-06
1373.0,0.000118
1374.0,0.0004092
1375.0,0.0007308
1376.0,0.000538
1377.0,0.0002652
1378.0,0.002198
1379.0,0.000114
1380.0,0.0001927
1381.0,6.255e-06
1382.0,8.822e-06
1383.0,1.766e-07
1384.0,2.534e-06
1385.0,6.341e-06
1386.0,9.318e-06
1387.0,0.0004892
1388.0,1.059e-05
1389.0,0.001231
1390.0,0.001051
1391.0,0.0007596
1392.0,5.674e-05
1393.0,0.0002534
1394.0,0.000203
1395.0,2.222e-06
1396.0,3.871e-08
1397.0,0.0001141
1398.0,0.002518
1399.0,0.001605
1400.0,2.339e-08
1401.0,6.13e-08
1402.0,0.003086
1403.0,0.004133
1404.0,0.001301
1405.0,1.352e-06
1406.0,0.003754
1407.0,0.0003215
1408.0,0.003025
1409.0,0.001257
1410.0,0.0009061
1411.0,0.003595
1412.0,0.004384
1413.0,0.03243
1414.0,0.0006997
1415.0,0.0003743
1416.0,0.04526
1417.0,0.01671
1418.0,0.01909
1419.0,0.003131
1420.0,0.01182
1421.0,0.01308
1422.0,0.05809
1423.0,0.01214
1424.0,0.02202
1425.0,0.03327
1426.0,0.03522
1427.0,0.05876
1428.0,0.006948
1429.0,0.0465
1430.0,0.07301
1431.0,0.07863
1432.0,0.005566
1433.0,0.0523
1434.0,0.02777
1435.0,0.03168
1436.0,0.05477
1437.0,0.04207
1438.0,0.01957
1439.0,0.07165
1440.0,0.0541
1441.0,0.04416
1442.0,0.04822
1443.0,0.05612
1444.0,0.07598
1445.0,0.06292
1446.0,0.0294
1447.0,0.04632
1448.0,0.131
1449.0,0.1173
1450.0,0.03426
1451.0,0.01472
1452.0,0.0739
1453.0,0.0949
1454.0,0.151
1455.0,0.07568
1456.0,0.1036
1457.0,0.1317
1458.0,0.1485
1459.0,0.1766
1460.0,0.09572
1461.0,0.1028
1462.0,0.145
1463.0,0.05097
1464.0,0.1662
1465.0,0.1013
1466.0,0.07737
1467.0,0.04417
