interpolation:linear
wavelength,value
280.0,3.5459999999999997e-22
280.5,9.081e-21
281.0,4.526e-20
281.5,1.134e-18
282.0,7.899e-18
282.5,2.77e-17
283.0,1.107e-16
283.5,1.986e-16
284.0,3.998e-15
284.5,1.232e-14
285.0,2.554e-14
285.5,1.699e-13
286.0,7.515e-13
286.5,3.82e-12
287.0,1.175e-11
287.5,4.788e-11
288.0,1.858e-10
288.5,6.815e-10
289.0,2.102e-09
289.5,7.132e-09
290.0,2.145e-08
290.5,4.653e-08
291.0,1.058e-07
291.5,3.194e-07
292.0,7.551e-07
292.5,1.092e-06
293.0,2.408e-06
293.5,5.988e-06
294.0,9.593e-06
294.5,1.633e-05
295.0,2.754e-05
295.5,6.318e-05
296.0,0.0001096
296.5,0.0001378
297.0,0.000171
297.5,0.0004021
298.0,0.0005672
298.5,0.000524
299.0,0.001063
299.5,0.00152
300.0,0.001543
300.5,0.002058
301.0,0.00325
301.5,0.004589
302.0,0.003706
302.5,0.006822
303.0,0.01133
303.5,0.01361
304.0,0.01238
304.5,0.01683
305.0,0.02239
305.5,0.02369
306.0,0.02231
306.5,0.02648
307.0,0.03512
307.5,0.04203
308.0,0.04384
308.5,0.04934
309.0,0.04353
309.5,0.04729
310.0,0.04644
310.5,0.07456
311.0,0.09181
311.5,0.08812
312.0,0.08383
312.5,0.09875
313.0,0.1055
313.5,0.1049
314.0,0.1258
314.5,0.1053
315.0,0.1374
315.5,0.1191
316.0,0.09924
316.5,0.1368
317.0,0.1708
317.5,0.1808
318.0,0.1373
318.5,0.1611
319.0,0.1862
319.5,0.1601
320.0,0.1957
320.5,0.2311
321.0,0.1953
321.5,0.1869
322.0,0.2125
322.5,0.185
323.0,0.1778
323.5,0.2051
324.0,0.2385
324.5,0.2478
325.0,0.2257
325.5,0.2822
326.0,0.3325
326.5,0.3262
327.0,0.3292
327.5,0.3228
328.0,0.298
328.5,0.3024
329.0,0.3524
329.5,0.3979
330.0,0.4058
330.5,0.3337
331.0,0.3439
331.5,0.3447
332.0,0.3644
332.5,0.3576
333.0,0.3602
333.5,0.3334
334.0,0.3437
334.5,0.3896
335.0,0.3629
335.5,0.4124
336.0,0.2862
336.5,0.3489
337.0,0.2897
337.5,0.3627
338.0,0.3492
338.5,0.3945
339.0,0.3937
339.5,0.3784
340.0,0.4565
340.5,0.4121
341.0,0.3956
341.5,0.3673
342.0,0.4411
342.5,0.4146
343.0,0.4555
343.5,0.4288
344.0,0.3224
344.5,0.3194
345.0,0.4282
345.5,0.4398
346.0,0.3755
346.5,0.4268
347.0,0.4581
347.5,0.3709
348.0,0.4256
348.5,0.4274
349.0,0.3978
349.5,0.3946
350.0,0.4895
350.5,0.5176
351.0,0.463
351.5,0.449
352.0,0.485
352.5,0.3802
353.0,0.4804
353.5,0.5153
354.0,0.5366
354.5,0.5457
355.0,0.545
355.5,0.4936
356.0,0.5178
356.5,0.4433
357.0,0.3672
357.5,0.4508
358.0,0.3582
358.5,0.3068
359.0,0.4302
359.5,0.5493
360.0,0.5838
360.5,0.4678
361.0,0.4274
361.5,0.493
362.0,0.427
362.5,0.592
363.0,0.5327
363.5,0.4915
364.0,0.6023
364.5,0.5159
365.0,0.5265
365.5,0.6622
366.0,0.7028
366.5,0.6616
367.0,0.6456
367.5,0.6714
368.0,0.5887
368.5,0.5951
369.0,0.6439
369.5,0.6877
370.0,0.7345
370.5,0.5711
371.0,0.6114
371.5,0.7664
372.0,0.5097
372.5,0.6123
373.0,0.6239
373.5,0.4066
374.0,0.5919
374.5,0.491
375.0,0.4782
375.5,0.7154
376.0,0.5942
376.5,0.6169
377.0,0.6543
377.5,0.7667
378.0,0.8328
378.5,0.7887
379.0,0.6523
379.5,0.5971
380.0,0.6221
380.5,0.7547
381.0,0.7575
381.5,0.6013
382.0,0.5349
382.5,0.4566
383.0,0.4234
383.5,0.4084
384.0,0.4513
384.5,0.6648
385.0,0.6603
385.5,0.6158
386.0,0.5283
386.5,0.6949
387.0,0.5784
387.5,0.6508
388.0,0.6018
388.5,0.5958
389.0,0.6442
389.5,0.7814
390.0,0.7854
390.5,0.7239
391.0,0.8533
391.5,0.8718
392.0,0.7354
392.5,0.6593
393.0,0.3674
393.5,0.2674
394.0,0.5448
394.5,0.6936
395.0,0.8476
395.5,0.8624
396.0,0.7487
396.5,0.4382
397.0,0.3293
397.5,0.6707
398.0,0.9407
398.5,0.9737
399.0,1.055
399.5,1.053
400.0,1.095
401.0,1.128
402.0,1.192
403.0,1.135
404.0,1.12
405.0,1.123
406.0,1.107
407.0,1.091
408.0,1.137
409.0,1.219
410.0,1.067
411.0,1.159
412.0,1.246
413.0,1.218
414.0,1.236
415.0,1.241
416.0,1.265
417.0,1.237
418.0,1.216
419.0,1.235
420.0,1.232
421.0,1.291
422.0,1.229
423.0,1.203
424.0,1.275
425.0,1.275
426.0,1.243
427.0,1.222
428.0,1.193
429.0,1.131
430.0,0.9914
431.0,0.9848
432.0,1.273
433.0,1.282
434.0,1.193
435.0,1.248
436.0,1.408
437.0,1.39
438.0,1.267
439.0,1.314
440.0,1.357
441.0,1.408
442.0,1.512
443.0,1.476
444.0,1.51
445.0,1.48
446.0,1.413
447.0,1.529
448.0,1.556
449.0,1.563
450.0,1.609
451.0,1.671
452.0,1.612
453.0,1.517
454.0,1.585
455.0,1.597
456.0,1.637
457.0,1.667
458.0,1.613
459.0,1.606
460.0,1.613
461.0,1.652
462.0,1.666
463.0,1.657
464.0,1.63
465.0,1.61
466.0,1.627
467.0,1.6
468.0,1.621
469.0,1.631
470.0,1.581
471.0,1.581
472.0,1.668
473.0,1.648
474.0,1.654
475.0,1.671
476.0,1.625
477.0,1.632
478.0,1.679
479.0,1.669
480.0,1.673
481.0,1.705
482.0,1.715
483.0,1.694
484.0,1.66
485.0,1.583
486.0,1.384
487.0,1.452
488.0,1.594
489.0,1.601
490.0,1.686
491.0,1.657
492.0,1.566
493.0,1.619
494.0,1.637
495.0,1.652
496.0,1.664
497.0,1.691
498.0,1.613
499.0,1.636
500.0,1.591
501.0,1.564
502.0,1.545
503.0,1.611
504.0,1.577
505.0,1.63
506.0,1.684
507.0,1.604
508.0,1.554
509.0,1.597
510.0,1.589
511.0,1.632
512.0,1.65
513.0,1.563
514.0,1.553
515.0,1.538
516.0,1.536
517.0,1.365
518.0,1.437
519.0,1.508
520.0,1.564
521.0,1.581
522.0,1.583
523.0,1.556
524.0,1.614
525.0,1.635
526.0,1.564
527.0,1.476
528.0,1.563
529.0,1.649
530.0,1.626
531.0,1.652
532.0,1.597
533.0,1.551
534.0,1.597
535.0,1.632
536.0,1.648
537.0,1.583
538.0,1.612
539.0,1.599
540.0,1.534
541.0,1.547
542.0,1.597
543.0,1.58
544.0,1.61
545.0,1.605
546.0,1.614
547.0,1.613
548.0,1.595
549.0,1.6
550.0,1.62
551.0,1.601
552.0,1.613
553.0,1.585
554.0,1.624
555.0,1.628
556.0,1.608
557.0,1.559
558.0,1.549
559.0,1.522
560.0,1.542
561.0,1.564
562.0,1.554
563.0,1.599
564.0,1.557
565.0,1.545
566.0,1.524
567.0,1.554
568.0,1.544
569.0,1.513
570.0,1.513
571.0,1.503
572.0,1.543
573.0,1.561
574.0,1.558
575.0,1.53
576.0,1.517
577.0,1.534
578.0,1.51
579.0,1.514
580.0,1.54
581.0,1.545
582.0,1.573
583.0,1.575
584.0,1.588
585.0,1.549
586.0,1.518
587.0,1.553
588.0,1.523
589.0,1.364
590.0,1.425
591.0,1.501
592.0,1.487
593.0,1.504
594.0,1.496
595.0,1.464
596.0,1.512
597.0,1.498
598.0,1.492
599.0,1.492
600.0,1.492
601.0,1.478
602.0,1.469
603.0,1.492
604.0,1.517
605.0,1.509
606.0,1.502
607.0,1.517
608.0,1.499
609.0,1.502
610.0,1.49
611.0,1.498
612.0,1.493
613.0,1.475
614.0,1.454
615.0,1.485
616.0,1.436
617.0,1.433
618.0,1.488
619.0,1.473
620.0,1.483
621.0,1.486
622.0,1.47
623.0,1.449
624.0,1.423
625.0,1.421
626.0,1.442
627.0,1.461
628.0,1.394
629.0,1.437
630.0,1.405
631.0,1.428
632.0,1.41
633.0,1.449
634.0,1.432
635.0,1.453
636.0,1.433
637.0,1.455
638.0,1.467
639.0,1.45
640.0,1.435
641.0,1.434
642.0,1.427
643.0,1.446
644.0,1.441
645.0,1.444
646.0,1.414
647.0,1.405
648.0,1.408
649.0,1.382
650.0,1.379
651.0,1.437
652.0,1.388
653.0,1.418
654.0,1.402
655.0,1.355
656.0,1.197
657.0,1.23
658.0,1.375
659.0,1.384
660.0,1.389
661.0,1.399
662.0,1.404
663.0,1.376
664.0,1.39
665.0,1.389
666.0,1.39
667.0,1.388
668.0,1.387
669.0,1.409
670.0,1.402
671.0,1.402
672.0,1.39
673.0,1.41
674.0,1.405
675.0,1.392
676.0,1.402
677.0,1.388
678.0,1.391
679.0,1.369
680.0,1.38
681.0,1.371
682.0,1.369
683.0,1.367
684.0,1.361
685.0,1.372
686.0,1.365
687.0,1.033
688.0,1.148
689.0,1.151
690.0,1.187
691.0,1.227
692.0,1.254
693.0,1.246
694.0,1.237
695.0,1.273
696.0,1.275
697.0,1.333
698.0,1.313
699.0,1.295
700.0,1.28
701.0,1.271
702.0,1.275
703.0,1.278
704.0,1.311
705.0,1.313
706.0,1.309
707.0,1.309
708.0,1.313
709.0,1.31
710.0,1.313
711.0,1.31
712.0,1.304
713.0,1.293
714.0,1.297
715.0,1.261
716.0,1.264
717.0,1.143
718.0,1.059
719.0,0.9763
720.0,1.025
721.0,1.102
722.0,1.228
723.0,1.161
724.0,1.066
725.0,1.055
726.0,1.1
727.0,1.106
728.0,1.055
729.0,1.077
730.0,1.139
731.0,1.096
732.0,1.154
733.0,1.205
734.0,1.229
735.0,1.206
736.0,1.204
737.0,1.21
738.0,1.218
739.0,1.194
740.0,1.222
741.0,1.208
742.0,1.207
743.0,1.237
744.0,1.233
745.0,1.232
746.0,1.238
747.0,1.241
748.0,1.238
749.0,1.224
750.0,1.224
751.0,1.211
752.0,1.216
753.0,1.223
754.0,1.226
755.0,1.219
756.0,1.218
757.0,1.22
758.0,1.205
759.0,1.188
760.0,0.3416
761.0,0.2175
762.0,0.7408
763.0,0.4591
764.0,0.6093
765.0,0.7417
766.0,0.845
767.0,1.004
768.0,1.111
769.0,1.124
770.0,1.15
771.0,1.154
772.0,1.155
773.0,1.163
774.0,1.157
775.0,1.148
776.0,1.162
777.0,1.147
778.0,1.14
779.0,1.141
780.0,1.135
781.0,1.136
782.0,1.143
783.0,1.123
784.0,1.129
785.0,1.121
786.0,1.134
787.0,1.119
788.0,1.108
789.0,1.108
790.0,1.086
791.0,1.088
792.0,1.08
793.0,1.063
794.0,1.074
795.0,1.094
796.0,1.07
797.0,1.072
798.0,1.094
799.0,1.089
800.0,1.073
801.0,1.071
802.0,1.068
803.0,1.061
804.0,1.062
805.0,1.056
806.0,1.081
807.0,1.069
808.0,1.07
809.0,1.053
810.0,1.047
811.0,1.053
812.0,1.03
813.0,1.013
814.0,0.9157
815.0,0.9095
816.0,0.8506
817.0,0.863
818.0,0.8362
819.0,0.9134
820.0,0.8689
821.0,0.9868
822.0,0.9635
823.0,0.7026
824.0,0.9452
825.0,0.9717
826.0,0.9434
827.0,0.9864
828.0,0.8624
829.0,0.9362
830.0,0.9268
831.0,0.9291
832.0,0.9055
833.0,0.9495
834.0,0.9247
835.0,0.9975
836.0,0.9662
837.0,0.9997
838.0,0.9735
839.0,0.9838
840.0,1.004
841.0,0.9921
842.0,0.991
843.0,0.9872
844.0,0.9754
845.0,1.006
846.0,1.001
847.0,0.9814
848.0,0.9769
849.0,0.9492
850.0,0.9093
851.0,0.9644
852.0,0.957
853.0,0.92
854.0,0.7954
855.0,0.8725
856.0,0.9542
857.0,0.9745
858.0,0.9678
859.0,0.9681
860.0,0.9695
861.0,0.9644
862.0,0.9794
863.0,1.003
864.0,0.9524
865.0,0.944
866.0,0.8489
867.0,0.8859
868.0,0.964
869.0,0.944
870.0,0.971
871.0,0.9578
872.0,0.9544
873.0,0.9526
874.0,0.9413
875.0,0.9223
876.0,0.9321
877.0,0.9414
878.0,0.952
879.0,0.9373
880.0,0.9173
881.0,0.9043
882.0,0.9241
883.0,0.9264
884.0,0.9225
885.0,0.9295
886.0,0.8885
887.0,0.896
888.0,0.9106
889.0,0.9187
890.0,0.9137
891.0,0.9109
892.0,0.888
893.0,0.8647
894.0,0.8425
895.0,0.8067
896.0,0.7654
897.0,0.6726
898.0,0.7251
899.0,0.5706
900.0,0.7335
901.0,0.5969
902.0,0.676
903.0,0.6903
904.0,0.8367
905.0,0.8128
906.0,0.7647
907.0,0.6435
908.0,0.6534
909.0,0.6968
910.0,0.6354
911.0,0.666
912.0,0.6915
913.0,0.6458
914.0,0.6371
915.0,0.688
916.0,0.5893
917.0,0.7255
918.0,0.6045
919.0,0.7342
920.0,0.7326
921.0,0.7591
922.0,0.6924
923.0,0.7327
924.0,0.7102
925.0,0.6954
926.0,0.7027
927.0,0.7735
928.0,0.6053
929.0,0.5628
930.0,0.4593
931.0,0.4321
932.0,0.3284
933.0,0.2768
934.0,0.1727
935.0,0.2751
936.0,0.1848
937.0,0.1893
938.0,0.2274
939.0,0.4189
940.0,0.4921
941.0,0.3877
942.0,0.4381
943.0,0.3012
944.0,0.3061
945.0,0.3971
946.0,0.2199
947.0,0.4032
948.0,0.2996
949.0,0.5219
950.0,0.1738
951.0,0.5109
952.0,0.2984
953.0,0.3698
954.0,0.4364
955.0,0.372
956.0,0.3544
957.0,0.3013
958.0,0.4771
959.0,0.397
960.0,0.4441
961.0,0.485
962.0,0.461
963.0,0.5194
964.0,0.4801
965.0,0.516
966.0,0.5191
967.0,0.5179
968.0,0.6547
969.0,0.6861
970.0,0.6361
971.0,0.7108
972.0,0.6833
973.0,0.6123
974.0,0.584
975.0,0.5992
976.0,0.578
977.0,0.64
978.0,0.6154
979.0,0.6388
980.0,0.6046
981.0,0.7062
982.0,0.6814
983.0,0.6579
984.0,0.7209
985.0,0.6786
986.0,0.7296
987.0,0.7195
988.0,0.7183
989.0,0.725
990.0,0.7136
991.0,0.7277
992.0,0.7315
993.0,0.7194
994.0,0.7309
995.0,0.7294
996.0,0.7268
997.0,0.7276
998.0,0.7244
999.0,0.7216
1000.0,0.7176
1001.0,0.7254
1002.0,0.7096
1003.0,0.7129
1004.0,0.6966
1005.0,0.6696
1006.0,0.6966
1007.0,0.7109
1008.0,0.7079
1009.0,0.7049
1010.0,0.7024
1011.0,0.7073
1012.0,0.702
1013.0,0.7054
1014.0,0.7005
1015.0,0.696
1016.0,0.693
1017.0,0.6949
1018.0,0.6918
1019.0,0.6786
1020.0,0.6885
1021.0,0.6873
1022.0,0.6825
1023.0,0.6899
1024.0,0.6826
1025.0,0.6889
1026.0,0.6864
1027.0,0.6848
1028.0,0.6835
1029.0,0.6756
1030.0,0.6796
1031.0,0.6772
1032.0,0.675
1033.0,0.6649
1034.0,0.6649
1035.0,0.667
1036.0,0.6707
1037.0,0.6597
1038.0,0.6627
1039.0,0.6625
1040.0,0.6598
1041.0,0.6626
1042.0,0.658
1043.0,0.656
1044.0,0.6584
1045.0,0.6496
1046.0,0.6426
1047.0,0.6485
1048.0,0.6522
1049.0,0.65
1050.0,0.6471
1051.0,0.6464
1052.0,0.6439
1053.0,0.639
1054.0,0.6406
1055.0,0.6412
1056.0,0.6393
1057.0,0.6375
1058.0,0.622
1059.0,0.623
1060.0,0.6222
1061.0,0.6216
1062.0,0.6251
1063.0,0.6192
1064.0,0.6264
1065.0,0.6225
1066.0,0.6098
1067.0,0.6178
1068.0,0.6048
1069.0,0.5858
1070.0,0.6061
1071.0,0.6141
1072.0,0.6082
1073.0,0.5992
1074.0,0.6131
1075.0,0.5868
1076.0,0.6129
1077.0,0.6045
1078.0,0.5939
1079.0,0.6024
1080.0,0.5953
1081.0,0.5782
1082.0,0.5838
1083.0,0.5847
1084.0,0.5781
1085.0,0.5962
1086.0,0.5513
1087.0,0.5636
1088.0,0.5849
1089.0,0.5712
1090.0,0.5617
1091.0,0.5843
1092.0,0.5818
1093.0,0.5065
1094.0,0.5339
1095.0,0.5256
1096.0,0.5073
1097.0,0.5682
1098.0,0.5006
1099.0,0.5201
1100.0,0.4897
1101.0,0.494
1102.0,0.4754
1103.0,0.4734
1104.0,0.4737
1105.0,0.5096
1106.0,0.4128
1107.0,0.4885
1108.0,0.428
1109.0,0.4261
1110.0,0.4858
1111.0,0.3487
1112.0,0.4218
1113.0,0.2888
1114.0,0.32
1115.0,0.266
1116.0,0.2252
1117.0,0.09787
1118.0,0.2399
1119.0,0.1307
1120.0,0.1646
1121.0,0.2108
1122.0,0.09902
1123.0,0.1484
1124.0,0.1254
1125.0,0.1608
1126.0,0.0664
1127.0,0.1804
1128.0,0.119
1129.0,0.1244
1130.0,0.08731
1131.0,0.3165
1132.0,0.2532
1133.0,0.174
1134.0,0.05362
1135.0,0.01973
1136.0,0.15
1137.0,0.3145
1138.0,0.225
1139.0,0.3109
1140.0,0.2692
1141.0,0.2138
1142.0,0.2406
1143.0,0.3314
1144.0,0.1289
1145.0,0.1673
1146.0,0.1806
1147.0,0.07466
1148.0,0.2871
1149.0,0.237
1150.0,0.1383
1151.0,0.2235
1152.0,0.266
1153.0,0.2525
1154.0,0.1649
1155.0,0.3247
1156.0,0.2971
1157.0,0.3268
1158.0,0.3229
1159.0,0.3418
1160.0,0.3002
1161.0,0.3555
1162.0,0.3583
1163.0,0.4605
1164.0,0.4037
1165.0,0.3887
1166.0,0.3808
1167.0,0.4103
1168.0,0.4164
1169.0,0.4231
1170.0,0.4532
1171.0,0.4431
1172.0,0.4473
1173.0,0.4523
1174.0,0.342
1175.0,0.4391
1176.0,0.4739
1177.0,0.4606
1178.0,0.3605
1179.0,0.4773
1180.0,0.436
1181.0,0.4488
1182.0,0.3255
1183.0,0.4397
1184.0,0.4173
1185.0,0.4071
1186.0,0.4677
1187.0,0.45
1188.0,0.3322
1189.0,0.4204
1190.0,0.4571
1191.0,0.4416
1192.0,0.4626
1193.0,0.4461
1194.0,0.4579
1195.0,0.4384
1196.0,0.4258
1197.0,0.455
1198.0,0.4208
1199.0,0.3705
1200.0,0.441
1201.0,0.4295
1202.0,0.4247
1203.0,0.4212
1204.0,0.3757
1205.0,0.4309
1206.0,0.4689
1207.0,0.4248
1208.0,0.4144
1209.0,0.422
1210.0,0.4367
1211.0,0.4208
1212.0,0.4209
1213.0,0.4561
1214.0,0.4283
1215.0,0.4215
1216.0,0.4544
1217.0,0.4448
1218.0,0.451
1219.0,0.4465
1220.0,0.4511
1221.0,0.4543
1222.0,0.444
1223.0,0.4408
1224.0,0.4398
1225.0,0.4515
1226.0,0.453
1227.0,0.4241
1228.0,0.454
1229.0,0.453
1230.0,0.4465
1231.0,0.4554
1232.0,0.4528
1233.0,0.4421
1234.0,0.454
1235.0,0.4518
1236.0,0.4545
1237.0,0.4501
1238.0,0.453
1239.0,0.4472
1240.0,0.4487
1241.0,0.4478
1242.0,0.4458
1243.0,0.4421
1244.0,0.4456
1245.0,0.4473
1246.0,0.4446
1247.0,0.4432
1248.0,0.4435
1249.0,0.4444
1250.0,0.442
1251.0,0.4371
1252.0,0.4363
1253.0,0.4344
1254.0,0.4313
1255.0,0.4363
1256.0,0.4271
1257.0,0.4254
1258.0,0.4309
1259.0,0.4201
1260.0,0.4217
1261.0,0.4041
1262.0,0.3952
1263.0,0.3961
1264.0,0.3732
1265.0,0.3935
1266.0,0.3831
1267.0,0.3867
1268.0,0.3717
1269.0,0.2656
1270.0,0.3865
1271.0,0.402
1272.0,0.4026
1273.0,0.3991
1274.0,0.3994
1275.0,0.4041
1276.0,0.4068
1277.0,0.4082
1278.0,0.4135
1279.0,0.41
1280.0,0.4046
1281.0,0.385
1282.0,0.3691
1283.0,0.3979
1284.0,0.4078
1285.0,0.4102
1286.0,0.4147
1287.0,0.4103
1288.0,0.4097
1289.0,0.4004
1290.0,0.4058
1291.0,0.4108
1292.0,0.393
1293.0,0.4046
1294.0,0.4021
1295.0,0.4019
1296.0,0.3883
1297.0,0.3712
1298.0,0.392
1299.0,0.4044
1300.0,0.3553
1301.0,0.3635
1302.0,0.3905
1303.0,0.3492
1304.0,0.3102
1305.0,0.3836
1306.0,0.3843
1307.0,0.3126
1308.0,0.3479
1309.0,0.3822
1310.0,0.3072
1311.0,0.3363
1312.0,0.3292
1313.0,0.3247
1314.0,0.2951
1315.0,0.294
1316.0,0.333
1317.0,0.3168
1318.0,0.3393
1319.0,0.2801
1320.0,0.2681
1321.0,0.3072
1322.0,0.3123
1323.0,0.2475
1324.0,0.2746
1325.0,0.3288
1326.0,0.2902
1327.0,0.2788
1328.0,0.2444
1329.0,0.1942
1330.0,0.2472
1331.0,0.1627
1332.0,0.1633
1333.0,0.2234
1334.0,0.1842
1335.0,0.2463
1336.0,0.2014
1337.0,0.1824
1338.0,0.1965
1339.0,0.194
1340.0,0.1854
1341.0,0.1885
1342.0,0.1975
1343.0,0.1506
1344.0,0.09007
1345.0,0.1274
1346.0,0.07546
1347.0,0.07872
1348.0,0.008058
1349.0,0.02516
1350.0,0.02369
1351.0,0.008598
1352.0,0.003443
1353.0,0.0002898
1354.0,0.0007415
1355.0,1.57e-05
1356.0,0.0001482
1357.0,0.0002214
1358.0,1.79e-05
1359.0,4.495e-06
1360.0,1.048e-05
1361.0,5.367e-08
1362.0,3.007e-10
1363.0,1.634e-05
1364.0,7.489e-06
1365.0,2.288e-10
1366.0,5.892e-05
1367.0,2.274e-05
1368.0,8.519e-12
1369.0,2.969e-06
1370.0,1.951e-06
1371.0,1.656e-07
1372.0,1.267e-05
1373.0,0.0001542
1374.0,0.0005138
1375.0,0.0009105
1376.0,0.0006575
1377.0,0.0003277
1378.0,0.002639
1379.0,0.0001416
1380.0,0.0002436
1381.0,8.2e-06
1382.0,1.236e-05
1383.0,2.594e-07
1384.0,3.73e-06
1385.0,8.606e-06
1386.0,1.332e-05
1387.0,0.0006221
1388.0,1.383e-05
1389.0,0.001509
1390.0,0.001285
1391.0,0.0009417
1392.0,7.214e-05
1393.0,0.0003141
1394.0,0.0002651
1395.0,3.092e-06
1396.0,6.369e-08
1397.0,0.000144
1398.0,0.003026
1399.0,0.001933
1400.0,4.011e-08
1401.0,9.916e-08
1402.0,0.003555
1403.0,0.004792
1404.0,0.001515
1405.0,1.936e-06
1406.0,0.004415
1407.0,0.0003804
1408.0,0.003555
1409.0,0.001517
1410.0,0.001086
1411.0,0.004165
1412.0,0.005013
1413.0,0.03528
1414.0,0.0008368
1415.0,0.0004546
1416.0,0.04823
1417.0,0.01839
1418.0,0.02093
1419.0,0.003467
1420.0,0.01299
1421.0,0.01447
1422.0,0.06166
1423.0,0.01308
1424.0,0.02359
1425.0,0.03574
1426.0,0.03746
1427.0,0.06149
1428.0,0.007805
1429.0,0.04909
1430.0,0.0761
1431.0,0.08169
1432.0,0.006272
1433.0,0.05477
1434.0,0.0293
1435.0,0.03411
1436.0,0.05793
1437.0,0.04457
1438.0,0.02106
1439.0,0.07526
1440.0,0.05696
1441.0,0.04701
1442.0,0.05112
1443.0,0.05876
1444.0,0.07935
1445.0,0.06627
1446.0,0.03115
1447.0,0.04915
1448.0,0.1347
1449.0,0.1213
1450.0,0.03637
1451.0,0.01582
1452.0,0.07704
1453.0,0.09851
1454.0,0.1546
1455.0,0.07838
1456.0,0.1076
1457.0,0.1355
1458.0,0.1516
1459.0,0.1804
1460.0,0.09856
1461.0,0.1064
1462.0,0.1489
1463.0,0.05323
1464.0,0.1697
1465.0,0.1036
1466.0,0.08062
1467.0,0.04673
1468.0,0.09262
