interpolation:linear
wavelength,value
280.0,4.952e-27
280.5,2.58e-25
281.0,1.668e-24
281.5,8.306999999999999e-23
282.0,8.789e-22
282.5,4.0840000000000004e-21
283.0,2.2240000000000002e-20
283.5,4.6560000000000004e-20
284.0,1.92e-18
284.5,8.204e-18
285.0,2.422e-17
285.5,2.443e-16
286.0,1.279e-15
286.5,9.193e-15
287.0,3.651e-14
287.5,2.079e-13
288.0,1.23e-12
288.5,5.646e-12
289.0,2.194e-11
289.5,9.6e-11
290.0,3.555e-10
290.5,9.179e-10
291.0,2.573e-09
291.5,1.015e-08
292.0,2.98e-08
292.5,4.872e-08
293.0,1.256e-07
293.5,3.868e-07
294.0,7.16e-07
294.5,1.359e-06
295.0,2.628e-06
295.5,7.143e-06
296.0,1.391e-05
296.5,1.953e-05
297.0,2.645e-05
297.5,7.027e-05
298.0,0.0001094
298.5,0.0001087
299.0,0.0002363
299.5,0.0003767
300.0,0.0004052
300.5,0.0005713
301.0,0.0009783
301.5,0.001475
302.0,0.00123
302.5,0.002396
303.0,0.004264
303.5,0.005325
304.0,0.004941
304.5,0.007033
305.0,0.009925
305.5,0.01088
306.0,0.0104
306.5,0.01263
307.0,0.01752
307.5,0.02182
308.0,0.02295
308.5,0.02634
309.0,0.02361
309.5,0.02673
310.0,0.02676
310.5,0.04342
311.0,0.05431
311.5,0.05254
312.0,0.0515
312.5,0.06186
313.0,0.06683
313.5,0.06602
314.0,0.08096
314.5,0.06961
315.0,0.09144
315.5,0.07847
316.0,0.0668
316.5,0.09374
317.0,0.1172
317.5,0.1238
318.0,0.09516
318.5,0.114
319.0,0.1332
319.5,0.1131
320.0,0.1382
320.5,0.1665
321.0,0.1431
321.5,0.1374
322.0,0.154
322.5,0.1344
323.0,0.1308
323.5,0.1537
324.0,0.1795
324.5,0.1856
325.0,0.1675
325.5,0.2114
326.0,0.2522
326.5,0.2495
327.0,0.2517
327.5,0.2464
328.0,0.2255
328.5,0.232
329.0,0.2729
329.5,0.3092
330.0,0.3153
330.5,0.2582
331.0,0.266
331.5,0.2682
332.0,0.2856
332.5,0.2814
333.0,0.2834
333.5,0.2616
334.0,0.2699
334.5,0.3079
335.0,0.2879
335.5,0.3279
336.0,0.2279
336.5,0.2776
337.0,0.2304
337.5,0.2887
338.0,0.2793
338.5,0.3163
339.0,0.3163
339.5,0.3044
340.0,0.3671
340.5,0.3319
341.0,0.3195
341.5,0.2972
342.0,0.3575
342.5,0.3365
343.0,0.3699
343.5,0.3485
344.0,0.2619
344.5,0.2601
345.0,0.3496
345.5,0.3596
346.0,0.3075
346.5,0.35
347.0,0.3759
347.5,0.3047
348.0,0.3502
348.5,0.3521
349.0,0.3281
349.5,0.3259
350.0,0.4047
350.5,0.4285
351.0,0.3836
351.5,0.3723
352.0,0.4027
352.5,0.3161
353.0,0.3999
353.5,0.4295
354.0,0.4476
354.5,0.4556
355.0,0.4555
355.5,0.413
356.0,0.4337
356.5,0.3716
357.0,0.3081
357.5,0.3785
358.0,0.301
358.5,0.2581
359.0,0.3622
359.5,0.4628
360.0,0.4923
360.5,0.3949
361.0,0.3612
361.5,0.4171
362.0,0.3618
362.5,0.5021
363.0,0.4523
363.5,0.4178
364.0,0.5125
364.5,0.4394
365.0,0.4488
365.5,0.565
366.0,0.6003
366.5,0.5657
367.0,0.5525
367.5,0.575
368.0,0.5046
368.5,0.5106
369.0,0.5529
369.5,0.591
370.0,0.6318
370.5,0.4917
371.0,0.5268
371.5,0.6609
372.0,0.4398
372.5,0.5288
373.0,0.5393
373.5,0.3518
374.0,0.5125
374.5,0.4255
375.0,0.4147
375.5,0.6208
376.0,0.5159
376.5,0.5361
377.0,0.569
377.5,0.6673
378.0,0.7252
378.5,0.6873
379.0,0.5687
379.5,0.5209
380.0,0.543
380.5,0.6593
381.0,0.6623
381.5,0.5263
382.0,0.4685
382.5,0.4003
383.0,0.3715
383.5,0.3587
384.0,0.3966
384.5,0.5846
385.0,0.581
385.5,0.5423
386.0,0.4655
386.5,0.6129
387.0,0.5104
387.5,0.5746
388.0,0.5317
388.5,0.5268
389.0,0.5699
389.5,0.6918
390.0,0.6958
390.5,0.6417
391.0,0.7569
391.5,0.7738
392.0,0.6531
392.5,0.5859
393.0,0.3267
393.5,0.2379
394.0,0.4851
394.5,0.618
395.0,0.7556
395.5,0.7691
396.0,0.6682
396.5,0.3913
397.0,0.2943
397.5,0.5997
398.0,0.8415
398.5,0.8714
399.0,0.9452
399.5,0.9438
400.0,0.982
401.0,1.012
402.0,1.071
403.0,1.021
404.0,1.009
405.0,1.012
406.0,0.999
407.0,0.9861
408.0,1.028
409.0,1.104
410.0,0.9672
411.0,1.051
412.0,1.132
413.0,1.107
414.0,1.124
415.0,1.13
416.0,1.153
417.0,1.128
418.0,1.11
419.0,1.128
420.0,1.126
421.0,1.182
422.0,1.126
423.0,1.103
424.0,1.17
425.0,1.171
426.0,1.143
427.0,1.124
428.0,1.098
429.0,1.042
430.0,0.9142
431.0,0.9086
432.0,1.176
433.0,1.185
434.0,1.103
435.0,1.155
436.0,1.303
437.0,1.288
438.0,1.175
439.0,1.219
440.0,1.26
441.0,1.308
442.0,1.406
443.0,1.373
444.0,1.405
445.0,1.378
446.0,1.317
447.0,1.426
448.0,1.452
449.0,1.46
450.0,1.503
451.0,1.562
452.0,1.508
453.0,1.421
454.0,1.485
455.0,1.497
456.0,1.536
457.0,1.564
458.0,1.514
459.0,1.509
460.0,1.516
461.0,1.553
462.0,1.567
463.0,1.559
464.0,1.535
465.0,1.517
466.0,1.534
467.0,1.509
468.0,1.529
469.0,1.54
470.0,1.493
471.0,1.493
472.0,1.575
473.0,1.557
474.0,1.563
475.0,1.579
476.0,1.535
477.0,1.542
478.0,1.587
479.0,1.579
480.0,1.584
481.0,1.616
482.0,1.626
483.0,1.607
484.0,1.576
485.0,1.503
486.0,1.315
487.0,1.38
488.0,1.516
489.0,1.523
490.0,1.604
491.0,1.578
492.0,1.492
493.0,1.542
494.0,1.56
495.0,1.575
496.0,1.586
497.0,1.613
498.0,1.539
499.0,1.561
500.0,1.518
501.0,1.492
502.0,1.474
503.0,1.537
504.0,1.502
505.0,1.555
506.0,1.607
507.0,1.531
508.0,1.484
509.0,1.526
510.0,1.519
511.0,1.561
512.0,1.579
513.0,1.496
514.0,1.487
515.0,1.474
516.0,1.471
517.0,1.309
518.0,1.377
519.0,1.446
520.0,1.5
521.0,1.516
522.0,1.519
523.0,1.493
524.0,1.548
525.0,1.568
526.0,1.499
527.0,1.415
528.0,1.498
529.0,1.581
530.0,1.559
531.0,1.584
532.0,1.531
533.0,1.487
534.0,1.532
535.0,1.566
536.0,1.582
537.0,1.52
538.0,1.548
539.0,1.536
540.0,1.474
541.0,1.486
542.0,1.534
543.0,1.518
544.0,1.546
545.0,1.542
546.0,1.551
547.0,1.551
548.0,1.533
549.0,1.538
550.0,1.558
551.0,1.54
552.0,1.551
553.0,1.525
554.0,1.562
555.0,1.567
556.0,1.547
557.0,1.501
558.0,1.491
559.0,1.464
560.0,1.484
561.0,1.504
562.0,1.495
563.0,1.537
564.0,1.497
565.0,1.485
566.0,1.464
567.0,1.494
568.0,1.482
569.0,1.45
570.0,1.451
571.0,1.442
572.0,1.479
573.0,1.496
574.0,1.492
575.0,1.466
576.0,1.453
577.0,1.469
578.0,1.447
579.0,1.453
580.0,1.479
581.0,1.486
582.0,1.514
583.0,1.517
584.0,1.531
585.0,1.494
586.0,1.464
587.0,1.497
588.0,1.465
589.0,1.304
590.0,1.364
591.0,1.441
592.0,1.425
593.0,1.444
594.0,1.436
595.0,1.403
596.0,1.454
597.0,1.44
598.0,1.436
599.0,1.437
600.0,1.439
601.0,1.427
602.0,1.417
603.0,1.441
604.0,1.465
605.0,1.458
606.0,1.452
607.0,1.466
608.0,1.45
609.0,1.453
610.0,1.443
611.0,1.45
612.0,1.446
613.0,1.428
614.0,1.409
615.0,1.44
616.0,1.392
617.0,1.39
618.0,1.444
619.0,1.429
620.0,1.439
621.0,1.441
622.0,1.425
623.0,1.404
624.0,1.381
625.0,1.378
626.0,1.399
627.0,1.416
628.0,1.336
629.0,1.388
630.0,1.357
631.0,1.383
632.0,1.367
633.0,1.407
634.0,1.392
635.0,1.413
636.0,1.394
637.0,1.417
638.0,1.43
639.0,1.414
640.0,1.4
641.0,1.399
642.0,1.393
643.0,1.412
644.0,1.407
645.0,1.41
646.0,1.379
647.0,1.367
648.0,1.369
649.0,1.343
650.0,1.345
651.0,1.403
652.0,1.35
653.0,1.385
654.0,1.37
655.0,1.321
656.0,1.17
657.0,1.201
658.0,1.345
659.0,1.355
660.0,1.36
661.0,1.37
662.0,1.374
663.0,1.347
664.0,1.362
665.0,1.363
666.0,1.363
667.0,1.362
668.0,1.362
669.0,1.384
670.0,1.378
671.0,1.378
672.0,1.366
673.0,1.387
674.0,1.381
675.0,1.369
676.0,1.379
677.0,1.365
678.0,1.369
679.0,1.347
680.0,1.358
681.0,1.349
682.0,1.348
683.0,1.346
684.0,1.339
685.0,1.351
686.0,1.343
687.0,0.9484
688.0,1.085
689.0,1.088
690.0,1.132
691.0,1.182
692.0,1.217
693.0,1.208
694.0,1.199
695.0,1.242
696.0,1.244
697.0,1.311
698.0,1.291
699.0,1.266
700.0,1.251
701.0,1.241
702.0,1.247
703.0,1.25
704.0,1.287
705.0,1.289
706.0,1.287
707.0,1.287
708.0,1.291
709.0,1.291
710.0,1.292
711.0,1.29
712.0,1.285
713.0,1.273
714.0,1.278
715.0,1.24
716.0,1.242
717.0,1.098
718.0,1.012
719.0,0.9297
720.0,0.9754
721.0,1.064
722.0,1.203
723.0,1.128
724.0,1.025
725.0,1.011
726.0,1.057
727.0,1.068
728.0,1.01
729.0,1.041
730.0,1.101
731.0,1.056
732.0,1.122
733.0,1.18
734.0,1.206
735.0,1.183
736.0,1.181
737.0,1.186
738.0,1.2
739.0,1.177
740.0,1.206
741.0,1.193
742.0,1.194
743.0,1.224
744.0,1.22
745.0,1.22
746.0,1.226
747.0,1.229
748.0,1.226
749.0,1.212
750.0,1.212
751.0,1.2
752.0,1.205
753.0,1.211
754.0,1.214
755.0,1.207
756.0,1.207
757.0,1.209
758.0,1.194
759.0,1.173
760.0,0.2503
761.0,0.1432
762.0,0.6568
763.0,0.3613
764.0,0.5139
765.0,0.6574
766.0,0.7805
767.0,0.9585
768.0,1.086
769.0,1.104
770.0,1.136
771.0,1.143
772.0,1.145
773.0,1.153
774.0,1.148
775.0,1.139
776.0,1.153
777.0,1.138
778.0,1.131
779.0,1.132
780.0,1.126
781.0,1.127
782.0,1.134
783.0,1.115
784.0,1.12
785.0,1.112
786.0,1.125
787.0,1.107
788.0,1.095
789.0,1.095
790.0,1.069
791.0,1.075
792.0,1.067
793.0,1.05
794.0,1.065
795.0,1.084
796.0,1.055
797.0,1.057
798.0,1.084
799.0,1.078
800.0,1.06
801.0,1.058
802.0,1.055
803.0,1.048
804.0,1.049
805.0,1.044
806.0,1.072
807.0,1.059
808.0,1.06
809.0,1.042
810.0,1.035
811.0,1.038
812.0,1.011
813.0,0.9924
814.0,0.8833
815.0,0.8776
816.0,0.8185
817.0,0.8323
818.0,0.8035
819.0,0.8895
820.0,0.8413
821.0,0.9714
822.0,0.9457
823.0,0.6626
824.0,0.9225
825.0,0.9555
826.0,0.923
827.0,0.9702
828.0,0.8335
829.0,0.9169
830.0,0.9061
831.0,0.909
832.0,0.8832
833.0,0.9341
834.0,0.9047
835.0,0.9863
836.0,0.9489
837.0,0.9889
838.0,0.9603
839.0,0.9737
840.0,0.9946
841.0,0.9815
842.0,0.9823
843.0,0.9804
844.0,0.9676
845.0,0.9993
846.0,0.9948
847.0,0.9759
848.0,0.9706
849.0,0.9431
850.0,0.9036
851.0,0.9574
852.0,0.9505
853.0,0.9145
854.0,0.7901
855.0,0.8675
856.0,0.9483
857.0,0.9692
858.0,0.9623
859.0,0.9629
860.0,0.9645
861.0,0.9594
862.0,0.9745
863.0,0.9976
864.0,0.9477
865.0,0.9395
866.0,0.8448
867.0,0.8817
868.0,0.9595
869.0,0.9396
870.0,0.9664
871.0,0.9534
872.0,0.95
873.0,0.9482
874.0,0.937
875.0,0.9181
876.0,0.9278
877.0,0.9372
878.0,0.9475
879.0,0.933
880.0,0.9131
881.0,0.8997
882.0,0.9193
883.0,0.922
884.0,0.918
885.0,0.925
886.0,0.8826
887.0,0.8913
888.0,0.905
889.0,0.9145
890.0,0.9079
891.0,0.9059
892.0,0.8811
893.0,0.8552
894.0,0.8284
895.0,0.7868
896.0,0.743
897.0,0.6437
898.0,0.6994
899.0,0.5386
900.0,0.7129
901.0,0.5643
902.0,0.6536
903.0,0.6629
904.0,0.8227
905.0,0.7962
906.0,0.7466
907.0,0.6147
908.0,0.6257
909.0,0.674
910.0,0.6029
911.0,0.6385
912.0,0.666
913.0,0.6122
914.0,0.6059
915.0,0.6562
916.0,0.5575
917.0,0.7002
918.0,0.5719
919.0,0.7112
920.0,0.7151
921.0,0.743
922.0,0.669
923.0,0.7175
924.0,0.6861
925.0,0.6713
926.0,0.6787
927.0,0.7553
928.0,0.567
929.0,0.521
930.0,0.4148
931.0,0.3922
932.0,0.2878
933.0,0.2368
934.0,0.1357
935.0,0.24
936.0,0.1536
937.0,0.1561
938.0,0.1905
939.0,0.3802
940.0,0.4537
941.0,0.3474
942.0,0.3992
943.0,0.2664
944.0,0.2772
945.0,0.3574
946.0,0.1871
947.0,0.3603
948.0,0.2656
949.0,0.4773
950.0,0.1405
951.0,0.4691
952.0,0.2588
953.0,0.3298
954.0,0.3996
955.0,0.3331
956.0,0.3209
957.0,0.2599
958.0,0.448
959.0,0.3612
960.0,0.4046
961.0,0.4502
962.0,0.4265
963.0,0.4881
964.0,0.4484
965.0,0.486
966.0,0.4869
967.0,0.4852
968.0,0.6383
969.0,0.6677
970.0,0.6149
971.0,0.6986
972.0,0.6693
973.0,0.5881
974.0,0.559
975.0,0.5782
976.0,0.5519
977.0,0.6225
978.0,0.5937
979.0,0.6201
980.0,0.5842
981.0,0.6946
982.0,0.6661
983.0,0.6407
984.0,0.7136
985.0,0.6636
986.0,0.7249
987.0,0.7122
988.0,0.7109
989.0,0.722
990.0,0.7066
991.0,0.7244
992.0,0.7285
993.0,0.7137
994.0,0.7282
995.0,0.7271
996.0,0.7241
997.0,0.7251
998.0,0.7218
999.0,0.7191
1000.0,0.7144
1001.0,0.723
1002.0,0.7044
1003.0,0.7104
1004.0,0.6934
1005.0,0.6675
1006.0,0.6939
1007.0,0.7085
1008.0,0.7049
1009.0,0.7014
1010.0,0.6986
1011.0,0.705
1012.0,0.6991
1013.0,0.7032
1014.0,0.6983
1015.0,0.6938
1016.0,0.6907
1017.0,0.6925
1018.0,0.6898
1019.0,0.6756
1020.0,0.6863
1021.0,0.6853
1022.0,0.6802
1023.0,0.6875
1024.0,0.679
1025.0,0.6869
1026.0,0.6841
1027.0,0.6825
1028.0,0.6811
1029.0,0.6732
1030.0,0.6776
1031.0,0.675
1032.0,0.673
1033.0,0.6629
1034.0,0.6629
1035.0,0.665
1036.0,0.6686
1037.0,0.6577
1038.0,0.6606
1039.0,0.6603
1040.0,0.6577
1041.0,0.6604
1042.0,0.6558
1043.0,0.6538
1044.0,0.6561
1045.0,0.6473
1046.0,0.6402
1047.0,0.646
1048.0,0.6496
1049.0,0.6473
1050.0,0.6444
1051.0,0.6436
1052.0,0.641
1053.0,0.636
1054.0,0.6374
1055.0,0.6379
1056.0,0.6358
1057.0,0.6339
1058.0,0.6184
1059.0,0.6191
1060.0,0.6182
1061.0,0.6176
1062.0,0.6209
1063.0,0.6149
1064.0,0.6221
1065.0,0.6179
1066.0,0.6055
1067.0,0.6134
1068.0,0.6002
1069.0,0.5815
1070.0,0.6014
1071.0,0.6104
1072.0,0.6037
1073.0,0.5949
1074.0,0.6098
1075.0,0.5807
1076.0,0.6094
1077.0,0.5993
1078.0,0.5883
1079.0,0.5995
1080.0,0.5902
1081.0,0.5719
1082.0,0.5799
1083.0,0.5815
1084.0,0.5709
1085.0,0.5915
1086.0,0.5419
1087.0,0.5578
1088.0,0.5812
1089.0,0.5647
1090.0,0.5531
1091.0,0.5797
1092.0,0.5779
1093.0,0.494
1094.0,0.5293
1095.0,0.5141
1096.0,0.4935
1097.0,0.5646
1098.0,0.4862
1099.0,0.5066
1100.0,0.4727
1101.0,0.4781
1102.0,0.4577
1103.0,0.4541
1104.0,0.4546
1105.0,0.4954
1106.0,0.3858
1107.0,0.4719
1108.0,0.4041
1109.0,0.404
1110.0,0.4683
1111.0,0.3232
1112.0,0.4007
1113.0,0.2607
1114.0,0.2907
1115.0,0.2413
1116.0,0.196
1117.0,0.07568
1118.0,0.212
1119.0,0.1081
1120.0,0.1363
1121.0,0.179
1122.0,0.07786
1123.0,0.123
1124.0,0.1039
1125.0,0.1348
1126.0,0.04942
1127.0,0.1519
1128.0,0.09354
1129.0,0.09886
1130.0,0.06616
1131.0,0.2816
1132.0,0.2221
1133.0,0.1442
1134.0,0.03889
1135.0,0.01447
1136.0,0.1215
1137.0,0.2777
1138.0,0.1964
1139.0,0.2863
1140.0,0.2418
1141.0,0.1866
1142.0,0.2133
1143.0,0.3002
1144.0,0.1082
1145.0,0.139
1146.0,0.15
1147.0,0.05534
1148.0,0.2599
1149.0,0.2095
1150.0,0.1161
1151.0,0.1949
1152.0,0.2376
1153.0,0.2298
1154.0,0.1352
1155.0,0.2989
1156.0,0.2704
1157.0,0.3014
1158.0,0.2981
1159.0,0.3198
1160.0,0.2754
1161.0,0.3352
1162.0,0.3372
1163.0,0.4482
1164.0,0.3871
1165.0,0.3678
1166.0,0.3634
1167.0,0.3944
1168.0,0.3994
1169.0,0.4079
1170.0,0.4411
1171.0,0.4304
1172.0,0.4369
1173.0,0.4402
1174.0,0.3206
1175.0,0.429
1176.0,0.4684
1177.0,0.4517
1178.0,0.3442
1179.0,0.4721
1180.0,0.4249
1181.0,0.4382
1182.0,0.3077
1183.0,0.4307
1184.0,0.4054
1185.0,0.3928
1186.0,0.4604
1187.0,0.4402
1188.0,0.3135
1189.0,0.4105
1190.0,0.4499
1191.0,0.4301
1192.0,0.4559
1193.0,0.4379
1194.0,0.4506
1195.0,0.4283
1196.0,0.4138
1197.0,0.4498
1198.0,0.4131
1199.0,0.3561
1200.0,0.4326
1201.0,0.4189
1202.0,0.4155
1203.0,0.4121
1204.0,0.363
1205.0,0.4237
1206.0,0.4654
1207.0,0.4149
1208.0,0.407
1209.0,0.415
1210.0,0.4312
1211.0,0.4125
1212.0,0.4097
1213.0,0.4512
1214.0,0.4185
1215.0,0.4111
1216.0,0.4497
1217.0,0.4388
1218.0,0.4462
1219.0,0.4411
1220.0,0.4465
1221.0,0.4504
1222.0,0.4393
1223.0,0.4356
1224.0,0.4336
1225.0,0.4476
1226.0,0.45
1227.0,0.4176
1228.0,0.4517
1229.0,0.4501
1230.0,0.4429
1231.0,0.4539
1232.0,0.4512
1233.0,0.4378
1234.0,0.4531
1235.0,0.4505
1236.0,0.4536
1237.0,0.4481
1238.0,0.4521
1239.0,0.4463
1240.0,0.4479
1241.0,0.4463
1242.0,0.4449
1243.0,0.4412
1244.0,0.4445
1245.0,0.4463
1246.0,0.4437
1247.0,0.4421
1248.0,0.4421
1249.0,0.4433
1250.0,0.4407
1251.0,0.4354
1252.0,0.4351
1253.0,0.4323
1254.0,0.4285
1255.0,0.4348
1256.0,0.4239
1257.0,0.4218
1258.0,0.4287
1259.0,0.4152
1260.0,0.4171
1261.0,0.3962
1262.0,0.3856
1263.0,0.3864
1264.0,0.3597
1265.0,0.3839
1266.0,0.3712
1267.0,0.3765
1268.0,0.359
1269.0,0.2361
1270.0,0.3756
1271.0,0.3946
1272.0,0.3956
1273.0,0.3917
1274.0,0.3926
1275.0,0.3978
1276.0,0.4012
1277.0,0.4033
1278.0,0.41
1279.0,0.4064
1280.0,0.4012
1281.0,0.3824
1282.0,0.3677
1283.0,0.3961
1284.0,0.4058
1285.0,0.4083
1286.0,0.4134
1287.0,0.4079
1288.0,0.4075
1289.0,0.3962
1290.0,0.4038
1291.0,0.4092
1292.0,0.3874
1293.0,0.402
1294.0,0.3993
1295.0,0.3981
1296.0,0.382
1297.0,0.3628
1298.0,0.3876
1299.0,0.4022
1300.0,0.3455
1301.0,0.3551
1302.0,0.3862
1303.0,0.3405
1304.0,0.2951
1305.0,0.3787
1306.0,0.379
1307.0,0.2998
1308.0,0.3402
1309.0,0.3765
1310.0,0.2943
1311.0,0.3273
1312.0,0.3192
1313.0,0.3138
1314.0,0.2825
1315.0,0.2799
1316.0,0.3229
1317.0,0.3064
1318.0,0.3311
1319.0,0.2643
1320.0,0.2549
1321.0,0.295
1322.0,0.2988
1323.0,0.2293
1324.0,0.2592
1325.0,0.3186
1326.0,0.2763
1327.0,0.2642
1328.0,0.2292
1329.0,0.1758
1330.0,0.227
1331.0,0.1414
1332.0,0.1445
1333.0,0.2001
1334.0,0.1675
1335.0,0.2284
1336.0,0.1829
1337.0,0.1629
1338.0,0.1762
1339.0,0.1748
1340.0,0.1689
1341.0,0.1675
1342.0,0.1757
1343.0,0.1242
1344.0,0.07416
1345.0,0.1065
1346.0,0.05633
1347.0,0.05786
1348.0,0.0044
1349.0,0.01509
1350.0,0.01517
1351.0,0.004252
1352.0,0.001336
1353.0,8.103e-05
1354.0,0.0002504
1355.0,2.866e-06
1356.0,4.013e-05
1357.0,6.083e-05
1358.0,3.347e-06
1359.0,5.473e-07
1360.0,1.68e-06
1361.0,3.282e-09
1362.0,1.149e-11
1363.0,2.444e-06
1364.0,1.034e-06
1365.0,5.441e-12
1366.0,9.965e-06
1367.0,3.926e-06
1368.0,7.628e-14
1369.0,3.931e-07
1370.0,2.163e-07
1371.0,1.413e-08
1372.0,2.163e-06
1373.0,3.65e-05
1374.0,0.0001504
1375.0,0.0002737
1376.0,0.0002239
1377.0,0.0001055
1378.0,0.0009746
1379.0,4.461e-05
1380.0,6.906e-05
1381.0,1.953e-06
1382.0,2.011e-06
1383.0,3.357e-08
1384.0,4.641e-07
1385.0,1.686e-06
1386.0,1.932e-06
1387.0,0.0001671
1388.0,3.351e-06
1389.0,0.000498
1390.0,0.0004287
1391.0,0.0002942
1392.0,2.005e-05
1393.0,9.948e-05
1394.0,6.221e-05
1395.0,5.309e-07
1396.0,4.392e-09
1397.0,4.163e-05
1398.0,0.001108
1399.0,0.0007017
1400.0,2.193e-09
1401.0,7.496e-09
1402.0,0.001667
1403.0,0.002156
1404.0,0.000666
1405.0,2.841e-07
1406.0,0.001819
1407.0,0.0001562
1408.0,0.001476
1409.0,0.0005416
1410.0,0.0004115
1411.0,0.001886
1412.0,0.002441
1413.0,0.02222
1414.0,0.0003214
1415.0,0.000161
1416.0,0.03427
1417.0,0.01108
1418.0,0.0127
1419.0,0.002004
1420.0,0.007796
1421.0,0.008452
1422.0,0.04454
1423.0,0.008817
1424.0,0.01636
1425.0,0.02433
1426.0,0.02697
1427.0,0.04814
1428.0,0.004184
1429.0,0.03664
1430.0,0.06087
1431.0,0.06648
1432.0,0.003312
1433.0,0.04281
1434.0,0.02204
1435.0,0.02292
1436.0,0.04285
1437.0,0.03283
1438.0,0.01425
1439.0,0.05767
1440.0,0.04325
1441.0,0.03361
1442.0,0.03718
1443.0,0.04571
1444.0,0.06287
1445.0,0.04998
1446.0,0.02272
1447.0,0.03574
1448.0,0.1157
1449.0,0.1012
1450.0,0.02648
1451.0,0.01081
1452.0,0.06158
1453.0,0.08047
1454.0,0.1359
1455.0,0.06491
1456.0,0.08758
1457.0,0.1162
1458.0,0.1358
1459.0,0.1608
1460.0,0.08435
1461.0,0.08863
1462.0,0.1289
