interpolation:linear
wavelength,value
280.0,1.087e-21
280.5,2.5920000000000003e-20
281.0,1.259e-19
281.5,2.942e-18
282.0,1.966e-17
282.5,6.703e-17
283.0,2.596e-16
283.5,4.587e-16
284.0,8.594e-15
284.5,2.563e-14
285.0,5.129e-14
285.5,3.272e-13
286.0,1.423e-12
286.5,6.989e-12
287.0,2.096e-11
287.5,8.257e-11
288.0,3.072e-10
288.5,1.102e-09
289.0,3.319e-09
289.5,1.098e-08
290.0,3.234e-08
290.5,6.895e-08
291.0,1.535e-07
291.5,4.513e-07
292.0,1.044e-06
292.5,1.492e-06
293.0,3.236e-06
293.5,7.878e-06
294.0,1.244e-05
294.5,2.095e-05
295.0,3.484e-05
295.5,7.859e-05
296.0,0.0001347
296.5,0.0001676
297.0,0.0002062
297.5,0.0004789
298.0,0.0006688
298.5,0.0006133
299.0,0.001236
299.5,0.001747
300.0,0.001765
300.5,0.002339
301.0,0.003665
301.5,0.005141
302.0,0.004138
302.5,0.007575
303.0,0.0125
303.5,0.01495
304.0,0.01357
304.5,0.01837
305.0,0.02429
305.5,0.0256
306.0,0.02408
306.5,0.02851
307.0,0.03766
307.5,0.04489
308.0,0.04677
308.5,0.05254
309.0,0.04628
309.5,0.05007
310.0,0.04908
310.5,0.07871
311.0,0.09677
311.5,0.0928
312.0,0.08802
312.5,0.1035
313.0,0.1104
313.5,0.1099
314.0,0.1315
314.5,0.1097
315.0,0.1432
315.5,0.1242
316.0,0.1032
316.5,0.1421
317.0,0.1773
317.5,0.1878
318.0,0.1424
318.5,0.1668
319.0,0.1925
319.5,0.1658
320.0,0.2026
320.5,0.2388
321.0,0.2015
321.5,0.1928
322.0,0.2195
322.5,0.191
323.0,0.1834
323.5,0.2111
324.0,0.2454
324.5,0.255
325.0,0.2325
325.5,0.2904
326.0,0.3418
326.5,0.335
327.0,0.3382
327.5,0.3317
328.0,0.3064
328.5,0.3105
329.0,0.3616
329.5,0.408
330.0,0.4162
330.5,0.3424
331.0,0.3529
331.5,0.3534
332.0,0.3733
332.5,0.3663
333.0,0.369
333.5,0.3415
334.0,0.3521
334.5,0.3989
335.0,0.3714
335.5,0.4219
336.0,0.2928
336.5,0.357
337.0,0.2964
337.5,0.371
338.0,0.3571
338.5,0.4033
339.0,0.4024
339.5,0.3868
340.0,0.4666
340.5,0.4211
341.0,0.4041
341.5,0.3752
342.0,0.4505
342.5,0.4234
343.0,0.465
343.5,0.4377
344.0,0.3291
344.5,0.326
345.0,0.437
345.5,0.4488
346.0,0.3831
346.5,0.4354
347.0,0.4672
347.5,0.3782
348.0,0.434
348.5,0.4358
349.0,0.4055
349.5,0.4023
350.0,0.4988
350.5,0.5275
351.0,0.4718
351.5,0.4575
352.0,0.4941
352.5,0.3873
353.0,0.4893
353.5,0.5248
354.0,0.5465
354.5,0.5556
355.0,0.5549
355.5,0.5025
356.0,0.527
356.5,0.4511
357.0,0.3737
357.5,0.4587
358.0,0.3644
358.5,0.3122
359.0,0.4377
359.5,0.5588
360.0,0.5938
360.5,0.4758
361.0,0.4347
361.5,0.5013
362.0,0.4342
362.5,0.6018
363.0,0.5414
363.5,0.4996
364.0,0.6121
364.5,0.5242
365.0,0.535
365.5,0.6727
366.0,0.714
366.5,0.672
367.0,0.6558
367.5,0.6819
368.0,0.5978
368.5,0.6043
369.0,0.6538
369.5,0.6982
370.0,0.7456
370.5,0.5797
371.0,0.6205
371.5,0.7779
372.0,0.5173
372.5,0.6213
373.0,0.633
373.5,0.4125
374.0,0.6005
374.5,0.4981
375.0,0.4851
375.5,0.7256
376.0,0.6026
376.5,0.6257
377.0,0.6635
377.5,0.7775
378.0,0.8444
378.5,0.7997
379.0,0.6613
379.5,0.6054
380.0,0.6306
380.5,0.7649
381.0,0.7677
381.5,0.6094
382.0,0.542
382.5,0.4627
383.0,0.429
383.5,0.4138
384.0,0.4572
384.5,0.6734
385.0,0.6688
385.5,0.6237
386.0,0.535
386.5,0.7037
387.0,0.5857
387.5,0.6589
388.0,0.6093
388.5,0.6031
389.0,0.6521
389.5,0.7909
390.0,0.7949
390.5,0.7327
391.0,0.8636
391.5,0.8822
392.0,0.7442
392.5,0.6671
393.0,0.3717
393.5,0.2705
394.0,0.5512
394.5,0.7017
395.0,0.8574
395.5,0.8723
396.0,0.7573
396.5,0.4432
397.0,0.333
397.5,0.6782
398.0,0.9513
398.5,0.9845
399.0,1.067
399.5,1.065
400.0,1.107
401.0,1.14
402.0,1.205
403.0,1.147
404.0,1.132
405.0,1.135
406.0,1.118
407.0,1.102
408.0,1.148
409.0,1.232
410.0,1.078
411.0,1.17
412.0,1.258
413.0,1.23
414.0,1.247
415.0,1.253
416.0,1.277
417.0,1.248
418.0,1.227
419.0,1.246
420.0,1.243
421.0,1.302
422.0,1.24
423.0,1.214
424.0,1.286
425.0,1.286
426.0,1.254
427.0,1.232
428.0,1.203
429.0,1.14
430.0,0.9994
431.0,0.9927
432.0,1.283
433.0,1.292
434.0,1.202
435.0,1.258
436.0,1.418
437.0,1.4
438.0,1.277
439.0,1.324
440.0,1.367
441.0,1.418
442.0,1.523
443.0,1.487
444.0,1.52
445.0,1.49
446.0,1.423
447.0,1.54
448.0,1.567
449.0,1.574
450.0,1.619
451.0,1.682
452.0,1.622
453.0,1.527
454.0,1.596
455.0,1.608
456.0,1.648
457.0,1.677
458.0,1.623
459.0,1.616
460.0,1.623
461.0,1.662
462.0,1.676
463.0,1.667
464.0,1.64
465.0,1.62
466.0,1.637
467.0,1.609
468.0,1.63
469.0,1.641
470.0,1.591
471.0,1.59
472.0,1.677
473.0,1.658
474.0,1.663
475.0,1.681
476.0,1.634
477.0,1.641
478.0,1.688
479.0,1.679
480.0,1.683
481.0,1.715
482.0,1.724
483.0,1.703
484.0,1.669
485.0,1.591
486.0,1.391
487.0,1.459
488.0,1.602
489.0,1.609
490.0,1.694
491.0,1.665
492.0,1.574
493.0,1.627
494.0,1.645
495.0,1.66
496.0,1.672
497.0,1.699
498.0,1.621
499.0,1.644
500.0,1.598
501.0,1.571
502.0,1.552
503.0,1.619
504.0,1.585
505.0,1.638
506.0,1.692
507.0,1.611
508.0,1.561
509.0,1.604
510.0,1.596
511.0,1.639
512.0,1.657
513.0,1.57
514.0,1.559
515.0,1.545
516.0,1.543
517.0,1.371
518.0,1.443
519.0,1.515
520.0,1.571
521.0,1.587
522.0,1.59
523.0,1.563
524.0,1.621
525.0,1.642
526.0,1.57
527.0,1.482
528.0,1.569
529.0,1.656
530.0,1.633
531.0,1.659
532.0,1.603
533.0,1.557
534.0,1.604
535.0,1.639
536.0,1.655
537.0,1.59
538.0,1.618
539.0,1.606
540.0,1.541
541.0,1.553
542.0,1.604
543.0,1.586
544.0,1.616
545.0,1.612
546.0,1.621
547.0,1.62
548.0,1.601
549.0,1.606
550.0,1.626
551.0,1.607
552.0,1.619
553.0,1.591
554.0,1.63
555.0,1.634
556.0,1.614
557.0,1.565
558.0,1.555
559.0,1.528
560.0,1.548
561.0,1.57
562.0,1.56
563.0,1.605
564.0,1.563
565.0,1.551
566.0,1.53
567.0,1.561
568.0,1.55
569.0,1.52
570.0,1.519
571.0,1.509
572.0,1.55
573.0,1.568
574.0,1.564
575.0,1.537
576.0,1.524
577.0,1.54
578.0,1.516
579.0,1.52
580.0,1.546
581.0,1.551
582.0,1.579
583.0,1.581
584.0,1.594
585.0,1.555
586.0,1.523
587.0,1.559
588.0,1.529
589.0,1.37
590.0,1.431
591.0,1.507
592.0,1.493
593.0,1.51
594.0,1.502
595.0,1.471
596.0,1.518
597.0,1.504
598.0,1.498
599.0,1.498
600.0,1.498
601.0,1.484
602.0,1.474
603.0,1.498
604.0,1.522
605.0,1.514
606.0,1.508
607.0,1.522
608.0,1.504
609.0,1.506
610.0,1.495
611.0,1.503
612.0,1.498
613.0,1.479
614.0,1.459
615.0,1.49
616.0,1.44
617.0,1.437
618.0,1.493
619.0,1.478
620.0,1.487
621.0,1.49
622.0,1.474
623.0,1.453
624.0,1.428
625.0,1.425
626.0,1.447
627.0,1.466
628.0,1.4
629.0,1.442
630.0,1.41
631.0,1.433
632.0,1.414
633.0,1.453
634.0,1.436
635.0,1.457
636.0,1.436
637.0,1.459
638.0,1.471
639.0,1.454
640.0,1.439
641.0,1.437
642.0,1.43
643.0,1.449
644.0,1.444
645.0,1.447
646.0,1.418
647.0,1.409
648.0,1.412
649.0,1.385
650.0,1.382
651.0,1.44
652.0,1.392
653.0,1.421
654.0,1.405
655.0,1.359
656.0,1.2
657.0,1.232
658.0,1.378
659.0,1.387
660.0,1.392
661.0,1.402
662.0,1.407
663.0,1.379
664.0,1.393
665.0,1.392
666.0,1.392
667.0,1.39
668.0,1.39
669.0,1.411
670.0,1.405
671.0,1.404
672.0,1.392
673.0,1.413
674.0,1.407
675.0,1.395
676.0,1.404
677.0,1.39
678.0,1.394
679.0,1.371
680.0,1.382
681.0,1.373
682.0,1.372
683.0,1.369
684.0,1.363
685.0,1.374
686.0,1.367
687.0,1.042
688.0,1.155
689.0,1.157
690.0,1.193
691.0,1.231
692.0,1.258
693.0,1.25
694.0,1.241
695.0,1.276
696.0,1.278
697.0,1.336
698.0,1.316
699.0,1.298
700.0,1.283
701.0,1.274
702.0,1.278
703.0,1.28
704.0,1.314
705.0,1.316
706.0,1.312
707.0,1.312
708.0,1.315
709.0,1.312
710.0,1.315
711.0,1.312
712.0,1.306
713.0,1.295
714.0,1.299
715.0,1.263
716.0,1.266
717.0,1.148
718.0,1.064
719.0,0.9814
720.0,1.031
721.0,1.106
722.0,1.231
723.0,1.165
724.0,1.07
725.0,1.06
726.0,1.105
727.0,1.11
728.0,1.06
729.0,1.081
730.0,1.143
731.0,1.1
732.0,1.158
733.0,1.207
734.0,1.231
735.0,1.208
736.0,1.206
737.0,1.212
738.0,1.219
739.0,1.196
740.0,1.223
741.0,1.209
742.0,1.209
743.0,1.239
744.0,1.234
745.0,1.234
746.0,1.239
747.0,1.242
748.0,1.239
749.0,1.225
750.0,1.225
751.0,1.212
752.0,1.218
753.0,1.224
754.0,1.227
755.0,1.22
756.0,1.219
757.0,1.221
758.0,1.207
759.0,1.189
760.0,0.3523
761.0,0.2268
762.0,0.7498
763.0,0.4702
764.0,0.6198
765.0,0.7507
766.0,0.8517
767.0,1.008
768.0,1.113
769.0,1.126
770.0,1.152
771.0,1.156
772.0,1.156
773.0,1.164
774.0,1.158
775.0,1.149
776.0,1.163
777.0,1.148
778.0,1.141
779.0,1.142
780.0,1.136
781.0,1.137
782.0,1.144
783.0,1.124
784.0,1.13
785.0,1.122
786.0,1.135
787.0,1.12
788.0,1.109
789.0,1.109
790.0,1.088
791.0,1.09
792.0,1.081
793.0,1.064
794.0,1.075
795.0,1.095
796.0,1.072
797.0,1.073
798.0,1.095
799.0,1.09
800.0,1.074
801.0,1.073
802.0,1.07
803.0,1.063
804.0,1.063
805.0,1.057
806.0,1.082
807.0,1.07
808.0,1.071
809.0,1.054
810.0,1.049
811.0,1.055
812.0,1.032
813.0,1.015
814.0,0.9191
815.0,0.9129
816.0,0.8541
817.0,0.8663
818.0,0.8397
819.0,0.9159
820.0,0.8718
821.0,0.9884
822.0,0.9654
823.0,0.707
824.0,0.9476
825.0,0.9734
826.0,0.9456
827.0,0.9881
828.0,0.8654
829.0,0.9382
830.0,0.929
831.0,0.9312
832.0,0.9079
833.0,0.9511
834.0,0.9267
835.0,0.9987
836.0,0.968
837.0,1.001
838.0,0.9749
839.0,0.9848
840.0,1.005
841.0,0.9932
842.0,0.9919
843.0,0.9879
844.0,0.9762
845.0,1.007
846.0,1.002
847.0,0.982
848.0,0.9775
849.0,0.9499
850.0,0.9099
851.0,0.9651
852.0,0.9576
853.0,0.9205
854.0,0.796
855.0,0.873
856.0,0.9548
857.0,0.9751
858.0,0.9684
859.0,0.9686
860.0,0.97
861.0,0.9649
862.0,0.9799
863.0,1.003
864.0,0.9529
865.0,0.9445
866.0,0.8493
867.0,0.8863
868.0,0.9645
869.0,0.9445
870.0,0.9714
871.0,0.9583
872.0,0.9549
873.0,0.953
874.0,0.9417
875.0,0.9227
876.0,0.9325
877.0,0.9419
878.0,0.9524
879.0,0.9378
880.0,0.9177
881.0,0.9047
882.0,0.9246
883.0,0.9269
884.0,0.923
885.0,0.93
886.0,0.8891
887.0,0.8965
888.0,0.9112
889.0,0.9191
890.0,0.9143
891.0,0.9114
892.0,0.8887
893.0,0.8657
894.0,0.844
895.0,0.8088
896.0,0.7678
897.0,0.6758
898.0,0.7278
899.0,0.5741
900.0,0.7357
901.0,0.6005
902.0,0.6784
903.0,0.6933
904.0,0.8381
905.0,0.8145
906.0,0.7666
907.0,0.6466
908.0,0.6564
909.0,0.6992
910.0,0.639
911.0,0.669
912.0,0.6942
913.0,0.6494
914.0,0.6405
915.0,0.6914
916.0,0.5928
917.0,0.7282
918.0,0.6081
919.0,0.7366
920.0,0.7345
921.0,0.7607
922.0,0.6949
923.0,0.7343
924.0,0.7127
925.0,0.6979
926.0,0.7052
927.0,0.7754
928.0,0.6094
929.0,0.5673
930.0,0.4642
931.0,0.4365
932.0,0.3329
933.0,0.2813
934.0,0.1771
935.0,0.279
936.0,0.1883
937.0,0.1932
938.0,0.2317
939.0,0.4232
940.0,0.4963
941.0,0.3922
942.0,0.4424
943.0,0.3051
944.0,0.3093
945.0,0.4015
946.0,0.2236
947.0,0.408
948.0,0.3035
949.0,0.5267
950.0,0.1778
951.0,0.5154
952.0,0.3029
953.0,0.3742
954.0,0.4404
955.0,0.3764
956.0,0.3583
957.0,0.306
958.0,0.4803
959.0,0.401
960.0,0.4485
961.0,0.4888
962.0,0.4648
963.0,0.5229
964.0,0.4836
965.0,0.5192
966.0,0.5226
967.0,0.5215
968.0,0.6564
969.0,0.688
970.0,0.6384
971.0,0.7121
972.0,0.6848
973.0,0.6148
974.0,0.5867
975.0,0.6014
976.0,0.5808
977.0,0.6419
978.0,0.6178
979.0,0.6408
980.0,0.6068
981.0,0.7073
982.0,0.6829
983.0,0.6598
984.0,0.7216
985.0,0.6802
986.0,0.7301
987.0,0.7203
988.0,0.7191
989.0,0.7253
990.0,0.7143
991.0,0.728
992.0,0.7318
993.0,0.72
994.0,0.7311
995.0,0.7296
996.0,0.7271
997.0,0.7278
998.0,0.7247
999.0,0.7219
1000.0,0.7179
1001.0,0.7257
1002.0,0.7101
1003.0,0.7132
1004.0,0.6969
1005.0,0.6698
1006.0,0.6968
1007.0,0.7112
1008.0,0.7082
1009.0,0.7053
1010.0,0.7028
1011.0,0.7075
1012.0,0.7023
1013.0,0.7056
1014.0,0.7007
1015.0,0.6962
1016.0,0.6932
1017.0,0.6952
1018.0,0.692
1019.0,0.679
1020.0,0.6887
1021.0,0.6875
1022.0,0.6828
1023.0,0.6901
1024.0,0.6829
1025.0,0.6891
1026.0,0.6866
1027.0,0.685
1028.0,0.6837
1029.0,0.6758
1030.0,0.6798
1031.0,0.6774
1032.0,0.6752
1033.0,0.6651
1034.0,0.6651
1035.0,0.6672
1036.0,0.6709
1037.0,0.6599
1038.0,0.6629
1039.0,0.6627
1040.0,0.66
1041.0,0.6628
1042.0,0.6582
1043.0,0.6563
1044.0,0.6587
1045.0,0.6499
1046.0,0.6428
1047.0,0.6487
1048.0,0.6524
1049.0,0.6502
1050.0,0.6474
1051.0,0.6467
1052.0,0.6442
1053.0,0.6393
1054.0,0.6409
1055.0,0.6416
1056.0,0.6396
1057.0,0.6379
1058.0,0.6224
1059.0,0.6234
1060.0,0.6226
1061.0,0.622
1062.0,0.6255
1063.0,0.6196
1064.0,0.6269
1065.0,0.623
1066.0,0.6102
1067.0,0.6183
1068.0,0.6052
1069.0,0.5862
1070.0,0.6066
1071.0,0.6145
1072.0,0.6086
1073.0,0.5996
1074.0,0.6134
1075.0,0.5874
1076.0,0.6132
1077.0,0.605
1078.0,0.5945
1079.0,0.6027
1080.0,0.5958
1081.0,0.5788
1082.0,0.5842
1083.0,0.585
1084.0,0.5789
1085.0,0.5967
1086.0,0.5523
1087.0,0.5642
1088.0,0.5853
1089.0,0.5718
1090.0,0.5626
1091.0,0.5847
1092.0,0.5822
1093.0,0.5078
1094.0,0.5344
1095.0,0.5267
1096.0,0.5087
1097.0,0.5685
1098.0,0.5021
1099.0,0.5215
1100.0,0.4915
1101.0,0.4957
1102.0,0.4772
1103.0,0.4755
1104.0,0.4758
1105.0,0.511
1106.0,0.4157
1107.0,0.4902
1108.0,0.4306
1109.0,0.4285
1110.0,0.4877
1111.0,0.3515
1112.0,0.4241
1113.0,0.2919
1114.0,0.3233
1115.0,0.2688
1116.0,0.2285
1117.0,0.1005
1118.0,0.243
1119.0,0.1333
1120.0,0.1678
1121.0,0.2144
1122.0,0.1015
1123.0,0.1513
1124.0,0.1279
1125.0,0.1637
1126.0,0.06843
1127.0,0.1837
1128.0,0.122
1129.0,0.1274
1130.0,0.08987
1131.0,0.3203
1132.0,0.2567
1133.0,0.1774
1134.0,0.05543
1135.0,0.02039
1136.0,0.1533
1137.0,0.3185
1138.0,0.2282
1139.0,0.3136
1140.0,0.2722
1141.0,0.2168
1142.0,0.2436
1143.0,0.3347
1144.0,0.1313
1145.0,0.1706
1146.0,0.1841
1147.0,0.07698
1148.0,0.29
1149.0,0.2401
1150.0,0.1409
1151.0,0.2267
1152.0,0.2691
1153.0,0.255
1154.0,0.1684
1155.0,0.3275
1156.0,0.3
1157.0,0.3296
1158.0,0.3256
1159.0,0.3442
1160.0,0.3029
1161.0,0.3578
1162.0,0.3606
1163.0,0.4617
1164.0,0.4055
1165.0,0.3909
1166.0,0.3827
1167.0,0.412
1168.0,0.4182
1169.0,0.4247
1170.0,0.4545
1171.0,0.4444
1172.0,0.4485
1173.0,0.4535
1174.0,0.3444
1175.0,0.4402
1176.0,0.4745
1177.0,0.4615
1178.0,0.3623
1179.0,0.4779
1180.0,0.4372
1181.0,0.4499
1182.0,0.3274
1183.0,0.4406
1184.0,0.4186
1185.0,0.4086
1186.0,0.4684
1187.0,0.4511
1188.0,0.3342
1189.0,0.4215
1190.0,0.4578
1191.0,0.4428
1192.0,0.4633
1193.0,0.447
1194.0,0.4586
1195.0,0.4395
1196.0,0.427
1197.0,0.4556
1198.0,0.4216
1199.0,0.372
1200.0,0.4419
1201.0,0.4307
1202.0,0.4257
1203.0,0.4221
1204.0,0.377
1205.0,0.4317
1206.0,0.4692
1207.0,0.4258
1208.0,0.4152
1209.0,0.4227
1210.0,0.4373
1211.0,0.4217
1212.0,0.422
1213.0,0.4566
1214.0,0.4293
1215.0,0.4226
1216.0,0.4549
1217.0,0.4455
1218.0,0.4515
1219.0,0.4471
1220.0,0.4516
1221.0,0.4547
1222.0,0.4445
1223.0,0.4413
1224.0,0.4404
1225.0,0.4519
1226.0,0.4533
1227.0,0.4248
1228.0,0.4543
1229.0,0.4533
1230.0,0.4469
1231.0,0.4555
1232.0,0.4529
1233.0,0.4425
1234.0,0.4541
1235.0,0.4519
1236.0,0.4546
1237.0,0.4503
1238.0,0.4531
1239.0,0.4473
1240.0,0.4488
1241.0,0.4479
1242.0,0.4458
1243.0,0.4422
1244.0,0.4457
1245.0,0.4474
1246.0,0.4447
1247.0,0.4433
1248.0,0.4437
1249.0,0.4445
1250.0,0.4422
1251.0,0.4373
1252.0,0.4364
1253.0,0.4346
1254.0,0.4316
1255.0,0.4364
1256.0,0.4274
1257.0,0.4257
1258.0,0.4311
1259.0,0.4206
1260.0,0.4221
1261.0,0.4049
1262.0,0.3962
1263.0,0.3971
1264.0,0.3746
1265.0,0.3944
1266.0,0.3843
1267.0,0.3878
1268.0,0.373
1269.0,0.2687
1270.0,0.3876
1271.0,0.4028
1272.0,0.4033
1273.0,0.3998
1274.0,0.4001
1275.0,0.4047
1276.0,0.4074
1277.0,0.4087
1278.0,0.4138
1279.0,0.4103
1280.0,0.405
1281.0,0.3853
1282.0,0.3692
1283.0,0.3981
1284.0,0.408
1285.0,0.4104
1286.0,0.4148
1287.0,0.4105
1288.0,0.4099
1289.0,0.4009
1290.0,0.406
1291.0,0.4109
1292.0,0.3936
1293.0,0.4048
1294.0,0.4024
1295.0,0.4022
1296.0,0.389
1297.0,0.372
1298.0,0.3925
1299.0,0.4046
1300.0,0.3563
1301.0,0.3644
1302.0,0.391
1303.0,0.3501
1304.0,0.3118
1305.0,0.3841
1306.0,0.3848
1307.0,0.314
1308.0,0.3487
1309.0,0.3828
1310.0,0.3086
1311.0,0.3372
1312.0,0.3302
1313.0,0.3258
1314.0,0.2965
1315.0,0.2955
1316.0,0.334
1317.0,0.3179
1318.0,0.3401
1319.0,0.2818
1320.0,0.2696
1321.0,0.3085
1322.0,0.3137
1323.0,0.2495
1324.0,0.2763
1325.0,0.3299
1326.0,0.2917
1327.0,0.2803
1328.0,0.2461
1329.0,0.1962
1330.0,0.2494
1331.0,0.1651
1332.0,0.1654
1333.0,0.226
1334.0,0.1861
1335.0,0.2482
1336.0,0.2034
1337.0,0.1845
1338.0,0.1988
1339.0,0.1961
1340.0,0.1873
1341.0,0.1908
1342.0,0.1999
1343.0,0.1536
1344.0,0.09195
1345.0,0.1298
1346.0,0.07774
1347.0,0.08121
1348.0,0.008581
1349.0,0.02651
1350.0,0.02479
1351.0,0.009241
1352.0,0.003787
1353.0,0.0003304
1354.0,0.0008293
1355.0,1.872e-05
1356.0,0.0001697
1357.0,0.0002529
1358.0,2.128e-05
1359.0,5.578e-06
1360.0,1.266e-05
1361.0,7.155e-08
1362.0,4.223e-10
1363.0,1.979e-05
1364.0,9.177e-06
1365.0,3.362e-10
1366.0,7.048e-05
1367.0,2.724e-05
1368.0,1.379e-11
1369.0,3.658e-06
1370.0,2.445e-06
1371.0,2.135e-07
1372.0,1.521e-05
1373.0,0.0001787
1374.0,0.0005828
1375.0,0.001028
1376.0,0.0007348
1377.0,0.0003686
1378.0,0.002919
1379.0,0.0001597
1380.0,0.0002774
1381.0,9.535e-06
1382.0,1.491e-05
1383.0,3.213e-07
1384.0,4.62e-06
1385.0,1.02e-05
1386.0,1.623e-05
1387.0,0.0007101
1388.0,1.604e-05
1389.0,0.00169
1390.0,0.001436
1391.0,0.00106
1392.0,8.245e-05
1393.0,0.0003539
1394.0,0.0003073
1395.0,3.716e-06
1396.0,8.393e-08
1397.0,0.0001638
1398.0,0.003347
1399.0,0.002143
1400.0,5.406e-08
1401.0,1.295e-07
1402.0,0.003845
1403.0,0.0052
1404.0,0.001649
1405.0,2.363e-06
1406.0,0.004827
1407.0,0.0004178
1408.0,0.003885
1409.0,0.001683
1410.0,0.0012
1411.0,0.004518
1412.0,0.005399
1413.0,0.03696
1414.0,0.0009242
1415.0,0.0005064
1416.0,0.04996
1417.0,0.01939
1418.0,0.02201
1419.0,0.003669
1420.0,0.01369
1421.0,0.01531
1422.0,0.06372
1423.0,0.01364
1424.0,0.02451
1425.0,0.03719
1426.0,0.03877
1427.0,0.06305
1428.0,0.008325
1429.0,0.05058
1430.0,0.07787
1431.0,0.08344
1432.0,0.006702
1433.0,0.05619
1434.0,0.03019
1435.0,0.03553
1436.0,0.05976
1437.0,0.04602
1438.0,0.02194
1439.0,0.07733
1440.0,0.05861
1441.0,0.04866
1442.0,0.05279
1443.0,0.06027
1444.0,0.08128
1445.0,0.0682
1446.0,0.03215
1447.0,0.05079
1448.0,0.1368
1449.0,0.1236
1450.0,0.03759
1451.0,0.01647
1452.0,0.07884
1453.0,0.1006
1454.0,0.1567
1455.0,0.07992
1456.0,0.1099
1457.0,0.1377
1458.0,0.1533
1459.0,0.1826
1460.0,0.1002
1461.0,0.1084
1462.0,0.1512
1463.0,0.05454
1464.0,0.1717
1465.0,0.105
1466.0,0.08247
1467.0,0.04822
1468.0,0.09455
1469.0,0.1131
