interpolation:linear
wavelength,value
280.0,4.728e-25
280.5,1.844e-23
281.0,1.072e-22
281.5,4.034e-21
282.0,3.6000000000000003e-20
282.5,1.491e-19
283.0,7.157e-19
283.5,1.407e-18
284.0,4.332e-17
284.5,1.62e-16
285.0,4.14e-16
285.5,3.524e-15
286.0,1.723e-14
286.5,1.075e-13
287.0,3.847e-13
287.5,1.911e-12
288.0,9.523e-12
288.5,3.988e-11
289.0,1.41e-10
289.5,5.563e-10
290.0,1.892e-09
290.5,4.551e-09
291.0,1.171e-08
291.5,4.143e-08
292.0,1.114e-07
292.5,1.732e-07
293.0,4.189e-07
293.5,1.182e-06
294.0,2.063e-06
294.5,3.746e-06
295.0,6.852e-06
295.5,1.738e-05
296.0,3.228e-05
296.5,4.333e-05
297.0,5.663e-05
297.5,0.0001432
298.0,0.000214
298.5,0.0002065
299.0,0.0004364
299.5,0.0006654
300.0,0.0006992
300.5,0.0009635
301.0,0.001596
301.5,0.002344
302.0,0.001929
302.5,0.003671
303.0,0.006354
303.5,0.007808
304.0,0.007187
304.5,0.01004
305.0,0.01383
305.5,0.01495
306.0,0.0142
306.5,0.01708
307.0,0.02327
307.5,0.02851
308.0,0.02989
308.5,0.03403
309.0,0.0303
309.5,0.03374
310.0,0.03352
310.5,0.05414
311.0,0.06729
311.5,0.06489
312.0,0.06283
312.5,0.07487
313.0,0.08052
313.5,0.07974
314.0,0.09692
314.5,0.08242
315.0,0.108
315.5,0.09304
316.0,0.07851
316.5,0.1094
317.0,0.1367
317.5,0.1445
318.0,0.1105
318.5,0.1313
319.0,0.1527
319.5,0.1303
320.0,0.1592
320.5,0.1904
321.0,0.1625
321.5,0.1558
322.0,0.1757
322.5,0.1532
323.0,0.1483
323.5,0.1729
324.0,0.2016
324.5,0.2089
325.0,0.1892
325.5,0.2378
326.0,0.2823
326.5,0.2784
327.0,0.2809
327.5,0.2752
328.0,0.2527
328.5,0.2585
329.0,0.3029
329.5,0.3427
330.0,0.3495
330.5,0.2867
331.0,0.2954
331.5,0.2971
332.0,0.3155
332.5,0.3103
333.0,0.3126
333.5,0.2888
334.0,0.2979
334.5,0.3389
335.0,0.3164
335.5,0.3601
336.0,0.2501
336.5,0.3048
337.0,0.253
337.5,0.3168
338.0,0.306
338.5,0.3462
339.0,0.3459
339.5,0.3327
340.0,0.4012
340.5,0.3625
341.0,0.3486
341.5,0.3241
342.0,0.3895
342.5,0.3664
343.0,0.4027
343.5,0.3793
344.0,0.2851
344.5,0.2829
345.0,0.3798
345.5,0.3904
346.0,0.3336
346.5,0.3795
347.0,0.4075
347.5,0.3302
348.0,0.3792
348.5,0.3811
349.0,0.3549
349.5,0.3524
350.0,0.4374
350.5,0.4628
351.0,0.4142
351.5,0.4019
352.0,0.4344
352.5,0.3408
353.0,0.431
353.5,0.4626
354.0,0.482
354.5,0.4904
355.0,0.4901
355.5,0.4442
356.0,0.4662
356.5,0.3993
357.0,0.331
357.5,0.4065
358.0,0.3232
358.5,0.277
359.0,0.3886
359.5,0.4963
360.0,0.5278
360.5,0.4232
361.0,0.3869
361.5,0.4466
362.0,0.3871
362.5,0.5371
363.0,0.4835
363.5,0.4465
364.0,0.5474
364.5,0.4691
365.0,0.479
365.5,0.6028
366.0,0.6402
366.5,0.603
367.0,0.5888
367.5,0.6126
368.0,0.5374
368.5,0.5435
369.0,0.5884
369.5,0.6287
370.0,0.6718
370.5,0.5227
371.0,0.5598
371.5,0.7021
372.0,0.4671
372.5,0.5614
373.0,0.5723
373.5,0.3732
374.0,0.5435
374.5,0.4511
375.0,0.4395
375.5,0.6578
376.0,0.5466
376.5,0.5677
377.0,0.6023
377.5,0.7062
378.0,0.7673
378.5,0.727
379.0,0.6015
379.5,0.5508
380.0,0.574
380.5,0.6967
381.0,0.6996
381.5,0.5557
382.0,0.4946
382.5,0.4224
383.0,0.3919
383.5,0.3782
384.0,0.418
384.5,0.6161
385.0,0.6122
385.5,0.5712
386.0,0.4902
386.5,0.6451
387.0,0.5372
387.5,0.6046
388.0,0.5593
388.5,0.5539
389.0,0.5991
389.5,0.727
390.0,0.731
390.5,0.674
391.0,0.7949
391.5,0.8124
392.0,0.6856
392.5,0.6148
393.0,0.3427
393.5,0.2495
394.0,0.5087
394.5,0.6478
395.0,0.7919
395.5,0.8059
396.0,0.7
396.5,0.4098
397.0,0.3081
397.5,0.6277
398.0,0.8807
398.5,0.9118
399.0,0.9887
399.5,0.987
400.0,1.027
401.0,1.058
402.0,1.119
403.0,1.066
404.0,1.053
405.0,1.056
406.0,1.042
407.0,1.028
408.0,1.071
409.0,1.15
410.0,1.007
411.0,1.093
412.0,1.177
413.0,1.151
414.0,1.168
415.0,1.174
416.0,1.197
417.0,1.171
418.0,1.152
419.0,1.17
420.0,1.168
421.0,1.225
422.0,1.167
423.0,1.143
424.0,1.212
425.0,1.212
426.0,1.183
427.0,1.163
428.0,1.136
429.0,1.078
430.0,0.945
431.0,0.9389
432.0,1.215
433.0,1.224
434.0,1.139
435.0,1.192
436.0,1.345
437.0,1.329
438.0,1.212
439.0,1.257
440.0,1.299
441.0,1.348
442.0,1.449
443.0,1.414
444.0,1.447
445.0,1.418
446.0,1.355
447.0,1.467
448.0,1.494
449.0,1.501
450.0,1.546
451.0,1.606
452.0,1.549
453.0,1.459
454.0,1.525
455.0,1.537
456.0,1.576
457.0,1.605
458.0,1.554
459.0,1.548
460.0,1.555
461.0,1.593
462.0,1.607
463.0,1.598
464.0,1.573
465.0,1.554
466.0,1.571
467.0,1.545
468.0,1.566
469.0,1.576
470.0,1.528
471.0,1.528
472.0,1.613
473.0,1.594
474.0,1.599
475.0,1.616
476.0,1.571
477.0,1.578
478.0,1.624
479.0,1.615
480.0,1.62
481.0,1.652
482.0,1.661
483.0,1.642
484.0,1.61
485.0,1.535
486.0,1.343
487.0,1.409
488.0,1.547
489.0,1.555
490.0,1.637
491.0,1.61
492.0,1.522
493.0,1.573
494.0,1.591
495.0,1.606
496.0,1.617
497.0,1.644
498.0,1.569
499.0,1.591
500.0,1.547
501.0,1.521
502.0,1.502
503.0,1.567
504.0,1.532
505.0,1.585
506.0,1.638
507.0,1.56
508.0,1.512
509.0,1.555
510.0,1.547
511.0,1.589
512.0,1.608
513.0,1.523
514.0,1.513
515.0,1.5
516.0,1.497
517.0,1.331
518.0,1.401
519.0,1.471
520.0,1.526
521.0,1.542
522.0,1.545
523.0,1.518
524.0,1.574
525.0,1.595
526.0,1.525
527.0,1.439
528.0,1.524
529.0,1.608
530.0,1.586
531.0,1.611
532.0,1.557
533.0,1.513
534.0,1.558
535.0,1.593
536.0,1.608
537.0,1.546
538.0,1.574
539.0,1.562
540.0,1.498
541.0,1.511
542.0,1.559
543.0,1.543
544.0,1.572
545.0,1.568
546.0,1.576
547.0,1.576
548.0,1.558
549.0,1.563
550.0,1.583
551.0,1.564
552.0,1.576
553.0,1.549
554.0,1.587
555.0,1.591
556.0,1.572
557.0,1.524
558.0,1.514
559.0,1.488
560.0,1.507
561.0,1.528
562.0,1.519
563.0,1.562
564.0,1.521
565.0,1.509
566.0,1.488
567.0,1.518
568.0,1.507
569.0,1.476
570.0,1.476
571.0,1.467
572.0,1.505
573.0,1.522
574.0,1.519
575.0,1.492
576.0,1.479
577.0,1.495
578.0,1.473
579.0,1.477
580.0,1.504
581.0,1.51
582.0,1.538
583.0,1.541
584.0,1.554
585.0,1.516
586.0,1.485
587.0,1.52
588.0,1.488
589.0,1.328
590.0,1.389
591.0,1.465
592.0,1.45
593.0,1.468
594.0,1.46
595.0,1.428
596.0,1.478
597.0,1.464
598.0,1.459
599.0,1.459
600.0,1.46
601.0,1.448
602.0,1.438
603.0,1.462
604.0,1.486
605.0,1.479
606.0,1.472
607.0,1.487
608.0,1.47
609.0,1.473
610.0,1.462
611.0,1.47
612.0,1.465
613.0,1.447
614.0,1.427
615.0,1.458
616.0,1.41
617.0,1.407
618.0,1.462
619.0,1.447
620.0,1.457
621.0,1.459
622.0,1.443
623.0,1.422
624.0,1.398
625.0,1.395
626.0,1.416
627.0,1.434
628.0,1.359
629.0,1.408
630.0,1.376
631.0,1.401
632.0,1.384
633.0,1.424
634.0,1.408
635.0,1.43
636.0,1.41
637.0,1.432
638.0,1.445
639.0,1.429
640.0,1.414
641.0,1.413
642.0,1.406
643.0,1.426
644.0,1.421
645.0,1.424
646.0,1.393
647.0,1.382
648.0,1.385
649.0,1.359
650.0,1.359
651.0,1.417
652.0,1.366
653.0,1.398
654.0,1.383
655.0,1.335
656.0,1.181
657.0,1.213
658.0,1.357
659.0,1.367
660.0,1.372
661.0,1.382
662.0,1.386
663.0,1.359
664.0,1.373
665.0,1.373
666.0,1.374
667.0,1.372
668.0,1.373
669.0,1.394
670.0,1.388
671.0,1.387
672.0,1.376
673.0,1.396
674.0,1.391
675.0,1.378
676.0,1.388
677.0,1.374
678.0,1.378
679.0,1.356
680.0,1.367
681.0,1.358
682.0,1.357
683.0,1.354
684.0,1.348
685.0,1.359
686.0,1.352
687.0,0.982
688.0,1.11
689.0,1.113
690.0,1.154
691.0,1.2
692.0,1.232
693.0,1.223
694.0,1.214
695.0,1.254
696.0,1.256
697.0,1.32
698.0,1.3
699.0,1.278
700.0,1.263
701.0,1.253
702.0,1.258
703.0,1.261
704.0,1.297
705.0,1.299
706.0,1.296
707.0,1.296
708.0,1.3
709.0,1.299
710.0,1.3
711.0,1.298
712.0,1.293
713.0,1.281
714.0,1.286
715.0,1.249
716.0,1.25
717.0,1.116
718.0,1.031
719.0,0.948
720.0,0.9951
721.0,1.079
722.0,1.213
723.0,1.141
724.0,1.041
725.0,1.029
726.0,1.074
727.0,1.083
728.0,1.028
729.0,1.055
730.0,1.116
731.0,1.072
732.0,1.135
733.0,1.19
734.0,1.215
735.0,1.192
736.0,1.191
737.0,1.196
738.0,1.207
739.0,1.184
740.0,1.212
741.0,1.199
742.0,1.199
743.0,1.229
744.0,1.225
745.0,1.225
746.0,1.231
747.0,1.234
748.0,1.231
749.0,1.217
750.0,1.217
751.0,1.204
752.0,1.21
753.0,1.216
754.0,1.219
755.0,1.212
756.0,1.212
757.0,1.214
758.0,1.199
759.0,1.179
760.0,0.2841
761.0,0.1698
762.0,0.6899
763.0,0.3984
764.0,0.5509
765.0,0.6906
766.0,0.8062
767.0,0.9768
768.0,1.096
769.0,1.112
770.0,1.142
771.0,1.148
772.0,1.149
773.0,1.157
774.0,1.152
775.0,1.143
776.0,1.157
777.0,1.142
778.0,1.135
779.0,1.136
780.0,1.13
781.0,1.131
782.0,1.138
783.0,1.118
784.0,1.124
785.0,1.116
786.0,1.128
787.0,1.112
788.0,1.1
789.0,1.1
790.0,1.076
791.0,1.081
792.0,1.072
793.0,1.056
794.0,1.069
795.0,1.088
796.0,1.061
797.0,1.063
798.0,1.088
799.0,1.082
800.0,1.065
801.0,1.063
802.0,1.06
803.0,1.053
804.0,1.054
805.0,1.049
806.0,1.075
807.0,1.063
808.0,1.064
809.0,1.046
810.0,1.04
811.0,1.044
812.0,1.019
813.0,1.001
814.0,0.8961
815.0,0.8902
816.0,0.8311
817.0,0.8444
818.0,0.8164
819.0,0.899
820.0,0.8522
821.0,0.9776
822.0,0.9528
823.0,0.6781
824.0,0.9315
825.0,0.9619
826.0,0.9311
827.0,0.9767
828.0,0.8449
829.0,0.9245
830.0,0.9143
831.0,0.917
832.0,0.892
833.0,0.9403
834.0,0.9127
835.0,0.9909
836.0,0.9559
837.0,0.9933
838.0,0.9657
839.0,0.9778
840.0,0.9984
841.0,0.9858
842.0,0.9858
843.0,0.9832
844.0,0.9708
845.0,1.002
846.0,0.9973
847.0,0.9782
848.0,0.9732
849.0,0.9456
850.0,0.9059
851.0,0.9603
852.0,0.9531
853.0,0.9167
854.0,0.7923
855.0,0.8695
856.0,0.9507
857.0,0.9713
858.0,0.9645
859.0,0.965
860.0,0.9665
861.0,0.9614
862.0,0.9765
863.0,0.9996
864.0,0.9496
865.0,0.9413
866.0,0.8465
867.0,0.8834
868.0,0.9613
869.0,0.9414
870.0,0.9683
871.0,0.9552
872.0,0.9518
873.0,0.95
874.0,0.9387
875.0,0.9198
876.0,0.9295
877.0,0.9389
878.0,0.9493
879.0,0.9348
880.0,0.9148
881.0,0.9016
882.0,0.9213
883.0,0.9238
884.0,0.9198
885.0,0.9268
886.0,0.885
887.0,0.8932
888.0,0.9072
889.0,0.9162
890.0,0.9103
891.0,0.9079
892.0,0.8839
893.0,0.8591
894.0,0.8341
895.0,0.7947
896.0,0.7518
897.0,0.655
898.0,0.7095
899.0,0.551
900.0,0.721
901.0,0.577
902.0,0.6625
903.0,0.6737
904.0,0.8283
905.0,0.8028
906.0,0.7537
907.0,0.626
908.0,0.6365
909.0,0.683
910.0,0.6156
911.0,0.6492
912.0,0.6761
913.0,0.6253
914.0,0.6181
915.0,0.6688
916.0,0.5698
917.0,0.7102
918.0,0.5846
919.0,0.7203
920.0,0.7219
921.0,0.7494
922.0,0.6783
923.0,0.7236
924.0,0.6957
925.0,0.6808
926.0,0.6883
927.0,0.7627
928.0,0.582
929.0,0.5374
930.0,0.432
931.0,0.4077
932.0,0.3034
933.0,0.252
934.0,0.1495
935.0,0.2535
936.0,0.1653
937.0,0.1686
938.0,0.2045
939.0,0.3952
940.0,0.4687
941.0,0.363
942.0,0.4144
943.0,0.2798
944.0,0.2884
945.0,0.3727
946.0,0.1995
947.0,0.3769
948.0,0.2786
949.0,0.4947
950.0,0.1529
951.0,0.4855
952.0,0.2738
953.0,0.3452
954.0,0.4139
955.0,0.3481
956.0,0.3336
957.0,0.2756
958.0,0.4593
959.0,0.3749
960.0,0.4199
961.0,0.4637
962.0,0.4398
963.0,0.5003
964.0,0.4607
965.0,0.4977
966.0,0.4995
967.0,0.498
968.0,0.6448
969.0,0.6751
970.0,0.6233
971.0,0.7035
972.0,0.6749
973.0,0.5976
974.0,0.5688
975.0,0.5865
976.0,0.5622
977.0,0.6294
978.0,0.6023
979.0,0.6275
980.0,0.5922
981.0,0.6992
982.0,0.6722
983.0,0.6475
984.0,0.7166
985.0,0.6697
986.0,0.7268
987.0,0.7152
988.0,0.7139
989.0,0.7232
990.0,0.7095
991.0,0.7257
992.0,0.7297
993.0,0.716
994.0,0.7293
995.0,0.728
996.0,0.7252
997.0,0.7261
998.0,0.7229
999.0,0.7202
1000.0,0.7157
1001.0,0.724
1002.0,0.7065
1003.0,0.7114
1004.0,0.6947
1005.0,0.6684
1006.0,0.695
1007.0,0.7095
1008.0,0.7061
1009.0,0.7028
1010.0,0.7002
1011.0,0.7059
1012.0,0.7003
1013.0,0.7041
1014.0,0.6992
1015.0,0.6947
1016.0,0.6916
1017.0,0.6935
1018.0,0.6906
1019.0,0.6768
1020.0,0.6872
1021.0,0.6861
1022.0,0.6811
1023.0,0.6884
1024.0,0.6805
1025.0,0.6877
1026.0,0.685
1027.0,0.6834
1028.0,0.6821
1029.0,0.6741
1030.0,0.6784
1031.0,0.6759
1032.0,0.6738
1033.0,0.6637
1034.0,0.6637
1035.0,0.6658
1036.0,0.6694
1037.0,0.6585
1038.0,0.6615
1039.0,0.6612
1040.0,0.6586
1041.0,0.6613
1042.0,0.6567
1043.0,0.6547
1044.0,0.6571
1045.0,0.6482
1046.0,0.6411
1047.0,0.647
1048.0,0.6506
1049.0,0.6484
1050.0,0.6455
1051.0,0.6447
1052.0,0.6422
1053.0,0.6372
1054.0,0.6387
1055.0,0.6393
1056.0,0.6372
1057.0,0.6353
1058.0,0.6199
1059.0,0.6207
1060.0,0.6198
1061.0,0.6192
1062.0,0.6226
1063.0,0.6166
1064.0,0.6239
1065.0,0.6198
1066.0,0.6073
1067.0,0.6152
1068.0,0.602
1069.0,0.5833
1070.0,0.6034
1071.0,0.6119
1072.0,0.6055
1073.0,0.5967
1074.0,0.6112
1075.0,0.5832
1076.0,0.6108
1077.0,0.6014
1078.0,0.5906
1079.0,0.6007
1080.0,0.5922
1081.0,0.5745
1082.0,0.5815
1083.0,0.5828
1084.0,0.5738
1085.0,0.5934
1086.0,0.5456
1087.0,0.5601
1088.0,0.5827
1089.0,0.5673
1090.0,0.5566
1091.0,0.5815
1092.0,0.5795
1093.0,0.4989
1094.0,0.5312
1095.0,0.5187
1096.0,0.499
1097.0,0.566
1098.0,0.492
1099.0,0.512
1100.0,0.4795
1101.0,0.4844
1102.0,0.4647
1103.0,0.4617
1104.0,0.4622
1105.0,0.5011
1106.0,0.3964
1107.0,0.4785
1108.0,0.4135
1109.0,0.4127
1110.0,0.4753
1111.0,0.3331
1112.0,0.409
1113.0,0.2715
1114.0,0.3021
1115.0,0.2509
1116.0,0.2071
1117.0,0.08385
1118.0,0.2228
1119.0,0.1167
1120.0,0.147
1121.0,0.1912
1122.0,0.08581
1123.0,0.1326
1124.0,0.1121
1125.0,0.1447
1126.0,0.05569
1127.0,0.1627
1128.0,0.1031
1129.0,0.1085
1130.0,0.07391
1131.0,0.2952
1132.0,0.2342
1133.0,0.1555
1134.0,0.04423
1135.0,0.01637
1136.0,0.1323
1137.0,0.2921
1138.0,0.2074
1139.0,0.296
1140.0,0.2524
1141.0,0.1971
1142.0,0.2239
1143.0,0.3124
1144.0,0.116
1145.0,0.1498
1146.0,0.1617
1147.0,0.06246
1148.0,0.2706
1149.0,0.2202
1150.0,0.1244
1151.0,0.206
1152.0,0.2486
1153.0,0.2387
1154.0,0.1464
1155.0,0.309
1156.0,0.2809
1157.0,0.3113
1158.0,0.3078
1159.0,0.3285
1160.0,0.2849
1161.0,0.3432
1162.0,0.3455
1163.0,0.4531
1164.0,0.3937
1165.0,0.376
1166.0,0.3702
1167.0,0.4007
1168.0,0.4061
1169.0,0.414
1170.0,0.4459
1171.0,0.4355
1172.0,0.441
1173.0,0.445
1174.0,0.3289
1175.0,0.433
1176.0,0.4706
1177.0,0.4553
1178.0,0.3505
1179.0,0.4742
1180.0,0.4293
1181.0,0.4424
1182.0,0.3146
1183.0,0.4343
1184.0,0.4101
1185.0,0.3984
1186.0,0.4633
1187.0,0.4441
1188.0,0.3208
1189.0,0.4144
1190.0,0.4528
1191.0,0.4347
1192.0,0.4585
1193.0,0.4412
1194.0,0.4535
1195.0,0.4323
1196.0,0.4186
1197.0,0.4519
1198.0,0.4161
1199.0,0.3617
1200.0,0.4359
1201.0,0.4231
1202.0,0.4191
1203.0,0.4158
1204.0,0.368
1205.0,0.4265
1206.0,0.4668
1207.0,0.4188
1208.0,0.4099
1209.0,0.4177
1210.0,0.4334
1211.0,0.4158
1212.0,0.4142
1213.0,0.4532
1214.0,0.4224
1215.0,0.4152
1216.0,0.4516
1217.0,0.4412
1218.0,0.4481
1219.0,0.4433
1220.0,0.4483
1221.0,0.452
1222.0,0.4411
1223.0,0.4377
1224.0,0.4361
1225.0,0.4492
1226.0,0.4512
1227.0,0.4202
1228.0,0.4527
1229.0,0.4513
1230.0,0.4443
1231.0,0.4545
1232.0,0.4519
1233.0,0.4395
1234.0,0.4535
1235.0,0.451
1236.0,0.454
1237.0,0.4489
1238.0,0.4524
1239.0,0.4467
1240.0,0.4482
1241.0,0.4469
1242.0,0.4452
1243.0,0.4416
1244.0,0.445
1245.0,0.4467
1246.0,0.4441
1247.0,0.4426
1248.0,0.4427
1249.0,0.4437
1250.0,0.4413
1251.0,0.4361
1252.0,0.4356
1253.0,0.4332
1254.0,0.4296
1255.0,0.4354
1256.0,0.4252
1257.0,0.4233
1258.0,0.4296
1259.0,0.4172
1260.0,0.419
1261.0,0.3994
1262.0,0.3895
1263.0,0.3904
1264.0,0.3652
1265.0,0.3878
1266.0,0.376
1267.0,0.3806
1268.0,0.3642
1269.0,0.2477
1270.0,0.38
1271.0,0.3976
1272.0,0.3985
1273.0,0.3947
1274.0,0.3954
1275.0,0.4004
1276.0,0.4035
1277.0,0.4053
1278.0,0.4114
1279.0,0.4079
1280.0,0.4026
1281.0,0.3834
1282.0,0.3683
1283.0,0.3969
1284.0,0.4066
1285.0,0.4091
1286.0,0.4139
1287.0,0.4088
1288.0,0.4084
1289.0,0.3979
1290.0,0.4046
1291.0,0.4098
1292.0,0.3896
1293.0,0.403
1294.0,0.4004
1295.0,0.3996
1296.0,0.3845
1297.0,0.3661
1298.0,0.3894
1299.0,0.4031
1300.0,0.3494
1301.0,0.3585
1302.0,0.388
1303.0,0.3439
1304.0,0.301
1305.0,0.3806
1306.0,0.3811
1307.0,0.3048
1308.0,0.3432
1309.0,0.3788
1310.0,0.2994
1311.0,0.3308
1312.0,0.3231
1313.0,0.3181
1314.0,0.2875
1315.0,0.2854
1316.0,0.3269
1317.0,0.3105
1318.0,0.3343
1319.0,0.2704
1320.0,0.2601
1321.0,0.2998
1322.0,0.3041
1323.0,0.2364
1324.0,0.2652
1325.0,0.3227
1326.0,0.2817
1327.0,0.2699
1328.0,0.2352
1329.0,0.1829
1330.0,0.2349
1331.0,0.1495
1332.0,0.1517
1333.0,0.2092
1334.0,0.1739
1335.0,0.2354
1336.0,0.1901
1337.0,0.1704
1338.0,0.1841
1339.0,0.1823
1340.0,0.1753
1341.0,0.1757
1342.0,0.1842
1343.0,0.1343
1344.0,0.08011
1345.0,0.1145
1346.0,0.0634
1347.0,0.06556
1348.0,0.005605
1349.0,0.01855
1350.0,0.01818
1351.0,0.005647
1352.0,0.001964
1353.0,0.0001353
1354.0,0.0003873
1355.0,5.672e-06
1356.0,6.779e-05
1357.0,0.0001022
1358.0,6.559e-06
1359.0,1.279e-06
1360.0,3.507e-06
1361.0,1.01e-08
1362.0,4.242e-11
1363.0,5.289e-06
1364.0,2.296e-06
1365.0,2.447e-11
1366.0,2.053e-05
1367.0,7.965e-06
1368.0,5.121e-13
1369.0,8.858e-07
1370.0,5.244e-07
1371.0,3.795e-08
1372.0,4.4e-06
1373.0,6.523e-05
1374.0,0.0002468
1375.0,0.0004463
1376.0,0.0003451
1377.0,0.0001662
1378.0,0.00146
1379.0,7.073e-05
1380.0,0.0001146
1381.0,3.456e-06
1382.0,4.175e-06
1383.0,7.589e-08
1384.0,1.074e-06
1385.0,3.235e-06
1386.0,4.211e-06
1387.0,0.0002853
1388.0,5.894e-06
1389.0,0.0007801
1390.0,0.0006698
1391.0,0.0004708
1392.0,3.344e-05
1393.0,0.0001577
1394.0,0.0001119
1395.0,1.074e-06
1396.0,1.286e-08
1397.0,6.841e-05
1398.0,0.001668
1399.0,0.001058
1400.0,7.068e-09
1401.0,2.115e-08
1402.0,0.002258
1403.0,0.002975
1404.0,0.0009275
1405.0,6.126e-07
1406.0,0.00261
1407.0,0.0002225
1408.0,0.002109
1409.0,0.0008236
1410.0,0.0006074
1411.0,0.002595
1412.0,0.003259
1413.0,0.02683
1414.0,0.0004715
1415.0,0.0002439
1416.0,0.03932
1417.0,0.01356
1418.0,0.01555
1419.0,0.002499
1420.0,0.009586
1421.0,0.01047
1422.0,0.05082
1423.0,0.01031
1424.0,0.01892
1425.0,0.02839
1426.0,0.03075
1427.0,0.05313
1428.0,0.005373
1429.0,0.04123
1430.0,0.06659
1431.0,0.07223
1432.0,0.004277
1433.0,0.04724
1434.0,0.02468
1435.0,0.02689
1436.0,0.04837
1437.0,0.03708
1438.0,0.01665
1439.0,0.06422
1440.0,0.04829
1441.0,0.03846
1442.0,0.04231
1443.0,0.05062
1444.0,0.06904
1445.0,0.05603
1446.0,0.02583
1447.0,0.04062
1448.0,0.123
1449.0,0.1088
1450.0,0.03005
1451.0,0.01257
1452.0,0.06738
1453.0,0.08733
1454.0,0.1431
1455.0,0.07002
1456.0,0.09513
1457.0,0.1236
1458.0,0.1419
1459.0,0.1684
1460.0,0.08976
1461.0,0.0954
1462.0,0.1366
1463.0,0.04637
1464.0,0.1588
1465.0,0.09631
