interpolation:linear
wavelength,value
280.0,1.1770000000000002e-20
280.5,2.412e-19
281.0,1.108e-18
281.5,2.238e-17
282.0,1.368e-16
282.5,4.393e-16
283.0,1.593e-15
283.5,2.723e-15
284.0,4.379e-14
284.5,1.218e-13
285.0,2.26e-13
285.5,1.32e-12
286.0,5.538e-12
286.5,2.526e-11
287.0,7.174e-11
287.5,2.631e-10
288.0,8.949e-10
288.5,3.059e-09
289.0,8.775e-09
289.5,2.75e-08
290.0,7.748e-08
290.5,1.592e-07
291.0,3.388e-07
291.5,9.411e-07
292.0,2.078e-06
292.5,2.894e-06
293.0,6.072e-06
293.5,1.412e-05
294.0,2.163e-05
294.5,3.558e-05
295.0,5.747e-05
295.5,0.000125
296.0,0.0002091
296.5,0.0002541
297.0,0.0003069
297.5,0.0006945
298.0,0.0009496
298.5,0.0008574
299.0,0.001703
299.5,0.002352
300.0,0.002346
300.5,0.003073
301.0,0.004732
301.5,0.006546
302.0,0.005234
302.5,0.009466
303.0,0.01539
303.5,0.01825
304.0,0.0165
304.5,0.02212
305.0,0.02889
305.5,0.03022
306.0,0.02833
306.5,0.03338
307.0,0.04367
307.5,0.05161
308.0,0.05369
308.5,0.06005
309.0,0.05272
309.5,0.05654
310.0,0.05519
310.5,0.08831
311.0,0.1082
311.5,0.1036
312.0,0.09763
312.5,0.1143
313.0,0.1217
313.5,0.1212
314.0,0.1444
314.5,0.1198
315.0,0.1561
315.5,0.1357
316.0,0.1123
316.5,0.154
317.0,0.1921
317.5,0.2035
318.0,0.154
318.5,0.1795
319.0,0.2068
319.5,0.1785
320.0,0.2182
320.5,0.2561
321.0,0.2153
321.5,0.2058
322.0,0.235
322.5,0.2044
323.0,0.1957
323.5,0.2244
324.0,0.2607
324.5,0.2712
325.0,0.2478
325.5,0.3088
326.0,0.3624
326.5,0.3547
327.0,0.3581
327.5,0.3513
328.0,0.3251
328.5,0.3285
329.0,0.3818
329.5,0.4305
330.0,0.4391
330.5,0.3616
331.0,0.3727
331.5,0.3728
332.0,0.3932
332.5,0.3855
333.0,0.3883
333.5,0.3596
334.0,0.3707
334.5,0.4194
335.0,0.3902
335.5,0.443
336.0,0.3073
336.5,0.3748
337.0,0.3112
337.5,0.3895
338.0,0.3745
338.5,0.4227
339.0,0.4216
339.5,0.4051
340.0,0.4887
340.5,0.4409
341.0,0.4229
341.5,0.3925
342.0,0.4711
342.5,0.4426
343.0,0.4861
343.5,0.4574
344.0,0.344
344.5,0.3405
345.0,0.4563
345.5,0.4684
346.0,0.3997
346.5,0.4542
347.0,0.4873
347.5,0.3944
348.0,0.4524
348.5,0.4541
349.0,0.4224
349.5,0.419
350.0,0.5194
350.5,0.5491
351.0,0.491
351.5,0.4761
352.0,0.514
352.5,0.4028
353.0,0.5088
353.5,0.5456
354.0,0.568
354.5,0.5774
355.0,0.5765
355.5,0.5219
356.0,0.5473
356.5,0.4684
357.0,0.3879
357.5,0.4761
358.0,0.3782
358.5,0.3239
359.0,0.454
359.5,0.5795
360.0,0.6157
360.5,0.4933
361.0,0.4506
361.5,0.5195
362.0,0.4498
362.5,0.6233
363.0,0.5606
363.5,0.5171
364.0,0.6334
364.5,0.5424
365.0,0.5534
365.5,0.6958
366.0,0.7384
366.5,0.6948
367.0,0.6779
367.5,0.7047
368.0,0.6177
368.5,0.6243
369.0,0.6753
369.5,0.721
370.0,0.7699
370.5,0.5985
371.0,0.6405
371.5,0.8027
372.0,0.5337
372.5,0.641
373.0,0.6529
373.5,0.4254
374.0,0.6192
374.5,0.5135
375.0,0.5
375.5,0.7478
376.0,0.621
376.5,0.6446
377.0,0.6835
377.5,0.8008
378.0,0.8696
378.5,0.8234
379.0,0.6809
379.5,0.6232
380.0,0.6491
380.5,0.7872
381.0,0.7899
381.5,0.6269
382.0,0.5575
382.5,0.4758
383.0,0.4411
383.5,0.4254
384.0,0.4699
384.5,0.6921
385.0,0.6872
385.5,0.6408
386.0,0.5496
386.5,0.7228
387.0,0.6015
387.5,0.6766
388.0,0.6256
388.5,0.6191
389.0,0.6693
389.5,0.8117
390.0,0.8157
390.5,0.7517
391.0,0.8859
391.5,0.9049
392.0,0.7632
392.5,0.6841
393.0,0.3811
393.5,0.2773
394.0,0.565
394.5,0.7191
395.0,0.8786
395.5,0.8938
396.0,0.7759
396.5,0.454
397.0,0.3411
397.5,0.6945
398.0,0.9741
398.5,1.008
399.0,1.092
399.5,1.09
400.0,1.133
401.0,1.166
402.0,1.233
403.0,1.173
404.0,1.158
405.0,1.16
406.0,1.143
407.0,1.126
408.0,1.173
409.0,1.258
410.0,1.101
411.0,1.194
412.0,1.285
413.0,1.255
414.0,1.273
415.0,1.278
416.0,1.302
417.0,1.273
418.0,1.251
419.0,1.27
420.0,1.267
421.0,1.327
422.0,1.263
423.0,1.236
424.0,1.31
425.0,1.309
426.0,1.276
427.0,1.255
428.0,1.224
429.0,1.16
430.0,1.017
431.0,1.01
432.0,1.305
433.0,1.314
434.0,1.222
435.0,1.279
436.0,1.442
437.0,1.423
438.0,1.297
439.0,1.345
440.0,1.389
441.0,1.44
442.0,1.547
443.0,1.51
444.0,1.544
445.0,1.513
446.0,1.444
447.0,1.562
448.0,1.59
449.0,1.597
450.0,1.643
451.0,1.706
452.0,1.645
453.0,1.549
454.0,1.618
455.0,1.63
456.0,1.67
457.0,1.7
458.0,1.645
459.0,1.638
460.0,1.645
461.0,1.684
462.0,1.698
463.0,1.689
464.0,1.661
465.0,1.64
466.0,1.657
467.0,1.63
468.0,1.651
469.0,1.661
470.0,1.61
471.0,1.609
472.0,1.698
473.0,1.678
474.0,1.683
475.0,1.701
476.0,1.654
477.0,1.661
478.0,1.708
479.0,1.699
480.0,1.702
481.0,1.734
482.0,1.743
483.0,1.722
484.0,1.688
485.0,1.609
486.0,1.407
487.0,1.475
488.0,1.619
489.0,1.627
490.0,1.712
491.0,1.683
492.0,1.591
493.0,1.644
494.0,1.662
495.0,1.677
496.0,1.689
497.0,1.716
498.0,1.637
499.0,1.66
500.0,1.614
501.0,1.587
502.0,1.568
503.0,1.635
504.0,1.601
505.0,1.654
506.0,1.709
507.0,1.628
508.0,1.576
509.0,1.62
510.0,1.611
511.0,1.654
512.0,1.673
513.0,1.584
514.0,1.574
515.0,1.559
516.0,1.557
517.0,1.384
518.0,1.456
519.0,1.528
520.0,1.585
521.0,1.601
522.0,1.604
523.0,1.577
524.0,1.635
525.0,1.657
526.0,1.584
527.0,1.495
528.0,1.583
529.0,1.671
530.0,1.648
531.0,1.674
532.0,1.618
533.0,1.571
534.0,1.618
535.0,1.653
536.0,1.669
537.0,1.603
538.0,1.632
539.0,1.619
540.0,1.554
541.0,1.567
542.0,1.618
543.0,1.6
544.0,1.63
545.0,1.625
546.0,1.635
547.0,1.634
548.0,1.614
549.0,1.619
550.0,1.639
551.0,1.62
552.0,1.632
553.0,1.604
554.0,1.643
555.0,1.648
556.0,1.628
557.0,1.578
558.0,1.568
559.0,1.541
560.0,1.561
561.0,1.583
562.0,1.573
563.0,1.618
564.0,1.576
565.0,1.564
566.0,1.543
567.0,1.574
568.0,1.564
569.0,1.534
570.0,1.533
571.0,1.523
572.0,1.564
573.0,1.582
574.0,1.579
575.0,1.551
576.0,1.538
577.0,1.554
578.0,1.53
579.0,1.534
580.0,1.559
581.0,1.564
582.0,1.591
583.0,1.593
584.0,1.606
585.0,1.567
586.0,1.535
587.0,1.571
588.0,1.542
589.0,1.383
590.0,1.445
591.0,1.52
592.0,1.507
593.0,1.523
594.0,1.516
595.0,1.484
596.0,1.53
597.0,1.517
598.0,1.51
599.0,1.51
600.0,1.509
601.0,1.495
602.0,1.485
603.0,1.509
604.0,1.534
605.0,1.526
606.0,1.519
607.0,1.533
608.0,1.515
609.0,1.517
610.0,1.505
611.0,1.513
612.0,1.508
613.0,1.489
614.0,1.468
615.0,1.5
616.0,1.45
617.0,1.447
618.0,1.502
619.0,1.487
620.0,1.497
621.0,1.5
622.0,1.484
623.0,1.463
624.0,1.437
625.0,1.434
626.0,1.456
627.0,1.475
628.0,1.412
629.0,1.453
630.0,1.421
631.0,1.442
632.0,1.423
633.0,1.462
634.0,1.445
635.0,1.466
636.0,1.445
637.0,1.467
638.0,1.479
639.0,1.462
640.0,1.446
641.0,1.445
642.0,1.437
643.0,1.457
644.0,1.451
645.0,1.455
646.0,1.425
647.0,1.418
648.0,1.421
649.0,1.394
650.0,1.389
651.0,1.447
652.0,1.401
653.0,1.429
654.0,1.412
655.0,1.366
656.0,1.206
657.0,1.239
658.0,1.385
659.0,1.393
660.0,1.399
661.0,1.409
662.0,1.414
663.0,1.385
664.0,1.399
665.0,1.398
666.0,1.398
667.0,1.396
668.0,1.395
669.0,1.417
670.0,1.41
671.0,1.41
672.0,1.397
673.0,1.418
674.0,1.413
675.0,1.399
676.0,1.409
677.0,1.395
678.0,1.399
679.0,1.376
680.0,1.387
681.0,1.378
682.0,1.376
683.0,1.374
684.0,1.367
685.0,1.379
686.0,1.371
687.0,1.061
688.0,1.169
689.0,1.171
690.0,1.205
691.0,1.241
692.0,1.266
693.0,1.258
694.0,1.249
695.0,1.283
696.0,1.285
697.0,1.341
698.0,1.32
699.0,1.304
700.0,1.289
701.0,1.28
702.0,1.284
703.0,1.286
704.0,1.319
705.0,1.321
706.0,1.317
707.0,1.316
708.0,1.32
709.0,1.317
710.0,1.319
711.0,1.316
712.0,1.31
713.0,1.299
714.0,1.304
715.0,1.268
716.0,1.271
717.0,1.158
718.0,1.075
719.0,0.9923
720.0,1.042
721.0,1.115
722.0,1.237
723.0,1.172
724.0,1.079
725.0,1.07
726.0,1.115
727.0,1.119
728.0,1.07
729.0,1.09
730.0,1.151
731.0,1.109
732.0,1.165
733.0,1.212
734.0,1.236
735.0,1.213
736.0,1.211
737.0,1.217
738.0,1.223
739.0,1.2
740.0,1.227
741.0,1.212
742.0,1.211
743.0,1.242
744.0,1.237
745.0,1.236
746.0,1.242
747.0,1.245
748.0,1.242
749.0,1.228
750.0,1.227
751.0,1.215
752.0,1.22
753.0,1.226
754.0,1.229
755.0,1.222
756.0,1.222
757.0,1.224
758.0,1.209
759.0,1.192
760.0,0.3764
761.0,0.2479
762.0,0.7692
763.0,0.4947
764.0,0.6426
765.0,0.7702
766.0,0.8662
767.0,1.018
768.0,1.119
769.0,1.13
770.0,1.155
771.0,1.158
772.0,1.159
773.0,1.166
774.0,1.16
775.0,1.151
776.0,1.165
777.0,1.15
778.0,1.143
779.0,1.144
780.0,1.138
781.0,1.139
782.0,1.146
783.0,1.126
784.0,1.132
785.0,1.124
786.0,1.137
787.0,1.123
788.0,1.112
789.0,1.112
790.0,1.091
791.0,1.093
792.0,1.084
793.0,1.067
794.0,1.076
795.0,1.097
796.0,1.075
797.0,1.077
798.0,1.097
799.0,1.093
800.0,1.077
801.0,1.076
802.0,1.072
803.0,1.066
804.0,1.066
805.0,1.06
806.0,1.084
807.0,1.072
808.0,1.073
809.0,1.057
810.0,1.051
811.0,1.058
812.0,1.036
813.0,1.02
814.0,0.9266
815.0,0.9203
816.0,0.8617
817.0,0.8734
818.0,0.8473
819.0,0.9214
820.0,0.8782
821.0,0.9918
822.0,0.9694
823.0,0.7167
824.0,0.9527
825.0,0.977
826.0,0.9503
827.0,0.9917
828.0,0.8721
829.0,0.9426
830.0,0.9338
831.0,0.9358
832.0,0.913
833.0,0.9545
834.0,0.9312
835.0,1.001
836.0,0.9718
837.0,1.003
838.0,0.9777
839.0,0.987
840.0,1.007
841.0,0.9955
842.0,0.9938
843.0,0.9894
844.0,0.9779
845.0,1.008
846.0,1.003
847.0,0.9832
848.0,0.9789
849.0,0.9512
850.0,0.9111
851.0,0.9666
852.0,0.959
853.0,0.9217
854.0,0.7971
855.0,0.8741
856.0,0.956
857.0,0.9762
858.0,0.9696
859.0,0.9697
860.0,0.971
861.0,0.9659
862.0,0.9809
863.0,1.004
864.0,0.9539
865.0,0.9455
866.0,0.8502
867.0,0.8872
868.0,0.9655
869.0,0.9454
870.0,0.9724
871.0,0.9592
872.0,0.9558
873.0,0.9539
874.0,0.9426
875.0,0.9236
876.0,0.9334
877.0,0.9428
878.0,0.9534
879.0,0.9387
880.0,0.9186
881.0,0.9057
882.0,0.9256
883.0,0.9278
884.0,0.9239
885.0,0.931
886.0,0.8903
887.0,0.8975
888.0,0.9124
889.0,0.92
890.0,0.9156
891.0,0.9124
892.0,0.8901
893.0,0.8678
894.0,0.8471
895.0,0.8132
896.0,0.773
897.0,0.6827
898.0,0.7338
899.0,0.5819
900.0,0.7405
901.0,0.6083
902.0,0.6835
903.0,0.6997
904.0,0.8412
905.0,0.8183
906.0,0.7708
907.0,0.6534
908.0,0.663
909.0,0.7045
910.0,0.6467
911.0,0.6756
912.0,0.7001
913.0,0.6574
914.0,0.6479
915.0,0.6986
916.0,0.6004
917.0,0.7339
918.0,0.6159
919.0,0.7419
920.0,0.7386
921.0,0.7643
922.0,0.7003
923.0,0.7377
924.0,0.7181
925.0,0.7034
926.0,0.7106
927.0,0.7793
928.0,0.6183
929.0,0.5771
930.0,0.4751
931.0,0.4461
932.0,0.3428
933.0,0.2914
934.0,0.1868
935.0,0.2877
936.0,0.1963
937.0,0.2019
938.0,0.2411
939.0,0.4325
940.0,0.5054
941.0,0.402
942.0,0.4516
943.0,0.3137
944.0,0.3164
945.0,0.4112
946.0,0.232
947.0,0.4185
948.0,0.312
949.0,0.5372
950.0,0.1867
951.0,0.5253
952.0,0.3129
953.0,0.3841
954.0,0.4492
955.0,0.3859
956.0,0.3669
957.0,0.3166
958.0,0.4873
959.0,0.4098
960.0,0.4581
961.0,0.4972
962.0,0.4732
963.0,0.5304
964.0,0.4913
965.0,0.5263
966.0,0.5303
967.0,0.5293
968.0,0.6603
969.0,0.6921
970.0,0.6433
971.0,0.7148
972.0,0.6879
973.0,0.6204
974.0,0.5926
975.0,0.6063
976.0,0.5868
977.0,0.646
978.0,0.6228
979.0,0.645
980.0,0.6116
981.0,0.7099
982.0,0.6863
983.0,0.6637
984.0,0.7232
985.0,0.6835
986.0,0.7311
987.0,0.7218
988.0,0.7206
989.0,0.7259
990.0,0.7157
991.0,0.7287
992.0,0.7324
993.0,0.7212
994.0,0.7317
995.0,0.7301
996.0,0.7277
997.0,0.7284
998.0,0.7253
999.0,0.7224
1000.0,0.7186
1001.0,0.7262
1002.0,0.7113
1003.0,0.7137
1004.0,0.6976
1005.0,0.6703
1006.0,0.6974
1007.0,0.7117
1008.0,0.7088
1009.0,0.706
1010.0,0.7036
1011.0,0.708
1012.0,0.7029
1013.0,0.7061
1014.0,0.7012
1015.0,0.6967
1016.0,0.6937
1017.0,0.6957
1018.0,0.6925
1019.0,0.6796
1020.0,0.6892
1021.0,0.6879
1022.0,0.6833
1023.0,0.6907
1024.0,0.6837
1025.0,0.6896
1026.0,0.6871
1027.0,0.6855
1028.0,0.6842
1029.0,0.6763
1030.0,0.6803
1031.0,0.6778
1032.0,0.6757
1033.0,0.6656
1034.0,0.6655
1035.0,0.6676
1036.0,0.6713
1037.0,0.6604
1038.0,0.6634
1039.0,0.6631
1040.0,0.6605
1041.0,0.6633
1042.0,0.6587
1043.0,0.6568
1044.0,0.6592
1045.0,0.6504
1046.0,0.6433
1047.0,0.6493
1048.0,0.653
1049.0,0.6508
1050.0,0.648
1051.0,0.6473
1052.0,0.6449
1053.0,0.64
1054.0,0.6416
1055.0,0.6423
1056.0,0.6404
1057.0,0.6386
1058.0,0.6232
1059.0,0.6242
1060.0,0.6234
1061.0,0.6229
1062.0,0.6264
1063.0,0.6205
1064.0,0.6278
1065.0,0.624
1066.0,0.6111
1067.0,0.6192
1068.0,0.6062
1069.0,0.5871
1070.0,0.6076
1071.0,0.6153
1072.0,0.6096
1073.0,0.6005
1074.0,0.6141
1075.0,0.5888
1076.0,0.614
1077.0,0.6061
1078.0,0.5957
1079.0,0.6033
1080.0,0.5969
1081.0,0.5802
1082.0,0.585
1083.0,0.5857
1084.0,0.5805
1085.0,0.5977
1086.0,0.5545
1087.0,0.5654
1088.0,0.5862
1089.0,0.5732
1090.0,0.5645
1091.0,0.5857
1092.0,0.583
1093.0,0.5107
1094.0,0.5354
1095.0,0.5293
1096.0,0.5118
1097.0,0.5693
1098.0,0.5054
1099.0,0.5245
1100.0,0.4954
1101.0,0.4993
1102.0,0.4812
1103.0,0.4799
1104.0,0.4801
1105.0,0.5142
1106.0,0.422
1107.0,0.494
1108.0,0.4362
1109.0,0.4337
1110.0,0.4916
1111.0,0.3576
1112.0,0.429
1113.0,0.2989
1114.0,0.3304
1115.0,0.2748
1116.0,0.2359
1117.0,0.1065
1118.0,0.2498
1119.0,0.1392
1120.0,0.1749
1121.0,0.2222
1122.0,0.107
1123.0,0.1577
1124.0,0.1333
1125.0,0.1703
1126.0,0.07298
1127.0,0.1909
1128.0,0.1287
1129.0,0.134
1130.0,0.09565
1131.0,0.3286
1132.0,0.2642
1133.0,0.1848
1134.0,0.05956
1135.0,0.0219
1136.0,0.1605
1137.0,0.3272
1138.0,0.2352
1139.0,0.3193
1140.0,0.2788
1141.0,0.2235
1142.0,0.2501
1143.0,0.3421
1144.0,0.1366
1145.0,0.1776
1146.0,0.1918
1147.0,0.08218
1148.0,0.2964
1149.0,0.2468
1150.0,0.1467
1151.0,0.2337
1152.0,0.2759
1153.0,0.2604
1154.0,0.176
1155.0,0.3336
1156.0,0.3063
1157.0,0.3356
1158.0,0.3314
1159.0,0.3493
1160.0,0.3089
1161.0,0.3626
1162.0,0.3656
1163.0,0.4645
1164.0,0.4093
1165.0,0.3958
1166.0,0.3868
1167.0,0.4156
1168.0,0.4221
1169.0,0.4282
1170.0,0.4572
1171.0,0.4473
1172.0,0.4509
1173.0,0.4562
1174.0,0.3496
1175.0,0.4425
1176.0,0.4757
1177.0,0.4635
1178.0,0.3662
1179.0,0.4791
1180.0,0.4397
1181.0,0.4523
1182.0,0.3317
1183.0,0.4426
1184.0,0.4213
1185.0,0.4119
1186.0,0.47
1187.0,0.4533
1188.0,0.3386
1189.0,0.4238
1190.0,0.4595
1191.0,0.4454
1192.0,0.4648
1193.0,0.4489
1194.0,0.4602
1195.0,0.4417
1196.0,0.4297
1197.0,0.4567
1198.0,0.4234
1199.0,0.3754
1200.0,0.4438
1201.0,0.4331
1202.0,0.4279
1203.0,0.4242
1204.0,0.38
1205.0,0.4333
1206.0,0.47
1207.0,0.4281
1208.0,0.4169
1209.0,0.4243
1210.0,0.4386
1211.0,0.4236
1212.0,0.4245
1213.0,0.4576
1214.0,0.4315
1215.0,0.425
1216.0,0.4559
1217.0,0.4468
1218.0,0.4525
1219.0,0.4482
1220.0,0.4526
1221.0,0.4555
1222.0,0.4455
1223.0,0.4425
1224.0,0.4418
1225.0,0.4527
1226.0,0.454
1227.0,0.4262
1228.0,0.4548
1229.0,0.454
1230.0,0.4476
1231.0,0.4558
1232.0,0.4533
1233.0,0.4434
1234.0,0.4543
1235.0,0.4522
1236.0,0.4548
1237.0,0.4507
1238.0,0.4533
1239.0,0.4475
1240.0,0.449
1241.0,0.4483
1242.0,0.446
1243.0,0.4423
1244.0,0.4459
1245.0,0.4476
1246.0,0.4449
1247.0,0.4436
1248.0,0.444
1249.0,0.4447
1250.0,0.4425
1251.0,0.4377
1252.0,0.4366
1253.0,0.4351
1254.0,0.4323
1255.0,0.4367
1256.0,0.4281
1257.0,0.4265
1258.0,0.4316
1259.0,0.4216
1260.0,0.4231
1261.0,0.4066
1262.0,0.3982
1263.0,0.3992
1264.0,0.3776
1265.0,0.3965
1266.0,0.3869
1267.0,0.39
1268.0,0.3757
1269.0,0.2756
1270.0,0.39
1271.0,0.4044
1272.0,0.4048
1273.0,0.4014
1274.0,0.4016
1275.0,0.406
1276.0,0.4086
1277.0,0.4097
1278.0,0.4145
1279.0,0.4111
1280.0,0.4057
1281.0,0.3858
1282.0,0.3696
1283.0,0.3985
1284.0,0.4085
1285.0,0.4108
1286.0,0.4151
1287.0,0.411
1288.0,0.4103
1289.0,0.4018
1290.0,0.4064
1291.0,0.4113
1292.0,0.3948
1293.0,0.4054
1294.0,0.403
1295.0,0.403
1296.0,0.3904
1297.0,0.3739
1298.0,0.3935
1299.0,0.4051
1300.0,0.3586
1301.0,0.3663
1302.0,0.3919
1303.0,0.3522
1304.0,0.3153
1305.0,0.3852
1306.0,0.386
1307.0,0.3171
1308.0,0.3505
1309.0,0.384
1310.0,0.3116
1311.0,0.3393
1312.0,0.3325
1313.0,0.3284
1314.0,0.2995
1315.0,0.2988
1316.0,0.3364
1317.0,0.3204
1318.0,0.342
1319.0,0.2855
1320.0,0.2727
1321.0,0.3113
1322.0,0.3168
1323.0,0.2538
1324.0,0.28
1325.0,0.3323
1326.0,0.2949
1327.0,0.2838
1328.0,0.2497
1329.0,0.2006
1330.0,0.2541
1331.0,0.1704
1332.0,0.17
1333.0,0.2315
1334.0,0.1903
1335.0,0.2524
1336.0,0.2078
1337.0,0.1894
1338.0,0.2037
1339.0,0.2008
1340.0,0.1913
1341.0,0.1959
1342.0,0.2052
1343.0,0.1603
1344.0,0.09614
1345.0,0.135
1346.0,0.08286
1347.0,0.08678
1348.0,0.009826
1349.0,0.02965
1350.0,0.0273
1351.0,0.01079
1352.0,0.00464
1353.0,0.0004378
1354.0,0.001055
1355.0,2.731e-05
1356.0,0.0002269
1357.0,0.0003366
1358.0,3.089e-05
1359.0,8.859e-06
1360.0,1.898e-05
1361.0,1.326e-07
1362.0,8.773e-10
1363.0,2.98e-05
1364.0,1.419e-05
1365.0,7.682e-10
1366.0,0.0001032
1367.0,4.012e-05
1368.0,3.869e-11
1369.0,5.725e-06
1370.0,3.97e-06
1371.0,3.688e-07
1372.0,2.25e-05
1373.0,0.0002453
1374.0,0.0007632
1375.0,0.00133
1376.0,0.0009331
1377.0,0.0004746
1378.0,0.003622
1379.0,0.0002071
1380.0,0.0003668
1381.0,1.321e-05
1382.0,2.226e-05
1383.0,5.096e-07
1384.0,7.312e-06
1385.0,1.47e-05
1386.0,2.478e-05
1387.0,0.0009413
1388.0,2.211e-05
1389.0,0.00215
1390.0,0.001819
1391.0,0.001367
1392.0,0.0001099
1393.0,0.0004572
1394.0,0.0004212
1395.0,5.52e-06
1396.0,1.518e-07
1397.0,0.0002161
1398.0,0.00415
1399.0,0.002669
1400.0,1.025e-07
1401.0,2.295e-07
1402.0,0.004551
1403.0,0.006197
1404.0,0.001977
1405.0,3.63e-06
1406.0,0.005837
1407.0,0.0005116
1408.0,0.004697
1409.0,0.002099
1410.0,0.001489
1411.0,0.00538
1412.0,0.006333
1413.0,0.04079
1414.0,0.001145
1415.0,0.0006389
1416.0,0.05388
1417.0,0.02174
1418.0,0.02452
1419.0,0.004142
1420.0,0.0153
1421.0,0.0173
1422.0,0.06836
1423.0,0.01493
1424.0,0.02663
1425.0,0.04049
1426.0,0.04174
1427.0,0.06654
1428.0,0.009563
1429.0,0.05394
1430.0,0.08182
1431.0,0.08732
1432.0,0.007729
1433.0,0.0594
1434.0,0.03221
1435.0,0.0388
1436.0,0.06389
1437.0,0.04931
1438.0,0.02397
1439.0,0.08196
1440.0,0.06233
1441.0,0.05241
1442.0,0.05653
1443.0,0.06362
1444.0,0.08559
1445.0,0.07252
1446.0,0.03441
1447.0,0.05451
1448.0,0.1415
1449.0,0.1287
1450.0,0.04038
1451.0,0.01797
1452.0,0.08284
1453.0,0.1051
1454.0,0.1612
1455.0,0.08333
1456.0,0.115
1457.0,0.1424
1458.0,0.1571
1459.0,0.1873
1460.0,0.1038
1461.0,0.1128
1462.0,0.1561
1463.0,0.05748
1464.0,0.176
1465.0,0.1079
1466.0,0.0866
1467.0,0.05158
1468.0,0.09884
1469.0,0.1178
1470.0,0.06803
