interpolation:linear
wavelength,value
280.0,8.841e-24
280.5,2.8629999999999997e-22
281.0,1.555e-21
281.5,4.8870000000000007e-20
282.0,3.909e-19
282.5,1.504e-18
283.0,6.656e-18
283.5,1.257e-17
284.0,3.206e-16
284.5,1.101e-15
285.0,2.564e-15
285.5,1.957e-14
286.0,9.154e-14
286.5,5.217e-13
287.0,1.746e-12
287.5,7.946e-12
288.0,3.545e-11
288.5,1.4e-10
289.0,4.66e-10
289.5,1.72e-09
290.0,5.54e-09
290.5,1.273e-08
291.0,3.101e-08
291.5,1.023e-07
292.0,2.597e-07
292.5,3.912e-07
293.0,9.081e-07
293.5,2.424e-06
294.0,4.072e-06
294.5,7.186e-06
295.0,1.268e-05
295.5,3.076e-05
296.0,5.543e-05
296.5,7.229e-05
297.0,9.235e-05
297.5,0.0002261
298.0,0.0003294
298.5,0.0003118
299.0,0.0006471
299.5,0.0009589
300.0,0.0009926
300.5,0.001348
301.0,0.002186
301.5,0.003155
302.0,0.002575
302.5,0.004829
303.0,0.008208
303.5,0.009983
304.0,0.009141
304.5,0.01262
305.0,0.01712
305.5,0.01832
306.0,0.01735
306.5,0.02074
307.0,0.02792
307.5,0.03386
308.0,0.03541
308.5,0.04011
309.0,0.03557
309.5,0.03918
310.0,0.03872
310.5,0.06238
311.0,0.07721
311.5,0.0743
312.0,0.07138
312.5,0.08463
313.0,0.09075
313.5,0.09002
314.0,0.1088
314.5,0.09185
315.0,0.1202
315.5,0.1038
316.0,0.08709
316.5,0.1208
317.0,0.1508
317.5,0.1595
318.0,0.1217
318.5,0.1438
319.0,0.1667
319.5,0.1428
320.0,0.1744
320.5,0.2074
321.0,0.1763
321.5,0.1689
322.0,0.1911
322.5,0.1665
323.0,0.1607
323.5,0.1865
324.0,0.2172
324.5,0.2253
325.0,0.2045
325.5,0.2565
326.0,0.3035
326.5,0.2986
327.0,0.3013
327.5,0.2953
328.0,0.2718
328.5,0.277
329.0,0.3239
329.5,0.3661
330.0,0.3734
330.5,0.3066
331.0,0.316
331.5,0.3173
332.0,0.3362
332.5,0.3304
333.0,0.3329
333.5,0.3077
334.0,0.3174
334.5,0.3605
335.0,0.3362
335.5,0.3824
336.0,0.2655
336.5,0.3236
337.0,0.2687
337.5,0.3364
338.0,0.3244
338.5,0.3668
339.0,0.3663
339.5,0.3522
340.0,0.4248
340.5,0.3837
341.0,0.3686
341.5,0.3426
342.0,0.4116
342.5,0.387
343.0,0.4253
343.5,0.4004
344.0,0.301
344.5,0.2985
345.0,0.4005
345.5,0.4116
346.0,0.3516
346.5,0.3998
347.0,0.4292
347.5,0.3476
348.0,0.3991
348.5,0.401
349.0,0.3733
349.5,0.3705
350.0,0.4597
350.5,0.4863
351.0,0.4351
351.5,0.4221
352.0,0.4561
352.5,0.3577
353.0,0.4522
353.5,0.4853
354.0,0.5055
354.5,0.5142
355.0,0.5137
355.5,0.4654
356.0,0.4884
356.5,0.4182
357.0,0.3466
357.5,0.4255
358.0,0.3382
358.5,0.2898
359.0,0.4065
359.5,0.5191
360.0,0.5519
360.5,0.4424
361.0,0.4043
361.5,0.4666
362.0,0.4043
362.5,0.5607
363.0,0.5047
363.5,0.4659
364.0,0.5711
364.5,0.4893
365.0,0.4995
365.5,0.6284
366.0,0.6672
366.5,0.6283
367.0,0.6133
367.5,0.6379
368.0,0.5595
368.5,0.5658
369.0,0.6124
369.5,0.6542
370.0,0.6989
370.5,0.5436
371.0,0.5821
371.5,0.7299
372.0,0.4855
372.5,0.5834
373.0,0.5946
373.5,0.3876
374.0,0.5644
374.5,0.4684
375.0,0.4563
375.5,0.6827
376.0,0.5671
376.5,0.589
377.0,0.6248
377.5,0.7324
378.0,0.7956
378.5,0.7537
379.0,0.6235
379.5,0.5708
380.0,0.5948
380.5,0.7218
381.0,0.7247
381.5,0.5755
382.0,0.512
382.5,0.4372
383.0,0.4055
383.5,0.3913
384.0,0.4324
384.5,0.6372
385.0,0.633
385.5,0.5905
386.0,0.5067
386.5,0.6667
387.0,0.5551
387.5,0.6246
388.0,0.5777
388.5,0.5721
389.0,0.6187
389.5,0.7506
390.0,0.7546
390.5,0.6957
391.0,0.8203
391.5,0.8382
392.0,0.7072
392.5,0.6341
393.0,0.3534
393.5,0.2573
394.0,0.5244
394.5,0.6677
395.0,0.8161
395.5,0.8304
396.0,0.7211
396.5,0.4222
397.0,0.3173
397.5,0.6464
398.0,0.9068
398.5,0.9387
399.0,1.018
399.5,1.016
400.0,1.057
401.0,1.088
402.0,1.151
403.0,1.096
404.0,1.082
405.0,1.085
406.0,1.07
407.0,1.055
408.0,1.1
409.0,1.18
410.0,1.033
411.0,1.122
412.0,1.207
413.0,1.181
414.0,1.198
415.0,1.203
416.0,1.227
417.0,1.2
418.0,1.18
419.0,1.198
420.0,1.196
421.0,1.254
422.0,1.194
423.0,1.169
424.0,1.239
425.0,1.24
426.0,1.209
427.0,1.189
428.0,1.161
429.0,1.101
430.0,0.9652
431.0,0.959
432.0,1.24
433.0,1.249
434.0,1.162
435.0,1.216
436.0,1.372
437.0,1.355
438.0,1.236
439.0,1.282
440.0,1.324
441.0,1.374
442.0,1.476
443.0,1.441
444.0,1.474
445.0,1.445
446.0,1.381
447.0,1.494
448.0,1.521
449.0,1.528
450.0,1.573
451.0,1.634
452.0,1.577
453.0,1.485
454.0,1.552
455.0,1.564
456.0,1.603
457.0,1.632
458.0,1.58
459.0,1.573
460.0,1.58
461.0,1.619
462.0,1.633
463.0,1.624
464.0,1.598
465.0,1.579
466.0,1.596
467.0,1.569
468.0,1.59
469.0,1.601
470.0,1.552
471.0,1.551
472.0,1.637
473.0,1.618
474.0,1.623
475.0,1.64
476.0,1.594
477.0,1.602
478.0,1.648
479.0,1.639
480.0,1.643
481.0,1.675
482.0,1.685
483.0,1.665
484.0,1.632
485.0,1.556
486.0,1.361
487.0,1.428
488.0,1.568
489.0,1.575
490.0,1.658
491.0,1.631
492.0,1.541
493.0,1.593
494.0,1.611
495.0,1.626
496.0,1.638
497.0,1.665
498.0,1.589
499.0,1.611
500.0,1.566
501.0,1.54
502.0,1.521
503.0,1.586
504.0,1.552
505.0,1.605
506.0,1.659
507.0,1.579
508.0,1.53
509.0,1.573
510.0,1.566
511.0,1.608
512.0,1.626
513.0,1.54
514.0,1.531
515.0,1.517
516.0,1.514
517.0,1.346
518.0,1.417
519.0,1.487
520.0,1.543
521.0,1.559
522.0,1.562
523.0,1.535
524.0,1.592
525.0,1.613
526.0,1.542
527.0,1.455
528.0,1.541
529.0,1.626
530.0,1.604
531.0,1.629
532.0,1.575
533.0,1.529
534.0,1.575
535.0,1.61
536.0,1.626
537.0,1.562
538.0,1.591
539.0,1.578
540.0,1.514
541.0,1.527
542.0,1.576
543.0,1.559
544.0,1.588
545.0,1.584
546.0,1.593
547.0,1.592
548.0,1.574
549.0,1.579
550.0,1.599
551.0,1.58
552.0,1.592
553.0,1.565
554.0,1.603
555.0,1.608
556.0,1.588
557.0,1.54
558.0,1.53
559.0,1.503
560.0,1.523
561.0,1.544
562.0,1.534
563.0,1.578
564.0,1.537
565.0,1.525
566.0,1.504
567.0,1.534
568.0,1.523
569.0,1.492
570.0,1.492
571.0,1.483
572.0,1.522
573.0,1.539
574.0,1.536
575.0,1.509
576.0,1.496
577.0,1.512
578.0,1.489
579.0,1.493
580.0,1.519
581.0,1.526
582.0,1.553
583.0,1.556
584.0,1.569
585.0,1.53
586.0,1.5
587.0,1.535
588.0,1.504
589.0,1.344
590.0,1.405
591.0,1.48
592.0,1.466
593.0,1.484
594.0,1.476
595.0,1.444
596.0,1.493
597.0,1.479
598.0,1.473
599.0,1.474
600.0,1.474
601.0,1.461
602.0,1.451
603.0,1.475
604.0,1.5
605.0,1.492
606.0,1.486
607.0,1.5
608.0,1.483
609.0,1.485
610.0,1.474
611.0,1.482
612.0,1.478
613.0,1.459
614.0,1.439
615.0,1.47
616.0,1.421
617.0,1.419
618.0,1.473
619.0,1.459
620.0,1.468
621.0,1.471
622.0,1.455
623.0,1.434
624.0,1.409
625.0,1.406
626.0,1.428
627.0,1.446
628.0,1.374
629.0,1.421
630.0,1.389
631.0,1.413
632.0,1.395
633.0,1.435
634.0,1.419
635.0,1.44
636.0,1.42
637.0,1.442
638.0,1.455
639.0,1.438
640.0,1.424
641.0,1.422
642.0,1.415
643.0,1.435
644.0,1.429
645.0,1.433
646.0,1.402
647.0,1.392
648.0,1.395
649.0,1.369
650.0,1.368
651.0,1.425
652.0,1.376
653.0,1.407
654.0,1.391
655.0,1.344
656.0,1.188
657.0,1.22
658.0,1.365
659.0,1.374
660.0,1.38
661.0,1.39
662.0,1.394
663.0,1.366
664.0,1.381
665.0,1.38
666.0,1.381
667.0,1.379
668.0,1.379
669.0,1.4
670.0,1.394
671.0,1.394
672.0,1.382
673.0,1.403
674.0,1.397
675.0,1.385
676.0,1.394
677.0,1.38
678.0,1.384
679.0,1.362
680.0,1.373
681.0,1.364
682.0,1.362
683.0,1.36
684.0,1.353
685.0,1.365
686.0,1.358
687.0,1.004
688.0,1.127
689.0,1.13
690.0,1.169
691.0,1.212
692.0,1.242
693.0,1.233
694.0,1.224
695.0,1.262
696.0,1.264
697.0,1.326
698.0,1.306
699.0,1.285
700.0,1.27
701.0,1.261
702.0,1.266
703.0,1.268
704.0,1.303
705.0,1.305
706.0,1.302
707.0,1.302
708.0,1.305
709.0,1.304
710.0,1.306
711.0,1.303
712.0,1.298
713.0,1.286
714.0,1.291
715.0,1.254
716.0,1.256
717.0,1.128
718.0,1.043
719.0,0.9603
720.0,1.008
721.0,1.089
722.0,1.22
723.0,1.15
724.0,1.052
725.0,1.04
726.0,1.086
727.0,1.093
728.0,1.04
729.0,1.065
730.0,1.126
731.0,1.082
732.0,1.143
733.0,1.196
734.0,1.221
735.0,1.198
736.0,1.197
737.0,1.202
738.0,1.212
739.0,1.188
740.0,1.216
741.0,1.203
742.0,1.203
743.0,1.233
744.0,1.229
745.0,1.228
746.0,1.234
747.0,1.237
748.0,1.234
749.0,1.22
750.0,1.22
751.0,1.207
752.0,1.213
753.0,1.219
754.0,1.222
755.0,1.215
756.0,1.215
757.0,1.217
758.0,1.202
759.0,1.183
760.0,0.3083
761.0,0.1895
762.0,0.712
763.0,0.4242
764.0,0.576
765.0,0.7127
766.0,0.8231
767.0,0.9886
768.0,1.102
769.0,1.117
770.0,1.146
771.0,1.151
772.0,1.152
773.0,1.16
774.0,1.154
775.0,1.145
776.0,1.159
777.0,1.144
778.0,1.137
779.0,1.138
780.0,1.132
781.0,1.133
782.0,1.14
783.0,1.121
784.0,1.126
785.0,1.118
786.0,1.131
787.0,1.115
788.0,1.103
789.0,1.104
790.0,1.08
791.0,1.084
792.0,1.075
793.0,1.059
794.0,1.071
795.0,1.091
796.0,1.065
797.0,1.067
798.0,1.091
799.0,1.085
800.0,1.068
801.0,1.067
802.0,1.064
803.0,1.057
804.0,1.057
805.0,1.052
806.0,1.078
807.0,1.066
808.0,1.067
809.0,1.049
810.0,1.043
811.0,1.048
812.0,1.024
813.0,1.006
814.0,0.9046
815.0,0.8986
816.0,0.8395
817.0,0.8524
818.0,0.8249
819.0,0.9053
820.0,0.8594
821.0,0.9816
822.0,0.9575
823.0,0.6886
824.0,0.9375
825.0,0.9662
826.0,0.9365
827.0,0.9809
828.0,0.8525
829.0,0.9296
830.0,0.9198
831.0,0.9222
832.0,0.8979
833.0,0.9444
834.0,0.9179
835.0,0.9938
836.0,0.9604
837.0,0.9962
838.0,0.9692
839.0,0.9804
840.0,1.001
841.0,0.9886
842.0,0.9881
843.0,0.985
844.0,0.9728
845.0,1.004
846.0,0.999
847.0,0.9796
848.0,0.9748
849.0,0.9472
850.0,0.9074
851.0,0.9621
852.0,0.9548
853.0,0.9182
854.0,0.7937
855.0,0.8708
856.0,0.9522
857.0,0.9727
858.0,0.966
859.0,0.9664
860.0,0.9678
861.0,0.9627
862.0,0.9777
863.0,1.001
864.0,0.9509
865.0,0.9425
866.0,0.8475
867.0,0.8845
868.0,0.9625
869.0,0.9426
870.0,0.9695
871.0,0.9564
872.0,0.953
873.0,0.9511
874.0,0.9399
875.0,0.9209
876.0,0.9307
877.0,0.94
878.0,0.9505
879.0,0.9359
880.0,0.9159
881.0,0.9028
882.0,0.9226
883.0,0.925
884.0,0.921
885.0,0.928
886.0,0.8866
887.0,0.8945
888.0,0.9087
889.0,0.9173
890.0,0.9118
891.0,0.9092
892.0,0.8857
893.0,0.8616
894.0,0.8378
895.0,0.8
896.0,0.7577
897.0,0.6626
898.0,0.7162
899.0,0.5594
900.0,0.7265
901.0,0.5856
902.0,0.6683
903.0,0.6809
904.0,0.8319
905.0,0.8071
906.0,0.7585
907.0,0.6335
908.0,0.6438
909.0,0.689
910.0,0.6242
911.0,0.6565
912.0,0.6827
913.0,0.6342
914.0,0.6263
915.0,0.6771
916.0,0.5782
917.0,0.7169
918.0,0.5932
919.0,0.7264
920.0,0.7265
921.0,0.7536
922.0,0.6844
923.0,0.7276
924.0,0.702
925.0,0.6872
926.0,0.6946
927.0,0.7674
928.0,0.5921
929.0,0.5483
930.0,0.4437
931.0,0.4182
932.0,0.3141
933.0,0.2625
934.0,0.1593
935.0,0.2627
936.0,0.1736
937.0,0.1773
938.0,0.2142
939.0,0.4054
940.0,0.4788
941.0,0.3736
942.0,0.4246
943.0,0.289
944.0,0.296
945.0,0.3832
946.0,0.2082
947.0,0.3882
948.0,0.2875
949.0,0.5065
950.0,0.1616
951.0,0.4965
952.0,0.2843
953.0,0.3557
954.0,0.4236
955.0,0.3584
956.0,0.3424
957.0,0.2865
958.0,0.467
959.0,0.3844
960.0,0.4303
961.0,0.4729
962.0,0.4489
963.0,0.5085
964.0,0.469
965.0,0.5056
966.0,0.5079
967.0,0.5066
968.0,0.6491
969.0,0.6799
970.0,0.6288
971.0,0.7067
972.0,0.6786
973.0,0.604
974.0,0.5754
975.0,0.592
976.0,0.569
977.0,0.634
978.0,0.608
979.0,0.6324
980.0,0.5976
981.0,0.7023
982.0,0.6762
983.0,0.6521
984.0,0.7185
985.0,0.6736
986.0,0.728
987.0,0.7172
988.0,0.7159
989.0,0.724
990.0,0.7113
991.0,0.7266
992.0,0.7305
993.0,0.7175
994.0,0.73
995.0,0.7286
996.0,0.7259
997.0,0.7268
998.0,0.7236
999.0,0.7208
1000.0,0.7165
1001.0,0.7246
1002.0,0.7079
1003.0,0.7121
1004.0,0.6955
1005.0,0.6689
1006.0,0.6957
1007.0,0.7101
1008.0,0.7069
1009.0,0.7038
1010.0,0.7011
1011.0,0.7065
1012.0,0.7011
1013.0,0.7047
1014.0,0.6998
1015.0,0.6953
1016.0,0.6922
1017.0,0.6941
1018.0,0.6912
1019.0,0.6776
1020.0,0.6878
1021.0,0.6866
1022.0,0.6818
1023.0,0.6891
1024.0,0.6814
1025.0,0.6882
1026.0,0.6856
1027.0,0.684
1028.0,0.6827
1029.0,0.6748
1030.0,0.679
1031.0,0.6764
1032.0,0.6744
1033.0,0.6643
1034.0,0.6643
1035.0,0.6664
1036.0,0.67
1037.0,0.6591
1038.0,0.662
1039.0,0.6617
1040.0,0.6591
1041.0,0.6619
1042.0,0.6573
1043.0,0.6553
1044.0,0.6577
1045.0,0.6488
1046.0,0.6418
1047.0,0.6477
1048.0,0.6513
1049.0,0.6491
1050.0,0.6462
1051.0,0.6455
1052.0,0.643
1053.0,0.638
1054.0,0.6396
1055.0,0.6401
1056.0,0.6381
1057.0,0.6363
1058.0,0.6208
1059.0,0.6217
1060.0,0.6209
1061.0,0.6203
1062.0,0.6237
1063.0,0.6177
1064.0,0.625
1065.0,0.621
1066.0,0.6084
1067.0,0.6164
1068.0,0.6032
1069.0,0.5844
1070.0,0.6046
1071.0,0.6129
1072.0,0.6067
1073.0,0.5978
1074.0,0.612
1075.0,0.5848
1076.0,0.6117
1077.0,0.6028
1078.0,0.5921
1079.0,0.6015
1080.0,0.5936
1081.0,0.5761
1082.0,0.5825
1083.0,0.5836
1084.0,0.5757
1085.0,0.5946
1086.0,0.5481
1087.0,0.5616
1088.0,0.5837
1089.0,0.569
1090.0,0.5588
1091.0,0.5827
1092.0,0.5805
1093.0,0.5022
1094.0,0.5324
1095.0,0.5217
1096.0,0.5026
1097.0,0.567
1098.0,0.4958
1099.0,0.5156
1100.0,0.4839
1101.0,0.4886
1102.0,0.4694
1103.0,0.4668
1104.0,0.4672
1105.0,0.5048
1106.0,0.4035
1107.0,0.4828
1108.0,0.4198
1109.0,0.4185
1110.0,0.4799
1111.0,0.3398
1112.0,0.4145
1113.0,0.2789
1114.0,0.3098
1115.0,0.2574
1116.0,0.2148
1117.0,0.08971
1118.0,0.2301
1119.0,0.1226
1120.0,0.1545
1121.0,0.1996
1122.0,0.09139
1123.0,0.1393
1124.0,0.1177
1125.0,0.1515
1126.0,0.06017
1127.0,0.1703
1128.0,0.1098
1129.0,0.1152
1130.0,0.07949
1131.0,0.3044
1132.0,0.2423
1133.0,0.1634
1134.0,0.04812
1135.0,0.01775
1136.0,0.1398
1137.0,0.3018
1138.0,0.215
1139.0,0.3024
1140.0,0.2597
1141.0,0.2042
1142.0,0.2311
1143.0,0.3206
1144.0,0.1215
1145.0,0.1573
1146.0,0.1697
1147.0,0.06756
1148.0,0.2777
1149.0,0.2274
1150.0,0.1302
1151.0,0.2135
1152.0,0.2561
1153.0,0.2447
1154.0,0.1542
1155.0,0.3158
1156.0,0.2879
1157.0,0.318
1158.0,0.3143
1159.0,0.3343
1160.0,0.2915
1161.0,0.3485
1162.0,0.351
1163.0,0.4563
1164.0,0.398
1165.0,0.3815
1166.0,0.3748
1167.0,0.4048
1168.0,0.4105
1169.0,0.418
1170.0,0.4491
1171.0,0.4388
1172.0,0.4438
1173.0,0.4482
1174.0,0.3346
1175.0,0.4357
1176.0,0.472
1177.0,0.4576
1178.0,0.3548
1179.0,0.4756
1180.0,0.4322
1181.0,0.4452
1182.0,0.3193
1183.0,0.4367
1184.0,0.4132
1185.0,0.4022
1186.0,0.4652
1187.0,0.4467
1188.0,0.3257
1189.0,0.417
1190.0,0.4546
1191.0,0.4378
1192.0,0.4603
1193.0,0.4433
1194.0,0.4554
1195.0,0.435
1196.0,0.4217
1197.0,0.4533
1198.0,0.4181
1199.0,0.3655
1200.0,0.4382
1201.0,0.4259
1202.0,0.4215
1203.0,0.4181
1204.0,0.3713
1205.0,0.4284
1206.0,0.4677
1207.0,0.4214
1208.0,0.4119
1209.0,0.4196
1210.0,0.4349
1211.0,0.418
1212.0,0.4171
1213.0,0.4544
1214.0,0.425
1215.0,0.418
1216.0,0.4528
1217.0,0.4428
1218.0,0.4493
1219.0,0.4447
1220.0,0.4496
1221.0,0.453
1222.0,0.4424
1223.0,0.439
1224.0,0.4377
1225.0,0.4502
1226.0,0.452
1227.0,0.4219
1228.0,0.4533
1229.0,0.4521
1230.0,0.4453
1231.0,0.4549
1232.0,0.4523
1233.0,0.4406
1234.0,0.4537
1235.0,0.4514
1236.0,0.4542
1237.0,0.4494
1238.0,0.4527
1239.0,0.4469
1240.0,0.4484
1241.0,0.4473
1242.0,0.4455
1243.0,0.4418
1244.0,0.4452
1245.0,0.447
1246.0,0.4443
1247.0,0.4429
1248.0,0.4431
1249.0,0.444
1250.0,0.4416
1251.0,0.4365
1252.0,0.4359
1253.0,0.4337
1254.0,0.4304
1255.0,0.4358
1256.0,0.426
1257.0,0.4242
1258.0,0.4302
1259.0,0.4184
1260.0,0.4202
1261.0,0.4015
1262.0,0.392
1263.0,0.3929
1264.0,0.3687
1265.0,0.3903
1266.0,0.3791
1267.0,0.3833
1268.0,0.3675
1269.0,0.2555
1270.0,0.3829
1271.0,0.3996
1272.0,0.4003
1273.0,0.3966
1274.0,0.3972
1275.0,0.402
1276.0,0.4049
1277.0,0.4065
1278.0,0.4123
1279.0,0.4088
1280.0,0.4035
1281.0,0.3841
1282.0,0.3686
1283.0,0.3973
1284.0,0.4071
1285.0,0.4096
1286.0,0.4143
1287.0,0.4095
1288.0,0.409
1289.0,0.399
1290.0,0.4051
1291.0,0.4103
1292.0,0.3911
1293.0,0.4037
1294.0,0.4012
1295.0,0.4006
1296.0,0.3862
1297.0,0.3683
1298.0,0.3905
1299.0,0.4037
1300.0,0.352
1301.0,0.3606
1302.0,0.3891
1303.0,0.3462
1304.0,0.305
1305.0,0.3819
1306.0,0.3825
1307.0,0.3082
1308.0,0.3452
1309.0,0.3803
1310.0,0.3028
1311.0,0.3332
1312.0,0.3257
1313.0,0.3209
1314.0,0.2908
1315.0,0.2892
1316.0,0.3295
1317.0,0.3133
1318.0,0.3365
1319.0,0.2746
1320.0,0.2635
1321.0,0.303
1322.0,0.3077
1323.0,0.2412
1324.0,0.2693
1325.0,0.3254
1326.0,0.2854
1327.0,0.2737
1328.0,0.2391
1329.0,0.1878
1330.0,0.2402
1331.0,0.1551
1332.0,0.1567
1333.0,0.2153
1334.0,0.1783
1335.0,0.2401
1336.0,0.1949
1337.0,0.1755
1338.0,0.1894
1339.0,0.1873
1340.0,0.1797
1341.0,0.1812
1342.0,0.1899
1343.0,0.1412
1344.0,0.0843
1345.0,0.12
1346.0,0.06845
1347.0,0.07107
1348.0,0.00657
1349.0,0.02121
1350.0,0.02043
1351.0,0.006793
1352.0,0.002516
1353.0,0.000189
1354.0,0.000515
1355.0,8.862e-06
1356.0,9.551e-05
1357.0,0.0001435
1358.0,1.018e-05
1359.0,2.222e-06
1360.0,5.669e-06
1361.0,2.102e-08
1362.0,9.992e-11
1363.0,8.7e-06
1364.0,3.859e-06
1365.0,6.524e-11
1366.0,3.27e-05
1367.0,1.263e-05
1368.0,1.763e-12
1369.0,1.506e-06
1370.0,9.337e-07
1371.0,7.237e-08
1372.0,6.996e-06
1373.0,9.519e-05
1374.0,0.0003406
1375.0,0.0006116
1376.0,0.0004578
1377.0,0.0002237
1378.0,0.001895
1379.0,9.578e-05
1380.0,0.0001595
1381.0,5.037e-06
1382.0,6.723e-06
1383.0,1.298e-07
1384.0,1.855e-06
1385.0,4.962e-06
1386.0,6.985e-06
1387.0,0.0004026
1388.0,8.55e-06
1389.0,0.001043
1390.0,0.0008931
1391.0,0.0006387
1392.0,4.679e-05
1393.0,0.0002133
1394.0,0.0001636
1395.0,1.705e-06
1396.0,2.594e-08
1397.0,9.474e-05
1398.0,0.00217
1399.0,0.00138
1400.0,1.515e-08
1401.0,4.164e-08
1402.0,0.002755
1403.0,0.003668
1404.0,0.001151
1405.0,1.014e-06
1406.0,0.003292
1407.0,0.0002811
1408.0,0.002655
1409.0,0.001079
1410.0,0.0007834
1411.0,0.003194
1412.0,0.003936
1413.0,0.03028
1414.0,0.000606
1415.0,0.0003203
1416.0,0.043
1417.0,0.01548
1418.0,0.01772
1419.0,0.002885
1420.0,0.01096
1421.0,0.01206
1422.0,0.05535
1423.0,0.01143
1424.0,0.02083
1425.0,0.03141
1426.0,0.03353
1427.0,0.05665
1428.0,0.006327
1429.0,0.04451
1430.0,0.07061
1431.0,0.07624
1432.0,0.005057
1433.0,0.0504
1434.0,0.0266
1435.0,0.02985
1436.0,0.05235
1437.0,0.04018
1438.0,0.01845
1439.0,0.06886
1440.0,0.05191
1441.0,0.042
1442.0,0.04599
1443.0,0.05406
1444.0,0.07338
1445.0,0.06033
1446.0,0.02805
1447.0,0.04416
1448.0,0.1281
1449.0,0.1141
1450.0,0.03266
1451.0,0.0139
1452.0,0.07146
1453.0,0.09208
1454.0,0.1481
1455.0,0.07357
1456.0,0.1004
1457.0,0.1287
1458.0,0.1461
1459.0,0.1736
1460.0,0.0935
1461.0,0.1001
1462.0,0.1419
1463.0,0.04924
1464.0,0.1635
1465.0,0.09945
1466.0,0.07484
1467.0,0.04221
