interpolation:linear
wavelength,value
280.0,5.8909999999999995e-22
280.5,1.4610000000000002e-20
281.0,7.196000000000001e-20
281.5,1.747e-18
282.0,1.194e-17
282.5,4.135e-17
283.0,1.629e-16
283.5,2.903e-16
284.0,5.656e-15
284.5,1.717e-14
285.0,3.503e-14
285.5,2.287e-13
286.0,1.004e-12
286.5,5.024e-12
287.0,1.528e-11
287.5,6.13e-11
288.0,2.334e-10
288.5,8.472e-10
289.0,2.586e-09
289.5,8.673e-09
290.0,2.584e-08
290.5,5.561e-08
291.0,1.252e-07
291.5,3.736e-07
292.0,8.745e-07
292.5,1.258e-06
293.0,2.753e-06
293.5,6.781e-06
294.0,1.079e-05
294.5,1.828e-05
295.0,3.064e-05
295.5,6.975e-05
296.0,0.0001203
296.5,0.0001506
297.0,0.0001862
297.5,0.0004353
298.0,0.0006112
298.5,0.0005628
299.0,0.001138
299.5,0.001619
300.0,0.00164
300.5,0.002181
301.0,0.003432
301.5,0.004831
302.0,0.003896
302.5,0.007153
303.0,0.01185
303.5,0.0142
304.0,0.01291
304.5,0.01751
305.0,0.02323
305.5,0.02454
306.0,0.0231
306.5,0.02738
307.0,0.03625
307.5,0.0433
308.0,0.04515
308.5,0.05076
309.0,0.04476
309.5,0.04853
310.0,0.04762
310.5,0.07641
311.0,0.09403
311.5,0.09021
312.0,0.0857
312.5,0.1009
313.0,0.1077
313.5,0.1071
314.0,0.1284
314.5,0.1073
315.0,0.14
315.5,0.1214
316.0,0.101
316.5,0.1392
317.0,0.1737
317.5,0.1839
318.0,0.1396
318.5,0.1637
319.0,0.1891
319.5,0.1626
320.0,0.1988
320.5,0.2346
321.0,0.1981
321.5,0.1896
322.0,0.2157
322.5,0.1877
323.0,0.1803
323.5,0.2078
324.0,0.2416
324.5,0.251
325.0,0.2288
325.5,0.2859
326.0,0.3366
326.5,0.3302
327.0,0.3333
327.5,0.3268
328.0,0.3018
328.5,0.306
329.0,0.3565
329.5,0.4024
330.0,0.4105
330.5,0.3376
331.0,0.348
331.5,0.3486
332.0,0.3684
332.5,0.3615
333.0,0.3642
333.5,0.337
334.0,0.3475
334.5,0.3938
335.0,0.3668
335.5,0.4167
336.0,0.2891
336.5,0.3526
337.0,0.2928
337.5,0.3664
338.0,0.3528
338.5,0.3985
339.0,0.3977
339.5,0.3822
340.0,0.461
340.5,0.4161
341.0,0.3994
341.5,0.3709
342.0,0.4454
342.5,0.4186
343.0,0.4598
343.5,0.4328
344.0,0.3254
344.5,0.3224
345.0,0.4322
345.5,0.4439
346.0,0.379
346.5,0.4307
347.0,0.4622
347.5,0.3742
348.0,0.4294
348.5,0.4312
349.0,0.4013
349.5,0.3981
350.0,0.4937
350.5,0.5221
351.0,0.4669
351.5,0.4529
352.0,0.4891
352.5,0.3834
353.0,0.4845
353.5,0.5196
354.0,0.5411
354.5,0.5502
355.0,0.5495
355.5,0.4976
356.0,0.5219
356.5,0.4468
357.0,0.3702
357.5,0.4544
358.0,0.361
358.5,0.3093
359.0,0.4336
359.5,0.5536
360.0,0.5883
360.5,0.4714
361.0,0.4307
361.5,0.4968
362.0,0.4303
362.5,0.5965
363.0,0.5366
363.5,0.4952
364.0,0.6067
364.5,0.5196
365.0,0.5303
365.5,0.6669
366.0,0.7079
366.5,0.6663
367.0,0.6502
367.5,0.6761
368.0,0.5928
368.5,0.5993
369.0,0.6484
369.5,0.6924
370.0,0.7395
370.5,0.575
371.0,0.6155
371.5,0.7716
372.0,0.5131
372.5,0.6164
373.0,0.628
373.5,0.4093
374.0,0.5958
374.5,0.4942
375.0,0.4813
375.5,0.72
376.0,0.598
376.5,0.6209
377.0,0.6584
377.5,0.7716
378.0,0.838
378.5,0.7937
379.0,0.6564
379.5,0.6009
380.0,0.6259
380.5,0.7593
381.0,0.7621
381.5,0.605
382.0,0.5381
382.5,0.4594
383.0,0.4259
383.5,0.4109
384.0,0.4539
384.5,0.6687
385.0,0.6641
385.5,0.6194
386.0,0.5313
386.5,0.6989
387.0,0.5817
387.5,0.6545
388.0,0.6052
388.5,0.5991
389.0,0.6477
389.5,0.7857
390.0,0.7897
390.5,0.7278
391.0,0.858
391.5,0.8765
392.0,0.7394
392.5,0.6629
393.0,0.3693
393.5,0.2688
394.0,0.5477
394.5,0.6973
395.0,0.852
395.5,0.8669
396.0,0.7526
396.5,0.4405
397.0,0.331
397.5,0.6741
398.0,0.9455
398.5,0.9786
399.0,1.061
399.5,1.058
400.0,1.101
401.0,1.133
402.0,1.198
403.0,1.141
404.0,1.126
405.0,1.128
406.0,1.112
407.0,1.096
408.0,1.142
409.0,1.225
410.0,1.072
411.0,1.164
412.0,1.252
413.0,1.224
414.0,1.241
415.0,1.246
416.0,1.27
417.0,1.242
418.0,1.221
419.0,1.24
420.0,1.237
421.0,1.296
422.0,1.234
423.0,1.208
424.0,1.28
425.0,1.28
426.0,1.248
427.0,1.227
428.0,1.197
429.0,1.135
430.0,0.995
431.0,0.9884
432.0,1.278
433.0,1.287
434.0,1.197
435.0,1.252
436.0,1.412
437.0,1.395
438.0,1.271
439.0,1.318
440.0,1.362
441.0,1.413
442.0,1.517
443.0,1.481
444.0,1.514
445.0,1.484
446.0,1.418
447.0,1.534
448.0,1.561
449.0,1.568
450.0,1.614
451.0,1.676
452.0,1.616
453.0,1.522
454.0,1.59
455.0,1.602
456.0,1.642
457.0,1.672
458.0,1.618
459.0,1.611
460.0,1.618
461.0,1.657
462.0,1.671
463.0,1.661
464.0,1.634
465.0,1.614
466.0,1.631
467.0,1.604
468.0,1.625
469.0,1.636
470.0,1.586
471.0,1.585
472.0,1.672
473.0,1.653
474.0,1.658
475.0,1.675
476.0,1.629
477.0,1.636
478.0,1.683
479.0,1.674
480.0,1.677
481.0,1.709
482.0,1.719
483.0,1.698
484.0,1.664
485.0,1.587
486.0,1.388
487.0,1.455
488.0,1.598
489.0,1.605
490.0,1.689
491.0,1.661
492.0,1.57
493.0,1.623
494.0,1.64
495.0,1.656
496.0,1.667
497.0,1.695
498.0,1.617
499.0,1.639
500.0,1.594
501.0,1.567
502.0,1.548
503.0,1.615
504.0,1.581
505.0,1.634
506.0,1.688
507.0,1.607
508.0,1.557
509.0,1.6
510.0,1.592
511.0,1.635
512.0,1.653
513.0,1.566
514.0,1.556
515.0,1.541
516.0,1.539
517.0,1.368
518.0,1.439
519.0,1.511
520.0,1.567
521.0,1.584
522.0,1.587
523.0,1.559
524.0,1.617
525.0,1.639
526.0,1.567
527.0,1.478
528.0,1.566
529.0,1.652
530.0,1.63
531.0,1.655
532.0,1.6
533.0,1.554
534.0,1.6
535.0,1.635
536.0,1.651
537.0,1.586
538.0,1.615
539.0,1.602
540.0,1.537
541.0,1.55
542.0,1.6
543.0,1.583
544.0,1.613
545.0,1.608
546.0,1.617
547.0,1.616
548.0,1.597
549.0,1.603
550.0,1.622
551.0,1.603
552.0,1.615
553.0,1.588
554.0,1.627
555.0,1.631
556.0,1.611
557.0,1.562
558.0,1.552
559.0,1.525
560.0,1.545
561.0,1.567
562.0,1.557
563.0,1.602
564.0,1.56
565.0,1.548
566.0,1.526
567.0,1.557
568.0,1.547
569.0,1.516
570.0,1.516
571.0,1.506
572.0,1.546
573.0,1.564
574.0,1.561
575.0,1.533
576.0,1.52
577.0,1.537
578.0,1.513
579.0,1.517
580.0,1.542
581.0,1.548
582.0,1.575
583.0,1.578
584.0,1.591
585.0,1.551
586.0,1.52
587.0,1.556
588.0,1.526
589.0,1.366
590.0,1.428
591.0,1.503
592.0,1.49
593.0,1.506
594.0,1.499
595.0,1.467
596.0,1.514
597.0,1.501
598.0,1.495
599.0,1.495
600.0,1.495
601.0,1.481
602.0,1.471
603.0,1.495
604.0,1.52
605.0,1.512
606.0,1.505
607.0,1.519
608.0,1.502
609.0,1.504
610.0,1.492
611.0,1.5
612.0,1.495
613.0,1.477
614.0,1.456
615.0,1.487
616.0,1.438
617.0,1.435
618.0,1.49
619.0,1.475
620.0,1.485
621.0,1.488
622.0,1.472
623.0,1.451
624.0,1.425
625.0,1.422
626.0,1.444
627.0,1.463
628.0,1.396
629.0,1.44
630.0,1.408
631.0,1.43
632.0,1.412
633.0,1.451
634.0,1.434
635.0,1.455
636.0,1.434
637.0,1.457
638.0,1.469
639.0,1.452
640.0,1.437
641.0,1.435
642.0,1.428
643.0,1.448
644.0,1.442
645.0,1.445
646.0,1.416
647.0,1.407
648.0,1.41
649.0,1.383
650.0,1.38
651.0,1.438
652.0,1.39
653.0,1.42
654.0,1.403
655.0,1.357
656.0,1.199
657.0,1.231
658.0,1.377
659.0,1.385
660.0,1.391
661.0,1.401
662.0,1.406
663.0,1.377
664.0,1.391
665.0,1.391
666.0,1.391
667.0,1.389
668.0,1.389
669.0,1.41
670.0,1.404
671.0,1.403
672.0,1.391
673.0,1.412
674.0,1.406
675.0,1.393
676.0,1.403
677.0,1.389
678.0,1.392
679.0,1.37
680.0,1.381
681.0,1.372
682.0,1.37
683.0,1.368
684.0,1.362
685.0,1.373
686.0,1.366
687.0,1.037
688.0,1.151
689.0,1.154
690.0,1.189
691.0,1.229
692.0,1.256
693.0,1.248
694.0,1.238
695.0,1.274
696.0,1.277
697.0,1.334
698.0,1.314
699.0,1.296
700.0,1.281
701.0,1.272
702.0,1.276
703.0,1.279
704.0,1.312
705.0,1.314
706.0,1.31
707.0,1.31
708.0,1.314
709.0,1.311
710.0,1.314
711.0,1.31
712.0,1.305
713.0,1.294
714.0,1.298
715.0,1.262
716.0,1.265
717.0,1.145
718.0,1.062
719.0,0.9786
720.0,1.028
721.0,1.104
722.0,1.23
723.0,1.163
724.0,1.068
725.0,1.058
726.0,1.102
727.0,1.108
728.0,1.057
729.0,1.079
730.0,1.141
731.0,1.098
732.0,1.156
733.0,1.206
734.0,1.23
735.0,1.207
736.0,1.205
737.0,1.211
738.0,1.218
739.0,1.195
740.0,1.223
741.0,1.208
742.0,1.208
743.0,1.238
744.0,1.233
745.0,1.233
746.0,1.239
747.0,1.241
748.0,1.239
749.0,1.225
750.0,1.224
751.0,1.212
752.0,1.217
753.0,1.223
754.0,1.226
755.0,1.219
756.0,1.219
757.0,1.221
758.0,1.206
759.0,1.188
760.0,0.3464
761.0,0.2217
762.0,0.7449
763.0,0.4641
764.0,0.614
765.0,0.7457
766.0,0.848
767.0,1.006
768.0,1.112
769.0,1.124
770.0,1.151
771.0,1.155
772.0,1.156
773.0,1.164
774.0,1.158
775.0,1.149
776.0,1.163
777.0,1.148
778.0,1.141
779.0,1.142
780.0,1.135
781.0,1.137
782.0,1.144
783.0,1.124
784.0,1.129
785.0,1.121
786.0,1.134
787.0,1.12
788.0,1.108
789.0,1.109
790.0,1.087
791.0,1.089
792.0,1.08
793.0,1.064
794.0,1.074
795.0,1.094
796.0,1.071
797.0,1.073
798.0,1.094
799.0,1.089
800.0,1.073
801.0,1.072
802.0,1.069
803.0,1.062
804.0,1.062
805.0,1.056
806.0,1.081
807.0,1.07
808.0,1.07
809.0,1.054
810.0,1.048
811.0,1.054
812.0,1.031
813.0,1.014
814.0,0.9173
815.0,0.9111
816.0,0.8522
817.0,0.8645
818.0,0.8378
819.0,0.9146
820.0,0.8702
821.0,0.9875
822.0,0.9644
823.0,0.7046
824.0,0.9463
825.0,0.9724
826.0,0.9444
827.0,0.9871
828.0,0.8638
829.0,0.9371
830.0,0.9278
831.0,0.9301
832.0,0.9066
833.0,0.9503
834.0,0.9256
835.0,0.9981
836.0,0.967
837.0,1.0
838.0,0.9741
839.0,0.9842
840.0,1.005
841.0,0.9926
842.0,0.9914
843.0,0.9875
844.0,0.9758
845.0,1.006
846.0,1.001
847.0,0.9817
848.0,0.9772
849.0,0.9495
850.0,0.9096
851.0,0.9647
852.0,0.9573
853.0,0.9202
854.0,0.7957
855.0,0.8727
856.0,0.9544
857.0,0.9748
858.0,0.9681
859.0,0.9683
860.0,0.9697
861.0,0.9646
862.0,0.9796
863.0,1.003
864.0,0.9526
865.0,0.9442
866.0,0.8491
867.0,0.8861
868.0,0.9642
869.0,0.9442
870.0,0.9712
871.0,0.958
872.0,0.9546
873.0,0.9528
874.0,0.9415
875.0,0.9225
876.0,0.9323
877.0,0.9416
878.0,0.9522
879.0,0.9375
880.0,0.9175
881.0,0.9045
882.0,0.9244
883.0,0.9266
884.0,0.9227
885.0,0.9297
886.0,0.8887
887.0,0.8962
888.0,0.9109
889.0,0.9189
890.0,0.914
891.0,0.9111
892.0,0.8883
893.0,0.8652
894.0,0.8432
895.0,0.8076
896.0,0.7665
897.0,0.6741
898.0,0.7263
899.0,0.5722
900.0,0.7345
901.0,0.5985
902.0,0.677
903.0,0.6917
904.0,0.8373
905.0,0.8136
906.0,0.7656
907.0,0.6449
908.0,0.6547
909.0,0.6979
910.0,0.637
911.0,0.6674
912.0,0.6927
913.0,0.6474
914.0,0.6386
915.0,0.6895
916.0,0.5908
917.0,0.7267
918.0,0.6061
919.0,0.7353
920.0,0.7334
921.0,0.7598
922.0,0.6935
923.0,0.7334
924.0,0.7113
925.0,0.6965
926.0,0.7038
927.0,0.7744
928.0,0.6071
929.0,0.5648
930.0,0.4615
931.0,0.4341
932.0,0.3304
933.0,0.2788
934.0,0.1747
935.0,0.2768
936.0,0.1864
937.0,0.1911
938.0,0.2293
939.0,0.4208
940.0,0.494
941.0,0.3897
942.0,0.44
943.0,0.303
944.0,0.3076
945.0,0.3991
946.0,0.2216
947.0,0.4054
948.0,0.3013
949.0,0.5241
950.0,0.1756
951.0,0.513
952.0,0.3004
953.0,0.3718
954.0,0.4382
955.0,0.374
956.0,0.3562
957.0,0.3034
958.0,0.4786
959.0,0.3988
960.0,0.4461
961.0,0.4867
962.0,0.4627
963.0,0.521
964.0,0.4817
965.0,0.5174
966.0,0.5207
967.0,0.5195
968.0,0.6555
969.0,0.687
970.0,0.6371
971.0,0.7114
972.0,0.684
973.0,0.6134
974.0,0.5853
975.0,0.6002
976.0,0.5792
977.0,0.6409
978.0,0.6165
979.0,0.6397
980.0,0.6056
981.0,0.7067
982.0,0.6821
983.0,0.6588
984.0,0.7212
985.0,0.6793
986.0,0.7298
987.0,0.7199
988.0,0.7187
989.0,0.7251
990.0,0.7139
991.0,0.7278
992.0,0.7316
993.0,0.7197
994.0,0.731
995.0,0.7295
996.0,0.727
997.0,0.7277
998.0,0.7246
999.0,0.7217
1000.0,0.7177
1001.0,0.7255
1002.0,0.7099
1003.0,0.713
1004.0,0.6967
1005.0,0.6697
1006.0,0.6967
1007.0,0.711
1008.0,0.708
1009.0,0.7051
1010.0,0.7026
1011.0,0.7074
1012.0,0.7021
1013.0,0.7055
1014.0,0.7006
1015.0,0.6961
1016.0,0.6931
1017.0,0.695
1018.0,0.6919
1019.0,0.6788
1020.0,0.6886
1021.0,0.6874
1022.0,0.6826
1023.0,0.69
1024.0,0.6827
1025.0,0.689
1026.0,0.6865
1027.0,0.6849
1028.0,0.6836
1029.0,0.6757
1030.0,0.6797
1031.0,0.6773
1032.0,0.6751
1033.0,0.665
1034.0,0.665
1035.0,0.6671
1036.0,0.6708
1037.0,0.6598
1038.0,0.6628
1039.0,0.6626
1040.0,0.6599
1041.0,0.6627
1042.0,0.6581
1043.0,0.6561
1044.0,0.6586
1045.0,0.6497
1046.0,0.6427
1047.0,0.6486
1048.0,0.6523
1049.0,0.6501
1050.0,0.6473
1051.0,0.6465
1052.0,0.6441
1053.0,0.6392
1054.0,0.6408
1055.0,0.6414
1056.0,0.6394
1057.0,0.6377
1058.0,0.6222
1059.0,0.6232
1060.0,0.6224
1061.0,0.6218
1062.0,0.6253
1063.0,0.6194
1064.0,0.6266
1065.0,0.6227
1066.0,0.61
1067.0,0.618
1068.0,0.605
1069.0,0.586
1070.0,0.6063
1071.0,0.6143
1072.0,0.6084
1073.0,0.5994
1074.0,0.6132
1075.0,0.5871
1076.0,0.613
1077.0,0.6047
1078.0,0.5942
1079.0,0.6026
1080.0,0.5955
1081.0,0.5785
1082.0,0.5839
1083.0,0.5848
1084.0,0.5785
1085.0,0.5964
1086.0,0.5518
1087.0,0.5638
1088.0,0.5851
1089.0,0.5715
1090.0,0.5621
1091.0,0.5845
1092.0,0.582
1093.0,0.5071
1094.0,0.5342
1095.0,0.5261
1096.0,0.5079
1097.0,0.5683
1098.0,0.5013
1099.0,0.5208
1100.0,0.4905
1101.0,0.4948
1102.0,0.4762
1103.0,0.4744
1104.0,0.4746
1105.0,0.5102
1106.0,0.4141
1107.0,0.4893
1108.0,0.4292
1109.0,0.4272
1110.0,0.4867
1111.0,0.35
1112.0,0.4228
1113.0,0.2902
1114.0,0.3215
1115.0,0.2673
1116.0,0.2267
1117.0,0.09906
1118.0,0.2413
1119.0,0.1319
1120.0,0.166
1121.0,0.2124
1122.0,0.1001
1123.0,0.1497
1124.0,0.1265
1125.0,0.1621
1126.0,0.06731
1127.0,0.1819
1128.0,0.1204
1129.0,0.1258
1130.0,0.08846
1131.0,0.3182
1132.0,0.2548
1133.0,0.1755
1134.0,0.05443
1135.0,0.02003
1136.0,0.1515
1137.0,0.3163
1138.0,0.2265
1139.0,0.3121
1140.0,0.2706
1141.0,0.2152
1142.0,0.2419
1143.0,0.3329
1144.0,0.13
1145.0,0.1688
1146.0,0.1822
1147.0,0.0757
1148.0,0.2884
1149.0,0.2384
1150.0,0.1394
1151.0,0.2249
1152.0,0.2674
1153.0,0.2536
1154.0,0.1665
1155.0,0.326
1156.0,0.2984
1157.0,0.328
1158.0,0.3241
1159.0,0.3429
1160.0,0.3014
1161.0,0.3565
1162.0,0.3593
1163.0,0.461
1164.0,0.4045
1165.0,0.3897
1166.0,0.3816
1167.0,0.411
1168.0,0.4172
1169.0,0.4239
1170.0,0.4538
1171.0,0.4437
1172.0,0.4479
1173.0,0.4528
1174.0,0.3431
1175.0,0.4396
1176.0,0.4742
1177.0,0.461
1178.0,0.3613
1179.0,0.4776
1180.0,0.4365
1181.0,0.4493
1182.0,0.3264
1183.0,0.4401
1184.0,0.4179
1185.0,0.4078
1186.0,0.468
1187.0,0.4505
1188.0,0.3331
1189.0,0.4209
1190.0,0.4574
1191.0,0.4422
1192.0,0.4629
1193.0,0.4465
1194.0,0.4582
1195.0,0.4389
1196.0,0.4263
1197.0,0.4553
1198.0,0.4212
1199.0,0.3712
1200.0,0.4414
1201.0,0.4301
1202.0,0.4252
1203.0,0.4216
1204.0,0.3763
1205.0,0.4312
1206.0,0.469
1207.0,0.4253
1208.0,0.4148
1209.0,0.4223
1210.0,0.437
1211.0,0.4212
1212.0,0.4214
1213.0,0.4563
1214.0,0.4288
1215.0,0.422
1216.0,0.4546
1217.0,0.4451
1218.0,0.4512
1219.0,0.4468
1220.0,0.4513
1221.0,0.4545
1222.0,0.4442
1223.0,0.441
1224.0,0.4401
1225.0,0.4516
1226.0,0.4532
1227.0,0.4244
1228.0,0.4542
1229.0,0.4532
1230.0,0.4467
1231.0,0.4554
1232.0,0.4529
1233.0,0.4422
1234.0,0.454
1235.0,0.4519
1236.0,0.4546
1237.0,0.4502
1238.0,0.453
1239.0,0.4473
1240.0,0.4487
1241.0,0.4478
1242.0,0.4458
1243.0,0.4421
1244.0,0.4456
1245.0,0.4473
1246.0,0.4447
1247.0,0.4433
1248.0,0.4436
1249.0,0.4444
1250.0,0.4421
1251.0,0.4372
1252.0,0.4363
1253.0,0.4345
1254.0,0.4315
1255.0,0.4363
1256.0,0.4272
1257.0,0.4256
1258.0,0.431
1259.0,0.4203
1260.0,0.4219
1261.0,0.4045
1262.0,0.3956
1263.0,0.3966
1264.0,0.3739
1265.0,0.3939
1266.0,0.3836
1267.0,0.3872
1268.0,0.3723
1269.0,0.267
1270.0,0.387
1271.0,0.4024
1272.0,0.4029
1273.0,0.3994
1274.0,0.3998
1275.0,0.4044
1276.0,0.4071
1277.0,0.4084
1278.0,0.4136
1279.0,0.4101
1280.0,0.4048
1281.0,0.3851
1282.0,0.3692
1283.0,0.398
1284.0,0.4079
1285.0,0.4103
1286.0,0.4148
1287.0,0.4104
1288.0,0.4098
1289.0,0.4006
1290.0,0.4059
1291.0,0.4108
1292.0,0.3933
1293.0,0.4047
1294.0,0.4022
1295.0,0.402
1296.0,0.3886
1297.0,0.3715
1298.0,0.3923
1299.0,0.4045
1300.0,0.3558
1301.0,0.3639
1302.0,0.3907
1303.0,0.3496
1304.0,0.3109
1305.0,0.3838
1306.0,0.3845
1307.0,0.3133
1308.0,0.3482
1309.0,0.3825
1310.0,0.3079
1311.0,0.3367
1312.0,0.3296
1313.0,0.3252
1314.0,0.2957
1315.0,0.2947
1316.0,0.3334
1317.0,0.3173
1318.0,0.3397
1319.0,0.2808
1320.0,0.2688
1321.0,0.3077
1322.0,0.3129
1323.0,0.2484
1324.0,0.2754
1325.0,0.3293
1326.0,0.2909
1327.0,0.2795
1328.0,0.2451
1329.0,0.1951
1330.0,0.2482
1331.0,0.1638
1332.0,0.1642
1333.0,0.2246
1334.0,0.1851
1335.0,0.2472
1336.0,0.2023
1337.0,0.1833
1338.0,0.1976
1339.0,0.195
1340.0,0.1863
1341.0,0.1896
1342.0,0.1986
1343.0,0.152
1344.0,0.09092
1345.0,0.1285
1346.0,0.07648
1347.0,0.07984
1348.0,0.008291
1349.0,0.02576
1350.0,0.02418
1351.0,0.008883
1352.0,0.003595
1353.0,0.0003075
1354.0,0.00078
1355.0,1.7e-05
1356.0,0.0001576
1357.0,0.0002351
1358.0,1.936e-05
1359.0,4.957e-06
1360.0,1.142e-05
1361.0,6.113e-08
1362.0,3.507e-10
1363.0,1.782e-05
1364.0,8.211e-06
1365.0,2.723e-10
1366.0,6.39e-05
1367.0,2.468e-05
1368.0,1.06e-11
1369.0,3.263e-06
1370.0,2.161e-06
1371.0,1.858e-07
1372.0,1.376e-05
1373.0,0.0001648
1374.0,0.000544
1375.0,0.0009619
1376.0,0.0006914
1377.0,0.0003456
1378.0,0.002762
1379.0,0.0001495
1380.0,0.0002584
1381.0,8.779e-06
1382.0,1.346e-05
1383.0,2.858e-07
1384.0,4.109e-06
1385.0,9.293e-06
1386.0,1.456e-05
1387.0,0.0006605
1388.0,1.479e-05
1389.0,0.001589
1390.0,0.001351
1391.0,0.0009937
1392.0,7.664e-05
1393.0,0.0003315
1394.0,0.0002835
1395.0,3.36e-06
1396.0,7.216e-08
1397.0,0.0001526
1398.0,0.003167
1399.0,0.002026
1400.0,4.592e-08
1401.0,1.119e-07
1402.0,0.003683
1403.0,0.004973
1404.0,0.001574
1405.0,2.119e-06
1406.0,0.004597
1407.0,0.0003969
1408.0,0.003701
1409.0,0.00159
1410.0,0.001136
1411.0,0.004321
1412.0,0.005184
1413.0,0.03603
1414.0,0.0008753
1415.0,0.0004774
1416.0,0.04901
1417.0,0.01883
1418.0,0.02141
1419.0,0.003557
1420.0,0.0133
1421.0,0.01485
1422.0,0.06259
1423.0,0.01333
1424.0,0.024
1425.0,0.03639
1426.0,0.03805
1427.0,0.06219
1428.0,0.008036
1429.0,0.04976
1430.0,0.0769
1431.0,0.08248
1432.0,0.006463
1433.0,0.05541
1434.0,0.0297
1435.0,0.03474
1436.0,0.05875
1437.0,0.04522
1438.0,0.02146
1439.0,0.07619
1440.0,0.0577
1441.0,0.04775
1442.0,0.05187
1443.0,0.05944
1444.0,0.08022
1445.0,0.06714
1446.0,0.0316
1447.0,0.04989
1448.0,0.1357
1449.0,0.1223
1450.0,0.03692
1451.0,0.01611
1452.0,0.07785
1453.0,0.09944
1454.0,0.1556
1455.0,0.07907
1456.0,0.1086
1457.0,0.1365
1458.0,0.1524
1459.0,0.1814
1460.0,0.09929
1461.0,0.1073
1462.0,0.1499
1463.0,0.05382
1464.0,0.1706
1465.0,0.1042
1466.0,0.08145
1467.0,0.0474
