interpolation:linear
wavelength,value
280.0,1.2e-27
280.5,6.845e-26
281.0,4.572e-25
281.5,2.4849999999999998e-23
282.0,2.7719999999999996e-22
282.5,1.335e-21
283.0,7.559e-21
283.5,1.614e-20
284.0,7.289e-19
284.5,3.246e-18
285.0,1.002e-17
285.5,1.066e-16
286.0,5.701e-16
286.5,4.28e-15
287.0,1.756e-14
287.5,1.043e-13
288.0,6.513e-13
288.5,3.075e-12
289.0,1.23e-11
289.5,5.56e-11
290.0,2.114e-10
290.5,5.58e-10
291.0,1.607e-09
291.5,6.552e-09
292.0,1.978e-08
292.5,3.285e-08
293.0,8.638e-08
293.5,2.733e-07
294.0,5.152e-07
294.5,9.915e-07
295.0,1.951e-06
295.5,5.418e-06
296.0,1.071e-05
296.5,1.524e-05
297.0,2.087e-05
297.5,5.632e-05
298.0,8.876e-05
298.5,8.907e-05
299.0,0.0001952
299.5,0.0003156
300.0,0.000342
300.5,0.0004856
301.0,0.0008401
301.5,0.001278
302.0,0.001069
302.5,0.002098
303.0,0.003767
303.5,0.004728
304.0,0.004397
304.5,0.006296
305.0,0.008951
305.5,0.00986
306.0,0.009445
306.5,0.01149
307.0,0.01604
307.5,0.02008
308.0,0.02114
308.5,0.02432
309.0,0.02184
309.5,0.02486
310.0,0.02496
310.5,0.04054
311.0,0.05081
311.5,0.04921
312.0,0.04841
312.5,0.0583
313.0,0.06306
313.5,0.06225
314.0,0.07656
314.5,0.06605
315.0,0.08683
315.5,0.07442
316.0,0.06353
316.5,0.08935
317.0,0.1117
317.5,0.1179
318.0,0.09083
318.5,0.1091
319.0,0.1277
319.5,0.1082
320.0,0.1322
320.5,0.1597
321.0,0.1376
321.5,0.1322
322.0,0.1478
322.5,0.1291
323.0,0.1258
323.5,0.1482
324.0,0.1731
324.5,0.1789
325.0,0.1612
325.5,0.2038
326.0,0.2435
326.5,0.2412
327.0,0.2433
327.5,0.2381
328.0,0.2177
328.5,0.2243
329.0,0.2642
329.5,0.2994
330.0,0.3054
330.5,0.2499
331.0,0.2574
331.5,0.2598
332.0,0.2769
332.5,0.2729
333.0,0.2749
333.5,0.2536
334.0,0.2617
334.5,0.2988
335.0,0.2795
335.5,0.3185
336.0,0.2214
336.5,0.2697
337.0,0.2238
337.5,0.2804
338.0,0.2715
338.5,0.3076
339.0,0.3076
339.5,0.2961
340.0,0.357
340.5,0.3229
341.0,0.3109
341.5,0.2894
342.0,0.348
342.5,0.3277
343.0,0.3603
343.5,0.3395
344.0,0.2551
344.5,0.2534
345.0,0.3407
345.5,0.3505
346.0,0.2998
346.5,0.3413
347.0,0.3666
347.5,0.2972
348.0,0.3416
348.5,0.3435
349.0,0.3202
349.5,0.3181
350.0,0.3951
350.5,0.4183
351.0,0.3745
351.5,0.3635
352.0,0.3933
352.5,0.3087
353.0,0.3907
353.5,0.4196
354.0,0.4374
354.5,0.4453
355.0,0.4452
355.5,0.4037
356.0,0.424
356.5,0.3633
357.0,0.3013
357.5,0.3702
358.0,0.2944
358.5,0.2525
359.0,0.3544
359.5,0.4528
360.0,0.4817
360.5,0.3865
361.0,0.3535
361.5,0.4083
362.0,0.3542
362.5,0.4917
363.0,0.443
363.5,0.4093
364.0,0.5021
364.5,0.4305
365.0,0.4398
365.5,0.5537
366.0,0.5884
366.5,0.5545
367.0,0.5416
367.5,0.5638
368.0,0.4948
368.5,0.5007
369.0,0.5423
369.5,0.5797
370.0,0.6198
370.5,0.4824
371.0,0.5169
371.5,0.6486
372.0,0.4317
372.5,0.519
373.0,0.5294
373.5,0.3454
374.0,0.5032
374.5,0.4178
375.0,0.4073
375.5,0.6097
376.0,0.5068
376.5,0.5266
377.0,0.5589
377.5,0.6556
378.0,0.7126
378.5,0.6754
379.0,0.5589
379.5,0.512
380.0,0.5337
380.5,0.6481
381.0,0.6511
381.5,0.5175
382.0,0.4607
382.5,0.3937
383.0,0.3654
383.5,0.3528
384.0,0.3901
384.5,0.5751
385.0,0.5717
385.5,0.5336
386.0,0.4581
386.5,0.6032
387.0,0.5024
387.5,0.5656
388.0,0.5235
388.5,0.5186
389.0,0.5611
389.5,0.6811
390.0,0.6851
390.5,0.6319
391.0,0.7455
391.5,0.7621
392.0,0.6433
392.5,0.5772
393.0,0.3219
393.5,0.2344
394.0,0.478
394.5,0.609
395.0,0.7447
395.5,0.758
396.0,0.6586
396.5,0.3858
397.0,0.2901
397.5,0.5912
398.0,0.8296
398.5,0.8592
399.0,0.932
399.5,0.9308
400.0,0.9685
401.0,0.9982
402.0,1.057
403.0,1.008
404.0,0.9956
405.0,0.999
406.0,0.9861
407.0,0.9735
408.0,1.015
409.0,1.09
410.0,0.9551
411.0,1.038
412.0,1.118
413.0,1.094
414.0,1.11
415.0,1.117
416.0,1.139
417.0,1.115
418.0,1.098
419.0,1.115
420.0,1.114
421.0,1.168
422.0,1.114
423.0,1.091
424.0,1.157
425.0,1.158
426.0,1.131
427.0,1.113
428.0,1.086
429.0,1.031
430.0,0.9049
431.0,0.8993
432.0,1.164
433.0,1.173
434.0,1.092
435.0,1.143
436.0,1.291
437.0,1.276
438.0,1.164
439.0,1.207
440.0,1.248
441.0,1.296
442.0,1.393
443.0,1.36
444.0,1.392
445.0,1.365
446.0,1.305
447.0,1.414
448.0,1.439
449.0,1.447
450.0,1.491
451.0,1.549
452.0,1.495
453.0,1.409
454.0,1.473
455.0,1.485
456.0,1.523
457.0,1.552
458.0,1.502
459.0,1.497
460.0,1.504
461.0,1.541
462.0,1.555
463.0,1.547
464.0,1.523
465.0,1.506
466.0,1.522
467.0,1.497
468.0,1.518
469.0,1.528
470.0,1.482
471.0,1.482
472.0,1.564
473.0,1.546
474.0,1.551
475.0,1.568
476.0,1.524
477.0,1.531
478.0,1.576
479.0,1.568
480.0,1.573
481.0,1.605
482.0,1.615
483.0,1.597
484.0,1.566
485.0,1.494
486.0,1.307
487.0,1.371
488.0,1.506
489.0,1.513
490.0,1.594
491.0,1.568
492.0,1.483
493.0,1.533
494.0,1.55
495.0,1.565
496.0,1.577
497.0,1.603
498.0,1.53
499.0,1.552
500.0,1.509
501.0,1.483
502.0,1.465
503.0,1.527
504.0,1.493
505.0,1.546
506.0,1.598
507.0,1.522
508.0,1.475
509.0,1.518
510.0,1.51
511.0,1.552
512.0,1.57
513.0,1.488
514.0,1.479
515.0,1.466
516.0,1.463
517.0,1.301
518.0,1.37
519.0,1.438
520.0,1.492
521.0,1.508
522.0,1.51
523.0,1.485
524.0,1.54
525.0,1.56
526.0,1.491
527.0,1.407
528.0,1.49
529.0,1.572
530.0,1.551
531.0,1.576
532.0,1.523
533.0,1.479
534.0,1.524
535.0,1.558
536.0,1.574
537.0,1.513
538.0,1.54
539.0,1.528
540.0,1.467
541.0,1.478
542.0,1.526
543.0,1.511
544.0,1.538
545.0,1.534
546.0,1.543
547.0,1.543
548.0,1.525
549.0,1.531
550.0,1.55
551.0,1.532
552.0,1.544
553.0,1.517
554.0,1.555
555.0,1.559
556.0,1.54
557.0,1.493
558.0,1.483
559.0,1.457
560.0,1.476
561.0,1.497
562.0,1.487
563.0,1.53
564.0,1.489
565.0,1.478
566.0,1.457
567.0,1.486
568.0,1.475
569.0,1.443
570.0,1.443
571.0,1.434
572.0,1.471
573.0,1.488
574.0,1.484
575.0,1.458
576.0,1.445
577.0,1.461
578.0,1.44
579.0,1.445
580.0,1.472
581.0,1.479
582.0,1.507
583.0,1.51
584.0,1.524
585.0,1.487
586.0,1.457
587.0,1.49
588.0,1.457
589.0,1.297
590.0,1.357
591.0,1.433
592.0,1.417
593.0,1.437
594.0,1.429
595.0,1.396
596.0,1.447
597.0,1.433
598.0,1.429
599.0,1.43
600.0,1.432
601.0,1.42
602.0,1.411
603.0,1.435
604.0,1.459
605.0,1.452
606.0,1.446
607.0,1.46
608.0,1.444
609.0,1.447
610.0,1.437
611.0,1.444
612.0,1.44
613.0,1.423
614.0,1.403
615.0,1.434
616.0,1.387
617.0,1.385
618.0,1.438
619.0,1.424
620.0,1.433
621.0,1.436
622.0,1.42
623.0,1.399
624.0,1.375
625.0,1.372
626.0,1.393
627.0,1.41
628.0,1.329
629.0,1.382
630.0,1.351
631.0,1.378
632.0,1.361
633.0,1.401
634.0,1.387
635.0,1.408
636.0,1.39
637.0,1.412
638.0,1.425
639.0,1.409
640.0,1.396
641.0,1.395
642.0,1.389
643.0,1.408
644.0,1.403
645.0,1.406
646.0,1.375
647.0,1.362
648.0,1.364
649.0,1.338
650.0,1.341
651.0,1.399
652.0,1.345
653.0,1.381
654.0,1.366
655.0,1.317
656.0,1.166
657.0,1.198
658.0,1.342
659.0,1.351
660.0,1.357
661.0,1.367
662.0,1.37
663.0,1.343
664.0,1.359
665.0,1.359
666.0,1.36
667.0,1.359
668.0,1.359
669.0,1.38
670.0,1.375
671.0,1.375
672.0,1.363
673.0,1.384
674.0,1.379
675.0,1.366
676.0,1.376
677.0,1.362
678.0,1.366
679.0,1.344
680.0,1.355
681.0,1.347
682.0,1.345
683.0,1.343
684.0,1.337
685.0,1.348
686.0,1.341
687.0,0.9382
688.0,1.077
689.0,1.08
690.0,1.126
691.0,1.176
692.0,1.212
693.0,1.203
694.0,1.194
695.0,1.238
696.0,1.24
697.0,1.308
698.0,1.288
699.0,1.263
700.0,1.248
701.0,1.237
702.0,1.244
703.0,1.246
704.0,1.284
705.0,1.286
706.0,1.284
707.0,1.285
708.0,1.288
709.0,1.288
710.0,1.289
711.0,1.287
712.0,1.283
713.0,1.271
714.0,1.276
715.0,1.237
716.0,1.239
717.0,1.092
718.0,1.007
719.0,0.9243
720.0,0.9694
721.0,1.059
722.0,1.2
723.0,1.124
724.0,1.02
725.0,1.006
726.0,1.052
727.0,1.063
728.0,1.005
729.0,1.036
730.0,1.096
731.0,1.051
732.0,1.118
733.0,1.177
734.0,1.204
735.0,1.18
736.0,1.178
737.0,1.183
738.0,1.198
739.0,1.174
740.0,1.204
741.0,1.191
742.0,1.192
743.0,1.222
744.0,1.218
745.0,1.219
746.0,1.224
747.0,1.227
748.0,1.225
749.0,1.211
750.0,1.21
751.0,1.198
752.0,1.203
753.0,1.21
754.0,1.213
755.0,1.206
756.0,1.206
757.0,1.208
758.0,1.193
759.0,1.171
760.0,0.2406
761.0,0.1357
762.0,0.6469
763.0,0.3504
764.0,0.5029
765.0,0.6474
766.0,0.7726
767.0,0.9529
768.0,1.082
769.0,1.101
770.0,1.135
771.0,1.142
772.0,1.144
773.0,1.152
774.0,1.146
775.0,1.138
776.0,1.152
777.0,1.137
778.0,1.13
779.0,1.131
780.0,1.125
781.0,1.126
782.0,1.133
783.0,1.114
784.0,1.119
785.0,1.111
786.0,1.124
787.0,1.106
788.0,1.093
789.0,1.093
790.0,1.067
791.0,1.074
792.0,1.066
793.0,1.049
794.0,1.064
795.0,1.083
796.0,1.053
797.0,1.055
798.0,1.082
799.0,1.076
800.0,1.059
801.0,1.056
802.0,1.053
803.0,1.046
804.0,1.047
805.0,1.043
806.0,1.07
807.0,1.058
808.0,1.059
809.0,1.04
810.0,1.033
811.0,1.036
812.0,1.009
813.0,0.9898
814.0,0.8794
815.0,0.8738
816.0,0.8147
817.0,0.8287
818.0,0.7997
819.0,0.8867
820.0,0.838
821.0,0.9695
822.0,0.9435
823.0,0.6579
824.0,0.9197
825.0,0.9535
826.0,0.9205
827.0,0.9682
828.0,0.8301
829.0,0.9146
830.0,0.9036
831.0,0.9066
832.0,0.8805
833.0,0.9321
834.0,0.9022
835.0,0.9848
836.0,0.9468
837.0,0.9875
838.0,0.9587
839.0,0.9724
840.0,0.9934
841.0,0.9801
842.0,0.9812
843.0,0.9795
844.0,0.9666
845.0,0.9985
846.0,0.994
847.0,0.9752
848.0,0.9698
849.0,0.9423
850.0,0.9028
851.0,0.9565
852.0,0.9497
853.0,0.9138
854.0,0.7894
855.0,0.8669
856.0,0.9476
857.0,0.9685
858.0,0.9616
859.0,0.9623
860.0,0.9639
861.0,0.9588
862.0,0.9738
863.0,0.9969
864.0,0.9471
865.0,0.9389
866.0,0.8443
867.0,0.8811
868.0,0.9589
869.0,0.939
870.0,0.9659
871.0,0.9528
872.0,0.9495
873.0,0.9477
874.0,0.9365
875.0,0.9176
876.0,0.9272
877.0,0.9366
878.0,0.947
879.0,0.9325
880.0,0.9125
881.0,0.8991
882.0,0.9187
883.0,0.9215
884.0,0.9174
885.0,0.9244
886.0,0.8819
887.0,0.8907
888.0,0.9043
889.0,0.9139
890.0,0.9072
891.0,0.9053
892.0,0.8802
893.0,0.8541
894.0,0.8266
895.0,0.7843
896.0,0.7403
897.0,0.6403
898.0,0.6963
899.0,0.535
900.0,0.7104
901.0,0.5605
902.0,0.651
903.0,0.6597
904.0,0.8209
905.0,0.7941
906.0,0.7444
907.0,0.6113
908.0,0.6225
909.0,0.6713
910.0,0.5991
911.0,0.6353
912.0,0.663
913.0,0.6083
914.0,0.6022
915.0,0.6524
916.0,0.5539
917.0,0.6971
918.0,0.5681
919.0,0.7084
920.0,0.713
921.0,0.741
922.0,0.6662
923.0,0.7156
924.0,0.6832
925.0,0.6685
926.0,0.6758
927.0,0.753
928.0,0.5625
929.0,0.5161
930.0,0.4097
931.0,0.3876
932.0,0.2832
933.0,0.2323
934.0,0.1317
935.0,0.236
936.0,0.1501
937.0,0.1525
938.0,0.1865
939.0,0.3757
940.0,0.4492
941.0,0.3428
942.0,0.3946
943.0,0.2625
944.0,0.2739
945.0,0.3529
946.0,0.1834
947.0,0.3554
948.0,0.2618
949.0,0.472
950.0,0.1369
951.0,0.4642
952.0,0.2544
953.0,0.3253
954.0,0.3953
955.0,0.3287
956.0,0.3172
957.0,0.2553
958.0,0.4446
959.0,0.3571
960.0,0.4001
961.0,0.4462
962.0,0.4225
963.0,0.4845
964.0,0.4447
965.0,0.4825
966.0,0.4831
967.0,0.4814
968.0,0.6364
969.0,0.6655
970.0,0.6124
971.0,0.6971
972.0,0.6676
973.0,0.5853
974.0,0.5561
975.0,0.5757
976.0,0.5488
977.0,0.6204
978.0,0.5911
979.0,0.6179
980.0,0.5818
981.0,0.6932
982.0,0.6643
983.0,0.6386
984.0,0.7127
985.0,0.6618
986.0,0.7243
987.0,0.7113
988.0,0.71
989.0,0.7216
990.0,0.7057
991.0,0.724
992.0,0.7281
993.0,0.713
994.0,0.7278
995.0,0.7268
996.0,0.7238
997.0,0.7248
998.0,0.7215
999.0,0.7188
1000.0,0.714
1001.0,0.7227
1002.0,0.7038
1003.0,0.71
1004.0,0.693
1005.0,0.6673
1006.0,0.6935
1007.0,0.7082
1008.0,0.7045
1009.0,0.701
1010.0,0.6981
1011.0,0.7047
1012.0,0.6988
1013.0,0.703
1014.0,0.6981
1015.0,0.6935
1016.0,0.6904
1017.0,0.6922
1018.0,0.6896
1019.0,0.6752
1020.0,0.686
1021.0,0.6851
1022.0,0.6799
1023.0,0.6871
1024.0,0.6786
1025.0,0.6866
1026.0,0.6838
1027.0,0.6822
1028.0,0.6808
1029.0,0.6729
1030.0,0.6774
1031.0,0.6747
1032.0,0.6727
1033.0,0.6626
1034.0,0.6627
1035.0,0.6648
1036.0,0.6683
1037.0,0.6574
1038.0,0.6604
1039.0,0.66
1040.0,0.6574
1041.0,0.6601
1042.0,0.6555
1043.0,0.6535
1044.0,0.6558
1045.0,0.647
1046.0,0.6399
1047.0,0.6457
1048.0,0.6492
1049.0,0.647
1050.0,0.644
1051.0,0.6432
1052.0,0.6406
1053.0,0.6356
1054.0,0.637
1055.0,0.6375
1056.0,0.6353
1057.0,0.6334
1058.0,0.6179
1059.0,0.6186
1060.0,0.6178
1061.0,0.6171
1062.0,0.6204
1063.0,0.6143
1064.0,0.6216
1065.0,0.6173
1066.0,0.605
1067.0,0.6129
1068.0,0.5996
1069.0,0.581
1070.0,0.6009
1071.0,0.6099
1072.0,0.6031
1073.0,0.5944
1074.0,0.6094
1075.0,0.5799
1076.0,0.609
1077.0,0.5987
1078.0,0.5876
1079.0,0.5992
1080.0,0.5895
1081.0,0.5711
1082.0,0.5795
1083.0,0.5811
1084.0,0.57
1085.0,0.5909
1086.0,0.5408
1087.0,0.557
1088.0,0.5807
1089.0,0.5639
1090.0,0.5521
1091.0,0.5791
1092.0,0.5775
1093.0,0.4925
1094.0,0.5287
1095.0,0.5127
1096.0,0.4918
1097.0,0.5641
1098.0,0.4845
1099.0,0.5049
1100.0,0.4707
1101.0,0.4762
1102.0,0.4556
1103.0,0.4518
1104.0,0.4523
1105.0,0.4937
1106.0,0.3826
1107.0,0.4699
1108.0,0.4013
1109.0,0.4014
1110.0,0.4662
1111.0,0.3202
1112.0,0.3982
1113.0,0.2575
1114.0,0.2874
1115.0,0.2384
1116.0,0.1927
1117.0,0.07335
1118.0,0.2088
1119.0,0.1057
1120.0,0.1331
1121.0,0.1754
1122.0,0.07556
1123.0,0.1202
1124.0,0.1015
1125.0,0.1319
1126.0,0.04763
1127.0,0.1487
1128.0,0.09079
1129.0,0.09607
1130.0,0.06395
1131.0,0.2775
1132.0,0.2186
1133.0,0.1409
1134.0,0.03738
1135.0,0.01394
1136.0,0.1184
1137.0,0.2734
1138.0,0.1931
1139.0,0.2834
1140.0,0.2386
1141.0,0.1835
1142.0,0.2102
1143.0,0.2965
1144.0,0.1059
1145.0,0.1358
1146.0,0.1465
1147.0,0.05331
1148.0,0.2567
1149.0,0.2064
1150.0,0.1137
1151.0,0.1917
1152.0,0.2343
1153.0,0.2271
1154.0,0.132
1155.0,0.2958
1156.0,0.2673
1157.0,0.2985
1158.0,0.2952
1159.0,0.3172
1160.0,0.2725
1161.0,0.3328
1162.0,0.3347
1163.0,0.4466
1164.0,0.3851
1165.0,0.3653
1166.0,0.3614
1167.0,0.3926
1168.0,0.3973
1169.0,0.4061
1170.0,0.4396
1171.0,0.4289
1172.0,0.4356
1173.0,0.4387
1174.0,0.3181
1175.0,0.4277
1176.0,0.4677
1177.0,0.4507
1178.0,0.3423
1179.0,0.4715
1180.0,0.4236
1181.0,0.4369
1182.0,0.3057
1183.0,0.4296
1184.0,0.404
1185.0,0.3911
1186.0,0.4595
1187.0,0.439
1188.0,0.3113
1189.0,0.4093
1190.0,0.449
1191.0,0.4287
1192.0,0.4551
1193.0,0.4369
1194.0,0.4498
1195.0,0.4271
1196.0,0.4123
1197.0,0.4491
1198.0,0.4122
1199.0,0.3544
1200.0,0.4316
1201.0,0.4176
1202.0,0.4144
1203.0,0.411
1204.0,0.3615
1205.0,0.4229
1206.0,0.465
1207.0,0.4137
1208.0,0.4061
1209.0,0.4141
1210.0,0.4305
1211.0,0.4115
1212.0,0.4083
1213.0,0.4506
1214.0,0.4173
1215.0,0.4098
1216.0,0.4491
1217.0,0.438
1218.0,0.4456
1219.0,0.4404
1220.0,0.4459
1221.0,0.4499
1222.0,0.4387
1223.0,0.4349
1224.0,0.4328
1225.0,0.4471
1226.0,0.4496
1227.0,0.4168
1228.0,0.4515
1229.0,0.4497
1230.0,0.4424
1231.0,0.4537
1232.0,0.451
1233.0,0.4372
1234.0,0.453
1235.0,0.4504
1236.0,0.4534
1237.0,0.4478
1238.0,0.4519
1239.0,0.4462
1240.0,0.4478
1241.0,0.4461
1242.0,0.4448
1243.0,0.4411
1244.0,0.4444
1245.0,0.4462
1246.0,0.4436
1247.0,0.442
1248.0,0.4419
1249.0,0.4431
1250.0,0.4406
1251.0,0.4352
1252.0,0.4349
1253.0,0.432
1254.0,0.4281
1255.0,0.4346
1256.0,0.4235
1257.0,0.4214
1258.0,0.4285
1259.0,0.4146
1260.0,0.4165
1261.0,0.3952
1262.0,0.3844
1263.0,0.3852
1264.0,0.3581
1265.0,0.3827
1266.0,0.3697
1267.0,0.3752
1268.0,0.3575
1269.0,0.2326
1270.0,0.3743
1271.0,0.3937
1272.0,0.3947
1273.0,0.3908
1274.0,0.3917
1275.0,0.397
1276.0,0.4005
1277.0,0.4027
1278.0,0.4096
1279.0,0.406
1280.0,0.4008
1281.0,0.382
1282.0,0.3675
1283.0,0.3959
1284.0,0.4055
1285.0,0.4081
1286.0,0.4133
1287.0,0.4075
1288.0,0.4073
1289.0,0.3957
1290.0,0.4036
1291.0,0.409
1292.0,0.3867
1293.0,0.4017
1294.0,0.399
1295.0,0.3976
1296.0,0.3812
1297.0,0.3618
1298.0,0.387
1299.0,0.402
1300.0,0.3444
1301.0,0.3541
1302.0,0.3857
1303.0,0.3394
1304.0,0.2933
1305.0,0.3781
1306.0,0.3784
1307.0,0.2983
1308.0,0.3393
1309.0,0.3758
1310.0,0.2928
1311.0,0.3262
1312.0,0.318
1313.0,0.3124
1314.0,0.281
1315.0,0.2782
1316.0,0.3217
1317.0,0.3052
1318.0,0.3301
1319.0,0.2624
1320.0,0.2533
1321.0,0.2936
1322.0,0.2972
1323.0,0.2271
1324.0,0.2574
1325.0,0.3174
1326.0,0.2746
1327.0,0.2625
1328.0,0.2275
1329.0,0.1737
1330.0,0.2247
1331.0,0.139
1332.0,0.1424
1333.0,0.1974
1334.0,0.1657
1335.0,0.2263
1336.0,0.1807
1337.0,0.1607
1338.0,0.1738
1339.0,0.1726
1340.0,0.167
1341.0,0.1651
1342.0,0.1732
1343.0,0.1213
1344.0,0.07245
1345.0,0.1042
1346.0,0.05431
1347.0,0.05566
1348.0,0.004085
1349.0,0.01416
1350.0,0.01434
1351.0,0.003896
1352.0,0.001186
1353.0,6.921e-05
1354.0,0.0002189
1355.0,2.324e-06
1356.0,3.417e-05
1357.0,5.186e-05
1358.0,2.722e-06
1359.0,4.214e-07
1360.0,1.34e-06
1361.0,2.323e-09
1362.0,7.706e-12
1363.0,1.924e-06
1364.0,8.091e-07
1365.0,3.428e-12
1366.0,7.963e-06
1367.0,3.159e-06
1368.0,4.241e-14
1369.0,3.063e-07
1370.0,1.648e-07
1371.0,1.044e-08
1372.0,1.739e-06
1373.0,3.052e-05
1374.0,0.0001291
1375.0,0.0002351
1376.0,0.0001961
1377.0,9.182e-05
1378.0,0.00086
1379.0,3.876e-05
1380.0,5.911e-05
1381.0,1.641e-06
1382.0,1.607e-06
1383.0,2.617e-08
1384.0,3.585e-07
1385.0,1.381e-06
1386.0,1.52e-06
1387.0,0.0001415
1388.0,2.821e-06
1389.0,0.0004335
1390.0,0.0003733
1391.0,0.0002545
1392.0,1.714e-05
1393.0,8.637e-05
1394.0,5.189e-05
1395.0,4.281e-07
1396.0,3.158e-09
1397.0,3.576e-05
1398.0,0.0009753
1399.0,0.0006179
1400.0,1.529e-09
1401.0,5.451e-09
1402.0,0.001518
1403.0,0.001953
1404.0,0.0006014
1405.0,2.246e-07
1406.0,0.001627
1407.0,0.0001403
1408.0,0.001322
1409.0,0.0004755
1410.0,0.0003651
1411.0,0.00171
1412.0,0.002234
1413.0,0.02096
1414.0,0.0002858
1415.0,0.0001418
1416.0,0.03285
1417.0,0.01041
1418.0,0.01192
1419.0,0.001873
1420.0,0.007313
1421.0,0.007918
1422.0,0.04276
1423.0,0.008407
1424.0,0.01565
1425.0,0.0232
1426.0,0.02591
1427.0,0.0467
1428.0,0.003875
1429.0,0.03534
1430.0,0.05921
1431.0,0.0648
1432.0,0.003062
1433.0,0.04154
1434.0,0.02129
1435.0,0.02182
1436.0,0.04128
1437.0,0.03163
1438.0,0.01359
1439.0,0.05578
1440.0,0.04181
1441.0,0.03225
1442.0,0.03571
1443.0,0.04428
1444.0,0.06109
1445.0,0.04824
1446.0,0.02183
1447.0,0.03437
1448.0,0.1135
1449.0,0.09893
1450.0,0.02547
1451.0,0.01032
1452.0,0.05989
1453.0,0.07846
1454.0,0.1337
1455.0,0.06341
1456.0,0.08538
1457.0,0.114
1458.0,0.1339
1459.0,0.1585
1460.0,0.08276
1461.0,0.08664
1462.0,0.1267
1463.0,0.04118
