interpolation:linear
wavelength,value
280.0,1.813e-18
280.5,2.698e-17
281.0,1.103e-16
281.5,1.633e-15
282.0,8.272e-15
282.5,2.339e-14
283.0,7.377e-14
283.5,1.177e-13
284.0,1.369e-12
284.5,3.287e-12
285.0,5.203e-12
285.5,2.518e-11
286.0,9.794e-11
286.5,3.822e-10
287.0,9.674e-10
287.5,3.051e-09
288.0,8.58e-09
288.5,2.651e-08
289.0,6.853e-08
289.5,1.915e-07
290.0,4.913e-07
290.5,9.33e-07
291.0,1.807e-06
291.5,4.451e-06
292.0,8.914e-06
292.5,1.175e-05
293.0,2.297e-05
293.5,4.851e-05
294.0,6.961e-05
294.5,0.000109
295.0,0.0001656
295.5,0.0003338
296.0,0.0005298
296.5,0.0006126
297.0,0.0007113
297.5,0.001523
298.0,0.001993
298.5,0.001741
299.0,0.003352
299.5,0.004407
300.0,0.004285
300.5,0.005473
301.0,0.008124
301.5,0.01091
302.0,0.0086
302.5,0.01516
303.0,0.0239
303.5,0.02784
304.0,0.02495
304.5,0.03277
305.0,0.04166
305.5,0.04288
306.0,0.03994
306.5,0.04658
307.0,0.05972
307.5,0.06931
308.0,0.07184
308.5,0.07964
309.0,0.06943
309.5,0.07308
310.0,0.07072
310.5,0.1126
311.0,0.137
311.5,0.1307
312.0,0.1216
312.5,0.1411
313.0,0.1495
313.5,0.1493
314.0,0.1761
314.5,0.1444
315.0,0.1875
315.5,0.1637
316.0,0.1342
316.5,0.1825
317.0,0.2276
317.5,0.2414
318.0,0.1816
318.5,0.2097
319.0,0.2403
319.5,0.2087
320.0,0.2551
320.5,0.2967
321.0,0.2476
321.5,0.2363
322.0,0.2716
322.5,0.236
323.0,0.2247
323.5,0.2555
324.0,0.2963
324.5,0.3088
325.0,0.2834
325.5,0.3516
326.0,0.4103
326.5,0.4
327.0,0.404
327.5,0.3966
328.0,0.3685
328.5,0.37
329.0,0.4283
329.5,0.4822
330.0,0.4918
330.5,0.4057
331.0,0.4184
331.5,0.4173
332.0,0.4387
332.5,0.4293
333.0,0.4325
333.5,0.401
334.0,0.4132
334.5,0.4662
335.0,0.433
335.5,0.4911
336.0,0.3404
336.5,0.4153
337.0,0.3449
337.5,0.4315
338.0,0.414
338.5,0.4668
339.0,0.4652
339.5,0.4467
340.0,0.539
340.5,0.486
341.0,0.4655
341.5,0.4316
342.0,0.5178
342.5,0.4861
343.0,0.5337
343.5,0.5021
344.0,0.3776
344.5,0.3734
345.0,0.4999
345.5,0.5127
346.0,0.4373
346.5,0.4965
347.0,0.5325
347.5,0.4308
348.0,0.4938
348.5,0.4955
349.0,0.4606
349.5,0.4566
350.0,0.5657
350.5,0.5978
351.0,0.5343
351.5,0.518
352.0,0.5588
352.5,0.4376
353.0,0.5525
353.5,0.5922
354.0,0.6162
354.5,0.6262
355.0,0.6249
355.5,0.5654
356.0,0.5926
356.5,0.507
357.0,0.4198
357.5,0.515
358.0,0.4089
358.5,0.3501
359.0,0.4905
359.5,0.6259
360.0,0.6648
360.5,0.5323
361.0,0.486
361.5,0.56
362.0,0.4846
362.5,0.6712
363.0,0.6033
363.5,0.5563
364.0,0.6811
364.5,0.583
365.0,0.5946
365.5,0.7473
366.0,0.7926
366.5,0.7455
367.0,0.727
367.5,0.7556
368.0,0.662
368.5,0.6688
369.0,0.7232
369.5,0.7718
370.0,0.8238
370.5,0.6401
371.0,0.6848
371.5,0.858
372.0,0.5703
372.5,0.6847
373.0,0.6971
373.5,0.4541
374.0,0.6606
374.5,0.5476
375.0,0.5331
375.5,0.797
376.0,0.6616
376.5,0.6866
377.0,0.7277
377.5,0.8524
378.0,0.9253
378.5,0.876
379.0,0.7241
379.5,0.6626
380.0,0.6899
380.5,0.8365
381.0,0.839
381.5,0.6656
382.0,0.5917
382.5,0.5048
383.0,0.4678
383.5,0.451
384.0,0.498
384.5,0.7332
385.0,0.7279
385.5,0.6785
386.0,0.5817
386.5,0.7647
387.0,0.6363
387.5,0.7155
388.0,0.6613
388.5,0.6543
389.0,0.7072
389.5,0.8574
390.0,0.8613
390.5,0.7935
391.0,0.9349
391.5,0.9547
392.0,0.8051
392.5,0.7213
393.0,0.4017
393.5,0.2922
394.0,0.5952
394.5,0.7574
395.0,0.9252
395.5,0.9409
396.0,0.8166
396.5,0.4776
397.0,0.3588
397.5,0.7304
398.0,1.024
398.5,1.06
399.0,1.148
399.5,1.145
400.0,1.191
401.0,1.224
402.0,1.293
403.0,1.23
404.0,1.213
405.0,1.215
406.0,1.197
407.0,1.179
408.0,1.228
409.0,1.316
410.0,1.151
411.0,1.248
412.0,1.341
413.0,1.311
414.0,1.328
415.0,1.333
416.0,1.358
417.0,1.326
418.0,1.304
419.0,1.322
420.0,1.318
421.0,1.381
422.0,1.314
423.0,1.285
424.0,1.362
425.0,1.36
426.0,1.326
427.0,1.302
428.0,1.27
429.0,1.204
430.0,1.054
431.0,1.047
432.0,1.353
433.0,1.362
434.0,1.266
435.0,1.324
436.0,1.492
437.0,1.472
438.0,1.342
439.0,1.391
440.0,1.436
441.0,1.489
442.0,1.598
443.0,1.56
444.0,1.594
445.0,1.562
446.0,1.491
447.0,1.612
448.0,1.641
449.0,1.647
450.0,1.694
451.0,1.758
452.0,1.695
453.0,1.595
454.0,1.666
455.0,1.678
456.0,1.719
457.0,1.75
458.0,1.693
459.0,1.685
460.0,1.692
461.0,1.732
462.0,1.746
463.0,1.736
464.0,1.707
465.0,1.685
466.0,1.702
467.0,1.673
468.0,1.694
469.0,1.705
470.0,1.652
471.0,1.651
472.0,1.742
473.0,1.721
474.0,1.727
475.0,1.745
476.0,1.696
477.0,1.704
478.0,1.752
479.0,1.741
480.0,1.745
481.0,1.777
482.0,1.786
483.0,1.763
484.0,1.728
485.0,1.646
486.0,1.439
487.0,1.508
488.0,1.656
489.0,1.664
490.0,1.75
491.0,1.721
492.0,1.626
493.0,1.68
494.0,1.698
495.0,1.713
496.0,1.725
497.0,1.753
498.0,1.672
499.0,1.695
500.0,1.648
501.0,1.62
502.0,1.601
503.0,1.67
504.0,1.637
505.0,1.69
506.0,1.746
507.0,1.662
508.0,1.609
509.0,1.653
510.0,1.644
511.0,1.688
512.0,1.706
513.0,1.616
514.0,1.605
515.0,1.59
516.0,1.587
517.0,1.41
518.0,1.484
519.0,1.558
520.0,1.615
521.0,1.632
522.0,1.635
523.0,1.607
524.0,1.666
525.0,1.689
526.0,1.615
527.0,1.524
528.0,1.614
529.0,1.703
530.0,1.68
531.0,1.706
532.0,1.648
533.0,1.601
534.0,1.648
535.0,1.684
536.0,1.7
537.0,1.633
538.0,1.662
539.0,1.649
540.0,1.582
541.0,1.596
542.0,1.648
543.0,1.629
544.0,1.66
545.0,1.655
546.0,1.665
547.0,1.663
548.0,1.643
549.0,1.648
550.0,1.668
551.0,1.649
552.0,1.661
553.0,1.632
554.0,1.672
555.0,1.677
556.0,1.656
557.0,1.606
558.0,1.596
559.0,1.568
560.0,1.589
561.0,1.611
562.0,1.601
563.0,1.647
564.0,1.604
565.0,1.592
566.0,1.57
567.0,1.602
568.0,1.593
569.0,1.563
570.0,1.562
571.0,1.551
572.0,1.594
573.0,1.613
574.0,1.609
575.0,1.582
576.0,1.568
577.0,1.585
578.0,1.559
579.0,1.562
580.0,1.587
581.0,1.592
582.0,1.619
583.0,1.62
584.0,1.633
585.0,1.592
586.0,1.56
587.0,1.597
588.0,1.569
589.0,1.411
590.0,1.474
591.0,1.548
592.0,1.536
593.0,1.551
594.0,1.544
595.0,1.513
596.0,1.557
597.0,1.544
598.0,1.536
599.0,1.536
600.0,1.534
601.0,1.519
602.0,1.509
603.0,1.533
604.0,1.558
605.0,1.55
606.0,1.542
607.0,1.556
608.0,1.538
609.0,1.54
610.0,1.528
611.0,1.535
612.0,1.53
613.0,1.511
614.0,1.489
615.0,1.521
616.0,1.47
617.0,1.467
618.0,1.523
619.0,1.507
620.0,1.517
621.0,1.521
622.0,1.505
623.0,1.483
624.0,1.457
625.0,1.454
626.0,1.476
627.0,1.496
628.0,1.439
629.0,1.476
630.0,1.444
631.0,1.463
632.0,1.443
633.0,1.482
634.0,1.463
635.0,1.484
636.0,1.462
637.0,1.485
638.0,1.496
639.0,1.479
640.0,1.463
641.0,1.461
642.0,1.453
643.0,1.473
644.0,1.467
645.0,1.47
646.0,1.441
647.0,1.435
648.0,1.439
649.0,1.412
650.0,1.405
651.0,1.463
652.0,1.419
653.0,1.444
654.0,1.426
655.0,1.382
656.0,1.219
657.0,1.252
658.0,1.399
659.0,1.407
660.0,1.412
661.0,1.422
662.0,1.428
663.0,1.399
664.0,1.412
665.0,1.41
666.0,1.41
667.0,1.408
668.0,1.407
669.0,1.428
670.0,1.421
671.0,1.421
672.0,1.408
673.0,1.429
674.0,1.423
675.0,1.41
676.0,1.419
677.0,1.405
678.0,1.409
679.0,1.386
680.0,1.397
681.0,1.388
682.0,1.386
683.0,1.384
684.0,1.377
685.0,1.388
686.0,1.381
687.0,1.102
688.0,1.2
689.0,1.201
690.0,1.23
691.0,1.262
692.0,1.283
693.0,1.276
694.0,1.267
695.0,1.298
696.0,1.301
697.0,1.351
698.0,1.331
699.0,1.317
700.0,1.302
701.0,1.294
702.0,1.297
703.0,1.299
704.0,1.33
705.0,1.332
706.0,1.327
707.0,1.327
708.0,1.33
709.0,1.326
710.0,1.329
711.0,1.325
712.0,1.318
713.0,1.308
714.0,1.312
715.0,1.278
716.0,1.281
717.0,1.18
718.0,1.099
719.0,1.017
720.0,1.068
721.0,1.134
722.0,1.248
723.0,1.189
724.0,1.1
725.0,1.093
726.0,1.136
727.0,1.138
728.0,1.093
729.0,1.108
730.0,1.169
731.0,1.129
732.0,1.18
733.0,1.224
734.0,1.246
735.0,1.224
736.0,1.222
737.0,1.228
738.0,1.231
739.0,1.208
740.0,1.234
741.0,1.219
742.0,1.218
743.0,1.248
744.0,1.243
745.0,1.242
746.0,1.248
747.0,1.25
748.0,1.248
749.0,1.233
750.0,1.233
751.0,1.22
752.0,1.225
753.0,1.232
754.0,1.234
755.0,1.228
756.0,1.227
757.0,1.229
758.0,1.214
759.0,1.199
760.0,0.4329
761.0,0.2992
762.0,0.8119
763.0,0.551
764.0,0.6937
765.0,0.8131
766.0,0.8977
767.0,1.04
768.0,1.13
769.0,1.139
770.0,1.161
771.0,1.163
772.0,1.163
773.0,1.171
774.0,1.165
775.0,1.156
776.0,1.17
777.0,1.154
778.0,1.147
779.0,1.149
780.0,1.142
781.0,1.143
782.0,1.15
783.0,1.13
784.0,1.136
785.0,1.128
786.0,1.141
787.0,1.128
788.0,1.117
789.0,1.118
790.0,1.099
791.0,1.099
792.0,1.09
793.0,1.073
794.0,1.08
795.0,1.102
796.0,1.082
797.0,1.084
798.0,1.102
799.0,1.098
800.0,1.082
801.0,1.082
802.0,1.079
803.0,1.072
804.0,1.072
805.0,1.065
806.0,1.088
807.0,1.077
808.0,1.077
809.0,1.062
810.0,1.057
811.0,1.065
812.0,1.045
813.0,1.03
814.0,0.9429
815.0,0.9365
816.0,0.8786
817.0,0.8894
818.0,0.8643
819.0,0.9333
820.0,0.8923
821.0,0.9991
822.0,0.9781
823.0,0.7386
824.0,0.9638
825.0,0.9851
826.0,0.9606
827.0,0.9996
828.0,0.887
829.0,0.9524
830.0,0.9443
831.0,0.9459
832.0,0.9243
833.0,0.9618
834.0,0.9409
835.0,1.006
836.0,0.9799
837.0,1.008
838.0,0.9836
839.0,0.9916
840.0,1.011
841.0,1.0
842.0,0.9978
843.0,0.9925
844.0,0.9815
845.0,1.011
846.0,1.006
847.0,0.9856
848.0,0.9817
849.0,0.954
850.0,0.9137
851.0,0.9697
852.0,0.962
853.0,0.9242
854.0,0.7996
855.0,0.8763
856.0,0.9586
857.0,0.9786
858.0,0.9721
859.0,0.9721
860.0,0.9732
861.0,0.9682
862.0,0.9831
863.0,1.006
864.0,0.956
865.0,0.9475
866.0,0.852
867.0,0.8891
868.0,0.9675
869.0,0.9474
870.0,0.9744
871.0,0.9612
872.0,0.9578
873.0,0.9559
874.0,0.9445
875.0,0.9256
876.0,0.9354
877.0,0.9447
878.0,0.9554
879.0,0.9406
880.0,0.9205
881.0,0.9078
882.0,0.9278
883.0,0.9298
884.0,0.926
885.0,0.933
886.0,0.8929
887.0,0.8997
888.0,0.915
889.0,0.9219
890.0,0.9183
891.0,0.9147
892.0,0.8932
893.0,0.8723
894.0,0.8539
895.0,0.8229
896.0,0.7846
897.0,0.6981
898.0,0.7471
899.0,0.5996
900.0,0.7511
901.0,0.6258
902.0,0.6951
903.0,0.7139
904.0,0.848
905.0,0.8265
906.0,0.78
907.0,0.6687
908.0,0.6777
909.0,0.7162
910.0,0.664
911.0,0.6903
912.0,0.7133
913.0,0.6752
914.0,0.6646
915.0,0.7146
916.0,0.6178
917.0,0.7465
918.0,0.6334
919.0,0.7534
920.0,0.7478
921.0,0.772
922.0,0.7122
923.0,0.7452
924.0,0.7299
925.0,0.7155
926.0,0.7223
927.0,0.7877
928.0,0.6382
929.0,0.5991
930.0,0.4996
931.0,0.4679
932.0,0.3655
933.0,0.3147
934.0,0.2099
935.0,0.3076
936.0,0.2151
937.0,0.2223
938.0,0.2633
939.0,0.4536
940.0,0.5259
941.0,0.4243
942.0,0.4724
943.0,0.3332
944.0,0.3327
945.0,0.4334
946.0,0.2514
947.0,0.4424
948.0,0.3318
949.0,0.5606
950.0,0.208
951.0,0.5472
952.0,0.3361
953.0,0.4066
954.0,0.469
955.0,0.4077
956.0,0.387
957.0,0.341
958.0,0.5031
959.0,0.43
960.0,0.4798
961.0,0.5161
962.0,0.4923
963.0,0.5472
964.0,0.5088
965.0,0.5423
966.0,0.5476
967.0,0.5468
968.0,0.6688
969.0,0.7009
970.0,0.6541
971.0,0.7208
972.0,0.6949
973.0,0.6328
974.0,0.6057
975.0,0.6172
976.0,0.6003
977.0,0.6551
978.0,0.634
979.0,0.6544
980.0,0.6223
981.0,0.7154
982.0,0.6937
983.0,0.6722
984.0,0.7266
985.0,0.6907
986.0,0.7332
987.0,0.725
988.0,0.724
989.0,0.7273
990.0,0.7188
991.0,0.7302
992.0,0.7338
993.0,0.7237
994.0,0.7329
995.0,0.7311
996.0,0.7289
997.0,0.7295
998.0,0.7265
999.0,0.7235
1000.0,0.72
1001.0,0.7273
1002.0,0.7136
1003.0,0.7149
1004.0,0.6991
1005.0,0.6712
1006.0,0.6986
1007.0,0.7128
1008.0,0.7101
1009.0,0.7076
1010.0,0.7053
1011.0,0.7091
1012.0,0.7042
1013.0,0.7071
1014.0,0.7021
1015.0,0.6977
1016.0,0.6947
1017.0,0.6967
1018.0,0.6934
1019.0,0.681
1020.0,0.6901
1021.0,0.6888
1022.0,0.6843
1023.0,0.6918
1024.0,0.6853
1025.0,0.6905
1026.0,0.6882
1027.0,0.6865
1028.0,0.6853
1029.0,0.6774
1030.0,0.6812
1031.0,0.6788
1032.0,0.6766
1033.0,0.6665
1034.0,0.6664
1035.0,0.6685
1036.0,0.6723
1037.0,0.6613
1038.0,0.6643
1039.0,0.6641
1040.0,0.6615
1041.0,0.6643
1042.0,0.6597
1043.0,0.6578
1044.0,0.6602
1045.0,0.6514
1046.0,0.6444
1047.0,0.6504
1048.0,0.6542
1049.0,0.652
1050.0,0.6492
1051.0,0.6486
1052.0,0.6462
1053.0,0.6413
1054.0,0.643
1055.0,0.6438
1056.0,0.6419
1057.0,0.6403
1058.0,0.6249
1059.0,0.6259
1060.0,0.6252
1061.0,0.6247
1062.0,0.6284
1063.0,0.6225
1064.0,0.6297
1065.0,0.6261
1066.0,0.613
1067.0,0.6212
1068.0,0.6083
1069.0,0.589
1070.0,0.6098
1071.0,0.617
1072.0,0.6116
1073.0,0.6025
1074.0,0.6156
1075.0,0.5916
1076.0,0.6155
1077.0,0.6084
1078.0,0.5982
1079.0,0.6046
1080.0,0.5993
1081.0,0.583
1082.0,0.5867
1083.0,0.5872
1084.0,0.5839
1085.0,0.5999
1086.0,0.5593
1087.0,0.5681
1088.0,0.5879
1089.0,0.5763
1090.0,0.5687
1091.0,0.5879
1092.0,0.5848
1093.0,0.5169
1094.0,0.5376
1095.0,0.5347
1096.0,0.5186
1097.0,0.571
1098.0,0.5123
1099.0,0.531
1100.0,0.504
1101.0,0.5072
1102.0,0.4901
1103.0,0.4896
1104.0,0.4898
1105.0,0.5211
1106.0,0.4359
1107.0,0.5022
1108.0,0.4486
1109.0,0.4452
1110.0,0.5002
1111.0,0.3714
1112.0,0.44
1113.0,0.3147
1114.0,0.3464
1115.0,0.2884
1116.0,0.2528
1117.0,0.1209
1118.0,0.2653
1119.0,0.1529
1120.0,0.1915
1121.0,0.24
1122.0,0.1198
1123.0,0.1727
1124.0,0.1461
1125.0,0.1855
1126.0,0.08383
1127.0,0.2074
1128.0,0.1444
1129.0,0.1494
1130.0,0.1096
1131.0,0.347
1132.0,0.2812
1133.0,0.2021
1134.0,0.06964
1135.0,0.02566
1136.0,0.1772
1137.0,0.3464
1138.0,0.2511
1139.0,0.3321
1140.0,0.2937
1141.0,0.2386
1142.0,0.2649
1143.0,0.3584
1144.0,0.1491
1145.0,0.1939
1146.0,0.2094
1147.0,0.0946
1148.0,0.3106
1149.0,0.2619
1150.0,0.1606
1151.0,0.2495
1152.0,0.2911
1153.0,0.2723
1154.0,0.194
1155.0,0.347
1156.0,0.3204
1157.0,0.3492
1158.0,0.3445
1159.0,0.3606
1160.0,0.3226
1161.0,0.3733
1162.0,0.3767
1163.0,0.4703
1164.0,0.4178
1165.0,0.4064
1166.0,0.396
1167.0,0.4238
1168.0,0.4307
1169.0,0.4357
1170.0,0.463
1171.0,0.4537
1172.0,0.4562
1173.0,0.4621
1174.0,0.3612
1175.0,0.4476
1176.0,0.4784
1177.0,0.4677
1178.0,0.3752
1179.0,0.4816
1180.0,0.4454
1181.0,0.4575
1182.0,0.3415
1183.0,0.4469
1184.0,0.4274
1185.0,0.4193
1186.0,0.4735
1187.0,0.4581
1188.0,0.3485
1189.0,0.4288
1190.0,0.463
1191.0,0.451
1192.0,0.468
1193.0,0.453
1194.0,0.4638
1195.0,0.4466
1196.0,0.4356
1197.0,0.4592
1198.0,0.4274
1199.0,0.3828
1200.0,0.448
1201.0,0.4384
1202.0,0.4327
1203.0,0.4285
1204.0,0.3867
1205.0,0.4371
1206.0,0.4716
1207.0,0.4331
1208.0,0.4207
1209.0,0.4279
1210.0,0.4414
1211.0,0.4278
1212.0,0.4299
1213.0,0.4598
1214.0,0.4362
1215.0,0.4301
1216.0,0.4582
1217.0,0.4497
1218.0,0.4548
1219.0,0.4508
1220.0,0.4548
1221.0,0.4573
1222.0,0.4479
1223.0,0.4451
1224.0,0.4447
1225.0,0.4544
1226.0,0.4554
1227.0,0.4293
1228.0,0.4558
1229.0,0.4553
1230.0,0.4493
1231.0,0.4565
1232.0,0.454
1233.0,0.4453
1234.0,0.4547
1235.0,0.4528
1236.0,0.4553
1237.0,0.4516
1238.0,0.4537
1239.0,0.448
1240.0,0.4493
1241.0,0.4489
1242.0,0.4464
1243.0,0.4427
1244.0,0.4464
1245.0,0.448
1246.0,0.4453
1247.0,0.4441
1248.0,0.4446
1249.0,0.4452
1250.0,0.4431
1251.0,0.4384
1252.0,0.4372
1253.0,0.4361
1254.0,0.4336
1255.0,0.4374
1256.0,0.4296
1257.0,0.4281
1258.0,0.4326
1259.0,0.4238
1260.0,0.4252
1261.0,0.4102
1262.0,0.4027
1263.0,0.4037
1264.0,0.3839
1265.0,0.4009
1266.0,0.3924
1267.0,0.3947
1268.0,0.3816
1269.0,0.2905
1270.0,0.395
1271.0,0.4078
1272.0,0.4081
1273.0,0.4048
1274.0,0.4048
1275.0,0.4089
1276.0,0.4111
1277.0,0.412
1278.0,0.4161
1279.0,0.4127
1280.0,0.4073
1281.0,0.387
1282.0,0.3702
1283.0,0.3993
1284.0,0.4094
1285.0,0.4117
1286.0,0.4157
1287.0,0.4121
1288.0,0.4113
1289.0,0.4037
1290.0,0.4073
1291.0,0.412
1292.0,0.3974
1293.0,0.4066
1294.0,0.4043
1295.0,0.4047
1296.0,0.3933
1297.0,0.3779
1298.0,0.3956
1299.0,0.4061
1300.0,0.3635
1301.0,0.3704
1302.0,0.3939
1303.0,0.3566
1304.0,0.3231
1305.0,0.3876
1306.0,0.3884
1307.0,0.3238
1308.0,0.3544
1309.0,0.3866
1310.0,0.3184
1311.0,0.344
1312.0,0.3377
1313.0,0.3339
1314.0,0.3061
1315.0,0.3061
1316.0,0.3415
1317.0,0.3257
1318.0,0.3462
1319.0,0.2939
1320.0,0.2798
1321.0,0.3176
1322.0,0.3237
1323.0,0.2636
1324.0,0.2882
1325.0,0.3374
1326.0,0.3022
1327.0,0.2915
1328.0,0.2578
1329.0,0.2107
1330.0,0.2648
1331.0,0.1826
1332.0,0.1806
1333.0,0.244
1334.0,0.1999
1335.0,0.2618
1336.0,0.2177
1337.0,0.2004
1338.0,0.2147
1339.0,0.2114
1340.0,0.2005
1341.0,0.2074
1342.0,0.2172
1343.0,0.1755
1344.0,0.1061
1345.0,0.147
1346.0,0.09502
1347.0,0.09998
1348.0,0.01319
1349.0,0.03773
1350.0,0.03355
1351.0,0.01505
1352.0,0.007146
1353.0,0.0008035
1354.0,0.001772
1355.0,6.187e-05
1356.0,0.0004257
1357.0,0.0006243
1358.0,6.916e-05
1359.0,2.397e-05
1360.0,4.552e-05
1361.0,5.025e-07
1362.0,4.299e-09
1363.0,7.125e-05
1364.0,3.626e-05
1365.0,4.572e-09
1366.0,0.0002325
1367.0,9.237e-05
1368.0,3.542e-10
1369.0,1.508e-05
1370.0,1.128e-05
1371.0,1.204e-06
1372.0,5.25e-05
1373.0,0.0004849
1374.0,0.001363
1375.0,0.0023
1376.0,0.001564
1377.0,0.0008213
1378.0,0.005741
1379.0,0.0003653
1380.0,0.0006708
1381.0,2.697e-05
1382.0,5.293e-05
1383.0,1.395e-06
1384.0,1.966e-05
1385.0,3.258e-05
1386.0,6.151e-05
1387.0,0.001714
1388.0,4.46e-05
1389.0,0.0036
1390.0,0.003009
1391.0,0.002356
1392.0,0.0002058
1393.0,0.0007969
1394.0,0.0008272
1395.0,1.307e-05
1396.0,5.465e-07
1397.0,0.0003946
1398.0,0.006548
1399.0,0.004268
1400.0,4.072e-07
1401.0,7.916e-07
1402.0,0.006558
1403.0,0.009035
1404.0,0.002927
1405.0,9.216e-06
1406.0,0.008746
1407.0,0.0007979
1408.0,0.007045
1409.0,0.003355
1410.0,0.002374
1411.0,0.007839
1412.0,0.008942
1413.0,0.05029
1414.0,0.001821
1415.0,0.001059
1416.0,0.06346
1417.0,0.02792
1418.0,0.03089
1419.0,0.005388
1420.0,0.01942
1421.0,0.02258
1422.0,0.0794
1423.0,0.01824
1424.0,0.03193
1425.0,0.04868
1426.0,0.04902
1427.0,0.07474
1428.0,0.01291
1429.0,0.06199
1430.0,0.09105
1431.0,0.09633
1432.0,0.01053
1433.0,0.06706
1434.0,0.03717
1435.0,0.04691
1436.0,0.07381
1437.0,0.05737
1438.0,0.02907
1439.0,0.09287
1440.0,0.07122
1441.0,0.06153
1442.0,0.06543
1443.0,0.0714
1444.0,0.09572
1445.0,0.0827
1446.0,0.03977
1447.0,0.06352
1448.0,0.1519
1449.0,0.1404
1450.0,0.0472
1451.0,0.02175
1452.0,0.09222
1453.0,0.1156
1454.0,0.1715
1455.0,0.09125
1456.0,0.1269
1457.0,0.1532
1458.0,0.1655
1459.0,0.1978
1460.0,0.1121
1461.0,0.1229
1462.0,0.1672
1463.0,0.06453
1464.0,0.1856
1465.0,0.1145
1466.0,0.09623
1467.0,0.05972
1468.0,0.1088
1469.0,0.1285
1470.0,0.07706
1471.0,0.03186
1472.0,0.0743
