interpolation:linear
wavelength,value
280.0,7.891e-21
280.5,1.659e-19
281.0,7.695e-19
281.5,1.592e-17
282.0,9.882e-17
282.5,3.205e-16
283.0,1.175e-15
283.5,2.02e-15
284.0,3.332e-14
284.5,9.377e-14
285.0,1.762e-13
285.5,1.044e-12
286.0,4.409e-12
286.5,2.036e-11
287.0,5.836e-11
287.5,2.166e-10
288.0,7.479e-10
288.5,2.577e-09
289.0,7.454e-09
289.5,2.357e-08
290.0,6.692e-08
290.5,1.383e-07
291.0,2.967e-07
291.5,8.319e-07
292.0,1.852e-06
292.5,2.589e-06
293.0,5.464e-06
293.5,1.281e-05
294.0,1.971e-05
294.5,3.255e-05
295.0,5.285e-05
295.5,0.0001157
296.0,0.0001942
296.5,0.000237
297.0,0.0002871
297.5,0.0006525
298.0,0.0008954
298.5,0.0008105
299.0,0.001614
299.5,0.002237
300.0,0.002237
300.5,0.002936
301.0,0.004533
301.5,0.006286
302.0,0.005032
302.5,0.009119
303.0,0.01486
303.5,0.01765
304.0,0.01597
304.5,0.02144
305.0,0.02806
305.5,0.02939
306.0,0.02757
306.5,0.03251
307.0,0.0426
307.5,0.05041
308.0,0.05246
308.5,0.05872
309.0,0.05158
309.5,0.0554
310.0,0.05411
310.5,0.08662
311.0,0.1062
311.5,0.1017
312.0,0.09595
312.5,0.1124
313.0,0.1198
313.5,0.1192
314.0,0.1422
314.5,0.1181
315.0,0.1539
315.5,0.1337
316.0,0.1107
316.5,0.1519
317.0,0.1896
317.5,0.2008
318.0,0.152
318.5,0.1773
319.0,0.2043
319.5,0.1763
320.0,0.2155
320.5,0.2531
321.0,0.2129
321.5,0.2036
322.0,0.2324
322.5,0.2021
323.0,0.1936
323.5,0.2221
324.0,0.2581
324.5,0.2684
325.0,0.2452
325.5,0.3057
326.0,0.3589
326.5,0.3513
327.0,0.3547
327.5,0.3479
328.0,0.3219
328.5,0.3254
329.0,0.3783
329.5,0.4267
330.0,0.4352
330.5,0.3583
331.0,0.3693
331.5,0.3695
332.0,0.3898
332.5,0.3822
333.0,0.385
333.5,0.3565
334.0,0.3675
334.5,0.4159
335.0,0.387
335.5,0.4394
336.0,0.3048
336.5,0.3717
337.0,0.3087
337.5,0.3863
338.0,0.3715
338.5,0.4194
339.0,0.4183
339.5,0.4019
340.0,0.4849
340.5,0.4375
341.0,0.4197
341.5,0.3895
342.0,0.4676
342.5,0.4393
343.0,0.4825
343.5,0.4541
344.0,0.3415
344.5,0.3381
345.0,0.453
345.5,0.465
346.0,0.3969
346.5,0.451
347.0,0.4838
347.5,0.3916
348.0,0.4492
348.5,0.451
349.0,0.4196
349.5,0.4161
350.0,0.5159
350.5,0.5454
351.0,0.4877
351.5,0.473
352.0,0.5106
352.5,0.4001
353.0,0.5055
353.5,0.542
354.0,0.5643
354.5,0.5737
355.0,0.5728
355.5,0.5186
356.0,0.5438
356.5,0.4655
357.0,0.3855
357.5,0.4731
358.0,0.3758
358.5,0.3219
359.0,0.4512
359.5,0.576
360.0,0.612
360.5,0.4903
361.0,0.4479
361.5,0.5164
362.0,0.4471
362.5,0.6196
363.0,0.5573
363.5,0.5141
364.0,0.6298
364.5,0.5393
365.0,0.5503
365.5,0.6919
366.0,0.7342
366.5,0.6909
367.0,0.6741
367.5,0.7009
368.0,0.6143
368.5,0.6209
369.0,0.6717
369.5,0.7172
370.0,0.7658
370.5,0.5953
371.0,0.6371
371.5,0.7985
372.0,0.5309
372.5,0.6377
373.0,0.6496
373.5,0.4233
374.0,0.616
374.5,0.5109
375.0,0.4975
375.5,0.7441
376.0,0.6179
376.5,0.6414
377.0,0.6801
377.5,0.7968
378.0,0.8653
378.5,0.8194
379.0,0.6776
379.5,0.6202
380.0,0.6459
380.5,0.7835
381.0,0.7861
381.5,0.624
382.0,0.5549
382.5,0.4736
383.0,0.439
383.5,0.4234
384.0,0.4677
384.5,0.6889
385.0,0.6841
385.5,0.6379
386.0,0.5471
386.5,0.7195
387.0,0.5988
387.5,0.6736
388.0,0.6228
388.5,0.6164
389.0,0.6664
389.5,0.8082
390.0,0.8122
390.5,0.7484
391.0,0.8821
391.5,0.9011
392.0,0.76
392.5,0.6812
393.0,0.3795
393.5,0.2762
394.0,0.5626
394.5,0.7162
395.0,0.875
395.5,0.8901
396.0,0.7727
396.5,0.4521
397.0,0.3397
397.5,0.6918
398.0,0.9702
398.5,1.004
399.0,1.088
399.5,1.086
400.0,1.129
401.0,1.162
402.0,1.228
403.0,1.169
404.0,1.153
405.0,1.156
406.0,1.139
407.0,1.122
408.0,1.169
409.0,1.254
410.0,1.097
411.0,1.19
412.0,1.28
413.0,1.251
414.0,1.268
415.0,1.274
416.0,1.298
417.0,1.268
418.0,1.247
419.0,1.266
420.0,1.262
421.0,1.323
422.0,1.26
423.0,1.232
424.0,1.306
425.0,1.305
426.0,1.273
427.0,1.251
428.0,1.22
429.0,1.157
430.0,1.014
431.0,1.007
432.0,1.301
433.0,1.31
434.0,1.219
435.0,1.275
436.0,1.438
437.0,1.419
438.0,1.294
439.0,1.341
440.0,1.385
441.0,1.437
442.0,1.543
443.0,1.506
444.0,1.54
445.0,1.509
446.0,1.441
447.0,1.559
448.0,1.586
449.0,1.593
450.0,1.639
451.0,1.702
452.0,1.641
453.0,1.545
454.0,1.614
455.0,1.626
456.0,1.667
457.0,1.696
458.0,1.642
459.0,1.635
460.0,1.641
461.0,1.681
462.0,1.695
463.0,1.685
464.0,1.657
465.0,1.637
466.0,1.654
467.0,1.626
468.0,1.647
469.0,1.658
470.0,1.607
471.0,1.606
472.0,1.694
473.0,1.674
474.0,1.68
475.0,1.698
476.0,1.65
477.0,1.658
478.0,1.705
479.0,1.695
480.0,1.699
481.0,1.731
482.0,1.74
483.0,1.719
484.0,1.685
485.0,1.606
486.0,1.404
487.0,1.472
488.0,1.617
489.0,1.624
490.0,1.709
491.0,1.68
492.0,1.588
493.0,1.641
494.0,1.659
495.0,1.674
496.0,1.686
497.0,1.713
498.0,1.635
499.0,1.657
500.0,1.611
501.0,1.584
502.0,1.565
503.0,1.632
504.0,1.599
505.0,1.652
506.0,1.707
507.0,1.625
508.0,1.573
509.0,1.617
510.0,1.609
511.0,1.652
512.0,1.67
513.0,1.582
514.0,1.571
515.0,1.557
516.0,1.554
517.0,1.382
518.0,1.454
519.0,1.526
520.0,1.583
521.0,1.599
522.0,1.602
523.0,1.575
524.0,1.633
525.0,1.655
526.0,1.582
527.0,1.493
528.0,1.581
529.0,1.668
530.0,1.646
531.0,1.671
532.0,1.615
533.0,1.569
534.0,1.616
535.0,1.651
536.0,1.667
537.0,1.601
538.0,1.63
539.0,1.617
540.0,1.552
541.0,1.565
542.0,1.615
543.0,1.598
544.0,1.628
545.0,1.623
546.0,1.632
547.0,1.631
548.0,1.612
549.0,1.617
550.0,1.637
551.0,1.618
552.0,1.63
553.0,1.602
554.0,1.641
555.0,1.646
556.0,1.625
557.0,1.576
558.0,1.566
559.0,1.538
560.0,1.559
561.0,1.581
562.0,1.571
563.0,1.616
564.0,1.574
565.0,1.562
566.0,1.54
567.0,1.572
568.0,1.561
569.0,1.531
570.0,1.531
571.0,1.52
572.0,1.562
573.0,1.58
574.0,1.576
575.0,1.549
576.0,1.535
577.0,1.552
578.0,1.528
579.0,1.531
580.0,1.557
581.0,1.562
582.0,1.589
583.0,1.591
584.0,1.604
585.0,1.565
586.0,1.533
587.0,1.569
588.0,1.54
589.0,1.38
590.0,1.443
591.0,1.518
592.0,1.505
593.0,1.52
594.0,1.513
595.0,1.482
596.0,1.528
597.0,1.515
598.0,1.508
599.0,1.508
600.0,1.507
601.0,1.493
602.0,1.483
603.0,1.507
604.0,1.532
605.0,1.524
606.0,1.517
607.0,1.531
608.0,1.513
609.0,1.515
610.0,1.504
611.0,1.511
612.0,1.507
613.0,1.488
614.0,1.467
615.0,1.498
616.0,1.448
617.0,1.445
618.0,1.501
619.0,1.485
620.0,1.495
621.0,1.498
622.0,1.482
623.0,1.461
624.0,1.436
625.0,1.433
626.0,1.454
627.0,1.474
628.0,1.41
629.0,1.451
630.0,1.419
631.0,1.441
632.0,1.422
633.0,1.461
634.0,1.443
635.0,1.464
636.0,1.443
637.0,1.466
638.0,1.478
639.0,1.46
640.0,1.445
641.0,1.444
642.0,1.436
643.0,1.456
644.0,1.45
645.0,1.453
646.0,1.424
647.0,1.416
648.0,1.419
649.0,1.392
650.0,1.388
651.0,1.446
652.0,1.399
653.0,1.427
654.0,1.411
655.0,1.365
656.0,1.205
657.0,1.238
658.0,1.384
659.0,1.392
660.0,1.398
661.0,1.408
662.0,1.413
663.0,1.384
664.0,1.398
665.0,1.397
666.0,1.397
667.0,1.395
668.0,1.395
669.0,1.416
670.0,1.409
671.0,1.409
672.0,1.396
673.0,1.417
674.0,1.412
675.0,1.399
676.0,1.408
677.0,1.394
678.0,1.398
679.0,1.375
680.0,1.386
681.0,1.377
682.0,1.375
683.0,1.373
684.0,1.366
685.0,1.378
686.0,1.371
687.0,1.058
688.0,1.167
689.0,1.169
690.0,1.203
691.0,1.24
692.0,1.264
693.0,1.257
694.0,1.248
695.0,1.282
696.0,1.284
697.0,1.34
698.0,1.32
699.0,1.303
700.0,1.288
701.0,1.279
702.0,1.283
703.0,1.285
704.0,1.318
705.0,1.32
706.0,1.316
707.0,1.316
708.0,1.319
709.0,1.316
710.0,1.319
711.0,1.315
712.0,1.309
713.0,1.298
714.0,1.303
715.0,1.267
716.0,1.27
717.0,1.156
718.0,1.073
719.0,0.9905
720.0,1.04
721.0,1.114
722.0,1.236
723.0,1.171
724.0,1.078
725.0,1.069
726.0,1.113
727.0,1.117
728.0,1.068
729.0,1.088
730.0,1.15
731.0,1.107
732.0,1.164
733.0,1.211
734.0,1.235
735.0,1.212
736.0,1.211
737.0,1.216
738.0,1.222
739.0,1.199
740.0,1.226
741.0,1.212
742.0,1.211
743.0,1.241
744.0,1.236
745.0,1.236
746.0,1.242
747.0,1.244
748.0,1.242
749.0,1.228
750.0,1.227
751.0,1.214
752.0,1.22
753.0,1.226
754.0,1.229
755.0,1.222
756.0,1.222
757.0,1.223
758.0,1.209
759.0,1.192
760.0,0.3723
761.0,0.2443
762.0,0.7659
763.0,0.4905
764.0,0.6387
765.0,0.7669
766.0,0.8637
767.0,1.017
768.0,1.118
769.0,1.129
770.0,1.154
771.0,1.158
772.0,1.158
773.0,1.166
774.0,1.16
775.0,1.151
776.0,1.165
777.0,1.15
778.0,1.143
779.0,1.144
780.0,1.138
781.0,1.139
782.0,1.146
783.0,1.126
784.0,1.131
785.0,1.124
786.0,1.136
787.0,1.122
788.0,1.111
789.0,1.112
790.0,1.091
791.0,1.092
792.0,1.083
793.0,1.067
794.0,1.076
795.0,1.097
796.0,1.074
797.0,1.076
798.0,1.097
799.0,1.092
800.0,1.076
801.0,1.075
802.0,1.072
803.0,1.065
804.0,1.066
805.0,1.059
806.0,1.084
807.0,1.072
808.0,1.072
809.0,1.056
810.0,1.051
811.0,1.057
812.0,1.035
813.0,1.019
814.0,0.9253
815.0,0.919
816.0,0.8604
817.0,0.8722
818.0,0.846
819.0,0.9205
820.0,0.8771
821.0,0.9912
822.0,0.9687
823.0,0.715
824.0,0.9518
825.0,0.9764
826.0,0.9495
827.0,0.9911
828.0,0.871
829.0,0.9419
830.0,0.933
831.0,0.935
832.0,0.9121
833.0,0.954
834.0,0.9304
835.0,1.001
836.0,0.9711
837.0,1.003
838.0,0.9772
839.0,0.9866
840.0,1.007
841.0,0.9951
842.0,0.9935
843.0,0.9891
844.0,0.9776
845.0,1.008
846.0,1.003
847.0,0.983
848.0,0.9786
849.0,0.951
850.0,0.9109
851.0,0.9663
852.0,0.9588
853.0,0.9215
854.0,0.7969
855.0,0.8739
856.0,0.9558
857.0,0.976
858.0,0.9694
859.0,0.9695
860.0,0.9708
861.0,0.9658
862.0,0.9807
863.0,1.004
864.0,0.9537
865.0,0.9453
866.0,0.85
867.0,0.8871
868.0,0.9653
869.0,0.9453
870.0,0.9722
871.0,0.9591
872.0,0.9556
873.0,0.9538
874.0,0.9425
875.0,0.9235
876.0,0.9333
877.0,0.9426
878.0,0.9532
879.0,0.9385
880.0,0.9185
881.0,0.9056
882.0,0.9255
883.0,0.9277
884.0,0.9238
885.0,0.9308
886.0,0.8901
887.0,0.8974
888.0,0.9122
889.0,0.9199
890.0,0.9154
891.0,0.9123
892.0,0.8899
893.0,0.8675
894.0,0.8466
895.0,0.8125
896.0,0.7721
897.0,0.6815
898.0,0.7328
899.0,0.5806
900.0,0.7397
901.0,0.6069
902.0,0.6827
903.0,0.6986
904.0,0.8407
905.0,0.8176
906.0,0.7701
907.0,0.6523
908.0,0.6618
909.0,0.7036
910.0,0.6454
911.0,0.6745
912.0,0.6991
913.0,0.656
914.0,0.6467
915.0,0.6974
916.0,0.5991
917.0,0.733
918.0,0.6146
919.0,0.741
920.0,0.7379
921.0,0.7637
922.0,0.6994
923.0,0.7372
924.0,0.7172
925.0,0.7025
926.0,0.7097
927.0,0.7786
928.0,0.6168
929.0,0.5755
930.0,0.4732
931.0,0.4445
932.0,0.3411
933.0,0.2897
934.0,0.1852
935.0,0.2862
936.0,0.195
937.0,0.2004
938.0,0.2395
939.0,0.4309
940.0,0.5039
941.0,0.4003
942.0,0.45
943.0,0.3122
944.0,0.3152
945.0,0.4096
946.0,0.2305
947.0,0.4167
948.0,0.3105
949.0,0.5355
950.0,0.1852
951.0,0.5236
952.0,0.3112
953.0,0.3824
954.0,0.4477
955.0,0.3843
956.0,0.3654
957.0,0.3148
958.0,0.4861
959.0,0.4083
960.0,0.4564
961.0,0.4958
962.0,0.4717
963.0,0.5291
964.0,0.49
965.0,0.5251
966.0,0.529
967.0,0.5279
968.0,0.6596
969.0,0.6914
970.0,0.6424
971.0,0.7144
972.0,0.6874
973.0,0.6195
974.0,0.5916
975.0,0.6055
976.0,0.5858
977.0,0.6453
978.0,0.622
979.0,0.6443
980.0,0.6108
981.0,0.7095
982.0,0.6858
983.0,0.663
984.0,0.723
985.0,0.683
986.0,0.7309
987.0,0.7215
988.0,0.7204
989.0,0.7258
990.0,0.7155
991.0,0.7286
992.0,0.7323
993.0,0.721
994.0,0.7316
995.0,0.73
996.0,0.7276
997.0,0.7283
998.0,0.7252
999.0,0.7223
1000.0,0.7185
1001.0,0.7261
1002.0,0.7111
1003.0,0.7136
1004.0,0.6975
1005.0,0.6702
1006.0,0.6973
1007.0,0.7116
1008.0,0.7087
1009.0,0.7059
1010.0,0.7035
1011.0,0.708
1012.0,0.7028
1013.0,0.706
1014.0,0.7011
1015.0,0.6966
1016.0,0.6936
1017.0,0.6956
1018.0,0.6924
1019.0,0.6795
1020.0,0.6891
1021.0,0.6878
1022.0,0.6832
1023.0,0.6906
1024.0,0.6836
1025.0,0.6895
1026.0,0.687
1027.0,0.6854
1028.0,0.6841
1029.0,0.6762
1030.0,0.6802
1031.0,0.6778
1032.0,0.6756
1033.0,0.6655
1034.0,0.6655
1035.0,0.6676
1036.0,0.6713
1037.0,0.6603
1038.0,0.6633
1039.0,0.663
1040.0,0.6604
1041.0,0.6632
1042.0,0.6586
1043.0,0.6567
1044.0,0.6591
1045.0,0.6503
1046.0,0.6432
1047.0,0.6492
1048.0,0.6529
1049.0,0.6507
1050.0,0.6479
1051.0,0.6472
1052.0,0.6447
1053.0,0.6399
1054.0,0.6415
1055.0,0.6422
1056.0,0.6402
1057.0,0.6385
1058.0,0.6231
1059.0,0.6241
1060.0,0.6233
1061.0,0.6227
1062.0,0.6263
1063.0,0.6204
1064.0,0.6276
1065.0,0.6238
1066.0,0.611
1067.0,0.6191
1068.0,0.6061
1069.0,0.587
1070.0,0.6074
1071.0,0.6152
1072.0,0.6094
1073.0,0.6004
1074.0,0.614
1075.0,0.5885
1076.0,0.6138
1077.0,0.6059
1078.0,0.5955
1079.0,0.6032
1080.0,0.5967
1081.0,0.5799
1082.0,0.5848
1083.0,0.5856
1084.0,0.5802
1085.0,0.5975
1086.0,0.5541
1087.0,0.5652
1088.0,0.586
1089.0,0.573
1090.0,0.5642
1091.0,0.5856
1092.0,0.5829
1093.0,0.5102
1094.0,0.5353
1095.0,0.5288
1096.0,0.5113
1097.0,0.5692
1098.0,0.5048
1099.0,0.524
1100.0,0.4948
1101.0,0.4987
1102.0,0.4806
1103.0,0.4792
1104.0,0.4794
1105.0,0.5137
1106.0,0.4209
1107.0,0.4934
1108.0,0.4352
1109.0,0.4328
1110.0,0.491
1111.0,0.3566
1112.0,0.4282
1113.0,0.2977
1114.0,0.3292
1115.0,0.2737
1116.0,0.2346
1117.0,0.1055
1118.0,0.2486
1119.0,0.1382
1120.0,0.1737
1121.0,0.2208
1122.0,0.106
1123.0,0.1566
1124.0,0.1324
1125.0,0.1692
1126.0,0.07219
1127.0,0.1896
1128.0,0.1276
1129.0,0.1329
1130.0,0.09465
1131.0,0.3272
1132.0,0.2629
1133.0,0.1836
1134.0,0.05884
1135.0,0.02164
1136.0,0.1592
1137.0,0.3257
1138.0,0.234
1139.0,0.3183
1140.0,0.2777
1141.0,0.2223
1142.0,0.249
1143.0,0.3408
1144.0,0.1357
1145.0,0.1764
1146.0,0.1905
1147.0,0.08128
1148.0,0.2953
1149.0,0.2456
1150.0,0.1457
1151.0,0.2325
1152.0,0.2747
1153.0,0.2594
1154.0,0.1747
1155.0,0.3325
1156.0,0.3053
1157.0,0.3346
1158.0,0.3304
1159.0,0.3484
1160.0,0.3079
1161.0,0.3617
1162.0,0.3647
1163.0,0.464
1164.0,0.4087
1165.0,0.3949
1166.0,0.3861
1167.0,0.415
1168.0,0.4214
1169.0,0.4276
1170.0,0.4567
1171.0,0.4468
1172.0,0.4505
1173.0,0.4558
1174.0,0.3487
1175.0,0.4421
1176.0,0.4755
1177.0,0.4631
1178.0,0.3655
1179.0,0.4789
1180.0,0.4393
1181.0,0.4519
1182.0,0.331
1183.0,0.4423
1184.0,0.4208
1185.0,0.4114
1186.0,0.4698
1187.0,0.4529
1188.0,0.3379
1189.0,0.4234
1190.0,0.4592
1191.0,0.445
1192.0,0.4645
1193.0,0.4485
1194.0,0.46
1195.0,0.4413
1196.0,0.4293
1197.0,0.4565
1198.0,0.4231
1199.0,0.3748
1200.0,0.4435
1201.0,0.4327
1202.0,0.4275
1203.0,0.4238
1204.0,0.3795
1205.0,0.433
1206.0,0.4698
1207.0,0.4277
1208.0,0.4166
1209.0,0.4241
1210.0,0.4384
1211.0,0.4233
1212.0,0.4241
1213.0,0.4574
1214.0,0.4312
1215.0,0.4246
1216.0,0.4557
1217.0,0.4466
1218.0,0.4523
1219.0,0.448
1220.0,0.4524
1221.0,0.4554
1222.0,0.4454
1223.0,0.4423
1224.0,0.4415
1225.0,0.4525
1226.0,0.4539
1227.0,0.426
1228.0,0.4547
1229.0,0.4539
1230.0,0.4475
1231.0,0.4558
1232.0,0.4532
1233.0,0.4432
1234.0,0.4542
1235.0,0.4522
1236.0,0.4548
1237.0,0.4507
1238.0,0.4533
1239.0,0.4475
1240.0,0.4489
1241.0,0.4482
1242.0,0.446
1243.0,0.4423
1244.0,0.4459
1245.0,0.4475
1246.0,0.4449
1247.0,0.4435
1248.0,0.4439
1249.0,0.4447
1250.0,0.4424
1251.0,0.4376
1252.0,0.4366
1253.0,0.435
1254.0,0.4321
1255.0,0.4367
1256.0,0.428
1257.0,0.4264
1258.0,0.4315
1259.0,0.4214
1260.0,0.4229
1261.0,0.4063
1262.0,0.3979
1263.0,0.3989
1264.0,0.3771
1265.0,0.3962
1266.0,0.3864
1267.0,0.3896
1268.0,0.3753
1269.0,0.2744
1270.0,0.3896
1271.0,0.4041
1272.0,0.4046
1273.0,0.4011
1274.0,0.4014
1275.0,0.4058
1276.0,0.4084
1277.0,0.4095
1278.0,0.4144
1279.0,0.411
1280.0,0.4056
1281.0,0.3857
1282.0,0.3695
1283.0,0.3984
1284.0,0.4084
1285.0,0.4108
1286.0,0.4151
1287.0,0.4109
1288.0,0.4103
1289.0,0.4016
1290.0,0.4063
1291.0,0.4112
1292.0,0.3946
1293.0,0.4053
1294.0,0.4029
1295.0,0.4029
1296.0,0.3901
1297.0,0.3736
1298.0,0.3933
1299.0,0.405
1300.0,0.3582
1301.0,0.3659
1302.0,0.3917
1303.0,0.3518
1304.0,0.3147
1305.0,0.385
1306.0,0.3858
1307.0,0.3165
1308.0,0.3502
1309.0,0.3838
1310.0,0.3111
1311.0,0.339
1312.0,0.3322
1313.0,0.3279
1314.0,0.299
1315.0,0.2983
1316.0,0.336
1317.0,0.32
1318.0,0.3417
1319.0,0.2849
1320.0,0.2722
1321.0,0.3108
1322.0,0.3163
1323.0,0.2531
1324.0,0.2794
1325.0,0.3319
1326.0,0.2944
1327.0,0.2832
1328.0,0.2491
1329.0,0.1999
1330.0,0.2533
1331.0,0.1695
1332.0,0.1692
1333.0,0.2306
1334.0,0.1896
1335.0,0.2517
1336.0,0.207
1337.0,0.1885
1338.0,0.2029
1339.0,0.2
1340.0,0.1906
1341.0,0.1951
1342.0,0.2043
1343.0,0.1591
1344.0,0.09542
1345.0,0.1341
1346.0,0.08198
1347.0,0.08582
1348.0,0.009604
1349.0,0.0291
1350.0,0.02686
1351.0,0.01051
1352.0,0.004484
1353.0,0.0004175
1354.0,0.001013
1355.0,2.563e-05
1356.0,0.000216
1357.0,0.0003208
1358.0,2.9e-05
1359.0,8.195e-06
1360.0,1.773e-05
1361.0,1.195e-07
1362.0,7.754e-10
1363.0,2.781e-05
1364.0,1.318e-05
1365.0,6.682e-10
1366.0,9.683e-05
1367.0,3.758e-05
1368.0,3.252e-11
1369.0,5.309e-06
1370.0,3.659e-06
1371.0,3.363e-07
1372.0,2.106e-05
1373.0,0.0002326
1374.0,0.0007293
1375.0,0.001274
1376.0,0.0008962
1377.0,0.0004547
1378.0,0.003493
1379.0,0.0001982
1380.0,0.00035
1381.0,1.25e-05
1382.0,2.081e-05
1383.0,4.713e-07
1384.0,6.767e-06
1385.0,1.382e-05
1386.0,2.307e-05
1387.0,0.0008978
1388.0,2.094e-05
1389.0,0.002065
1390.0,0.001748
1391.0,0.00131
1392.0,0.0001047
1393.0,0.0004379
1394.0,0.0003994
1395.0,5.162e-06
1396.0,1.374e-07
1397.0,0.0002062
1398.0,0.004003
1399.0,0.002572
1400.0,9.205e-08
1401.0,2.084e-07
1402.0,0.004423
1403.0,0.006016
1404.0,0.001917
1405.0,3.376e-06
1406.0,0.005654
1407.0,0.0004943
1408.0,0.00455
1409.0,0.002022
1410.0,0.001436
1411.0,0.005224
1412.0,0.006165
1413.0,0.04012
1414.0,0.001104
1415.0,0.0006143
1416.0,0.0532
1417.0,0.02133
1418.0,0.02408
1419.0,0.004058
1420.0,0.01501
1421.0,0.01695
1422.0,0.06756
1423.0,0.0147
1424.0,0.02626
1425.0,0.03991
1426.0,0.04122
1427.0,0.06593
1428.0,0.009342
1429.0,0.05336
1430.0,0.08114
1431.0,0.08665
1432.0,0.007545
1433.0,0.05884
1434.0,0.03186
1435.0,0.03823
1436.0,0.06317
1437.0,0.04874
1438.0,0.02361
1439.0,0.08116
1440.0,0.06168
1441.0,0.05176
1442.0,0.05589
1443.0,0.06304
1444.0,0.08484
1445.0,0.07177
1446.0,0.03402
1447.0,0.05387
1448.0,0.1407
1449.0,0.1278
1450.0,0.0399
1451.0,0.01771
1452.0,0.08215
1453.0,0.1043
1454.0,0.1605
1455.0,0.08275
1456.0,0.1141
1457.0,0.1416
1458.0,0.1564
1459.0,0.1865
1460.0,0.1032
1461.0,0.112
1462.0,0.1552
1463.0,0.05697
1464.0,0.1753
1465.0,0.1074
1466.0,0.08589
1467.0,0.051
1468.0,0.0981
1469.0,0.117
