interpolation:linear
wavelength,value
280.0,6.831e-22
280.5,1.6780000000000003e-20
281.0,8.237000000000001e-20
281.5,1.982e-18
282.0,1.347e-17
282.5,4.647e-17
283.0,1.823e-16
283.5,3.242e-16
284.0,6.258e-15
284.5,1.892e-14
285.0,3.841e-14
285.5,2.494e-13
286.0,1.092e-12
286.5,5.441e-12
287.0,1.649e-11
287.5,6.588e-11
288.0,2.494e-10
288.5,9.027e-10
289.0,2.746e-09
289.5,9.182e-09
290.0,2.728e-08
290.5,5.858e-08
291.0,1.315e-07
291.5,3.91e-07
292.0,9.127e-07
292.5,1.311e-06
293.0,2.863e-06
293.5,7.031e-06
294.0,1.117e-05
294.5,1.889e-05
295.0,3.161e-05
295.5,7.179e-05
296.0,0.0001237
296.5,0.0001545
297.0,0.0001908
297.5,0.0004455
298.0,0.0006246
298.5,0.0005746
299.0,0.001161
299.5,0.001649
300.0,0.001669
300.5,0.002218
301.0,0.003486
301.5,0.004904
302.0,0.003953
302.5,0.007253
303.0,0.012
303.5,0.01437
304.0,0.01306
304.5,0.01772
305.0,0.02348
305.5,0.02479
306.0,0.02333
306.5,0.02765
307.0,0.03659
307.5,0.04368
308.0,0.04554
308.5,0.05119
309.0,0.04512
309.5,0.0489
310.0,0.04797
310.5,0.07696
311.0,0.09468
311.5,0.09083
312.0,0.08626
312.5,0.1015
313.0,0.1084
313.5,0.1078
314.0,0.1291
314.5,0.1079
315.0,0.1408
315.5,0.122
316.0,0.1016
316.5,0.1399
317.0,0.1746
317.5,0.1849
318.0,0.1403
318.5,0.1644
319.0,0.1899
319.5,0.1634
320.0,0.1997
320.5,0.2356
321.0,0.1989
321.5,0.1903
322.0,0.2166
322.5,0.1885
323.0,0.1811
323.5,0.2086
324.0,0.2425
324.5,0.252
325.0,0.2297
325.5,0.287
326.0,0.3379
326.5,0.3313
327.0,0.3345
327.5,0.328
328.0,0.3029
328.5,0.3071
329.0,0.3577
329.5,0.4038
330.0,0.4119
330.5,0.3388
331.0,0.3492
331.5,0.3498
332.0,0.3696
332.5,0.3627
333.0,0.3653
333.5,0.3381
334.0,0.3486
334.5,0.395
335.0,0.3679
335.5,0.418
336.0,0.29
336.5,0.3536
337.0,0.2936
337.5,0.3675
338.0,0.3538
338.5,0.3996
339.0,0.3988
339.5,0.3833
340.0,0.4624
340.5,0.4173
341.0,0.4005
341.5,0.3719
342.0,0.4466
342.5,0.4197
343.0,0.461
343.5,0.434
344.0,0.3263
344.5,0.3232
345.0,0.4334
345.5,0.445
346.0,0.38
346.5,0.4318
347.0,0.4634
347.5,0.3752
348.0,0.4305
348.5,0.4323
349.0,0.4023
349.5,0.3991
350.0,0.4949
350.5,0.5234
351.0,0.4681
351.5,0.454
352.0,0.4903
352.5,0.3843
353.0,0.4856
353.5,0.5209
354.0,0.5424
354.5,0.5515
355.0,0.5508
355.5,0.4988
356.0,0.5232
356.5,0.4479
357.0,0.371
357.5,0.4554
358.0,0.3618
358.5,0.31
359.0,0.4346
359.5,0.5548
360.0,0.5896
360.5,0.4725
361.0,0.4317
361.5,0.4979
362.0,0.4312
362.5,0.5978
363.0,0.5378
363.5,0.4962
364.0,0.608
364.5,0.5207
365.0,0.5314
365.5,0.6683
366.0,0.7094
366.5,0.6677
367.0,0.6515
367.5,0.6775
368.0,0.594
368.5,0.6005
369.0,0.6497
369.5,0.6938
370.0,0.741
370.5,0.5761
371.0,0.6167
371.5,0.7731
372.0,0.5141
372.5,0.6176
373.0,0.6292
373.5,0.4101
374.0,0.5969
374.5,0.4952
375.0,0.4822
375.5,0.7214
376.0,0.5991
376.5,0.622
377.0,0.6596
377.5,0.773
378.0,0.8395
378.5,0.7951
379.0,0.6576
379.5,0.6019
380.0,0.627
380.5,0.7607
381.0,0.7634
381.5,0.6061
382.0,0.539
382.5,0.4602
383.0,0.4267
383.5,0.4116
384.0,0.4547
384.5,0.6698
385.0,0.6653
385.5,0.6204
386.0,0.5322
386.5,0.7
387.0,0.5827
387.5,0.6555
388.0,0.6062
388.5,0.6001
389.0,0.6488
389.5,0.787
390.0,0.791
390.5,0.729
391.0,0.8593
391.5,0.8779
392.0,0.7406
392.5,0.6639
393.0,0.3699
393.5,0.2692
394.0,0.5486
394.5,0.6983
395.0,0.8533
395.5,0.8682
396.0,0.7537
396.5,0.4411
397.0,0.3315
397.5,0.6751
398.0,0.9469
398.5,0.98
399.0,1.062
399.5,1.06
400.0,1.102
401.0,1.135
402.0,1.2
403.0,1.142
404.0,1.127
405.0,1.13
406.0,1.114
407.0,1.098
408.0,1.144
409.0,1.227
410.0,1.074
411.0,1.165
412.0,1.253
413.0,1.225
414.0,1.242
415.0,1.248
416.0,1.272
417.0,1.243
418.0,1.223
419.0,1.241
420.0,1.238
421.0,1.298
422.0,1.236
423.0,1.209
424.0,1.282
425.0,1.281
426.0,1.249
427.0,1.228
428.0,1.199
429.0,1.136
430.0,0.9961
431.0,0.9894
432.0,1.279
433.0,1.288
434.0,1.198
435.0,1.254
436.0,1.414
437.0,1.396
438.0,1.273
439.0,1.319
440.0,1.363
441.0,1.414
442.0,1.519
443.0,1.482
444.0,1.516
445.0,1.486
446.0,1.419
447.0,1.535
448.0,1.562
449.0,1.569
450.0,1.615
451.0,1.677
452.0,1.618
453.0,1.523
454.0,1.591
455.0,1.603
456.0,1.643
457.0,1.673
458.0,1.619
459.0,1.612
460.0,1.619
461.0,1.658
462.0,1.672
463.0,1.663
464.0,1.636
465.0,1.616
466.0,1.633
467.0,1.605
468.0,1.626
469.0,1.637
470.0,1.587
471.0,1.586
472.0,1.673
473.0,1.654
474.0,1.659
475.0,1.677
476.0,1.63
477.0,1.637
478.0,1.684
479.0,1.675
480.0,1.679
481.0,1.711
482.0,1.72
483.0,1.699
484.0,1.666
485.0,1.588
486.0,1.389
487.0,1.456
488.0,1.599
489.0,1.606
490.0,1.69
491.0,1.662
492.0,1.571
493.0,1.624
494.0,1.641
495.0,1.657
496.0,1.668
497.0,1.696
498.0,1.618
499.0,1.64
500.0,1.595
501.0,1.568
502.0,1.549
503.0,1.616
504.0,1.582
505.0,1.635
506.0,1.689
507.0,1.608
508.0,1.558
509.0,1.601
510.0,1.593
511.0,1.636
512.0,1.654
513.0,1.567
514.0,1.557
515.0,1.542
516.0,1.54
517.0,1.369
518.0,1.44
519.0,1.512
520.0,1.568
521.0,1.584
522.0,1.587
523.0,1.56
524.0,1.618
525.0,1.639
526.0,1.568
527.0,1.479
528.0,1.566
529.0,1.653
530.0,1.631
531.0,1.656
532.0,1.6
533.0,1.554
534.0,1.601
535.0,1.636
536.0,1.652
537.0,1.587
538.0,1.616
539.0,1.603
540.0,1.538
541.0,1.551
542.0,1.601
543.0,1.584
544.0,1.613
545.0,1.609
546.0,1.618
547.0,1.617
548.0,1.598
549.0,1.603
550.0,1.623
551.0,1.604
552.0,1.616
553.0,1.588
554.0,1.627
555.0,1.632
556.0,1.612
557.0,1.563
558.0,1.553
559.0,1.525
560.0,1.546
561.0,1.567
562.0,1.558
563.0,1.602
564.0,1.56
565.0,1.548
566.0,1.527
567.0,1.558
568.0,1.548
569.0,1.517
570.0,1.517
571.0,1.507
572.0,1.547
573.0,1.565
574.0,1.562
575.0,1.534
576.0,1.521
577.0,1.538
578.0,1.514
579.0,1.518
580.0,1.543
581.0,1.549
582.0,1.576
583.0,1.578
584.0,1.591
585.0,1.552
586.0,1.521
587.0,1.557
588.0,1.527
589.0,1.367
590.0,1.429
591.0,1.504
592.0,1.491
593.0,1.507
594.0,1.5
595.0,1.468
596.0,1.515
597.0,1.502
598.0,1.495
599.0,1.496
600.0,1.495
601.0,1.481
602.0,1.472
603.0,1.495
604.0,1.52
605.0,1.512
606.0,1.505
607.0,1.52
608.0,1.502
609.0,1.504
610.0,1.493
611.0,1.501
612.0,1.496
613.0,1.477
614.0,1.457
615.0,1.488
616.0,1.439
617.0,1.436
618.0,1.491
619.0,1.476
620.0,1.486
621.0,1.488
622.0,1.472
623.0,1.451
624.0,1.426
625.0,1.423
626.0,1.445
627.0,1.464
628.0,1.397
629.0,1.44
630.0,1.408
631.0,1.431
632.0,1.412
633.0,1.451
634.0,1.434
635.0,1.456
636.0,1.435
637.0,1.457
638.0,1.47
639.0,1.452
640.0,1.437
641.0,1.436
642.0,1.429
643.0,1.448
644.0,1.443
645.0,1.446
646.0,1.416
647.0,1.408
648.0,1.41
649.0,1.384
650.0,1.381
651.0,1.439
652.0,1.391
653.0,1.42
654.0,1.403
655.0,1.357
656.0,1.199
657.0,1.231
658.0,1.377
659.0,1.386
660.0,1.391
661.0,1.401
662.0,1.406
663.0,1.378
664.0,1.392
665.0,1.391
666.0,1.391
667.0,1.389
668.0,1.389
669.0,1.41
670.0,1.404
671.0,1.403
672.0,1.391
673.0,1.412
674.0,1.406
675.0,1.394
676.0,1.403
677.0,1.389
678.0,1.393
679.0,1.37
680.0,1.381
681.0,1.372
682.0,1.371
683.0,1.368
684.0,1.362
685.0,1.373
686.0,1.366
687.0,1.038
688.0,1.152
689.0,1.155
690.0,1.19
691.0,1.229
692.0,1.256
693.0,1.248
694.0,1.239
695.0,1.275
696.0,1.277
697.0,1.335
698.0,1.315
699.0,1.297
700.0,1.281
701.0,1.272
702.0,1.277
703.0,1.279
704.0,1.313
705.0,1.315
706.0,1.311
707.0,1.311
708.0,1.314
709.0,1.312
710.0,1.314
711.0,1.311
712.0,1.305
713.0,1.294
714.0,1.299
715.0,1.263
716.0,1.265
717.0,1.146
718.0,1.062
719.0,0.9793
720.0,1.029
721.0,1.105
722.0,1.23
723.0,1.163
724.0,1.068
725.0,1.058
726.0,1.103
727.0,1.108
728.0,1.058
729.0,1.08
730.0,1.141
731.0,1.098
732.0,1.156
733.0,1.206
734.0,1.23
735.0,1.207
736.0,1.205
737.0,1.211
738.0,1.219
739.0,1.195
740.0,1.223
741.0,1.209
742.0,1.208
743.0,1.238
744.0,1.234
745.0,1.233
746.0,1.239
747.0,1.241
748.0,1.239
749.0,1.225
750.0,1.224
751.0,1.212
752.0,1.217
753.0,1.223
754.0,1.226
755.0,1.22
756.0,1.219
757.0,1.221
758.0,1.206
759.0,1.188
760.0,0.3478
761.0,0.2229
762.0,0.746
763.0,0.4655
764.0,0.6154
765.0,0.7469
766.0,0.8489
767.0,1.007
768.0,1.112
769.0,1.125
770.0,1.151
771.0,1.155
772.0,1.156
773.0,1.164
774.0,1.158
775.0,1.149
776.0,1.163
777.0,1.148
778.0,1.141
779.0,1.142
780.0,1.136
781.0,1.137
782.0,1.144
783.0,1.124
784.0,1.129
785.0,1.122
786.0,1.134
787.0,1.12
788.0,1.108
789.0,1.109
790.0,1.087
791.0,1.089
792.0,1.08
793.0,1.064
794.0,1.074
795.0,1.095
796.0,1.071
797.0,1.073
798.0,1.095
799.0,1.09
800.0,1.073
801.0,1.072
802.0,1.069
803.0,1.062
804.0,1.063
805.0,1.057
806.0,1.082
807.0,1.07
808.0,1.07
809.0,1.054
810.0,1.048
811.0,1.054
812.0,1.031
813.0,1.015
814.0,0.9177
815.0,0.9115
816.0,0.8527
817.0,0.8649
818.0,0.8382
819.0,0.9149
820.0,0.8706
821.0,0.9877
822.0,0.9646
823.0,0.7051
824.0,0.9466
825.0,0.9727
826.0,0.9447
827.0,0.9874
828.0,0.8642
829.0,0.9374
830.0,0.9281
831.0,0.9303
832.0,0.9069
833.0,0.9505
834.0,0.9259
835.0,0.9982
836.0,0.9672
837.0,1.0
838.0,0.9743
839.0,0.9844
840.0,1.005
841.0,0.9927
842.0,0.9916
843.0,0.9876
844.0,0.9759
845.0,1.006
846.0,1.001
847.0,0.9818
848.0,0.9772
849.0,0.9496
850.0,0.9096
851.0,0.9648
852.0,0.9574
853.0,0.9203
854.0,0.7958
855.0,0.8728
856.0,0.9545
857.0,0.9748
858.0,0.9682
859.0,0.9684
860.0,0.9697
861.0,0.9647
862.0,0.9796
863.0,1.003
864.0,0.9527
865.0,0.9443
866.0,0.8491
867.0,0.8861
868.0,0.9643
869.0,0.9443
870.0,0.9712
871.0,0.9581
872.0,0.9547
873.0,0.9528
874.0,0.9415
875.0,0.9226
876.0,0.9323
877.0,0.9417
878.0,0.9522
879.0,0.9376
880.0,0.9175
881.0,0.9046
882.0,0.9244
883.0,0.9267
884.0,0.9228
885.0,0.9298
886.0,0.8888
887.0,0.8963
888.0,0.9109
889.0,0.9189
890.0,0.9141
891.0,0.9112
892.0,0.8884
893.0,0.8653
894.0,0.8434
895.0,0.8079
896.0,0.7668
897.0,0.6745
898.0,0.7267
899.0,0.5726
900.0,0.7348
901.0,0.599
902.0,0.6774
903.0,0.6921
904.0,0.8375
905.0,0.8138
906.0,0.7658
907.0,0.6453
908.0,0.6551
909.0,0.6982
910.0,0.6375
911.0,0.6678
912.0,0.6931
913.0,0.6479
914.0,0.6391
915.0,0.69
916.0,0.5913
917.0,0.7271
918.0,0.6066
919.0,0.7356
920.0,0.7337
921.0,0.76
922.0,0.6939
923.0,0.7337
924.0,0.7116
925.0,0.6969
926.0,0.7042
927.0,0.7746
928.0,0.6077
929.0,0.5654
930.0,0.4622
931.0,0.4347
932.0,0.331
933.0,0.2794
934.0,0.1753
935.0,0.2774
936.0,0.1868
937.0,0.1916
938.0,0.2299
939.0,0.4214
940.0,0.4946
941.0,0.3903
942.0,0.4406
943.0,0.3035
944.0,0.308
945.0,0.3997
946.0,0.2221
947.0,0.406
948.0,0.3018
949.0,0.5247
950.0,0.1761
951.0,0.5136
952.0,0.301
953.0,0.3724
954.0,0.4387
955.0,0.3746
956.0,0.3567
957.0,0.3041
958.0,0.479
959.0,0.3993
960.0,0.4467
961.0,0.4872
962.0,0.4632
963.0,0.5214
964.0,0.4821
965.0,0.5179
966.0,0.5212
967.0,0.52
968.0,0.6557
969.0,0.6872
970.0,0.6374
971.0,0.7116
972.0,0.6842
973.0,0.6138
974.0,0.5856
975.0,0.6005
976.0,0.5796
977.0,0.6411
978.0,0.6168
979.0,0.64
980.0,0.6059
981.0,0.7068
982.0,0.6823
983.0,0.659
984.0,0.7213
985.0,0.6795
986.0,0.7299
987.0,0.72
988.0,0.7188
989.0,0.7252
990.0,0.714
991.0,0.7279
992.0,0.7317
993.0,0.7197
994.0,0.731
995.0,0.7295
996.0,0.727
997.0,0.7277
998.0,0.7246
999.0,0.7218
1000.0,0.7178
1001.0,0.7256
1002.0,0.7099
1003.0,0.7131
1004.0,0.6968
1005.0,0.6697
1006.0,0.6967
1007.0,0.7111
1008.0,0.708
1009.0,0.7051
1010.0,0.7026
1011.0,0.7074
1012.0,0.7022
1013.0,0.7055
1014.0,0.7006
1015.0,0.6961
1016.0,0.6931
1017.0,0.6951
1018.0,0.692
1019.0,0.6788
1020.0,0.6886
1021.0,0.6874
1022.0,0.6827
1023.0,0.69
1024.0,0.6828
1025.0,0.689
1026.0,0.6865
1027.0,0.6849
1028.0,0.6836
1029.0,0.6757
1030.0,0.6798
1031.0,0.6773
1032.0,0.6752
1033.0,0.665
1034.0,0.665
1035.0,0.6671
1036.0,0.6708
1037.0,0.6598
1038.0,0.6628
1039.0,0.6626
1040.0,0.66
1041.0,0.6628
1042.0,0.6582
1043.0,0.6562
1044.0,0.6586
1045.0,0.6498
1046.0,0.6427
1047.0,0.6486
1048.0,0.6523
1049.0,0.6501
1050.0,0.6473
1051.0,0.6466
1052.0,0.6441
1053.0,0.6392
1054.0,0.6408
1055.0,0.6414
1056.0,0.6395
1057.0,0.6377
1058.0,0.6223
1059.0,0.6232
1060.0,0.6224
1061.0,0.6218
1062.0,0.6254
1063.0,0.6194
1064.0,0.6267
1065.0,0.6228
1066.0,0.61
1067.0,0.6181
1068.0,0.605
1069.0,0.586
1070.0,0.6064
1071.0,0.6144
1072.0,0.6084
1073.0,0.5994
1074.0,0.6133
1075.0,0.5872
1076.0,0.6131
1077.0,0.6048
1078.0,0.5943
1079.0,0.6026
1080.0,0.5956
1081.0,0.5786
1082.0,0.584
1083.0,0.5849
1084.0,0.5785
1085.0,0.5965
1086.0,0.5519
1087.0,0.5639
1088.0,0.5852
1089.0,0.5715
1090.0,0.5622
1091.0,0.5845
1092.0,0.582
1093.0,0.5073
1094.0,0.5342
1095.0,0.5262
1096.0,0.5081
1097.0,0.5684
1098.0,0.5015
1099.0,0.5209
1100.0,0.4908
1101.0,0.495
1102.0,0.4765
1103.0,0.4746
1104.0,0.4749
1105.0,0.5104
1106.0,0.4145
1107.0,0.4895
1108.0,0.4295
1109.0,0.4275
1110.0,0.4869
1111.0,0.3503
1112.0,0.4231
1113.0,0.2906
1114.0,0.3219
1115.0,0.2676
1116.0,0.2271
1117.0,0.09942
1118.0,0.2417
1119.0,0.1322
1120.0,0.1664
1121.0,0.2129
1122.0,0.1005
1123.0,0.1501
1124.0,0.1268
1125.0,0.1625
1126.0,0.06758
1127.0,0.1823
1128.0,0.1208
1129.0,0.1262
1130.0,0.0888
1131.0,0.3187
1132.0,0.2552
1133.0,0.1759
1134.0,0.05467
1135.0,0.02012
1136.0,0.1519
1137.0,0.3169
1138.0,0.2269
1139.0,0.3125
1140.0,0.271
1141.0,0.2156
1142.0,0.2423
1143.0,0.3333
1144.0,0.1303
1145.0,0.1692
1146.0,0.1827
1147.0,0.07601
1148.0,0.2888
1149.0,0.2388
1150.0,0.1398
1151.0,0.2254
1152.0,0.2678
1153.0,0.254
1154.0,0.1669
1155.0,0.3264
1156.0,0.2988
1157.0,0.3284
1158.0,0.3244
1159.0,0.3432
1160.0,0.3018
1161.0,0.3568
1162.0,0.3596
1163.0,0.4612
1164.0,0.4048
1165.0,0.39
1166.0,0.3819
1167.0,0.4113
1168.0,0.4174
1169.0,0.4241
1170.0,0.454
1171.0,0.4439
1172.0,0.448
1173.0,0.453
1174.0,0.3434
1175.0,0.4398
1176.0,0.4742
1177.0,0.4611
1178.0,0.3615
1179.0,0.4777
1180.0,0.4367
1181.0,0.4495
1182.0,0.3266
1183.0,0.4402
1184.0,0.418
1185.0,0.408
1186.0,0.4681
1187.0,0.4506
1188.0,0.3333
1189.0,0.4211
1190.0,0.4575
1191.0,0.4423
1192.0,0.463
1193.0,0.4466
1194.0,0.4583
1195.0,0.439
1196.0,0.4265
1197.0,0.4554
1198.0,0.4213
1199.0,0.3714
1200.0,0.4415
1201.0,0.4302
1202.0,0.4253
1203.0,0.4217
1204.0,0.3765
1205.0,0.4313
1206.0,0.4691
1207.0,0.4254
1208.0,0.4149
1209.0,0.4224
1210.0,0.4371
1211.0,0.4213
1212.0,0.4215
1213.0,0.4563
1214.0,0.4289
1215.0,0.4222
1216.0,0.4547
1217.0,0.4452
1218.0,0.4512
1219.0,0.4468
1220.0,0.4514
1221.0,0.4545
1222.0,0.4443
1223.0,0.4411
1224.0,0.4401
1225.0,0.4517
1226.0,0.4532
1227.0,0.4245
1228.0,0.4542
1229.0,0.4532
1230.0,0.4467
1231.0,0.4554
1232.0,0.4529
1233.0,0.4423
1234.0,0.454
1235.0,0.4519
1236.0,0.4546
1237.0,0.4502
1238.0,0.4531
1239.0,0.4473
1240.0,0.4488
1241.0,0.4479
1242.0,0.4458
1243.0,0.4421
1244.0,0.4457
1245.0,0.4473
1246.0,0.4447
1247.0,0.4433
1248.0,0.4436
1249.0,0.4444
1250.0,0.4421
1251.0,0.4372
1252.0,0.4363
1253.0,0.4346
1254.0,0.4315
1255.0,0.4364
1256.0,0.4273
1257.0,0.4256
1258.0,0.431
1259.0,0.4204
1260.0,0.4219
1261.0,0.4046
1262.0,0.3958
1263.0,0.3967
1264.0,0.374
1265.0,0.394
1266.0,0.3838
1267.0,0.3873
1268.0,0.3724
1269.0,0.2674
1270.0,0.3872
1271.0,0.4025
1272.0,0.403
1273.0,0.3995
1274.0,0.3999
1275.0,0.4044
1276.0,0.4071
1277.0,0.4085
1278.0,0.4137
1279.0,0.4102
1280.0,0.4048
1281.0,0.3852
1282.0,0.3692
1283.0,0.398
1284.0,0.4079
1285.0,0.4103
1286.0,0.4148
1287.0,0.4104
1288.0,0.4098
1289.0,0.4007
1290.0,0.4059
1291.0,0.4109
1292.0,0.3933
1293.0,0.4047
1294.0,0.4023
1295.0,0.4021
1296.0,0.3887
1297.0,0.3717
1298.0,0.3923
1299.0,0.4045
1300.0,0.3559
1301.0,0.364
1302.0,0.3908
1303.0,0.3498
1304.0,0.3111
1305.0,0.3839
1306.0,0.3846
1307.0,0.3134
1308.0,0.3483
1309.0,0.3825
1310.0,0.308
1311.0,0.3368
1312.0,0.3298
1313.0,0.3254
1314.0,0.2959
1315.0,0.2949
1316.0,0.3336
1317.0,0.3175
1318.0,0.3398
1319.0,0.2811
1320.0,0.269
1321.0,0.3079
1322.0,0.3131
1323.0,0.2486
1324.0,0.2756
1325.0,0.3295
1326.0,0.2911
1327.0,0.2797
1328.0,0.2454
1329.0,0.1954
1330.0,0.2484
1331.0,0.1641
1332.0,0.1645
1333.0,0.2249
1334.0,0.1853
1335.0,0.2474
1336.0,0.2025
1337.0,0.1836
1338.0,0.1979
1339.0,0.1953
1340.0,0.1865
1341.0,0.1899
1342.0,0.1989
1343.0,0.1524
1344.0,0.09116
1345.0,0.1288
1346.0,0.07679
1347.0,0.08016
1348.0,0.00836
1349.0,0.02594
1350.0,0.02433
1351.0,0.008968
1352.0,0.00364
1353.0,0.0003129
1354.0,0.0007917
1355.0,1.74e-05
1356.0,0.0001604
1357.0,0.0002393
1358.0,1.98e-05
1359.0,5.1e-06
1360.0,1.17e-05
1361.0,6.35e-08
1362.0,3.668e-10
1363.0,1.828e-05
1364.0,8.435e-06
1365.0,2.865e-10
1366.0,6.543e-05
1367.0,2.528e-05
1368.0,1.129e-11
1369.0,3.355e-06
1370.0,2.226e-06
1371.0,1.921e-07
1372.0,1.41e-05
1373.0,0.0001681
1374.0,0.0005531
1375.0,0.0009774
1376.0,0.0007017
1377.0,0.000351
1378.0,0.0028
1379.0,0.0001519
1380.0,0.0002629
1381.0,8.955e-06
1382.0,1.379e-05
1383.0,2.939e-07
1384.0,4.227e-06
1385.0,9.504e-06
1386.0,1.495e-05
1387.0,0.0006722
1388.0,1.508e-05
1389.0,0.001612
1390.0,0.001371
1391.0,0.001009
1392.0,7.8e-05
1393.0,0.0003368
1394.0,0.000289
1395.0,3.443e-06
1396.0,7.484e-08
1397.0,0.0001552
1398.0,0.00321
1399.0,0.002053
1400.0,4.776e-08
1401.0,1.159e-07
1402.0,0.003721
1403.0,0.005027
1404.0,0.001592
1405.0,2.176e-06
1406.0,0.004651
1407.0,0.0004018
1408.0,0.003745
1409.0,0.001612
1410.0,0.001151
1411.0,0.004368
1412.0,0.005235
1413.0,0.03625
1414.0,0.0008868
1415.0,0.0004842
1416.0,0.04923
1417.0,0.01897
1418.0,0.02155
1419.0,0.003584
1420.0,0.01339
1421.0,0.01496
1422.0,0.06286
1423.0,0.0134
1424.0,0.02412
1425.0,0.03658
1426.0,0.03822
1427.0,0.06239
1428.0,0.008105
1429.0,0.04996
1430.0,0.07713
1431.0,0.08271
1432.0,0.00652
1433.0,0.0556
1434.0,0.02982
1435.0,0.03493
1436.0,0.05899
1437.0,0.04541
1438.0,0.02157
1439.0,0.07646
1440.0,0.05792
1441.0,0.04797
1442.0,0.05209
1443.0,0.05964
1444.0,0.08047
1445.0,0.0674
1446.0,0.03173
1447.0,0.0501
1448.0,0.136
1449.0,0.1226
1450.0,0.03708
1451.0,0.0162
1452.0,0.07808
1453.0,0.09971
1454.0,0.1558
1455.0,0.07928
1456.0,0.1089
1457.0,0.1368
1458.0,0.1526
1459.0,0.1817
1460.0,0.09951
1461.0,0.1075
1462.0,0.1502
1463.0,0.05399
1464.0,0.1709
1465.0,0.1044
1466.0,0.0817
1467.0,0.0476
1468.0,0.09375
