interpolation:linear
wavelength,value
280.0,7.929e-28
280.5,4.6420000000000004e-26
281.0,3.1310000000000003e-25
281.5,1.745e-23
282.0,1.9779999999999999e-22
282.5,9.622e-22
283.0,5.512e-21
283.5,1.1840000000000002e-20
284.0,5.49e-19
284.5,2.475e-18
285.0,7.742e-18
285.5,8.36e-17
286.0,4.5e-16
286.5,3.423e-15
287.0,1.417e-14
287.5,8.526e-14
288.0,5.407e-13
288.5,2.574e-12
289.0,1.039e-11
289.5,4.739e-11
290.0,1.816e-10
290.5,4.824e-10
291.0,1.4e-09
291.5,5.765e-09
292.0,1.755e-08
292.5,2.927e-08
293.0,7.742e-08
293.5,2.469e-07
294.0,4.679e-07
294.5,9.041e-07
295.0,1.788e-06
295.5,4.997e-06
296.0,9.917e-06
296.5,1.418e-05
297.0,1.948e-05
297.5,5.279e-05
298.0,8.35e-05
298.5,8.402e-05
299.0,0.0001846
299.5,0.0002997
300.0,0.0003254
300.5,0.000463
301.0,0.0008035
301.5,0.001225
302.0,0.001026
302.5,0.002018
303.0,0.003633
303.5,0.004566
304.0,0.00425
304.5,0.006095
305.0,0.008685
305.5,0.00958
306.0,0.009181
306.5,0.01118
307.0,0.01563
307.5,0.0196
308.0,0.02064
308.5,0.02376
309.0,0.02135
309.5,0.02434
310.0,0.02445
310.5,0.03973
311.0,0.04983
311.5,0.04827
312.0,0.04754
312.5,0.05729
313.0,0.062
313.5,0.06119
314.0,0.07531
314.5,0.06504
315.0,0.08553
315.5,0.07328
316.0,0.0626
316.5,0.0881
317.0,0.1102
317.5,0.1163
318.0,0.0896
318.5,0.1078
319.0,0.1261
319.5,0.1068
320.0,0.1305
320.5,0.1578
321.0,0.136
321.5,0.1307
322.0,0.1461
322.5,0.1276
323.0,0.1244
323.5,0.1466
324.0,0.1713
324.5,0.177
325.0,0.1595
325.5,0.2016
326.0,0.241
326.5,0.2388
327.0,0.2408
327.5,0.2357
328.0,0.2155
328.5,0.2221
329.0,0.2617
329.5,0.2966
330.0,0.3025
330.5,0.2476
331.0,0.255
331.5,0.2574
332.0,0.2744
332.5,0.2705
333.0,0.2725
333.5,0.2514
334.0,0.2594
334.5,0.2962
335.0,0.2771
335.5,0.3158
336.0,0.2195
336.5,0.2674
337.0,0.2219
337.5,0.278
338.0,0.2693
338.5,0.3051
339.0,0.3051
339.5,0.2937
340.0,0.3541
340.5,0.3203
341.0,0.3084
341.5,0.2871
342.0,0.3453
342.5,0.3251
343.0,0.3575
343.5,0.3369
344.0,0.2531
344.5,0.2515
345.0,0.3381
345.5,0.3479
346.0,0.2976
346.5,0.3387
347.0,0.3639
347.5,0.295
348.0,0.3392
348.5,0.3411
349.0,0.3179
349.5,0.3158
350.0,0.3923
350.5,0.4154
351.0,0.3719
351.5,0.361
352.0,0.3906
352.5,0.3066
353.0,0.3881
353.5,0.4168
354.0,0.4345
354.5,0.4423
355.0,0.4422
355.5,0.401
356.0,0.4212
356.5,0.361
357.0,0.2993
357.5,0.3678
358.0,0.2925
358.5,0.2509
359.0,0.3521
359.5,0.4499
360.0,0.4787
360.5,0.384
361.0,0.3513
361.5,0.4058
362.0,0.352
362.5,0.4887
363.0,0.4403
363.5,0.4068
364.0,0.4991
364.5,0.428
365.0,0.4372
365.5,0.5504
366.0,0.585
366.5,0.5513
367.0,0.5385
367.5,0.5605
368.0,0.492
368.5,0.4979
369.0,0.5393
369.5,0.5765
370.0,0.6163
370.5,0.4797
371.0,0.5141
371.5,0.645
372.0,0.4293
372.5,0.5162
373.0,0.5265
373.5,0.3435
374.0,0.5005
374.5,0.4156
375.0,0.4051
375.5,0.6065
376.0,0.5041
376.5,0.5238
377.0,0.556
377.5,0.6522
378.0,0.7089
378.5,0.6719
379.0,0.5561
379.5,0.5094
380.0,0.531
380.5,0.6449
381.0,0.6479
381.5,0.5149
382.0,0.4584
382.5,0.3918
383.0,0.3636
383.5,0.3511
384.0,0.3882
384.5,0.5724
385.0,0.569
385.5,0.5311
386.0,0.456
386.5,0.6003
387.0,0.5001
387.5,0.563
388.0,0.521
388.5,0.5162
389.0,0.5586
389.5,0.6781
390.0,0.682
390.5,0.6291
391.0,0.7422
391.5,0.7587
392.0,0.6405
392.5,0.5747
393.0,0.3205
393.5,0.2334
394.0,0.476
394.5,0.6064
395.0,0.7415
395.5,0.7548
396.0,0.6558
396.5,0.3841
397.0,0.2889
397.5,0.5887
398.0,0.8262
398.5,0.8557
399.0,0.9282
399.5,0.927
400.0,0.9645
401.0,0.9942
402.0,1.053
403.0,1.004
404.0,0.9918
405.0,0.9951
406.0,0.9823
407.0,0.9698
408.0,1.011
409.0,1.086
410.0,0.9516
411.0,1.034
412.0,1.114
413.0,1.09
414.0,1.106
415.0,1.113
416.0,1.136
417.0,1.111
418.0,1.094
419.0,1.111
420.0,1.11
421.0,1.164
422.0,1.11
423.0,1.087
424.0,1.153
425.0,1.155
426.0,1.127
427.0,1.109
428.0,1.083
429.0,1.028
430.0,0.9021
431.0,0.8966
432.0,1.16
433.0,1.17
434.0,1.089
435.0,1.14
436.0,1.287
437.0,1.272
438.0,1.161
439.0,1.204
440.0,1.245
441.0,1.293
442.0,1.39
443.0,1.357
444.0,1.389
445.0,1.362
446.0,1.302
447.0,1.41
448.0,1.435
449.0,1.444
450.0,1.487
451.0,1.545
452.0,1.492
453.0,1.405
454.0,1.47
455.0,1.482
456.0,1.52
457.0,1.548
458.0,1.498
459.0,1.493
460.0,1.5
461.0,1.537
462.0,1.551
463.0,1.543
464.0,1.52
465.0,1.502
466.0,1.519
467.0,1.494
468.0,1.514
469.0,1.525
470.0,1.479
471.0,1.479
472.0,1.561
473.0,1.543
474.0,1.548
475.0,1.564
476.0,1.52
477.0,1.528
478.0,1.572
479.0,1.565
480.0,1.57
481.0,1.601
482.0,1.611
483.0,1.594
484.0,1.563
485.0,1.491
486.0,1.304
487.0,1.369
488.0,1.504
489.0,1.511
490.0,1.591
491.0,1.565
492.0,1.48
493.0,1.53
494.0,1.547
495.0,1.562
496.0,1.574
497.0,1.6
498.0,1.527
499.0,1.549
500.0,1.506
501.0,1.481
502.0,1.463
503.0,1.525
504.0,1.49
505.0,1.543
506.0,1.595
507.0,1.519
508.0,1.473
509.0,1.515
510.0,1.508
511.0,1.549
512.0,1.568
513.0,1.485
514.0,1.476
515.0,1.463
516.0,1.461
517.0,1.299
518.0,1.367
519.0,1.436
520.0,1.489
521.0,1.505
522.0,1.508
523.0,1.482
524.0,1.537
525.0,1.557
526.0,1.489
527.0,1.405
528.0,1.488
529.0,1.57
530.0,1.549
531.0,1.573
532.0,1.52
533.0,1.477
534.0,1.522
535.0,1.556
536.0,1.571
537.0,1.51
538.0,1.538
539.0,1.526
540.0,1.464
541.0,1.476
542.0,1.524
543.0,1.508
544.0,1.536
545.0,1.532
546.0,1.54
547.0,1.54
548.0,1.523
549.0,1.528
550.0,1.548
551.0,1.53
552.0,1.542
553.0,1.515
554.0,1.552
555.0,1.557
556.0,1.538
557.0,1.491
558.0,1.481
559.0,1.455
560.0,1.474
561.0,1.495
562.0,1.485
563.0,1.527
564.0,1.487
565.0,1.475
566.0,1.455
567.0,1.484
568.0,1.473
569.0,1.44
570.0,1.441
571.0,1.432
572.0,1.469
573.0,1.486
574.0,1.482
575.0,1.455
576.0,1.443
577.0,1.459
578.0,1.437
579.0,1.443
580.0,1.47
581.0,1.477
582.0,1.505
583.0,1.508
584.0,1.521
585.0,1.485
586.0,1.455
587.0,1.488
588.0,1.455
589.0,1.295
590.0,1.354
591.0,1.431
592.0,1.415
593.0,1.435
594.0,1.426
595.0,1.394
596.0,1.445
597.0,1.431
598.0,1.427
599.0,1.428
600.0,1.43
601.0,1.418
602.0,1.409
603.0,1.433
604.0,1.457
605.0,1.45
606.0,1.444
607.0,1.458
608.0,1.442
609.0,1.445
610.0,1.435
611.0,1.443
612.0,1.439
613.0,1.421
614.0,1.402
615.0,1.432
616.0,1.385
617.0,1.383
618.0,1.436
619.0,1.422
620.0,1.432
621.0,1.434
622.0,1.418
623.0,1.397
624.0,1.374
625.0,1.371
626.0,1.392
627.0,1.409
628.0,1.327
629.0,1.38
630.0,1.349
631.0,1.376
632.0,1.36
633.0,1.4
634.0,1.386
635.0,1.407
636.0,1.388
637.0,1.411
638.0,1.424
639.0,1.408
640.0,1.394
641.0,1.394
642.0,1.387
643.0,1.406
644.0,1.402
645.0,1.405
646.0,1.374
647.0,1.361
648.0,1.363
649.0,1.337
650.0,1.34
651.0,1.398
652.0,1.344
653.0,1.38
654.0,1.364
655.0,1.316
656.0,1.165
657.0,1.197
658.0,1.34
659.0,1.35
660.0,1.356
661.0,1.365
662.0,1.369
663.0,1.342
664.0,1.357
665.0,1.358
666.0,1.359
667.0,1.358
668.0,1.358
669.0,1.38
670.0,1.374
671.0,1.374
672.0,1.362
673.0,1.383
674.0,1.378
675.0,1.365
676.0,1.375
677.0,1.361
678.0,1.365
679.0,1.344
680.0,1.355
681.0,1.346
682.0,1.344
683.0,1.342
684.0,1.336
685.0,1.347
686.0,1.34
687.0,0.9352
688.0,1.074
689.0,1.078
690.0,1.124
691.0,1.175
692.0,1.211
693.0,1.202
694.0,1.192
695.0,1.237
696.0,1.239
697.0,1.308
698.0,1.288
699.0,1.262
700.0,1.247
701.0,1.236
702.0,1.243
703.0,1.245
704.0,1.283
705.0,1.285
706.0,1.283
707.0,1.284
708.0,1.287
709.0,1.287
710.0,1.288
711.0,1.286
712.0,1.282
713.0,1.27
714.0,1.275
715.0,1.237
716.0,1.238
717.0,1.091
718.0,1.005
719.0,0.9227
720.0,0.9677
721.0,1.058
722.0,1.199
723.0,1.123
724.0,1.018
725.0,1.005
726.0,1.05
727.0,1.062
728.0,1.003
729.0,1.035
730.0,1.095
731.0,1.05
732.0,1.117
733.0,1.176
734.0,1.203
735.0,1.179
736.0,1.178
737.0,1.183
738.0,1.197
739.0,1.174
740.0,1.203
741.0,1.191
742.0,1.191
743.0,1.222
744.0,1.218
745.0,1.218
746.0,1.224
747.0,1.227
748.0,1.224
749.0,1.21
750.0,1.21
751.0,1.198
752.0,1.203
753.0,1.209
754.0,1.212
755.0,1.206
756.0,1.205
757.0,1.207
758.0,1.192
759.0,1.171
760.0,0.2378
761.0,0.1337
762.0,0.644
763.0,0.3473
764.0,0.4997
765.0,0.6445
766.0,0.7703
767.0,0.9513
768.0,1.081
769.0,1.101
770.0,1.134
771.0,1.142
772.0,1.144
773.0,1.152
774.0,1.146
775.0,1.137
776.0,1.151
777.0,1.136
778.0,1.13
779.0,1.131
780.0,1.125
781.0,1.126
782.0,1.133
783.0,1.113
784.0,1.119
785.0,1.111
786.0,1.123
787.0,1.106
788.0,1.093
789.0,1.093
790.0,1.066
791.0,1.073
792.0,1.065
793.0,1.048
794.0,1.064
795.0,1.083
796.0,1.053
797.0,1.054
798.0,1.082
799.0,1.076
800.0,1.058
801.0,1.056
802.0,1.053
803.0,1.045
804.0,1.046
805.0,1.042
806.0,1.07
807.0,1.058
808.0,1.059
809.0,1.04
810.0,1.033
811.0,1.036
812.0,1.008
813.0,0.9891
814.0,0.8783
815.0,0.8727
816.0,0.8136
817.0,0.8276
818.0,0.7985
819.0,0.8858
820.0,0.8371
821.0,0.9689
822.0,0.9429
823.0,0.6566
824.0,0.9189
825.0,0.9529
826.0,0.9198
827.0,0.9676
828.0,0.8291
829.0,0.9139
830.0,0.9029
831.0,0.9059
832.0,0.8797
833.0,0.9316
834.0,0.9015
835.0,0.9844
836.0,0.9461
837.0,0.9871
838.0,0.9582
839.0,0.972
840.0,0.993
841.0,0.9797
842.0,0.9808
843.0,0.9793
844.0,0.9664
845.0,0.9982
846.0,0.9938
847.0,0.975
848.0,0.9696
849.0,0.9421
850.0,0.9026
851.0,0.9563
852.0,0.9494
853.0,0.9136
854.0,0.7892
855.0,0.8667
856.0,0.9474
857.0,0.9683
858.0,0.9614
859.0,0.9621
860.0,0.9637
861.0,0.9586
862.0,0.9737
863.0,0.9967
864.0,0.947
865.0,0.9387
866.0,0.8441
867.0,0.881
868.0,0.9587
869.0,0.9389
870.0,0.9657
871.0,0.9526
872.0,0.9493
873.0,0.9475
874.0,0.9363
875.0,0.9174
876.0,0.9271
877.0,0.9365
878.0,0.9468
879.0,0.9323
880.0,0.9124
881.0,0.899
882.0,0.9185
883.0,0.9213
884.0,0.9172
885.0,0.9242
886.0,0.8817
887.0,0.8905
888.0,0.904
889.0,0.9138
890.0,0.9069
891.0,0.9051
892.0,0.88
893.0,0.8537
894.0,0.8261
895.0,0.7836
896.0,0.7396
897.0,0.6394
898.0,0.6954
899.0,0.5339
900.0,0.7097
901.0,0.5594
902.0,0.6502
903.0,0.6587
904.0,0.8204
905.0,0.7936
906.0,0.7438
907.0,0.6103
908.0,0.6215
909.0,0.6705
910.0,0.598
911.0,0.6344
912.0,0.6621
913.0,0.6072
914.0,0.6012
915.0,0.6513
916.0,0.5528
917.0,0.6962
918.0,0.567
919.0,0.7076
920.0,0.7124
921.0,0.7404
922.0,0.6654
923.0,0.7151
924.0,0.6823
925.0,0.6676
926.0,0.6749
927.0,0.7523
928.0,0.5612
929.0,0.5147
930.0,0.4082
931.0,0.3863
932.0,0.2819
933.0,0.231
934.0,0.1306
935.0,0.2349
936.0,0.1491
937.0,0.1515
938.0,0.1853
939.0,0.3744
940.0,0.4479
941.0,0.3414
942.0,0.3933
943.0,0.2613
944.0,0.2729
945.0,0.3515
946.0,0.1824
947.0,0.354
948.0,0.2607
949.0,0.4705
950.0,0.1359
951.0,0.4628
952.0,0.2531
953.0,0.324
954.0,0.3941
955.0,0.3274
956.0,0.3162
957.0,0.2539
958.0,0.4436
959.0,0.3559
960.0,0.3988
961.0,0.445
962.0,0.4214
963.0,0.4834
964.0,0.4437
965.0,0.4815
966.0,0.4821
967.0,0.4803
968.0,0.6358
969.0,0.6648
970.0,0.6117
971.0,0.6966
972.0,0.6671
973.0,0.5844
974.0,0.5552
975.0,0.575
976.0,0.5479
977.0,0.6198
978.0,0.5904
979.0,0.6172
980.0,0.5811
981.0,0.6928
982.0,0.6637
983.0,0.638
984.0,0.7125
985.0,0.6613
986.0,0.7242
987.0,0.711
988.0,0.7097
989.0,0.7215
990.0,0.7055
991.0,0.7239
992.0,0.728
993.0,0.7127
994.0,0.7277
995.0,0.7267
996.0,0.7237
997.0,0.7247
998.0,0.7214
999.0,0.7187
1000.0,0.7139
1001.0,0.7226
1002.0,0.7036
1003.0,0.71
1004.0,0.6928
1005.0,0.6672
1006.0,0.6934
1007.0,0.7081
1008.0,0.7044
1009.0,0.7009
1010.0,0.698
1011.0,0.7046
1012.0,0.6987
1013.0,0.7029
1014.0,0.698
1015.0,0.6934
1016.0,0.6903
1017.0,0.6922
1018.0,0.6895
1019.0,0.6751
1020.0,0.6859
1021.0,0.685
1022.0,0.6798
1023.0,0.6871
1024.0,0.6785
1025.0,0.6865
1026.0,0.6837
1027.0,0.6821
1028.0,0.6807
1029.0,0.6728
1030.0,0.6773
1031.0,0.6746
1032.0,0.6727
1033.0,0.6626
1034.0,0.6626
1035.0,0.6647
1036.0,0.6682
1037.0,0.6574
1038.0,0.6603
1039.0,0.66
1040.0,0.6573
1041.0,0.66
1042.0,0.6554
1043.0,0.6534
1044.0,0.6557
1045.0,0.6469
1046.0,0.6398
1047.0,0.6456
1048.0,0.6491
1049.0,0.6469
1050.0,0.6439
1051.0,0.6431
1052.0,0.6405
1053.0,0.6355
1054.0,0.6369
1055.0,0.6373
1056.0,0.6352
1057.0,0.6333
1058.0,0.6178
1059.0,0.6185
1060.0,0.6176
1061.0,0.6169
1062.0,0.6202
1063.0,0.6142
1064.0,0.6214
1065.0,0.6171
1066.0,0.6048
1067.0,0.6127
1068.0,0.5994
1069.0,0.5809
1070.0,0.6007
1071.0,0.6098
1072.0,0.603
1073.0,0.5942
1074.0,0.6093
1075.0,0.5797
1076.0,0.6089
1077.0,0.5985
1078.0,0.5874
1079.0,0.5991
1080.0,0.5893
1081.0,0.5709
1082.0,0.5793
1083.0,0.5809
1084.0,0.5698
1085.0,0.5907
1086.0,0.5404
1087.0,0.5568
1088.0,0.5806
1089.0,0.5636
1090.0,0.5518
1091.0,0.5789
1092.0,0.5773
1093.0,0.4921
1094.0,0.5286
1095.0,0.5123
1096.0,0.4913
1097.0,0.564
1098.0,0.484
1099.0,0.5045
1100.0,0.4701
1101.0,0.4756
1102.0,0.455
1103.0,0.4511
1104.0,0.4516
1105.0,0.4932
1106.0,0.3816
1107.0,0.4693
1108.0,0.4005
1109.0,0.4007
1110.0,0.4656
1111.0,0.3193
1112.0,0.3974
1113.0,0.2566
1114.0,0.2864
1115.0,0.2376
1116.0,0.1918
1117.0,0.07268
1118.0,0.2079
1119.0,0.105
1120.0,0.1322
1121.0,0.1744
1122.0,0.0749
1123.0,0.1194
1124.0,0.1008
1125.0,0.1311
1126.0,0.04712
1127.0,0.1477
1128.0,0.09
1129.0,0.09527
1130.0,0.06333
1131.0,0.2763
1132.0,0.2175
1133.0,0.1399
1134.0,0.03695
1135.0,0.01379
1136.0,0.1174
1137.0,0.2721
1138.0,0.1922
1139.0,0.2826
1140.0,0.2376
1141.0,0.1826
1142.0,0.2093
1143.0,0.2954
1144.0,0.1052
1145.0,0.1349
1146.0,0.1455
1147.0,0.05273
1148.0,0.2558
1149.0,0.2055
1150.0,0.113
1151.0,0.1907
1152.0,0.2333
1153.0,0.2263
1154.0,0.131
1155.0,0.2949
1156.0,0.2664
1157.0,0.2976
1158.0,0.2944
1159.0,0.3164
1160.0,0.2717
1161.0,0.3321
1162.0,0.334
1163.0,0.4462
1164.0,0.3846
1165.0,0.3646
1166.0,0.3608
1167.0,0.392
1168.0,0.3967
1169.0,0.4055
1170.0,0.4392
1171.0,0.4284
1172.0,0.4353
1173.0,0.4382
1174.0,0.3174
1175.0,0.4274
1176.0,0.4675
1177.0,0.4503
1178.0,0.3417
1179.0,0.4713
1180.0,0.4232
1181.0,0.4365
1182.0,0.3051
1183.0,0.4293
1184.0,0.4036
1185.0,0.3906
1186.0,0.4592
1187.0,0.4386
1188.0,0.3107
1189.0,0.4089
1190.0,0.4488
1191.0,0.4283
1192.0,0.4548
1193.0,0.4366
1194.0,0.4495
1195.0,0.4267
1196.0,0.4119
1197.0,0.4489
1198.0,0.4119
1199.0,0.3539
1200.0,0.4313
1201.0,0.4172
1202.0,0.414
1203.0,0.4107
1204.0,0.3611
1205.0,0.4226
1206.0,0.4649
1207.0,0.4134
1208.0,0.4058
1209.0,0.4139
1210.0,0.4303
1211.0,0.4112
1212.0,0.4079
1213.0,0.4504
1214.0,0.4169
1215.0,0.4094
1216.0,0.4489
1217.0,0.4378
1218.0,0.4454
1219.0,0.4402
1220.0,0.4457
1221.0,0.4498
1222.0,0.4385
1223.0,0.4347
1224.0,0.4326
1225.0,0.447
1226.0,0.4495
1227.0,0.4166
1228.0,0.4514
1229.0,0.4496
1230.0,0.4423
1231.0,0.4536
1232.0,0.451
1233.0,0.4371
1234.0,0.4529
1235.0,0.4503
1236.0,0.4534
1237.0,0.4477
1238.0,0.4519
1239.0,0.4461
1240.0,0.4477
1241.0,0.446
1242.0,0.4447
1243.0,0.4411
1244.0,0.4444
1245.0,0.4462
1246.0,0.4436
1247.0,0.442
1248.0,0.4419
1249.0,0.4431
1250.0,0.4405
1251.0,0.4351
1252.0,0.4349
1253.0,0.4319
1254.0,0.428
1255.0,0.4346
1256.0,0.4234
1257.0,0.4213
1258.0,0.4284
1259.0,0.4144
1260.0,0.4164
1261.0,0.3949
1262.0,0.3841
1263.0,0.3849
1264.0,0.3576
1265.0,0.3824
1266.0,0.3693
1267.0,0.3748
1268.0,0.357
1269.0,0.2316
1270.0,0.3739
1271.0,0.3934
1272.0,0.3945
1273.0,0.3905
1274.0,0.3915
1275.0,0.3968
1276.0,0.4003
1277.0,0.4025
1278.0,0.4094
1279.0,0.4058
1280.0,0.4006
1281.0,0.3819
1282.0,0.3674
1283.0,0.3959
1284.0,0.4054
1285.0,0.408
1286.0,0.4132
1287.0,0.4075
1288.0,0.4072
1289.0,0.3955
1290.0,0.4035
1291.0,0.409
1292.0,0.3865
1293.0,0.4016
1294.0,0.3989
1295.0,0.3975
1296.0,0.3809
1297.0,0.3615
1298.0,0.3868
1299.0,0.4019
1300.0,0.344
1301.0,0.3538
1302.0,0.3855
1303.0,0.3391
1304.0,0.2928
1305.0,0.3779
1306.0,0.3782
1307.0,0.2978
1308.0,0.3391
1309.0,0.3756
1310.0,0.2924
1311.0,0.3259
1312.0,0.3176
1313.0,0.3121
1314.0,0.2806
1315.0,0.2777
1316.0,0.3213
1317.0,0.3048
1318.0,0.3298
1319.0,0.2619
1320.0,0.2529
1321.0,0.2932
1322.0,0.2967
1323.0,0.2265
1324.0,0.2569
1325.0,0.317
1326.0,0.2742
1327.0,0.262
1328.0,0.227
1329.0,0.1731
1330.0,0.224
1331.0,0.1383
1332.0,0.1418
1333.0,0.1966
1334.0,0.1651
1335.0,0.2257
1336.0,0.1801
1337.0,0.1601
1338.0,0.1732
1339.0,0.172
1340.0,0.1665
1341.0,0.1644
1342.0,0.1725
1343.0,0.1204
1344.0,0.07195
1345.0,0.1035
1346.0,0.05373
1347.0,0.05503
1348.0,0.003998
1349.0,0.0139
1350.0,0.01411
1351.0,0.003797
1352.0,0.001145
1353.0,6.61e-05
1354.0,0.0002105
1355.0,2.186e-06
1356.0,3.261e-05
1357.0,4.951e-05
1358.0,2.563e-06
1359.0,3.905e-07
1360.0,1.255e-06
1361.0,2.1e-09
1362.0,6.86e-12
1363.0,1.794e-06
1364.0,7.531e-07
1365.0,2.996e-12
1366.0,7.457e-06
1367.0,2.964e-06
1368.0,3.573e-14
1369.0,2.848e-07
1370.0,1.522e-07
1371.0,9.557e-09
1372.0,1.632e-06
1373.0,2.897e-05
1374.0,0.0001234
1375.0,0.0002249
1376.0,0.0001886
1377.0,8.817e-05
1378.0,0.0008291
1379.0,3.72e-05
1380.0,5.649e-05
1381.0,1.561e-06
1382.0,1.505e-06
1383.0,2.434e-08
1384.0,3.325e-07
1385.0,1.304e-06
1386.0,1.417e-06
1387.0,0.0001348
1388.0,2.683e-06
1389.0,0.0004163
1390.0,0.0003585
1391.0,0.0002439
1392.0,1.638e-05
1393.0,8.289e-05
1394.0,4.922e-05
1395.0,4.021e-07
1396.0,2.869e-09
1397.0,3.421e-05
1398.0,0.0009397
1399.0,0.0005953
1400.0,1.377e-09
1401.0,4.968e-09
1402.0,0.001478
1403.0,0.001897
1404.0,0.0005837
1405.0,2.097e-07
1406.0,0.001574
1407.0,0.000136
1408.0,0.00128
1409.0,0.0004577
1410.0,0.0003526
1411.0,0.001662
1412.0,0.002177
1413.0,0.0206
1414.0,0.0002762
1415.0,0.0001366
1416.0,0.03244
1417.0,0.01023
1418.0,0.01171
1419.0,0.001836
1420.0,0.007178
1421.0,0.00777
1422.0,0.04225
1423.0,0.008291
1424.0,0.01544
1425.0,0.02288
1426.0,0.02561
1427.0,0.04628
1428.0,0.003789
1429.0,0.03496
1430.0,0.05874
1431.0,0.06432
1432.0,0.002993
1433.0,0.04118
1434.0,0.02108
1435.0,0.02151
1436.0,0.04084
1437.0,0.03129
1438.0,0.0134
1439.0,0.05525
1440.0,0.0414
1441.0,0.03186
1442.0,0.0353
1443.0,0.04387
1444.0,0.06058
1445.0,0.04775
1446.0,0.02158
1447.0,0.03398
1448.0,0.1129
1449.0,0.09829
1450.0,0.02519
1451.0,0.01018
1452.0,0.05941
1453.0,0.07788
1454.0,0.1331
1455.0,0.06298
1456.0,0.08475
1457.0,0.1134
1458.0,0.1334
1459.0,0.1578
1460.0,0.0823
1461.0,0.08607
1462.0,0.126
1463.0,0.04085
1464.0,0.1492
