interpolation:linear
wavelength,value
280.0,9.95e-20
280.5,1.781e-18
281.0,7.786e-18
281.5,1.379e-16
282.0,7.783e-16
282.5,2.368e-15
283.0,8.093e-15
283.5,1.343e-14
284.0,1.884e-13
284.5,4.922e-13
285.0,8.539e-13
285.5,4.605e-12
286.0,1.871e-11
286.5,7.988e-11
287.0,2.161e-10
287.5,7.435e-10
288.0,2.332e-09
288.5,7.639e-09
289.0,2.097e-08
289.5,6.259e-08
290.0,1.695e-07
290.5,3.368e-07
291.0,6.888e-07
291.5,1.818e-06
292.0,3.852e-06
292.5,5.24e-06
293.0,1.067e-05
293.5,2.383e-05
294.0,3.549e-05
294.5,5.719e-05
295.0,9e-05
295.5,0.0001896
296.0,0.0003101
296.5,0.000369
297.0,0.0004382
297.5,0.0009688
298.0,0.0013
298.5,0.001158
299.0,0.002269
299.5,0.003069
300.0,0.003029
300.5,0.003925
301.0,0.00595
301.5,0.008129
302.0,0.00646
302.5,0.01156
303.0,0.01855
303.5,0.02183
304.0,0.01966
304.5,0.02613
305.0,0.03374
305.5,0.03505
306.0,0.03277
306.5,0.03845
307.0,0.04987
307.5,0.05848
308.0,0.06074
308.5,0.06768
309.0,0.05925
309.5,0.06304
310.0,0.0613
310.5,0.0979
311.0,0.1196
311.5,0.1143
312.0,0.1071
312.5,0.125
313.0,0.1328
313.5,0.1324
314.0,0.1571
314.5,0.1297
315.0,0.1687
315.5,0.1469
316.0,0.1211
316.5,0.1655
317.0,0.2064
317.5,0.2188
318.0,0.1651
318.5,0.1918
319.0,0.2204
319.5,0.1907
320.0,0.2331
320.5,0.2726
321.0,0.2284
321.5,0.2182
322.0,0.2499
322.5,0.2173
323.0,0.2075
323.5,0.2371
324.0,0.2752
324.5,0.2865
325.0,0.2623
325.5,0.3263
326.0,0.382
326.5,0.3732
327.0,0.3769
327.5,0.3698
328.0,0.3429
328.5,0.3455
329.0,0.4008
329.5,0.4517
330.0,0.4607
330.5,0.3797
331.0,0.3914
331.5,0.3911
332.0,0.4119
332.5,0.4035
333.0,0.4064
333.5,0.3766
334.0,0.3881
334.5,0.4386
335.0,0.4078
335.5,0.4628
336.0,0.3209
336.5,0.3915
337.0,0.3251
337.5,0.4068
338.0,0.3908
338.5,0.4408
339.0,0.4396
339.5,0.4222
340.0,0.5094
340.5,0.4595
341.0,0.4405
341.5,0.4086
342.0,0.4904
342.5,0.4605
343.0,0.5057
343.5,0.4759
344.0,0.3579
344.5,0.3541
345.0,0.4743
345.5,0.4867
346.0,0.4153
346.5,0.4717
347.0,0.5059
347.5,0.4094
348.0,0.4695
348.5,0.4712
349.0,0.4382
349.5,0.4345
350.0,0.5386
350.5,0.5692
351.0,0.5089
351.5,0.4934
352.0,0.5325
352.5,0.4172
353.0,0.5269
353.5,0.5649
354.0,0.5879
354.5,0.5976
355.0,0.5966
355.5,0.5399
356.0,0.5661
356.5,0.4844
357.0,0.4011
357.5,0.4922
358.0,0.3909
358.5,0.3347
359.0,0.4691
359.5,0.5987
360.0,0.6361
360.5,0.5095
361.0,0.4653
361.5,0.5363
362.0,0.4642
362.5,0.6432
363.0,0.5783
363.5,0.5334
364.0,0.6532
364.5,0.5593
365.0,0.5705
365.5,0.7172
366.0,0.7609
366.5,0.7158
367.0,0.6983
367.5,0.7259
368.0,0.6361
368.5,0.6428
369.0,0.6952
369.5,0.7421
370.0,0.7923
370.5,0.6158
371.0,0.6589
371.5,0.8257
372.0,0.5489
372.5,0.6592
373.0,0.6713
373.5,0.4373
374.0,0.6364
374.5,0.5277
375.0,0.5138
375.5,0.7683
376.0,0.6379
376.5,0.6621
377.0,0.7019
377.5,0.8222
378.0,0.8928
378.5,0.8453
379.0,0.6989
379.5,0.6396
380.0,0.6661
380.5,0.8077
381.0,0.8104
381.5,0.6431
382.0,0.5717
382.5,0.4879
383.0,0.4522
383.5,0.436
384.0,0.4816
384.5,0.7092
385.0,0.7042
385.5,0.6565
386.0,0.563
386.5,0.7403
387.0,0.616
387.5,0.6928
388.0,0.6405
388.5,0.6338
389.0,0.6851
389.5,0.8308
390.0,0.8347
390.5,0.7691
391.0,0.9064
391.5,0.9257
392.0,0.7807
392.5,0.6996
393.0,0.3897
393.5,0.2835
394.0,0.5776
394.5,0.7351
395.0,0.898
395.5,0.9135
396.0,0.7929
396.5,0.4639
397.0,0.3485
397.5,0.7095
398.0,0.995
398.5,1.03
399.0,1.115
399.5,1.113
400.0,1.157
401.0,1.191
402.0,1.258
403.0,1.197
404.0,1.181
405.0,1.183
406.0,1.166
407.0,1.148
408.0,1.196
409.0,1.282
410.0,1.122
411.0,1.217
412.0,1.308
413.0,1.279
414.0,1.296
415.0,1.301
416.0,1.325
417.0,1.295
418.0,1.273
419.0,1.292
420.0,1.288
421.0,1.35
422.0,1.285
423.0,1.257
424.0,1.332
425.0,1.331
426.0,1.297
427.0,1.275
428.0,1.244
429.0,1.179
430.0,1.033
431.0,1.025
432.0,1.325
433.0,1.334
434.0,1.241
435.0,1.298
436.0,1.463
437.0,1.444
438.0,1.316
439.0,1.364
440.0,1.409
441.0,1.461
442.0,1.568
443.0,1.531
444.0,1.565
445.0,1.534
446.0,1.464
447.0,1.583
448.0,1.611
449.0,1.618
450.0,1.664
451.0,1.728
452.0,1.666
453.0,1.569
454.0,1.638
455.0,1.65
456.0,1.691
457.0,1.721
458.0,1.665
459.0,1.658
460.0,1.665
461.0,1.704
462.0,1.718
463.0,1.709
464.0,1.68
465.0,1.659
466.0,1.676
467.0,1.648
468.0,1.669
469.0,1.68
470.0,1.628
471.0,1.627
472.0,1.716
473.0,1.696
474.0,1.702
475.0,1.719
476.0,1.672
477.0,1.679
478.0,1.727
479.0,1.717
480.0,1.72
481.0,1.752
482.0,1.761
483.0,1.74
484.0,1.705
485.0,1.625
486.0,1.42
487.0,1.489
488.0,1.635
489.0,1.642
490.0,1.728
491.0,1.699
492.0,1.605
493.0,1.659
494.0,1.677
495.0,1.692
496.0,1.704
497.0,1.732
498.0,1.652
499.0,1.675
500.0,1.628
501.0,1.601
502.0,1.582
503.0,1.65
504.0,1.616
505.0,1.669
506.0,1.725
507.0,1.642
508.0,1.59
509.0,1.634
510.0,1.625
511.0,1.668
512.0,1.687
513.0,1.597
514.0,1.587
515.0,1.572
516.0,1.569
517.0,1.395
518.0,1.468
519.0,1.541
520.0,1.598
521.0,1.614
522.0,1.617
523.0,1.589
524.0,1.648
525.0,1.67
526.0,1.597
527.0,1.507
528.0,1.596
529.0,1.684
530.0,1.661
531.0,1.687
532.0,1.631
533.0,1.584
534.0,1.631
535.0,1.666
536.0,1.682
537.0,1.616
538.0,1.645
539.0,1.632
540.0,1.566
541.0,1.579
542.0,1.63
543.0,1.612
544.0,1.643
545.0,1.638
546.0,1.647
547.0,1.646
548.0,1.627
549.0,1.632
550.0,1.652
551.0,1.632
552.0,1.644
553.0,1.616
554.0,1.655
555.0,1.66
556.0,1.639
557.0,1.59
558.0,1.58
559.0,1.552
560.0,1.573
561.0,1.595
562.0,1.585
563.0,1.631
564.0,1.588
565.0,1.576
566.0,1.554
567.0,1.586
568.0,1.576
569.0,1.546
570.0,1.545
571.0,1.535
572.0,1.577
573.0,1.595
574.0,1.592
575.0,1.564
576.0,1.55
577.0,1.567
578.0,1.542
579.0,1.546
580.0,1.571
581.0,1.576
582.0,1.603
583.0,1.605
584.0,1.618
585.0,1.578
586.0,1.546
587.0,1.582
588.0,1.553
589.0,1.394
590.0,1.457
591.0,1.532
592.0,1.519
593.0,1.534
594.0,1.528
595.0,1.496
596.0,1.542
597.0,1.529
598.0,1.521
599.0,1.521
600.0,1.52
601.0,1.505
602.0,1.495
603.0,1.519
604.0,1.544
605.0,1.536
606.0,1.529
607.0,1.543
608.0,1.525
609.0,1.527
610.0,1.515
611.0,1.522
612.0,1.518
613.0,1.498
614.0,1.477
615.0,1.509
616.0,1.458
617.0,1.455
618.0,1.511
619.0,1.496
620.0,1.506
621.0,1.509
622.0,1.493
623.0,1.471
624.0,1.446
625.0,1.443
626.0,1.465
627.0,1.484
628.0,1.424
629.0,1.463
630.0,1.431
631.0,1.451
632.0,1.432
633.0,1.471
634.0,1.453
635.0,1.474
636.0,1.452
637.0,1.475
638.0,1.487
639.0,1.469
640.0,1.453
641.0,1.452
642.0,1.444
643.0,1.464
644.0,1.458
645.0,1.461
646.0,1.432
647.0,1.425
648.0,1.428
649.0,1.402
650.0,1.396
651.0,1.454
652.0,1.408
653.0,1.435
654.0,1.418
655.0,1.373
656.0,1.212
657.0,1.244
658.0,1.391
659.0,1.399
660.0,1.404
661.0,1.414
662.0,1.42
663.0,1.391
664.0,1.404
665.0,1.403
666.0,1.403
667.0,1.401
668.0,1.4
669.0,1.421
670.0,1.415
671.0,1.414
672.0,1.402
673.0,1.423
674.0,1.417
675.0,1.404
676.0,1.413
677.0,1.399
678.0,1.403
679.0,1.38
680.0,1.391
681.0,1.382
682.0,1.38
683.0,1.378
684.0,1.371
685.0,1.383
686.0,1.375
687.0,1.078
688.0,1.182
689.0,1.184
690.0,1.215
691.0,1.25
692.0,1.273
693.0,1.266
694.0,1.257
695.0,1.289
696.0,1.292
697.0,1.345
698.0,1.325
699.0,1.31
700.0,1.294
701.0,1.286
702.0,1.289
703.0,1.292
704.0,1.324
705.0,1.326
706.0,1.321
707.0,1.321
708.0,1.324
709.0,1.32
710.0,1.323
711.0,1.32
712.0,1.313
713.0,1.303
714.0,1.307
715.0,1.272
716.0,1.275
717.0,1.167
718.0,1.085
719.0,1.002
720.0,1.053
721.0,1.123
722.0,1.241
723.0,1.179
724.0,1.088
725.0,1.08
726.0,1.124
727.0,1.127
728.0,1.079
729.0,1.097
730.0,1.159
731.0,1.117
732.0,1.171
733.0,1.217
734.0,1.24
735.0,1.218
736.0,1.216
737.0,1.222
738.0,1.227
739.0,1.203
740.0,1.23
741.0,1.215
742.0,1.214
743.0,1.244
744.0,1.239
745.0,1.239
746.0,1.244
747.0,1.247
748.0,1.244
749.0,1.23
750.0,1.23
751.0,1.217
752.0,1.222
753.0,1.228
754.0,1.231
755.0,1.225
756.0,1.224
757.0,1.226
758.0,1.211
759.0,1.195
760.0,0.3994
761.0,0.2685
762.0,0.787
763.0,0.5178
764.0,0.6638
765.0,0.7881
766.0,0.8794
767.0,1.027
768.0,1.123
769.0,1.134
770.0,1.157
771.0,1.16
772.0,1.161
773.0,1.168
774.0,1.162
775.0,1.153
776.0,1.167
777.0,1.152
778.0,1.145
779.0,1.146
780.0,1.14
781.0,1.141
782.0,1.148
783.0,1.128
784.0,1.133
785.0,1.126
786.0,1.139
787.0,1.125
788.0,1.114
789.0,1.115
790.0,1.095
791.0,1.095
792.0,1.086
793.0,1.07
794.0,1.078
795.0,1.099
796.0,1.078
797.0,1.08
798.0,1.099
799.0,1.095
800.0,1.079
801.0,1.078
802.0,1.075
803.0,1.068
804.0,1.069
805.0,1.062
806.0,1.086
807.0,1.074
808.0,1.075
809.0,1.059
810.0,1.054
811.0,1.061
812.0,1.04
813.0,1.024
814.0,0.9334
815.0,0.927
816.0,0.8687
817.0,0.88
818.0,0.8544
819.0,0.9263
820.0,0.8841
821.0,0.9948
822.0,0.973
823.0,0.7257
824.0,0.9573
825.0,0.9804
826.0,0.9546
827.0,0.995
828.0,0.8783
829.0,0.9467
830.0,0.9382
831.0,0.94
832.0,0.9177
833.0,0.9576
834.0,0.9353
835.0,1.003
836.0,0.9752
837.0,1.005
838.0,0.9802
839.0,0.9889
840.0,1.009
841.0,0.9975
842.0,0.9955
843.0,0.9907
844.0,0.9794
845.0,1.009
846.0,1.004
847.0,0.9842
848.0,0.9801
849.0,0.9524
850.0,0.9122
851.0,0.9679
852.0,0.9603
853.0,0.9228
854.0,0.7982
855.0,0.875
856.0,0.9571
857.0,0.9772
858.0,0.9706
859.0,0.9707
860.0,0.9719
861.0,0.9669
862.0,0.9818
863.0,1.005
864.0,0.9548
865.0,0.9463
866.0,0.851
867.0,0.888
868.0,0.9663
869.0,0.9463
870.0,0.9732
871.0,0.9601
872.0,0.9566
873.0,0.9548
874.0,0.9434
875.0,0.9245
876.0,0.9342
877.0,0.9436
878.0,0.9542
879.0,0.9395
880.0,0.9194
881.0,0.9066
882.0,0.9266
883.0,0.9287
884.0,0.9248
885.0,0.9318
886.0,0.8914
887.0,0.8984
888.0,0.9135
889.0,0.9208
890.0,0.9167
891.0,0.9134
892.0,0.8914
893.0,0.8697
894.0,0.85
895.0,0.8173
896.0,0.7778
897.0,0.689
898.0,0.7393
899.0,0.5892
900.0,0.7449
901.0,0.6155
902.0,0.6883
903.0,0.7056
904.0,0.8441
905.0,0.8217
906.0,0.7746
907.0,0.6598
908.0,0.6691
909.0,0.7094
910.0,0.6539
911.0,0.6817
912.0,0.7056
913.0,0.6648
914.0,0.6548
915.0,0.7053
916.0,0.6076
917.0,0.7392
918.0,0.6231
919.0,0.7467
920.0,0.7424
921.0,0.7676
922.0,0.7053
923.0,0.7408
924.0,0.723
925.0,0.7085
926.0,0.7155
927.0,0.7829
928.0,0.6266
929.0,0.5862
930.0,0.4852
931.0,0.4551
932.0,0.3521
933.0,0.3009
934.0,0.1962
935.0,0.2958
936.0,0.204
937.0,0.2101
938.0,0.2501
939.0,0.4412
940.0,0.5139
941.0,0.4112
942.0,0.4602
943.0,0.3217
944.0,0.3231
945.0,0.4203
946.0,0.2399
947.0,0.4283
948.0,0.3201
949.0,0.5469
950.0,0.1953
951.0,0.5344
952.0,0.3224
953.0,0.3933
954.0,0.4574
955.0,0.3949
956.0,0.3751
957.0,0.3265
958.0,0.4938
959.0,0.4181
960.0,0.467
961.0,0.505
962.0,0.481
963.0,0.5373
964.0,0.4985
965.0,0.5329
966.0,0.5375
967.0,0.5365
968.0,0.6638
969.0,0.6958
970.0,0.6478
971.0,0.7173
972.0,0.6908
973.0,0.6256
974.0,0.5981
975.0,0.6109
976.0,0.5924
977.0,0.6498
978.0,0.6275
979.0,0.649
980.0,0.616
981.0,0.7122
982.0,0.6894
983.0,0.6673
984.0,0.7247
985.0,0.6865
986.0,0.732
987.0,0.7232
988.0,0.7221
989.0,0.7265
990.0,0.717
991.0,0.7294
992.0,0.733
993.0,0.7223
994.0,0.7322
995.0,0.7305
996.0,0.7282
997.0,0.7288
998.0,0.7258
999.0,0.7229
1000.0,0.7192
1001.0,0.7267
1002.0,0.7123
1003.0,0.7142
1004.0,0.6982
1005.0,0.6707
1006.0,0.6979
1007.0,0.7122
1008.0,0.7094
1009.0,0.7067
1010.0,0.7043
1011.0,0.7085
1012.0,0.7035
1013.0,0.7065
1014.0,0.7016
1015.0,0.6971
1016.0,0.6941
1017.0,0.6961
1018.0,0.6929
1019.0,0.6802
1020.0,0.6896
1021.0,0.6883
1022.0,0.6837
1023.0,0.6911
1024.0,0.6844
1025.0,0.69
1026.0,0.6876
1027.0,0.6859
1028.0,0.6847
1029.0,0.6768
1030.0,0.6807
1031.0,0.6783
1032.0,0.6761
1033.0,0.6659
1034.0,0.6659
1035.0,0.668
1036.0,0.6717
1037.0,0.6607
1038.0,0.6638
1039.0,0.6635
1040.0,0.6609
1041.0,0.6638
1042.0,0.6592
1043.0,0.6572
1044.0,0.6596
1045.0,0.6508
1046.0,0.6438
1047.0,0.6497
1048.0,0.6535
1049.0,0.6513
1050.0,0.6485
1051.0,0.6478
1052.0,0.6454
1053.0,0.6405
1054.0,0.6422
1055.0,0.6429
1056.0,0.641
1057.0,0.6393
1058.0,0.6239
1059.0,0.6249
1060.0,0.6242
1061.0,0.6236
1062.0,0.6273
1063.0,0.6213
1064.0,0.6286
1065.0,0.6249
1066.0,0.6119
1067.0,0.6201
1068.0,0.6071
1069.0,0.5879
1070.0,0.6085
1071.0,0.616
1072.0,0.6104
1073.0,0.6013
1074.0,0.6147
1075.0,0.59
1076.0,0.6146
1077.0,0.6071
1078.0,0.5968
1079.0,0.6039
1080.0,0.5979
1081.0,0.5814
1082.0,0.5857
1083.0,0.5863
1084.0,0.5819
1085.0,0.5986
1086.0,0.5565
1087.0,0.5666
1088.0,0.5869
1089.0,0.5745
1090.0,0.5663
1091.0,0.5866
1092.0,0.5838
1093.0,0.5133
1094.0,0.5364
1095.0,0.5316
1096.0,0.5147
1097.0,0.57
1098.0,0.5083
1099.0,0.5273
1100.0,0.499
1101.0,0.5026
1102.0,0.4849
1103.0,0.484
1104.0,0.4842
1105.0,0.5171
1106.0,0.4278
1107.0,0.4974
1108.0,0.4413
1109.0,0.4385
1110.0,0.4952
1111.0,0.3633
1112.0,0.4336
1113.0,0.3054
1114.0,0.337
1115.0,0.2804
1116.0,0.2428
1117.0,0.1123
1118.0,0.2562
1119.0,0.1447
1120.0,0.1817
1121.0,0.2295
1122.0,0.1122
1123.0,0.1638
1124.0,0.1385
1125.0,0.1765
1126.0,0.07736
1127.0,0.1976
1128.0,0.1351
1129.0,0.1403
1130.0,0.1012
1131.0,0.3362
1132.0,0.2712
1133.0,0.1919
1134.0,0.06359
1135.0,0.02339
1136.0,0.1673
1137.0,0.3352
1138.0,0.2417
1139.0,0.3246
1140.0,0.285
1141.0,0.2297
1142.0,0.2562
1143.0,0.3488
1144.0,0.1417
1145.0,0.1843
1146.0,0.199
1147.0,0.08719
1148.0,0.3023
1149.0,0.253
1150.0,0.1523
1151.0,0.2402
1152.0,0.2822
1153.0,0.2653
1154.0,0.1834
1155.0,0.3391
1156.0,0.3121
1157.0,0.3412
1158.0,0.3368
1159.0,0.354
1160.0,0.3146
1161.0,0.367
1162.0,0.3702
1163.0,0.4669
1164.0,0.4129
1165.0,0.4002
1166.0,0.3906
1167.0,0.419
1168.0,0.4256
1169.0,0.4313
1170.0,0.4596
1171.0,0.45
1172.0,0.4531
1173.0,0.4587
1174.0,0.3544
1175.0,0.4446
1176.0,0.4769
1177.0,0.4653
1178.0,0.3699
1179.0,0.4801
1180.0,0.4421
1181.0,0.4545
1182.0,0.3358
1183.0,0.4444
1184.0,0.4238
1185.0,0.415
1186.0,0.4715
1187.0,0.4553
1188.0,0.3427
1189.0,0.4259
1190.0,0.4609
1191.0,0.4477
1192.0,0.4661
1193.0,0.4506
1194.0,0.4617
1195.0,0.4438
1196.0,0.4322
1197.0,0.4578
1198.0,0.4251
1199.0,0.3785
1200.0,0.4455
1201.0,0.4353
1202.0,0.4299
1203.0,0.426
1204.0,0.3828
1205.0,0.4349
1206.0,0.4706
1207.0,0.4302
1208.0,0.4185
1209.0,0.4258
1210.0,0.4398
1211.0,0.4254
1212.0,0.4268
1213.0,0.4585
1214.0,0.4335
1215.0,0.4271
1216.0,0.4569
1217.0,0.448
1218.0,0.4535
1219.0,0.4493
1220.0,0.4535
1221.0,0.4563
1222.0,0.4465
1223.0,0.4436
1224.0,0.443
1225.0,0.4534
1226.0,0.4546
1227.0,0.4275
1228.0,0.4552
1229.0,0.4545
1230.0,0.4484
1231.0,0.4561
1232.0,0.4536
1233.0,0.4442
1234.0,0.4544
1235.0,0.4524
1236.0,0.455
1237.0,0.4511
1238.0,0.4535
1239.0,0.4477
1240.0,0.4491
1241.0,0.4485
1242.0,0.4462
1243.0,0.4425
1244.0,0.4461
1245.0,0.4477
1246.0,0.4451
1247.0,0.4438
1248.0,0.4443
1249.0,0.4449
1250.0,0.4427
1251.0,0.438
1252.0,0.4369
1253.0,0.4355
1254.0,0.4328
1255.0,0.437
1256.0,0.4287
1257.0,0.4272
1258.0,0.432
1259.0,0.4225
1260.0,0.424
1261.0,0.4081
1262.0,0.4001
1263.0,0.4011
1264.0,0.3802
1265.0,0.3984
1266.0,0.3892
1267.0,0.392
1268.0,0.3782
1269.0,0.2818
1270.0,0.3921
1271.0,0.4058
1272.0,0.4062
1273.0,0.4028
1274.0,0.4029
1275.0,0.4073
1276.0,0.4097
1277.0,0.4107
1278.0,0.4152
1279.0,0.4118
1280.0,0.4064
1281.0,0.3863
1282.0,0.3698
1283.0,0.3988
1284.0,0.4089
1285.0,0.4112
1286.0,0.4154
1287.0,0.4115
1288.0,0.4108
1289.0,0.4026
1290.0,0.4068
1291.0,0.4116
1292.0,0.3959
1293.0,0.4059
1294.0,0.4036
1295.0,0.4037
1296.0,0.3916
1297.0,0.3756
1298.0,0.3944
1299.0,0.4055
1300.0,0.3606
1301.0,0.368
1302.0,0.3927
1303.0,0.354
1304.0,0.3186
1305.0,0.3862
1306.0,0.387
1307.0,0.3199
1308.0,0.3521
1309.0,0.3851
1310.0,0.3144
1311.0,0.3413
1312.0,0.3347
1313.0,0.3307
1314.0,0.3022
1315.0,0.3019
1316.0,0.3385
1317.0,0.3226
1318.0,0.3437
1319.0,0.289
1320.0,0.2756
1321.0,0.3139
1322.0,0.3197
1323.0,0.2578
1324.0,0.2834
1325.0,0.3344
1326.0,0.298
1327.0,0.287
1328.0,0.2531
1329.0,0.2048
1330.0,0.2585
1331.0,0.1754
1332.0,0.1744
1333.0,0.2367
1334.0,0.1942
1335.0,0.2563
1336.0,0.2119
1337.0,0.1939
1338.0,0.2083
1339.0,0.2052
1340.0,0.1951
1341.0,0.2007
1342.0,0.2102
1343.0,0.1665
1344.0,0.1002
1345.0,0.1399
1346.0,0.08778
1347.0,0.09213
1348.0,0.01112
1349.0,0.03281
1350.0,0.02978
1351.0,0.01241
1352.0,0.00557
1353.0,0.0005651
1354.0,0.001311
1355.0,3.85e-05
1356.0,0.0002955
1357.0,0.0004363
1358.0,4.332e-05
1359.0,1.347e-05
1360.0,2.741e-05
1361.0,2.322e-07
1362.0,1.707e-09
1363.0,4.306e-05
1364.0,2.105e-05
1365.0,1.625e-09
1366.0,0.0001455
1367.0,5.697e-05
1368.0,9.832e-11
1369.0,8.598e-06
1370.0,6.158e-06
1371.0,6.06e-07
1372.0,3.212e-05
1373.0,0.0003267
1374.0,0.0009742
1375.0,0.001677
1376.0,0.001159
1377.0,0.0005973
1378.0,0.004399
1379.0,0.0002626
1380.0,0.0004727
1381.0,1.78e-05
1382.0,3.204e-05
1383.0,7.764e-07
1384.0,1.108e-05
1385.0,2.052e-05
1386.0,3.633e-05
1387.0,0.001213
1388.0,2.965e-05
1389.0,0.002672
1390.0,0.00225
1391.0,0.001719
1392.0,0.0001429
1393.0,0.0005772
1394.0,0.0005599
1395.0,7.918e-06
1396.0,2.6e-07
1397.0,0.0002781
1398.0,0.005033
1399.0,0.003253
1400.0,1.831e-07
1401.0,3.86e-07
1402.0,0.005305
1403.0,0.007262
1404.0,0.002331
1405.0,5.364e-06
1406.0,0.006925
1407.0,0.0006159
1408.0,0.005574
1409.0,0.002559
1410.0,0.001811
1411.0,0.006303
1412.0,0.00732
1413.0,0.04457
1414.0,0.00139
1415.0,0.0007894
1416.0,0.05771
1417.0,0.02414
1418.0,0.02703
1419.0,0.004625
1420.0,0.01692
1421.0,0.01934
1422.0,0.07282
1423.0,0.01623
1424.0,0.02873
1425.0,0.04375
1426.0,0.04465
1427.0,0.06987
1428.0,0.01085
1429.0,0.05719
1430.0,0.08557
1431.0,0.09099
1432.0,0.0088
1433.0,0.06248
1434.0,0.03419
1435.0,0.04202
1436.0,0.06788
1437.0,0.05253
1438.0,0.02598
1439.0,0.08639
1440.0,0.06591
1441.0,0.05606
1442.0,0.06013
1443.0,0.0668
1444.0,0.0897
1445.0,0.07665
1446.0,0.03658
1447.0,0.05813
1448.0,0.1458
1449.0,0.1335
1450.0,0.04311
1451.0,0.01946
1452.0,0.08666
1453.0,0.1094
1454.0,0.1655
1455.0,0.08657
1456.0,0.1199
1457.0,0.1468
1458.0,0.1606
1459.0,0.1916
1460.0,0.1072
1461.0,0.1169
1462.0,0.1606
1463.0,0.06032
1464.0,0.18
1465.0,0.1106
1466.0,0.09053
1467.0,0.05485
1468.0,0.1029
1469.0,0.1221
1470.0,0.07171
