interpolation:linear
wavelength,value
280.0,1.14e-22
280.5,3.137e-21
281.0,1.605e-20
281.5,4.311e-19
282.0,3.134e-18
282.5,1.131e-17
283.0,4.663e-17
283.5,8.499e-17
284.0,1.84e-15
284.5,5.861e-15
285.0,1.26e-14
285.5,8.741e-14
286.0,3.934e-13
286.5,2.071e-12
287.0,6.54e-12
287.5,2.756e-11
288.0,1.117e-10
288.5,4.189e-10
289.0,1.323e-09
289.5,4.605e-09
290.0,1.415e-08
290.5,3.124e-08
291.0,7.254e-08
291.5,2.251e-07
292.0,5.439e-07
292.5,7.967e-07
293.0,1.784e-06
293.5,4.534e-06
294.0,7.371e-06
294.5,1.269e-05
295.0,2.169e-05
295.5,5.064e-05
296.0,8.885e-05
296.5,0.000113
297.0,0.0001415
297.5,0.0003369
298.0,0.0004799
298.5,0.0004467
299.0,0.0009126
299.5,0.001319
300.0,0.001348
300.5,0.001807
301.0,0.002877
301.5,0.00409
302.0,0.003313
302.5,0.006134
303.0,0.01026
303.5,0.01237
304.0,0.01128
304.5,0.01541
305.0,0.02062
305.5,0.02189
306.0,0.02065
306.5,0.02456
307.0,0.03273
307.5,0.03933
308.0,0.04105
308.5,0.04629
309.0,0.04091
309.5,0.04463
310.0,0.04392
310.5,0.07058
311.0,0.08705
311.5,0.08362
312.0,0.07979
312.5,0.09418
313.0,0.1007
313.5,0.1001
314.0,0.1203
314.5,0.101
315.0,0.1319
315.5,0.1142
316.0,0.09533
316.5,0.1317
317.0,0.1644
317.5,0.174
318.0,0.1323
318.5,0.1556
319.0,0.18
319.5,0.1546
320.0,0.1889
320.5,0.2236
321.0,0.1893
321.5,0.1812
322.0,0.2057
322.5,0.1791
323.0,0.1724
323.5,0.1992
324.0,0.2318
324.5,0.2406
325.0,0.219
325.5,0.274
326.0,0.3233
326.5,0.3174
327.0,0.3204
327.5,0.3141
328.0,0.2897
328.5,0.2943
329.0,0.3434
329.5,0.3878
330.0,0.3956
330.5,0.3251
331.0,0.3351
331.5,0.336
332.0,0.3555
332.5,0.349
333.0,0.3516
333.5,0.3253
334.0,0.3354
334.5,0.3804
335.0,0.3545
335.5,0.4029
336.0,0.2796
336.5,0.3409
337.0,0.2831
337.5,0.3544
338.0,0.3414
338.5,0.3858
339.0,0.3851
339.5,0.3702
340.0,0.4465
340.5,0.4031
341.0,0.3871
341.5,0.3595
342.0,0.4318
342.5,0.4059
343.0,0.446
343.5,0.4198
344.0,0.3156
344.5,0.3128
345.0,0.4195
345.5,0.4309
346.0,0.368
346.5,0.4183
347.0,0.449
347.5,0.3636
348.0,0.4173
348.5,0.4191
349.0,0.3901
349.5,0.3871
350.0,0.4801
350.5,0.5078
351.0,0.4542
351.5,0.4406
352.0,0.4759
352.5,0.3731
353.0,0.4716
353.5,0.5059
354.0,0.5269
354.5,0.5358
355.0,0.5352
355.5,0.4847
356.0,0.5085
356.5,0.4354
357.0,0.3607
357.5,0.4429
358.0,0.3519
358.5,0.3015
359.0,0.4228
359.5,0.5398
360.0,0.5738
360.5,0.4599
361.0,0.4202
361.5,0.4847
362.0,0.4199
362.5,0.5822
363.0,0.5239
363.5,0.4835
364.0,0.5925
364.5,0.5075
365.0,0.518
365.5,0.6516
366.0,0.6917
366.5,0.6512
367.0,0.6355
367.5,0.6609
368.0,0.5796
368.5,0.5859
369.0,0.6341
369.5,0.6772
370.0,0.7234
370.5,0.5625
371.0,0.6022
371.5,0.755
372.0,0.5021
372.5,0.6033
373.0,0.6147
373.5,0.4007
374.0,0.5833
374.5,0.4839
375.0,0.4714
375.5,0.7052
376.0,0.5857
376.5,0.6082
377.0,0.6451
377.5,0.756
378.0,0.8212
378.5,0.7778
379.0,0.6433
379.5,0.5889
380.0,0.6136
380.5,0.7444
381.0,0.7472
381.5,0.5933
382.0,0.5277
382.5,0.4506
383.0,0.4178
383.5,0.4031
384.0,0.4454
384.5,0.6562
385.0,0.6518
385.5,0.608
386.0,0.5215
386.5,0.6861
387.0,0.5712
387.5,0.6426
388.0,0.5943
388.5,0.5884
389.0,0.6362
389.5,0.7718
390.0,0.7758
390.5,0.7151
391.0,0.843
391.5,0.8613
392.0,0.7266
392.5,0.6515
393.0,0.363
393.5,0.2642
394.0,0.5385
394.5,0.6856
395.0,0.8378
395.5,0.8524
396.0,0.7401
396.5,0.4332
397.0,0.3256
397.5,0.6631
398.0,0.9302
398.5,0.9628
399.0,1.044
399.5,1.042
400.0,1.083
401.0,1.115
402.0,1.179
403.0,1.123
404.0,1.109
405.0,1.111
406.0,1.095
407.0,1.08
408.0,1.125
409.0,1.207
410.0,1.057
411.0,1.147
412.0,1.234
413.0,1.207
414.0,1.224
415.0,1.229
416.0,1.253
417.0,1.225
418.0,1.205
419.0,1.223
420.0,1.221
421.0,1.279
422.0,1.218
423.0,1.193
424.0,1.264
425.0,1.264
426.0,1.233
427.0,1.212
428.0,1.183
429.0,1.122
430.0,0.9832
431.0,0.9768
432.0,1.263
433.0,1.272
434.0,1.183
435.0,1.238
436.0,1.397
437.0,1.379
438.0,1.257
439.0,1.304
440.0,1.347
441.0,1.397
442.0,1.501
443.0,1.465
444.0,1.499
445.0,1.469
446.0,1.403
447.0,1.518
448.0,1.545
449.0,1.552
450.0,1.598
451.0,1.659
452.0,1.601
453.0,1.507
454.0,1.575
455.0,1.587
456.0,1.627
457.0,1.656
458.0,1.603
459.0,1.596
460.0,1.603
461.0,1.642
462.0,1.656
463.0,1.647
464.0,1.62
465.0,1.6
466.0,1.617
467.0,1.59
468.0,1.611
469.0,1.622
470.0,1.572
471.0,1.572
472.0,1.658
473.0,1.639
474.0,1.644
475.0,1.661
476.0,1.615
477.0,1.623
478.0,1.669
479.0,1.66
480.0,1.664
481.0,1.696
482.0,1.705
483.0,1.685
484.0,1.652
485.0,1.575
486.0,1.377
487.0,1.444
488.0,1.586
489.0,1.593
490.0,1.677
491.0,1.649
492.0,1.559
493.0,1.611
494.0,1.629
495.0,1.644
496.0,1.656
497.0,1.683
498.0,1.606
499.0,1.628
500.0,1.583
501.0,1.556
502.0,1.537
503.0,1.603
504.0,1.569
505.0,1.622
506.0,1.676
507.0,1.596
508.0,1.546
509.0,1.59
510.0,1.582
511.0,1.624
512.0,1.643
513.0,1.556
514.0,1.546
515.0,1.532
516.0,1.529
517.0,1.36
518.0,1.431
519.0,1.502
520.0,1.558
521.0,1.574
522.0,1.577
523.0,1.55
524.0,1.607
525.0,1.628
526.0,1.557
527.0,1.469
528.0,1.556
529.0,1.642
530.0,1.62
531.0,1.645
532.0,1.59
533.0,1.544
534.0,1.59
535.0,1.625
536.0,1.641
537.0,1.577
538.0,1.605
539.0,1.593
540.0,1.528
541.0,1.541
542.0,1.591
543.0,1.574
544.0,1.603
545.0,1.599
546.0,1.608
547.0,1.607
548.0,1.588
549.0,1.593
550.0,1.613
551.0,1.594
552.0,1.606
553.0,1.579
554.0,1.617
555.0,1.622
556.0,1.602
557.0,1.553
558.0,1.543
559.0,1.516
560.0,1.536
561.0,1.558
562.0,1.548
563.0,1.592
564.0,1.551
565.0,1.539
566.0,1.518
567.0,1.548
568.0,1.538
569.0,1.507
570.0,1.506
571.0,1.497
572.0,1.537
573.0,1.555
574.0,1.551
575.0,1.524
576.0,1.51
577.0,1.527
578.0,1.503
579.0,1.508
580.0,1.533
581.0,1.539
582.0,1.567
583.0,1.569
584.0,1.582
585.0,1.543
586.0,1.512
587.0,1.548
588.0,1.517
589.0,1.357
590.0,1.419
591.0,1.494
592.0,1.481
593.0,1.497
594.0,1.49
595.0,1.458
596.0,1.506
597.0,1.492
598.0,1.486
599.0,1.487
600.0,1.487
601.0,1.473
602.0,1.463
603.0,1.487
604.0,1.512
605.0,1.504
606.0,1.497
607.0,1.511
608.0,1.494
609.0,1.497
610.0,1.485
611.0,1.493
612.0,1.488
613.0,1.47
614.0,1.449
615.0,1.48
616.0,1.432
617.0,1.429
618.0,1.484
619.0,1.469
620.0,1.478
621.0,1.481
622.0,1.465
623.0,1.444
624.0,1.419
625.0,1.416
626.0,1.438
627.0,1.456
628.0,1.388
629.0,1.432
630.0,1.4
631.0,1.423
632.0,1.405
633.0,1.444
634.0,1.428
635.0,1.449
636.0,1.429
637.0,1.451
638.0,1.464
639.0,1.447
640.0,1.432
641.0,1.43
642.0,1.423
643.0,1.442
644.0,1.437
645.0,1.44
646.0,1.411
647.0,1.401
648.0,1.404
649.0,1.378
650.0,1.375
651.0,1.433
652.0,1.384
653.0,1.415
654.0,1.398
655.0,1.352
656.0,1.195
657.0,1.227
658.0,1.372
659.0,1.381
660.0,1.386
661.0,1.396
662.0,1.401
663.0,1.373
664.0,1.387
665.0,1.387
666.0,1.387
667.0,1.385
668.0,1.385
669.0,1.406
670.0,1.4
671.0,1.399
672.0,1.387
673.0,1.408
674.0,1.403
675.0,1.39
676.0,1.399
677.0,1.385
678.0,1.389
679.0,1.367
680.0,1.378
681.0,1.369
682.0,1.367
683.0,1.365
684.0,1.358
685.0,1.37
686.0,1.362
687.0,1.024
688.0,1.142
689.0,1.144
690.0,1.181
691.0,1.222
692.0,1.25
693.0,1.242
694.0,1.233
695.0,1.27
696.0,1.272
697.0,1.331
698.0,1.311
699.0,1.292
700.0,1.277
701.0,1.268
702.0,1.272
703.0,1.275
704.0,1.309
705.0,1.311
706.0,1.307
707.0,1.307
708.0,1.311
709.0,1.308
710.0,1.311
711.0,1.308
712.0,1.302
713.0,1.291
714.0,1.295
715.0,1.259
716.0,1.261
717.0,1.138
718.0,1.054
719.0,0.9713
720.0,1.02
721.0,1.098
722.0,1.226
723.0,1.158
724.0,1.061
725.0,1.051
726.0,1.096
727.0,1.102
728.0,1.05
729.0,1.074
730.0,1.135
731.0,1.092
732.0,1.151
733.0,1.202
734.0,1.226
735.0,1.204
736.0,1.202
737.0,1.207
738.0,1.216
739.0,1.192
740.0,1.22
741.0,1.206
742.0,1.206
743.0,1.236
744.0,1.232
745.0,1.231
746.0,1.237
747.0,1.24
748.0,1.237
749.0,1.223
750.0,1.222
751.0,1.21
752.0,1.215
753.0,1.221
754.0,1.224
755.0,1.218
756.0,1.217
757.0,1.219
758.0,1.204
759.0,1.186
760.0,0.331
761.0,0.2085
762.0,0.7318
763.0,0.448
764.0,0.5989
765.0,0.7326
766.0,0.8382
767.0,0.9991
768.0,1.108
769.0,1.122
770.0,1.149
771.0,1.153
772.0,1.154
773.0,1.162
774.0,1.156
775.0,1.147
776.0,1.161
777.0,1.146
778.0,1.139
779.0,1.141
780.0,1.134
781.0,1.135
782.0,1.143
783.0,1.123
784.0,1.128
785.0,1.12
786.0,1.133
787.0,1.118
788.0,1.106
789.0,1.107
790.0,1.084
791.0,1.087
792.0,1.078
793.0,1.062
794.0,1.073
795.0,1.093
796.0,1.069
797.0,1.07
798.0,1.093
799.0,1.088
800.0,1.071
801.0,1.07
802.0,1.067
803.0,1.06
804.0,1.06
805.0,1.055
806.0,1.08
807.0,1.068
808.0,1.069
809.0,1.052
810.0,1.046
811.0,1.052
812.0,1.028
813.0,1.011
814.0,0.9123
815.0,0.9061
816.0,0.8472
817.0,0.8597
818.0,0.8327
819.0,0.9109
820.0,0.8659
821.0,0.9852
822.0,0.9616
823.0,0.6982
824.0,0.9428
825.0,0.97
826.0,0.9413
827.0,0.9847
828.0,0.8593
829.0,0.9341
830.0,0.9246
831.0,0.927
832.0,0.9031
833.0,0.9479
834.0,0.9226
835.0,0.9964
836.0,0.9644
837.0,0.9986
838.0,0.9722
839.0,0.9827
840.0,1.003
841.0,0.991
842.0,0.9901
843.0,0.9865
844.0,0.9746
845.0,1.005
846.0,1.0
847.0,0.9809
848.0,0.9762
849.0,0.9486
850.0,0.9087
851.0,0.9637
852.0,0.9563
853.0,0.9194
854.0,0.7949
855.0,0.872
856.0,0.9536
857.0,0.974
858.0,0.9673
859.0,0.9676
860.0,0.969
861.0,0.9639
862.0,0.9789
863.0,1.002
864.0,0.9519
865.0,0.9436
866.0,0.8485
867.0,0.8855
868.0,0.9636
869.0,0.9436
870.0,0.9705
871.0,0.9574
872.0,0.954
873.0,0.9521
874.0,0.9408
875.0,0.9219
876.0,0.9316
877.0,0.941
878.0,0.9515
879.0,0.9369
880.0,0.9169
881.0,0.9038
882.0,0.9237
883.0,0.926
884.0,0.922
885.0,0.9291
886.0,0.8879
887.0,0.8955
888.0,0.91
889.0,0.9183
890.0,0.9131
891.0,0.9104
892.0,0.8873
893.0,0.8638
894.0,0.8411
895.0,0.8046
896.0,0.763
897.0,0.6695
898.0,0.7223
899.0,0.5671
900.0,0.7313
901.0,0.5934
902.0,0.6736
903.0,0.6874
904.0,0.8352
905.0,0.811
906.0,0.7628
907.0,0.6404
908.0,0.6504
909.0,0.6944
910.0,0.6319
911.0,0.663
912.0,0.6887
913.0,0.6422
914.0,0.6337
915.0,0.6846
916.0,0.5858
917.0,0.7229
918.0,0.601
919.0,0.7318
920.0,0.7307
921.0,0.7574
922.0,0.6899
923.0,0.7311
924.0,0.7076
925.0,0.6928
926.0,0.7002
927.0,0.7716
928.0,0.6011
929.0,0.5583
930.0,0.4544
931.0,0.4278
932.0,0.3239
933.0,0.2723
934.0,0.1685
935.0,0.2712
936.0,0.1812
937.0,0.1855
938.0,0.2232
939.0,0.4147
940.0,0.488
941.0,0.3833
942.0,0.4339
943.0,0.2974
944.0,0.3029
945.0,0.3927
946.0,0.2162
947.0,0.3985
948.0,0.2958
949.0,0.5171
950.0,0.1699
951.0,0.5064
952.0,0.2939
953.0,0.3653
954.0,0.4324
955.0,0.3677
956.0,0.3506
957.0,0.2966
958.0,0.474
959.0,0.393
960.0,0.4398
961.0,0.4812
962.0,0.4572
963.0,0.516
964.0,0.4766
965.0,0.5127
966.0,0.5156
967.0,0.5144
968.0,0.6529
969.0,0.6842
970.0,0.6338
971.0,0.7096
972.0,0.6818
973.0,0.6097
974.0,0.5813
975.0,0.5969
976.0,0.5752
977.0,0.6381
978.0,0.6131
979.0,0.6368
980.0,0.6024
981.0,0.705
982.0,0.6798
983.0,0.6561
984.0,0.7202
985.0,0.6771
986.0,0.7291
987.0,0.7188
988.0,0.7176
989.0,0.7247
990.0,0.7129
991.0,0.7274
992.0,0.7312
993.0,0.7188
994.0,0.7306
995.0,0.7291
996.0,0.7266
997.0,0.7273
998.0,0.7242
999.0,0.7214
1000.0,0.7173
1001.0,0.7252
1002.0,0.7091
1003.0,0.7127
1004.0,0.6963
1005.0,0.6694
1006.0,0.6963
1007.0,0.7107
1008.0,0.7076
1009.0,0.7046
1010.0,0.702
1011.0,0.7071
1012.0,0.7017
1013.0,0.7052
1014.0,0.7003
1015.0,0.6958
1016.0,0.6928
1017.0,0.6947
1018.0,0.6916
1019.0,0.6783
1020.0,0.6882
1021.0,0.6871
1022.0,0.6823
1023.0,0.6896
1024.0,0.6822
1025.0,0.6887
1026.0,0.6862
1027.0,0.6845
1028.0,0.6832
1029.0,0.6753
1030.0,0.6794
1031.0,0.6769
1032.0,0.6748
1033.0,0.6647
1034.0,0.6647
1035.0,0.6668
1036.0,0.6705
1037.0,0.6595
1038.0,0.6625
1039.0,0.6622
1040.0,0.6596
1041.0,0.6624
1042.0,0.6578
1043.0,0.6558
1044.0,0.6582
1045.0,0.6494
1046.0,0.6423
1047.0,0.6482
1048.0,0.6519
1049.0,0.6497
1050.0,0.6469
1051.0,0.6461
1052.0,0.6436
1053.0,0.6387
1054.0,0.6403
1055.0,0.6409
1056.0,0.6389
1057.0,0.6371
1058.0,0.6217
1059.0,0.6226
1060.0,0.6218
1061.0,0.6212
1062.0,0.6247
1063.0,0.6187
1064.0,0.626
1065.0,0.622
1066.0,0.6093
1067.0,0.6174
1068.0,0.6043
1069.0,0.5854
1070.0,0.6057
1071.0,0.6138
1072.0,0.6077
1073.0,0.5987
1074.0,0.6128
1075.0,0.5862
1076.0,0.6125
1077.0,0.6039
1078.0,0.5934
1079.0,0.6021
1080.0,0.5947
1081.0,0.5775
1082.0,0.5834
1083.0,0.5843
1084.0,0.5774
1085.0,0.5957
1086.0,0.5503
1087.0,0.563
1088.0,0.5846
1089.0,0.5705
1090.0,0.5608
1091.0,0.5838
1092.0,0.5814
1093.0,0.5052
1094.0,0.5335
1095.0,0.5244
1096.0,0.5058
1097.0,0.5678
1098.0,0.4991
1099.0,0.5187
1100.0,0.4879
1101.0,0.4923
1102.0,0.4735
1103.0,0.4714
1104.0,0.4717
1105.0,0.5081
1106.0,0.4099
1107.0,0.4867
1108.0,0.4255
1109.0,0.4238
1110.0,0.484
1111.0,0.3459
1112.0,0.4195
1113.0,0.2857
1114.0,0.3168
1115.0,0.2633
1116.0,0.2219
1117.0,0.09526
1118.0,0.2368
1119.0,0.1281
1120.0,0.1614
1121.0,0.2073
1122.0,0.0966
1123.0,0.1455
1124.0,0.123
1125.0,0.1579
1126.0,0.06441
1127.0,0.1772
1128.0,0.1161
1129.0,0.1215
1130.0,0.0848
1131.0,0.3127
1132.0,0.2498
1133.0,0.1706
1134.0,0.05185
1135.0,0.0191
1136.0,0.1468
1137.0,0.3106
1138.0,0.2219
1139.0,0.3083
1140.0,0.2662
1141.0,0.2108
1142.0,0.2376
1143.0,0.328
1144.0,0.1265
1145.0,0.1642
1146.0,0.1772
1147.0,0.07239
1148.0,0.2841
1149.0,0.234
1150.0,0.1357
1151.0,0.2204
1152.0,0.2629
1153.0,0.2501
1154.0,0.1615
1155.0,0.322
1156.0,0.2943
1157.0,0.324
1158.0,0.3202
1159.0,0.3395
1160.0,0.2974
1161.0,0.3533
1162.0,0.356
1163.0,0.4592
1164.0,0.4019
1165.0,0.3864
1166.0,0.3789
1167.0,0.4086
1168.0,0.4145
1169.0,0.4215
1170.0,0.4519
1171.0,0.4418
1172.0,0.4462
1173.0,0.451
1174.0,0.3397
1175.0,0.4381
1176.0,0.4733
1177.0,0.4596
1178.0,0.3587
1179.0,0.4768
1180.0,0.4348
1181.0,0.4477
1182.0,0.3235
1183.0,0.4388
1184.0,0.416
1185.0,0.4056
1186.0,0.4669
1187.0,0.449
1188.0,0.3301
1189.0,0.4194
1190.0,0.4563
1191.0,0.4404
1192.0,0.4619
1193.0,0.4453
1194.0,0.4571
1195.0,0.4373
1196.0,0.4245
1197.0,0.4545
1198.0,0.42
1199.0,0.3689
1200.0,0.4401
1201.0,0.4284
1202.0,0.4237
1203.0,0.4203
1204.0,0.3743
1205.0,0.4301
1206.0,0.4685
1207.0,0.4237
1208.0,0.4136
1209.0,0.4212
1210.0,0.4362
1211.0,0.4199
1212.0,0.4197
1213.0,0.4556
1214.0,0.4273
1215.0,0.4204
1216.0,0.4539
1217.0,0.4442
1218.0,0.4505
1219.0,0.4459
1220.0,0.4506
1221.0,0.4539
1222.0,0.4435
1223.0,0.4403
1224.0,0.4391
1225.0,0.4511
1226.0,0.4527
1227.0,0.4234
1228.0,0.4538
1229.0,0.4527
1230.0,0.4461
1231.0,0.4552
1232.0,0.4526
1233.0,0.4416
1234.0,0.4539
1235.0,0.4517
1236.0,0.4544
1237.0,0.4499
1238.0,0.4529
1239.0,0.4471
1240.0,0.4486
1241.0,0.4476
1242.0,0.4457
1243.0,0.442
1244.0,0.4455
1245.0,0.4472
1246.0,0.4445
1247.0,0.4431
1248.0,0.4434
1249.0,0.4443
1250.0,0.4419
1251.0,0.4369
1252.0,0.4362
1253.0,0.4342
1254.0,0.4311
1255.0,0.4361
1256.0,0.4268
1257.0,0.425
1258.0,0.4307
1259.0,0.4196
1260.0,0.4212
1261.0,0.4033
1262.0,0.3942
1263.0,0.3951
1264.0,0.3718
1265.0,0.3925
1266.0,0.3819
1267.0,0.3857
1268.0,0.3704
1269.0,0.2625
1270.0,0.3854
1271.0,0.4013
1272.0,0.4019
1273.0,0.3983
1274.0,0.3987
1275.0,0.4034
1276.0,0.4062
1277.0,0.4077
1278.0,0.4131
1279.0,0.4096
1280.0,0.4043
1281.0,0.3847
1282.0,0.369
1283.0,0.3977
1284.0,0.4076
1285.0,0.41
1286.0,0.4146
1287.0,0.41
1288.0,0.4094
1289.0,0.4
1290.0,0.4056
1291.0,0.4106
1292.0,0.3924
1293.0,0.4043
1294.0,0.4018
1295.0,0.4015
1296.0,0.3877
1297.0,0.3703
1298.0,0.3916
1299.0,0.4042
1300.0,0.3543
1301.0,0.3626
1302.0,0.3901
1303.0,0.3483
1304.0,0.3086
1305.0,0.3831
1306.0,0.3837
1307.0,0.3112
1308.0,0.347
1309.0,0.3816
1310.0,0.3058
1311.0,0.3353
1312.0,0.3281
1313.0,0.3235
1314.0,0.2938
1315.0,0.2925
1316.0,0.3319
1317.0,0.3157
1318.0,0.3384
1319.0,0.2784
1320.0,0.2667
1321.0,0.3059
1322.0,0.3108
1323.0,0.2455
1324.0,0.2729
1325.0,0.3278
1326.0,0.2887
1327.0,0.2772
1328.0,0.2428
1329.0,0.1922
1330.0,0.245
1331.0,0.1603
1332.0,0.1612
1333.0,0.2209
1334.0,0.1824
1335.0,0.2444
1336.0,0.1993
1337.0,0.1802
1338.0,0.1943
1339.0,0.1919
1340.0,0.1836
1341.0,0.1862
1342.0,0.1951
1343.0,0.1477
1344.0,0.08824
1345.0,0.1251
1346.0,0.07322
1347.0,0.07628
1348.0,0.007564
1349.0,0.02386
1350.0,0.02263
1351.0,0.007994
1352.0,0.003126
1353.0,0.0002539
1354.0,0.0006624
1355.0,1.315e-05
1356.0,0.0001294
1357.0,0.0001936
1358.0,1.503e-05
1359.0,3.616e-06
1360.0,8.667e-06
1361.0,4.016e-08
1362.0,2.137e-10
1363.0,1.345e-05
1364.0,6.101e-06
1365.0,1.552e-10
1366.0,4.915e-05
1367.0,1.896e-05
1368.0,5.238e-12
1369.0,2.407e-06
1370.0,1.553e-06
1371.0,1.281e-07
1372.0,1.054e-05
1373.0,0.0001328
1374.0,0.0004525
1375.0,0.0008055
1376.0,0.0005878
1377.0,0.0002911
1378.0,0.002383
1379.0,0.0001254
1380.0,0.0002137
1381.0,7.048e-06
1382.0,1.024e-05
1383.0,2.092e-07
1384.0,3.006e-06
1385.0,7.256e-06
1386.0,1.091e-05
1387.0,0.0005441
1388.0,1.191e-05
1389.0,0.001347
1390.0,0.001149
1391.0,0.0008353
1392.0,6.308e-05
1393.0,0.0002786
1394.0,0.0002284
1395.0,2.571e-06
1396.0,4.823e-08
1397.0,0.0001265
1398.0,0.002732
1399.0,0.001743
1400.0,2.969e-08
1401.0,7.581e-08
1402.0,0.003285
1403.0,0.004412
1404.0,0.001392
1405.0,1.584e-06
1406.0,0.004034
1407.0,0.0003463
1408.0,0.003249
1409.0,0.001366
1410.0,0.0009814
1411.0,0.003837
1412.0,0.004651
1413.0,0.03366
1414.0,0.0007572
1415.0,0.0004078
1416.0,0.04655
1417.0,0.01743
1418.0,0.01988
1419.0,0.003276
1420.0,0.01233
1421.0,0.01368
1422.0,0.05964
1423.0,0.01254
1424.0,0.0227
1425.0,0.03434
1426.0,0.0362
1427.0,0.05995
1428.0,0.007314
1429.0,0.04763
1430.0,0.07436
1431.0,0.07997
1432.0,0.005867
1433.0,0.05337
1434.0,0.02843
1435.0,0.03273
1436.0,0.05614
1437.0,0.04315
1438.0,0.02021
1439.0,0.07322
1440.0,0.05535
1441.0,0.0454
1442.0,0.04948
1443.0,0.05727
1444.0,0.07745
1445.0,0.06438
1446.0,0.03016
1447.0,0.04755
1448.0,0.1326
1449.0,0.119
1450.0,0.03517
1451.0,0.0152
1452.0,0.07527
1453.0,0.09648
1454.0,0.1526
1455.0,0.07686
1456.0,0.1053
1457.0,0.1334
1458.0,0.1499
1459.0,0.1783
1460.0,0.09696
1461.0,0.1044
1462.0,0.1467
1463.0,0.05196
1464.0,0.1678
1465.0,0.1023
1466.0,0.07879
1467.0,0.04528
