interpolation:linear
wavelength,value
280.0,1.3670000000000001e-28
280.5,8.948999999999999e-27
281.0,6.287e-26
281.5,3.905e-24
282.0,4.725e-23
282.5,2.4029999999999997e-22
283.0,1.445e-21
283.5,3.18e-21
284.0,1.651e-19
284.5,7.834e-19
285.0,2.591e-18
285.5,2.987e-17
286.0,1.651e-16
286.5,1.326e-15
287.0,5.716e-15
287.5,3.624e-14
288.0,2.456e-13
288.5,1.211e-12
289.0,5.069e-12
289.5,2.407e-11
290.0,9.528e-11
290.5,2.601e-10
291.0,7.802e-10
291.5,3.351e-09
292.0,1.055e-08
292.5,1.794e-08
293.0,4.865e-08
293.5,1.605e-07
294.0,3.111e-07
294.5,6.115e-07
295.0,1.236e-06
295.5,3.546e-06
296.0,7.167e-06
296.5,1.042e-05
297.0,1.452e-05
297.5,4.012e-05
298.0,6.445e-05
298.5,6.56e-05
299.0,0.0001457
299.5,0.0002406
300.0,0.0002636
300.5,0.0003785
301.0,0.0006652
301.5,0.001025
302.0,0.0008629
302.5,0.001712
303.0,0.003115
303.5,0.003939
304.0,0.003678
304.5,0.005312
305.0,0.007641
305.5,0.008476
306.0,0.008142
306.5,0.009951
307.0,0.014
307.5,0.01767
308.0,0.01864
308.5,0.02153
309.0,0.01939
309.5,0.02225
310.0,0.02242
310.5,0.03649
311.0,0.04587
311.5,0.04449
312.0,0.04403
312.5,0.05322
313.0,0.05769
313.5,0.05688
314.0,0.07026
314.5,0.06093
315.0,0.08021
315.5,0.06861
316.0,0.05882
316.5,0.083
317.0,0.1038
317.5,0.1095
318.0,0.08457
318.5,0.102
319.0,0.1196
319.5,0.1011
320.0,0.1235
320.5,0.1498
321.0,0.1295
321.5,0.1245
322.0,0.1389
322.5,0.1213
323.0,0.1185
323.5,0.1401
324.0,0.1638
324.5,0.1692
325.0,0.1521
325.5,0.1926
326.0,0.2308
326.5,0.2289
327.0,0.2309
327.5,0.2259
328.0,0.2062
328.5,0.213
329.0,0.2513
329.5,0.2851
330.0,0.2907
330.5,0.2377
331.0,0.2448
331.5,0.2474
332.0,0.2641
332.5,0.2604
333.0,0.2624
333.5,0.2419
334.0,0.2497
334.5,0.2854
335.0,0.2672
335.5,0.3046
336.0,0.2118
336.5,0.2579
337.0,0.2141
337.5,0.2682
338.0,0.2599
338.5,0.2946
339.0,0.2948
339.5,0.2838
340.0,0.3422
340.5,0.3095
341.0,0.2982
341.5,0.2777
342.0,0.3341
342.5,0.3146
343.0,0.346
343.5,0.326
344.0,0.2449
344.5,0.2435
345.0,0.3275
345.5,0.337
346.0,0.2883
346.5,0.3283
347.0,0.3527
347.5,0.286
348.0,0.3289
348.5,0.3308
349.0,0.3084
349.5,0.3065
350.0,0.3807
350.5,0.4032
351.0,0.3611
351.5,0.3505
352.0,0.3793
352.5,0.2978
353.0,0.377
353.5,0.405
354.0,0.4222
354.5,0.4299
355.0,0.4299
355.5,0.3899
356.0,0.4096
356.5,0.3511
357.0,0.2911
357.5,0.3578
358.0,0.2846
358.5,0.2441
359.0,0.3427
359.5,0.4379
360.0,0.466
360.5,0.3739
361.0,0.3421
361.5,0.3953
362.0,0.3429
362.5,0.4762
363.0,0.4291
363.5,0.3966
364.0,0.4866
364.5,0.4173
365.0,0.4263
365.5,0.5368
366.0,0.5706
366.5,0.5378
367.0,0.5254
367.5,0.547
368.0,0.4802
368.5,0.486
369.0,0.5265
369.5,0.5629
370.0,0.6019
370.5,0.4685
371.0,0.5021
371.5,0.6301
372.0,0.4194
372.5,0.5044
373.0,0.5146
373.5,0.3357
374.0,0.4892
374.5,0.4063
375.0,0.3961
375.5,0.5931
376.0,0.493
376.5,0.5123
377.0,0.5439
377.5,0.6381
378.0,0.6936
378.5,0.6575
379.0,0.5442
379.5,0.4985
380.0,0.5198
380.5,0.6313
381.0,0.6343
381.5,0.5042
382.0,0.449
382.5,0.3837
383.0,0.3562
383.5,0.344
384.0,0.3804
384.5,0.5609
385.0,0.5576
385.5,0.5206
386.0,0.447
386.5,0.5886
387.0,0.4903
387.5,0.5521
388.0,0.511
388.5,0.5063
389.0,0.5479
389.5,0.6652
390.0,0.6691
390.5,0.6173
391.0,0.7283
391.5,0.7446
392.0,0.6286
392.5,0.5641
393.0,0.3146
393.5,0.2292
394.0,0.4673
394.5,0.5955
395.0,0.7282
395.5,0.7413
396.0,0.6441
396.5,0.3774
397.0,0.2838
397.5,0.5784
398.0,0.8118
398.5,0.8408
399.0,0.9122
399.5,0.9111
400.0,0.948
401.0,0.9774
402.0,1.035
403.0,0.9871
404.0,0.9755
405.0,0.979
406.0,0.9666
407.0,0.9544
408.0,0.9953
409.0,1.069
410.0,0.9369
411.0,1.018
412.0,1.097
413.0,1.073
414.0,1.09
415.0,1.096
416.0,1.119
417.0,1.095
418.0,1.078
419.0,1.096
420.0,1.094
421.0,1.148
422.0,1.095
423.0,1.073
424.0,1.138
425.0,1.139
426.0,1.112
427.0,1.095
428.0,1.069
429.0,1.015
430.0,0.8907
431.0,0.8853
432.0,1.146
433.0,1.155
434.0,1.076
435.0,1.126
436.0,1.272
437.0,1.257
438.0,1.147
439.0,1.19
440.0,1.23
441.0,1.278
442.0,1.374
443.0,1.341
444.0,1.373
445.0,1.346
446.0,1.287
447.0,1.395
448.0,1.42
449.0,1.428
450.0,1.471
451.0,1.529
452.0,1.476
453.0,1.391
454.0,1.455
455.0,1.466
456.0,1.504
457.0,1.532
458.0,1.483
459.0,1.478
460.0,1.485
461.0,1.522
462.0,1.536
463.0,1.528
464.0,1.505
465.0,1.488
466.0,1.505
467.0,1.48
468.0,1.5
469.0,1.511
470.0,1.465
471.0,1.466
472.0,1.547
473.0,1.529
474.0,1.534
475.0,1.55
476.0,1.507
477.0,1.514
478.0,1.558
479.0,1.551
480.0,1.556
481.0,1.588
482.0,1.598
483.0,1.581
484.0,1.55
485.0,1.479
486.0,1.294
487.0,1.358
488.0,1.492
489.0,1.499
490.0,1.578
491.0,1.553
492.0,1.469
493.0,1.519
494.0,1.536
495.0,1.551
496.0,1.562
497.0,1.588
498.0,1.516
499.0,1.538
500.0,1.495
501.0,1.47
502.0,1.452
503.0,1.513
504.0,1.479
505.0,1.532
506.0,1.583
507.0,1.508
508.0,1.462
509.0,1.504
510.0,1.497
511.0,1.539
512.0,1.557
513.0,1.475
514.0,1.466
515.0,1.453
516.0,1.451
517.0,1.291
518.0,1.358
519.0,1.426
520.0,1.48
521.0,1.495
522.0,1.498
523.0,1.473
524.0,1.527
525.0,1.547
526.0,1.479
527.0,1.396
528.0,1.478
529.0,1.559
530.0,1.538
531.0,1.563
532.0,1.51
533.0,1.467
534.0,1.512
535.0,1.546
536.0,1.561
537.0,1.501
538.0,1.528
539.0,1.517
540.0,1.455
541.0,1.467
542.0,1.514
543.0,1.499
544.0,1.526
545.0,1.522
546.0,1.531
547.0,1.531
548.0,1.513
549.0,1.519
550.0,1.538
551.0,1.52
552.0,1.532
553.0,1.506
554.0,1.543
555.0,1.547
556.0,1.528
557.0,1.482
558.0,1.472
559.0,1.446
560.0,1.465
561.0,1.486
562.0,1.476
563.0,1.518
564.0,1.478
565.0,1.466
566.0,1.446
567.0,1.475
568.0,1.463
569.0,1.431
570.0,1.431
571.0,1.423
572.0,1.459
573.0,1.476
574.0,1.472
575.0,1.446
576.0,1.433
577.0,1.449
578.0,1.428
579.0,1.434
580.0,1.46
581.0,1.468
582.0,1.496
583.0,1.499
584.0,1.513
585.0,1.476
586.0,1.447
587.0,1.48
588.0,1.446
589.0,1.286
590.0,1.345
591.0,1.422
592.0,1.406
593.0,1.426
594.0,1.417
595.0,1.384
596.0,1.436
597.0,1.422
598.0,1.418
599.0,1.42
600.0,1.422
601.0,1.41
602.0,1.401
603.0,1.425
604.0,1.449
605.0,1.442
606.0,1.436
607.0,1.451
608.0,1.435
609.0,1.438
610.0,1.428
611.0,1.435
612.0,1.431
613.0,1.414
614.0,1.395
615.0,1.425
616.0,1.379
617.0,1.376
618.0,1.43
619.0,1.416
620.0,1.425
621.0,1.427
622.0,1.411
623.0,1.391
624.0,1.367
625.0,1.364
626.0,1.385
627.0,1.402
628.0,1.318
629.0,1.372
630.0,1.341
631.0,1.369
632.0,1.353
633.0,1.393
634.0,1.379
635.0,1.401
636.0,1.382
637.0,1.405
638.0,1.418
639.0,1.403
640.0,1.389
641.0,1.388
642.0,1.382
643.0,1.401
644.0,1.397
645.0,1.399
646.0,1.368
647.0,1.355
648.0,1.357
649.0,1.331
650.0,1.335
651.0,1.392
652.0,1.338
653.0,1.375
654.0,1.359
655.0,1.311
656.0,1.161
657.0,1.192
658.0,1.336
659.0,1.345
660.0,1.351
661.0,1.361
662.0,1.365
663.0,1.338
664.0,1.353
665.0,1.354
666.0,1.355
667.0,1.354
668.0,1.355
669.0,1.376
670.0,1.37
671.0,1.37
672.0,1.358
673.0,1.379
674.0,1.374
675.0,1.362
676.0,1.371
677.0,1.358
678.0,1.362
679.0,1.34
680.0,1.351
681.0,1.343
682.0,1.341
683.0,1.339
684.0,1.333
685.0,1.344
686.0,1.337
687.0,0.9227
688.0,1.065
689.0,1.068
690.0,1.115
691.0,1.168
692.0,1.205
693.0,1.196
694.0,1.187
695.0,1.232
696.0,1.234
697.0,1.304
698.0,1.284
699.0,1.257
700.0,1.242
701.0,1.231
702.0,1.239
703.0,1.241
704.0,1.279
705.0,1.281
706.0,1.28
707.0,1.28
708.0,1.284
709.0,1.284
710.0,1.285
711.0,1.283
712.0,1.279
713.0,1.267
714.0,1.272
715.0,1.233
716.0,1.235
717.0,1.084
718.0,0.9981
719.0,0.916
720.0,0.9605
721.0,1.052
722.0,1.195
723.0,1.118
724.0,1.012
725.0,0.9981
726.0,1.044
727.0,1.056
728.0,0.9967
729.0,1.03
730.0,1.089
731.0,1.044
732.0,1.112
733.0,1.173
734.0,1.199
735.0,1.175
736.0,1.174
737.0,1.179
738.0,1.194
739.0,1.171
740.0,1.201
741.0,1.188
742.0,1.189
743.0,1.22
744.0,1.216
745.0,1.216
746.0,1.222
747.0,1.225
748.0,1.222
749.0,1.209
750.0,1.208
751.0,1.196
752.0,1.201
753.0,1.207
754.0,1.21
755.0,1.204
756.0,1.203
757.0,1.205
758.0,1.191
759.0,1.168
760.0,0.2264
761.0,0.1251
762.0,0.6319
763.0,0.3345
764.0,0.4865
765.0,0.6323
766.0,0.7608
767.0,0.9444
768.0,1.078
769.0,1.098
770.0,1.132
771.0,1.14
772.0,1.142
773.0,1.15
774.0,1.145
775.0,1.136
776.0,1.15
777.0,1.135
778.0,1.128
779.0,1.129
780.0,1.123
781.0,1.124
782.0,1.132
783.0,1.112
784.0,1.117
785.0,1.109
786.0,1.122
787.0,1.104
788.0,1.091
789.0,1.091
790.0,1.064
791.0,1.071
792.0,1.063
793.0,1.046
794.0,1.062
795.0,1.081
796.0,1.051
797.0,1.052
798.0,1.08
799.0,1.074
800.0,1.056
801.0,1.054
802.0,1.051
803.0,1.043
804.0,1.044
805.0,1.04
806.0,1.069
807.0,1.056
808.0,1.057
809.0,1.038
810.0,1.031
811.0,1.033
812.0,1.006
813.0,0.9859
814.0,0.8736
815.0,0.8681
816.0,0.809
817.0,0.8232
818.0,0.7938
819.0,0.8823
820.0,0.8331
821.0,0.9666
822.0,0.9402
823.0,0.651
824.0,0.9155
825.0,0.9505
826.0,0.9168
827.0,0.9652
828.0,0.8249
829.0,0.911
830.0,0.8999
831.0,0.9029
832.0,0.8765
833.0,0.9292
834.0,0.8985
835.0,0.9827
836.0,0.9435
837.0,0.9854
838.0,0.9561
839.0,0.9705
840.0,0.9915
841.0,0.9781
842.0,0.9795
843.0,0.9782
844.0,0.9651
845.0,0.9972
846.0,0.9928
847.0,0.9742
848.0,0.9686
849.0,0.9412
850.0,0.9017
851.0,0.9552
852.0,0.9484
853.0,0.9127
854.0,0.7884
855.0,0.8659
856.0,0.9465
857.0,0.9674
858.0,0.9605
859.0,0.9613
860.0,0.963
861.0,0.9578
862.0,0.9729
863.0,0.9959
864.0,0.9462
865.0,0.938
866.0,0.8435
867.0,0.8803
868.0,0.958
869.0,0.9382
870.0,0.965
871.0,0.9519
872.0,0.9486
873.0,0.9468
874.0,0.9356
875.0,0.9168
876.0,0.9264
877.0,0.9358
878.0,0.9461
879.0,0.9316
880.0,0.9117
881.0,0.8983
882.0,0.9178
883.0,0.9206
884.0,0.9165
885.0,0.9235
886.0,0.8808
887.0,0.8898
888.0,0.9032
889.0,0.9131
890.0,0.906
891.0,0.9043
892.0,0.8789
893.0,0.8523
894.0,0.824
895.0,0.7806
896.0,0.7363
897.0,0.6352
898.0,0.6917
899.0,0.5295
900.0,0.7067
901.0,0.5548
902.0,0.647
903.0,0.6547
904.0,0.8183
905.0,0.7911
906.0,0.7411
907.0,0.6062
908.0,0.6176
909.0,0.6672
910.0,0.5933
911.0,0.6305
912.0,0.6585
913.0,0.6024
914.0,0.5968
915.0,0.6466
916.0,0.5484
917.0,0.6924
918.0,0.5624
919.0,0.7043
920.0,0.7099
921.0,0.738
922.0,0.662
923.0,0.7128
924.0,0.6788
925.0,0.6641
926.0,0.6714
927.0,0.7495
928.0,0.5557
929.0,0.5088
930.0,0.4021
931.0,0.3807
932.0,0.2763
933.0,0.2256
934.0,0.1259
935.0,0.2301
936.0,0.145
937.0,0.1472
938.0,0.1805
939.0,0.369
940.0,0.4425
941.0,0.3359
942.0,0.3878
943.0,0.2565
944.0,0.2689
945.0,0.3461
946.0,0.178
947.0,0.3481
948.0,0.2561
949.0,0.4641
950.0,0.1317
951.0,0.4568
952.0,0.2478
953.0,0.3185
954.0,0.3889
955.0,0.322
956.0,0.3118
957.0,0.2485
958.0,0.4395
959.0,0.351
960.0,0.3933
961.0,0.4401
962.0,0.4166
963.0,0.479
964.0,0.4393
965.0,0.4772
966.0,0.4775
967.0,0.4757
968.0,0.6335
969.0,0.662
970.0,0.6086
971.0,0.6948
972.0,0.665
973.0,0.5809
974.0,0.5517
975.0,0.572
976.0,0.5441
977.0,0.6173
978.0,0.5872
979.0,0.6145
980.0,0.5782
981.0,0.691
982.0,0.6614
983.0,0.6354
984.0,0.7114
985.0,0.659
986.0,0.7234
987.0,0.7099
988.0,0.7086
989.0,0.7211
990.0,0.7043
991.0,0.7233
992.0,0.7275
993.0,0.7118
994.0,0.7273
995.0,0.7264
996.0,0.7233
997.0,0.7243
998.0,0.721
999.0,0.7183
1000.0,0.7134
1001.0,0.7222
1002.0,0.7028
1003.0,0.7096
1004.0,0.6923
1005.0,0.6669
1006.0,0.693
1007.0,0.7077
1008.0,0.704
1009.0,0.7003
1010.0,0.6974
1011.0,0.7042
1012.0,0.6982
1013.0,0.7025
1014.0,0.6976
1015.0,0.6931
1016.0,0.69
1017.0,0.6918
1018.0,0.6892
1019.0,0.6746
1020.0,0.6856
1021.0,0.6847
1022.0,0.6794
1023.0,0.6867
1024.0,0.6779
1025.0,0.6862
1026.0,0.6833
1027.0,0.6818
1028.0,0.6804
1029.0,0.6724
1030.0,0.677
1031.0,0.6743
1032.0,0.6724
1033.0,0.6623
1034.0,0.6623
1035.0,0.6644
1036.0,0.6679
1037.0,0.657
1038.0,0.66
1039.0,0.6596
1040.0,0.657
1041.0,0.6597
1042.0,0.6551
1043.0,0.653
1044.0,0.6553
1045.0,0.6465
1046.0,0.6394
1047.0,0.6452
1048.0,0.6487
1049.0,0.6464
1050.0,0.6435
1051.0,0.6426
1052.0,0.6401
1053.0,0.635
1054.0,0.6364
1055.0,0.6368
1056.0,0.6346
1057.0,0.6327
1058.0,0.6172
1059.0,0.6179
1060.0,0.617
1061.0,0.6163
1062.0,0.6196
1063.0,0.6135
1064.0,0.6208
1065.0,0.6164
1066.0,0.6042
1067.0,0.612
1068.0,0.5987
1069.0,0.5802
1070.0,0.5999
1071.0,0.6092
1072.0,0.6022
1073.0,0.5936
1074.0,0.6088
1075.0,0.5787
1076.0,0.6083
1077.0,0.5977
1078.0,0.5865
1079.0,0.5986
1080.0,0.5886
1081.0,0.5699
1082.0,0.5787
1083.0,0.5804
1084.0,0.5687
1085.0,0.59
1086.0,0.539
1087.0,0.5559
1088.0,0.58
1089.0,0.5626
1090.0,0.5505
1091.0,0.5783
1092.0,0.5767
1093.0,0.4902
1094.0,0.5278
1095.0,0.5106
1096.0,0.4893
1097.0,0.5634
1098.0,0.4818
1099.0,0.5024
1100.0,0.4676
1101.0,0.4733
1102.0,0.4524
1103.0,0.4483
1104.0,0.4488
1105.0,0.4911
1106.0,0.3778
1107.0,0.4669
1108.0,0.397
1109.0,0.3975
1110.0,0.463
1111.0,0.3157
1112.0,0.3944
1113.0,0.2527
1114.0,0.2823
1115.0,0.2341
1116.0,0.1878
1117.0,0.06994
1118.0,0.2041
1119.0,0.102
1120.0,0.1284
1121.0,0.17
1122.0,0.07218
1123.0,0.1161
1124.0,0.09798
1125.0,0.1276
1126.0,0.04502
1127.0,0.1439
1128.0,0.08674
1129.0,0.09196
1130.0,0.06075
1131.0,0.2714
1132.0,0.2132
1133.0,0.1359
1134.0,0.0352
1135.0,0.01317
1136.0,0.1137
1137.0,0.2669
1138.0,0.1882
1139.0,0.279
1140.0,0.2338
1141.0,0.1789
1142.0,0.2054
1143.0,0.291
1144.0,0.1025
1145.0,0.1311
1146.0,0.1414
1147.0,0.05034
1148.0,0.2519
1149.0,0.2017
1150.0,0.1102
1151.0,0.1868
1152.0,0.2293
1153.0,0.2231
1154.0,0.1272
1155.0,0.2912
1156.0,0.2626
1157.0,0.294
1158.0,0.2909
1159.0,0.3132
1160.0,0.2683
1161.0,0.3292
1162.0,0.331
1163.0,0.4443
1164.0,0.3822
1165.0,0.3615
1166.0,0.3583
1167.0,0.3897
1168.0,0.3943
1169.0,0.4033
1170.0,0.4373
1171.0,0.4266
1172.0,0.4337
1173.0,0.4364
1174.0,0.3144
1175.0,0.4259
1176.0,0.4667
1177.0,0.449
1178.0,0.3395
1179.0,0.4705
1180.0,0.4216
1181.0,0.4349
1182.0,0.3026
1183.0,0.4279
1184.0,0.4019
1185.0,0.3886
1186.0,0.4581
1187.0,0.4372
1188.0,0.308
1189.0,0.4075
1190.0,0.4477
1191.0,0.4266
1192.0,0.4538
1193.0,0.4354
1194.0,0.4484
1195.0,0.4252
1196.0,0.4101
1197.0,0.4481
1198.0,0.4108
1199.0,0.3518
1200.0,0.4301
1201.0,0.4156
1202.0,0.4127
1203.0,0.4093
1204.0,0.3593
1205.0,0.4216
1206.0,0.4643
1207.0,0.4119
1208.0,0.4047
1209.0,0.4129
1210.0,0.4295
1211.0,0.41
1212.0,0.4063
1213.0,0.4497
1214.0,0.4155
1215.0,0.4078
1216.0,0.4482
1217.0,0.4369
1218.0,0.4446
1219.0,0.4394
1220.0,0.445
1221.0,0.4492
1222.0,0.4378
1223.0,0.434
1224.0,0.4317
1225.0,0.4464
1226.0,0.449
1227.0,0.4156
1228.0,0.451
1229.0,0.4491
1230.0,0.4417
1231.0,0.4534
1232.0,0.4507
1233.0,0.4364
1234.0,0.4528
1235.0,0.4501
1236.0,0.4533
1237.0,0.4474
1238.0,0.4517
1239.0,0.446
1240.0,0.4476
1241.0,0.4458
1242.0,0.4446
1243.0,0.441
1244.0,0.4442
1245.0,0.446
1246.0,0.4434
1247.0,0.4418
1248.0,0.4416
1249.0,0.4429
1250.0,0.4403
1251.0,0.4348
1252.0,0.4347
1253.0,0.4316
1254.0,0.4276
1255.0,0.4344
1256.0,0.4229
1257.0,0.4207
1258.0,0.428
1259.0,0.4136
1260.0,0.4156
1261.0,0.3937
1262.0,0.3826
1263.0,0.3833
1264.0,0.3555
1265.0,0.3809
1266.0,0.3675
1267.0,0.3733
1268.0,0.3551
1269.0,0.2273
1270.0,0.3722
1271.0,0.3922
1272.0,0.3934
1273.0,0.3894
1274.0,0.3904
1275.0,0.3958
1276.0,0.3994
1277.0,0.4017
1278.0,0.4089
1279.0,0.4053
1280.0,0.4001
1281.0,0.3815
1282.0,0.3672
1283.0,0.3956
1284.0,0.4051
1285.0,0.4077
1286.0,0.413
1287.0,0.4071
1288.0,0.4069
1289.0,0.3949
1290.0,0.4032
1291.0,0.4087
1292.0,0.3856
1293.0,0.4012
1294.0,0.3984
1295.0,0.3969
1296.0,0.38
1297.0,0.3602
1298.0,0.3861
1299.0,0.4015
1300.0,0.3426
1301.0,0.3526
1302.0,0.3849
1303.0,0.3378
1304.0,0.2906
1305.0,0.3771
1306.0,0.3774
1307.0,0.296
1308.0,0.338
1309.0,0.3747
1310.0,0.2905
1311.0,0.3246
1312.0,0.3162
1313.0,0.3105
1314.0,0.2788
1315.0,0.2757
1316.0,0.3199
1317.0,0.3033
1318.0,0.3286
1319.0,0.2596
1320.0,0.251
1321.0,0.2914
1322.0,0.2947
1323.0,0.224
1324.0,0.2547
1325.0,0.3155
1326.0,0.2722
1327.0,0.2599
1328.0,0.2248
1329.0,0.1706
1330.0,0.2212
1331.0,0.1354
1332.0,0.1392
1333.0,0.1933
1334.0,0.1628
1335.0,0.2231
1336.0,0.1775
1337.0,0.1574
1338.0,0.1703
1339.0,0.1693
1340.0,0.1642
1341.0,0.1614
1342.0,0.1695
1343.0,0.1169
1344.0,0.06992
1345.0,0.1007
1346.0,0.05137
1347.0,0.05245
1348.0,0.00365
1349.0,0.01286
1350.0,0.01317
1351.0,0.003409
1352.0,0.0009872
1353.0,5.444e-05
1354.0,0.0001785
1355.0,1.689e-06
1356.0,2.675e-05
1357.0,4.068e-05
1358.0,1.988e-06
1359.0,2.828e-07
1360.0,9.498e-07
1361.0,1.372e-09
1362.0,4.198e-12
1363.0,1.334e-06
1364.0,5.565e-07
1365.0,1.696e-12
1366.0,5.648e-06
1367.0,2.267e-06
1368.0,1.731e-14
1369.0,2.095e-07
1370.0,1.088e-07
1371.0,6.582e-09
1372.0,1.247e-06
1373.0,2.323e-05
1374.0,0.0001023
1375.0,0.0001863
1376.0,0.0001602
1377.0,7.431e-05
1378.0,0.0007102
1379.0,3.13e-05
1380.0,4.664e-05
1381.0,1.261e-06
1382.0,1.142e-06
1383.0,1.794e-08
1384.0,2.419e-07
1385.0,1.021e-06
1386.0,1.054e-06
1387.0,0.0001097
1388.0,2.173e-06
1389.0,0.0003507
1390.0,0.000302
1391.0,0.0002039
1392.0,1.352e-05
1393.0,6.967e-05
1394.0,3.934e-05
1395.0,3.087e-07
1396.0,1.911e-09
1397.0,2.837e-05
1398.0,0.0008026
1399.0,0.0005086
1400.0,8.832e-10
1401.0,3.357e-09
1402.0,0.001318
1403.0,0.001679
1404.0,0.0005147
1405.0,1.57e-07
1406.0,0.00137
1407.0,0.0001192
1408.0,0.001116
1409.0,0.0003895
1410.0,0.0003044
1411.0,0.001473
1412.0,0.001952
1413.0,0.01916
1414.0,0.0002391
1415.0,0.0001169
1416.0,0.0308
1417.0,0.009485
1418.0,0.01083
1419.0,0.001688
1420.0,0.006632
1421.0,0.007173
1422.0,0.04016
1423.0,0.007821
1424.0,0.01463
1425.0,0.02158
1426.0,0.02437
1427.0,0.04458
1428.0,0.003448
1429.0,0.03343
1430.0,0.05677
1431.0,0.06232
1432.0,0.002718
1433.0,0.03968
1434.0,0.0202
1435.0,0.02025
1436.0,0.03901
1437.0,0.02989
1438.0,0.01264
1439.0,0.05303
1440.0,0.03972
1441.0,0.03028
1442.0,0.03359
1443.0,0.04219
1444.0,0.05848
1445.0,0.04571
1446.0,0.02054
1447.0,0.03238
1448.0,0.1102
1449.0,0.09562
1450.0,0.02402
1451.0,0.009625
1452.0,0.05741
1453.0,0.07549
1454.0,0.1305
1455.0,0.0612
1456.0,0.08214
1457.0,0.1108
1458.0,0.1312
1459.0,0.155
1460.0,0.0804
1461.0,0.08369
1462.0,0.1233
