interpolation:linear
wavelength,value
280.0,1.1900000000000001e-20
280.5,2.438e-19
281.0,1.12e-18
281.5,2.26e-17
282.0,1.381e-16
282.5,4.432e-16
283.0,1.607e-15
283.5,2.746e-15
284.0,4.413e-14
284.5,1.227e-13
285.0,2.276e-13
285.5,1.329e-12
286.0,5.574e-12
286.5,2.542e-11
287.0,7.216e-11
287.5,2.646e-10
288.0,8.994e-10
288.5,3.074e-09
289.0,8.815e-09
289.5,2.762e-08
290.0,7.78e-08
290.5,1.598e-07
291.0,3.401e-07
291.5,9.443e-07
292.0,2.085e-06
292.5,2.903e-06
293.0,6.09e-06
293.5,1.416e-05
294.0,2.168e-05
294.5,3.567e-05
295.0,5.761e-05
295.5,0.0001253
296.0,0.0002095
296.5,0.0002546
297.0,0.0003075
297.5,0.0006957
298.0,0.0009512
298.5,0.0008588
299.0,0.001705
299.5,0.002355
300.0,0.002349
300.5,0.003077
301.0,0.004738
301.5,0.006554
302.0,0.00524
302.5,0.009476
303.0,0.01541
303.5,0.01827
304.0,0.01652
304.5,0.02214
305.0,0.02891
305.5,0.03024
306.0,0.02835
306.5,0.03341
307.0,0.0437
307.5,0.05164
308.0,0.05372
308.5,0.06008
309.0,0.05275
309.5,0.05657
310.0,0.05522
310.5,0.08836
311.0,0.1083
311.5,0.1036
312.0,0.09768
312.5,0.1144
313.0,0.1218
313.5,0.1213
314.0,0.1445
314.5,0.1199
315.0,0.1562
315.5,0.1358
316.0,0.1124
316.5,0.154
317.0,0.1922
317.5,0.2036
318.0,0.154
318.5,0.1796
319.0,0.2068
319.5,0.1785
320.0,0.2182
320.5,0.2561
321.0,0.2153
321.5,0.2059
322.0,0.2351
322.5,0.2045
323.0,0.1958
323.5,0.2245
324.0,0.2608
324.5,0.2713
325.0,0.2479
325.5,0.3089
326.0,0.3625
326.5,0.3548
327.0,0.3582
327.5,0.3514
328.0,0.3252
328.5,0.3286
329.0,0.3819
329.5,0.4306
330.0,0.4392
330.5,0.3617
331.0,0.3728
331.5,0.3729
332.0,0.3933
332.5,0.3856
333.0,0.3884
333.5,0.3597
334.0,0.3708
334.5,0.4195
335.0,0.3903
335.5,0.4431
336.0,0.3074
336.5,0.3749
337.0,0.3113
337.5,0.3896
338.0,0.3746
338.5,0.4228
339.0,0.4217
339.5,0.4052
340.0,0.4888
340.5,0.441
341.0,0.423
341.5,0.3926
342.0,0.4712
342.5,0.4427
343.0,0.4862
343.5,0.4575
344.0,0.3441
344.5,0.3406
345.0,0.4564
345.5,0.4685
346.0,0.3998
346.5,0.4543
347.0,0.4874
347.5,0.3945
348.0,0.4525
348.5,0.4542
349.0,0.4225
349.5,0.419
350.0,0.5195
350.5,0.5492
351.0,0.4911
351.5,0.4762
352.0,0.5141
352.5,0.4028
353.0,0.5089
353.5,0.5457
354.0,0.5681
354.5,0.5775
355.0,0.5766
355.5,0.522
356.0,0.5474
356.5,0.4685
357.0,0.388
357.5,0.4762
358.0,0.3782
358.5,0.324
359.0,0.4541
359.5,0.5796
360.0,0.6158
360.5,0.4934
361.0,0.4506
361.5,0.5196
362.0,0.4498
362.5,0.6234
363.0,0.5607
363.5,0.5172
364.0,0.6335
364.5,0.5425
365.0,0.5535
365.5,0.6959
366.0,0.7385
366.5,0.6949
367.0,0.678
367.5,0.7049
368.0,0.6178
368.5,0.6244
369.0,0.6754
369.5,0.7212
370.0,0.77
370.5,0.5986
371.0,0.6406
371.5,0.8029
372.0,0.5338
372.5,0.6411
373.0,0.653
373.5,0.4255
374.0,0.6193
374.5,0.5136
375.0,0.5001
375.5,0.7479
376.0,0.6211
376.5,0.6447
377.0,0.6836
377.5,0.8009
378.0,0.8697
378.5,0.8236
379.0,0.681
379.5,0.6233
380.0,0.6492
380.5,0.7873
381.0,0.79
381.5,0.627
382.0,0.5576
382.5,0.4759
383.0,0.4411
383.5,0.4254
384.0,0.47
384.5,0.6922
385.0,0.6873
385.5,0.6409
386.0,0.5496
386.5,0.7228
387.0,0.6016
387.5,0.6767
388.0,0.6256
388.5,0.6192
389.0,0.6694
389.5,0.8118
390.0,0.8158
390.5,0.7518
391.0,0.886
391.5,0.905
392.0,0.7633
392.5,0.6842
393.0,0.3811
393.5,0.2773
394.0,0.5651
394.5,0.7192
395.0,0.8787
395.5,0.8939
396.0,0.7759
396.5,0.454
397.0,0.3411
397.5,0.6946
398.0,0.9742
398.5,1.008
399.0,1.092
399.5,1.09
400.0,1.134
401.0,1.166
402.0,1.233
403.0,1.173
404.0,1.158
405.0,1.16
406.0,1.143
407.0,1.127
408.0,1.173
409.0,1.258
410.0,1.101
411.0,1.195
412.0,1.285
413.0,1.256
414.0,1.273
415.0,1.278
416.0,1.302
417.0,1.273
418.0,1.251
419.0,1.27
420.0,1.267
421.0,1.327
422.0,1.264
423.0,1.236
424.0,1.31
425.0,1.309
426.0,1.277
427.0,1.255
428.0,1.224
429.0,1.16
430.0,1.017
431.0,1.01
432.0,1.305
433.0,1.314
434.0,1.222
435.0,1.279
436.0,1.442
437.0,1.423
438.0,1.297
439.0,1.345
440.0,1.389
441.0,1.441
442.0,1.547
443.0,1.51
444.0,1.544
445.0,1.513
446.0,1.445
447.0,1.563
448.0,1.59
449.0,1.597
450.0,1.643
451.0,1.706
452.0,1.645
453.0,1.549
454.0,1.618
455.0,1.63
456.0,1.671
457.0,1.7
458.0,1.645
459.0,1.638
460.0,1.645
461.0,1.685
462.0,1.698
463.0,1.689
464.0,1.661
465.0,1.64
466.0,1.657
467.0,1.63
468.0,1.651
469.0,1.661
470.0,1.61
471.0,1.61
472.0,1.698
473.0,1.678
474.0,1.683
475.0,1.701
476.0,1.654
477.0,1.661
478.0,1.709
479.0,1.699
480.0,1.702
481.0,1.734
482.0,1.743
483.0,1.722
484.0,1.688
485.0,1.609
486.0,1.407
487.0,1.475
488.0,1.62
489.0,1.627
490.0,1.712
491.0,1.683
492.0,1.591
493.0,1.644
494.0,1.662
495.0,1.677
496.0,1.689
497.0,1.716
498.0,1.637
499.0,1.66
500.0,1.614
501.0,1.587
502.0,1.568
503.0,1.635
504.0,1.602
505.0,1.654
506.0,1.709
507.0,1.628
508.0,1.576
509.0,1.62
510.0,1.611
511.0,1.654
512.0,1.673
513.0,1.584
514.0,1.574
515.0,1.559
516.0,1.557
517.0,1.384
518.0,1.456
519.0,1.528
520.0,1.585
521.0,1.602
522.0,1.604
523.0,1.577
524.0,1.635
525.0,1.657
526.0,1.584
527.0,1.495
528.0,1.583
529.0,1.671
530.0,1.648
531.0,1.674
532.0,1.618
533.0,1.571
534.0,1.618
535.0,1.653
536.0,1.669
537.0,1.603
538.0,1.632
539.0,1.62
540.0,1.554
541.0,1.567
542.0,1.618
543.0,1.6
544.0,1.63
545.0,1.625
546.0,1.635
547.0,1.634
548.0,1.614
549.0,1.62
550.0,1.639
551.0,1.62
552.0,1.632
553.0,1.604
554.0,1.643
555.0,1.648
556.0,1.628
557.0,1.578
558.0,1.568
559.0,1.541
560.0,1.561
561.0,1.583
562.0,1.573
563.0,1.618
564.0,1.576
565.0,1.564
566.0,1.543
567.0,1.574
568.0,1.564
569.0,1.534
570.0,1.533
571.0,1.523
572.0,1.564
573.0,1.582
574.0,1.579
575.0,1.551
576.0,1.538
577.0,1.554
578.0,1.53
579.0,1.534
580.0,1.559
581.0,1.564
582.0,1.592
583.0,1.594
584.0,1.606
585.0,1.567
586.0,1.535
587.0,1.571
588.0,1.542
589.0,1.383
590.0,1.445
591.0,1.52
592.0,1.507
593.0,1.523
594.0,1.516
595.0,1.484
596.0,1.53
597.0,1.517
598.0,1.51
599.0,1.51
600.0,1.509
601.0,1.495
602.0,1.485
603.0,1.509
604.0,1.534
605.0,1.526
606.0,1.519
607.0,1.533
608.0,1.515
609.0,1.517
610.0,1.505
611.0,1.513
612.0,1.508
613.0,1.489
614.0,1.468
615.0,1.5
616.0,1.45
617.0,1.447
618.0,1.502
619.0,1.487
620.0,1.497
621.0,1.5
622.0,1.484
623.0,1.463
624.0,1.437
625.0,1.434
626.0,1.456
627.0,1.476
628.0,1.412
629.0,1.453
630.0,1.421
631.0,1.442
632.0,1.423
633.0,1.462
634.0,1.445
635.0,1.466
636.0,1.445
637.0,1.467
638.0,1.479
639.0,1.462
640.0,1.446
641.0,1.445
642.0,1.437
643.0,1.457
644.0,1.451
645.0,1.455
646.0,1.425
647.0,1.418
648.0,1.421
649.0,1.394
650.0,1.389
651.0,1.447
652.0,1.401
653.0,1.429
654.0,1.412
655.0,1.366
656.0,1.206
657.0,1.239
658.0,1.385
659.0,1.393
660.0,1.399
661.0,1.409
662.0,1.414
663.0,1.385
664.0,1.399
665.0,1.398
666.0,1.398
667.0,1.396
668.0,1.395
669.0,1.417
670.0,1.41
671.0,1.41
672.0,1.397
673.0,1.418
674.0,1.413
675.0,1.4
676.0,1.409
677.0,1.395
678.0,1.399
679.0,1.376
680.0,1.387
681.0,1.378
682.0,1.376
683.0,1.374
684.0,1.367
685.0,1.379
686.0,1.371
687.0,1.061
688.0,1.169
689.0,1.171
690.0,1.205
691.0,1.241
692.0,1.266
693.0,1.258
694.0,1.249
695.0,1.283
696.0,1.285
697.0,1.341
698.0,1.32
699.0,1.304
700.0,1.289
701.0,1.28
702.0,1.284
703.0,1.286
704.0,1.319
705.0,1.321
706.0,1.317
707.0,1.317
708.0,1.32
709.0,1.317
710.0,1.319
711.0,1.316
712.0,1.31
713.0,1.299
714.0,1.304
715.0,1.268
716.0,1.271
717.0,1.158
718.0,1.075
719.0,0.9924
720.0,1.043
721.0,1.115
722.0,1.237
723.0,1.172
724.0,1.08
725.0,1.07
726.0,1.115
727.0,1.119
728.0,1.07
729.0,1.09
730.0,1.151
731.0,1.109
732.0,1.165
733.0,1.212
734.0,1.236
735.0,1.213
736.0,1.211
737.0,1.217
738.0,1.223
739.0,1.2
740.0,1.227
741.0,1.212
742.0,1.211
743.0,1.242
744.0,1.237
745.0,1.236
746.0,1.242
747.0,1.245
748.0,1.242
749.0,1.228
750.0,1.227
751.0,1.215
752.0,1.22
753.0,1.226
754.0,1.229
755.0,1.222
756.0,1.222
757.0,1.224
758.0,1.209
759.0,1.192
760.0,0.3765
761.0,0.248
762.0,0.7693
763.0,0.4949
764.0,0.6427
765.0,0.7703
766.0,0.8663
767.0,1.018
768.0,1.119
769.0,1.13
770.0,1.155
771.0,1.158
772.0,1.159
773.0,1.166
774.0,1.16
775.0,1.151
776.0,1.165
777.0,1.15
778.0,1.143
779.0,1.144
780.0,1.138
781.0,1.139
782.0,1.146
783.0,1.126
784.0,1.132
785.0,1.124
786.0,1.137
787.0,1.123
788.0,1.112
789.0,1.112
790.0,1.091
791.0,1.093
792.0,1.084
793.0,1.067
794.0,1.076
795.0,1.097
796.0,1.075
797.0,1.077
798.0,1.097
799.0,1.093
800.0,1.077
801.0,1.076
802.0,1.072
803.0,1.066
804.0,1.066
805.0,1.06
806.0,1.084
807.0,1.072
808.0,1.073
809.0,1.057
810.0,1.051
811.0,1.058
812.0,1.036
813.0,1.02
814.0,0.9266
815.0,0.9203
816.0,0.8617
817.0,0.8735
818.0,0.8473
819.0,0.9214
820.0,0.8782
821.0,0.9918
822.0,0.9694
823.0,0.7167
824.0,0.9527
825.0,0.9771
826.0,0.9503
827.0,0.9917
828.0,0.8722
829.0,0.9427
830.0,0.9338
831.0,0.9358
832.0,0.913
833.0,0.9545
834.0,0.9312
835.0,1.001
836.0,0.9718
837.0,1.003
838.0,0.9777
839.0,0.987
840.0,1.007
841.0,0.9955
842.0,0.9938
843.0,0.9894
844.0,0.9779
845.0,1.008
846.0,1.003
847.0,0.9832
848.0,0.9789
849.0,0.9512
850.0,0.9111
851.0,0.9666
852.0,0.959
853.0,0.9217
854.0,0.7971
855.0,0.8741
856.0,0.956
857.0,0.9762
858.0,0.9696
859.0,0.9697
860.0,0.971
861.0,0.9659
862.0,0.9809
863.0,1.004
864.0,0.9539
865.0,0.9455
866.0,0.8502
867.0,0.8872
868.0,0.9655
869.0,0.9454
870.0,0.9724
871.0,0.9592
872.0,0.9558
873.0,0.9539
874.0,0.9426
875.0,0.9237
876.0,0.9334
877.0,0.9428
878.0,0.9534
879.0,0.9387
880.0,0.9186
881.0,0.9057
882.0,0.9257
883.0,0.9278
884.0,0.9239
885.0,0.931
886.0,0.8903
887.0,0.8975
888.0,0.9124
889.0,0.92
890.0,0.9156
891.0,0.9124
892.0,0.8901
893.0,0.8678
894.0,0.8472
895.0,0.8132
896.0,0.7731
897.0,0.6827
898.0,0.7338
899.0,0.5819
900.0,0.7405
901.0,0.6083
902.0,0.6836
903.0,0.6997
904.0,0.8412
905.0,0.8183
906.0,0.7708
907.0,0.6535
908.0,0.663
909.0,0.7045
910.0,0.6467
911.0,0.6756
912.0,0.7002
913.0,0.6574
914.0,0.648
915.0,0.6987
916.0,0.6005
917.0,0.734
918.0,0.6159
919.0,0.7419
920.0,0.7386
921.0,0.7643
922.0,0.7003
923.0,0.7378
924.0,0.7181
925.0,0.7034
926.0,0.7106
927.0,0.7793
928.0,0.6184
929.0,0.5772
930.0,0.4751
931.0,0.4462
932.0,0.3429
933.0,0.2915
934.0,0.1869
935.0,0.2877
936.0,0.1964
937.0,0.2019
938.0,0.2412
939.0,0.4325
940.0,0.5055
941.0,0.4021
942.0,0.4517
943.0,0.3137
944.0,0.3165
945.0,0.4113
946.0,0.232
947.0,0.4185
948.0,0.312
949.0,0.5373
950.0,0.1867
951.0,0.5253
952.0,0.313
953.0,0.3841
954.0,0.4492
955.0,0.386
956.0,0.3669
957.0,0.3166
958.0,0.4873
959.0,0.4098
960.0,0.4581
961.0,0.4973
962.0,0.4732
963.0,0.5304
964.0,0.4913
965.0,0.5263
966.0,0.5304
967.0,0.5293
968.0,0.6603
969.0,0.6921
970.0,0.6433
971.0,0.7149
972.0,0.688
973.0,0.6204
974.0,0.5927
975.0,0.6064
976.0,0.5869
977.0,0.646
978.0,0.6228
979.0,0.6451
980.0,0.6116
981.0,0.7099
982.0,0.6864
983.0,0.6637
984.0,0.7232
985.0,0.6835
986.0,0.7311
987.0,0.7218
988.0,0.7206
989.0,0.7259
990.0,0.7158
991.0,0.7287
992.0,0.7324
993.0,0.7212
994.0,0.7317
995.0,0.7301
996.0,0.7277
997.0,0.7284
998.0,0.7253
999.0,0.7224
1000.0,0.7186
1001.0,0.7262
1002.0,0.7113
1003.0,0.7137
1004.0,0.6976
1005.0,0.6703
1006.0,0.6974
1007.0,0.7117
1008.0,0.7088
1009.0,0.706
1010.0,0.7036
1011.0,0.708
1012.0,0.7029
1013.0,0.7061
1014.0,0.7012
1015.0,0.6967
1016.0,0.6937
1017.0,0.6957
1018.0,0.6925
1019.0,0.6796
1020.0,0.6892
1021.0,0.6879
1022.0,0.6833
1023.0,0.6907
1024.0,0.6837
1025.0,0.6896
1026.0,0.6871
1027.0,0.6855
1028.0,0.6842
1029.0,0.6763
1030.0,0.6803
1031.0,0.6778
1032.0,0.6757
1033.0,0.6656
1034.0,0.6655
1035.0,0.6676
1036.0,0.6713
1037.0,0.6604
1038.0,0.6634
1039.0,0.6631
1040.0,0.6605
1041.0,0.6633
1042.0,0.6587
1043.0,0.6568
1044.0,0.6592
1045.0,0.6504
1046.0,0.6433
1047.0,0.6493
1048.0,0.653
1049.0,0.6508
1050.0,0.648
1051.0,0.6473
1052.0,0.6449
1053.0,0.64
1054.0,0.6416
1055.0,0.6423
1056.0,0.6404
1057.0,0.6386
1058.0,0.6232
1059.0,0.6242
1060.0,0.6234
1061.0,0.6229
1062.0,0.6265
1063.0,0.6205
1064.0,0.6278
1065.0,0.624
1066.0,0.6111
1067.0,0.6192
1068.0,0.6062
1069.0,0.5871
1070.0,0.6076
1071.0,0.6153
1072.0,0.6096
1073.0,0.6005
1074.0,0.6141
1075.0,0.5888
1076.0,0.614
1077.0,0.6061
1078.0,0.5957
1079.0,0.6033
1080.0,0.5969
1081.0,0.5802
1082.0,0.585
1083.0,0.5857
1084.0,0.5805
1085.0,0.5977
1086.0,0.5545
1087.0,0.5654
1088.0,0.5862
1089.0,0.5732
1090.0,0.5645
1091.0,0.5857
1092.0,0.583
1093.0,0.5107
1094.0,0.5354
1095.0,0.5293
1096.0,0.5118
1097.0,0.5693
1098.0,0.5054
1099.0,0.5245
1100.0,0.4955
1101.0,0.4993
1102.0,0.4813
1103.0,0.4799
1104.0,0.4802
1105.0,0.5142
1106.0,0.422
1107.0,0.494
1108.0,0.4362
1109.0,0.4337
1110.0,0.4917
1111.0,0.3576
1112.0,0.429
1113.0,0.2989
1114.0,0.3304
1115.0,0.2748
1116.0,0.2359
1117.0,0.1066
1118.0,0.2498
1119.0,0.1392
1120.0,0.175
1121.0,0.2222
1122.0,0.107
1123.0,0.1578
1124.0,0.1334
1125.0,0.1703
1126.0,0.073
1127.0,0.1909
1128.0,0.1287
1129.0,0.134
1130.0,0.09568
1131.0,0.3286
1132.0,0.2642
1133.0,0.1849
1134.0,0.05958
1135.0,0.02191
1136.0,0.1605
1137.0,0.3272
1138.0,0.2352
1139.0,0.3193
1140.0,0.2789
1141.0,0.2235
1142.0,0.2502
1143.0,0.3421
1144.0,0.1367
1145.0,0.1777
1146.0,0.1918
1147.0,0.08221
1148.0,0.2964
1149.0,0.2468
1150.0,0.1468
1151.0,0.2337
1152.0,0.2759
1153.0,0.2604
1154.0,0.1761
1155.0,0.3336
1156.0,0.3064
1157.0,0.3356
1158.0,0.3314
1159.0,0.3493
1160.0,0.309
1161.0,0.3626
1162.0,0.3656
1163.0,0.4645
1164.0,0.4094
1165.0,0.3958
1166.0,0.3868
1167.0,0.4157
1168.0,0.4221
1169.0,0.4282
1170.0,0.4572
1171.0,0.4474
1172.0,0.4509
1173.0,0.4562
1174.0,0.3496
1175.0,0.4425
1176.0,0.4757
1177.0,0.4635
1178.0,0.3662
1179.0,0.4791
1180.0,0.4398
1181.0,0.4523
1182.0,0.3318
1183.0,0.4426
1184.0,0.4213
1185.0,0.4119
1186.0,0.47
1187.0,0.4533
1188.0,0.3386
1189.0,0.4238
1190.0,0.4595
1191.0,0.4454
1192.0,0.4648
1193.0,0.4489
1194.0,0.4602
1195.0,0.4417
1196.0,0.4297
1197.0,0.4567
1198.0,0.4234
1199.0,0.3754
1200.0,0.4438
1201.0,0.4331
1202.0,0.4279
1203.0,0.4242
1204.0,0.38
1205.0,0.4333
1206.0,0.47
1207.0,0.4281
1208.0,0.4169
1209.0,0.4243
1210.0,0.4386
1211.0,0.4236
1212.0,0.4245
1213.0,0.4576
1214.0,0.4315
1215.0,0.425
1216.0,0.4559
1217.0,0.4468
1218.0,0.4525
1219.0,0.4482
1220.0,0.4526
1221.0,0.4555
1222.0,0.4455
1223.0,0.4425
1224.0,0.4418
1225.0,0.4527
1226.0,0.454
1227.0,0.4262
1228.0,0.4548
1229.0,0.454
1230.0,0.4476
1231.0,0.4558
1232.0,0.4533
1233.0,0.4434
1234.0,0.4543
1235.0,0.4522
1236.0,0.4548
1237.0,0.4507
1238.0,0.4533
1239.0,0.4475
1240.0,0.449
1241.0,0.4483
1242.0,0.446
1243.0,0.4423
1244.0,0.4459
1245.0,0.4476
1246.0,0.4449
1247.0,0.4436
1248.0,0.444
1249.0,0.4447
1250.0,0.4425
1251.0,0.4377
1252.0,0.4366
1253.0,0.4351
1254.0,0.4323
1255.0,0.4367
1256.0,0.4281
1257.0,0.4265
1258.0,0.4316
1259.0,0.4216
1260.0,0.4231
1261.0,0.4066
1262.0,0.3982
1263.0,0.3992
1264.0,0.3776
1265.0,0.3965
1266.0,0.3869
1267.0,0.39
1268.0,0.3758
1269.0,0.2756
1270.0,0.39
1271.0,0.4044
1272.0,0.4048
1273.0,0.4014
1274.0,0.4016
1275.0,0.4061
1276.0,0.4086
1277.0,0.4097
1278.0,0.4145
1279.0,0.4111
1280.0,0.4057
1281.0,0.3858
1282.0,0.3696
1283.0,0.3985
1284.0,0.4085
1285.0,0.4108
1286.0,0.4151
1287.0,0.411
1288.0,0.4103
1289.0,0.4018
1290.0,0.4064
1291.0,0.4113
1292.0,0.3948
1293.0,0.4054
1294.0,0.403
1295.0,0.403
1296.0,0.3904
1297.0,0.3739
1298.0,0.3935
1299.0,0.4051
1300.0,0.3586
1301.0,0.3663
1302.0,0.3919
1303.0,0.3522
1304.0,0.3153
1305.0,0.3852
1306.0,0.386
1307.0,0.3171
1308.0,0.3505
1309.0,0.384
1310.0,0.3117
1311.0,0.3393
1312.0,0.3326
1313.0,0.3284
1314.0,0.2995
1315.0,0.2989
1316.0,0.3364
1317.0,0.3204
1318.0,0.342
1319.0,0.2855
1320.0,0.2727
1321.0,0.3113
1322.0,0.3168
1323.0,0.2538
1324.0,0.28
1325.0,0.3323
1326.0,0.295
1327.0,0.2838
1328.0,0.2497
1329.0,0.2007
1330.0,0.2542
1331.0,0.1704
1332.0,0.17
1333.0,0.2316
1334.0,0.1903
1335.0,0.2525
1336.0,0.2078
1337.0,0.1894
1338.0,0.2037
1339.0,0.2008
1340.0,0.1913
1341.0,0.1959
1342.0,0.2053
1343.0,0.1603
1344.0,0.09616
1345.0,0.135
1346.0,0.08289
1347.0,0.08681
1348.0,0.009832
1349.0,0.02967
1350.0,0.02731
1351.0,0.0108
1352.0,0.004645
1353.0,0.0004384
1354.0,0.001056
1355.0,2.736e-05
1356.0,0.0002272
1357.0,0.0003371
1358.0,3.094e-05
1359.0,8.879e-06
1360.0,1.902e-05
1361.0,1.33e-07
1362.0,8.804e-10
1363.0,2.985e-05
1364.0,1.422e-05
1365.0,7.712e-10
1366.0,0.0001034
1367.0,4.019e-05
1368.0,3.888e-11
1369.0,5.738e-06
1370.0,3.979e-06
1371.0,3.698e-07
1372.0,2.255e-05
1373.0,0.0002457
1374.0,0.0007642
1375.0,0.001332
1376.0,0.0009342
1377.0,0.0004751
1378.0,0.003626
1379.0,0.0002074
1380.0,0.0003673
1381.0,1.323e-05
1382.0,2.231e-05
1383.0,5.107e-07
1384.0,7.328e-06
1385.0,1.473e-05
1386.0,2.483e-05
1387.0,0.0009426
1388.0,2.215e-05
1389.0,0.002153
1390.0,0.001821
1391.0,0.001368
1392.0,0.0001101
1393.0,0.0004578
1394.0,0.0004219
1395.0,5.53e-06
1396.0,1.522e-07
1397.0,0.0002164
1398.0,0.004154
1399.0,0.002672
1400.0,1.029e-07
1401.0,2.301e-07
1402.0,0.004554
1403.0,0.006202
1404.0,0.001979
1405.0,3.637e-06
1406.0,0.005843
1407.0,0.0005121
1408.0,0.004702
1409.0,0.002101
1410.0,0.001491
1411.0,0.005385
1412.0,0.006338
1413.0,0.04081
1414.0,0.001146
1415.0,0.0006396
1416.0,0.0539
1417.0,0.02176
1418.0,0.02454
1419.0,0.004144
1420.0,0.0153
1421.0,0.01731
1422.0,0.06838
1423.0,0.01494
1424.0,0.02664
1425.0,0.04051
1426.0,0.04176
1427.0,0.06655
1428.0,0.00957
1429.0,0.05396
1430.0,0.08184
1431.0,0.08734
1432.0,0.007734
1433.0,0.05941
1434.0,0.03222
1435.0,0.03881
1436.0,0.06391
1437.0,0.04933
1438.0,0.02398
1439.0,0.08198
1440.0,0.06234
1441.0,0.05243
1442.0,0.05655
1443.0,0.06364
1444.0,0.08561
1445.0,0.07254
1446.0,0.03442
1447.0,0.05453
1448.0,0.1415
1449.0,0.1287
1450.0,0.0404
1451.0,0.01798
1452.0,0.08286
1453.0,0.1051
1454.0,0.1612
1455.0,0.08335
1456.0,0.115
1457.0,0.1424
1458.0,0.1571
1459.0,0.1873
1460.0,0.1038
1461.0,0.1128
1462.0,0.1561
1463.0,0.05749
1464.0,0.176
1465.0,0.1079
1466.0,0.08662
1467.0,0.0516
1468.0,0.09886
1469.0,0.1178
1470.0,0.06805
