interpolation:linear
wavelength,value
280.0,2.761e-22
280.5,7.185e-21
281.0,3.602e-20
281.5,9.162e-19
282.0,6.444e-18
282.5,2.274e-17
283.0,9.148e-17
283.5,1.647e-16
284.0,3.37e-15
284.5,1.046e-14
285.0,2.186e-14
285.5,1.468e-13
286.0,6.517e-13
286.5,3.339e-12
287.0,1.033e-11
287.5,4.24e-11
288.0,1.661e-10
288.5,6.122e-10
289.0,1.898e-09
289.5,6.477e-09
290.0,1.957e-08
290.5,4.262e-08
291.0,9.735e-08
291.5,2.957e-07
292.0,7.025e-07
292.5,1.019e-06
293.0,2.254e-06
293.5,5.632e-06
294.0,9.053e-06
294.5,1.545e-05
295.0,2.613e-05
295.5,6.017e-05
296.0,0.0001046
296.5,0.0001319
297.0,0.000164
297.5,0.0003868
298.0,0.0005467
298.5,0.0005059
299.0,0.001028
299.5,0.001473
300.0,0.001498
300.5,0.002
301.0,0.003163
301.5,0.004474
302.0,0.003615
302.5,0.006664
303.0,0.01109
303.5,0.01332
304.0,0.01213
304.5,0.01651
305.0,0.02199
305.5,0.02328
306.0,0.02194
306.5,0.02604
307.0,0.03458
307.5,0.04142
308.0,0.04321
308.5,0.04865
309.0,0.04294
309.5,0.04669
310.0,0.04588
310.5,0.07367
311.0,0.09074
311.5,0.08711
312.0,0.08292
312.5,0.09773
313.0,0.1044
313.5,0.1038
314.0,0.1246
314.5,0.1043
315.0,0.1362
315.5,0.118
316.0,0.09837
316.5,0.1356
317.0,0.1693
317.5,0.1793
318.0,0.1362
318.5,0.1599
319.0,0.1848
319.5,0.1589
320.0,0.1942
320.5,0.2294
321.0,0.194
321.5,0.1857
322.0,0.211
322.5,0.1837
323.0,0.1766
323.5,0.2037
324.0,0.237
324.5,0.2462
325.0,0.2242
325.5,0.2803
326.0,0.3304
326.5,0.3242
327.0,0.3273
327.5,0.3209
328.0,0.2962
328.5,0.3006
329.0,0.3504
329.5,0.3956
330.0,0.4035
330.5,0.3318
331.0,0.342
331.5,0.3428
332.0,0.3624
332.5,0.3557
333.0,0.3583
333.5,0.3316
334.0,0.3418
334.5,0.3876
335.0,0.3611
335.5,0.4103
336.0,0.2847
336.5,0.3472
337.0,0.2883
337.5,0.3608
338.0,0.3475
338.5,0.3925
339.0,0.3918
339.5,0.3766
340.0,0.4543
340.5,0.4101
341.0,0.3937
341.5,0.3656
342.0,0.4391
342.5,0.4127
343.0,0.4533
343.5,0.4268
344.0,0.3209
344.5,0.3179
345.0,0.4263
345.5,0.4379
346.0,0.3739
346.5,0.4249
347.0,0.456
347.5,0.3693
348.0,0.4238
348.5,0.4256
349.0,0.3961
349.5,0.393
350.0,0.4874
350.5,0.5154
351.0,0.461
351.5,0.4472
352.0,0.483
352.5,0.3786
353.0,0.4785
353.5,0.5133
354.0,0.5345
354.5,0.5435
355.0,0.5429
355.5,0.4916
356.0,0.5157
356.5,0.4415
357.0,0.3658
357.5,0.449
358.0,0.3568
358.5,0.3057
359.0,0.4286
359.5,0.5472
360.0,0.5816
360.5,0.4661
361.0,0.4258
361.5,0.4912
362.0,0.4255
362.5,0.5898
363.0,0.5307
363.5,0.4897
364.0,0.6001
364.5,0.514
365.0,0.5246
365.5,0.6598
366.0,0.7004
366.5,0.6593
367.0,0.6434
367.5,0.6691
368.0,0.5867
368.5,0.5931
369.0,0.6417
369.5,0.6854
370.0,0.732
370.5,0.5692
371.0,0.6093
371.5,0.7639
372.0,0.508
372.5,0.6103
373.0,0.6218
373.5,0.4053
374.0,0.59
374.5,0.4895
375.0,0.4767
375.5,0.7131
376.0,0.5923
376.5,0.615
377.0,0.6522
377.5,0.7644
378.0,0.8302
378.5,0.7863
379.0,0.6503
379.5,0.5953
380.0,0.6202
380.5,0.7524
381.0,0.7552
381.5,0.5996
382.0,0.5333
382.5,0.4553
383.0,0.4222
383.5,0.4073
384.0,0.45
384.5,0.6629
385.0,0.6584
385.5,0.6141
386.0,0.5268
386.5,0.693
387.0,0.5768
387.5,0.649
388.0,0.6002
388.5,0.5941
389.0,0.6424
389.5,0.7793
390.0,0.7832
390.5,0.7219
391.0,0.8511
391.5,0.8695
392.0,0.7335
392.5,0.6576
393.0,0.3664
393.5,0.2667
394.0,0.5434
394.5,0.6918
395.0,0.8454
395.5,0.8602
396.0,0.7468
396.5,0.4371
397.0,0.3285
397.5,0.669
398.0,0.9384
398.5,0.9713
399.0,1.053
399.5,1.051
400.0,1.093
401.0,1.125
402.0,1.189
403.0,1.132
404.0,1.118
405.0,1.12
406.0,1.104
407.0,1.089
408.0,1.134
409.0,1.217
410.0,1.065
411.0,1.156
412.0,1.244
413.0,1.216
414.0,1.233
415.0,1.238
416.0,1.262
417.0,1.234
418.0,1.214
419.0,1.232
420.0,1.229
421.0,1.288
422.0,1.227
423.0,1.201
424.0,1.273
425.0,1.273
426.0,1.241
427.0,1.22
428.0,1.191
429.0,1.129
430.0,0.9896
431.0,0.983
432.0,1.271
433.0,1.28
434.0,1.191
435.0,1.246
436.0,1.405
437.0,1.387
438.0,1.265
439.0,1.312
440.0,1.355
441.0,1.406
442.0,1.51
443.0,1.474
444.0,1.507
445.0,1.477
446.0,1.411
447.0,1.527
448.0,1.554
449.0,1.561
450.0,1.606
451.0,1.668
452.0,1.609
453.0,1.515
454.0,1.583
455.0,1.595
456.0,1.635
457.0,1.664
458.0,1.611
459.0,1.604
460.0,1.611
461.0,1.65
462.0,1.664
463.0,1.655
464.0,1.628
465.0,1.608
466.0,1.625
467.0,1.598
468.0,1.619
469.0,1.629
470.0,1.579
471.0,1.579
472.0,1.666
473.0,1.646
474.0,1.652
475.0,1.669
476.0,1.622
477.0,1.63
478.0,1.677
479.0,1.667
480.0,1.671
481.0,1.703
482.0,1.713
483.0,1.692
484.0,1.659
485.0,1.581
486.0,1.383
487.0,1.45
488.0,1.592
489.0,1.6
490.0,1.684
491.0,1.655
492.0,1.565
493.0,1.617
494.0,1.635
495.0,1.65
496.0,1.662
497.0,1.689
498.0,1.612
499.0,1.634
500.0,1.589
501.0,1.562
502.0,1.543
503.0,1.609
504.0,1.575
505.0,1.628
506.0,1.683
507.0,1.602
508.0,1.552
509.0,1.596
510.0,1.587
511.0,1.63
512.0,1.648
513.0,1.561
514.0,1.551
515.0,1.537
516.0,1.534
517.0,1.364
518.0,1.435
519.0,1.507
520.0,1.563
521.0,1.579
522.0,1.582
523.0,1.555
524.0,1.612
525.0,1.634
526.0,1.562
527.0,1.474
528.0,1.561
529.0,1.647
530.0,1.625
531.0,1.651
532.0,1.595
533.0,1.549
534.0,1.596
535.0,1.631
536.0,1.646
537.0,1.582
538.0,1.61
539.0,1.598
540.0,1.533
541.0,1.546
542.0,1.596
543.0,1.579
544.0,1.608
545.0,1.604
546.0,1.613
547.0,1.612
548.0,1.593
549.0,1.598
550.0,1.618
551.0,1.599
552.0,1.611
553.0,1.583
554.0,1.622
555.0,1.627
556.0,1.607
557.0,1.558
558.0,1.548
559.0,1.521
560.0,1.541
561.0,1.562
562.0,1.553
563.0,1.597
564.0,1.555
565.0,1.543
566.0,1.522
567.0,1.553
568.0,1.543
569.0,1.512
570.0,1.511
571.0,1.502
572.0,1.542
573.0,1.56
574.0,1.556
575.0,1.529
576.0,1.516
577.0,1.532
578.0,1.508
579.0,1.513
580.0,1.538
581.0,1.544
582.0,1.571
583.0,1.574
584.0,1.587
585.0,1.548
586.0,1.516
587.0,1.552
588.0,1.522
589.0,1.362
590.0,1.424
591.0,1.499
592.0,1.486
593.0,1.502
594.0,1.495
595.0,1.463
596.0,1.51
597.0,1.497
598.0,1.491
599.0,1.491
600.0,1.491
601.0,1.477
602.0,1.467
603.0,1.491
604.0,1.516
605.0,1.508
606.0,1.501
607.0,1.515
608.0,1.498
609.0,1.5
610.0,1.489
611.0,1.497
612.0,1.492
613.0,1.473
614.0,1.453
615.0,1.484
616.0,1.435
617.0,1.432
618.0,1.487
619.0,1.472
620.0,1.482
621.0,1.485
622.0,1.469
623.0,1.448
624.0,1.422
625.0,1.42
626.0,1.441
627.0,1.46
628.0,1.392
629.0,1.436
630.0,1.404
631.0,1.427
632.0,1.409
633.0,1.448
634.0,1.431
635.0,1.452
636.0,1.432
637.0,1.454
638.0,1.467
639.0,1.449
640.0,1.434
641.0,1.433
642.0,1.426
643.0,1.445
644.0,1.44
645.0,1.443
646.0,1.413
647.0,1.404
648.0,1.407
649.0,1.381
650.0,1.378
651.0,1.436
652.0,1.388
653.0,1.417
654.0,1.401
655.0,1.354
656.0,1.197
657.0,1.229
658.0,1.375
659.0,1.383
660.0,1.389
661.0,1.399
662.0,1.404
663.0,1.375
664.0,1.389
665.0,1.389
666.0,1.389
667.0,1.387
668.0,1.387
669.0,1.408
670.0,1.402
671.0,1.401
672.0,1.389
673.0,1.41
674.0,1.405
675.0,1.392
676.0,1.401
677.0,1.387
678.0,1.391
679.0,1.368
680.0,1.379
681.0,1.37
682.0,1.369
683.0,1.367
684.0,1.36
685.0,1.372
686.0,1.364
687.0,1.031
688.0,1.147
689.0,1.149
690.0,1.186
691.0,1.226
692.0,1.253
693.0,1.245
694.0,1.236
695.0,1.272
696.0,1.274
697.0,1.333
698.0,1.313
699.0,1.294
700.0,1.279
701.0,1.27
702.0,1.274
703.0,1.277
704.0,1.311
705.0,1.313
706.0,1.309
707.0,1.309
708.0,1.312
709.0,1.31
710.0,1.312
711.0,1.309
712.0,1.303
713.0,1.292
714.0,1.297
715.0,1.261
716.0,1.263
717.0,1.142
718.0,1.058
719.0,0.9752
720.0,1.024
721.0,1.101
722.0,1.228
723.0,1.16
724.0,1.065
725.0,1.054
726.0,1.099
727.0,1.105
728.0,1.054
729.0,1.077
730.0,1.138
731.0,1.095
732.0,1.153
733.0,1.204
734.0,1.228
735.0,1.205
736.0,1.204
737.0,1.209
738.0,1.217
739.0,1.194
740.0,1.221
741.0,1.207
742.0,1.207
743.0,1.237
744.0,1.233
745.0,1.232
746.0,1.238
747.0,1.24
748.0,1.238
749.0,1.224
750.0,1.223
751.0,1.211
752.0,1.216
753.0,1.222
754.0,1.225
755.0,1.219
756.0,1.218
757.0,1.22
758.0,1.205
759.0,1.187
760.0,0.3392
761.0,0.2155
762.0,0.7388
763.0,0.4566
764.0,0.607
765.0,0.7397
766.0,0.8435
767.0,1.003
768.0,1.11
769.0,1.123
770.0,1.15
771.0,1.154
772.0,1.155
773.0,1.163
774.0,1.157
775.0,1.148
776.0,1.162
777.0,1.147
778.0,1.14
779.0,1.141
780.0,1.135
781.0,1.136
782.0,1.143
783.0,1.123
784.0,1.129
785.0,1.121
786.0,1.134
787.0,1.119
788.0,1.107
789.0,1.108
790.0,1.085
791.0,1.088
792.0,1.079
793.0,1.063
794.0,1.074
795.0,1.094
796.0,1.07
797.0,1.072
798.0,1.094
799.0,1.089
800.0,1.072
801.0,1.071
802.0,1.068
803.0,1.061
804.0,1.062
805.0,1.056
806.0,1.081
807.0,1.069
808.0,1.069
809.0,1.053
810.0,1.047
811.0,1.053
812.0,1.03
813.0,1.013
814.0,0.9149
815.0,0.9088
816.0,0.8499
817.0,0.8622
818.0,0.8354
819.0,0.9129
820.0,0.8682
821.0,0.9864
822.0,0.9631
823.0,0.7016
824.0,0.9447
825.0,0.9713
826.0,0.943
827.0,0.986
828.0,0.8617
829.0,0.9357
830.0,0.9263
831.0,0.9286
832.0,0.905
833.0,0.9492
834.0,0.9242
835.0,0.9973
836.0,0.9658
837.0,0.9995
838.0,0.9732
839.0,0.9835
840.0,1.004
841.0,0.9919
842.0,0.9908
843.0,0.9871
844.0,0.9752
845.0,1.006
846.0,1.001
847.0,0.9813
848.0,0.9767
849.0,0.9491
850.0,0.9092
851.0,0.9642
852.0,0.9568
853.0,0.9199
854.0,0.7953
855.0,0.8724
856.0,0.954
857.0,0.9744
858.0,0.9677
859.0,0.968
860.0,0.9693
861.0,0.9643
862.0,0.9793
863.0,1.002
864.0,0.9523
865.0,0.9439
866.0,0.8488
867.0,0.8858
868.0,0.9639
869.0,0.9439
870.0,0.9709
871.0,0.9577
872.0,0.9543
873.0,0.9525
874.0,0.9412
875.0,0.9222
876.0,0.932
877.0,0.9414
878.0,0.9519
879.0,0.9372
880.0,0.9172
881.0,0.9042
882.0,0.924
883.0,0.9263
884.0,0.9224
885.0,0.9294
886.0,0.8884
887.0,0.8959
888.0,0.9105
889.0,0.9186
890.0,0.9136
891.0,0.9108
892.0,0.8878
893.0,0.8645
894.0,0.8422
895.0,0.8062
896.0,0.7649
897.0,0.6719
898.0,0.7244
899.0,0.5698
900.0,0.733
901.0,0.5961
902.0,0.6754
903.0,0.6897
904.0,0.8363
905.0,0.8124
906.0,0.7643
907.0,0.6428
908.0,0.6527
909.0,0.6963
910.0,0.6347
911.0,0.6654
912.0,0.6909
913.0,0.645
914.0,0.6364
915.0,0.6872
916.0,0.5885
917.0,0.7249
918.0,0.6037
919.0,0.7337
920.0,0.7322
921.0,0.7587
922.0,0.6919
923.0,0.7324
924.0,0.7096
925.0,0.6948
926.0,0.7022
927.0,0.7731
928.0,0.6043
929.0,0.5618
930.0,0.4582
931.0,0.4312
932.0,0.3274
933.0,0.2758
934.0,0.1718
935.0,0.2742
936.0,0.184
937.0,0.1885
938.0,0.2265
939.0,0.418
940.0,0.4912
941.0,0.3867
942.0,0.4372
943.0,0.3004
944.0,0.3054
945.0,0.3961
946.0,0.219
947.0,0.4022
948.0,0.2987
949.0,0.5208
950.0,0.173
951.0,0.5099
952.0,0.2974
953.0,0.3688
954.0,0.4355
955.0,0.3711
956.0,0.3536
957.0,0.3003
958.0,0.4764
959.0,0.3961
960.0,0.4432
961.0,0.4842
962.0,0.4601
963.0,0.5187
964.0,0.4793
965.0,0.5152
966.0,0.5184
967.0,0.5171
968.0,0.6543
969.0,0.6857
970.0,0.6356
971.0,0.7106
972.0,0.683
973.0,0.6117
974.0,0.5834
975.0,0.5987
976.0,0.5773
977.0,0.6396
978.0,0.6149
979.0,0.6384
980.0,0.6041
981.0,0.7059
982.0,0.681
983.0,0.6575
984.0,0.7207
985.0,0.6783
986.0,0.7295
987.0,0.7194
988.0,0.7182
989.0,0.7249
990.0,0.7135
991.0,0.7276
992.0,0.7314
993.0,0.7193
994.0,0.7308
995.0,0.7293
996.0,0.7268
997.0,0.7275
998.0,0.7244
999.0,0.7216
1000.0,0.7175
1001.0,0.7254
1002.0,0.7095
1003.0,0.7129
1004.0,0.6965
1005.0,0.6696
1006.0,0.6965
1007.0,0.7109
1008.0,0.7078
1009.0,0.7048
1010.0,0.7023
1011.0,0.7073
1012.0,0.7019
1013.0,0.7054
1014.0,0.7004
1015.0,0.696
1016.0,0.6929
1017.0,0.6949
1018.0,0.6918
1019.0,0.6786
1020.0,0.6884
1021.0,0.6872
1022.0,0.6825
1023.0,0.6898
1024.0,0.6825
1025.0,0.6889
1026.0,0.6863
1027.0,0.6847
1028.0,0.6834
1029.0,0.6755
1030.0,0.6796
1031.0,0.6771
1032.0,0.675
1033.0,0.6649
1034.0,0.6649
1035.0,0.667
1036.0,0.6706
1037.0,0.6597
1038.0,0.6627
1039.0,0.6624
1040.0,0.6598
1041.0,0.6626
1042.0,0.658
1043.0,0.656
1044.0,0.6584
1045.0,0.6496
1046.0,0.6425
1047.0,0.6484
1048.0,0.6521
1049.0,0.6499
1050.0,0.6471
1051.0,0.6463
1052.0,0.6439
1053.0,0.6389
1054.0,0.6405
1055.0,0.6412
1056.0,0.6392
1057.0,0.6374
1058.0,0.622
1059.0,0.6229
1060.0,0.6221
1061.0,0.6215
1062.0,0.625
1063.0,0.6191
1064.0,0.6263
1065.0,0.6224
1066.0,0.6097
1067.0,0.6177
1068.0,0.6047
1069.0,0.5857
1070.0,0.606
1071.0,0.6141
1072.0,0.6081
1073.0,0.5991
1074.0,0.613
1075.0,0.5867
1076.0,0.6128
1077.0,0.6043
1078.0,0.5938
1079.0,0.6024
1080.0,0.5951
1081.0,0.578
1082.0,0.5837
1083.0,0.5846
1084.0,0.5779
1085.0,0.5961
1086.0,0.5511
1087.0,0.5634
1088.0,0.5849
1089.0,0.571
1090.0,0.5615
1091.0,0.5841
1092.0,0.5817
1093.0,0.5062
1094.0,0.5338
1095.0,0.5253
1096.0,0.507
1097.0,0.5681
1098.0,0.5003
1099.0,0.5198
1100.0,0.4893
1101.0,0.4936
1102.0,0.475
1103.0,0.473
1104.0,0.4733
1105.0,0.5092
1106.0,0.4121
1107.0,0.4881
1108.0,0.4275
1109.0,0.4256
1110.0,0.4854
1111.0,0.3481
1112.0,0.4213
1113.0,0.2881
1114.0,0.3193
1115.0,0.2654
1116.0,0.2245
1117.0,0.09728
1118.0,0.2392
1119.0,0.1301
1120.0,0.1638
1121.0,0.21
1122.0,0.09848
1123.0,0.1477
1124.0,0.1249
1125.0,0.1601
1126.0,0.06595
1127.0,0.1797
1128.0,0.1184
1129.0,0.1238
1130.0,0.08675
1131.0,0.3157
1132.0,0.2525
1133.0,0.1732
1134.0,0.05322
1135.0,0.01959
1136.0,0.1493
1137.0,0.3137
1138.0,0.2243
1139.0,0.3103
1140.0,0.2686
1141.0,0.2131
1142.0,0.2399
1143.0,0.3306
1144.0,0.1284
1145.0,0.1666
1146.0,0.1799
1147.0,0.07416
1148.0,0.2864
1149.0,0.2364
1150.0,0.1377
1151.0,0.2228
1152.0,0.2653
1153.0,0.252
1154.0,0.1642
1155.0,0.3241
1156.0,0.2965
1157.0,0.3262
1158.0,0.3223
1159.0,0.3413
1160.0,0.2995
1161.0,0.3551
1162.0,0.3578
1163.0,0.4602
1164.0,0.4033
1165.0,0.3882
1166.0,0.3804
1167.0,0.4099
1168.0,0.416
1169.0,0.4228
1170.0,0.4529
1171.0,0.4428
1172.0,0.4471
1173.0,0.452
1174.0,0.3415
1175.0,0.4389
1176.0,0.4738
1177.0,0.4604
1178.0,0.3601
1179.0,0.4772
1180.0,0.4357
1181.0,0.4486
1182.0,0.325
1183.0,0.4395
1184.0,0.417
1185.0,0.4068
1186.0,0.4675
1187.0,0.4498
1188.0,0.3317
1189.0,0.4202
1190.0,0.4569
1191.0,0.4414
1192.0,0.4624
1193.0,0.4459
1194.0,0.4577
1195.0,0.4382
1196.0,0.4255
1197.0,0.4549
1198.0,0.4206
1199.0,0.3701
1200.0,0.4408
1201.0,0.4293
1202.0,0.4245
1203.0,0.421
1204.0,0.3753
1205.0,0.4307
1206.0,0.4688
1207.0,0.4246
1208.0,0.4142
1209.0,0.4218
1210.0,0.4366
1211.0,0.4206
1212.0,0.4206
1213.0,0.4559
1214.0,0.4281
1215.0,0.4213
1216.0,0.4543
1217.0,0.4447
1218.0,0.4508
1219.0,0.4464
1220.0,0.451
1221.0,0.4542
1222.0,0.4439
1223.0,0.4407
1224.0,0.4396
1225.0,0.4514
1226.0,0.453
1227.0,0.424
1228.0,0.454
1229.0,0.453
1230.0,0.4464
1231.0,0.4553
1232.0,0.4528
1233.0,0.442
1234.0,0.454
1235.0,0.4518
1236.0,0.4545
1237.0,0.4501
1238.0,0.453
1239.0,0.4472
1240.0,0.4487
1241.0,0.4477
1242.0,0.4457
1243.0,0.442
1244.0,0.4456
1245.0,0.4472
1246.0,0.4446
1247.0,0.4432
1248.0,0.4435
1249.0,0.4444
1250.0,0.442
1251.0,0.4371
1252.0,0.4362
1253.0,0.4344
1254.0,0.4313
1255.0,0.4362
1256.0,0.427
1257.0,0.4253
1258.0,0.4308
1259.0,0.42
1260.0,0.4216
1261.0,0.4039
1262.0,0.395
1263.0,0.3959
1264.0,0.3729
1265.0,0.3932
1266.0,0.3828
1267.0,0.3865
1268.0,0.3714
1269.0,0.2649
1270.0,0.3863
1271.0,0.4019
1272.0,0.4025
1273.0,0.3989
1274.0,0.3993
1275.0,0.4039
1276.0,0.4067
1277.0,0.4081
1278.0,0.4134
1279.0,0.4099
1280.0,0.4045
1281.0,0.3849
1282.0,0.3691
1283.0,0.3979
1284.0,0.4078
1285.0,0.4102
1286.0,0.4147
1287.0,0.4102
1288.0,0.4096
1289.0,0.4003
1290.0,0.4057
1291.0,0.4107
1292.0,0.3929
1293.0,0.4045
1294.0,0.402
1295.0,0.4018
1296.0,0.3882
1297.0,0.371
1298.0,0.3919
1299.0,0.4043
1300.0,0.3551
1301.0,0.3633
1302.0,0.3904
1303.0,0.349
1304.0,0.3098
1305.0,0.3835
1306.0,0.3841
1307.0,0.3123
1308.0,0.3477
1309.0,0.3821
1310.0,0.3069
1311.0,0.3361
1312.0,0.3289
1313.0,0.3244
1314.0,0.2948
1315.0,0.2937
1316.0,0.3327
1317.0,0.3166
1318.0,0.3391
1319.0,0.2797
1320.0,0.2678
1321.0,0.3069
1322.0,0.312
1323.0,0.247
1324.0,0.2742
1325.0,0.3286
1326.0,0.2898
1327.0,0.2784
1328.0,0.244
1329.0,0.1937
1330.0,0.2467
1331.0,0.1622
1332.0,0.1628
1333.0,0.2229
1334.0,0.1838
1335.0,0.2459
1336.0,0.2009
1337.0,0.1819
1338.0,0.1961
1339.0,0.1936
1340.0,0.185
1341.0,0.188
1342.0,0.197
1343.0,0.15
1344.0,0.08966
1345.0,0.1269
1346.0,0.07496
1347.0,0.07817
1348.0,0.007946
1349.0,0.02487
1350.0,0.02345
1351.0,0.008461
1352.0,0.00337
1353.0,0.0002815
1354.0,0.0007233
1355.0,1.51e-05
1356.0,0.0001439
1357.0,0.0002149
1358.0,1.722e-05
1359.0,4.285e-06
1360.0,1.005e-05
1361.0,5.034e-08
1362.0,2.789e-10
1363.0,1.565e-05
1364.0,7.158e-06
1365.0,2.1e-10
1366.0,5.661e-05
1367.0,2.185e-05
1368.0,7.652e-12
1369.0,2.835e-06
1370.0,1.855e-06
1371.0,1.565e-07
1372.0,1.217e-05
1373.0,0.0001492
1374.0,0.0004996
1375.0,0.0008863
1376.0,0.0006414
1377.0,0.0003192
1378.0,0.00258
1379.0,0.0001378
1380.0,0.0002367
1381.0,7.93e-06
1382.0,1.186e-05
1383.0,2.474e-07
1384.0,3.556e-06
1385.0,8.288e-06
1386.0,1.275e-05
1387.0,0.000604
1388.0,1.338e-05
1389.0,0.001472
1390.0,0.001254
1391.0,0.0009171
1392.0,7.003e-05
1393.0,0.0003059
1394.0,0.0002566
1395.0,2.969e-06
1396.0,5.99e-08
1397.0,0.0001399
1398.0,0.002958
1399.0,0.00189
1400.0,3.753e-08
1401.0,9.346e-08
1402.0,0.003493
1403.0,0.004705
1404.0,0.001487
1405.0,1.852e-06
1406.0,0.004328
1407.0,0.0003726
1408.0,0.003485
1409.0,0.001483
1410.0,0.001062
1411.0,0.00409
1412.0,0.004931
1413.0,0.03492
1414.0,0.0008185
1415.0,0.0004438
1416.0,0.04785
1417.0,0.01817
1418.0,0.02069
1419.0,0.003424
1420.0,0.01284
1421.0,0.01429
1422.0,0.06121
1423.0,0.01296
1424.0,0.02339
1425.0,0.03542
1426.0,0.03718
1427.0,0.06114
1428.0,0.007693
1429.0,0.04876
1430.0,0.07571
1431.0,0.08131
1432.0,0.00618
1433.0,0.05446
1434.0,0.0291
1435.0,0.0338
1436.0,0.05753
1437.0,0.04425
1438.0,0.02087
1439.0,0.0748
1440.0,0.0566
1441.0,0.04665
1442.0,0.05075
1443.0,0.05843
1444.0,0.07893
1445.0,0.06585
1446.0,0.03093
1447.0,0.04879
1448.0,0.1343
1449.0,0.1208
1450.0,0.0361
1451.0,0.01568
1452.0,0.07664
1453.0,0.09806
1454.0,0.1542
1455.0,0.07804
1456.0,0.1071
1457.0,0.135
1458.0,0.1512
1459.0,0.18
1460.0,0.09821
1461.0,0.1059
1462.0,0.1484
1463.0,0.05295
1464.0,0.1693
1465.0,0.1033
1466.0,0.08021
1467.0,0.04641
1468.0,0.0922
1469.0,0.1106
