interpolation:linear
wavelength,value
280.0,2.0580000000000001e-25
280.5,8.465e-24
281.0,5.017e-23
281.5,1.987e-21
282.0,1.829e-20
282.5,7.737e-20
283.0,3.8e-19
283.5,7.557e-19
284.0,2.454e-17
284.5,9.402e-17
285.0,2.467e-16
285.5,2.166e-15
286.0,1.072e-14
286.5,6.865e-14
287.0,2.504e-13
287.5,1.275e-12
288.0,6.557e-12
288.5,2.792e-11
289.0,1.004e-10
289.5,4.038e-10
290.0,1.395e-09
290.5,3.399e-09
291.0,8.886e-09
291.5,3.205e-08
292.0,8.757e-08
292.5,1.374e-07
293.0,3.363e-07
293.5,9.644e-07
294.0,1.701e-06
294.5,3.114e-06
295.0,5.753e-06
295.5,1.478e-05
296.0,2.768e-05
296.5,3.747e-05
297.0,4.929e-05
297.5,0.0001257
298.0,0.0001894
298.5,0.0001837
299.0,0.0003902
299.5,0.0005998
300.0,0.000633
300.5,0.0008759
301.0,0.00146
301.5,0.002154
302.0,0.001777
302.5,0.003397
303.0,0.005908
303.5,0.007282
304.0,0.006712
304.5,0.009409
305.0,0.01302
305.5,0.01411
306.0,0.01342
306.5,0.01616
307.0,0.02209
307.5,0.02716
308.0,0.02848
308.5,0.03247
309.0,0.02896
309.5,0.03234
310.0,0.03217
310.5,0.052
311.0,0.06471
311.5,0.06244
312.0,0.06059
312.5,0.07231
313.0,0.07783
313.5,0.07704
314.0,0.0938
314.5,0.07992
315.0,0.1048
315.5,0.09019
316.0,0.07624
316.5,0.1063
317.0,0.1329
317.5,0.1404
318.0,0.1075
318.5,0.128
319.0,0.149
319.5,0.127
320.0,0.1552
320.5,0.1858
321.0,0.1588
321.5,0.1523
322.0,0.1715
322.5,0.1496
323.0,0.1449
323.5,0.1692
324.0,0.1974
324.5,0.2044
325.0,0.185
325.5,0.2328
326.0,0.2766
326.5,0.2729
327.0,0.2753
327.5,0.2697
328.0,0.2475
328.5,0.2534
329.0,0.2972
329.5,0.3363
330.0,0.343
330.5,0.2813
331.0,0.2898
331.5,0.2916
332.0,0.3098
332.5,0.3048
333.0,0.3071
333.5,0.2836
334.0,0.2926
334.5,0.333
335.0,0.311
335.5,0.354
336.0,0.2459
336.5,0.2997
337.0,0.2487
337.5,0.3115
338.0,0.3009
338.5,0.3405
339.0,0.3403
339.5,0.3273
340.0,0.3948
340.5,0.3567
341.0,0.3431
341.5,0.319
342.0,0.3835
342.5,0.3608
343.0,0.3965
343.5,0.3735
344.0,0.2807
344.5,0.2786
345.0,0.3741
345.5,0.3846
346.0,0.3287
346.5,0.374
347.0,0.4016
347.5,0.3254
348.0,0.3738
348.5,0.3756
349.0,0.3499
349.5,0.3474
350.0,0.4312
350.5,0.4564
351.0,0.4085
351.5,0.3963
352.0,0.4285
352.5,0.3362
353.0,0.4252
353.5,0.4564
354.0,0.4756
354.5,0.4839
355.0,0.4836
355.5,0.4383
356.0,0.4601
356.5,0.3941
357.0,0.3267
357.5,0.4012
358.0,0.319
358.5,0.2735
359.0,0.3836
359.5,0.49
360.0,0.5211
360.5,0.4179
361.0,0.3821
361.5,0.4411
362.0,0.3824
362.5,0.5305
363.0,0.4777
363.5,0.4411
364.0,0.5409
364.5,0.4636
365.0,0.4734
365.5,0.5957
366.0,0.6328
366.5,0.596
367.0,0.582
367.5,0.6055
368.0,0.5312
368.5,0.5374
369.0,0.5818
369.5,0.6217
370.0,0.6644
370.5,0.5169
371.0,0.5536
371.5,0.6944
372.0,0.462
372.5,0.5553
373.0,0.5661
373.5,0.3692
374.0,0.5377
374.5,0.4463
375.0,0.4349
375.5,0.6509
376.0,0.5408
376.5,0.5618
377.0,0.5961
377.5,0.699
378.0,0.7595
378.5,0.7196
379.0,0.5954
379.5,0.5452
380.0,0.5682
380.5,0.6897
381.0,0.6927
381.5,0.5502
382.0,0.4897
382.5,0.4183
383.0,0.3881
383.5,0.3746
384.0,0.414
384.5,0.6102
385.0,0.6064
385.5,0.5658
386.0,0.4856
386.5,0.6391
387.0,0.5322
387.5,0.599
388.0,0.5542
388.5,0.5489
389.0,0.5937
389.5,0.7205
390.0,0.7245
390.5,0.668
391.0,0.7879
391.5,0.8052
392.0,0.6795
392.5,0.6095
393.0,0.3397
393.5,0.2474
394.0,0.5043
394.5,0.6423
395.0,0.7852
395.5,0.7991
396.0,0.6941
396.5,0.4064
397.0,0.3055
397.5,0.6225
398.0,0.8734
398.5,0.9043
399.0,0.9806
399.5,0.979
400.0,1.018
401.0,1.049
402.0,1.11
403.0,1.058
404.0,1.045
405.0,1.048
406.0,1.034
407.0,1.02
408.0,1.063
409.0,1.141
410.0,0.9996
411.0,1.086
412.0,1.169
413.0,1.143
414.0,1.16
415.0,1.166
416.0,1.189
417.0,1.163
418.0,1.145
419.0,1.163
420.0,1.16
421.0,1.217
422.0,1.16
423.0,1.135
424.0,1.204
425.0,1.205
426.0,1.176
427.0,1.156
428.0,1.129
429.0,1.071
430.0,0.9393
431.0,0.9333
432.0,1.207
433.0,1.217
434.0,1.132
435.0,1.185
436.0,1.337
437.0,1.321
438.0,1.205
439.0,1.25
440.0,1.292
441.0,1.341
442.0,1.441
443.0,1.406
444.0,1.439
445.0,1.411
446.0,1.348
447.0,1.46
448.0,1.486
449.0,1.494
450.0,1.538
451.0,1.598
452.0,1.542
453.0,1.452
454.0,1.518
455.0,1.53
456.0,1.569
457.0,1.598
458.0,1.546
459.0,1.541
460.0,1.547
461.0,1.585
462.0,1.599
463.0,1.591
464.0,1.566
465.0,1.547
466.0,1.564
467.0,1.538
468.0,1.559
469.0,1.57
470.0,1.522
471.0,1.522
472.0,1.606
473.0,1.587
474.0,1.592
475.0,1.609
476.0,1.564
477.0,1.571
478.0,1.617
479.0,1.609
480.0,1.613
481.0,1.645
482.0,1.655
483.0,1.636
484.0,1.604
485.0,1.529
486.0,1.338
487.0,1.403
488.0,1.542
489.0,1.549
490.0,1.631
491.0,1.604
492.0,1.516
493.0,1.568
494.0,1.585
495.0,1.6
496.0,1.612
497.0,1.639
498.0,1.564
499.0,1.586
500.0,1.542
501.0,1.516
502.0,1.497
503.0,1.561
504.0,1.527
505.0,1.58
506.0,1.633
507.0,1.555
508.0,1.507
509.0,1.55
510.0,1.542
511.0,1.584
512.0,1.602
513.0,1.518
514.0,1.509
515.0,1.495
516.0,1.493
517.0,1.327
518.0,1.397
519.0,1.466
520.0,1.521
521.0,1.537
522.0,1.54
523.0,1.514
524.0,1.57
525.0,1.59
526.0,1.521
527.0,1.435
528.0,1.519
529.0,1.603
530.0,1.581
531.0,1.606
532.0,1.553
533.0,1.508
534.0,1.554
535.0,1.588
536.0,1.604
537.0,1.541
538.0,1.569
539.0,1.557
540.0,1.494
541.0,1.506
542.0,1.555
543.0,1.539
544.0,1.567
545.0,1.563
546.0,1.572
547.0,1.571
548.0,1.553
549.0,1.559
550.0,1.578
551.0,1.56
552.0,1.571
553.0,1.545
554.0,1.583
555.0,1.587
556.0,1.567
557.0,1.52
558.0,1.51
559.0,1.483
560.0,1.503
561.0,1.524
562.0,1.514
563.0,1.557
564.0,1.516
565.0,1.505
566.0,1.484
567.0,1.514
568.0,1.503
569.0,1.471
570.0,1.471
571.0,1.462
572.0,1.5
573.0,1.517
574.0,1.514
575.0,1.487
576.0,1.474
577.0,1.491
578.0,1.468
579.0,1.473
580.0,1.499
581.0,1.506
582.0,1.533
583.0,1.536
584.0,1.55
585.0,1.512
586.0,1.481
587.0,1.516
588.0,1.484
589.0,1.324
590.0,1.384
591.0,1.46
592.0,1.445
593.0,1.464
594.0,1.456
595.0,1.423
596.0,1.473
597.0,1.459
598.0,1.454
599.0,1.455
600.0,1.456
601.0,1.444
602.0,1.434
603.0,1.458
604.0,1.482
605.0,1.475
606.0,1.469
607.0,1.483
608.0,1.466
609.0,1.469
610.0,1.458
611.0,1.466
612.0,1.462
613.0,1.444
614.0,1.424
615.0,1.455
616.0,1.407
617.0,1.404
618.0,1.458
619.0,1.444
620.0,1.453
621.0,1.456
622.0,1.44
623.0,1.419
624.0,1.395
625.0,1.392
626.0,1.413
627.0,1.431
628.0,1.355
629.0,1.404
630.0,1.373
631.0,1.398
632.0,1.381
633.0,1.421
634.0,1.405
635.0,1.427
636.0,1.407
637.0,1.43
638.0,1.442
639.0,1.426
640.0,1.412
641.0,1.411
642.0,1.404
643.0,1.423
644.0,1.418
645.0,1.421
646.0,1.391
647.0,1.379
648.0,1.382
649.0,1.356
650.0,1.356
651.0,1.414
652.0,1.363
653.0,1.396
654.0,1.38
655.0,1.333
656.0,1.179
657.0,1.211
658.0,1.355
659.0,1.364
660.0,1.37
661.0,1.38
662.0,1.384
663.0,1.357
664.0,1.371
665.0,1.371
666.0,1.372
667.0,1.371
668.0,1.371
669.0,1.392
670.0,1.386
671.0,1.386
672.0,1.374
673.0,1.394
674.0,1.389
675.0,1.377
676.0,1.386
677.0,1.373
678.0,1.376
679.0,1.354
680.0,1.365
681.0,1.357
682.0,1.355
683.0,1.353
684.0,1.346
685.0,1.358
686.0,1.35
687.0,0.9758
688.0,1.106
689.0,1.108
690.0,1.15
691.0,1.197
692.0,1.229
693.0,1.221
694.0,1.211
695.0,1.252
696.0,1.254
697.0,1.319
698.0,1.299
699.0,1.276
700.0,1.261
701.0,1.251
702.0,1.256
703.0,1.259
704.0,1.295
705.0,1.297
706.0,1.294
707.0,1.295
708.0,1.298
709.0,1.297
710.0,1.299
711.0,1.296
712.0,1.291
713.0,1.28
714.0,1.284
715.0,1.247
716.0,1.249
717.0,1.112
718.0,1.027
719.0,0.9446
720.0,0.9915
721.0,1.076
722.0,1.212
723.0,1.139
724.0,1.038
725.0,1.025
726.0,1.071
727.0,1.08
728.0,1.025
729.0,1.053
730.0,1.113
731.0,1.069
732.0,1.132
733.0,1.188
734.0,1.214
735.0,1.19
736.0,1.189
737.0,1.194
738.0,1.206
739.0,1.182
740.0,1.211
741.0,1.198
742.0,1.198
743.0,1.228
744.0,1.224
745.0,1.224
746.0,1.23
747.0,1.233
748.0,1.23
749.0,1.216
750.0,1.216
751.0,1.204
752.0,1.209
753.0,1.215
754.0,1.218
755.0,1.211
756.0,1.211
757.0,1.213
758.0,1.198
759.0,1.178
760.0,0.2776
761.0,0.1646
762.0,0.6837
763.0,0.3914
764.0,0.5439
765.0,0.6844
766.0,0.8014
767.0,0.9734
768.0,1.094
769.0,1.11
770.0,1.141
771.0,1.147
772.0,1.149
773.0,1.157
774.0,1.151
775.0,1.142
776.0,1.156
777.0,1.141
778.0,1.134
779.0,1.135
780.0,1.129
781.0,1.13
782.0,1.137
783.0,1.118
784.0,1.123
785.0,1.115
786.0,1.128
787.0,1.111
788.0,1.099
789.0,1.099
790.0,1.075
791.0,1.08
792.0,1.071
793.0,1.055
794.0,1.068
795.0,1.087
796.0,1.06
797.0,1.062
798.0,1.087
799.0,1.081
800.0,1.064
801.0,1.062
802.0,1.059
803.0,1.052
804.0,1.053
805.0,1.048
806.0,1.075
807.0,1.063
808.0,1.063
809.0,1.046
810.0,1.039
811.0,1.043
812.0,1.018
813.0,0.9993
814.0,0.8937
815.0,0.8879
816.0,0.8287
817.0,0.8421
818.0,0.814
819.0,0.8973
820.0,0.8502
821.0,0.9764
822.0,0.9515
823.0,0.6752
824.0,0.9299
825.0,0.9607
826.0,0.9296
827.0,0.9755
828.0,0.8428
829.0,0.9231
830.0,0.9128
831.0,0.9155
832.0,0.8904
833.0,0.9392
834.0,0.9112
835.0,0.99
836.0,0.9546
837.0,0.9925
838.0,0.9647
839.0,0.977
840.0,0.9977
841.0,0.985
842.0,0.9852
843.0,0.9827
844.0,0.9702
845.0,1.001
846.0,0.9969
847.0,0.9778
848.0,0.9727
849.0,0.9452
850.0,0.9055
851.0,0.9597
852.0,0.9526
853.0,0.9163
854.0,0.7919
855.0,0.8692
856.0,0.9503
857.0,0.9709
858.0,0.9641
859.0,0.9647
860.0,0.9662
861.0,0.9611
862.0,0.9761
863.0,0.9992
864.0,0.9493
865.0,0.941
866.0,0.8462
867.0,0.8831
868.0,0.961
869.0,0.9411
870.0,0.968
871.0,0.9549
872.0,0.9515
873.0,0.9497
874.0,0.9384
875.0,0.9195
876.0,0.9292
877.0,0.9386
878.0,0.949
879.0,0.9344
880.0,0.9145
881.0,0.9012
882.0,0.9209
883.0,0.9235
884.0,0.9195
885.0,0.9265
886.0,0.8846
887.0,0.8929
888.0,0.9068
889.0,0.9159
890.0,0.9098
891.0,0.9076
892.0,0.8834
893.0,0.8584
894.0,0.833
895.0,0.7933
896.0,0.7502
897.0,0.6529
898.0,0.7076
899.0,0.5487
900.0,0.7195
901.0,0.5746
902.0,0.6608
903.0,0.6717
904.0,0.8272
905.0,0.8015
906.0,0.7524
907.0,0.6239
908.0,0.6345
909.0,0.6813
910.0,0.6132
911.0,0.6472
912.0,0.6742
913.0,0.6229
914.0,0.6158
915.0,0.6665
916.0,0.5675
917.0,0.7084
918.0,0.5822
919.0,0.7186
920.0,0.7207
921.0,0.7482
922.0,0.6765
923.0,0.7225
924.0,0.6939
925.0,0.6791
926.0,0.6865
927.0,0.7613
928.0,0.5792
929.0,0.5343
930.0,0.4288
931.0,0.4048
932.0,0.3005
933.0,0.2491
934.0,0.1469
935.0,0.2509
936.0,0.1631
937.0,0.1662
938.0,0.2018
939.0,0.3924
940.0,0.4659
941.0,0.3601
942.0,0.4116
943.0,0.2773
944.0,0.2863
945.0,0.3698
946.0,0.1972
947.0,0.3738
948.0,0.2761
949.0,0.4915
950.0,0.1505
951.0,0.4824
952.0,0.271
953.0,0.3423
954.0,0.4112
955.0,0.3453
956.0,0.3312
957.0,0.2726
958.0,0.4572
959.0,0.3724
960.0,0.4171
961.0,0.4612
962.0,0.4373
963.0,0.498
964.0,0.4584
965.0,0.4955
966.0,0.4971
967.0,0.4956
968.0,0.6436
969.0,0.6737
970.0,0.6217
971.0,0.7026
972.0,0.6739
973.0,0.5959
974.0,0.567
975.0,0.5849
976.0,0.5603
977.0,0.6281
978.0,0.6007
979.0,0.6262
980.0,0.5907
981.0,0.6984
982.0,0.6711
983.0,0.6463
984.0,0.716
985.0,0.6685
986.0,0.7265
987.0,0.7147
988.0,0.7134
989.0,0.723
990.0,0.709
991.0,0.7255
992.0,0.7295
993.0,0.7156
994.0,0.7291
995.0,0.7279
996.0,0.725
997.0,0.7259
998.0,0.7227
999.0,0.72
1000.0,0.7155
1001.0,0.7238
1002.0,0.7062
1003.0,0.7112
1004.0,0.6944
1005.0,0.6682
1006.0,0.6948
1007.0,0.7093
1008.0,0.7059
1009.0,0.7026
1010.0,0.6999
1011.0,0.7057
1012.0,0.7001
1013.0,0.704
1014.0,0.699
1015.0,0.6945
1016.0,0.6915
1017.0,0.6933
1018.0,0.6905
1019.0,0.6766
1020.0,0.687
1021.0,0.686
1022.0,0.681
1023.0,0.6883
1024.0,0.6802
1025.0,0.6875
1026.0,0.6849
1027.0,0.6832
1028.0,0.6819
1029.0,0.674
1030.0,0.6783
1031.0,0.6757
1032.0,0.6737
1033.0,0.6636
1034.0,0.6636
1035.0,0.6657
1036.0,0.6693
1037.0,0.6584
1038.0,0.6613
1039.0,0.661
1040.0,0.6584
1041.0,0.6611
1042.0,0.6565
1043.0,0.6545
1044.0,0.6569
1045.0,0.648
1046.0,0.641
1047.0,0.6468
1048.0,0.6504
1049.0,0.6482
1050.0,0.6453
1051.0,0.6445
1052.0,0.642
1053.0,0.637
1054.0,0.6385
1055.0,0.639
1056.0,0.6369
1057.0,0.6351
1058.0,0.6196
1059.0,0.6204
1060.0,0.6196
1061.0,0.6189
1062.0,0.6223
1063.0,0.6163
1064.0,0.6236
1065.0,0.6194
1066.0,0.6069
1067.0,0.6149
1068.0,0.6017
1069.0,0.583
1070.0,0.603
1071.0,0.6116
1072.0,0.6052
1073.0,0.5963
1074.0,0.6109
1075.0,0.5827
1076.0,0.6106
1077.0,0.601
1078.0,0.5902
1079.0,0.6005
1080.0,0.5918
1081.0,0.574
1082.0,0.5812
1083.0,0.5825
1084.0,0.5733
1085.0,0.593
1086.0,0.5449
1087.0,0.5597
1088.0,0.5824
1089.0,0.5668
1090.0,0.5559
1091.0,0.5812
1092.0,0.5792
1093.0,0.498
1094.0,0.5308
1095.0,0.5179
1096.0,0.498
1097.0,0.5658
1098.0,0.4909
1099.0,0.511
1100.0,0.4782
1101.0,0.4833
1102.0,0.4634
1103.0,0.4603
1104.0,0.4608
1105.0,0.5
1106.0,0.3944
1107.0,0.4773
1108.0,0.4118
1109.0,0.4111
1110.0,0.474
1111.0,0.3312
1112.0,0.4074
1113.0,0.2695
1114.0,0.3
1115.0,0.2491
1116.0,0.205
1117.0,0.08228
1118.0,0.2208
1119.0,0.115
1120.0,0.145
1121.0,0.1889
1122.0,0.08429
1123.0,0.1308
1124.0,0.1105
1125.0,0.1428
1126.0,0.05449
1127.0,0.1607
1128.0,0.1013
1129.0,0.1066
1130.0,0.07242
1131.0,0.2927
1132.0,0.2319
1133.0,0.1534
1134.0,0.0432
1135.0,0.016
1136.0,0.1303
1137.0,0.2894
1138.0,0.2054
1139.0,0.2942
1140.0,0.2504
1141.0,0.1951
1142.0,0.2219
1143.0,0.3101
1144.0,0.1145
1145.0,0.1478
1146.0,0.1595
1147.0,0.06109
1148.0,0.2686
1149.0,0.2182
1150.0,0.1228
1151.0,0.2039
1152.0,0.2466
1153.0,0.237
1154.0,0.1442
1155.0,0.3071
1156.0,0.2789
1157.0,0.3095
1158.0,0.306
1159.0,0.3269
1160.0,0.2832
1161.0,0.3417
1162.0,0.3439
1163.0,0.4522
1164.0,0.3925
1165.0,0.3745
1166.0,0.3689
1167.0,0.3995
1168.0,0.4048
1169.0,0.4128
1170.0,0.445
1171.0,0.4345
1172.0,0.4402
1173.0,0.4441
1174.0,0.3274
1175.0,0.4323
1176.0,0.4702
1177.0,0.4546
1178.0,0.3493
1179.0,0.4738
1180.0,0.4285
1181.0,0.4416
1182.0,0.3133
1183.0,0.4336
1184.0,0.4093
1185.0,0.3974
1186.0,0.4628
1187.0,0.4434
1188.0,0.3194
1189.0,0.4137
1190.0,0.4522
1191.0,0.4339
1192.0,0.4581
1193.0,0.4406
1194.0,0.453
1195.0,0.4316
1196.0,0.4177
1197.0,0.4515
1198.0,0.4155
1199.0,0.3607
1200.0,0.4353
1201.0,0.4223
1202.0,0.4184
1203.0,0.4151
1204.0,0.367
1205.0,0.426
1206.0,0.4665
1207.0,0.4181
1208.0,0.4094
1209.0,0.4172
1210.0,0.433
1211.0,0.4152
1212.0,0.4133
1213.0,0.4528
1214.0,0.4217
1215.0,0.4145
1216.0,0.4512
1217.0,0.4407
1218.0,0.4477
1219.0,0.4429
1220.0,0.448
1221.0,0.4517
1222.0,0.4408
1223.0,0.4373
1224.0,0.4356
1225.0,0.4489
1226.0,0.451
1227.0,0.4197
1228.0,0.4525
1229.0,0.4511
1230.0,0.4441
1231.0,0.4544
1232.0,0.4518
1233.0,0.4392
1234.0,0.4534
1235.0,0.4509
1236.0,0.4539
1237.0,0.4488
1238.0,0.4524
1239.0,0.4466
1240.0,0.4482
1241.0,0.4468
1242.0,0.4452
1243.0,0.4415
1244.0,0.4449
1245.0,0.4466
1246.0,0.444
1247.0,0.4425
1248.0,0.4426
1249.0,0.4436
1250.0,0.4412
1251.0,0.436
1252.0,0.4355
1253.0,0.433
1254.0,0.4294
1255.0,0.4353
1256.0,0.425
1257.0,0.423
1258.0,0.4294
1259.0,0.4168
1260.0,0.4186
1261.0,0.3988
1262.0,0.3888
1263.0,0.3896
1264.0,0.3642
1265.0,0.3871
1266.0,0.3751
1267.0,0.3799
1268.0,0.3632
1269.0,0.2456
1270.0,0.3792
1271.0,0.3971
1272.0,0.3979
1273.0,0.3941
1274.0,0.3949
1275.0,0.3999
1276.0,0.403
1277.0,0.4049
1278.0,0.4112
1279.0,0.4076
1280.0,0.4023
1281.0,0.3832
1282.0,0.3681
1283.0,0.3967
1284.0,0.4065
1285.0,0.409
1286.0,0.4139
1287.0,0.4087
1288.0,0.4082
1289.0,0.3976
1290.0,0.4045
1291.0,0.4097
1292.0,0.3892
1293.0,0.4028
1294.0,0.4002
1295.0,0.3994
1296.0,0.3841
1297.0,0.3655
1298.0,0.389
1299.0,0.4029
1300.0,0.3487
1301.0,0.3578
1302.0,0.3876
1303.0,0.3433
1304.0,0.2999
1305.0,0.3803
1306.0,0.3807
1307.0,0.3039
1308.0,0.3427
1309.0,0.3784
1310.0,0.2984
1311.0,0.3302
1312.0,0.3224
1313.0,0.3173
1314.0,0.2865
1315.0,0.2844
1316.0,0.3261
1317.0,0.3098
1318.0,0.3337
1319.0,0.2693
1320.0,0.2591
1321.0,0.2989
1322.0,0.3031
1323.0,0.235
1324.0,0.2641
1325.0,0.3219
1326.0,0.2807
1327.0,0.2688
1328.0,0.2341
1329.0,0.1816
1330.0,0.2334
1331.0,0.148
1332.0,0.1504
1333.0,0.2075
1334.0,0.1727
1335.0,0.2341
1336.0,0.1887
1337.0,0.169
1338.0,0.1826
1339.0,0.1809
1340.0,0.1741
1341.0,0.1741
1342.0,0.1826
1343.0,0.1324
1344.0,0.07897
1345.0,0.113
1346.0,0.06204
1347.0,0.06408
1348.0,0.005361
1349.0,0.01786
1350.0,0.01759
1351.0,0.005361
1352.0,0.00183
1353.0,0.0001231
1354.0,0.0003575
1355.0,5.003e-06
1356.0,6.156e-05
1357.0,9.293e-05
1358.0,5.795e-06
1359.0,1.095e-06
1360.0,3.064e-06
1361.0,8.214e-09
1362.0,3.335e-11
1363.0,4.593e-06
1364.0,1.983e-06
1365.0,1.856e-11
1366.0,1.799e-05
1367.0,6.995e-06
1368.0,3.612e-13
1369.0,7.629e-07
1370.0,4.458e-07
1371.0,3.164e-08
1372.0,3.861e-06
1373.0,5.864e-05
1374.0,0.0002253
1375.0,0.0004082
1376.0,0.0003187
1377.0,0.0001528
1378.0,0.001356
1379.0,6.497e-05
1380.0,0.0001044
1381.0,3.11e-06
1382.0,3.651e-06
1383.0,6.529e-08
1384.0,9.208e-07
1385.0,2.869e-06
1386.0,3.65e-06
1387.0,0.0002588
1388.0,5.31e-06
1389.0,0.0007186
1390.0,0.0006174
1391.0,0.0004319
1392.0,3.043e-05
1393.0,0.0001449
1394.0,0.0001005
1395.0,9.429e-07
1396.0,1.056e-08
1397.0,6.243e-05
1398.0,0.001548
1399.0,0.0009817
1400.0,5.701e-09
1401.0,1.748e-08
1402.0,0.002135
1403.0,0.002805
1404.0,0.0008728
1405.0,5.318e-07
1406.0,0.002444
1407.0,0.0002084
1408.0,0.001976
1409.0,0.000763
1410.0,0.0005654
1411.0,0.002447
1412.0,0.003091
1413.0,0.02592
1414.0,0.0004393
1415.0,0.0002259
1416.0,0.03834
1417.0,0.01306
1418.0,0.01498
1419.0,0.0024
1420.0,0.00923
1421.0,0.01006
1422.0,0.04961
1423.0,0.01002
1424.0,0.01842
1425.0,0.0276
1426.0,0.03002
1427.0,0.05218
1428.0,0.005131
1429.0,0.04035
1430.0,0.0655
1431.0,0.07114
1432.0,0.00408
1433.0,0.04639
1434.0,0.02417
1435.0,0.02611
1436.0,0.0473
1437.0,0.03626
1438.0,0.01618
1439.0,0.06296
1440.0,0.04732
1441.0,0.03752
1442.0,0.04132
1443.0,0.04968
1444.0,0.06786
1445.0,0.05487
1446.0,0.02523
1447.0,0.03967
1448.0,0.1217
1449.0,0.1074
1450.0,0.02936
1451.0,0.01223
1452.0,0.06628
1453.0,0.08603
1454.0,0.1418
1455.0,0.06905
1456.0,0.0937
1457.0,0.1222
1458.0,0.1408
1459.0,0.167
1460.0,0.08874
1461.0,0.09412
1462.0,0.1352
1463.0,0.04559
1464.0,0.1575
1465.0,0.09544
1466.0,0.06945
1467.0,0.03814
