interpolation:linear
wavelength,value
280.0,4.727999999999999e-22
280.5,1.1890000000000002e-20
281.0,5.887e-20
281.5,1.449e-18
282.0,9.986e-18
282.5,3.476e-17
283.0,1.378e-16
283.5,2.463e-16
284.0,4.867e-15
284.5,1.487e-14
285.0,3.055e-14
285.5,2.011e-13
286.0,8.856e-13
286.5,4.462e-12
287.0,1.364e-11
287.5,5.508e-11
288.0,2.115e-10
288.5,7.71e-10
289.0,2.364e-09
289.5,7.968e-09
290.0,2.384e-08
290.5,5.148e-08
291.0,1.164e-07
291.5,3.491e-07
292.0,8.206e-07
292.5,1.184e-06
293.0,2.598e-06
293.5,6.425e-06
294.0,1.026e-05
294.5,1.741e-05
295.0,2.925e-05
295.5,6.683e-05
296.0,0.0001155
296.5,0.0001449
297.0,0.0001795
297.5,0.0004206
298.0,0.0005917
298.5,0.0005456
299.0,0.001105
299.5,0.001575
300.0,0.001598
300.5,0.002127
301.0,0.003351
301.5,0.004725
302.0,0.003812
302.5,0.007008
303.0,0.01162
303.5,0.01394
304.0,0.01267
304.5,0.01722
305.0,0.02286
305.5,0.02417
306.0,0.02276
306.5,0.02699
307.0,0.03576
307.5,0.04275
308.0,0.04458
308.5,0.05014
309.0,0.04422
309.5,0.04799
310.0,0.04711
310.5,0.07561
311.0,0.09306
311.5,0.0893
312.0,0.08489
312.5,0.09995
313.0,0.1068
313.5,0.1061
314.0,0.1273
314.5,0.1064
315.0,0.1389
315.5,0.1204
316.0,0.1003
316.5,0.1381
317.0,0.1724
317.5,0.1826
318.0,0.1386
318.5,0.1626
319.0,0.1878
319.5,0.1615
320.0,0.1974
320.5,0.2331
321.0,0.1969
321.5,0.1884
322.0,0.2143
322.5,0.1865
323.0,0.1792
323.5,0.2066
324.0,0.2403
324.5,0.2496
325.0,0.2274
325.5,0.2843
326.0,0.3348
326.5,0.3284
327.0,0.3315
327.5,0.3251
328.0,0.3002
328.5,0.3044
329.0,0.3548
329.5,0.4005
330.0,0.4085
330.5,0.3359
331.0,0.3462
331.5,0.3469
332.0,0.3667
332.5,0.3598
333.0,0.3625
333.5,0.3354
334.0,0.3458
334.5,0.392
335.0,0.3651
335.5,0.4148
336.0,0.2879
336.5,0.351
337.0,0.2914
337.5,0.3648
338.0,0.3512
338.5,0.3967
339.0,0.3959
339.5,0.3805
340.0,0.4591
340.5,0.4144
341.0,0.3977
341.5,0.3693
342.0,0.4435
342.5,0.4168
343.0,0.4579
343.5,0.431
344.0,0.3241
344.5,0.3211
345.0,0.4305
345.5,0.4421
346.0,0.3775
346.5,0.429
347.0,0.4604
347.5,0.3728
348.0,0.4278
348.5,0.4296
349.0,0.3997
349.5,0.3966
350.0,0.4919
350.5,0.5201
351.0,0.4652
351.5,0.4512
352.0,0.4873
352.5,0.382
353.0,0.4827
353.5,0.5178
354.0,0.5392
354.5,0.5482
355.0,0.5476
355.5,0.4959
356.0,0.5201
356.5,0.4453
357.0,0.3689
357.5,0.4528
358.0,0.3598
358.5,0.3082
359.0,0.4321
359.5,0.5517
360.0,0.5864
360.5,0.4699
361.0,0.4293
361.5,0.4951
362.0,0.4289
362.5,0.5945
363.0,0.5349
363.5,0.4936
364.0,0.6048
364.5,0.518
365.0,0.5287
365.5,0.6649
366.0,0.7057
366.5,0.6643
367.0,0.6482
367.5,0.6741
368.0,0.591
368.5,0.5975
369.0,0.6464
369.5,0.6904
370.0,0.7373
370.5,0.5733
371.0,0.6137
371.5,0.7693
372.0,0.5116
372.5,0.6146
373.0,0.6262
373.5,0.4081
374.0,0.5941
374.5,0.4928
375.0,0.48
375.5,0.718
376.0,0.5963
376.5,0.6192
377.0,0.6566
377.5,0.7695
378.0,0.8357
378.5,0.7915
379.0,0.6546
379.5,0.5992
380.0,0.6242
380.5,0.7573
381.0,0.7601
381.5,0.6034
382.0,0.5367
382.5,0.4582
383.0,0.4248
383.5,0.4098
384.0,0.4528
384.5,0.667
385.0,0.6625
385.5,0.6179
386.0,0.53
386.5,0.6972
387.0,0.5803
387.5,0.6529
388.0,0.6037
388.5,0.5977
389.0,0.6462
389.5,0.7838
390.0,0.7878
390.5,0.7261
391.0,0.856
391.5,0.8745
392.0,0.7377
392.5,0.6613
393.0,0.3685
393.5,0.2682
394.0,0.5465
394.5,0.6957
395.0,0.8501
395.5,0.8649
396.0,0.7509
396.5,0.4395
397.0,0.3303
397.5,0.6726
398.0,0.9434
398.5,0.9765
399.0,1.058
399.5,1.056
400.0,1.098
401.0,1.131
402.0,1.196
403.0,1.138
404.0,1.123
405.0,1.126
406.0,1.11
407.0,1.094
408.0,1.14
409.0,1.223
410.0,1.07
411.0,1.161
412.0,1.249
413.0,1.221
414.0,1.239
415.0,1.244
416.0,1.268
417.0,1.239
418.0,1.219
419.0,1.237
420.0,1.234
421.0,1.294
422.0,1.232
423.0,1.206
424.0,1.278
425.0,1.278
426.0,1.246
427.0,1.225
428.0,1.195
429.0,1.133
430.0,0.9934
431.0,0.9868
432.0,1.276
433.0,1.285
434.0,1.195
435.0,1.251
436.0,1.41
437.0,1.393
438.0,1.27
439.0,1.316
440.0,1.36
441.0,1.411
442.0,1.515
443.0,1.479
444.0,1.512
445.0,1.482
446.0,1.416
447.0,1.532
448.0,1.559
449.0,1.566
450.0,1.611
451.0,1.673
452.0,1.614
453.0,1.52
454.0,1.588
455.0,1.6
456.0,1.64
457.0,1.67
458.0,1.616
459.0,1.609
460.0,1.616
461.0,1.655
462.0,1.669
463.0,1.659
464.0,1.633
465.0,1.613
466.0,1.629
467.0,1.602
468.0,1.623
469.0,1.634
470.0,1.584
471.0,1.583
472.0,1.67
473.0,1.651
474.0,1.656
475.0,1.673
476.0,1.627
477.0,1.634
478.0,1.681
479.0,1.672
480.0,1.676
481.0,1.708
482.0,1.717
483.0,1.696
484.0,1.663
485.0,1.585
486.0,1.386
487.0,1.453
488.0,1.596
489.0,1.603
490.0,1.688
491.0,1.659
492.0,1.568
493.0,1.621
494.0,1.639
495.0,1.654
496.0,1.666
497.0,1.693
498.0,1.615
499.0,1.638
500.0,1.592
501.0,1.566
502.0,1.547
503.0,1.613
504.0,1.579
505.0,1.632
506.0,1.687
507.0,1.606
508.0,1.555
509.0,1.599
510.0,1.591
511.0,1.633
512.0,1.652
513.0,1.565
514.0,1.554
515.0,1.54
516.0,1.538
517.0,1.367
518.0,1.438
519.0,1.51
520.0,1.566
521.0,1.582
522.0,1.585
523.0,1.558
524.0,1.616
525.0,1.637
526.0,1.565
527.0,1.477
528.0,1.564
529.0,1.651
530.0,1.628
531.0,1.654
532.0,1.598
533.0,1.552
534.0,1.599
535.0,1.634
536.0,1.649
537.0,1.585
538.0,1.614
539.0,1.601
540.0,1.536
541.0,1.549
542.0,1.599
543.0,1.582
544.0,1.611
545.0,1.607
546.0,1.616
547.0,1.615
548.0,1.596
549.0,1.601
550.0,1.621
551.0,1.602
552.0,1.614
553.0,1.586
554.0,1.625
555.0,1.63
556.0,1.61
557.0,1.561
558.0,1.551
559.0,1.524
560.0,1.544
561.0,1.565
562.0,1.556
563.0,1.6
564.0,1.558
565.0,1.546
566.0,1.525
567.0,1.556
568.0,1.546
569.0,1.515
570.0,1.515
571.0,1.505
572.0,1.545
573.0,1.563
574.0,1.559
575.0,1.532
576.0,1.519
577.0,1.535
578.0,1.511
579.0,1.516
580.0,1.541
581.0,1.547
582.0,1.574
583.0,1.577
584.0,1.589
585.0,1.55
586.0,1.519
587.0,1.555
588.0,1.525
589.0,1.365
590.0,1.427
591.0,1.502
592.0,1.489
593.0,1.505
594.0,1.498
595.0,1.466
596.0,1.513
597.0,1.5
598.0,1.493
599.0,1.494
600.0,1.494
601.0,1.48
602.0,1.47
603.0,1.494
604.0,1.519
605.0,1.511
606.0,1.504
607.0,1.518
608.0,1.501
609.0,1.503
610.0,1.491
611.0,1.499
612.0,1.495
613.0,1.476
614.0,1.455
615.0,1.486
616.0,1.437
617.0,1.434
618.0,1.489
619.0,1.474
620.0,1.484
621.0,1.487
622.0,1.471
623.0,1.45
624.0,1.425
625.0,1.422
626.0,1.443
627.0,1.462
628.0,1.395
629.0,1.439
630.0,1.407
631.0,1.429
632.0,1.411
633.0,1.45
634.0,1.433
635.0,1.454
636.0,1.434
637.0,1.456
638.0,1.468
639.0,1.451
640.0,1.436
641.0,1.435
642.0,1.427
643.0,1.447
644.0,1.441
645.0,1.445
646.0,1.415
647.0,1.406
648.0,1.409
649.0,1.383
650.0,1.379
651.0,1.438
652.0,1.389
653.0,1.419
654.0,1.402
655.0,1.356
656.0,1.198
657.0,1.23
658.0,1.376
659.0,1.385
660.0,1.39
661.0,1.4
662.0,1.405
663.0,1.377
664.0,1.391
665.0,1.39
666.0,1.39
667.0,1.388
668.0,1.388
669.0,1.409
670.0,1.403
671.0,1.402
672.0,1.39
673.0,1.411
674.0,1.406
675.0,1.393
676.0,1.402
677.0,1.388
678.0,1.392
679.0,1.369
680.0,1.38
681.0,1.372
682.0,1.37
683.0,1.368
684.0,1.361
685.0,1.373
686.0,1.365
687.0,1.035
688.0,1.15
689.0,1.152
690.0,1.188
691.0,1.228
692.0,1.255
693.0,1.247
694.0,1.238
695.0,1.274
696.0,1.276
697.0,1.334
698.0,1.314
699.0,1.296
700.0,1.28
701.0,1.271
702.0,1.276
703.0,1.278
704.0,1.312
705.0,1.314
706.0,1.31
707.0,1.31
708.0,1.313
709.0,1.311
710.0,1.313
711.0,1.31
712.0,1.304
713.0,1.293
714.0,1.298
715.0,1.262
716.0,1.264
717.0,1.144
718.0,1.061
719.0,0.9776
720.0,1.027
721.0,1.103
722.0,1.229
723.0,1.162
724.0,1.067
725.0,1.057
726.0,1.102
727.0,1.107
728.0,1.056
729.0,1.078
730.0,1.14
731.0,1.097
732.0,1.155
733.0,1.205
734.0,1.229
735.0,1.206
736.0,1.205
737.0,1.21
738.0,1.218
739.0,1.194
740.0,1.222
741.0,1.208
742.0,1.207
743.0,1.238
744.0,1.233
745.0,1.233
746.0,1.238
747.0,1.241
748.0,1.239
749.0,1.225
750.0,1.224
751.0,1.212
752.0,1.217
753.0,1.223
754.0,1.226
755.0,1.219
756.0,1.219
757.0,1.221
758.0,1.206
759.0,1.188
760.0,0.3443
761.0,0.2199
762.0,0.7431
763.0,0.4619
764.0,0.612
765.0,0.744
766.0,0.8467
767.0,1.005
768.0,1.111
769.0,1.124
770.0,1.151
771.0,1.155
772.0,1.156
773.0,1.163
774.0,1.158
775.0,1.149
776.0,1.163
777.0,1.147
778.0,1.141
779.0,1.142
780.0,1.135
781.0,1.137
782.0,1.144
783.0,1.124
784.0,1.129
785.0,1.121
786.0,1.134
787.0,1.119
788.0,1.108
789.0,1.108
790.0,1.086
791.0,1.089
792.0,1.08
793.0,1.063
794.0,1.074
795.0,1.094
796.0,1.071
797.0,1.072
798.0,1.094
799.0,1.089
800.0,1.073
801.0,1.072
802.0,1.069
803.0,1.062
804.0,1.062
805.0,1.056
806.0,1.081
807.0,1.069
808.0,1.07
809.0,1.053
810.0,1.048
811.0,1.053
812.0,1.031
813.0,1.014
814.0,0.9166
815.0,0.9104
816.0,0.8515
817.0,0.8638
818.0,0.8371
819.0,0.9141
820.0,0.8696
821.0,0.9872
822.0,0.964
823.0,0.7037
824.0,0.9458
825.0,0.9721
826.0,0.944
827.0,0.9868
828.0,0.8632
829.0,0.9367
830.0,0.9274
831.0,0.9296
832.0,0.9061
833.0,0.9499
834.0,0.9252
835.0,0.9978
836.0,0.9666
837.0,1.0
838.0,0.9739
839.0,0.984
840.0,1.004
841.0,0.9924
842.0,0.9913
843.0,0.9874
844.0,0.9756
845.0,1.006
846.0,1.001
847.0,0.9816
848.0,0.977
849.0,0.9494
850.0,0.9094
851.0,0.9646
852.0,0.9571
853.0,0.9201
854.0,0.7956
855.0,0.8726
856.0,0.9543
857.0,0.9747
858.0,0.968
859.0,0.9682
860.0,0.9696
861.0,0.9645
862.0,0.9795
863.0,1.003
864.0,0.9525
865.0,0.9442
866.0,0.849
867.0,0.886
868.0,0.9642
869.0,0.9441
870.0,0.9711
871.0,0.9579
872.0,0.9545
873.0,0.9527
874.0,0.9414
875.0,0.9224
876.0,0.9322
877.0,0.9416
878.0,0.9521
879.0,0.9374
880.0,0.9174
881.0,0.9044
882.0,0.9243
883.0,0.9266
884.0,0.9226
885.0,0.9297
886.0,0.8886
887.0,0.8962
888.0,0.9107
889.0,0.9188
890.0,0.9139
891.0,0.911
892.0,0.8882
893.0,0.865
894.0,0.8429
895.0,0.8072
896.0,0.766
897.0,0.6734
898.0,0.7258
899.0,0.5715
900.0,0.7341
901.0,0.5978
902.0,0.6766
903.0,0.6911
904.0,0.837
905.0,0.8132
906.0,0.7652
907.0,0.6443
908.0,0.6541
909.0,0.6974
910.0,0.6363
911.0,0.6668
912.0,0.6922
913.0,0.6467
914.0,0.638
915.0,0.6889
916.0,0.5901
917.0,0.7262
918.0,0.6054
919.0,0.7348
920.0,0.7331
921.0,0.7595
922.0,0.693
923.0,0.7331
924.0,0.7108
925.0,0.696
926.0,0.7033
927.0,0.774
928.0,0.6063
929.0,0.5639
930.0,0.4606
931.0,0.4333
932.0,0.3295
933.0,0.2779
934.0,0.1738
935.0,0.2761
936.0,0.1857
937.0,0.1903
938.0,0.2285
939.0,0.42
940.0,0.4932
941.0,0.3889
942.0,0.4392
943.0,0.3022
944.0,0.3069
945.0,0.3982
946.0,0.2208
947.0,0.4044
948.0,0.3006
949.0,0.5231
950.0,0.1748
951.0,0.5121
952.0,0.2995
953.0,0.3709
954.0,0.4374
955.0,0.3732
956.0,0.3554
957.0,0.3025
958.0,0.4779
959.0,0.398
960.0,0.4453
961.0,0.486
962.0,0.4619
963.0,0.5203
964.0,0.481
965.0,0.5168
966.0,0.52
967.0,0.5188
968.0,0.6551
969.0,0.6866
970.0,0.6367
971.0,0.7112
972.0,0.6837
973.0,0.6129
974.0,0.5847
975.0,0.5998
976.0,0.5787
977.0,0.6405
978.0,0.616
979.0,0.6393
980.0,0.6051
981.0,0.7065
982.0,0.6818
983.0,0.6584
984.0,0.7211
985.0,0.679
986.0,0.7297
987.0,0.7197
988.0,0.7185
989.0,0.7251
990.0,0.7138
991.0,0.7278
992.0,0.7316
993.0,0.7196
994.0,0.7309
995.0,0.7294
996.0,0.7269
997.0,0.7277
998.0,0.7245
999.0,0.7217
1000.0,0.7177
1001.0,0.7255
1002.0,0.7098
1003.0,0.713
1004.0,0.6967
1005.0,0.6697
1006.0,0.6966
1007.0,0.711
1008.0,0.7079
1009.0,0.705
1010.0,0.7025
1011.0,0.7074
1012.0,0.7021
1013.0,0.7055
1014.0,0.7005
1015.0,0.6961
1016.0,0.693
1017.0,0.695
1018.0,0.6919
1019.0,0.6787
1020.0,0.6885
1021.0,0.6873
1022.0,0.6826
1023.0,0.69
1024.0,0.6827
1025.0,0.689
1026.0,0.6865
1027.0,0.6848
1028.0,0.6835
1029.0,0.6756
1030.0,0.6797
1031.0,0.6772
1032.0,0.6751
1033.0,0.665
1034.0,0.665
1035.0,0.6671
1036.0,0.6707
1037.0,0.6598
1038.0,0.6628
1039.0,0.6625
1040.0,0.6599
1041.0,0.6627
1042.0,0.6581
1043.0,0.6561
1044.0,0.6585
1045.0,0.6497
1046.0,0.6426
1047.0,0.6485
1048.0,0.6522
1049.0,0.65
1050.0,0.6472
1051.0,0.6465
1052.0,0.644
1053.0,0.6391
1054.0,0.6407
1055.0,0.6413
1056.0,0.6393
1057.0,0.6376
1058.0,0.6221
1059.0,0.6231
1060.0,0.6223
1061.0,0.6217
1062.0,0.6252
1063.0,0.6193
1064.0,0.6265
1065.0,0.6226
1066.0,0.6099
1067.0,0.618
1068.0,0.6049
1069.0,0.5859
1070.0,0.6063
1071.0,0.6142
1072.0,0.6083
1073.0,0.5993
1074.0,0.6132
1075.0,0.587
1076.0,0.613
1077.0,0.6046
1078.0,0.5941
1079.0,0.6025
1080.0,0.5954
1081.0,0.5783
1082.0,0.5839
1083.0,0.5848
1084.0,0.5783
1085.0,0.5963
1086.0,0.5516
1087.0,0.5637
1088.0,0.585
1089.0,0.5713
1090.0,0.5619
1091.0,0.5844
1092.0,0.5819
1093.0,0.5068
1094.0,0.5341
1095.0,0.5259
1096.0,0.5076
1097.0,0.5683
1098.0,0.501
1099.0,0.5205
1100.0,0.4902
1101.0,0.4944
1102.0,0.4758
1103.0,0.4739
1104.0,0.4742
1105.0,0.5099
1106.0,0.4135
1107.0,0.4889
1108.0,0.4287
1109.0,0.4267
1110.0,0.4863
1111.0,0.3494
1112.0,0.4224
1113.0,0.2896
1114.0,0.3209
1115.0,0.2667
1116.0,0.2261
1117.0,0.09854
1118.0,0.2407
1119.0,0.1314
1120.0,0.1654
1121.0,0.2117
1122.0,0.09965
1123.0,0.1491
1124.0,0.126
1125.0,0.1615
1126.0,0.06691
1127.0,0.1813
1128.0,0.1198
1129.0,0.1252
1130.0,0.08796
1131.0,0.3175
1132.0,0.2541
1133.0,0.1748
1134.0,0.05408
1135.0,0.0199
1136.0,0.1508
1137.0,0.3156
1138.0,0.2258
1139.0,0.3116
1140.0,0.27
1141.0,0.2146
1142.0,0.2413
1143.0,0.3322
1144.0,0.1295
1145.0,0.1682
1146.0,0.1815
1147.0,0.07525
1148.0,0.2878
1149.0,0.2378
1150.0,0.1389
1151.0,0.2243
1152.0,0.2668
1153.0,0.2532
1154.0,0.1658
1155.0,0.3254
1156.0,0.2979
1157.0,0.3275
1158.0,0.3236
1159.0,0.3424
1160.0,0.3009
1161.0,0.3561
1162.0,0.3589
1163.0,0.4608
1164.0,0.4042
1165.0,0.3893
1166.0,0.3813
1167.0,0.4107
1168.0,0.4168
1169.0,0.4236
1170.0,0.4535
1171.0,0.4434
1172.0,0.4476
1173.0,0.4526
1174.0,0.3426
1175.0,0.4394
1176.0,0.474
1177.0,0.4608
1178.0,0.3609
1179.0,0.4775
1180.0,0.4363
1181.0,0.4491
1182.0,0.326
1183.0,0.4399
1184.0,0.4176
1185.0,0.4075
1186.0,0.4679
1187.0,0.4503
1188.0,0.3327
1189.0,0.4207
1190.0,0.4573
1191.0,0.4419
1192.0,0.4627
1193.0,0.4463
1194.0,0.4581
1195.0,0.4387
1196.0,0.4261
1197.0,0.4552
1198.0,0.421
1199.0,0.3709
1200.0,0.4412
1201.0,0.4298
1202.0,0.425
1203.0,0.4214
1204.0,0.376
1205.0,0.4311
1206.0,0.4689
1207.0,0.4251
1208.0,0.4146
1209.0,0.4222
1210.0,0.4369
1211.0,0.421
1212.0,0.4212
1213.0,0.4562
1214.0,0.4286
1215.0,0.4218
1216.0,0.4545
1217.0,0.445
1218.0,0.4511
1219.0,0.4466
1220.0,0.4512
1221.0,0.4544
1222.0,0.4441
1223.0,0.4409
1224.0,0.4399
1225.0,0.4516
1226.0,0.4531
1227.0,0.4243
1228.0,0.4541
1229.0,0.4531
1230.0,0.4466
1231.0,0.4554
1232.0,0.4528
1233.0,0.4422
1234.0,0.454
1235.0,0.4518
1236.0,0.4546
1237.0,0.4502
1238.0,0.453
1239.0,0.4473
1240.0,0.4487
1241.0,0.4478
1242.0,0.4458
1243.0,0.4421
1244.0,0.4456
1245.0,0.4473
1246.0,0.4446
1247.0,0.4433
1248.0,0.4436
1249.0,0.4444
1250.0,0.4421
1251.0,0.4372
1252.0,0.4363
1253.0,0.4345
1254.0,0.4314
1255.0,0.4363
1256.0,0.4272
1257.0,0.4255
1258.0,0.431
1259.0,0.4202
1260.0,0.4218
1261.0,0.4043
1262.0,0.3954
1263.0,0.3964
1264.0,0.3736
1265.0,0.3937
1266.0,0.3834
1267.0,0.387
1268.0,0.372
1269.0,0.2664
1270.0,0.3868
1271.0,0.4022
1272.0,0.4028
1273.0,0.3992
1274.0,0.3996
1275.0,0.4042
1276.0,0.4069
1277.0,0.4083
1278.0,0.4135
1279.0,0.4101
1280.0,0.4047
1281.0,0.3851
1282.0,0.3691
1283.0,0.398
1284.0,0.4079
1285.0,0.4103
1286.0,0.4147
1287.0,0.4103
1288.0,0.4097
1289.0,0.4005
1290.0,0.4058
1291.0,0.4108
1292.0,0.3932
1293.0,0.4046
1294.0,0.4022
1295.0,0.4019
1296.0,0.3885
1297.0,0.3714
1298.0,0.3922
1299.0,0.4045
1300.0,0.3556
1301.0,0.3637
1302.0,0.3906
1303.0,0.3495
1304.0,0.3106
1305.0,0.3837
1306.0,0.3844
1307.0,0.313
1308.0,0.3481
1309.0,0.3824
1310.0,0.3076
1311.0,0.3365
1312.0,0.3294
1313.0,0.325
1314.0,0.2955
1315.0,0.2944
1316.0,0.3332
1317.0,0.3171
1318.0,0.3395
1319.0,0.2805
1320.0,0.2685
1321.0,0.3075
1322.0,0.3127
1323.0,0.248
1324.0,0.2751
1325.0,0.3291
1326.0,0.2906
1327.0,0.2792
1328.0,0.2448
1329.0,0.1947
1330.0,0.2477
1331.0,0.1633
1332.0,0.1638
1333.0,0.2241
1334.0,0.1847
1335.0,0.2468
1336.0,0.2019
1337.0,0.1829
1338.0,0.1971
1339.0,0.1946
1340.0,0.1859
1341.0,0.1891
1342.0,0.1982
1343.0,0.1514
1344.0,0.09055
1345.0,0.128
1346.0,0.07604
1347.0,0.07935
1348.0,0.008189
1349.0,0.0255
1350.0,0.02397
1351.0,0.008758
1352.0,0.003528
1353.0,0.0002997
1354.0,0.0007631
1355.0,1.643e-05
1356.0,0.0001535
1357.0,0.0002291
1358.0,1.871e-05
1359.0,4.751e-06
1360.0,1.1e-05
1361.0,5.778e-08
1362.0,3.281e-10
1363.0,1.716e-05
1364.0,7.89e-06
1365.0,2.525e-10
1366.0,6.17e-05
1367.0,2.382e-05
1368.0,9.64e-12
1369.0,3.133e-06
1370.0,2.067e-06
1371.0,1.767e-07
1372.0,1.328e-05
1373.0,0.0001601
1374.0,0.0005307
1375.0,0.0009393
1376.0,0.0006765
1377.0,0.0003377
1378.0,0.002708
1379.0,0.000146
1380.0,0.0002519
1381.0,8.523e-06
1382.0,1.297e-05
1383.0,2.74e-07
1384.0,3.94e-06
1385.0,8.989e-06
1386.0,1.401e-05
1387.0,0.0006436
1388.0,1.436e-05
1389.0,0.001554
1390.0,0.001322
1391.0,0.0009708
1392.0,7.465e-05
1393.0,0.0003239
1394.0,0.0002754
1395.0,3.241e-06
1396.0,6.836e-08
1397.0,0.0001488
1398.0,0.003105
1399.0,0.001985
1400.0,4.33e-08
1401.0,1.062e-07
1402.0,0.003627
1403.0,0.004893
1404.0,0.001549
1405.0,2.038e-06
1406.0,0.004517
1407.0,0.0003896
1408.0,0.003637
1409.0,0.001558
1410.0,0.001114
1411.0,0.004253
1412.0,0.005109
1413.0,0.03571
1414.0,0.0008584
1415.0,0.0004674
1416.0,0.04867
1417.0,0.01864
1418.0,0.0212
1419.0,0.003518
1420.0,0.01317
1421.0,0.01468
1422.0,0.06218
1423.0,0.01322
1424.0,0.02382
1425.0,0.0361
1426.0,0.0378
1427.0,0.06188
1428.0,0.007935
1429.0,0.04947
1430.0,0.07655
1431.0,0.08214
1432.0,0.00638
1433.0,0.05513
1434.0,0.02952
1435.0,0.03447
1436.0,0.05839
1437.0,0.04493
1438.0,0.02128
1439.0,0.07578
1440.0,0.05738
1441.0,0.04743
1442.0,0.05154
1443.0,0.05914
1444.0,0.07984
1445.0,0.06676
1446.0,0.0314
1447.0,0.04956
1448.0,0.1353
1449.0,0.1219
1450.0,0.03668
1451.0,0.01599
1452.0,0.07749
1453.0,0.09904
1454.0,0.1552
1455.0,0.07877
1456.0,0.1082
1457.0,0.1361
1458.0,0.152
1459.0,0.181
1460.0,0.09898
1461.0,0.1069
1462.0,0.1495
1463.0,0.05356
1464.0,0.1702
1465.0,0.104
1466.0,0.08109
1467.0,0.04711
