interpolation:linear
wavelength,value
280.0,1.4610000000000002e-20
280.5,2.953e-19
281.0,1.35e-18
281.5,2.69e-17
282.0,1.632e-16
282.5,5.209e-16
283.0,1.878e-15
283.5,3.201e-15
284.0,5.076e-14
284.5,1.403e-13
285.0,2.586e-13
285.5,1.498e-12
286.0,6.265e-12
286.5,2.838e-11
287.0,8.021e-11
287.5,2.923e-10
288.0,9.859e-10
288.5,3.356e-09
289.0,9.583e-09
289.5,2.988e-08
290.0,8.387e-08
290.5,1.717e-07
291.0,3.64e-07
291.5,1.006e-06
292.0,2.212e-06
292.5,3.073e-06
293.0,6.429e-06
293.5,1.489e-05
294.0,2.274e-05
294.5,3.733e-05
295.0,6.014e-05
295.5,0.0001304
296.0,0.0002176
296.5,0.0002639
297.0,0.0003181
297.5,0.0007183
298.0,0.0009803
298.5,0.0008838
299.0,0.001753
299.5,0.002416
300.0,0.002408
300.5,0.00315
301.0,0.004843
301.5,0.006691
302.0,0.005347
302.5,0.009659
303.0,0.01568
303.5,0.01858
304.0,0.0168
304.5,0.0225
305.0,0.02934
305.5,0.03067
306.0,0.02875
306.5,0.03386
307.0,0.04426
307.5,0.05226
308.0,0.05436
308.5,0.06078
309.0,0.05335
309.5,0.05716
310.0,0.05578
310.5,0.08924
311.0,0.1093
311.5,0.1046
312.0,0.09856
312.5,0.1153
313.0,0.1228
313.5,0.1223
314.0,0.1457
314.5,0.1208
315.0,0.1574
315.5,0.1368
316.0,0.1132
316.5,0.1551
317.0,0.1935
317.5,0.205
318.0,0.1551
318.5,0.1807
319.0,0.2081
319.5,0.1797
320.0,0.2196
320.5,0.2577
321.0,0.2166
321.5,0.207
322.0,0.2365
322.5,0.2057
323.0,0.1969
323.5,0.2257
324.0,0.2622
324.5,0.2727
325.0,0.2492
325.5,0.3105
326.0,0.3644
326.5,0.3565
327.0,0.3599
327.5,0.3531
328.0,0.3269
328.5,0.3302
329.0,0.3837
329.5,0.4326
330.0,0.4413
330.5,0.3634
331.0,0.3746
331.5,0.3746
332.0,0.395
332.5,0.3872
333.0,0.3901
333.5,0.3613
334.0,0.3724
334.5,0.4213
335.0,0.3919
335.5,0.445
336.0,0.3086
336.5,0.3764
337.0,0.3126
337.5,0.3912
338.0,0.3761
338.5,0.4245
339.0,0.4234
339.5,0.4068
340.0,0.4908
340.5,0.4428
341.0,0.4246
341.5,0.3941
342.0,0.473
342.5,0.4444
343.0,0.488
343.5,0.4593
344.0,0.3454
344.5,0.3419
345.0,0.4581
345.5,0.4702
346.0,0.4013
346.5,0.4559
347.0,0.4891
347.5,0.3959
348.0,0.4541
348.5,0.4558
349.0,0.424
349.5,0.4205
350.0,0.5213
350.5,0.5511
351.0,0.4928
351.5,0.4778
352.0,0.5159
352.5,0.4042
353.0,0.5106
353.5,0.5475
354.0,0.5699
354.5,0.5794
355.0,0.5785
355.5,0.5237
356.0,0.5491
356.5,0.47
357.0,0.3893
357.5,0.4777
358.0,0.3794
358.5,0.325
359.0,0.4555
359.5,0.5814
360.0,0.6178
360.5,0.4949
361.0,0.452
361.5,0.5212
362.0,0.4512
362.5,0.6253
363.0,0.5624
363.5,0.5187
364.0,0.6354
364.5,0.5441
365.0,0.5551
365.5,0.698
366.0,0.7406
366.5,0.6969
367.0,0.6799
367.5,0.7069
368.0,0.6196
368.5,0.6262
369.0,0.6773
369.5,0.7232
370.0,0.7721
370.5,0.6002
371.0,0.6423
371.5,0.805
372.0,0.5353
372.5,0.6428
373.0,0.6548
373.5,0.4266
374.0,0.6209
374.5,0.5149
375.0,0.5014
375.5,0.7499
376.0,0.6227
376.5,0.6464
377.0,0.6853
377.5,0.8029
378.0,0.8719
378.5,0.8256
379.0,0.6827
379.5,0.6248
380.0,0.6508
380.5,0.7893
381.0,0.792
381.5,0.6285
382.0,0.5589
382.5,0.477
383.0,0.4422
383.5,0.4265
384.0,0.4711
384.5,0.6938
385.0,0.6889
385.5,0.6424
386.0,0.5509
386.5,0.7245
387.0,0.603
387.5,0.6782
388.0,0.6271
388.5,0.6206
389.0,0.6709
389.5,0.8136
390.0,0.8176
390.5,0.7534
391.0,0.888
391.5,0.907
392.0,0.765
392.5,0.6856
393.0,0.3819
393.5,0.2779
394.0,0.5662
394.5,0.7207
395.0,0.8806
395.5,0.8957
396.0,0.7776
396.5,0.455
397.0,0.3418
397.5,0.696
398.0,0.9762
398.5,1.01
399.0,1.095
399.5,1.092
400.0,1.136
401.0,1.169
402.0,1.235
403.0,1.176
404.0,1.16
405.0,1.162
406.0,1.145
407.0,1.129
408.0,1.176
409.0,1.26
410.0,1.103
411.0,1.197
412.0,1.287
413.0,1.258
414.0,1.275
415.0,1.28
416.0,1.304
417.0,1.275
418.0,1.254
419.0,1.272
420.0,1.269
421.0,1.329
422.0,1.266
423.0,1.238
424.0,1.312
425.0,1.311
426.0,1.279
427.0,1.257
428.0,1.226
429.0,1.162
430.0,1.018
431.0,1.011
432.0,1.307
433.0,1.316
434.0,1.224
435.0,1.281
436.0,1.444
437.0,1.425
438.0,1.299
439.0,1.347
440.0,1.391
441.0,1.443
442.0,1.549
443.0,1.512
444.0,1.546
445.0,1.515
446.0,1.446
447.0,1.565
448.0,1.592
449.0,1.599
450.0,1.645
451.0,1.708
452.0,1.647
453.0,1.551
454.0,1.62
455.0,1.632
456.0,1.673
457.0,1.702
458.0,1.647
459.0,1.64
460.0,1.647
461.0,1.687
462.0,1.7
463.0,1.691
464.0,1.663
465.0,1.642
466.0,1.659
467.0,1.631
468.0,1.652
469.0,1.663
470.0,1.612
471.0,1.611
472.0,1.7
473.0,1.68
474.0,1.685
475.0,1.703
476.0,1.655
477.0,1.663
478.0,1.71
479.0,1.7
480.0,1.704
481.0,1.736
482.0,1.745
483.0,1.724
484.0,1.689
485.0,1.61
486.0,1.408
487.0,1.476
488.0,1.621
489.0,1.628
490.0,1.714
491.0,1.685
492.0,1.592
493.0,1.645
494.0,1.663
495.0,1.678
496.0,1.69
497.0,1.718
498.0,1.639
499.0,1.662
500.0,1.615
501.0,1.588
502.0,1.569
503.0,1.637
504.0,1.603
505.0,1.656
506.0,1.711
507.0,1.629
508.0,1.577
509.0,1.621
510.0,1.613
511.0,1.656
512.0,1.674
513.0,1.586
514.0,1.575
515.0,1.561
516.0,1.558
517.0,1.385
518.0,1.457
519.0,1.529
520.0,1.586
521.0,1.603
522.0,1.606
523.0,1.578
524.0,1.637
525.0,1.658
526.0,1.586
527.0,1.496
528.0,1.585
529.0,1.672
530.0,1.649
531.0,1.675
532.0,1.619
533.0,1.572
534.0,1.619
535.0,1.655
536.0,1.67
537.0,1.605
538.0,1.634
539.0,1.621
540.0,1.555
541.0,1.568
542.0,1.619
543.0,1.601
544.0,1.631
545.0,1.627
546.0,1.636
547.0,1.635
548.0,1.616
549.0,1.621
550.0,1.641
551.0,1.621
552.0,1.633
553.0,1.605
554.0,1.645
555.0,1.649
556.0,1.629
557.0,1.579
558.0,1.569
559.0,1.542
560.0,1.562
561.0,1.584
562.0,1.575
563.0,1.62
564.0,1.577
565.0,1.565
566.0,1.544
567.0,1.575
568.0,1.565
569.0,1.535
570.0,1.534
571.0,1.524
572.0,1.565
573.0,1.584
574.0,1.58
575.0,1.553
576.0,1.539
577.0,1.556
578.0,1.531
579.0,1.535
580.0,1.56
581.0,1.565
582.0,1.593
583.0,1.595
584.0,1.607
585.0,1.568
586.0,1.536
587.0,1.572
588.0,1.543
589.0,1.384
590.0,1.446
591.0,1.521
592.0,1.508
593.0,1.524
594.0,1.517
595.0,1.485
596.0,1.531
597.0,1.518
598.0,1.511
599.0,1.511
600.0,1.51
601.0,1.496
602.0,1.486
603.0,1.51
604.0,1.535
605.0,1.527
606.0,1.52
607.0,1.534
608.0,1.516
609.0,1.518
610.0,1.506
611.0,1.514
612.0,1.509
613.0,1.49
614.0,1.469
615.0,1.501
616.0,1.451
617.0,1.448
618.0,1.503
619.0,1.488
620.0,1.498
621.0,1.501
622.0,1.485
623.0,1.464
624.0,1.438
625.0,1.435
626.0,1.457
627.0,1.476
628.0,1.413
629.0,1.454
630.0,1.422
631.0,1.443
632.0,1.424
633.0,1.463
634.0,1.446
635.0,1.467
636.0,1.445
637.0,1.468
638.0,1.48
639.0,1.462
640.0,1.447
641.0,1.446
642.0,1.438
643.0,1.458
644.0,1.452
645.0,1.455
646.0,1.426
647.0,1.418
648.0,1.421
649.0,1.395
650.0,1.39
651.0,1.448
652.0,1.402
653.0,1.429
654.0,1.412
655.0,1.367
656.0,1.207
657.0,1.239
658.0,1.385
659.0,1.394
660.0,1.399
661.0,1.409
662.0,1.415
663.0,1.386
664.0,1.399
665.0,1.398
666.0,1.399
667.0,1.396
668.0,1.396
669.0,1.417
670.0,1.411
671.0,1.41
672.0,1.398
673.0,1.418
674.0,1.413
675.0,1.4
676.0,1.409
677.0,1.395
678.0,1.399
679.0,1.376
680.0,1.387
681.0,1.378
682.0,1.377
683.0,1.374
684.0,1.368
685.0,1.379
686.0,1.372
687.0,1.063
688.0,1.17
689.0,1.172
690.0,1.206
691.0,1.242
692.0,1.266
693.0,1.259
694.0,1.25
695.0,1.284
696.0,1.286
697.0,1.341
698.0,1.321
699.0,1.305
700.0,1.289
701.0,1.281
702.0,1.284
703.0,1.287
704.0,1.319
705.0,1.322
706.0,1.317
707.0,1.317
708.0,1.32
709.0,1.317
710.0,1.32
711.0,1.316
712.0,1.31
713.0,1.299
714.0,1.304
715.0,1.269
716.0,1.271
717.0,1.159
718.0,1.076
719.0,0.9933
720.0,1.044
721.0,1.116
722.0,1.237
723.0,1.173
724.0,1.08
725.0,1.071
726.0,1.116
727.0,1.12
728.0,1.071
729.0,1.091
730.0,1.152
731.0,1.11
732.0,1.165
733.0,1.213
734.0,1.236
735.0,1.214
736.0,1.212
737.0,1.218
738.0,1.223
739.0,1.2
740.0,1.227
741.0,1.213
742.0,1.212
743.0,1.242
744.0,1.237
745.0,1.236
746.0,1.242
747.0,1.245
748.0,1.242
749.0,1.228
750.0,1.227
751.0,1.215
752.0,1.22
753.0,1.227
754.0,1.229
755.0,1.223
756.0,1.222
757.0,1.224
758.0,1.209
759.0,1.192
760.0,0.3787
761.0,0.2499
762.0,0.771
763.0,0.497
764.0,0.6447
765.0,0.772
766.0,0.8675
767.0,1.019
768.0,1.119
769.0,1.13
770.0,1.155
771.0,1.158
772.0,1.159
773.0,1.167
774.0,1.161
775.0,1.152
776.0,1.166
777.0,1.15
778.0,1.143
779.0,1.145
780.0,1.138
781.0,1.139
782.0,1.146
783.0,1.126
784.0,1.132
785.0,1.124
786.0,1.137
787.0,1.123
788.0,1.112
789.0,1.112
790.0,1.092
791.0,1.093
792.0,1.084
793.0,1.067
794.0,1.077
795.0,1.097
796.0,1.075
797.0,1.077
798.0,1.097
799.0,1.093
800.0,1.077
801.0,1.076
802.0,1.073
803.0,1.066
804.0,1.066
805.0,1.06
806.0,1.084
807.0,1.072
808.0,1.073
809.0,1.057
810.0,1.052
811.0,1.058
812.0,1.036
813.0,1.021
814.0,0.9273
815.0,0.921
816.0,0.8624
817.0,0.8741
818.0,0.848
819.0,0.9219
820.0,0.8788
821.0,0.9921
822.0,0.9698
823.0,0.7176
824.0,0.9531
825.0,0.9774
826.0,0.9507
827.0,0.992
828.0,0.8728
829.0,0.943
830.0,0.9342
831.0,0.9362
832.0,0.9135
833.0,0.9548
834.0,0.9316
835.0,1.001
836.0,0.9721
837.0,1.003
838.0,0.9779
839.0,0.9872
840.0,1.007
841.0,0.9957
842.0,0.994
843.0,0.9895
844.0,0.978
845.0,1.008
846.0,1.003
847.0,0.9833
848.0,0.979
849.0,0.9513
850.0,0.9112
851.0,0.9667
852.0,0.9592
853.0,0.9218
854.0,0.7972
855.0,0.8742
856.0,0.9561
857.0,0.9763
858.0,0.9697
859.0,0.9698
860.0,0.9711
861.0,0.966
862.0,0.981
863.0,1.004
864.0,0.954
865.0,0.9456
866.0,0.8502
867.0,0.8873
868.0,0.9656
869.0,0.9455
870.0,0.9725
871.0,0.9593
872.0,0.9559
873.0,0.954
874.0,0.9427
875.0,0.9237
876.0,0.9335
877.0,0.9429
878.0,0.9535
879.0,0.9388
880.0,0.9187
881.0,0.9058
882.0,0.9257
883.0,0.9279
884.0,0.924
885.0,0.9311
886.0,0.8904
887.0,0.8976
888.0,0.9125
889.0,0.9201
890.0,0.9157
891.0,0.9125
892.0,0.8903
893.0,0.868
894.0,0.8474
895.0,0.8136
896.0,0.7735
897.0,0.6833
898.0,0.7344
899.0,0.5826
900.0,0.741
901.0,0.609
902.0,0.684
903.0,0.7003
904.0,0.8415
905.0,0.8186
906.0,0.7712
907.0,0.6541
908.0,0.6636
909.0,0.705
910.0,0.6474
911.0,0.6762
912.0,0.7007
913.0,0.6581
914.0,0.6486
915.0,0.6993
916.0,0.6011
917.0,0.7345
918.0,0.6166
919.0,0.7424
920.0,0.739
921.0,0.7646
922.0,0.7008
923.0,0.738
924.0,0.7186
925.0,0.7039
926.0,0.7111
927.0,0.7797
928.0,0.6191
929.0,0.5781
930.0,0.4761
931.0,0.447
932.0,0.3437
933.0,0.2923
934.0,0.1878
935.0,0.2885
936.0,0.1971
937.0,0.2027
938.0,0.242
939.0,0.4333
940.0,0.5063
941.0,0.4029
942.0,0.4525
943.0,0.3145
944.0,0.3171
945.0,0.4121
946.0,0.2328
947.0,0.4195
948.0,0.3128
949.0,0.5382
950.0,0.1875
951.0,0.5262
952.0,0.3139
953.0,0.385
954.0,0.45
955.0,0.3868
956.0,0.3677
957.0,0.3175
958.0,0.488
959.0,0.4106
960.0,0.459
961.0,0.498
962.0,0.474
963.0,0.531
964.0,0.492
965.0,0.527
966.0,0.5311
967.0,0.53
968.0,0.6606
969.0,0.6924
970.0,0.6437
971.0,0.7151
972.0,0.6882
973.0,0.6209
974.0,0.5932
975.0,0.6068
976.0,0.5874
977.0,0.6464
978.0,0.6233
979.0,0.6454
980.0,0.612
981.0,0.7101
982.0,0.6867
983.0,0.664
984.0,0.7234
985.0,0.6838
986.0,0.7312
987.0,0.7219
988.0,0.7208
989.0,0.726
990.0,0.7159
991.0,0.7288
992.0,0.7325
993.0,0.7213
994.0,0.7318
995.0,0.7301
996.0,0.7277
997.0,0.7284
998.0,0.7253
999.0,0.7225
1000.0,0.7186
1001.0,0.7262
1002.0,0.7114
1003.0,0.7138
1004.0,0.6977
1005.0,0.6703
1006.0,0.6975
1007.0,0.7117
1008.0,0.7088
1009.0,0.7061
1010.0,0.7037
1011.0,0.7081
1012.0,0.703
1013.0,0.7061
1014.0,0.7012
1015.0,0.6968
1016.0,0.6937
1017.0,0.6957
1018.0,0.6925
1019.0,0.6797
1020.0,0.6892
1021.0,0.6879
1022.0,0.6833
1023.0,0.6907
1024.0,0.6838
1025.0,0.6896
1026.0,0.6872
1027.0,0.6855
1028.0,0.6842
1029.0,0.6764
1030.0,0.6803
1031.0,0.6779
1032.0,0.6757
1033.0,0.6656
1034.0,0.6656
1035.0,0.6677
1036.0,0.6714
1037.0,0.6604
1038.0,0.6634
1039.0,0.6632
1040.0,0.6605
1041.0,0.6634
1042.0,0.6588
1043.0,0.6568
1044.0,0.6592
1045.0,0.6504
1046.0,0.6434
1047.0,0.6493
1048.0,0.653
1049.0,0.6509
1050.0,0.648
1051.0,0.6473
1052.0,0.6449
1053.0,0.64
1054.0,0.6417
1055.0,0.6423
1056.0,0.6404
1057.0,0.6387
1058.0,0.6233
1059.0,0.6243
1060.0,0.6235
1061.0,0.6229
1062.0,0.6265
1063.0,0.6206
1064.0,0.6279
1065.0,0.6241
1066.0,0.6112
1067.0,0.6193
1068.0,0.6063
1069.0,0.5872
1070.0,0.6077
1071.0,0.6154
1072.0,0.6097
1073.0,0.6006
1074.0,0.6142
1075.0,0.5889
1076.0,0.614
1077.0,0.6062
1078.0,0.5958
1079.0,0.6034
1080.0,0.597
1081.0,0.5803
1082.0,0.5851
1083.0,0.5858
1084.0,0.5806
1085.0,0.5978
1086.0,0.5547
1087.0,0.5655
1088.0,0.5862
1089.0,0.5734
1090.0,0.5647
1091.0,0.5858
1092.0,0.5831
1093.0,0.5109
1094.0,0.5355
1095.0,0.5295
1096.0,0.5121
1097.0,0.5694
1098.0,0.5056
1099.0,0.5248
1100.0,0.4958
1101.0,0.4996
1102.0,0.4816
1103.0,0.4803
1104.0,0.4805
1105.0,0.5145
1106.0,0.4226
1107.0,0.4943
1108.0,0.4367
1109.0,0.4342
1110.0,0.492
1111.0,0.3582
1112.0,0.4295
1113.0,0.2995
1114.0,0.331
1115.0,0.2753
1116.0,0.2365
1117.0,0.1071
1118.0,0.2504
1119.0,0.1397
1120.0,0.1756
1121.0,0.2229
1122.0,0.1075
1123.0,0.1583
1124.0,0.1338
1125.0,0.1709
1126.0,0.07341
1127.0,0.1915
1128.0,0.1293
1129.0,0.1346
1130.0,0.0962
1131.0,0.3294
1132.0,0.2649
1133.0,0.1855
1134.0,0.05995
1135.0,0.02205
1136.0,0.1612
1137.0,0.328
1138.0,0.2358
1139.0,0.3198
1140.0,0.2795
1141.0,0.2241
1142.0,0.2507
1143.0,0.3427
1144.0,0.1371
1145.0,0.1783
1146.0,0.1925
1147.0,0.08267
1148.0,0.2969
1149.0,0.2474
1150.0,0.1473
1151.0,0.2343
1152.0,0.2765
1153.0,0.2609
1154.0,0.1768
1155.0,0.3341
1156.0,0.3069
1157.0,0.3362
1158.0,0.3319
1159.0,0.3498
1160.0,0.3095
1161.0,0.363
1162.0,0.366
1163.0,0.4647
1164.0,0.4097
1165.0,0.3962
1166.0,0.3872
1167.0,0.416
1168.0,0.4224
1169.0,0.4285
1170.0,0.4574
1171.0,0.4476
1172.0,0.4511
1173.0,0.4565
1174.0,0.35
1175.0,0.4427
1176.0,0.4758
1177.0,0.4636
1178.0,0.3666
1179.0,0.4792
1180.0,0.44
1181.0,0.4525
1182.0,0.3321
1183.0,0.4428
1184.0,0.4216
1185.0,0.4122
1186.0,0.4702
1187.0,0.4535
1188.0,0.339
1189.0,0.424
1190.0,0.4596
1191.0,0.4456
1192.0,0.4649
1193.0,0.449
1194.0,0.4604
1195.0,0.4419
1196.0,0.43
1197.0,0.4568
1198.0,0.4236
1199.0,0.3757
1200.0,0.444
1201.0,0.4333
1202.0,0.4281
1203.0,0.4243
1204.0,0.3803
1205.0,0.4335
1206.0,0.47
1207.0,0.4283
1208.0,0.4171
1209.0,0.4245
1210.0,0.4387
1211.0,0.4238
1212.0,0.4247
1213.0,0.4577
1214.0,0.4317
1215.0,0.4252
1216.0,0.456
1217.0,0.4469
1218.0,0.4526
1219.0,0.4483
1220.0,0.4527
1221.0,0.4556
1222.0,0.4456
1223.0,0.4426
1224.0,0.4419
1225.0,0.4528
1226.0,0.454
1227.0,0.4264
1228.0,0.4548
1229.0,0.454
1230.0,0.4477
1231.0,0.4559
1232.0,0.4533
1233.0,0.4435
1234.0,0.4543
1235.0,0.4522
1236.0,0.4549
1237.0,0.4508
1238.0,0.4533
1239.0,0.4476
1240.0,0.449
1241.0,0.4483
1242.0,0.4461
1243.0,0.4423
1244.0,0.4459
1245.0,0.4476
1246.0,0.4449
1247.0,0.4436
1248.0,0.444
1249.0,0.4448
1250.0,0.4425
1251.0,0.4377
1252.0,0.4367
1253.0,0.4351
1254.0,0.4323
1255.0,0.4368
1256.0,0.4282
1257.0,0.4266
1258.0,0.4316
1259.0,0.4217
1260.0,0.4232
1261.0,0.4067
1262.0,0.3984
1263.0,0.3994
1264.0,0.3778
1265.0,0.3967
1266.0,0.3871
1267.0,0.3902
1268.0,0.376
1269.0,0.2762
1270.0,0.3902
1271.0,0.4045
1272.0,0.405
1273.0,0.4015
1274.0,0.4018
1275.0,0.4062
1276.0,0.4087
1277.0,0.4098
1278.0,0.4146
1279.0,0.4111
1280.0,0.4058
1281.0,0.3859
1282.0,0.3696
1283.0,0.3985
1284.0,0.4085
1285.0,0.4109
1286.0,0.4151
1287.0,0.4111
1288.0,0.4104
1289.0,0.4018
1290.0,0.4064
1291.0,0.4113
1292.0,0.3949
1293.0,0.4054
1294.0,0.4031
1295.0,0.4031
1296.0,0.3905
1297.0,0.374
1298.0,0.3936
1299.0,0.4051
1300.0,0.3588
1301.0,0.3664
1302.0,0.392
1303.0,0.3524
1304.0,0.3157
1305.0,0.3853
1306.0,0.3861
1307.0,0.3173
1308.0,0.3506
1309.0,0.3841
1310.0,0.3119
1311.0,0.3395
1312.0,0.3328
1313.0,0.3286
1314.0,0.2997
1315.0,0.2991
1316.0,0.3366
1317.0,0.3206
1318.0,0.3422
1319.0,0.2859
1320.0,0.273
1321.0,0.3116
1322.0,0.3171
1323.0,0.2542
1324.0,0.2803
1325.0,0.3325
1326.0,0.2952
1327.0,0.2841
1328.0,0.25
1329.0,0.2011
1330.0,0.2546
1331.0,0.1709
1332.0,0.1705
1333.0,0.232
1334.0,0.1907
1335.0,0.2528
1336.0,0.2082
1337.0,0.1898
1338.0,0.2041
1339.0,0.2012
1340.0,0.1917
1341.0,0.1964
1342.0,0.2057
1343.0,0.1609
1344.0,0.09654
1345.0,0.1355
1346.0,0.08335
1347.0,0.08731
1348.0,0.009949
1349.0,0.02995
1350.0,0.02754
1351.0,0.01094
1352.0,0.004726
1353.0,0.0004492
1354.0,0.001078
1355.0,2.827e-05
1356.0,0.000233
1357.0,0.0003455
1358.0,3.195e-05
1359.0,9.241e-06
1360.0,1.969e-05
1361.0,1.403e-07
1362.0,9.38e-10
1363.0,3.092e-05
1364.0,1.476e-05
1365.0,8.283e-10
1366.0,0.0001069
1367.0,4.156e-05
1368.0,4.251e-11
1369.0,5.965e-06
1370.0,4.149e-06
1371.0,3.877e-07
1372.0,2.332e-05
1373.0,0.0002525
1374.0,0.0007822
1375.0,0.001361
1376.0,0.0009537
1377.0,0.0004857
1378.0,0.003694
1379.0,0.0002121
1380.0,0.0003763
1381.0,1.361e-05
1382.0,2.309e-05
1383.0,5.316e-07
1384.0,7.624e-06
1385.0,1.52e-05
1386.0,2.575e-05
1387.0,0.0009657
1388.0,2.277e-05
1389.0,0.002198
1390.0,0.001858
1391.0,0.001399
1392.0,0.0001129
1393.0,0.0004681
1394.0,0.0004335
1395.0,5.723e-06
1396.0,1.602e-07
1397.0,0.0002216
1398.0,0.004231
1399.0,0.002723
1400.0,1.087e-07
1401.0,2.418e-07
1402.0,0.004621
1403.0,0.006297
1404.0,0.00201
1405.0,3.775e-06
1406.0,0.005939
1407.0,0.0005212
1408.0,0.004779
1409.0,0.002141
1410.0,0.001519
1411.0,0.005467
1412.0,0.006426
1413.0,0.04116
1414.0,0.001167
1415.0,0.0006526
1416.0,0.05426
1417.0,0.02197
1418.0,0.02477
1419.0,0.004188
1420.0,0.01545
1421.0,0.01749
1422.0,0.0688
1423.0,0.01506
1424.0,0.02683
1425.0,0.04081
1426.0,0.04203
1427.0,0.06686
1428.0,0.009685
1429.0,0.05426
1430.0,0.08219
1431.0,0.08768
1432.0,0.00783
1433.0,0.0597
1434.0,0.03241
1435.0,0.03911
1436.0,0.06428
1437.0,0.04962
1438.0,0.02416
1439.0,0.0824
1440.0,0.06268
1441.0,0.05277
1442.0,0.05689
1443.0,0.06393
1444.0,0.08599
1445.0,0.07292
1446.0,0.03463
1447.0,0.05487
1448.0,0.1419
1449.0,0.1292
1450.0,0.04065
1451.0,0.01811
1452.0,0.08322
1453.0,0.1055
1454.0,0.1616
1455.0,0.08365
1456.0,0.1155
1457.0,0.1428
1458.0,0.1574
1459.0,0.1877
1460.0,0.1041
1461.0,0.1132
1462.0,0.1565
1463.0,0.05775
1464.0,0.1764
1465.0,0.1082
1466.0,0.08699
1467.0,0.0519
1468.0,0.09924
1469.0,0.1182
1470.0,0.06839
