interpolation:linear
wavelength,value
280.0,2.6370000000000003e-20
280.5,5.135e-19
281.0,2.316e-18
281.5,4.45e-17
282.0,2.639e-16
282.5,8.303e-16
283.0,2.944e-15
283.5,4.978e-15
284.0,7.6e-14
284.5,2.065e-13
285.0,3.735e-13
285.5,2.116e-12
286.0,8.774e-12
286.5,3.903e-11
287.0,1.088e-10
287.5,3.896e-10
288.0,1.285e-09
288.5,4.323e-09
289.0,1.22e-08
289.5,3.752e-08
290.0,1.041e-07
290.5,2.113e-07
291.0,4.43e-07
291.5,1.207e-06
292.0,2.624e-06
292.5,3.622e-06
293.0,7.514e-06
293.5,1.721e-05
294.0,2.608e-05
294.5,4.257e-05
295.0,6.809e-05
295.5,0.0001463
296.0,0.0002427
296.5,0.0002926
297.0,0.0003511
297.5,0.0007876
298.0,0.001069
298.5,0.0009604
299.0,0.001898
299.5,0.002601
300.0,0.002584
300.5,0.003371
301.0,0.00516
301.5,0.007104
302.0,0.005667
302.5,0.01021
303.0,0.01651
303.5,0.01953
304.0,0.01763
304.5,0.02356
305.0,0.03063
305.5,0.03196
306.0,0.02993
306.5,0.03521
307.0,0.04591
307.5,0.0541
308.0,0.05625
308.5,0.06283
309.0,0.0551
309.5,0.05891
310.0,0.05742
310.5,0.09182
311.0,0.1124
311.5,0.1075
312.0,0.1011
312.5,0.1182
313.0,0.1258
313.5,0.1253
314.0,0.1491
314.5,0.1235
315.0,0.1608
315.5,0.1398
316.0,0.1156
316.5,0.1582
317.0,0.1974
317.5,0.2092
318.0,0.1581
318.5,0.1841
319.0,0.2118
319.5,0.183
320.0,0.2237
320.5,0.2622
321.0,0.2202
321.5,0.2104
322.0,0.2406
322.5,0.2092
323.0,0.2001
323.5,0.2291
324.0,0.2661
324.5,0.2769
325.0,0.2532
325.5,0.3153
326.0,0.3697
326.5,0.3616
327.0,0.3651
327.5,0.3582
328.0,0.3317
328.5,0.3348
329.0,0.3889
329.5,0.4384
330.0,0.4472
330.5,0.3683
331.0,0.3797
331.5,0.3796
332.0,0.4001
332.5,0.3922
333.0,0.3951
333.5,0.366
334.0,0.3772
334.5,0.4265
335.0,0.3968
335.5,0.4504
336.0,0.3124
336.5,0.381
337.0,0.3164
337.5,0.3959
338.0,0.3806
338.5,0.4295
339.0,0.4283
339.5,0.4115
340.0,0.4964
340.5,0.4479
341.0,0.4294
341.5,0.3985
342.0,0.4783
342.5,0.4493
343.0,0.4934
343.5,0.4643
344.0,0.3492
344.5,0.3456
345.0,0.463
345.5,0.4752
346.0,0.4055
346.5,0.4607
347.0,0.4942
347.5,0.4
348.0,0.4588
348.5,0.4605
349.0,0.4283
349.5,0.4248
350.0,0.5266
350.5,0.5566
351.0,0.4977
351.5,0.4826
352.0,0.5209
352.5,0.4082
353.0,0.5156
353.5,0.5528
354.0,0.5754
354.5,0.5849
355.0,0.584
355.5,0.5286
356.0,0.5543
356.5,0.4744
357.0,0.3929
357.5,0.4821
358.0,0.3829
358.5,0.328
359.0,0.4596
359.5,0.5867
360.0,0.6233
360.5,0.4994
361.0,0.4561
361.5,0.5258
362.0,0.4552
362.5,0.6307
363.0,0.5672
363.5,0.5232
364.0,0.6408
364.5,0.5487
365.0,0.5598
365.5,0.7038
366.0,0.7468
366.5,0.7027
367.0,0.6855
367.5,0.7127
368.0,0.6246
368.5,0.6312
369.0,0.6828
369.5,0.7289
370.0,0.7783
370.5,0.605
371.0,0.6474
371.5,0.8113
372.0,0.5394
372.5,0.6478
373.0,0.6598
373.5,0.4299
374.0,0.6256
374.5,0.5188
375.0,0.5052
375.5,0.7555
376.0,0.6273
376.5,0.6512
377.0,0.6904
377.5,0.8088
378.0,0.8783
378.5,0.8316
379.0,0.6876
379.5,0.6294
380.0,0.6554
380.5,0.7949
381.0,0.7976
381.5,0.633
382.0,0.5628
382.5,0.4803
383.0,0.4452
383.5,0.4294
384.0,0.4743
384.5,0.6985
385.0,0.6936
385.5,0.6467
386.0,0.5546
386.5,0.7293
387.0,0.6069
387.5,0.6827
388.0,0.6312
388.5,0.6246
389.0,0.6752
389.5,0.8188
390.0,0.8228
390.5,0.7582
391.0,0.8936
391.5,0.9127
392.0,0.7698
392.5,0.6899
393.0,0.3843
393.5,0.2796
394.0,0.5697
394.5,0.7251
395.0,0.8859
395.5,0.9012
396.0,0.7822
396.5,0.4577
397.0,0.3439
397.5,0.7002
398.0,0.982
398.5,1.016
399.0,1.101
399.5,1.099
400.0,1.142
401.0,1.175
402.0,1.242
403.0,1.182
404.0,1.166
405.0,1.169
406.0,1.151
407.0,1.135
408.0,1.182
409.0,1.267
410.0,1.109
411.0,1.203
412.0,1.293
413.0,1.264
414.0,1.282
415.0,1.287
416.0,1.311
417.0,1.281
418.0,1.26
419.0,1.278
420.0,1.275
421.0,1.336
422.0,1.271
423.0,1.244
424.0,1.318
425.0,1.317
426.0,1.284
427.0,1.262
428.0,1.231
429.0,1.167
430.0,1.023
431.0,1.016
432.0,1.313
433.0,1.322
434.0,1.229
435.0,1.286
436.0,1.45
437.0,1.431
438.0,1.304
439.0,1.352
440.0,1.396
441.0,1.448
442.0,1.555
443.0,1.518
444.0,1.552
445.0,1.521
446.0,1.452
447.0,1.57
448.0,1.598
449.0,1.605
450.0,1.651
451.0,1.714
452.0,1.653
453.0,1.556
454.0,1.626
455.0,1.638
456.0,1.678
457.0,1.708
458.0,1.653
459.0,1.646
460.0,1.652
461.0,1.692
462.0,1.706
463.0,1.696
464.0,1.668
465.0,1.647
466.0,1.664
467.0,1.636
468.0,1.658
469.0,1.668
470.0,1.617
471.0,1.616
472.0,1.705
473.0,1.685
474.0,1.69
475.0,1.708
476.0,1.66
477.0,1.668
478.0,1.715
479.0,1.705
480.0,1.709
481.0,1.741
482.0,1.75
483.0,1.729
484.0,1.694
485.0,1.615
486.0,1.412
487.0,1.48
488.0,1.625
489.0,1.633
490.0,1.718
491.0,1.689
492.0,1.596
493.0,1.65
494.0,1.667
495.0,1.683
496.0,1.694
497.0,1.722
498.0,1.643
499.0,1.666
500.0,1.619
501.0,1.592
502.0,1.573
503.0,1.641
504.0,1.607
505.0,1.66
506.0,1.715
507.0,1.633
508.0,1.581
509.0,1.625
510.0,1.617
511.0,1.66
512.0,1.678
513.0,1.589
514.0,1.579
515.0,1.564
516.0,1.562
517.0,1.388
518.0,1.46
519.0,1.533
520.0,1.59
521.0,1.606
522.0,1.609
523.0,1.582
524.0,1.64
525.0,1.662
526.0,1.589
527.0,1.5
528.0,1.588
529.0,1.676
530.0,1.653
531.0,1.679
532.0,1.623
533.0,1.576
534.0,1.623
535.0,1.658
536.0,1.674
537.0,1.608
538.0,1.637
539.0,1.624
540.0,1.558
541.0,1.571
542.0,1.622
543.0,1.605
544.0,1.635
545.0,1.63
546.0,1.64
547.0,1.638
548.0,1.619
549.0,1.624
550.0,1.644
551.0,1.625
552.0,1.637
553.0,1.608
554.0,1.648
555.0,1.652
556.0,1.632
557.0,1.583
558.0,1.572
559.0,1.545
560.0,1.565
561.0,1.587
562.0,1.578
563.0,1.623
564.0,1.581
565.0,1.569
566.0,1.547
567.0,1.578
568.0,1.568
569.0,1.538
570.0,1.538
571.0,1.527
572.0,1.569
573.0,1.587
574.0,1.584
575.0,1.556
576.0,1.542
577.0,1.559
578.0,1.535
579.0,1.538
580.0,1.563
581.0,1.569
582.0,1.596
583.0,1.598
584.0,1.61
585.0,1.571
586.0,1.539
587.0,1.575
588.0,1.546
589.0,1.387
590.0,1.449
591.0,1.524
592.0,1.511
593.0,1.527
594.0,1.52
595.0,1.489
596.0,1.535
597.0,1.521
598.0,1.514
599.0,1.514
600.0,1.513
601.0,1.499
602.0,1.489
603.0,1.513
604.0,1.538
605.0,1.529
606.0,1.522
607.0,1.536
608.0,1.519
609.0,1.521
610.0,1.509
611.0,1.517
612.0,1.512
613.0,1.493
614.0,1.472
615.0,1.503
616.0,1.453
617.0,1.45
618.0,1.506
619.0,1.49
620.0,1.5
621.0,1.503
622.0,1.487
623.0,1.466
624.0,1.44
625.0,1.437
626.0,1.459
627.0,1.479
628.0,1.417
629.0,1.457
630.0,1.425
631.0,1.445
632.0,1.427
633.0,1.465
634.0,1.448
635.0,1.469
636.0,1.448
637.0,1.47
638.0,1.482
639.0,1.464
640.0,1.449
641.0,1.447
642.0,1.44
643.0,1.459
644.0,1.454
645.0,1.457
646.0,1.428
647.0,1.42
648.0,1.424
649.0,1.397
650.0,1.392
651.0,1.45
652.0,1.404
653.0,1.431
654.0,1.414
655.0,1.369
656.0,1.208
657.0,1.241
658.0,1.387
659.0,1.395
660.0,1.401
661.0,1.411
662.0,1.416
663.0,1.387
664.0,1.401
665.0,1.4
666.0,1.4
667.0,1.398
668.0,1.397
669.0,1.418
670.0,1.412
671.0,1.411
672.0,1.399
673.0,1.42
674.0,1.414
675.0,1.401
676.0,1.411
677.0,1.396
678.0,1.4
679.0,1.377
680.0,1.388
681.0,1.379
682.0,1.378
683.0,1.375
684.0,1.369
685.0,1.38
686.0,1.373
687.0,1.067
688.0,1.174
689.0,1.176
690.0,1.209
691.0,1.245
692.0,1.268
693.0,1.261
694.0,1.252
695.0,1.285
696.0,1.288
697.0,1.342
698.0,1.322
699.0,1.306
700.0,1.291
701.0,1.282
702.0,1.286
703.0,1.289
704.0,1.321
705.0,1.323
706.0,1.318
707.0,1.318
708.0,1.321
709.0,1.318
710.0,1.321
711.0,1.317
712.0,1.311
713.0,1.3
714.0,1.305
715.0,1.27
716.0,1.272
717.0,1.161
718.0,1.079
719.0,0.9961
720.0,1.046
721.0,1.118
722.0,1.238
723.0,1.175
724.0,1.083
725.0,1.074
726.0,1.118
727.0,1.122
728.0,1.074
729.0,1.093
730.0,1.154
731.0,1.112
732.0,1.167
733.0,1.214
734.0,1.238
735.0,1.215
736.0,1.213
737.0,1.219
738.0,1.224
739.0,1.201
740.0,1.228
741.0,1.214
742.0,1.212
743.0,1.243
744.0,1.238
745.0,1.237
746.0,1.243
747.0,1.245
748.0,1.243
749.0,1.229
750.0,1.228
751.0,1.216
752.0,1.221
753.0,1.227
754.0,1.23
755.0,1.223
756.0,1.223
757.0,1.225
758.0,1.21
759.0,1.193
760.0,0.3849
761.0,0.2555
762.0,0.7759
763.0,0.5034
764.0,0.6505
765.0,0.7769
766.0,0.8712
767.0,1.022
768.0,1.12
769.0,1.131
770.0,1.156
771.0,1.159
772.0,1.159
773.0,1.167
774.0,1.161
775.0,1.152
776.0,1.166
777.0,1.151
778.0,1.144
779.0,1.145
780.0,1.139
781.0,1.14
782.0,1.147
783.0,1.127
784.0,1.132
785.0,1.124
786.0,1.137
787.0,1.124
788.0,1.112
789.0,1.113
790.0,1.093
791.0,1.094
792.0,1.085
793.0,1.068
794.0,1.077
795.0,1.098
796.0,1.076
797.0,1.078
798.0,1.098
799.0,1.093
800.0,1.077
801.0,1.077
802.0,1.073
803.0,1.067
804.0,1.067
805.0,1.06
806.0,1.085
807.0,1.073
808.0,1.073
809.0,1.058
810.0,1.052
811.0,1.059
812.0,1.037
813.0,1.022
814.0,0.9291
815.0,0.9228
816.0,0.8643
817.0,0.8759
818.0,0.85
819.0,0.9232
820.0,0.8804
821.0,0.9929
822.0,0.9708
823.0,0.72
824.0,0.9544
825.0,0.9783
826.0,0.9519
827.0,0.9929
828.0,0.8744
829.0,0.9442
830.0,0.9355
831.0,0.9374
832.0,0.9148
833.0,0.9557
834.0,0.9327
835.0,1.002
836.0,0.9731
837.0,1.004
838.0,0.9786
839.0,0.9877
840.0,1.008
841.0,0.9963
842.0,0.9944
843.0,0.9899
844.0,0.9785
845.0,1.008
846.0,1.003
847.0,0.9835
848.0,0.9793
849.0,0.9516
850.0,0.9115
851.0,0.9671
852.0,0.9595
853.0,0.9221
854.0,0.7975
855.0,0.8744
856.0,0.9564
857.0,0.9766
858.0,0.97
859.0,0.9701
860.0,0.9714
861.0,0.9663
862.0,0.9813
863.0,1.004
864.0,0.9542
865.0,0.9458
866.0,0.8505
867.0,0.8875
868.0,0.9658
869.0,0.9457
870.0,0.9727
871.0,0.9596
872.0,0.9561
873.0,0.9542
874.0,0.9429
875.0,0.924
876.0,0.9337
877.0,0.9431
878.0,0.9537
879.0,0.939
880.0,0.9189
881.0,0.906
882.0,0.926
883.0,0.9281
884.0,0.9242
885.0,0.9313
886.0,0.8907
887.0,0.8979
888.0,0.9128
889.0,0.9203
890.0,0.916
891.0,0.9128
892.0,0.8906
893.0,0.8685
894.0,0.8482
895.0,0.8147
896.0,0.7748
897.0,0.6851
898.0,0.7359
899.0,0.5846
900.0,0.7422
901.0,0.611
902.0,0.6853
903.0,0.7019
904.0,0.8423
905.0,0.8196
906.0,0.7722
907.0,0.6558
908.0,0.6652
909.0,0.7063
910.0,0.6494
911.0,0.6779
912.0,0.7022
913.0,0.6602
914.0,0.6505
915.0,0.7012
916.0,0.6031
917.0,0.7359
918.0,0.6186
919.0,0.7437
920.0,0.74
921.0,0.7655
922.0,0.7022
923.0,0.7389
924.0,0.72
925.0,0.7053
926.0,0.7124
927.0,0.7807
928.0,0.6214
929.0,0.5806
930.0,0.4788
931.0,0.4495
932.0,0.3463
933.0,0.2949
934.0,0.1903
935.0,0.2907
936.0,0.1992
937.0,0.2049
938.0,0.2445
939.0,0.4357
940.0,0.5086
941.0,0.4054
942.0,0.4548
943.0,0.3166
944.0,0.3189
945.0,0.4146
946.0,0.2349
947.0,0.4222
948.0,0.315
949.0,0.5409
950.0,0.1899
951.0,0.5287
952.0,0.3164
953.0,0.3875
954.0,0.4523
955.0,0.3893
956.0,0.3699
957.0,0.3203
958.0,0.4897
959.0,0.4129
960.0,0.4614
961.0,0.5001
962.0,0.4761
963.0,0.533
964.0,0.494
965.0,0.5288
966.0,0.533
967.0,0.532
968.0,0.6616
969.0,0.6935
970.0,0.645
971.0,0.7158
972.0,0.689
973.0,0.6223
974.0,0.5947
975.0,0.608
976.0,0.5889
977.0,0.6474
978.0,0.6246
979.0,0.6465
980.0,0.6132
981.0,0.7108
982.0,0.6875
983.0,0.665
984.0,0.7238
985.0,0.6847
986.0,0.7314
987.0,0.7223
988.0,0.7212
989.0,0.7261
990.0,0.7162
991.0,0.729
992.0,0.7326
993.0,0.7216
994.0,0.7319
995.0,0.7303
996.0,0.7279
997.0,0.7285
998.0,0.7255
999.0,0.7226
1000.0,0.7188
1001.0,0.7264
1002.0,0.7116
1003.0,0.7139
1004.0,0.6978
1005.0,0.6704
1006.0,0.6976
1007.0,0.7119
1008.0,0.709
1009.0,0.7063
1010.0,0.7039
1011.0,0.7082
1012.0,0.7031
1013.0,0.7062
1014.0,0.7013
1015.0,0.6969
1016.0,0.6939
1017.0,0.6958
1018.0,0.6926
1019.0,0.6798
1020.0,0.6893
1021.0,0.688
1022.0,0.6834
1023.0,0.6908
1024.0,0.6839
1025.0,0.6897
1026.0,0.6873
1027.0,0.6856
1028.0,0.6844
1029.0,0.6765
1030.0,0.6804
1031.0,0.678
1032.0,0.6758
1033.0,0.6657
1034.0,0.6657
1035.0,0.6678
1036.0,0.6715
1037.0,0.6605
1038.0,0.6635
1039.0,0.6633
1040.0,0.6607
1041.0,0.6635
1042.0,0.6589
1043.0,0.6569
1044.0,0.6594
1045.0,0.6505
1046.0,0.6435
1047.0,0.6494
1048.0,0.6532
1049.0,0.651
1050.0,0.6482
1051.0,0.6475
1052.0,0.6451
1053.0,0.6402
1054.0,0.6418
1055.0,0.6425
1056.0,0.6406
1057.0,0.6389
1058.0,0.6235
1059.0,0.6245
1060.0,0.6237
1061.0,0.6231
1062.0,0.6268
1063.0,0.6208
1064.0,0.6281
1065.0,0.6243
1066.0,0.6114
1067.0,0.6196
1068.0,0.6066
1069.0,0.5874
1070.0,0.608
1071.0,0.6156
1072.0,0.6099
1073.0,0.6008
1074.0,0.6144
1075.0,0.5892
1076.0,0.6142
1077.0,0.6065
1078.0,0.5961
1079.0,0.6035
1080.0,0.5973
1081.0,0.5806
1082.0,0.5853
1083.0,0.5859
1084.0,0.581
1085.0,0.598
1086.0,0.5553
1087.0,0.5658
1088.0,0.5864
1089.0,0.5737
1090.0,0.5652
1091.0,0.5861
1092.0,0.5833
1093.0,0.5117
1094.0,0.5358
1095.0,0.5301
1096.0,0.5129
1097.0,0.5696
1098.0,0.5065
1099.0,0.5256
1100.0,0.4968
1101.0,0.5005
1102.0,0.4826
1103.0,0.4814
1104.0,0.4817
1105.0,0.5153
1106.0,0.4242
1107.0,0.4953
1108.0,0.4381
1109.0,0.4355
1110.0,0.493
1111.0,0.3597
1112.0,0.4307
1113.0,0.3013
1114.0,0.3328
1115.0,0.2769
1116.0,0.2384
1117.0,0.1087
1118.0,0.2522
1119.0,0.1412
1120.0,0.1775
1121.0,0.2249
1122.0,0.1089
1123.0,0.16
1124.0,0.1353
1125.0,0.1726
1126.0,0.0746
1127.0,0.1934
1128.0,0.1311
1129.0,0.1363
1130.0,0.09771
1131.0,0.3315
1132.0,0.2668
1133.0,0.1875
1134.0,0.06104
1135.0,0.02245
1136.0,0.163
1137.0,0.3302
1138.0,0.2376
1139.0,0.3213
1140.0,0.2811
1141.0,0.2258
1142.0,0.2524
1143.0,0.3446
1144.0,0.1385
1145.0,0.1801
1146.0,0.1945
1147.0,0.08404
1148.0,0.2986
1149.0,0.2491
1150.0,0.1488
1151.0,0.2361
1152.0,0.2782
1153.0,0.2622
1154.0,0.1788
1155.0,0.3356
1156.0,0.3085
1157.0,0.3377
1158.0,0.3334
1159.0,0.3511
1160.0,0.311
1161.0,0.3642
1162.0,0.3673
1163.0,0.4654
1164.0,0.4107
1165.0,0.3974
1166.0,0.3882
1167.0,0.4169
1168.0,0.4234
1169.0,0.4294
1170.0,0.4581
1171.0,0.4483
1172.0,0.4517
1173.0,0.4571
1174.0,0.3513
1175.0,0.4433
1176.0,0.4762
1177.0,0.4641
1178.0,0.3676
1179.0,0.4795
1180.0,0.4406
1181.0,0.4531
1182.0,0.3332
1183.0,0.4433
1184.0,0.4223
1185.0,0.4131
1186.0,0.4706
1187.0,0.454
1188.0,0.3402
1189.0,0.4246
1190.0,0.46
1191.0,0.4463
1192.0,0.4653
1193.0,0.4495
1194.0,0.4608
1195.0,0.4425
1196.0,0.4307
1197.0,0.4571
1198.0,0.4241
1199.0,0.3765
1200.0,0.4444
1201.0,0.4339
1202.0,0.4286
1203.0,0.4248
1204.0,0.3811
1205.0,0.4339
1206.0,0.4702
1207.0,0.4289
1208.0,0.4175
1209.0,0.4249
1210.0,0.439
1211.0,0.4243
1212.0,0.4254
1213.0,0.458
1214.0,0.4323
1215.0,0.4258
1216.0,0.4563
1217.0,0.4473
1218.0,0.4529
1219.0,0.4486
1220.0,0.453
1221.0,0.4558
1222.0,0.4459
1223.0,0.4429
1224.0,0.4422
1225.0,0.453
1226.0,0.4542
1227.0,0.4267
1228.0,0.4549
1229.0,0.4542
1230.0,0.4479
1231.0,0.4559
1232.0,0.4534
1233.0,0.4437
1234.0,0.4543
1235.0,0.4523
1236.0,0.4549
1237.0,0.4509
1238.0,0.4534
1239.0,0.4476
1240.0,0.449
1241.0,0.4484
1242.0,0.4461
1243.0,0.4424
1244.0,0.446
1245.0,0.4476
1246.0,0.445
1247.0,0.4437
1248.0,0.4441
1249.0,0.4448
1250.0,0.4426
1251.0,0.4378
1252.0,0.4367
1253.0,0.4353
1254.0,0.4325
1255.0,0.4368
1256.0,0.4283
1257.0,0.4268
1258.0,0.4317
1259.0,0.422
1260.0,0.4234
1261.0,0.4072
1262.0,0.3989
1263.0,0.3999
1264.0,0.3786
1265.0,0.3972
1266.0,0.3877
1267.0,0.3907
1268.0,0.3767
1269.0,0.2779
1270.0,0.3908
1271.0,0.4049
1272.0,0.4054
1273.0,0.4019
1274.0,0.4021
1275.0,0.4065
1276.0,0.409
1277.0,0.4101
1278.0,0.4148
1279.0,0.4113
1280.0,0.406
1281.0,0.386
1282.0,0.3697
1283.0,0.3986
1284.0,0.4086
1285.0,0.411
1286.0,0.4152
1287.0,0.4112
1288.0,0.4105
1289.0,0.4021
1290.0,0.4065
1291.0,0.4114
1292.0,0.3952
1293.0,0.4056
1294.0,0.4032
1295.0,0.4033
1296.0,0.3908
1297.0,0.3745
1298.0,0.3938
1299.0,0.4053
1300.0,0.3593
1301.0,0.3669
1302.0,0.3922
1303.0,0.3529
1304.0,0.3165
1305.0,0.3856
1306.0,0.3863
1307.0,0.3181
1308.0,0.3511
1309.0,0.3844
1310.0,0.3127
1311.0,0.3401
1312.0,0.3333
1313.0,0.3292
1314.0,0.3005
1315.0,0.3
1316.0,0.3372
1317.0,0.3212
1318.0,0.3427
1319.0,0.2868
1320.0,0.2738
1321.0,0.3123
1322.0,0.3179
1323.0,0.2553
1324.0,0.2813
1325.0,0.3331
1326.0,0.2961
1327.0,0.285
1328.0,0.2509
1329.0,0.2022
1330.0,0.2558
1331.0,0.1723
1332.0,0.1716
1333.0,0.2335
1334.0,0.1918
1335.0,0.2539
1336.0,0.2093
1337.0,0.1911
1338.0,0.2054
1339.0,0.2024
1340.0,0.1927
1341.0,0.1977
1342.0,0.2071
1343.0,0.1626
1344.0,0.09763
1345.0,0.1368
1346.0,0.08468
1347.0,0.08876
1348.0,0.01029
1349.0,0.0308
1350.0,0.02821
1351.0,0.01137
1352.0,0.004971
1353.0,0.0004819
1354.0,0.001145
1355.0,3.108e-05
1356.0,0.0002506
1357.0,0.0003711
1358.0,3.508e-05
1359.0,1.037e-05
1360.0,2.18e-05
1361.0,1.638e-07
1362.0,1.127e-09
1363.0,3.424e-05
1364.0,1.646e-05
1365.0,1.019e-09
1366.0,0.0001175
1367.0,4.578e-05
1368.0,5.499e-11
1369.0,6.672e-06
1370.0,4.684e-06
1371.0,4.446e-07
1372.0,2.573e-05
1373.0,0.0002733
1374.0,0.0008367
1375.0,0.001452
1376.0,0.001012
1377.0,0.0005174
1378.0,0.003897
1379.0,0.0002265
1380.0,0.0004036
1381.0,1.477e-05
1382.0,2.553e-05
1383.0,5.969e-07
1384.0,8.552e-06
1385.0,1.666e-05
1386.0,2.862e-05
1387.0,0.001036
1388.0,2.469e-05
1389.0,0.002334
1390.0,0.001971
1391.0,0.00149
1392.0,0.0001213
1393.0,0.0004991
1394.0,0.0004689
1395.0,6.321e-06
1396.0,1.859e-07
1397.0,0.0002376
1398.0,0.004463
1399.0,0.002876
1400.0,1.276e-07
1401.0,2.791e-07
1402.0,0.004821
1403.0,0.006579
1404.0,0.002103
1405.0,4.204e-06
1406.0,0.006226
1407.0,0.0005485
1408.0,0.005011
1409.0,0.002262
1410.0,0.001603
1411.0,0.005711
1412.0,0.006688
1413.0,0.04218
1414.0,0.001231
1415.0,0.0006918
1416.0,0.05529
1417.0,0.02261
1418.0,0.02544
1419.0,0.004317
1420.0,0.01589
1421.0,0.01804
1422.0,0.07001
1423.0,0.0154
1424.0,0.0274
1425.0,0.04169
1426.0,0.04281
1427.0,0.06777
1428.0,0.01003
1429.0,0.05514
1430.0,0.08321
1431.0,0.08868
1432.0,0.008115
1433.0,0.06054
1434.0,0.03294
1435.0,0.03998
1436.0,0.06536
1437.0,0.0505
1438.0,0.02471
1439.0,0.0836
1440.0,0.06365
1441.0,0.05376
1442.0,0.05787
1443.0,0.0648
1444.0,0.08711
1445.0,0.07405
1446.0,0.03522
1447.0,0.05585
1448.0,0.1431
1449.0,0.1305
1450.0,0.04139
1451.0,0.01852
1452.0,0.08426
1453.0,0.1067
1454.0,0.1628
1455.0,0.08454
1456.0,0.1168
1457.0,0.1441
1458.0,0.1584
1459.0,0.1889
1460.0,0.105
1461.0,0.1143
1462.0,0.1578
1463.0,0.05852
1464.0,0.1775
1465.0,0.1089
1466.0,0.08806
1467.0,0.05279
1468.0,0.1003
1469.0,0.1194
