interpolation:linear
wavelength,value
280.0,1.392e-21
280.5,3.2680000000000004e-20
281.0,1.578e-19
281.5,3.634e-18
282.0,2.406e-17
282.5,8.15e-17
283.0,3.135e-16
283.5,5.521e-16
284.0,1.018e-14
284.5,3.014e-14
285.0,5.984e-14
285.5,3.783e-13
286.0,1.639e-12
286.5,7.988e-12
287.0,2.382e-11
287.5,9.314e-11
288.0,3.433e-10
288.5,1.225e-09
289.0,3.672e-09
289.5,1.208e-08
290.0,3.542e-08
290.5,7.522e-08
291.0,1.667e-07
291.5,4.871e-07
292.0,1.121e-06
292.5,1.598e-06
293.0,3.455e-06
293.5,8.371e-06
294.0,1.318e-05
294.5,2.213e-05
295.0,3.67e-05
295.5,8.248e-05
296.0,0.000141
296.5,0.000175
297.0,0.0002149
297.5,0.0004978
298.0,0.0006936
298.5,0.0006351
299.0,0.001278
299.5,0.001802
300.0,0.001818
300.5,0.002407
301.0,0.003763
301.5,0.005272
302.0,0.004241
302.5,0.007753
303.0,0.01277
303.5,0.01526
304.0,0.01385
304.5,0.01873
305.0,0.02473
305.5,0.02605
306.0,0.02449
306.5,0.02898
307.0,0.03824
307.5,0.04554
308.0,0.04745
308.5,0.05327
309.0,0.04691
309.5,0.05071
310.0,0.04968
310.5,0.07966
311.0,0.0979
311.5,0.09386
312.0,0.08897
312.5,0.1046
313.0,0.1116
313.5,0.111
314.0,0.1328
314.5,0.1108
315.0,0.1445
315.5,0.1253
316.0,0.1042
316.5,0.1433
317.0,0.1788
317.5,0.1894
318.0,0.1436
318.5,0.1681
319.0,0.194
319.5,0.167
320.0,0.2042
320.5,0.2406
321.0,0.2029
321.5,0.1941
322.0,0.2211
322.5,0.1924
323.0,0.1846
323.5,0.2124
324.0,0.247
324.5,0.2567
325.0,0.2341
325.5,0.2923
326.0,0.3439
326.5,0.337
327.0,0.3402
327.5,0.3337
328.0,0.3083
328.5,0.3123
329.0,0.3636
329.5,0.4103
330.0,0.4185
330.5,0.3443
331.0,0.3549
331.5,0.3554
332.0,0.3754
332.5,0.3682
333.0,0.371
333.5,0.3434
334.0,0.354
334.5,0.401
335.0,0.3734
335.5,0.4241
336.0,0.2942
336.5,0.3588
337.0,0.2979
337.5,0.3729
338.0,0.3589
338.5,0.4053
339.0,0.4044
339.5,0.3886
340.0,0.4688
340.5,0.4231
341.0,0.406
341.5,0.377
342.0,0.4526
342.5,0.4253
343.0,0.4672
343.5,0.4397
344.0,0.3306
344.5,0.3275
345.0,0.439
345.5,0.4508
346.0,0.3848
346.5,0.4373
347.0,0.4692
347.5,0.3799
348.0,0.4359
348.5,0.4377
349.0,0.4072
349.5,0.404
350.0,0.5009
350.5,0.5297
351.0,0.4737
351.5,0.4594
352.0,0.4961
352.5,0.3888
353.0,0.4913
353.5,0.527
354.0,0.5487
354.5,0.5579
355.0,0.5571
355.5,0.5045
356.0,0.5291
356.5,0.4529
357.0,0.3752
357.5,0.4605
358.0,0.3658
358.5,0.3134
359.0,0.4393
359.5,0.5609
360.0,0.5961
360.5,0.4776
361.0,0.4363
361.5,0.5032
362.0,0.4358
362.5,0.604
363.0,0.5434
363.5,0.5014
364.0,0.6143
364.5,0.5261
365.0,0.5369
365.5,0.6751
366.0,0.7165
366.5,0.6744
367.0,0.658
367.5,0.6842
368.0,0.5999
368.5,0.6063
369.0,0.656
369.5,0.7005
370.0,0.7481
370.5,0.5816
371.0,0.6226
371.5,0.7804
372.0,0.519
372.5,0.6233
373.0,0.6351
373.5,0.4139
374.0,0.6024
374.5,0.4997
375.0,0.4866
375.5,0.7279
376.0,0.6045
376.5,0.6276
377.0,0.6655
377.5,0.7799
378.0,0.8469
378.5,0.8021
379.0,0.6633
379.5,0.6072
380.0,0.6325
380.5,0.7672
381.0,0.77
381.5,0.6112
382.0,0.5436
382.5,0.464
383.0,0.4302
383.5,0.415
384.0,0.4585
384.5,0.6753
385.0,0.6707
385.5,0.6255
386.0,0.5365
386.5,0.7057
387.0,0.5873
387.5,0.6608
388.0,0.611
388.5,0.6048
389.0,0.6539
389.5,0.7931
390.0,0.7971
390.5,0.7346
391.0,0.8659
391.5,0.8846
392.0,0.7462
392.5,0.6689
393.0,0.3727
393.5,0.2712
394.0,0.5526
394.5,0.7035
395.0,0.8596
395.5,0.8745
396.0,0.7592
396.5,0.4443
397.0,0.3339
397.5,0.6799
398.0,0.9536
398.5,0.987
399.0,1.07
399.5,1.067
400.0,1.11
401.0,1.143
402.0,1.208
403.0,1.15
404.0,1.135
405.0,1.137
406.0,1.121
407.0,1.105
408.0,1.151
409.0,1.234
410.0,1.08
411.0,1.172
412.0,1.261
413.0,1.233
414.0,1.25
415.0,1.255
416.0,1.279
417.0,1.251
418.0,1.23
419.0,1.248
420.0,1.245
421.0,1.305
422.0,1.243
423.0,1.216
424.0,1.289
425.0,1.288
426.0,1.256
427.0,1.235
428.0,1.205
429.0,1.142
430.0,1.001
431.0,0.9945
432.0,1.286
433.0,1.295
434.0,1.204
435.0,1.26
436.0,1.421
437.0,1.403
438.0,1.279
439.0,1.326
440.0,1.369
441.0,1.421
442.0,1.526
443.0,1.489
444.0,1.523
445.0,1.493
446.0,1.425
447.0,1.542
448.0,1.569
449.0,1.576
450.0,1.622
451.0,1.684
452.0,1.625
453.0,1.53
454.0,1.598
455.0,1.61
456.0,1.65
457.0,1.68
458.0,1.626
459.0,1.619
460.0,1.626
461.0,1.665
462.0,1.679
463.0,1.669
464.0,1.642
465.0,1.622
466.0,1.639
467.0,1.611
468.0,1.632
469.0,1.643
470.0,1.593
471.0,1.592
472.0,1.679
473.0,1.66
474.0,1.665
475.0,1.683
476.0,1.636
477.0,1.643
478.0,1.69
479.0,1.681
480.0,1.685
481.0,1.717
482.0,1.726
483.0,1.705
484.0,1.671
485.0,1.593
486.0,1.393
487.0,1.461
488.0,1.604
489.0,1.611
490.0,1.696
491.0,1.667
492.0,1.576
493.0,1.629
494.0,1.646
495.0,1.662
496.0,1.673
497.0,1.701
498.0,1.623
499.0,1.645
500.0,1.6
501.0,1.573
502.0,1.554
503.0,1.62
504.0,1.587
505.0,1.64
506.0,1.694
507.0,1.613
508.0,1.562
509.0,1.606
510.0,1.598
511.0,1.64
512.0,1.659
513.0,1.571
514.0,1.561
515.0,1.546
516.0,1.544
517.0,1.373
518.0,1.444
519.0,1.516
520.0,1.572
521.0,1.589
522.0,1.592
523.0,1.564
524.0,1.622
525.0,1.644
526.0,1.572
527.0,1.483
528.0,1.571
529.0,1.657
530.0,1.635
531.0,1.661
532.0,1.605
533.0,1.559
534.0,1.605
535.0,1.64
536.0,1.656
537.0,1.591
538.0,1.62
539.0,1.607
540.0,1.542
541.0,1.555
542.0,1.605
543.0,1.588
544.0,1.618
545.0,1.613
546.0,1.622
547.0,1.621
548.0,1.602
549.0,1.607
550.0,1.627
551.0,1.608
552.0,1.62
553.0,1.592
554.0,1.631
555.0,1.636
556.0,1.616
557.0,1.567
558.0,1.557
559.0,1.529
560.0,1.55
561.0,1.571
562.0,1.562
563.0,1.606
564.0,1.564
565.0,1.552
566.0,1.531
567.0,1.562
568.0,1.552
569.0,1.521
570.0,1.521
571.0,1.511
572.0,1.552
573.0,1.569
574.0,1.566
575.0,1.539
576.0,1.525
577.0,1.542
578.0,1.518
579.0,1.522
580.0,1.547
581.0,1.553
582.0,1.58
583.0,1.582
584.0,1.595
585.0,1.556
586.0,1.524
587.0,1.56
588.0,1.53
589.0,1.371
590.0,1.433
591.0,1.508
592.0,1.495
593.0,1.511
594.0,1.504
595.0,1.472
596.0,1.519
597.0,1.506
598.0,1.499
599.0,1.499
600.0,1.499
601.0,1.485
602.0,1.475
603.0,1.499
604.0,1.524
605.0,1.516
606.0,1.509
607.0,1.523
608.0,1.505
609.0,1.508
610.0,1.496
611.0,1.504
612.0,1.499
613.0,1.48
614.0,1.46
615.0,1.491
616.0,1.441
617.0,1.438
618.0,1.494
619.0,1.479
620.0,1.488
621.0,1.491
622.0,1.475
623.0,1.454
624.0,1.429
625.0,1.426
626.0,1.448
627.0,1.467
628.0,1.401
629.0,1.443
630.0,1.412
631.0,1.434
632.0,1.415
633.0,1.454
634.0,1.437
635.0,1.458
636.0,1.437
637.0,1.46
638.0,1.472
639.0,1.455
640.0,1.44
641.0,1.438
642.0,1.431
643.0,1.45
644.0,1.445
645.0,1.448
646.0,1.418
647.0,1.41
648.0,1.413
649.0,1.386
650.0,1.383
651.0,1.441
652.0,1.393
653.0,1.422
654.0,1.405
655.0,1.359
656.0,1.201
657.0,1.233
658.0,1.379
659.0,1.388
660.0,1.393
661.0,1.403
662.0,1.408
663.0,1.38
664.0,1.393
665.0,1.393
666.0,1.393
667.0,1.391
668.0,1.391
669.0,1.412
670.0,1.405
671.0,1.405
672.0,1.393
673.0,1.413
674.0,1.408
675.0,1.395
676.0,1.404
677.0,1.39
678.0,1.394
679.0,1.372
680.0,1.383
681.0,1.374
682.0,1.372
683.0,1.37
684.0,1.363
685.0,1.375
686.0,1.367
687.0,1.044
688.0,1.157
689.0,1.159
690.0,1.194
691.0,1.232
692.0,1.258
693.0,1.251
694.0,1.241
695.0,1.277
696.0,1.279
697.0,1.336
698.0,1.316
699.0,1.298
700.0,1.283
701.0,1.274
702.0,1.278
703.0,1.281
704.0,1.314
705.0,1.316
706.0,1.312
707.0,1.312
708.0,1.316
709.0,1.313
710.0,1.315
711.0,1.312
712.0,1.306
713.0,1.295
714.0,1.3
715.0,1.264
716.0,1.266
717.0,1.149
718.0,1.065
719.0,0.9825
720.0,1.032
721.0,1.107
722.0,1.232
723.0,1.165
724.0,1.071
725.0,1.061
726.0,1.106
727.0,1.111
728.0,1.061
729.0,1.082
730.0,1.144
731.0,1.101
732.0,1.158
733.0,1.208
734.0,1.232
735.0,1.209
736.0,1.207
737.0,1.213
738.0,1.22
739.0,1.196
740.0,1.224
741.0,1.21
742.0,1.209
743.0,1.239
744.0,1.234
745.0,1.234
746.0,1.24
747.0,1.242
748.0,1.24
749.0,1.226
750.0,1.225
751.0,1.213
752.0,1.218
753.0,1.224
754.0,1.227
755.0,1.22
756.0,1.22
757.0,1.222
758.0,1.207
759.0,1.189
760.0,0.3548
761.0,0.2289
762.0,0.7518
763.0,0.4727
764.0,0.6221
765.0,0.7527
766.0,0.8532
767.0,1.009
768.0,1.114
769.0,1.126
770.0,1.152
771.0,1.156
772.0,1.157
773.0,1.164
774.0,1.159
775.0,1.15
776.0,1.164
777.0,1.148
778.0,1.142
779.0,1.143
780.0,1.136
781.0,1.137
782.0,1.145
783.0,1.125
784.0,1.13
785.0,1.122
786.0,1.135
787.0,1.12
788.0,1.109
789.0,1.11
790.0,1.088
791.0,1.09
792.0,1.081
793.0,1.065
794.0,1.075
795.0,1.095
796.0,1.072
797.0,1.074
798.0,1.095
799.0,1.09
800.0,1.074
801.0,1.073
802.0,1.07
803.0,1.063
804.0,1.063
805.0,1.057
806.0,1.082
807.0,1.07
808.0,1.071
809.0,1.055
810.0,1.049
811.0,1.055
812.0,1.032
813.0,1.016
814.0,0.9199
815.0,0.9137
816.0,0.8549
817.0,0.867
818.0,0.8405
819.0,0.9165
820.0,0.8725
821.0,0.9887
822.0,0.9658
823.0,0.708
824.0,0.9481
825.0,0.9737
826.0,0.9461
827.0,0.9884
828.0,0.8661
829.0,0.9387
830.0,0.9295
831.0,0.9317
832.0,0.9084
833.0,0.9515
834.0,0.9272
835.0,0.9989
836.0,0.9684
837.0,1.001
838.0,0.9752
839.0,0.985
840.0,1.005
841.0,0.9934
842.0,0.9921
843.0,0.9881
844.0,0.9764
845.0,1.007
846.0,1.002
847.0,0.9821
848.0,0.9776
849.0,0.95
850.0,0.91
851.0,0.9652
852.0,0.9578
853.0,0.9207
854.0,0.7961
855.0,0.8731
856.0,0.9549
857.0,0.9752
858.0,0.9685
859.0,0.9687
860.0,0.9701
861.0,0.965
862.0,0.98
863.0,1.003
864.0,0.953
865.0,0.9446
866.0,0.8494
867.0,0.8864
868.0,0.9646
869.0,0.9446
870.0,0.9715
871.0,0.9584
872.0,0.955
873.0,0.9531
874.0,0.9418
875.0,0.9228
876.0,0.9326
877.0,0.942
878.0,0.9525
879.0,0.9379
880.0,0.9178
881.0,0.9048
882.0,0.9247
883.0,0.927
884.0,0.9231
885.0,0.9301
886.0,0.8892
887.0,0.8966
888.0,0.9113
889.0,0.9192
890.0,0.9145
891.0,0.9115
892.0,0.8888
893.0,0.8659
894.0,0.8443
895.0,0.8092
896.0,0.7683
897.0,0.6765
898.0,0.7284
899.0,0.5749
900.0,0.7362
901.0,0.6013
902.0,0.6789
903.0,0.6939
904.0,0.8384
905.0,0.8149
906.0,0.7671
907.0,0.6473
908.0,0.6571
909.0,0.6998
910.0,0.6398
911.0,0.6697
912.0,0.6948
913.0,0.6503
914.0,0.6413
915.0,0.6921
916.0,0.5935
917.0,0.7288
918.0,0.6089
919.0,0.7372
920.0,0.7349
921.0,0.7611
922.0,0.6955
923.0,0.7347
924.0,0.7132
925.0,0.6985
926.0,0.7058
927.0,0.7758
928.0,0.6103
929.0,0.5683
930.0,0.4653
931.0,0.4375
932.0,0.3339
933.0,0.2823
934.0,0.1781
935.0,0.2799
936.0,0.1892
937.0,0.1941
938.0,0.2326
939.0,0.4241
940.0,0.4972
941.0,0.3932
942.0,0.4433
943.0,0.306
944.0,0.3101
945.0,0.4025
946.0,0.2245
947.0,0.4091
948.0,0.3043
949.0,0.5278
950.0,0.1787
951.0,0.5165
952.0,0.3039
953.0,0.3752
954.0,0.4413
955.0,0.3774
956.0,0.3592
957.0,0.3071
958.0,0.481
959.0,0.4019
960.0,0.4495
961.0,0.4897
962.0,0.4656
963.0,0.5236
964.0,0.4844
965.0,0.5199
966.0,0.5234
967.0,0.5223
968.0,0.6568
969.0,0.6884
970.0,0.6389
971.0,0.7124
972.0,0.6851
973.0,0.6154
974.0,0.5873
975.0,0.6019
976.0,0.5814
977.0,0.6423
978.0,0.6183
979.0,0.6412
980.0,0.6073
981.0,0.7076
982.0,0.6833
983.0,0.6602
984.0,0.7218
985.0,0.6805
986.0,0.7302
987.0,0.7204
988.0,0.7192
989.0,0.7254
990.0,0.7145
991.0,0.7281
992.0,0.7319
993.0,0.7201
994.0,0.7312
995.0,0.7297
996.0,0.7272
997.0,0.7279
998.0,0.7248
999.0,0.7219
1000.0,0.718
1001.0,0.7257
1002.0,0.7103
1003.0,0.7132
1004.0,0.697
1005.0,0.6699
1006.0,0.6969
1007.0,0.7112
1008.0,0.7082
1009.0,0.7053
1010.0,0.7029
1011.0,0.7076
1012.0,0.7024
1013.0,0.7057
1014.0,0.7007
1015.0,0.6963
1016.0,0.6933
1017.0,0.6952
1018.0,0.6921
1019.0,0.679
1020.0,0.6887
1021.0,0.6875
1022.0,0.6828
1023.0,0.6902
1024.0,0.683
1025.0,0.6892
1026.0,0.6867
1027.0,0.685
1028.0,0.6838
1029.0,0.6759
1030.0,0.6799
1031.0,0.6774
1032.0,0.6753
1033.0,0.6652
1034.0,0.6652
1035.0,0.6673
1036.0,0.6709
1037.0,0.66
1038.0,0.663
1039.0,0.6627
1040.0,0.6601
1041.0,0.6629
1042.0,0.6583
1043.0,0.6563
1044.0,0.6587
1045.0,0.6499
1046.0,0.6429
1047.0,0.6488
1048.0,0.6525
1049.0,0.6503
1050.0,0.6475
1051.0,0.6467
1052.0,0.6443
1053.0,0.6394
1054.0,0.641
1055.0,0.6416
1056.0,0.6397
1057.0,0.6379
1058.0,0.6225
1059.0,0.6235
1060.0,0.6227
1061.0,0.6221
1062.0,0.6256
1063.0,0.6197
1064.0,0.6269
1065.0,0.6231
1066.0,0.6103
1067.0,0.6184
1068.0,0.6053
1069.0,0.5863
1070.0,0.6067
1071.0,0.6146
1072.0,0.6087
1073.0,0.5997
1074.0,0.6135
1075.0,0.5876
1076.0,0.6133
1077.0,0.6051
1078.0,0.5946
1079.0,0.6028
1080.0,0.5959
1081.0,0.579
1082.0,0.5842
1083.0,0.5851
1084.0,0.579
1085.0,0.5968
1086.0,0.5526
1087.0,0.5643
1088.0,0.5854
1089.0,0.572
1090.0,0.5628
1091.0,0.5848
1092.0,0.5823
1093.0,0.5081
1094.0,0.5345
1095.0,0.527
1096.0,0.509
1097.0,0.5686
1098.0,0.5025
1099.0,0.5218
1100.0,0.4919
1101.0,0.496
1102.0,0.4776
1103.0,0.4759
1104.0,0.4762
1105.0,0.5114
1106.0,0.4163
1107.0,0.4906
1108.0,0.4312
1109.0,0.429
1110.0,0.4881
1111.0,0.3521
1112.0,0.4246
1113.0,0.2926
1114.0,0.324
1115.0,0.2694
1116.0,0.2293
1117.0,0.1011
1118.0,0.2437
1119.0,0.1339
1120.0,0.1685
1121.0,0.2152
1122.0,0.102
1123.0,0.1519
1124.0,0.1284
1125.0,0.1644
1126.0,0.06888
1127.0,0.1844
1128.0,0.1227
1129.0,0.1281
1130.0,0.09045
1131.0,0.3212
1132.0,0.2574
1133.0,0.1781
1134.0,0.05585
1135.0,0.02054
1136.0,0.154
1137.0,0.3194
1138.0,0.2289
1139.0,0.3141
1140.0,0.2729
1141.0,0.2175
1142.0,0.2442
1143.0,0.3355
1144.0,0.1318
1145.0,0.1713
1146.0,0.1849
1147.0,0.0775
1148.0,0.2906
1149.0,0.2408
1150.0,0.1415
1151.0,0.2274
1152.0,0.2698
1153.0,0.2555
1154.0,0.1691
1155.0,0.3281
1156.0,0.3007
1157.0,0.3302
1158.0,0.3262
1159.0,0.3447
1160.0,0.3035
1161.0,0.3582
1162.0,0.3611
1163.0,0.462
1164.0,0.4059
1165.0,0.3914
1166.0,0.3831
1167.0,0.4123
1168.0,0.4186
1169.0,0.4251
1170.0,0.4548
1171.0,0.4447
1172.0,0.4487
1173.0,0.4538
1174.0,0.3449
1175.0,0.4404
1176.0,0.4746
1177.0,0.4617
1178.0,0.3627
1179.0,0.478
1180.0,0.4374
1181.0,0.4502
1182.0,0.3279
1183.0,0.4408
1184.0,0.4188
1185.0,0.409
1186.0,0.4686
1187.0,0.4513
1188.0,0.3346
1189.0,0.4217
1190.0,0.458
1191.0,0.4431
1192.0,0.4634
1193.0,0.4472
1194.0,0.4588
1195.0,0.4397
1196.0,0.4273
1197.0,0.4557
1198.0,0.4218
1199.0,0.3723
1200.0,0.4421
1201.0,0.4309
1202.0,0.4259
1203.0,0.4223
1204.0,0.3773
1205.0,0.4318
1206.0,0.4693
1207.0,0.4261
1208.0,0.4154
1209.0,0.4229
1210.0,0.4375
1211.0,0.4219
1212.0,0.4223
1213.0,0.4567
1214.0,0.4296
1215.0,0.4229
1216.0,0.455
1217.0,0.4456
1218.0,0.4516
1219.0,0.4472
1220.0,0.4517
1221.0,0.4548
1222.0,0.4446
1223.0,0.4415
1224.0,0.4405
1225.0,0.4519
1226.0,0.4534
1227.0,0.4249
1228.0,0.4543
1229.0,0.4534
1230.0,0.4469
1231.0,0.4555
1232.0,0.453
1233.0,0.4426
1234.0,0.4541
1235.0,0.452
1236.0,0.4547
1237.0,0.4504
1238.0,0.4531
1239.0,0.4474
1240.0,0.4488
1241.0,0.448
1242.0,0.4459
1243.0,0.4422
1244.0,0.4457
1245.0,0.4474
1246.0,0.4447
1247.0,0.4434
1248.0,0.4437
1249.0,0.4445
1250.0,0.4422
1251.0,0.4373
1252.0,0.4364
1253.0,0.4347
1254.0,0.4317
1255.0,0.4364
1256.0,0.4275
1257.0,0.4258
1258.0,0.4312
1259.0,0.4207
1260.0,0.4222
1261.0,0.4051
1262.0,0.3964
1263.0,0.3973
1264.0,0.3749
1265.0,0.3946
1266.0,0.3845
1267.0,0.388
1268.0,0.3733
1269.0,0.2694
1270.0,0.3879
1271.0,0.4029
1272.0,0.4035
1273.0,0.4
1274.0,0.4003
1275.0,0.4048
1276.0,0.4075
1277.0,0.4088
1278.0,0.4139
1279.0,0.4104
1280.0,0.405
1281.0,0.3853
1282.0,0.3693
1283.0,0.3981
1284.0,0.4081
1285.0,0.4105
1286.0,0.4149
1287.0,0.4106
1288.0,0.4099
1289.0,0.4009
1290.0,0.406
1291.0,0.411
1292.0,0.3937
1293.0,0.4049
1294.0,0.4025
1295.0,0.4023
1296.0,0.3891
1297.0,0.3722
1298.0,0.3926
1299.0,0.4047
1300.0,0.3566
1301.0,0.3646
1302.0,0.3911
1303.0,0.3504
1304.0,0.3122
1305.0,0.3842
1306.0,0.3849
1307.0,0.3143
1308.0,0.3489
1309.0,0.3829
1310.0,0.3089
1311.0,0.3374
1312.0,0.3305
1313.0,0.3261
1314.0,0.2968
1315.0,0.2959
1316.0,0.3343
1317.0,0.3182
1318.0,0.3403
1319.0,0.2822
1320.0,0.2699
1321.0,0.3088
1322.0,0.314
1323.0,0.2499
1324.0,0.2767
1325.0,0.3302
1326.0,0.292
1327.0,0.2807
1328.0,0.2464
1329.0,0.1967
1330.0,0.2498
1331.0,0.1656
1332.0,0.1659
1333.0,0.2265
1334.0,0.1866
1335.0,0.2487
1336.0,0.2038
1337.0,0.185
1338.0,0.1993
1339.0,0.1966
1340.0,0.1877
1341.0,0.1914
1342.0,0.2005
1343.0,0.1543
1344.0,0.09237
1345.0,0.1303
1346.0,0.07826
1347.0,0.08177
1348.0,0.008702
1349.0,0.02682
1350.0,0.02504
1351.0,0.00939
1352.0,0.003868
1353.0,0.0003402
1354.0,0.0008502
1355.0,1.947e-05
1356.0,0.0001749
1357.0,0.0002605
1358.0,2.212e-05
1359.0,5.852e-06
1360.0,1.32e-05
1361.0,7.627e-08
1362.0,4.554e-10
1363.0,2.065e-05
1364.0,9.6e-06
1365.0,3.662e-10
1366.0,7.333e-05
1367.0,2.836e-05
1368.0,1.535e-11
1369.0,3.832e-06
1370.0,2.571e-06
1371.0,2.259e-07
1372.0,1.584e-05
1373.0,0.0001847
1374.0,0.0005993
1375.0,0.001056
1376.0,0.0007532
1377.0,0.0003783
1378.0,0.002985
1379.0,0.000164
1380.0,0.0002856
1381.0,9.86e-06
1382.0,1.554e-05
1383.0,3.369e-07
1384.0,4.845e-06
1385.0,1.059e-05
1386.0,1.695e-05
1387.0,0.0007312
1388.0,1.658e-05
1389.0,0.001732
1390.0,0.001472
1391.0,0.001089
1392.0,8.493e-05
1393.0,0.0003634
1394.0,0.0003175
1395.0,3.871e-06
1396.0,8.923e-08
1397.0,0.0001685
1398.0,0.003423
1399.0,0.002192
1400.0,5.777e-08
1401.0,1.373e-07
1402.0,0.003912
1403.0,0.005295
1404.0,0.00168
1405.0,2.47e-06
1406.0,0.004923
1407.0,0.0004266
1408.0,0.003962
1409.0,0.001722
1410.0,0.001227
1411.0,0.0046
1412.0,0.005489
1413.0,0.03734
1414.0,0.0009448
1415.0,0.0005187
1416.0,0.05035
1417.0,0.01962
1418.0,0.02226
1419.0,0.003715
1420.0,0.01384
1421.0,0.01551
1422.0,0.06419
1423.0,0.01377
1424.0,0.02472
1425.0,0.03751
1426.0,0.03907
1427.0,0.0634
1428.0,0.008445
1429.0,0.05092
1430.0,0.07827
1431.0,0.08383
1432.0,0.006801
1433.0,0.05652
1434.0,0.03039
1435.0,0.03586
1436.0,0.06017
1437.0,0.04634
1438.0,0.02214
1439.0,0.0778
1440.0,0.05898
1441.0,0.04903
1442.0,0.05316
1443.0,0.06061
1444.0,0.08171
1445.0,0.06864
1446.0,0.03238
1447.0,0.05116
1448.0,0.1373
1449.0,0.1241
1450.0,0.03787
1451.0,0.01662
1452.0,0.07924
1453.0,0.101
1454.0,0.1572
1455.0,0.08027
1456.0,0.1104
1457.0,0.1381
1458.0,0.1537
1459.0,0.1831
1460.0,0.1005
1461.0,0.1088
1462.0,0.1517
1463.0,0.05483
1464.0,0.1721
1465.0,0.1053
1466.0,0.08289
1467.0,0.04856
1468.0,0.09499
1469.0,0.1136
