interpolation:linear
wavelength,value
280.0,9.276999999999998e-22
280.5,2.2350000000000002e-20
281.0,1.089e-19
281.5,2.572e-18
282.0,1.729e-17
282.5,5.917e-17
283.0,2.302e-16
283.5,4.076e-16
284.0,7.714e-15
284.5,2.311e-14
285.0,4.648e-14
285.5,2.983e-13
286.0,1.301e-12
286.5,6.418e-12
287.0,1.932e-11
287.5,7.646e-11
288.0,2.862e-10
288.5,1.029e-09
289.0,3.112e-09
289.5,1.033e-08
290.0,3.052e-08
290.5,6.523e-08
291.0,1.456e-07
291.5,4.298e-07
292.0,9.972e-07
292.5,1.428e-06
293.0,3.104e-06
293.5,7.579e-06
294.0,1.199e-05
294.5,2.022e-05
295.0,3.37e-05
295.5,7.621e-05
296.0,0.0001308
296.5,0.000163
297.0,0.0002008
297.5,0.0004673
298.0,0.0006534
298.5,0.0005999
299.0,0.00121
299.5,0.001713
300.0,0.001732
300.5,0.002297
301.0,0.003603
301.5,0.005059
302.0,0.004074
302.5,0.007464
303.0,0.01233
303.5,0.01475
304.0,0.0134
304.5,0.01814
305.0,0.02401
305.5,0.02532
306.0,0.02383
306.5,0.02822
307.0,0.03729
307.5,0.04447
308.0,0.04635
308.5,0.05207
309.0,0.04588
309.5,0.04967
310.0,0.0487
310.5,0.07811
311.0,0.09605
311.5,0.09212
312.0,0.08742
312.5,0.1028
313.0,0.1097
313.5,0.1091
314.0,0.1307
314.5,0.1091
315.0,0.1423
315.5,0.1234
316.0,0.1027
316.5,0.1413
317.0,0.1764
317.5,0.1868
318.0,0.1417
318.5,0.166
319.0,0.1916
319.5,0.1649
320.0,0.2016
320.5,0.2377
321.0,0.2006
321.5,0.1919
322.0,0.2185
322.5,0.1902
323.0,0.1826
323.5,0.2102
324.0,0.2444
324.5,0.254
325.0,0.2316
325.5,0.2892
326.0,0.3404
326.5,0.3338
327.0,0.3369
327.5,0.3304
328.0,0.3052
328.5,0.3093
329.0,0.3603
329.5,0.4066
330.0,0.4147
330.5,0.3411
331.0,0.3516
331.5,0.3522
332.0,0.3721
332.5,0.3651
333.0,0.3677
333.5,0.3404
334.0,0.3509
334.5,0.3976
335.0,0.3702
335.5,0.4206
336.0,0.2918
336.5,0.3559
337.0,0.2955
337.5,0.3698
338.0,0.356
338.5,0.402
339.0,0.4012
339.5,0.3856
340.0,0.4651
340.5,0.4198
341.0,0.4029
341.5,0.3741
342.0,0.4492
342.5,0.4221
343.0,0.4637
343.5,0.4365
344.0,0.3282
344.5,0.3251
345.0,0.4358
345.5,0.4475
346.0,0.382
346.5,0.4342
347.0,0.4659
347.5,0.3772
348.0,0.4328
348.5,0.4346
349.0,0.4044
349.5,0.4012
350.0,0.4975
350.5,0.5261
351.0,0.4705
351.5,0.4563
352.0,0.4928
352.5,0.3862
353.0,0.4881
353.5,0.5235
354.0,0.5451
354.5,0.5542
355.0,0.5535
355.5,0.5012
356.0,0.5257
356.5,0.45
357.0,0.3728
357.5,0.4576
358.0,0.3635
358.5,0.3114
359.0,0.4366
359.5,0.5574
360.0,0.5924
360.5,0.4747
361.0,0.4337
361.5,0.5002
362.0,0.4332
362.5,0.6005
363.0,0.5402
363.5,0.4984
364.0,0.6107
364.5,0.523
365.0,0.5338
365.5,0.6712
366.0,0.7124
366.5,0.6706
367.0,0.6543
367.5,0.6804
368.0,0.5965
368.5,0.603
369.0,0.6524
369.5,0.6967
370.0,0.744
370.5,0.5785
371.0,0.6192
371.5,0.7762
372.0,0.5162
372.5,0.62
373.0,0.6317
373.5,0.4117
374.0,0.5993
374.5,0.4971
375.0,0.4841
375.5,0.7242
376.0,0.6014
376.5,0.6244
377.0,0.6621
377.5,0.7759
378.0,0.8427
378.5,0.7981
379.0,0.66
379.5,0.6042
380.0,0.6294
380.5,0.7635
381.0,0.7662
381.5,0.6083
382.0,0.541
382.5,0.4618
383.0,0.4282
383.5,0.413
384.0,0.4563
384.5,0.6722
385.0,0.6676
385.5,0.6226
386.0,0.534
386.5,0.7025
387.0,0.5847
387.5,0.6578
388.0,0.6083
388.5,0.6021
389.0,0.651
389.5,0.7896
390.0,0.7936
390.5,0.7314
391.0,0.8622
391.5,0.8808
392.0,0.743
392.5,0.666
393.0,0.3711
393.5,0.2701
394.0,0.5503
394.5,0.7005
395.0,0.856
395.5,0.8709
396.0,0.7561
396.5,0.4425
397.0,0.3325
397.5,0.6771
398.0,0.9498
398.5,0.983
399.0,1.065
399.5,1.063
400.0,1.106
401.0,1.138
402.0,1.203
403.0,1.145
404.0,1.13
405.0,1.133
406.0,1.117
407.0,1.101
408.0,1.147
409.0,1.23
410.0,1.077
411.0,1.168
412.0,1.257
413.0,1.228
414.0,1.246
415.0,1.251
416.0,1.275
417.0,1.246
418.0,1.226
419.0,1.244
420.0,1.241
421.0,1.301
422.0,1.239
423.0,1.212
424.0,1.285
425.0,1.284
426.0,1.252
427.0,1.231
428.0,1.201
429.0,1.139
430.0,0.9983
431.0,0.9916
432.0,1.282
433.0,1.291
434.0,1.201
435.0,1.256
436.0,1.417
437.0,1.399
438.0,1.275
439.0,1.322
440.0,1.366
441.0,1.417
442.0,1.522
443.0,1.485
444.0,1.519
445.0,1.489
446.0,1.422
447.0,1.538
448.0,1.565
449.0,1.572
450.0,1.618
451.0,1.68
452.0,1.621
453.0,1.526
454.0,1.594
455.0,1.606
456.0,1.646
457.0,1.676
458.0,1.622
459.0,1.615
460.0,1.622
461.0,1.661
462.0,1.675
463.0,1.666
464.0,1.638
465.0,1.618
466.0,1.635
467.0,1.608
468.0,1.629
469.0,1.64
470.0,1.589
471.0,1.589
472.0,1.676
473.0,1.656
474.0,1.662
475.0,1.679
476.0,1.632
477.0,1.64
478.0,1.687
479.0,1.677
480.0,1.681
481.0,1.713
482.0,1.722
483.0,1.702
484.0,1.668
485.0,1.59
486.0,1.39
487.0,1.458
488.0,1.601
489.0,1.608
490.0,1.693
491.0,1.664
492.0,1.573
493.0,1.626
494.0,1.644
495.0,1.659
496.0,1.67
497.0,1.698
498.0,1.62
499.0,1.643
500.0,1.597
501.0,1.57
502.0,1.551
503.0,1.618
504.0,1.584
505.0,1.637
506.0,1.691
507.0,1.61
508.0,1.56
509.0,1.603
510.0,1.595
511.0,1.638
512.0,1.656
513.0,1.569
514.0,1.559
515.0,1.544
516.0,1.542
517.0,1.37
518.0,1.442
519.0,1.514
520.0,1.57
521.0,1.586
522.0,1.589
523.0,1.562
524.0,1.62
525.0,1.641
526.0,1.569
527.0,1.481
528.0,1.568
529.0,1.655
530.0,1.632
531.0,1.658
532.0,1.602
533.0,1.556
534.0,1.603
535.0,1.638
536.0,1.654
537.0,1.589
538.0,1.617
539.0,1.605
540.0,1.54
541.0,1.553
542.0,1.603
543.0,1.586
544.0,1.615
545.0,1.611
546.0,1.62
547.0,1.619
548.0,1.6
549.0,1.605
550.0,1.625
551.0,1.606
552.0,1.618
553.0,1.59
554.0,1.629
555.0,1.633
556.0,1.613
557.0,1.565
558.0,1.554
559.0,1.527
560.0,1.547
561.0,1.569
562.0,1.559
563.0,1.604
564.0,1.562
565.0,1.55
566.0,1.529
567.0,1.56
568.0,1.549
569.0,1.519
570.0,1.518
571.0,1.508
572.0,1.549
573.0,1.567
574.0,1.563
575.0,1.536
576.0,1.523
577.0,1.539
578.0,1.515
579.0,1.519
580.0,1.545
581.0,1.551
582.0,1.578
583.0,1.58
584.0,1.593
585.0,1.554
586.0,1.522
587.0,1.558
588.0,1.528
589.0,1.369
590.0,1.431
591.0,1.506
592.0,1.492
593.0,1.509
594.0,1.502
595.0,1.47
596.0,1.517
597.0,1.503
598.0,1.497
599.0,1.497
600.0,1.497
601.0,1.483
602.0,1.473
603.0,1.497
604.0,1.522
605.0,1.514
606.0,1.507
607.0,1.521
608.0,1.504
609.0,1.506
610.0,1.494
611.0,1.502
612.0,1.497
613.0,1.479
614.0,1.458
615.0,1.489
616.0,1.44
617.0,1.437
618.0,1.492
619.0,1.477
620.0,1.487
621.0,1.49
622.0,1.474
623.0,1.453
624.0,1.427
625.0,1.424
626.0,1.446
627.0,1.465
628.0,1.399
629.0,1.442
630.0,1.41
631.0,1.432
632.0,1.413
633.0,1.452
634.0,1.435
635.0,1.457
636.0,1.436
637.0,1.458
638.0,1.471
639.0,1.453
640.0,1.438
641.0,1.437
642.0,1.43
643.0,1.449
644.0,1.443
645.0,1.447
646.0,1.417
647.0,1.409
648.0,1.412
649.0,1.385
650.0,1.382
651.0,1.44
652.0,1.392
653.0,1.421
654.0,1.404
655.0,1.358
656.0,1.2
657.0,1.232
658.0,1.378
659.0,1.387
660.0,1.392
661.0,1.402
662.0,1.407
663.0,1.379
664.0,1.392
665.0,1.392
666.0,1.392
667.0,1.39
668.0,1.39
669.0,1.411
670.0,1.405
671.0,1.404
672.0,1.392
673.0,1.413
674.0,1.407
675.0,1.394
676.0,1.404
677.0,1.39
678.0,1.393
679.0,1.371
680.0,1.382
681.0,1.373
682.0,1.371
683.0,1.369
684.0,1.362
685.0,1.374
686.0,1.366
687.0,1.041
688.0,1.154
689.0,1.156
690.0,1.192
691.0,1.231
692.0,1.257
693.0,1.249
694.0,1.24
695.0,1.276
696.0,1.278
697.0,1.335
698.0,1.315
699.0,1.297
700.0,1.282
701.0,1.273
702.0,1.277
703.0,1.28
704.0,1.313
705.0,1.315
706.0,1.311
707.0,1.311
708.0,1.315
709.0,1.312
710.0,1.315
711.0,1.311
712.0,1.305
713.0,1.294
714.0,1.299
715.0,1.263
716.0,1.265
717.0,1.147
718.0,1.064
719.0,0.9807
720.0,1.03
721.0,1.106
722.0,1.231
723.0,1.164
724.0,1.069
725.0,1.059
726.0,1.104
727.0,1.11
728.0,1.059
729.0,1.081
730.0,1.142
731.0,1.099
732.0,1.157
733.0,1.207
734.0,1.231
735.0,1.208
736.0,1.206
737.0,1.212
738.0,1.219
739.0,1.196
740.0,1.223
741.0,1.209
742.0,1.208
743.0,1.239
744.0,1.234
745.0,1.233
746.0,1.239
747.0,1.242
748.0,1.239
749.0,1.225
750.0,1.225
751.0,1.212
752.0,1.217
753.0,1.224
754.0,1.227
755.0,1.22
756.0,1.219
757.0,1.221
758.0,1.206
759.0,1.189
760.0,0.3508
761.0,0.2255
762.0,0.7485
763.0,0.4686
764.0,0.6183
765.0,0.7494
766.0,0.8507
767.0,1.008
768.0,1.113
769.0,1.125
770.0,1.151
771.0,1.155
772.0,1.156
773.0,1.164
774.0,1.158
775.0,1.149
776.0,1.163
777.0,1.148
778.0,1.141
779.0,1.142
780.0,1.136
781.0,1.137
782.0,1.144
783.0,1.124
784.0,1.13
785.0,1.122
786.0,1.135
787.0,1.12
788.0,1.109
789.0,1.109
790.0,1.087
791.0,1.09
792.0,1.081
793.0,1.064
794.0,1.074
795.0,1.095
796.0,1.072
797.0,1.073
798.0,1.095
799.0,1.09
800.0,1.074
801.0,1.073
802.0,1.069
803.0,1.063
804.0,1.063
805.0,1.057
806.0,1.082
807.0,1.07
808.0,1.071
809.0,1.054
810.0,1.048
811.0,1.054
812.0,1.032
813.0,1.015
814.0,0.9187
815.0,0.9124
816.0,0.8536
817.0,0.8658
818.0,0.8392
819.0,0.9156
820.0,0.8714
821.0,0.9881
822.0,0.9651
823.0,0.7064
824.0,0.9472
825.0,0.9731
826.0,0.9453
827.0,0.9878
828.0,0.865
829.0,0.9379
830.0,0.9287
831.0,0.9309
832.0,0.9075
833.0,0.9509
834.0,0.9264
835.0,0.9985
836.0,0.9677
837.0,1.001
838.0,0.9747
839.0,0.9846
840.0,1.005
841.0,0.993
842.0,0.9918
843.0,0.9878
844.0,0.9761
845.0,1.006
846.0,1.002
847.0,0.9819
848.0,0.9774
849.0,0.9498
850.0,0.9098
851.0,0.965
852.0,0.9575
853.0,0.9205
854.0,0.7959
855.0,0.8729
856.0,0.9547
857.0,0.975
858.0,0.9683
859.0,0.9685
860.0,0.9699
861.0,0.9648
862.0,0.9798
863.0,1.003
864.0,0.9528
865.0,0.9444
866.0,0.8492
867.0,0.8863
868.0,0.9644
869.0,0.9444
870.0,0.9714
871.0,0.9582
872.0,0.9548
873.0,0.9529
874.0,0.9416
875.0,0.9227
876.0,0.9324
877.0,0.9418
878.0,0.9524
879.0,0.9377
880.0,0.9177
881.0,0.9047
882.0,0.9246
883.0,0.9268
884.0,0.9229
885.0,0.9299
886.0,0.889
887.0,0.8964
888.0,0.9111
889.0,0.9191
890.0,0.9142
891.0,0.9113
892.0,0.8886
893.0,0.8656
894.0,0.8438
895.0,0.8085
896.0,0.7675
897.0,0.6753
898.0,0.7274
899.0,0.5736
900.0,0.7354
901.0,0.6
902.0,0.678
903.0,0.6929
904.0,0.8379
905.0,0.8143
906.0,0.7663
907.0,0.6462
908.0,0.656
909.0,0.6989
910.0,0.6385
911.0,0.6686
912.0,0.6938
913.0,0.6489
914.0,0.64
915.0,0.6909
916.0,0.5923
917.0,0.7278
918.0,0.6076
919.0,0.7363
920.0,0.7342
921.0,0.7605
922.0,0.6945
923.0,0.7341
924.0,0.7123
925.0,0.6975
926.0,0.7049
927.0,0.7751
928.0,0.6088
929.0,0.5667
930.0,0.4635
931.0,0.4359
932.0,0.3322
933.0,0.2807
934.0,0.1765
935.0,0.2784
936.0,0.1878
937.0,0.1927
938.0,0.2311
939.0,0.4226
940.0,0.4957
941.0,0.3915
942.0,0.4418
943.0,0.3046
944.0,0.3089
945.0,0.4009
946.0,0.2231
947.0,0.4073
948.0,0.3029
949.0,0.526
950.0,0.1772
951.0,0.5148
952.0,0.3023
953.0,0.3736
954.0,0.4398
955.0,0.3758
956.0,0.3577
957.0,0.3054
958.0,0.4799
959.0,0.4004
960.0,0.4479
961.0,0.4883
962.0,0.4642
963.0,0.5224
964.0,0.4831
965.0,0.5187
966.0,0.5221
967.0,0.521
968.0,0.6562
969.0,0.6877
970.0,0.638
971.0,0.7119
972.0,0.6846
973.0,0.6145
974.0,0.5864
975.0,0.6011
976.0,0.5804
977.0,0.6416
978.0,0.6174
979.0,0.6405
980.0,0.6065
981.0,0.7072
982.0,0.6827
983.0,0.6595
984.0,0.7215
985.0,0.68
986.0,0.73
987.0,0.7202
988.0,0.719
989.0,0.7252
990.0,0.7142
991.0,0.728
992.0,0.7317
993.0,0.7199
994.0,0.7311
995.0,0.7296
996.0,0.7271
997.0,0.7278
998.0,0.7247
999.0,0.7218
1000.0,0.7179
1001.0,0.7256
1002.0,0.7101
1003.0,0.7131
1004.0,0.6969
1005.0,0.6698
1006.0,0.6968
1007.0,0.7111
1008.0,0.7081
1009.0,0.7052
1010.0,0.7027
1011.0,0.7075
1012.0,0.7023
1013.0,0.7056
1014.0,0.7007
1015.0,0.6962
1016.0,0.6932
1017.0,0.6951
1018.0,0.692
1019.0,0.6789
1020.0,0.6887
1021.0,0.6874
1022.0,0.6827
1023.0,0.6901
1024.0,0.6829
1025.0,0.6891
1026.0,0.6866
1027.0,0.6849
1028.0,0.6837
1029.0,0.6758
1030.0,0.6798
1031.0,0.6774
1032.0,0.6752
1033.0,0.6651
1034.0,0.6651
1035.0,0.6672
1036.0,0.6709
1037.0,0.6599
1038.0,0.6629
1039.0,0.6626
1040.0,0.66
1041.0,0.6628
1042.0,0.6582
1043.0,0.6562
1044.0,0.6587
1045.0,0.6498
1046.0,0.6428
1047.0,0.6487
1048.0,0.6524
1049.0,0.6502
1050.0,0.6474
1051.0,0.6466
1052.0,0.6442
1053.0,0.6393
1054.0,0.6409
1055.0,0.6415
1056.0,0.6396
1057.0,0.6378
1058.0,0.6224
1059.0,0.6233
1060.0,0.6225
1061.0,0.6219
1062.0,0.6255
1063.0,0.6195
1064.0,0.6268
1065.0,0.6229
1066.0,0.6101
1067.0,0.6182
1068.0,0.6052
1069.0,0.5861
1070.0,0.6065
1071.0,0.6145
1072.0,0.6086
1073.0,0.5996
1074.0,0.6134
1075.0,0.5874
1076.0,0.6132
1077.0,0.6049
1078.0,0.5944
1079.0,0.6027
1080.0,0.5957
1081.0,0.5787
1082.0,0.5841
1083.0,0.5849
1084.0,0.5788
1085.0,0.5966
1086.0,0.5522
1087.0,0.5641
1088.0,0.5853
1089.0,0.5717
1090.0,0.5625
1091.0,0.5847
1092.0,0.5821
1093.0,0.5076
1094.0,0.5343
1095.0,0.5266
1096.0,0.5085
1097.0,0.5685
1098.0,0.5019
1099.0,0.5213
1100.0,0.4913
1101.0,0.4954
1102.0,0.477
1103.0,0.4752
1104.0,0.4755
1105.0,0.5108
1106.0,0.4153
1107.0,0.49
1108.0,0.4302
1109.0,0.4282
1110.0,0.4874
1111.0,0.3511
1112.0,0.4237
1113.0,0.2915
1114.0,0.3228
1115.0,0.2684
1116.0,0.2281
1117.0,0.1002
1118.0,0.2425
1119.0,0.133
1120.0,0.1673
1121.0,0.2139
1122.0,0.1011
1123.0,0.1509
1124.0,0.1275
1125.0,0.1633
1126.0,0.06813
1127.0,0.1832
1128.0,0.1216
1129.0,0.127
1130.0,0.0895
1131.0,0.3198
1132.0,0.2562
1133.0,0.1769
1134.0,0.05517
1135.0,0.0203
1136.0,0.1528
1137.0,0.318
1138.0,0.2277
1139.0,0.3132
1140.0,0.2718
1141.0,0.2164
1142.0,0.2431
1143.0,0.3343
1144.0,0.131
1145.0,0.1701
1146.0,0.1836
1147.0,0.07665
1148.0,0.2896
1149.0,0.2397
1150.0,0.1405
1151.0,0.2262
1152.0,0.2686
1153.0,0.2546
1154.0,0.1679
1155.0,0.3271
1156.0,0.2996
1157.0,0.3292
1158.0,0.3252
1159.0,0.3439
1160.0,0.3025
1161.0,0.3574
1162.0,0.3603
1163.0,0.4616
1164.0,0.4052
1165.0,0.3906
1166.0,0.3824
1167.0,0.4117
1168.0,0.4179
1169.0,0.4245
1170.0,0.4543
1171.0,0.4443
1172.0,0.4483
1173.0,0.4533
1174.0,0.3441
1175.0,0.4401
1176.0,0.4744
1177.0,0.4613
1178.0,0.362
1179.0,0.4778
1180.0,0.437
1181.0,0.4498
1182.0,0.3272
1183.0,0.4405
1184.0,0.4184
1185.0,0.4084
1186.0,0.4683
1187.0,0.4509
1188.0,0.3339
1189.0,0.4213
1190.0,0.4577
1191.0,0.4427
1192.0,0.4632
1193.0,0.4469
1194.0,0.4585
1195.0,0.4393
1196.0,0.4269
1197.0,0.4555
1198.0,0.4215
1199.0,0.3718
1200.0,0.4418
1201.0,0.4305
1202.0,0.4256
1203.0,0.422
1204.0,0.3768
1205.0,0.4315
1206.0,0.4692
1207.0,0.4257
1208.0,0.4151
1209.0,0.4226
1210.0,0.4373
1211.0,0.4216
1212.0,0.4219
1213.0,0.4565
1214.0,0.4292
1215.0,0.4225
1216.0,0.4548
1217.0,0.4454
1218.0,0.4514
1219.0,0.447
1220.0,0.4515
1221.0,0.4546
1222.0,0.4444
1223.0,0.4413
1224.0,0.4403
1225.0,0.4518
1226.0,0.4533
1227.0,0.4247
1228.0,0.4542
1229.0,0.4533
1230.0,0.4468
1231.0,0.4555
1232.0,0.4529
1233.0,0.4424
1234.0,0.4541
1235.0,0.4519
1236.0,0.4546
1237.0,0.4503
1238.0,0.4531
1239.0,0.4473
1240.0,0.4488
1241.0,0.4479
1242.0,0.4458
1243.0,0.4421
1244.0,0.4457
1245.0,0.4474
1246.0,0.4447
1247.0,0.4433
1248.0,0.4437
1249.0,0.4445
1250.0,0.4422
1251.0,0.4373
1252.0,0.4364
1253.0,0.4346
1254.0,0.4316
1255.0,0.4364
1256.0,0.4274
1257.0,0.4257
1258.0,0.4311
1259.0,0.4205
1260.0,0.4221
1261.0,0.4048
1262.0,0.396
1263.0,0.397
1264.0,0.3744
1265.0,0.3943
1266.0,0.3841
1267.0,0.3876
1268.0,0.3728
1269.0,0.2683
1270.0,0.3875
1271.0,0.4027
1272.0,0.4032
1273.0,0.3997
1274.0,0.4
1275.0,0.4046
1276.0,0.4073
1277.0,0.4086
1278.0,0.4138
1279.0,0.4103
1280.0,0.4049
1281.0,0.3852
1282.0,0.3692
1283.0,0.3981
1284.0,0.408
1285.0,0.4104
1286.0,0.4148
1287.0,0.4105
1288.0,0.4098
1289.0,0.4008
1290.0,0.4059
1291.0,0.4109
1292.0,0.3935
1293.0,0.4048
1294.0,0.4024
1295.0,0.4022
1296.0,0.3889
1297.0,0.3719
1298.0,0.3924
1299.0,0.4046
1300.0,0.3562
1301.0,0.3642
1302.0,0.3909
1303.0,0.35
1304.0,0.3116
1305.0,0.384
1306.0,0.3847
1307.0,0.3138
1308.0,0.3486
1309.0,0.3827
1310.0,0.3084
1311.0,0.3371
1312.0,0.3301
1313.0,0.3257
1314.0,0.2963
1315.0,0.2953
1316.0,0.3339
1317.0,0.3178
1318.0,0.34
1319.0,0.2815
1320.0,0.2694
1321.0,0.3083
1322.0,0.3135
1323.0,0.2492
1324.0,0.2761
1325.0,0.3298
1326.0,0.2915
1327.0,0.2801
1328.0,0.2458
1329.0,0.1959
1330.0,0.249
1331.0,0.1648
1332.0,0.1651
1333.0,0.2256
1334.0,0.1859
1335.0,0.248
1336.0,0.2031
1337.0,0.1842
1338.0,0.1985
1339.0,0.1958
1340.0,0.187
1341.0,0.1905
1342.0,0.1996
1343.0,0.1532
1344.0,0.09168
1345.0,0.1295
1346.0,0.07741
1347.0,0.08085
1348.0,0.008505
1349.0,0.02631
1350.0,0.02463
1351.0,0.009147
1352.0,0.003736
1353.0,0.0003243
1354.0,0.0008163
1355.0,1.826e-05
1356.0,0.0001665
1357.0,0.0002482
1358.0,2.077e-05
1359.0,5.411e-06
1360.0,1.232e-05
1361.0,6.87e-08
1362.0,4.025e-10
1363.0,1.926e-05
1364.0,8.917e-06
1365.0,3.184e-10
1366.0,6.872e-05
1367.0,2.656e-05
1368.0,1.288e-11
1369.0,3.552e-06
1370.0,2.368e-06
1371.0,2.06e-07
1372.0,1.482e-05
1373.0,0.000175
1374.0,0.0005725
1375.0,0.00101
1376.0,0.0007234
1377.0,0.0003625
1378.0,0.002878
1379.0,0.000157
1380.0,0.0002724
1381.0,9.333e-06
1382.0,1.452e-05
1383.0,3.117e-07
1384.0,4.482e-06
1385.0,9.957e-06
1386.0,1.578e-05
1387.0,0.0006969
1388.0,1.571e-05
1389.0,0.001663
1390.0,0.001414
1391.0,0.001043
1392.0,8.09e-05
1393.0,0.000348
1394.0,0.0003009
1395.0,3.62e-06
1396.0,8.071e-08
1397.0,0.0001608
1398.0,0.0033
1399.0,0.002112
1400.0,5.183e-08
1401.0,1.247e-07
1402.0,0.003802
1403.0,0.00514
1404.0,0.001629
1405.0,2.298e-06
1406.0,0.004766
1407.0,0.0004123
1408.0,0.003837
1409.0,0.001658
1410.0,0.001183
1411.0,0.004466
1412.0,0.005343
1413.0,0.03672
1414.0,0.0009113
1415.0,0.0004987
1416.0,0.04971
1417.0,0.01925
1418.0,0.02186
1419.0,0.003639
1420.0,0.01359
1421.0,0.01519
1422.0,0.06343
1423.0,0.01356
1424.0,0.02438
1425.0,0.03698
1426.0,0.03858
1427.0,0.06282
1428.0,0.008249
1429.0,0.05037
1430.0,0.07762
1431.0,0.08319
1432.0,0.006639
1433.0,0.05599
1434.0,0.03006
1435.0,0.03533
1436.0,0.0595
1437.0,0.04581
1438.0,0.02182
1439.0,0.07703
1440.0,0.05837
1441.0,0.04842
1442.0,0.05255
1443.0,0.06005
1444.0,0.081
1445.0,0.06793
1446.0,0.03201
1447.0,0.05056
1448.0,0.1365
1449.0,0.1233
1450.0,0.03742
1451.0,0.01638
1452.0,0.07858
1453.0,0.1003
1454.0,0.1564
1455.0,0.0797
1456.0,0.1096
1457.0,0.1373
1458.0,0.1531
1459.0,0.1823
1460.0,0.09995
1461.0,0.1081
1462.0,0.1508
1463.0,0.05435
1464.0,0.1714
1465.0,0.1048
1466.0,0.08221
1467.0,0.04801
