interpolation:linear
wavelength,value
280.0,3.582e-20
280.5,6.842e-19
281.0,3.063e-18
281.5,5.776e-17
282.0,3.387e-16
282.5,1.057e-15
283.0,3.718e-15
283.5,6.259e-15
284.0,9.371e-14
284.5,2.523e-13
285.0,4.521e-13
285.5,2.532e-12
286.0,1.045e-11
286.5,4.604e-11
287.0,1.275e-10
287.5,4.523e-10
288.0,1.475e-09
288.5,4.93e-09
289.0,1.382e-08
289.5,4.222e-08
290.0,1.165e-07
290.5,2.353e-07
291.0,4.905e-07
291.5,1.327e-06
292.0,2.867e-06
292.5,3.944e-06
293.0,8.147e-06
293.5,1.855e-05
294.0,2.8e-05
294.5,4.557e-05
295.0,7.262e-05
295.5,0.0001553
296.0,0.0002568
296.5,0.0003086
297.0,0.0003695
297.5,0.0008261
298.0,0.001119
298.5,0.001003
299.0,0.001978
299.5,0.002702
300.0,0.00268
300.5,0.003491
301.0,0.005332
301.5,0.007329
302.0,0.005841
302.5,0.0105
303.0,0.01696
303.5,0.02003
304.0,0.01808
304.5,0.02413
305.0,0.03132
305.5,0.03265
306.0,0.03056
306.5,0.03593
307.0,0.0468
307.5,0.05508
308.0,0.05725
308.5,0.06391
309.0,0.05603
309.5,0.05984
310.0,0.0583
310.5,0.09319
311.0,0.114
311.5,0.1091
312.0,0.1025
312.5,0.1197
313.0,0.1274
313.5,0.1269
314.0,0.1509
314.5,0.1249
315.0,0.1626
315.5,0.1414
316.0,0.1168
316.5,0.1599
317.0,0.1994
317.5,0.2114
318.0,0.1597
318.5,0.1858
319.0,0.2138
319.5,0.1847
320.0,0.2258
320.5,0.2645
321.0,0.222
321.5,0.2122
322.0,0.2427
322.5,0.211
323.0,0.2018
323.5,0.2309
324.0,0.2682
324.5,0.2791
325.0,0.2552
325.5,0.3178
326.0,0.3725
326.5,0.3642
327.0,0.3678
327.5,0.3608
328.0,0.3343
328.5,0.3372
329.0,0.3916
329.5,0.4414
330.0,0.4503
330.5,0.3709
331.0,0.3824
331.5,0.3822
332.0,0.4028
332.5,0.3948
333.0,0.3976
333.5,0.3684
334.0,0.3797
334.5,0.4293
335.0,0.3993
335.5,0.4532
336.0,0.3143
336.5,0.3834
337.0,0.3184
337.5,0.3984
338.0,0.3829
338.5,0.4321
339.0,0.4309
339.5,0.4139
340.0,0.4994
340.5,0.4505
341.0,0.432
341.5,0.4008
342.0,0.481
342.5,0.4519
343.0,0.4962
343.5,0.467
344.0,0.3512
344.5,0.3476
345.0,0.4656
345.5,0.4779
346.0,0.4078
346.5,0.4632
347.0,0.4969
347.5,0.4022
348.0,0.4612
348.5,0.463
349.0,0.4306
349.5,0.427
350.0,0.5293
350.5,0.5595
351.0,0.5003
351.5,0.4851
352.0,0.5236
352.5,0.4102
353.0,0.5182
353.5,0.5555
354.0,0.5783
354.5,0.5878
355.0,0.5869
355.5,0.5312
356.0,0.557
356.5,0.4767
357.0,0.3948
357.5,0.4844
358.0,0.3847
358.5,0.3295
359.0,0.4618
359.5,0.5895
360.0,0.6263
360.5,0.5017
361.0,0.4582
361.5,0.5282
362.0,0.4572
362.5,0.6336
363.0,0.5698
363.5,0.5255
364.0,0.6437
364.5,0.5511
365.0,0.5623
365.5,0.7069
366.0,0.75
366.5,0.7057
367.0,0.6884
367.5,0.7157
368.0,0.6273
368.5,0.6339
369.0,0.6856
369.5,0.732
370.0,0.7815
370.5,0.6074
371.0,0.65
371.5,0.8146
372.0,0.5416
372.5,0.6504
373.0,0.6625
373.5,0.4316
374.0,0.6281
374.5,0.5209
375.0,0.5071
375.5,0.7584
376.0,0.6297
376.5,0.6537
377.0,0.693
377.5,0.8119
378.0,0.8816
378.5,0.8348
379.0,0.6902
379.5,0.6317
380.0,0.6579
380.5,0.7979
381.0,0.8005
381.5,0.6353
382.0,0.5649
382.5,0.482
383.0,0.4468
383.5,0.4309
384.0,0.476
384.5,0.701
385.0,0.696
385.5,0.6489
386.0,0.5565
386.5,0.7318
387.0,0.609
387.5,0.685
388.0,0.6333
388.5,0.6267
389.0,0.6775
389.5,0.8216
390.0,0.8255
390.5,0.7607
391.0,0.8965
391.5,0.9157
392.0,0.7723
392.5,0.6922
393.0,0.3855
393.5,0.2805
394.0,0.5715
394.5,0.7274
395.0,0.8887
395.5,0.904
396.0,0.7847
396.5,0.4591
397.0,0.3449
397.5,0.7023
398.0,0.9849
398.5,1.019
399.0,1.104
399.5,1.102
400.0,1.146
401.0,1.179
402.0,1.246
403.0,1.186
404.0,1.17
405.0,1.172
406.0,1.155
407.0,1.138
408.0,1.185
409.0,1.27
410.0,1.112
411.0,1.206
412.0,1.297
413.0,1.267
414.0,1.285
415.0,1.29
416.0,1.314
417.0,1.284
418.0,1.263
419.0,1.281
420.0,1.278
421.0,1.339
422.0,1.275
423.0,1.247
424.0,1.321
425.0,1.32
426.0,1.287
427.0,1.265
428.0,1.234
429.0,1.17
430.0,1.025
431.0,1.018
432.0,1.316
433.0,1.324
434.0,1.232
435.0,1.289
436.0,1.453
437.0,1.434
438.0,1.307
439.0,1.355
440.0,1.399
441.0,1.451
442.0,1.558
443.0,1.521
444.0,1.555
445.0,1.524
446.0,1.455
447.0,1.573
448.0,1.601
449.0,1.608
450.0,1.654
451.0,1.717
452.0,1.656
453.0,1.559
454.0,1.628
455.0,1.641
456.0,1.681
457.0,1.711
458.0,1.656
459.0,1.648
460.0,1.655
461.0,1.695
462.0,1.709
463.0,1.699
464.0,1.671
465.0,1.65
466.0,1.667
467.0,1.639
468.0,1.66
469.0,1.671
470.0,1.619
471.0,1.619
472.0,1.707
473.0,1.687
474.0,1.693
475.0,1.711
476.0,1.663
477.0,1.671
478.0,1.718
479.0,1.708
480.0,1.712
481.0,1.744
482.0,1.753
483.0,1.731
484.0,1.696
485.0,1.617
486.0,1.414
487.0,1.482
488.0,1.628
489.0,1.635
490.0,1.72
491.0,1.691
492.0,1.598
493.0,1.652
494.0,1.67
495.0,1.685
496.0,1.697
497.0,1.724
498.0,1.645
499.0,1.668
500.0,1.621
501.0,1.594
502.0,1.575
503.0,1.643
504.0,1.609
505.0,1.662
506.0,1.717
507.0,1.635
508.0,1.583
509.0,1.627
510.0,1.619
511.0,1.662
512.0,1.68
513.0,1.591
514.0,1.581
515.0,1.566
516.0,1.563
517.0,1.39
518.0,1.462
519.0,1.535
520.0,1.592
521.0,1.608
522.0,1.611
523.0,1.583
524.0,1.642
525.0,1.664
526.0,1.591
527.0,1.501
528.0,1.59
529.0,1.678
530.0,1.655
531.0,1.681
532.0,1.624
533.0,1.578
534.0,1.625
535.0,1.66
536.0,1.676
537.0,1.61
538.0,1.639
539.0,1.626
540.0,1.56
541.0,1.573
542.0,1.624
543.0,1.606
544.0,1.637
545.0,1.632
546.0,1.641
547.0,1.64
548.0,1.621
549.0,1.626
550.0,1.646
551.0,1.626
552.0,1.638
553.0,1.61
554.0,1.65
555.0,1.654
556.0,1.634
557.0,1.584
558.0,1.574
559.0,1.547
560.0,1.567
561.0,1.589
562.0,1.579
563.0,1.625
564.0,1.582
565.0,1.57
566.0,1.549
567.0,1.58
568.0,1.57
569.0,1.54
570.0,1.539
571.0,1.529
572.0,1.571
573.0,1.589
574.0,1.585
575.0,1.558
576.0,1.544
577.0,1.561
578.0,1.536
579.0,1.54
580.0,1.565
581.0,1.57
582.0,1.597
583.0,1.599
584.0,1.612
585.0,1.572
586.0,1.541
587.0,1.577
588.0,1.548
589.0,1.389
590.0,1.451
591.0,1.526
592.0,1.513
593.0,1.529
594.0,1.522
595.0,1.49
596.0,1.536
597.0,1.523
598.0,1.516
599.0,1.516
600.0,1.515
601.0,1.5
602.0,1.49
603.0,1.514
604.0,1.539
605.0,1.531
606.0,1.524
607.0,1.538
608.0,1.52
609.0,1.522
610.0,1.51
611.0,1.518
612.0,1.513
613.0,1.494
614.0,1.473
615.0,1.504
616.0,1.454
617.0,1.451
618.0,1.507
619.0,1.492
620.0,1.502
621.0,1.504
622.0,1.488
623.0,1.467
624.0,1.442
625.0,1.439
626.0,1.461
627.0,1.48
628.0,1.418
629.0,1.458
630.0,1.426
631.0,1.447
632.0,1.428
633.0,1.467
634.0,1.449
635.0,1.47
636.0,1.449
637.0,1.471
638.0,1.483
639.0,1.465
640.0,1.45
641.0,1.448
642.0,1.441
643.0,1.46
644.0,1.455
645.0,1.458
646.0,1.429
647.0,1.422
648.0,1.425
649.0,1.398
650.0,1.393
651.0,1.451
652.0,1.405
653.0,1.432
654.0,1.415
655.0,1.369
656.0,1.209
657.0,1.241
658.0,1.388
659.0,1.396
660.0,1.402
661.0,1.412
662.0,1.417
663.0,1.388
664.0,1.402
665.0,1.4
666.0,1.401
667.0,1.398
668.0,1.398
669.0,1.419
670.0,1.413
671.0,1.412
672.0,1.4
673.0,1.42
674.0,1.415
675.0,1.402
676.0,1.411
677.0,1.397
678.0,1.401
679.0,1.378
680.0,1.389
681.0,1.38
682.0,1.378
683.0,1.376
684.0,1.369
685.0,1.381
686.0,1.373
687.0,1.07
688.0,1.176
689.0,1.178
690.0,1.21
691.0,1.246
692.0,1.269
693.0,1.262
694.0,1.253
695.0,1.286
696.0,1.289
697.0,1.343
698.0,1.323
699.0,1.307
700.0,1.292
701.0,1.283
702.0,1.287
703.0,1.289
704.0,1.321
705.0,1.324
706.0,1.319
707.0,1.319
708.0,1.322
709.0,1.319
710.0,1.321
711.0,1.318
712.0,1.312
713.0,1.301
714.0,1.306
715.0,1.27
716.0,1.273
717.0,1.162
718.0,1.08
719.0,0.9976
720.0,1.048
721.0,1.119
722.0,1.239
723.0,1.176
724.0,1.084
725.0,1.075
726.0,1.119
727.0,1.123
728.0,1.075
729.0,1.094
730.0,1.155
731.0,1.113
732.0,1.168
733.0,1.215
734.0,1.238
735.0,1.216
736.0,1.214
737.0,1.22
738.0,1.225
739.0,1.201
740.0,1.228
741.0,1.214
742.0,1.213
743.0,1.243
744.0,1.238
745.0,1.237
746.0,1.243
747.0,1.246
748.0,1.243
749.0,1.229
750.0,1.228
751.0,1.216
752.0,1.221
753.0,1.227
754.0,1.23
755.0,1.224
756.0,1.223
757.0,1.225
758.0,1.21
759.0,1.194
760.0,0.3882
761.0,0.2584
762.0,0.7785
763.0,0.5067
764.0,0.6536
765.0,0.7794
766.0,0.8731
767.0,1.023
768.0,1.121
769.0,1.132
770.0,1.156
771.0,1.159
772.0,1.16
773.0,1.167
774.0,1.161
775.0,1.152
776.0,1.166
777.0,1.151
778.0,1.144
779.0,1.145
780.0,1.139
781.0,1.14
782.0,1.147
783.0,1.127
784.0,1.132
785.0,1.125
786.0,1.138
787.0,1.124
788.0,1.113
789.0,1.113
790.0,1.093
791.0,1.094
792.0,1.085
793.0,1.069
794.0,1.077
795.0,1.098
796.0,1.077
797.0,1.078
798.0,1.098
799.0,1.094
800.0,1.078
801.0,1.077
802.0,1.074
803.0,1.067
804.0,1.067
805.0,1.061
806.0,1.085
807.0,1.073
808.0,1.074
809.0,1.058
810.0,1.053
811.0,1.059
812.0,1.038
813.0,1.022
814.0,0.9301
815.0,0.9238
816.0,0.8653
817.0,0.8768
818.0,0.851
819.0,0.924
820.0,0.8812
821.0,0.9934
822.0,0.9713
823.0,0.7213
824.0,0.9551
825.0,0.9788
826.0,0.9525
827.0,0.9934
828.0,0.8753
829.0,0.9447
830.0,0.9361
831.0,0.938
832.0,0.9155
833.0,0.9561
834.0,0.9333
835.0,1.002
836.0,0.9736
837.0,1.004
838.0,0.979
839.0,0.988
840.0,1.008
841.0,0.9965
842.0,0.9947
843.0,0.99
844.0,0.9787
845.0,1.009
846.0,1.004
847.0,0.9837
848.0,0.9795
849.0,0.9518
850.0,0.9117
851.0,0.9673
852.0,0.9597
853.0,0.9223
854.0,0.7977
855.0,0.8746
856.0,0.9566
857.0,0.9767
858.0,0.9701
859.0,0.9702
860.0,0.9715
861.0,0.9664
862.0,0.9814
863.0,1.005
864.0,0.9544
865.0,0.9459
866.0,0.8506
867.0,0.8876
868.0,0.9659
869.0,0.9459
870.0,0.9728
871.0,0.9597
872.0,0.9562
873.0,0.9544
874.0,0.943
875.0,0.9241
876.0,0.9339
877.0,0.9432
878.0,0.9538
879.0,0.9391
880.0,0.919
881.0,0.9062
882.0,0.9261
883.0,0.9283
884.0,0.9244
885.0,0.9314
886.0,0.8909
887.0,0.898
888.0,0.913
889.0,0.9205
890.0,0.9162
891.0,0.9129
892.0,0.8908
893.0,0.8688
894.0,0.8486
895.0,0.8153
896.0,0.7755
897.0,0.686
898.0,0.7367
899.0,0.5857
900.0,0.7428
901.0,0.612
902.0,0.686
903.0,0.7027
904.0,0.8427
905.0,0.82
906.0,0.7728
907.0,0.6567
908.0,0.6661
909.0,0.707
910.0,0.6504
911.0,0.6787
912.0,0.703
913.0,0.6612
914.0,0.6515
915.0,0.7021
916.0,0.6041
917.0,0.7367
918.0,0.6196
919.0,0.7444
920.0,0.7406
921.0,0.766
922.0,0.7029
923.0,0.7394
924.0,0.7207
925.0,0.706
926.0,0.7131
927.0,0.7812
928.0,0.6226
929.0,0.5819
930.0,0.4803
931.0,0.4508
932.0,0.3476
933.0,0.2963
934.0,0.1916
935.0,0.2919
936.0,0.2003
937.0,0.2061
938.0,0.2458
939.0,0.437
940.0,0.5098
941.0,0.4068
942.0,0.4561
943.0,0.3178
944.0,0.3199
945.0,0.4159
946.0,0.236
947.0,0.4236
948.0,0.3162
949.0,0.5423
950.0,0.1911
951.0,0.53
952.0,0.3178
953.0,0.3888
954.0,0.4534
955.0,0.3905
956.0,0.3711
957.0,0.3217
958.0,0.4907
959.0,0.4141
960.0,0.4627
961.0,0.5013
962.0,0.4772
963.0,0.534
964.0,0.495
965.0,0.5297
966.0,0.534
967.0,0.533
968.0,0.6621
969.0,0.694
970.0,0.6456
971.0,0.7161
972.0,0.6894
973.0,0.6231
974.0,0.5954
975.0,0.6087
976.0,0.5897
977.0,0.648
978.0,0.6252
979.0,0.6471
980.0,0.6139
981.0,0.7111
982.0,0.688
983.0,0.6655
984.0,0.724
985.0,0.6851
986.0,0.7315
987.0,0.7225
988.0,0.7214
989.0,0.7262
990.0,0.7164
991.0,0.7291
992.0,0.7327
993.0,0.7217
994.0,0.732
995.0,0.7303
996.0,0.728
997.0,0.7286
998.0,0.7255
999.0,0.7227
1000.0,0.7189
1001.0,0.7264
1002.0,0.7118
1003.0,0.714
1004.0,0.6979
1005.0,0.6705
1006.0,0.6977
1007.0,0.7119
1008.0,0.7091
1009.0,0.7064
1010.0,0.704
1011.0,0.7083
1012.0,0.7032
1013.0,0.7063
1014.0,0.7014
1015.0,0.6969
1016.0,0.6939
1017.0,0.6959
1018.0,0.6927
1019.0,0.6799
1020.0,0.6894
1021.0,0.6881
1022.0,0.6835
1023.0,0.6909
1024.0,0.684
1025.0,0.6898
1026.0,0.6874
1027.0,0.6857
1028.0,0.6844
1029.0,0.6766
1030.0,0.6805
1031.0,0.6781
1032.0,0.6759
1033.0,0.6658
1034.0,0.6657
1035.0,0.6678
1036.0,0.6715
1037.0,0.6606
1038.0,0.6636
1039.0,0.6633
1040.0,0.6607
1041.0,0.6635
1042.0,0.6589
1043.0,0.657
1044.0,0.6594
1045.0,0.6506
1046.0,0.6436
1047.0,0.6495
1048.0,0.6532
1049.0,0.6511
1050.0,0.6483
1051.0,0.6476
1052.0,0.6451
1053.0,0.6403
1054.0,0.6419
1055.0,0.6426
1056.0,0.6407
1057.0,0.639
1058.0,0.6236
1059.0,0.6246
1060.0,0.6238
1061.0,0.6233
1062.0,0.6269
1063.0,0.6209
1064.0,0.6282
1065.0,0.6244
1066.0,0.6115
1067.0,0.6197
1068.0,0.6067
1069.0,0.5875
1070.0,0.6081
1071.0,0.6157
1072.0,0.61
1073.0,0.6009
1074.0,0.6144
1075.0,0.5894
1076.0,0.6143
1077.0,0.6066
1078.0,0.5963
1079.0,0.6036
1080.0,0.5974
1081.0,0.5808
1082.0,0.5854
1083.0,0.586
1084.0,0.5812
1085.0,0.5982
1086.0,0.5555
1087.0,0.566
1088.0,0.5865
1089.0,0.5739
1090.0,0.5655
1091.0,0.5862
1092.0,0.5834
1093.0,0.512
1094.0,0.5359
1095.0,0.5305
1096.0,0.5133
1097.0,0.5697
1098.0,0.5069
1099.0,0.526
1100.0,0.4973
1101.0,0.501
1102.0,0.4832
1103.0,0.482
1104.0,0.4822
1105.0,0.5157
1106.0,0.425
1107.0,0.4958
1108.0,0.4389
1109.0,0.4362
1110.0,0.4935
1111.0,0.3606
1112.0,0.4314
1113.0,0.3022
1114.0,0.3338
1115.0,0.2777
1116.0,0.2394
1117.0,0.1095
1118.0,0.2531
1119.0,0.142
1120.0,0.1784
1121.0,0.2259
1122.0,0.1096
1123.0,0.1609
1124.0,0.136
1125.0,0.1735
1126.0,0.07523
1127.0,0.1944
1128.0,0.132
1129.0,0.1372
1130.0,0.09851
1131.0,0.3326
1132.0,0.2678
1133.0,0.1885
1134.0,0.06162
1135.0,0.02266
1136.0,0.164
1137.0,0.3313
1138.0,0.2386
1139.0,0.3221
1140.0,0.282
1141.0,0.2267
1142.0,0.2533
1143.0,0.3456
1144.0,0.1392
1145.0,0.1811
1146.0,0.1955
1147.0,0.08475
1148.0,0.2994
1149.0,0.25
1150.0,0.1496
1151.0,0.237
1152.0,0.2791
1153.0,0.2629
1154.0,0.1798
1155.0,0.3364
1156.0,0.3093
1157.0,0.3385
1158.0,0.3342
1159.0,0.3517
1160.0,0.3118
1161.0,0.3649
1162.0,0.368
1163.0,0.4657
1164.0,0.4112
1165.0,0.3981
1166.0,0.3887
1167.0,0.4174
1168.0,0.4239
1169.0,0.4298
1170.0,0.4585
1171.0,0.4487
1172.0,0.452
1173.0,0.4575
1174.0,0.352
1175.0,0.4436
1176.0,0.4763
1177.0,0.4644
1178.0,0.3681
1179.0,0.4796
1180.0,0.441
1181.0,0.4534
1182.0,0.3338
1183.0,0.4436
1184.0,0.4226
1185.0,0.4135
1186.0,0.4708
1187.0,0.4543
1188.0,0.3407
1189.0,0.4249
1190.0,0.4602
1191.0,0.4466
1192.0,0.4655
1193.0,0.4498
1194.0,0.461
1195.0,0.4428
1196.0,0.431
1197.0,0.4573
1198.0,0.4243
1199.0,0.377
1200.0,0.4447
1201.0,0.4342
1202.0,0.4289
1203.0,0.4251
1204.0,0.3815
1205.0,0.4341
1206.0,0.4703
1207.0,0.4292
1208.0,0.4177
1209.0,0.4251
1210.0,0.4392
1211.0,0.4245
1212.0,0.4257
1213.0,0.4581
1214.0,0.4326
1215.0,0.4261
1216.0,0.4564
1217.0,0.4474
1218.0,0.453
1219.0,0.4488
1220.0,0.4531
1221.0,0.4559
1222.0,0.446
1223.0,0.4431
1224.0,0.4424
1225.0,0.4531
1226.0,0.4543
1227.0,0.4269
1228.0,0.455
1229.0,0.4543
1230.0,0.448
1231.0,0.456
1232.0,0.4534
1233.0,0.4438
1234.0,0.4543
1235.0,0.4523
1236.0,0.4549
1237.0,0.4509
1238.0,0.4534
1239.0,0.4476
1240.0,0.449
1241.0,0.4484
1242.0,0.4461
1243.0,0.4424
1244.0,0.446
1245.0,0.4477
1246.0,0.445
1247.0,0.4437
1248.0,0.4441
1249.0,0.4448
1250.0,0.4426
1251.0,0.4378
1252.0,0.4368
1253.0,0.4353
1254.0,0.4325
1255.0,0.4369
1256.0,0.4284
1257.0,0.4269
1258.0,0.4318
1259.0,0.4221
1260.0,0.4236
1261.0,0.4074
1262.0,0.3992
1263.0,0.4002
1264.0,0.3789
1265.0,0.3975
1266.0,0.3881
1267.0,0.391
1268.0,0.377
1269.0,0.2788
1270.0,0.3911
1271.0,0.4051
1272.0,0.4055
1273.0,0.4021
1274.0,0.4023
1275.0,0.4067
1276.0,0.4091
1277.0,0.4102
1278.0,0.4149
1279.0,0.4114
1280.0,0.406
1281.0,0.3861
1282.0,0.3697
1283.0,0.3986
1284.0,0.4087
1285.0,0.411
1286.0,0.4152
1287.0,0.4113
1288.0,0.4106
1289.0,0.4022
1290.0,0.4066
1291.0,0.4114
1292.0,0.3954
1293.0,0.4057
1294.0,0.4033
1295.0,0.4034
1296.0,0.391
1297.0,0.3748
1298.0,0.394
1299.0,0.4053
1300.0,0.3596
1301.0,0.3672
1302.0,0.3923
1303.0,0.3531
1304.0,0.317
1305.0,0.3857
1306.0,0.3865
1307.0,0.3185
1308.0,0.3513
1309.0,0.3846
1310.0,0.3131
1311.0,0.3403
1312.0,0.3337
1313.0,0.3296
1314.0,0.3009
1315.0,0.3004
1316.0,0.3375
1317.0,0.3215
1318.0,0.3429
1319.0,0.2873
1320.0,0.2742
1321.0,0.3127
1322.0,0.3183
1323.0,0.2559
1324.0,0.2817
1325.0,0.3334
1326.0,0.2965
1327.0,0.2854
1328.0,0.2514
1329.0,0.2028
1330.0,0.2564
1331.0,0.173
1332.0,0.1723
1333.0,0.2342
1334.0,0.1923
1335.0,0.2545
1336.0,0.2099
1337.0,0.1917
1338.0,0.2061
1339.0,0.2031
1340.0,0.1932
1341.0,0.1984
1342.0,0.2078
1343.0,0.1635
1344.0,0.0982
1345.0,0.1376
1346.0,0.08539
1347.0,0.08953
1348.0,0.01048
1349.0,0.03126
1350.0,0.02856
1351.0,0.0116
1352.0,0.005103
1353.0,0.0004999
1354.0,0.001181
1355.0,3.265e-05
1356.0,0.0002603
1357.0,0.0003852
1358.0,3.682e-05
1359.0,1.102e-05
1360.0,2.297e-05
1361.0,1.775e-07
1362.0,1.24e-09
1363.0,3.61e-05
1364.0,1.742e-05
1365.0,1.134e-09
1366.0,0.0001235
1367.0,4.814e-05
1368.0,6.286e-11
1369.0,7.073e-06
1370.0,4.988e-06
1371.0,4.774e-07
1372.0,2.707e-05
1373.0,0.0002847
1374.0,0.0008665
1375.0,0.001501
1376.0,0.001044
1377.0,0.0005348
1378.0,0.004008
1379.0,0.0002343
1380.0,0.0004185
1381.0,1.542e-05
1382.0,2.69e-05
1383.0,6.341e-07
1384.0,9.078e-06
1385.0,1.748e-05
1386.0,3.023e-05
1387.0,0.001074
1388.0,2.575e-05
1389.0,0.002408
1390.0,0.002032
1391.0,0.00154
1392.0,0.000126
1393.0,0.0005161
1394.0,0.0004885
1395.0,6.657e-06
1396.0,2.008e-07
1397.0,0.0002464
1398.0,0.004589
1399.0,0.002959
1400.0,1.386e-07
1401.0,3.007e-07
1402.0,0.004928
1403.0,0.00673
1404.0,0.002154
1405.0,4.446e-06
1406.0,0.006381
1407.0,0.0005633
1408.0,0.005135
1409.0,0.002327
1410.0,0.001648
1411.0,0.005842
1412.0,0.006828
1413.0,0.04272
1414.0,0.001266
1415.0,0.0007131
1416.0,0.05584
1417.0,0.02296
1418.0,0.0258
1419.0,0.004386
1420.0,0.01612
1421.0,0.01833
1422.0,0.07065
1423.0,0.01559
1424.0,0.0277
1425.0,0.04215
1426.0,0.04323
1427.0,0.06825
1428.0,0.01021
1429.0,0.05561
1430.0,0.08375
1431.0,0.08921
1432.0,0.008268
1433.0,0.06098
1434.0,0.03322
1435.0,0.04044
1436.0,0.06593
1437.0,0.05096
1438.0,0.02499
1439.0,0.08424
1440.0,0.06416
1441.0,0.05428
1442.0,0.05838
1443.0,0.06526
1444.0,0.0877
1445.0,0.07464
1446.0,0.03553
1447.0,0.05636
1448.0,0.1437
1449.0,0.1312
1450.0,0.04177
1451.0,0.01873
1452.0,0.0848
1453.0,0.1073
1454.0,0.1634
1455.0,0.085
1456.0,0.1175
1457.0,0.1447
1458.0,0.1589
1459.0,0.1895
1460.0,0.1055
1461.0,0.1149
1462.0,0.1584
1463.0,0.05893
1464.0,0.178
1465.0,0.1093
1466.0,0.08862
1467.0,0.05326
1468.0,0.1009
1469.0,0.12
1470.0,0.06992
1471.0,0.02798
1472.0,0.06733
