interpolation:linear
wavelength,value
280.0,3.319e-27
280.5,1.774e-25
281.0,1.158e-24
281.5,5.909e-23
282.0,6.345999999999999e-22
282.5,2.979e-21
283.0,1.6400000000000003e-20
283.5,3.4530000000000005e-20
284.0,1.461e-18
284.5,6.316e-18
285.0,1.888e-17
285.5,1.933e-16
286.0,1.018e-15
286.5,7.409e-15
287.0,2.97e-14
287.5,1.711e-13
288.0,1.028e-12
288.5,4.757e-12
289.0,1.864e-11
289.5,8.229e-11
290.0,3.07e-10
290.5,7.976e-10
291.0,2.253e-09
291.5,8.969e-09
292.0,2.655e-08
292.5,4.359e-08
293.0,1.13e-07
293.5,3.507e-07
294.0,6.525e-07
294.5,1.243e-06
295.0,2.416e-06
295.5,6.607e-06
296.0,1.292e-05
296.5,1.821e-05
297.0,2.474e-05
297.5,6.602e-05
298.0,0.0001031
298.5,0.0001028
299.0,0.0002239
299.5,0.0003584
300.0,0.0003862
300.5,0.0005457
301.0,0.0009372
301.5,0.001417
302.0,0.001182
302.5,0.002308
303.0,0.004118
303.5,0.00515
304.0,0.004781
304.5,0.006816
305.0,0.00964
305.5,0.01058
306.0,0.01012
306.5,0.0123
307.0,0.01708
307.5,0.02132
308.0,0.02242
308.5,0.02575
309.0,0.0231
309.5,0.02619
310.0,0.02624
310.5,0.04258
311.0,0.0533
311.5,0.05158
312.0,0.05061
312.5,0.06084
313.0,0.06574
313.5,0.06493
314.0,0.0797
314.5,0.06859
315.0,0.09012
315.5,0.07731
316.0,0.06586
316.5,0.09248
317.0,0.1156
317.5,0.1221
318.0,0.09392
318.5,0.1126
319.0,0.1316
319.5,0.1117
320.0,0.1364
320.5,0.1646
321.0,0.1415
321.5,0.1359
322.0,0.1523
322.5,0.1329
323.0,0.1294
323.5,0.1521
324.0,0.1777
324.5,0.1837
325.0,0.1657
325.5,0.2092
326.0,0.2497
326.5,0.2472
327.0,0.2493
327.5,0.2441
328.0,0.2233
328.5,0.2298
329.0,0.2704
329.5,0.3064
330.0,0.3125
330.5,0.2558
331.0,0.2635
331.5,0.2658
332.0,0.2831
332.5,0.2789
333.0,0.281
333.5,0.2593
334.0,0.2676
334.5,0.3053
335.0,0.2855
335.5,0.3253
336.0,0.226
336.5,0.2754
337.0,0.2286
337.5,0.2863
338.0,0.2771
338.5,0.3138
339.0,0.3138
339.5,0.302
340.0,0.3642
340.5,0.3293
341.0,0.317
341.5,0.295
342.0,0.3548
342.5,0.334
343.0,0.3672
343.5,0.3459
344.0,0.2599
344.5,0.2582
345.0,0.347
345.5,0.357
346.0,0.3053
346.5,0.3475
347.0,0.3733
347.5,0.3026
348.0,0.3478
348.5,0.3497
349.0,0.3258
349.5,0.3237
350.0,0.402
350.5,0.4256
351.0,0.381
351.5,0.3698
352.0,0.4
352.5,0.314
353.0,0.3973
353.5,0.4267
354.0,0.4447
354.5,0.4526
355.0,0.4525
355.5,0.4103
356.0,0.4309
356.5,0.3692
357.0,0.3061
357.5,0.3761
358.0,0.2992
358.5,0.2565
359.0,0.36
359.5,0.4599
360.0,0.4893
360.5,0.3925
361.0,0.359
361.5,0.4146
362.0,0.3596
362.5,0.4992
363.0,0.4497
363.5,0.4154
364.0,0.5096
364.5,0.4369
365.0,0.4463
365.5,0.5618
366.0,0.5969
366.5,0.5625
367.0,0.5494
367.5,0.5718
368.0,0.5018
368.5,0.5078
369.0,0.5499
369.5,0.5878
370.0,0.6284
370.5,0.489
371.0,0.524
371.5,0.6574
372.0,0.4375
372.5,0.526
373.0,0.5365
373.5,0.35
374.0,0.5098
374.5,0.4233
375.0,0.4126
375.5,0.6176
376.0,0.5133
376.5,0.5334
377.0,0.5661
377.5,0.664
378.0,0.7216
378.5,0.6839
379.0,0.5659
379.5,0.5184
380.0,0.5404
380.5,0.6561
381.0,0.6592
381.5,0.5238
382.0,0.4663
382.5,0.3985
383.0,0.3698
383.5,0.357
384.0,0.3947
384.5,0.5819
385.0,0.5784
385.5,0.5398
386.0,0.4634
386.5,0.6101
387.0,0.5082
387.5,0.5721
388.0,0.5294
388.5,0.5245
389.0,0.5674
389.5,0.6887
390.0,0.6927
390.5,0.6389
391.0,0.7537
391.5,0.7705
392.0,0.6503
392.5,0.5835
393.0,0.3253
393.5,0.2369
394.0,0.4831
394.5,0.6155
395.0,0.7525
395.5,0.766
396.0,0.6655
396.5,0.3898
397.0,0.2931
397.5,0.5972
398.0,0.8381
398.5,0.8679
399.0,0.9415
399.5,0.9401
400.0,0.9782
401.0,1.008
402.0,1.067
403.0,1.017
404.0,1.005
405.0,1.008
406.0,0.9953
407.0,0.9825
408.0,1.024
409.0,1.1
410.0,0.9638
411.0,1.047
412.0,1.128
413.0,1.103
414.0,1.12
415.0,1.126
416.0,1.149
417.0,1.124
418.0,1.107
419.0,1.124
420.0,1.123
421.0,1.178
422.0,1.123
423.0,1.1
424.0,1.166
425.0,1.167
426.0,1.14
427.0,1.121
428.0,1.095
429.0,1.039
430.0,0.9116
431.0,0.906
432.0,1.172
433.0,1.182
434.0,1.1
435.0,1.151
436.0,1.3
437.0,1.285
438.0,1.172
439.0,1.216
440.0,1.257
441.0,1.305
442.0,1.403
443.0,1.369
444.0,1.402
445.0,1.374
446.0,1.314
447.0,1.423
448.0,1.448
449.0,1.456
450.0,1.5
451.0,1.559
452.0,1.504
453.0,1.417
454.0,1.482
455.0,1.494
456.0,1.532
457.0,1.561
458.0,1.51
459.0,1.505
460.0,1.512
461.0,1.55
462.0,1.564
463.0,1.555
464.0,1.531
465.0,1.514
466.0,1.531
467.0,1.505
468.0,1.526
469.0,1.536
470.0,1.49
471.0,1.49
472.0,1.572
473.0,1.554
474.0,1.559
475.0,1.576
476.0,1.532
477.0,1.539
478.0,1.584
479.0,1.576
480.0,1.581
481.0,1.612
482.0,1.623
483.0,1.604
484.0,1.573
485.0,1.501
486.0,1.313
487.0,1.378
488.0,1.513
489.0,1.52
490.0,1.601
491.0,1.575
492.0,1.489
493.0,1.54
494.0,1.557
495.0,1.572
496.0,1.584
497.0,1.61
498.0,1.537
499.0,1.558
500.0,1.515
501.0,1.49
502.0,1.471
503.0,1.534
504.0,1.499
505.0,1.553
506.0,1.605
507.0,1.528
508.0,1.481
509.0,1.524
510.0,1.517
511.0,1.558
512.0,1.577
513.0,1.494
514.0,1.485
515.0,1.471
516.0,1.469
517.0,1.307
518.0,1.375
519.0,1.444
520.0,1.498
521.0,1.513
522.0,1.516
523.0,1.49
524.0,1.545
525.0,1.566
526.0,1.497
527.0,1.413
528.0,1.496
529.0,1.578
530.0,1.557
531.0,1.582
532.0,1.529
533.0,1.485
534.0,1.53
535.0,1.564
536.0,1.579
537.0,1.518
538.0,1.546
539.0,1.534
540.0,1.472
541.0,1.484
542.0,1.532
543.0,1.516
544.0,1.544
545.0,1.54
546.0,1.548
547.0,1.548
548.0,1.531
549.0,1.536
550.0,1.555
551.0,1.537
552.0,1.549
553.0,1.523
554.0,1.56
555.0,1.564
556.0,1.545
557.0,1.498
558.0,1.489
559.0,1.462
560.0,1.482
561.0,1.502
562.0,1.493
563.0,1.535
564.0,1.495
565.0,1.483
566.0,1.462
567.0,1.491
568.0,1.48
569.0,1.448
570.0,1.448
571.0,1.44
572.0,1.477
573.0,1.494
574.0,1.49
575.0,1.463
576.0,1.451
577.0,1.467
578.0,1.445
579.0,1.451
580.0,1.477
581.0,1.484
582.0,1.512
583.0,1.515
584.0,1.529
585.0,1.492
586.0,1.462
587.0,1.495
588.0,1.463
589.0,1.302
590.0,1.362
591.0,1.438
592.0,1.423
593.0,1.442
594.0,1.434
595.0,1.401
596.0,1.452
597.0,1.438
598.0,1.434
599.0,1.435
600.0,1.437
601.0,1.425
602.0,1.416
603.0,1.439
604.0,1.463
605.0,1.456
606.0,1.45
607.0,1.465
608.0,1.448
609.0,1.451
610.0,1.441
611.0,1.449
612.0,1.445
613.0,1.427
614.0,1.407
615.0,1.438
616.0,1.391
617.0,1.388
618.0,1.442
619.0,1.428
620.0,1.437
621.0,1.44
622.0,1.424
623.0,1.403
624.0,1.379
625.0,1.376
626.0,1.397
627.0,1.414
628.0,1.334
629.0,1.386
630.0,1.355
631.0,1.382
632.0,1.365
633.0,1.405
634.0,1.391
635.0,1.412
636.0,1.393
637.0,1.416
638.0,1.429
639.0,1.413
640.0,1.399
641.0,1.398
642.0,1.392
643.0,1.411
644.0,1.406
645.0,1.409
646.0,1.378
647.0,1.365
648.0,1.367
649.0,1.342
650.0,1.344
651.0,1.402
652.0,1.349
653.0,1.384
654.0,1.368
655.0,1.32
656.0,1.169
657.0,1.2
658.0,1.344
659.0,1.354
660.0,1.359
661.0,1.369
662.0,1.373
663.0,1.346
664.0,1.361
665.0,1.362
666.0,1.363
667.0,1.361
668.0,1.362
669.0,1.383
670.0,1.377
671.0,1.377
672.0,1.365
673.0,1.386
674.0,1.381
675.0,1.368
676.0,1.378
677.0,1.364
678.0,1.368
679.0,1.346
680.0,1.357
681.0,1.349
682.0,1.347
683.0,1.345
684.0,1.339
685.0,1.35
686.0,1.343
687.0,0.9455
688.0,1.082
689.0,1.086
690.0,1.13
691.0,1.18
692.0,1.216
693.0,1.207
694.0,1.197
695.0,1.24
696.0,1.242
697.0,1.31
698.0,1.29
699.0,1.265
700.0,1.25
701.0,1.24
702.0,1.246
703.0,1.249
704.0,1.286
705.0,1.288
706.0,1.286
707.0,1.287
708.0,1.29
709.0,1.29
710.0,1.291
711.0,1.289
712.0,1.284
713.0,1.272
714.0,1.277
715.0,1.239
716.0,1.241
717.0,1.096
718.0,1.011
719.0,0.9282
720.0,0.9737
721.0,1.063
722.0,1.202
723.0,1.127
724.0,1.023
725.0,1.01
726.0,1.056
727.0,1.066
728.0,1.009
729.0,1.039
730.0,1.1
731.0,1.055
732.0,1.121
733.0,1.179
734.0,1.206
735.0,1.182
736.0,1.18
737.0,1.186
738.0,1.199
739.0,1.176
740.0,1.205
741.0,1.193
742.0,1.193
743.0,1.223
744.0,1.22
745.0,1.22
746.0,1.225
747.0,1.228
748.0,1.226
749.0,1.212
750.0,1.211
751.0,1.199
752.0,1.205
753.0,1.211
754.0,1.214
755.0,1.207
756.0,1.207
757.0,1.209
758.0,1.194
759.0,1.173
760.0,0.2475
761.0,0.141
762.0,0.654
763.0,0.3582
764.0,0.5108
765.0,0.6545
766.0,0.7782
767.0,0.957
768.0,1.085
769.0,1.103
770.0,1.136
771.0,1.143
772.0,1.145
773.0,1.153
774.0,1.147
775.0,1.139
776.0,1.153
777.0,1.138
778.0,1.131
779.0,1.132
780.0,1.126
781.0,1.127
782.0,1.134
783.0,1.114
784.0,1.12
785.0,1.112
786.0,1.124
787.0,1.107
788.0,1.094
789.0,1.094
790.0,1.068
791.0,1.075
792.0,1.067
793.0,1.05
794.0,1.065
795.0,1.084
796.0,1.055
797.0,1.056
798.0,1.083
799.0,1.077
800.0,1.06
801.0,1.057
802.0,1.054
803.0,1.047
804.0,1.048
805.0,1.044
806.0,1.071
807.0,1.059
808.0,1.06
809.0,1.041
810.0,1.034
811.0,1.038
812.0,1.011
813.0,0.9917
814.0,0.8822
815.0,0.8766
816.0,0.8174
817.0,0.8313
818.0,0.8024
819.0,0.8887
820.0,0.8404
821.0,0.9708
822.0,0.9451
823.0,0.6613
824.0,0.9217
825.0,0.9549
826.0,0.9223
827.0,0.9696
828.0,0.8326
829.0,0.9162
830.0,0.9054
831.0,0.9083
832.0,0.8824
833.0,0.9335
834.0,0.904
835.0,0.9859
836.0,0.9483
837.0,0.9885
838.0,0.9599
839.0,0.9733
840.0,0.9942
841.0,0.9811
842.0,0.982
843.0,0.9802
844.0,0.9673
845.0,0.9991
846.0,0.9946
847.0,0.9757
848.0,0.9704
849.0,0.9429
850.0,0.9034
851.0,0.9572
852.0,0.9503
853.0,0.9143
854.0,0.7899
855.0,0.8673
856.0,0.9481
857.0,0.969
858.0,0.9621
859.0,0.9627
860.0,0.9644
861.0,0.9592
862.0,0.9743
863.0,0.9974
864.0,0.9476
865.0,0.9393
866.0,0.8446
867.0,0.8815
868.0,0.9593
869.0,0.9395
870.0,0.9663
871.0,0.9532
872.0,0.9499
873.0,0.9481
874.0,0.9368
875.0,0.918
876.0,0.9276
877.0,0.937
878.0,0.9474
879.0,0.9329
880.0,0.9129
881.0,0.8996
882.0,0.9192
883.0,0.9219
884.0,0.9178
885.0,0.9248
886.0,0.8824
887.0,0.8911
888.0,0.9048
889.0,0.9143
890.0,0.9077
891.0,0.9057
892.0,0.8809
893.0,0.8549
894.0,0.8279
895.0,0.7861
896.0,0.7423
897.0,0.6428
898.0,0.6985
899.0,0.5376
900.0,0.7122
901.0,0.5632
902.0,0.6529
903.0,0.662
904.0,0.8222
905.0,0.7956
906.0,0.7459
907.0,0.6137
908.0,0.6248
909.0,0.6733
910.0,0.6018
911.0,0.6376
912.0,0.6652
913.0,0.6111
914.0,0.6049
915.0,0.6551
916.0,0.5565
917.0,0.6993
918.0,0.5708
919.0,0.7104
920.0,0.7145
921.0,0.7424
922.0,0.6682
923.0,0.717
924.0,0.6853
925.0,0.6705
926.0,0.6779
927.0,0.7546
928.0,0.5657
929.0,0.5196
930.0,0.4133
931.0,0.3909
932.0,0.2865
933.0,0.2355
934.0,0.1346
935.0,0.2389
936.0,0.1526
937.0,0.1551
938.0,0.1894
939.0,0.379
940.0,0.4524
941.0,0.3461
942.0,0.3979
943.0,0.2653
944.0,0.2763
945.0,0.3561
946.0,0.186
947.0,0.3589
948.0,0.2645
949.0,0.4758
950.0,0.1395
951.0,0.4677
952.0,0.2575
953.0,0.3285
954.0,0.3984
955.0,0.3318
956.0,0.3199
957.0,0.2586
958.0,0.447
959.0,0.36
960.0,0.4033
961.0,0.449
962.0,0.4253
963.0,0.4871
964.0,0.4474
965.0,0.485
966.0,0.4858
967.0,0.4841
968.0,0.6378
969.0,0.6671
970.0,0.6142
971.0,0.6981
972.0,0.6688
973.0,0.5873
974.0,0.5582
975.0,0.5775
976.0,0.551
977.0,0.6219
978.0,0.593
979.0,0.6195
980.0,0.5835
981.0,0.6942
982.0,0.6656
983.0,0.6401
984.0,0.7134
985.0,0.6631
986.0,0.7248
987.0,0.712
988.0,0.7107
989.0,0.7219
990.0,0.7064
991.0,0.7243
992.0,0.7284
993.0,0.7135
994.0,0.7281
995.0,0.727
996.0,0.724
997.0,0.725
998.0,0.7217
999.0,0.719
1000.0,0.7143
1001.0,0.7229
1002.0,0.7043
1003.0,0.7103
1004.0,0.6932
1005.0,0.6675
1006.0,0.6938
1007.0,0.7084
1008.0,0.7048
1009.0,0.7013
1010.0,0.6985
1011.0,0.7049
1012.0,0.699
1013.0,0.7032
1014.0,0.6983
1015.0,0.6937
1016.0,0.6906
1017.0,0.6925
1018.0,0.6897
1019.0,0.6755
1020.0,0.6862
1021.0,0.6852
1022.0,0.6801
1023.0,0.6874
1024.0,0.6789
1025.0,0.6868
1026.0,0.684
1027.0,0.6824
1028.0,0.681
1029.0,0.6731
1030.0,0.6775
1031.0,0.6749
1032.0,0.6729
1033.0,0.6628
1034.0,0.6629
1035.0,0.665
1036.0,0.6685
1037.0,0.6576
1038.0,0.6606
1039.0,0.6602
1040.0,0.6576
1041.0,0.6603
1042.0,0.6557
1043.0,0.6537
1044.0,0.656
1045.0,0.6472
1046.0,0.6401
1047.0,0.6459
1048.0,0.6495
1049.0,0.6472
1050.0,0.6443
1051.0,0.6435
1052.0,0.6409
1053.0,0.6359
1054.0,0.6373
1055.0,0.6378
1056.0,0.6356
1057.0,0.6337
1058.0,0.6182
1059.0,0.619
1060.0,0.6181
1061.0,0.6174
1062.0,0.6208
1063.0,0.6147
1064.0,0.622
1065.0,0.6177
1066.0,0.6054
1067.0,0.6133
1068.0,0.6
1069.0,0.5814
1070.0,0.6013
1071.0,0.6102
1072.0,0.6035
1073.0,0.5948
1074.0,0.6097
1075.0,0.5805
1076.0,0.6093
1077.0,0.5992
1078.0,0.5881
1079.0,0.5994
1080.0,0.59
1081.0,0.5717
1082.0,0.5798
1083.0,0.5813
1084.0,0.5707
1085.0,0.5913
1086.0,0.5416
1087.0,0.5575
1088.0,0.581
1089.0,0.5644
1090.0,0.5529
1091.0,0.5795
1092.0,0.5778
1093.0,0.4936
1094.0,0.5291
1095.0,0.5138
1096.0,0.493
1097.0,0.5644
1098.0,0.4857
1099.0,0.5061
1100.0,0.4721
1101.0,0.4776
1102.0,0.4571
1103.0,0.4534
1104.0,0.4539
1105.0,0.495
1106.0,0.3849
1107.0,0.4713
1108.0,0.4033
1109.0,0.4033
1110.0,0.4677
1111.0,0.3223
1112.0,0.4
1113.0,0.2598
1114.0,0.2898
1115.0,0.2404
1116.0,0.1951
1117.0,0.07501
1118.0,0.2111
1119.0,0.1074
1120.0,0.1354
1121.0,0.178
1122.0,0.07721
1123.0,0.1222
1124.0,0.1032
1125.0,0.134
1126.0,0.04891
1127.0,0.151
1128.0,0.09275
1129.0,0.09806
1130.0,0.06553
1131.0,0.2804
1132.0,0.2211
1133.0,0.1432
1134.0,0.03846
1135.0,0.01432
1136.0,0.1206
1137.0,0.2765
1138.0,0.1954
1139.0,0.2855
1140.0,0.2408
1141.0,0.1857
1142.0,0.2124
1143.0,0.2991
1144.0,0.1075
1145.0,0.1381
1146.0,0.149
1147.0,0.05476
1148.0,0.259
1149.0,0.2087
1150.0,0.1154
1151.0,0.194
1152.0,0.2366
1153.0,0.229
1154.0,0.1343
1155.0,0.298
1156.0,0.2695
1157.0,0.3006
1158.0,0.2973
1159.0,0.3191
1160.0,0.2746
1161.0,0.3345
1162.0,0.3365
1163.0,0.4477
1164.0,0.3866
1165.0,0.3671
1166.0,0.3628
1167.0,0.3939
1168.0,0.3988
1169.0,0.4074
1170.0,0.4407
1171.0,0.43
1172.0,0.4365
1173.0,0.4397
1174.0,0.3199
1175.0,0.4286
1176.0,0.4682
1177.0,0.4514
1178.0,0.3436
1179.0,0.4719
1180.0,0.4246
1181.0,0.4378
1182.0,0.3072
1183.0,0.4304
1184.0,0.405
1185.0,0.3923
1186.0,0.4601
1187.0,0.4399
1188.0,0.3129
1189.0,0.4101
1190.0,0.4497
1191.0,0.4297
1192.0,0.4556
1193.0,0.4376
1194.0,0.4504
1195.0,0.4279
1196.0,0.4134
1197.0,0.4496
1198.0,0.4128
1199.0,0.3556
1200.0,0.4323
1201.0,0.4185
1202.0,0.4151
1203.0,0.4118
1204.0,0.3626
1205.0,0.4235
1206.0,0.4653
1207.0,0.4146
1208.0,0.4067
1209.0,0.4147
1210.0,0.431
1211.0,0.4122
1212.0,0.4093
1213.0,0.451
1214.0,0.4182
1215.0,0.4107
1216.0,0.4495
1217.0,0.4385
1218.0,0.446
1219.0,0.4409
1220.0,0.4463
1221.0,0.4503
1222.0,0.4391
1223.0,0.4354
1224.0,0.4334
1225.0,0.4475
1226.0,0.4499
1227.0,0.4174
1228.0,0.4517
1229.0,0.45
1230.0,0.4427
1231.0,0.4538
1232.0,0.4512
1233.0,0.4376
1234.0,0.4531
1235.0,0.4505
1236.0,0.4535
1237.0,0.448
1238.0,0.452
1239.0,0.4462
1240.0,0.4478
1241.0,0.4462
1242.0,0.4448
1243.0,0.4412
1244.0,0.4445
1245.0,0.4463
1246.0,0.4437
1247.0,0.4421
1248.0,0.442
1249.0,0.4432
1250.0,0.4407
1251.0,0.4353
1252.0,0.435
1253.0,0.4322
1254.0,0.4284
1255.0,0.4348
1256.0,0.4238
1257.0,0.4217
1258.0,0.4286
1259.0,0.415
1260.0,0.4169
1261.0,0.3959
1262.0,0.3853
1263.0,0.3861
1264.0,0.3593
1265.0,0.3836
1266.0,0.3708
1267.0,0.3761
1268.0,0.3586
1269.0,0.2351
1270.0,0.3752
1271.0,0.3943
1272.0,0.3954
1273.0,0.3914
1274.0,0.3923
1275.0,0.3976
1276.0,0.401
1277.0,0.4031
1278.0,0.4099
1279.0,0.4063
1280.0,0.4011
1281.0,0.3823
1282.0,0.3676
1283.0,0.3961
1284.0,0.4057
1285.0,0.4083
1286.0,0.4134
1287.0,0.4078
1288.0,0.4075
1289.0,0.3961
1290.0,0.4038
1291.0,0.4092
1292.0,0.3872
1293.0,0.4019
1294.0,0.3992
1295.0,0.398
1296.0,0.3817
1297.0,0.3625
1298.0,0.3874
1299.0,0.4022
1300.0,0.3452
1301.0,0.3548
1302.0,0.3861
1303.0,0.3402
1304.0,0.2946
1305.0,0.3785
1306.0,0.3788
1307.0,0.2994
1308.0,0.34
1309.0,0.3763
1310.0,0.2939
1311.0,0.327
1312.0,0.3188
1313.0,0.3134
1314.0,0.2821
1315.0,0.2794
1316.0,0.3226
1317.0,0.3061
1318.0,0.3308
1319.0,0.2637
1320.0,0.2544
1321.0,0.2946
1322.0,0.2983
1323.0,0.2287
1324.0,0.2587
1325.0,0.3182
1326.0,0.2758
1327.0,0.2637
1328.0,0.2287
1329.0,0.1752
1330.0,0.2264
1331.0,0.1407
1332.0,0.1439
1333.0,0.1993
1334.0,0.167
1335.0,0.2278
1336.0,0.1822
1337.0,0.1623
1338.0,0.1755
1339.0,0.1742
1340.0,0.1684
1341.0,0.1668
1342.0,0.175
1343.0,0.1234
1344.0,0.07367
1345.0,0.1059
1346.0,0.05575
1347.0,0.05723
1348.0,0.004308
1349.0,0.01482
1350.0,0.01493
1351.0,0.004148
1352.0,0.001292
1353.0,7.75e-05
1354.0,0.000241
1355.0,2.701e-06
1356.0,3.835e-05
1357.0,5.815e-05
1358.0,3.157e-06
1359.0,5.083e-07
1360.0,1.576e-06
1361.0,2.976e-09
1362.0,1.026e-11
1363.0,2.284e-06
1364.0,9.648e-07
1365.0,4.775e-12
1366.0,9.353e-06
1367.0,3.692e-06
1368.0,6.462e-14
1369.0,3.663e-07
1370.0,2.003e-07
1371.0,1.297e-08
1372.0,2.033e-06
1373.0,3.47e-05
1374.0,0.000144
1375.0,0.0002622
1376.0,0.0002157
1377.0,0.0001014
1378.0,0.0009407
1379.0,4.287e-05
1380.0,6.608e-05
1381.0,1.859e-06
1382.0,1.888e-06
1383.0,3.129e-08
1384.0,4.315e-07
1385.0,1.594e-06
1386.0,1.806e-06
1387.0,0.0001594
1388.0,3.192e-06
1389.0,0.0004788
1390.0,0.0004123
1391.0,0.0002824
1392.0,1.918e-05
1393.0,9.558e-05
1394.0,5.91e-05
1395.0,4.996e-07
1396.0,4.001e-09
1397.0,3.988e-05
1398.0,0.001069
1399.0,0.0006769
1400.0,1.98e-09
1401.0,6.85e-09
1402.0,0.001623
1403.0,0.002097
1404.0,0.000647
1405.0,2.658e-07
1406.0,0.001763
1407.0,0.0001515
1408.0,0.001431
1409.0,0.000522
1410.0,0.0003978
1411.0,0.001835
1412.0,0.002381
1413.0,0.02186
1414.0,0.0003109
1415.0,0.0001553
1416.0,0.03386
1417.0,0.01088
1418.0,0.01247
1419.0,0.001966
1420.0,0.007656
1421.0,0.008297
1422.0,0.04403
1423.0,0.008699
1424.0,0.01615
1425.0,0.024
1426.0,0.02666
1427.0,0.04773
1428.0,0.004094
1429.0,0.03627
1430.0,0.0604
1431.0,0.066
1432.0,0.003239
1433.0,0.04245
1434.0,0.02183
1435.0,0.02261
1436.0,0.0424
1437.0,0.03248
1438.0,0.01406
1439.0,0.05713
1440.0,0.04284
1441.0,0.03322
1442.0,0.03676
1443.0,0.0453
1444.0,0.06237
1445.0,0.04948
1446.0,0.02246
1447.0,0.03535
1448.0,0.1151
1449.0,0.1005
1450.0,0.02619
1451.0,0.01067
1452.0,0.0611
1453.0,0.0799
1454.0,0.1353
1455.0,0.06448
1456.0,0.08695
1457.0,0.1156
1458.0,0.1352
1459.0,0.1601
1460.0,0.0839
1461.0,0.08807
1462.0,0.1283
1463.0,0.04201
1464.0,0.1513
1465.0,0.0913
1466.0,0.06405
