interpolation:linear
wavelength,value
280.0,3.4730000000000003e-25
280.5,1.3819999999999998e-23
281.0,8.09e-23
281.5,3.102e-21
282.0,2.801e-20
282.5,1.169e-19
283.0,5.66e-19
283.5,1.117e-18
284.0,3.509e-17
284.5,1.324e-16
285.0,3.417e-16
285.5,2.942e-15
286.0,1.445e-14
286.5,9.103e-14
287.0,3.281e-13
287.5,1.645e-12
288.0,8.292e-12
288.5,3.494e-11
289.0,1.243e-10
289.5,4.94e-10
290.0,1.69e-09
290.5,4.084e-09
291.0,1.057e-08
291.5,3.767e-08
292.0,1.019e-07
292.5,1.59e-07
293.0,3.862e-07
293.5,1.096e-06
294.0,1.921e-06
294.5,3.498e-06
295.0,6.422e-06
295.5,1.636e-05
296.0,3.049e-05
296.5,4.106e-05
297.0,5.379e-05
297.5,0.0001364
298.0,0.0002045
298.5,0.0001977
299.0,0.0004186
299.5,0.0006403
300.0,0.0006739
300.5,0.0009301
301.0,0.001544
301.5,0.002272
302.0,0.001871
302.5,0.003567
303.0,0.006185
303.5,0.007609
304.0,0.007007
304.5,0.009802
305.0,0.01353
305.5,0.01463
306.0,0.01391
306.5,0.01673
307.0,0.02282
307.5,0.028
308.0,0.02936
308.5,0.03344
309.0,0.0298
309.5,0.03321
310.0,0.03301
310.5,0.05334
311.0,0.06632
311.5,0.06397
312.0,0.06199
312.5,0.07391
313.0,0.07951
313.5,0.07873
314.0,0.09575
314.5,0.08148
315.0,0.1068
315.5,0.09197
316.0,0.07766
316.5,0.1082
317.0,0.1352
317.5,0.143
318.0,0.1094
318.5,0.1301
319.0,0.1513
319.5,0.1291
320.0,0.1577
320.5,0.1886
321.0,0.1611
321.5,0.1545
322.0,0.1741
322.5,0.1518
323.0,0.147
323.5,0.1715
324.0,0.2
324.5,0.2072
325.0,0.1876
325.5,0.236
326.0,0.2802
326.5,0.2763
327.0,0.2788
327.5,0.2731
328.0,0.2508
328.5,0.2566
329.0,0.3008
329.5,0.3403
330.0,0.3471
330.5,0.2847
331.0,0.2933
331.5,0.2951
332.0,0.3133
332.5,0.3083
333.0,0.3105
333.5,0.2869
334.0,0.2959
334.5,0.3367
335.0,0.3144
335.5,0.3578
336.0,0.2485
336.5,0.3029
337.0,0.2514
337.5,0.3149
338.0,0.3041
338.5,0.3441
339.0,0.3438
339.5,0.3307
340.0,0.3988
340.5,0.3604
341.0,0.3465
341.5,0.3222
342.0,0.3873
342.5,0.3643
343.0,0.4004
343.5,0.3771
344.0,0.2834
344.5,0.2813
345.0,0.3777
345.5,0.3883
346.0,0.3318
346.5,0.3774
347.0,0.4053
347.5,0.3284
348.0,0.3772
348.5,0.3791
349.0,0.353
349.5,0.3506
350.0,0.4351
350.5,0.4604
351.0,0.4121
351.5,0.3998
352.0,0.4322
352.5,0.3391
353.0,0.4289
353.5,0.4603
354.0,0.4796
354.5,0.488
355.0,0.4877
355.5,0.442
356.0,0.4639
356.5,0.3974
357.0,0.3294
357.5,0.4045
358.0,0.3216
358.5,0.2757
359.0,0.3867
359.5,0.494
360.0,0.5253
360.5,0.4212
361.0,0.3851
361.5,0.4445
362.0,0.3853
362.5,0.5346
363.0,0.4814
363.5,0.4445
364.0,0.545
364.5,0.4671
365.0,0.4769
365.5,0.6002
366.0,0.6375
366.5,0.6004
367.0,0.5862
367.5,0.6099
368.0,0.5351
368.5,0.5412
369.0,0.5859
369.5,0.6261
370.0,0.6691
370.5,0.5205
371.0,0.5575
371.5,0.6992
372.0,0.4652
372.5,0.5591
373.0,0.57
373.5,0.3717
374.0,0.5414
374.5,0.4493
375.0,0.4378
375.5,0.6552
376.0,0.5444
376.5,0.5655
377.0,0.6
377.5,0.7035
378.0,0.7644
378.5,0.7243
379.0,0.5992
379.5,0.5487
380.0,0.5718
380.5,0.6941
381.0,0.697
381.5,0.5537
382.0,0.4928
382.5,0.4209
383.0,0.3905
383.5,0.3769
384.0,0.4166
384.5,0.6139
385.0,0.61
385.5,0.5692
386.0,0.4885
386.5,0.6429
387.0,0.5353
387.5,0.6025
388.0,0.5574
388.5,0.552
389.0,0.5971
389.5,0.7246
390.0,0.7286
390.5,0.6718
391.0,0.7923
391.5,0.8097
392.0,0.6833
392.5,0.6128
393.0,0.3416
393.5,0.2487
394.0,0.5071
394.5,0.6458
395.0,0.7894
395.5,0.8034
396.0,0.6978
396.5,0.4086
397.0,0.3071
397.5,0.6257
398.0,0.8779
398.5,0.909
399.0,0.9857
399.5,0.9841
400.0,1.024
401.0,1.055
402.0,1.116
403.0,1.063
404.0,1.05
405.0,1.053
406.0,1.039
407.0,1.025
408.0,1.068
409.0,1.146
410.0,1.004
411.0,1.091
412.0,1.174
413.0,1.148
414.0,1.165
415.0,1.171
416.0,1.194
417.0,1.168
418.0,1.15
419.0,1.167
420.0,1.165
421.0,1.222
422.0,1.164
423.0,1.14
424.0,1.209
425.0,1.209
426.0,1.18
427.0,1.161
428.0,1.133
429.0,1.075
430.0,0.9429
431.0,0.9369
432.0,1.212
433.0,1.221
434.0,1.136
435.0,1.189
436.0,1.342
437.0,1.326
438.0,1.21
439.0,1.254
440.0,1.296
441.0,1.345
442.0,1.446
443.0,1.411
444.0,1.444
445.0,1.416
446.0,1.353
447.0,1.464
448.0,1.491
449.0,1.498
450.0,1.543
451.0,1.603
452.0,1.547
453.0,1.457
454.0,1.523
455.0,1.535
456.0,1.574
457.0,1.602
458.0,1.551
459.0,1.545
460.0,1.552
461.0,1.59
462.0,1.604
463.0,1.595
464.0,1.57
465.0,1.552
466.0,1.569
467.0,1.543
468.0,1.563
469.0,1.574
470.0,1.526
471.0,1.526
472.0,1.61
473.0,1.591
474.0,1.597
475.0,1.613
476.0,1.568
477.0,1.576
478.0,1.621
479.0,1.613
480.0,1.617
481.0,1.649
482.0,1.659
483.0,1.64
484.0,1.608
485.0,1.533
486.0,1.341
487.0,1.407
488.0,1.545
489.0,1.552
490.0,1.635
491.0,1.608
492.0,1.52
493.0,1.571
494.0,1.589
495.0,1.604
496.0,1.615
497.0,1.642
498.0,1.567
499.0,1.589
500.0,1.545
501.0,1.519
502.0,1.5
503.0,1.565
504.0,1.53
505.0,1.583
506.0,1.636
507.0,1.558
508.0,1.51
509.0,1.553
510.0,1.545
511.0,1.587
512.0,1.606
513.0,1.521
514.0,1.512
515.0,1.498
516.0,1.496
517.0,1.33
518.0,1.399
519.0,1.469
520.0,1.524
521.0,1.54
522.0,1.543
523.0,1.517
524.0,1.573
525.0,1.593
526.0,1.524
527.0,1.438
528.0,1.522
529.0,1.606
530.0,1.585
531.0,1.61
532.0,1.556
533.0,1.511
534.0,1.557
535.0,1.591
536.0,1.607
537.0,1.544
538.0,1.572
539.0,1.56
540.0,1.497
541.0,1.509
542.0,1.558
543.0,1.541
544.0,1.57
545.0,1.566
546.0,1.575
547.0,1.574
548.0,1.556
549.0,1.561
550.0,1.581
551.0,1.562
552.0,1.574
553.0,1.547
554.0,1.585
555.0,1.59
556.0,1.57
557.0,1.523
558.0,1.513
559.0,1.486
560.0,1.506
561.0,1.527
562.0,1.517
563.0,1.56
564.0,1.519
565.0,1.507
566.0,1.487
567.0,1.516
568.0,1.506
569.0,1.474
570.0,1.474
571.0,1.465
572.0,1.503
573.0,1.521
574.0,1.517
575.0,1.49
576.0,1.477
577.0,1.494
578.0,1.471
579.0,1.476
580.0,1.502
581.0,1.509
582.0,1.536
583.0,1.539
584.0,1.552
585.0,1.514
586.0,1.484
587.0,1.518
588.0,1.487
589.0,1.327
590.0,1.387
591.0,1.463
592.0,1.448
593.0,1.466
594.0,1.459
595.0,1.426
596.0,1.476
597.0,1.462
598.0,1.457
599.0,1.458
600.0,1.459
601.0,1.446
602.0,1.437
603.0,1.46
604.0,1.485
605.0,1.477
606.0,1.471
607.0,1.485
608.0,1.469
609.0,1.471
610.0,1.46
611.0,1.468
612.0,1.464
613.0,1.446
614.0,1.426
615.0,1.457
616.0,1.409
617.0,1.406
618.0,1.46
619.0,1.446
620.0,1.456
621.0,1.458
622.0,1.442
623.0,1.421
624.0,1.397
625.0,1.394
626.0,1.415
627.0,1.433
628.0,1.358
629.0,1.406
630.0,1.375
631.0,1.4
632.0,1.383
633.0,1.423
634.0,1.407
635.0,1.428
636.0,1.409
637.0,1.431
638.0,1.444
639.0,1.428
640.0,1.413
641.0,1.412
642.0,1.406
643.0,1.425
644.0,1.42
645.0,1.423
646.0,1.392
647.0,1.381
648.0,1.384
649.0,1.357
650.0,1.358
651.0,1.416
652.0,1.365
653.0,1.398
654.0,1.382
655.0,1.334
656.0,1.18
657.0,1.212
658.0,1.357
659.0,1.366
660.0,1.371
661.0,1.381
662.0,1.386
663.0,1.358
664.0,1.373
665.0,1.373
666.0,1.373
667.0,1.372
668.0,1.372
669.0,1.393
670.0,1.387
671.0,1.387
672.0,1.375
673.0,1.396
674.0,1.39
675.0,1.378
676.0,1.387
677.0,1.374
678.0,1.378
679.0,1.355
680.0,1.366
681.0,1.358
682.0,1.356
683.0,1.354
684.0,1.347
685.0,1.359
686.0,1.351
687.0,0.9797
688.0,1.108
689.0,1.111
690.0,1.153
691.0,1.199
692.0,1.231
693.0,1.222
694.0,1.213
695.0,1.253
696.0,1.255
697.0,1.32
698.0,1.3
699.0,1.277
700.0,1.262
701.0,1.252
702.0,1.258
703.0,1.26
704.0,1.296
705.0,1.298
706.0,1.295
707.0,1.296
708.0,1.299
709.0,1.298
710.0,1.3
711.0,1.297
712.0,1.292
713.0,1.28
714.0,1.285
715.0,1.248
716.0,1.25
717.0,1.115
718.0,1.029
719.0,0.9468
720.0,0.9938
721.0,1.078
722.0,1.213
723.0,1.14
724.0,1.04
725.0,1.028
726.0,1.073
727.0,1.082
728.0,1.027
729.0,1.054
730.0,1.115
731.0,1.071
732.0,1.134
733.0,1.189
734.0,1.215
735.0,1.191
736.0,1.19
737.0,1.195
738.0,1.207
739.0,1.183
740.0,1.212
741.0,1.199
742.0,1.199
743.0,1.229
744.0,1.225
745.0,1.225
746.0,1.23
747.0,1.233
748.0,1.231
749.0,1.217
750.0,1.216
751.0,1.204
752.0,1.209
753.0,1.216
754.0,1.218
755.0,1.212
756.0,1.211
757.0,1.213
758.0,1.198
759.0,1.179
760.0,0.2817
761.0,0.1679
762.0,0.6876
763.0,0.3958
764.0,0.5483
765.0,0.6883
766.0,0.8044
767.0,0.9755
768.0,1.095
769.0,1.111
770.0,1.142
771.0,1.148
772.0,1.149
773.0,1.157
774.0,1.151
775.0,1.143
776.0,1.157
777.0,1.141
778.0,1.135
779.0,1.136
780.0,1.129
781.0,1.131
782.0,1.138
783.0,1.118
784.0,1.123
785.0,1.116
786.0,1.128
787.0,1.112
788.0,1.1
789.0,1.1
790.0,1.075
791.0,1.08
792.0,1.072
793.0,1.055
794.0,1.068
795.0,1.088
796.0,1.061
797.0,1.062
798.0,1.088
799.0,1.082
800.0,1.065
801.0,1.063
802.0,1.06
803.0,1.053
804.0,1.054
805.0,1.049
806.0,1.075
807.0,1.063
808.0,1.064
809.0,1.046
810.0,1.039
811.0,1.044
812.0,1.018
813.0,1.0
814.0,0.8952
815.0,0.8894
816.0,0.8302
817.0,0.8435
818.0,0.8155
819.0,0.8984
820.0,0.8514
821.0,0.9771
822.0,0.9523
823.0,0.677
824.0,0.9309
825.0,0.9615
826.0,0.9305
827.0,0.9762
828.0,0.8441
829.0,0.924
830.0,0.9137
831.0,0.9164
832.0,0.8914
833.0,0.9399
834.0,0.9121
835.0,0.9905
836.0,0.9554
837.0,0.993
838.0,0.9653
839.0,0.9775
840.0,0.9982
841.0,0.9855
842.0,0.9856
843.0,0.983
844.0,0.9706
845.0,1.002
846.0,0.9972
847.0,0.978
848.0,0.973
849.0,0.9454
850.0,0.9057
851.0,0.9601
852.0,0.9529
853.0,0.9166
854.0,0.7921
855.0,0.8694
856.0,0.9506
857.0,0.9712
858.0,0.9644
859.0,0.9649
860.0,0.9664
861.0,0.9613
862.0,0.9763
863.0,0.9995
864.0,0.9495
865.0,0.9412
866.0,0.8463
867.0,0.8833
868.0,0.9612
869.0,0.9413
870.0,0.9682
871.0,0.9551
872.0,0.9517
873.0,0.9499
874.0,0.9386
875.0,0.9197
876.0,0.9294
877.0,0.9388
878.0,0.9492
879.0,0.9347
880.0,0.9147
881.0,0.9015
882.0,0.9212
883.0,0.9237
884.0,0.9197
885.0,0.9267
886.0,0.8849
887.0,0.8931
888.0,0.9071
889.0,0.9161
890.0,0.9101
891.0,0.9078
892.0,0.8837
893.0,0.8588
894.0,0.8337
895.0,0.7942
896.0,0.7512
897.0,0.6542
898.0,0.7088
899.0,0.5501
900.0,0.7205
901.0,0.5761
902.0,0.6618
903.0,0.673
904.0,0.8279
905.0,0.8023
906.0,0.7532
907.0,0.6252
908.0,0.6358
909.0,0.6824
910.0,0.6147
911.0,0.6485
912.0,0.6754
913.0,0.6244
914.0,0.6172
915.0,0.6679
916.0,0.569
917.0,0.7096
918.0,0.5837
919.0,0.7197
920.0,0.7215
921.0,0.749
922.0,0.6776
923.0,0.7232
924.0,0.695
925.0,0.6802
926.0,0.6876
927.0,0.7622
928.0,0.581
929.0,0.5362
930.0,0.4308
931.0,0.4066
932.0,0.3023
933.0,0.2509
934.0,0.1485
935.0,0.2525
936.0,0.1645
937.0,0.1677
938.0,0.2035
939.0,0.3942
940.0,0.4677
941.0,0.3619
942.0,0.4133
943.0,0.2789
944.0,0.2876
945.0,0.3716
946.0,0.1986
947.0,0.3757
948.0,0.2777
949.0,0.4935
950.0,0.152
951.0,0.4844
952.0,0.2728
953.0,0.3441
954.0,0.4129
955.0,0.3471
956.0,0.3327
957.0,0.2745
958.0,0.4585
959.0,0.374
960.0,0.4189
961.0,0.4628
962.0,0.4389
963.0,0.4995
964.0,0.4598
965.0,0.4969
966.0,0.4986
967.0,0.4971
968.0,0.6443
969.0,0.6746
970.0,0.6227
971.0,0.7031
972.0,0.6745
973.0,0.597
974.0,0.5681
975.0,0.5859
976.0,0.5615
977.0,0.6289
978.0,0.6017
979.0,0.627
980.0,0.5916
981.0,0.6989
982.0,0.6718
983.0,0.6471
984.0,0.7164
985.0,0.6692
986.0,0.7267
987.0,0.715
988.0,0.7137
989.0,0.7231
990.0,0.7093
991.0,0.7256
992.0,0.7296
993.0,0.7159
994.0,0.7292
995.0,0.728
996.0,0.7251
997.0,0.7261
998.0,0.7228
999.0,0.7201
1000.0,0.7156
1001.0,0.7239
1002.0,0.7064
1003.0,0.7113
1004.0,0.6946
1005.0,0.6683
1006.0,0.6949
1007.0,0.7094
1008.0,0.706
1009.0,0.7027
1010.0,0.7
1011.0,0.7059
1012.0,0.7002
1013.0,0.7041
1014.0,0.6991
1015.0,0.6946
1016.0,0.6916
1017.0,0.6934
1018.0,0.6906
1019.0,0.6768
1020.0,0.6871
1021.0,0.686
1022.0,0.6811
1023.0,0.6884
1024.0,0.6804
1025.0,0.6876
1026.0,0.685
1027.0,0.6834
1028.0,0.682
1029.0,0.6741
1030.0,0.6784
1031.0,0.6758
1032.0,0.6738
1033.0,0.6637
1034.0,0.6637
1035.0,0.6658
1036.0,0.6694
1037.0,0.6585
1038.0,0.6614
1039.0,0.6611
1040.0,0.6585
1041.0,0.6612
1042.0,0.6566
1043.0,0.6546
1044.0,0.657
1045.0,0.6482
1046.0,0.6411
1047.0,0.6469
1048.0,0.6506
1049.0,0.6483
1050.0,0.6454
1051.0,0.6446
1052.0,0.6421
1053.0,0.6371
1054.0,0.6386
1055.0,0.6392
1056.0,0.6371
1057.0,0.6352
1058.0,0.6198
1059.0,0.6206
1060.0,0.6197
1061.0,0.6191
1062.0,0.6225
1063.0,0.6165
1064.0,0.6238
1065.0,0.6196
1066.0,0.6071
1067.0,0.6151
1068.0,0.6019
1069.0,0.5832
1070.0,0.6032
1071.0,0.6118
1072.0,0.6054
1073.0,0.5965
1074.0,0.6111
1075.0,0.583
1076.0,0.6107
1077.0,0.6013
1078.0,0.5904
1079.0,0.6006
1080.0,0.5921
1081.0,0.5743
1082.0,0.5814
1083.0,0.5827
1084.0,0.5736
1085.0,0.5932
1086.0,0.5454
1087.0,0.56
1088.0,0.5826
1089.0,0.5671
1090.0,0.5563
1091.0,0.5814
1092.0,0.5794
1093.0,0.4986
1094.0,0.531
1095.0,0.5184
1096.0,0.4986
1097.0,0.5659
1098.0,0.4916
1099.0,0.5117
1100.0,0.479
1101.0,0.484
1102.0,0.4642
1103.0,0.4612
1104.0,0.4616
1105.0,0.5007
1106.0,0.3956
1107.0,0.478
1108.0,0.4129
1109.0,0.4121
1110.0,0.4748
1111.0,0.3324
1112.0,0.4084
1113.0,0.2707
1114.0,0.3013
1115.0,0.2502
1116.0,0.2064
1117.0,0.08327
1118.0,0.222
1119.0,0.116
1120.0,0.1462
1121.0,0.1904
1122.0,0.08524
1123.0,0.132
1124.0,0.1115
1125.0,0.144
1126.0,0.05524
1127.0,0.162
1128.0,0.1024
1129.0,0.1078
1130.0,0.07335
1131.0,0.2943
1132.0,0.2333
1133.0,0.1547
1134.0,0.04385
1135.0,0.01623
1136.0,0.1315
1137.0,0.2911
1138.0,0.2067
1139.0,0.2953
1140.0,0.2517
1141.0,0.1964
1142.0,0.2232
1143.0,0.3115
1144.0,0.1154
1145.0,0.1491
1146.0,0.1608
1147.0,0.06195
1148.0,0.2698
1149.0,0.2194
1150.0,0.1238
1151.0,0.2052
1152.0,0.2479
1153.0,0.2381
1154.0,0.1456
1155.0,0.3083
1156.0,0.2802
1157.0,0.3106
1158.0,0.3071
1159.0,0.3279
1160.0,0.2843
1161.0,0.3426
1162.0,0.3449
1163.0,0.4528
1164.0,0.3932
1165.0,0.3754
1166.0,0.3697
1167.0,0.4002
1168.0,0.4056
1169.0,0.4136
1170.0,0.4456
1171.0,0.4351
1172.0,0.4407
1173.0,0.4447
1174.0,0.3283
1175.0,0.4327
1176.0,0.4704
1177.0,0.455
1178.0,0.35
1179.0,0.4741
1180.0,0.429
1181.0,0.4421
1182.0,0.3141
1183.0,0.4341
1184.0,0.4098
1185.0,0.3981
1186.0,0.4631
1187.0,0.4439
1188.0,0.3203
1189.0,0.4142
1190.0,0.4526
1191.0,0.4344
1192.0,0.4584
1193.0,0.4409
1194.0,0.4533
1195.0,0.4321
1196.0,0.4182
1197.0,0.4518
1198.0,0.4159
1199.0,0.3613
1200.0,0.4357
1201.0,0.4228
1202.0,0.4188
1203.0,0.4155
1204.0,0.3676
1205.0,0.4263
1206.0,0.4667
1207.0,0.4185
1208.0,0.4097
1209.0,0.4175
1210.0,0.4333
1211.0,0.4156
1212.0,0.4139
1213.0,0.453
1214.0,0.4222
1215.0,0.4149
1216.0,0.4514
1217.0,0.441
1218.0,0.448
1219.0,0.4431
1220.0,0.4482
1221.0,0.4519
1222.0,0.441
1223.0,0.4375
1224.0,0.4359
1225.0,0.4491
1226.0,0.4511
1227.0,0.42
1228.0,0.4526
1229.0,0.4512
1230.0,0.4442
1231.0,0.4544
1232.0,0.4518
1233.0,0.4394
1234.0,0.4534
1235.0,0.451
1236.0,0.4539
1237.0,0.4489
1238.0,0.4524
1239.0,0.4466
1240.0,0.4482
1241.0,0.4468
1242.0,0.4452
1243.0,0.4415
1244.0,0.4449
1245.0,0.4467
1246.0,0.4441
1247.0,0.4426
1248.0,0.4426
1249.0,0.4437
1250.0,0.4412
1251.0,0.436
1252.0,0.4355
1253.0,0.4331
1254.0,0.4296
1255.0,0.4354
1256.0,0.4251
1257.0,0.4232
1258.0,0.4296
1259.0,0.417
1260.0,0.4188
1261.0,0.3992
1262.0,0.3892
1263.0,0.3901
1264.0,0.3648
1265.0,0.3875
1266.0,0.3757
1267.0,0.3804
1268.0,0.3638
1269.0,0.2469
1270.0,0.3797
1271.0,0.3974
1272.0,0.3983
1273.0,0.3945
1274.0,0.3952
1275.0,0.4002
1276.0,0.4033
1277.0,0.4051
1278.0,0.4113
1279.0,0.4078
1280.0,0.4025
1281.0,0.3834
1282.0,0.3682
1283.0,0.3968
1284.0,0.4066
1285.0,0.4091
1286.0,0.4139
1287.0,0.4088
1288.0,0.4083
1289.0,0.3978
1290.0,0.4046
1291.0,0.4098
1292.0,0.3895
1293.0,0.403
1294.0,0.4004
1295.0,0.3995
1296.0,0.3844
1297.0,0.3659
1298.0,0.3892
1299.0,0.403
1300.0,0.3491
1301.0,0.3582
1302.0,0.3878
1303.0,0.3437
1304.0,0.3006
1305.0,0.3805
1306.0,0.381
1307.0,0.3045
1308.0,0.343
1309.0,0.3787
1310.0,0.299
1311.0,0.3306
1312.0,0.3228
1313.0,0.3178
1314.0,0.2871
1315.0,0.2851
1316.0,0.3266
1317.0,0.3102
1318.0,0.3341
1319.0,0.27
1320.0,0.2597
1321.0,0.2995
1322.0,0.3038
1323.0,0.2359
1324.0,0.2648
1325.0,0.3224
1326.0,0.2813
1327.0,0.2695
1328.0,0.2347
1329.0,0.1824
1330.0,0.2344
1331.0,0.149
1332.0,0.1512
1333.0,0.2085
1334.0,0.1735
1335.0,0.2349
1336.0,0.1896
1337.0,0.1698
1338.0,0.1835
1339.0,0.1817
1340.0,0.1749
1341.0,0.1751
1342.0,0.1836
1343.0,0.1336
1344.0,0.07968
1345.0,0.114
1346.0,0.06289
1347.0,0.06501
1348.0,0.005513
1349.0,0.01829
1350.0,0.01796
1351.0,0.005539
1352.0,0.001913
1353.0,0.0001306
1354.0,0.000376
1355.0,5.414e-06
1356.0,6.54e-05
1357.0,9.867e-05
1358.0,6.264e-06
1359.0,1.207e-06
1360.0,3.336e-06
1361.0,9.353e-09
1362.0,3.88e-11
1363.0,5.019e-06
1364.0,2.175e-06
1365.0,2.209e-11
1366.0,1.955e-05
1367.0,7.59e-06
1368.0,4.499e-13
1369.0,8.38e-07
1370.0,4.937e-07
1371.0,3.547e-08
1372.0,4.192e-06
1373.0,6.27e-05
1374.0,0.0002386
1375.0,0.0004318
1376.0,0.0003351
1377.0,0.0001611
1378.0,0.00142
1379.0,6.854e-05
1380.0,0.0001107
1381.0,3.323e-06
1382.0,3.972e-06
1383.0,7.176e-08
1384.0,1.014e-06
1385.0,3.094e-06
1386.0,3.993e-06
1387.0,0.0002752
1388.0,5.67e-06
1389.0,0.0007567
1390.0,0.0006499
1391.0,0.000456
1392.0,3.229e-05
1393.0,0.0001528
1394.0,0.0001075
1395.0,1.023e-06
1396.0,1.195e-08
1397.0,6.613e-05
1398.0,0.001622
1399.0,0.001029
1400.0,6.526e-09
1401.0,1.97e-08
1402.0,0.002212
1403.0,0.002911
1404.0,0.0009068
1405.0,5.812e-07
1406.0,0.002547
1407.0,0.0002172
1408.0,0.002059
1409.0,0.0008006
1410.0,0.0005914
1411.0,0.002539
1412.0,0.003196
1413.0,0.02649
1414.0,0.0004593
1415.0,0.0002371
1416.0,0.03895
1417.0,0.01337
1418.0,0.01534
1419.0,0.002462
1420.0,0.009452
1421.0,0.01032
1422.0,0.05037
1423.0,0.0102
1424.0,0.01874
1425.0,0.02809
1426.0,0.03048
1427.0,0.05278
1428.0,0.005282
1429.0,0.0409
1430.0,0.06619
1431.0,0.07183
1432.0,0.004203
1433.0,0.04693
1434.0,0.02449
1435.0,0.0266
1436.0,0.04797
1437.0,0.03677
1438.0,0.01647
1439.0,0.06375
1440.0,0.04793
1441.0,0.03811
1442.0,0.04194
1443.0,0.05027
1444.0,0.0686
1445.0,0.05559
1446.0,0.0256
1447.0,0.04027
1448.0,0.1225
1449.0,0.1083
1450.0,0.02979
1451.0,0.01244
1452.0,0.06697
1453.0,0.08684
1454.0,0.1426
1455.0,0.06966
1456.0,0.0946
1457.0,0.1231
1458.0,0.1415
1459.0,0.1679
1460.0,0.08938
1461.0,0.09493
1462.0,0.1361
1463.0,0.04608
1464.0,0.1583
1465.0,0.09598
1466.0,0.07018
