interpolation:linear
wavelength,value
280.0,6.260000000000001e-20
280.5,1.154e-18
281.0,5.1e-18
281.5,9.292e-17
282.0,5.337e-16
282.5,1.643e-15
283.0,5.687e-15
283.5,9.501e-15
284.0,1.372e-13
284.5,3.635e-13
285.0,6.399e-13
285.5,3.511e-12
286.0,1.437e-11
286.5,6.222e-11
287.0,1.701e-10
287.5,5.934e-10
288.0,1.894e-09
288.5,6.263e-09
289.0,1.735e-08
289.5,5.235e-08
290.0,1.43e-07
290.5,2.862e-07
291.0,5.904e-07
291.5,1.576e-06
292.0,3.369e-06
292.5,4.606e-06
293.0,9.441e-06
293.5,2.127e-05
294.0,3.187e-05
294.5,5.159e-05
295.0,8.165e-05
295.5,0.0001732
296.0,0.0002847
296.5,0.0003403
297.0,0.0004056
297.5,0.0009013
298.0,0.001214
298.5,0.001084
299.0,0.002132
299.5,0.002897
300.0,0.002865
300.5,0.003722
301.0,0.005662
301.5,0.007755
302.0,0.006172
302.5,0.01107
303.0,0.01781
303.5,0.02099
304.0,0.01893
304.5,0.0252
305.0,0.03262
305.5,0.03394
306.0,0.03175
306.5,0.03729
307.0,0.04845
307.5,0.05691
308.0,0.05913
308.5,0.06595
309.0,0.05776
309.5,0.06156
310.0,0.05992
310.5,0.09573
311.0,0.117
311.5,0.1119
312.0,0.105
312.5,0.1226
313.0,0.1303
313.5,0.1299
314.0,0.1542
314.5,0.1275
315.0,0.1659
315.5,0.1444
316.0,0.1191
316.5,0.1629
317.0,0.2032
317.5,0.2154
318.0,0.1626
318.5,0.189
319.0,0.2173
319.5,0.188
320.0,0.2298
320.5,0.2689
321.0,0.2255
321.5,0.2155
322.0,0.2466
322.5,0.2144
323.0,0.2049
323.5,0.2343
324.0,0.272
324.5,0.2831
325.0,0.2591
325.5,0.3224
326.0,0.3777
326.5,0.3691
327.0,0.3727
327.5,0.3657
328.0,0.3389
328.5,0.3417
329.0,0.3966
329.5,0.447
330.0,0.456
330.5,0.3757
331.0,0.3873
331.5,0.387
332.0,0.4077
332.5,0.3995
333.0,0.4024
333.5,0.3729
334.0,0.3843
334.5,0.4343
335.0,0.4039
335.5,0.4584
336.0,0.3179
336.5,0.3878
337.0,0.322
337.5,0.403
338.0,0.3872
338.5,0.4368
339.0,0.4356
339.5,0.4184
340.0,0.5048
340.5,0.4554
341.0,0.4366
341.5,0.4051
342.0,0.4861
342.5,0.4566
343.0,0.5014
343.5,0.4718
344.0,0.3548
344.5,0.3511
345.0,0.4703
345.5,0.4827
346.0,0.4118
346.5,0.4678
347.0,0.5018
347.5,0.4061
348.0,0.4657
348.5,0.4675
349.0,0.4347
349.5,0.4311
350.0,0.5344
350.5,0.5648
351.0,0.505
351.5,0.4896
352.0,0.5285
352.5,0.414
353.0,0.5229
353.5,0.5606
354.0,0.5835
354.5,0.5931
355.0,0.5921
355.5,0.5359
356.0,0.5619
356.5,0.4809
357.0,0.3982
357.5,0.4886
358.0,0.3881
358.5,0.3324
359.0,0.4658
359.5,0.5945
360.0,0.6316
360.5,0.5059
361.0,0.462
361.5,0.5326
362.0,0.461
362.5,0.6388
363.0,0.5744
363.5,0.5298
364.0,0.6489
364.5,0.5556
365.0,0.5668
365.5,0.7125
366.0,0.7559
366.5,0.7112
367.0,0.6938
367.5,0.7212
368.0,0.6321
368.5,0.6387
369.0,0.6908
369.5,0.7375
370.0,0.7874
370.5,0.612
371.0,0.6549
371.5,0.8207
372.0,0.5456
372.5,0.6552
373.0,0.6673
373.5,0.4347
374.0,0.6326
374.5,0.5246
375.0,0.5107
375.5,0.7638
376.0,0.6342
376.5,0.6583
377.0,0.6978
377.5,0.8175
378.0,0.8877
378.5,0.8405
379.0,0.6949
379.5,0.636
380.0,0.6624
380.5,0.8032
381.0,0.8059
381.5,0.6395
382.0,0.5686
382.5,0.4852
383.0,0.4498
383.5,0.4337
384.0,0.479
384.5,0.7055
385.0,0.7005
385.5,0.6531
386.0,0.56
386.5,0.7364
387.0,0.6128
387.5,0.6893
388.0,0.6372
388.5,0.6306
389.0,0.6816
389.5,0.8266
390.0,0.8305
390.5,0.7653
391.0,0.9019
391.5,0.9211
392.0,0.7769
392.5,0.6962
393.0,0.3878
393.5,0.2822
394.0,0.5748
394.5,0.7316
395.0,0.8938
395.5,0.9092
396.0,0.7891
396.5,0.4617
397.0,0.3469
397.5,0.7062
398.0,0.9904
398.5,1.025
399.0,1.11
399.5,1.108
400.0,1.152
401.0,1.185
402.0,1.253
403.0,1.192
404.0,1.176
405.0,1.178
406.0,1.161
407.0,1.144
408.0,1.191
409.0,1.277
410.0,1.117
411.0,1.212
412.0,1.303
413.0,1.274
414.0,1.291
415.0,1.296
416.0,1.32
417.0,1.29
418.0,1.268
419.0,1.287
420.0,1.284
421.0,1.345
422.0,1.28
423.0,1.252
424.0,1.327
425.0,1.326
426.0,1.293
427.0,1.27
428.0,1.239
429.0,1.175
430.0,1.029
431.0,1.022
432.0,1.321
433.0,1.33
434.0,1.237
435.0,1.294
436.0,1.458
437.0,1.439
438.0,1.312
439.0,1.36
440.0,1.404
441.0,1.456
442.0,1.564
443.0,1.526
444.0,1.56
445.0,1.529
446.0,1.46
447.0,1.579
448.0,1.607
449.0,1.613
450.0,1.66
451.0,1.723
452.0,1.662
453.0,1.564
454.0,1.634
455.0,1.646
456.0,1.687
457.0,1.717
458.0,1.661
459.0,1.654
460.0,1.66
461.0,1.7
462.0,1.714
463.0,1.704
464.0,1.676
465.0,1.655
466.0,1.672
467.0,1.644
468.0,1.665
469.0,1.676
470.0,1.624
471.0,1.623
472.0,1.712
473.0,1.692
474.0,1.698
475.0,1.715
476.0,1.668
477.0,1.675
478.0,1.723
479.0,1.713
480.0,1.716
481.0,1.748
482.0,1.757
483.0,1.736
484.0,1.701
485.0,1.621
486.0,1.417
487.0,1.486
488.0,1.632
489.0,1.639
490.0,1.725
491.0,1.695
492.0,1.602
493.0,1.656
494.0,1.674
495.0,1.689
496.0,1.701
497.0,1.728
498.0,1.649
499.0,1.672
500.0,1.625
501.0,1.598
502.0,1.579
503.0,1.647
504.0,1.613
505.0,1.666
506.0,1.721
507.0,1.639
508.0,1.587
509.0,1.631
510.0,1.622
511.0,1.665
512.0,1.684
513.0,1.595
514.0,1.584
515.0,1.569
516.0,1.567
517.0,1.393
518.0,1.465
519.0,1.538
520.0,1.595
521.0,1.611
522.0,1.614
523.0,1.587
524.0,1.646
525.0,1.667
526.0,1.594
527.0,1.505
528.0,1.593
529.0,1.681
530.0,1.658
531.0,1.684
532.0,1.628
533.0,1.581
534.0,1.628
535.0,1.664
536.0,1.679
537.0,1.613
538.0,1.642
539.0,1.629
540.0,1.563
541.0,1.576
542.0,1.628
543.0,1.61
544.0,1.64
545.0,1.635
546.0,1.645
547.0,1.643
548.0,1.624
549.0,1.629
550.0,1.649
551.0,1.629
552.0,1.642
553.0,1.613
554.0,1.653
555.0,1.657
556.0,1.637
557.0,1.587
558.0,1.577
559.0,1.549
560.0,1.57
561.0,1.592
562.0,1.583
563.0,1.628
564.0,1.585
565.0,1.573
566.0,1.552
567.0,1.583
568.0,1.573
569.0,1.544
570.0,1.543
571.0,1.532
572.0,1.574
573.0,1.592
574.0,1.589
575.0,1.561
576.0,1.548
577.0,1.564
578.0,1.54
579.0,1.543
580.0,1.568
581.0,1.573
582.0,1.601
583.0,1.602
584.0,1.615
585.0,1.575
586.0,1.543
587.0,1.58
588.0,1.551
589.0,1.392
590.0,1.454
591.0,1.529
592.0,1.516
593.0,1.532
594.0,1.525
595.0,1.494
596.0,1.539
597.0,1.526
598.0,1.519
599.0,1.518
600.0,1.518
601.0,1.503
602.0,1.493
603.0,1.517
604.0,1.542
605.0,1.534
606.0,1.526
607.0,1.54
608.0,1.523
609.0,1.525
610.0,1.513
611.0,1.52
612.0,1.516
613.0,1.496
614.0,1.475
615.0,1.507
616.0,1.457
617.0,1.453
618.0,1.509
619.0,1.494
620.0,1.504
621.0,1.507
622.0,1.491
623.0,1.47
624.0,1.444
625.0,1.441
626.0,1.463
627.0,1.482
628.0,1.421
629.0,1.461
630.0,1.429
631.0,1.449
632.0,1.43
633.0,1.469
634.0,1.451
635.0,1.472
636.0,1.451
637.0,1.473
638.0,1.485
639.0,1.467
640.0,1.452
641.0,1.45
642.0,1.442
643.0,1.462
644.0,1.456
645.0,1.46
646.0,1.431
647.0,1.424
648.0,1.427
649.0,1.4
650.0,1.394
651.0,1.452
652.0,1.407
653.0,1.434
654.0,1.417
655.0,1.371
656.0,1.211
657.0,1.243
658.0,1.389
659.0,1.398
660.0,1.403
661.0,1.413
662.0,1.419
663.0,1.39
664.0,1.403
665.0,1.402
666.0,1.402
667.0,1.4
668.0,1.399
669.0,1.42
670.0,1.414
671.0,1.413
672.0,1.401
673.0,1.422
674.0,1.416
675.0,1.403
676.0,1.412
677.0,1.398
678.0,1.402
679.0,1.379
680.0,1.39
681.0,1.381
682.0,1.38
683.0,1.377
684.0,1.37
685.0,1.382
686.0,1.374
687.0,1.074
688.0,1.179
689.0,1.181
690.0,1.213
691.0,1.248
692.0,1.271
693.0,1.264
694.0,1.255
695.0,1.288
696.0,1.29
697.0,1.344
698.0,1.324
699.0,1.308
700.0,1.293
701.0,1.285
702.0,1.288
703.0,1.291
704.0,1.323
705.0,1.325
706.0,1.32
707.0,1.32
708.0,1.323
709.0,1.32
710.0,1.322
711.0,1.319
712.0,1.313
713.0,1.302
714.0,1.306
715.0,1.271
716.0,1.274
717.0,1.165
718.0,1.083
719.0,1.0
720.0,1.051
721.0,1.121
722.0,1.24
723.0,1.178
724.0,1.086
725.0,1.078
726.0,1.122
727.0,1.125
728.0,1.077
729.0,1.096
730.0,1.157
731.0,1.115
732.0,1.17
733.0,1.216
734.0,1.239
735.0,1.217
736.0,1.215
737.0,1.221
738.0,1.226
739.0,1.202
740.0,1.229
741.0,1.215
742.0,1.213
743.0,1.244
744.0,1.239
745.0,1.238
746.0,1.244
747.0,1.246
748.0,1.244
749.0,1.23
750.0,1.229
751.0,1.217
752.0,1.222
753.0,1.228
754.0,1.231
755.0,1.224
756.0,1.224
757.0,1.226
758.0,1.211
759.0,1.194
760.0,0.3943
761.0,0.2639
762.0,0.7831
763.0,0.5127
764.0,0.6591
765.0,0.7841
766.0,0.8765
767.0,1.025
768.0,1.122
769.0,1.133
770.0,1.157
771.0,1.16
772.0,1.16
773.0,1.168
774.0,1.162
775.0,1.153
776.0,1.167
777.0,1.151
778.0,1.145
779.0,1.146
780.0,1.139
781.0,1.141
782.0,1.148
783.0,1.128
784.0,1.133
785.0,1.125
786.0,1.138
787.0,1.124
788.0,1.113
789.0,1.114
790.0,1.094
791.0,1.095
792.0,1.086
793.0,1.069
794.0,1.078
795.0,1.099
796.0,1.077
797.0,1.079
798.0,1.099
799.0,1.094
800.0,1.078
801.0,1.078
802.0,1.074
803.0,1.068
804.0,1.068
805.0,1.061
806.0,1.085
807.0,1.074
808.0,1.074
809.0,1.058
810.0,1.053
811.0,1.06
812.0,1.039
813.0,1.023
814.0,0.9319
815.0,0.9255
816.0,0.8672
817.0,0.8786
818.0,0.8528
819.0,0.9253
820.0,0.8828
821.0,0.9942
822.0,0.9722
823.0,0.7237
824.0,0.9563
825.0,0.9797
826.0,0.9537
827.0,0.9943
828.0,0.8769
829.0,0.9458
830.0,0.9372
831.0,0.9391
832.0,0.9167
833.0,0.9569
834.0,0.9344
835.0,1.003
836.0,0.9745
837.0,1.005
838.0,0.9797
839.0,0.9885
840.0,1.009
841.0,0.9971
842.0,0.9951
843.0,0.9904
844.0,0.9791
845.0,1.009
846.0,1.004
847.0,0.984
848.0,0.9798
849.0,0.9521
850.0,0.9119
851.0,0.9676
852.0,0.96
853.0,0.9225
854.0,0.7979
855.0,0.8748
856.0,0.9569
857.0,0.977
858.0,0.9704
859.0,0.9705
860.0,0.9717
861.0,0.9667
862.0,0.9816
863.0,1.005
864.0,0.9546
865.0,0.9462
866.0,0.8508
867.0,0.8879
868.0,0.9662
869.0,0.9461
870.0,0.9731
871.0,0.9599
872.0,0.9565
873.0,0.9546
874.0,0.9433
875.0,0.9243
876.0,0.9341
877.0,0.9434
878.0,0.954
879.0,0.9393
880.0,0.9192
881.0,0.9064
882.0,0.9264
883.0,0.9285
884.0,0.9246
885.0,0.9317
886.0,0.8912
887.0,0.8982
888.0,0.9132
889.0,0.9207
890.0,0.9165
891.0,0.9132
892.0,0.8912
893.0,0.8693
894.0,0.8494
895.0,0.8164
896.0,0.7768
897.0,0.6876
898.0,0.7381
899.0,0.5876
900.0,0.744
901.0,0.6139
902.0,0.6873
903.0,0.7043
904.0,0.8434
905.0,0.8209
906.0,0.7738
907.0,0.6584
908.0,0.6677
909.0,0.7083
910.0,0.6523
911.0,0.6803
912.0,0.7044
913.0,0.6631
914.0,0.6533
915.0,0.7039
916.0,0.606
917.0,0.738
918.0,0.6215
919.0,0.7457
920.0,0.7416
921.0,0.7669
922.0,0.7042
923.0,0.7402
924.0,0.722
925.0,0.7074
926.0,0.7144
927.0,0.7821
928.0,0.6248
929.0,0.5843
930.0,0.4829
931.0,0.4531
932.0,0.3501
933.0,0.2988
934.0,0.1941
935.0,0.294
936.0,0.2023
937.0,0.2083
938.0,0.2481
939.0,0.4393
940.0,0.5121
941.0,0.4092
942.0,0.4583
943.0,0.3199
944.0,0.3216
945.0,0.4183
946.0,0.2381
947.0,0.4262
948.0,0.3183
949.0,0.5448
950.0,0.1934
951.0,0.5324
952.0,0.3203
953.0,0.3913
954.0,0.4556
955.0,0.3929
956.0,0.3732
957.0,0.3243
958.0,0.4924
959.0,0.4162
960.0,0.4651
961.0,0.5033
962.0,0.4793
963.0,0.5358
964.0,0.4969
965.0,0.5315
966.0,0.5359
967.0,0.5349
968.0,0.663
969.0,0.695
970.0,0.6468
971.0,0.7168
972.0,0.6902
973.0,0.6244
974.0,0.5969
975.0,0.6099
976.0,0.5912
977.0,0.649
978.0,0.6265
979.0,0.6481
980.0,0.615
981.0,0.7117
982.0,0.6888
983.0,0.6665
984.0,0.7243
985.0,0.6859
986.0,0.7318
987.0,0.7229
988.0,0.7217
989.0,0.7264
990.0,0.7168
991.0,0.7292
992.0,0.7329
993.0,0.722
994.0,0.7321
995.0,0.7304
996.0,0.7281
997.0,0.7287
998.0,0.7257
999.0,0.7228
1000.0,0.7191
1001.0,0.7266
1002.0,0.7121
1003.0,0.7141
1004.0,0.6981
1005.0,0.6706
1006.0,0.6978
1007.0,0.7121
1008.0,0.7092
1009.0,0.7066
1010.0,0.7042
1011.0,0.7084
1012.0,0.7034
1013.0,0.7064
1014.0,0.7015
1015.0,0.697
1016.0,0.694
1017.0,0.696
1018.0,0.6928
1019.0,0.6801
1020.0,0.6895
1021.0,0.6882
1022.0,0.6836
1023.0,0.691
1024.0,0.6842
1025.0,0.6899
1026.0,0.6875
1027.0,0.6858
1028.0,0.6846
1029.0,0.6767
1030.0,0.6806
1031.0,0.6782
1032.0,0.676
1033.0,0.6659
1034.0,0.6658
1035.0,0.6679
1036.0,0.6717
1037.0,0.6607
1038.0,0.6637
1039.0,0.6634
1040.0,0.6608
1041.0,0.6637
1042.0,0.6591
1043.0,0.6571
1044.0,0.6595
1045.0,0.6507
1046.0,0.6437
1047.0,0.6496
1048.0,0.6534
1049.0,0.6512
1050.0,0.6484
1051.0,0.6477
1052.0,0.6453
1053.0,0.6404
1054.0,0.6421
1055.0,0.6428
1056.0,0.6409
1057.0,0.6392
1058.0,0.6238
1059.0,0.6248
1060.0,0.624
1061.0,0.6235
1062.0,0.6271
1063.0,0.6212
1064.0,0.6284
1065.0,0.6247
1066.0,0.6117
1067.0,0.6199
1068.0,0.6069
1069.0,0.5878
1070.0,0.6083
1071.0,0.6159
1072.0,0.6103
1073.0,0.6012
1074.0,0.6146
1075.0,0.5897
1076.0,0.6145
1077.0,0.6069
1078.0,0.5965
1079.0,0.6038
1080.0,0.5977
1081.0,0.5811
1082.0,0.5856
1083.0,0.5862
1084.0,0.5816
1085.0,0.5984
1086.0,0.5561
1087.0,0.5663
1088.0,0.5867
1089.0,0.5742
1090.0,0.5659
1091.0,0.5864
1092.0,0.5836
1093.0,0.5127
1094.0,0.5362
1095.0,0.5311
1096.0,0.514
1097.0,0.5699
1098.0,0.5076
1099.0,0.5267
1100.0,0.4982
1101.0,0.5019
1102.0,0.4841
1103.0,0.4831
1104.0,0.4833
1105.0,0.5165
1106.0,0.4265
1107.0,0.4967
1108.0,0.4402
1109.0,0.4374
1110.0,0.4945
1111.0,0.3621
1112.0,0.4326
1113.0,0.3039
1114.0,0.3355
1115.0,0.2791
1116.0,0.2413
1117.0,0.111
1118.0,0.2548
1119.0,0.1435
1120.0,0.1802
1121.0,0.2279
1122.0,0.111
1123.0,0.1625
1124.0,0.1374
1125.0,0.1751
1126.0,0.07639
1127.0,0.1961
1128.0,0.1337
1129.0,0.1389
1130.0,0.09999
1131.0,0.3346
1132.0,0.2697
1133.0,0.1903
1134.0,0.06268
1135.0,0.02306
1136.0,0.1658
1137.0,0.3334
1138.0,0.2403
1139.0,0.3235
1140.0,0.2836
1141.0,0.2283
1142.0,0.2549
1143.0,0.3474
1144.0,0.1406
1145.0,0.1828
1146.0,0.1974
1147.0,0.08608
1148.0,0.301
1149.0,0.2516
1150.0,0.1511
1151.0,0.2387
1152.0,0.2808
1153.0,0.2642
1154.0,0.1817
1155.0,0.3379
1156.0,0.3109
1157.0,0.34
1158.0,0.3356
1159.0,0.353
1160.0,0.3133
1161.0,0.366
1162.0,0.3692
1163.0,0.4664
1164.0,0.4121
1165.0,0.3992
1166.0,0.3897
1167.0,0.4183
1168.0,0.4249
1169.0,0.4306
1170.0,0.4591
1171.0,0.4494
1172.0,0.4526
1173.0,0.4581
1174.0,0.3533
1175.0,0.4442
1176.0,0.4766
1177.0,0.4649
1178.0,0.3691
1179.0,0.4799
1180.0,0.4416
1181.0,0.454
1182.0,0.3349
1183.0,0.444
1184.0,0.4233
1185.0,0.4143
1186.0,0.4712
1187.0,0.4548
1188.0,0.3418
1189.0,0.4254
1190.0,0.4606
1191.0,0.4472
1192.0,0.4658
1193.0,0.4502
1194.0,0.4614
1195.0,0.4433
1196.0,0.4317
1197.0,0.4575
1198.0,0.4247
1199.0,0.3778
1200.0,0.4452
1201.0,0.4348
1202.0,0.4295
1203.0,0.4256
1204.0,0.3822
1205.0,0.4345
1206.0,0.4705
1207.0,0.4297
1208.0,0.4181
1209.0,0.4255
1210.0,0.4395
1211.0,0.425
1212.0,0.4263
1213.0,0.4583
1214.0,0.4331
1215.0,0.4267
1216.0,0.4567
1217.0,0.4478
1218.0,0.4533
1219.0,0.4491
1220.0,0.4533
1221.0,0.4561
1222.0,0.4463
1223.0,0.4433
1224.0,0.4427
1225.0,0.4533
1226.0,0.4544
1227.0,0.4272
1228.0,0.4551
1229.0,0.4544
1230.0,0.4482
1231.0,0.456
1232.0,0.4535
1233.0,0.444
1234.0,0.4544
1235.0,0.4524
1236.0,0.455
1237.0,0.451
1238.0,0.4534
1239.0,0.4477
1240.0,0.4491
1241.0,0.4485
1242.0,0.4462
1243.0,0.4425
1244.0,0.4461
1245.0,0.4477
1246.0,0.445
1247.0,0.4437
1248.0,0.4442
1249.0,0.4449
1250.0,0.4427
1251.0,0.4379
1252.0,0.4368
1253.0,0.4354
1254.0,0.4327
1255.0,0.4369
1256.0,0.4286
1257.0,0.427
1258.0,0.4319
1259.0,0.4223
1260.0,0.4238
1261.0,0.4078
1262.0,0.3997
1263.0,0.4007
1264.0,0.3796
1265.0,0.398
1266.0,0.3887
1267.0,0.3915
1268.0,0.3777
1269.0,0.2804
1270.0,0.3917
1271.0,0.4055
1272.0,0.4059
1273.0,0.4025
1274.0,0.4027
1275.0,0.407
1276.0,0.4094
1277.0,0.4105
1278.0,0.4151
1279.0,0.4116
1280.0,0.4062
1281.0,0.3862
1282.0,0.3698
1283.0,0.3987
1284.0,0.4088
1285.0,0.4111
1286.0,0.4153
1287.0,0.4114
1288.0,0.4107
1289.0,0.4024
1290.0,0.4067
1291.0,0.4115
1292.0,0.3957
1293.0,0.4058
1294.0,0.4034
1295.0,0.4036
1296.0,0.3913
1297.0,0.3752
1298.0,0.3942
1299.0,0.4054
1300.0,0.3602
1301.0,0.3676
1302.0,0.3925
1303.0,0.3536
1304.0,0.3179
1305.0,0.386
1306.0,0.3868
1307.0,0.3192
1308.0,0.3517
1309.0,0.3849
1310.0,0.3138
1311.0,0.3408
1312.0,0.3342
1313.0,0.3302
1314.0,0.3016
1315.0,0.3012
1316.0,0.338
1317.0,0.3221
1318.0,0.3434
1319.0,0.2882
1320.0,0.275
1321.0,0.3133
1322.0,0.3191
1323.0,0.257
1324.0,0.2826
1325.0,0.334
1326.0,0.2973
1327.0,0.2863
1328.0,0.2523
1329.0,0.2039
1330.0,0.2576
1331.0,0.1743
1332.0,0.1734
1333.0,0.2356
1334.0,0.1934
1335.0,0.2555
1336.0,0.211
1337.0,0.1929
1338.0,0.2073
1339.0,0.2042
1340.0,0.1942
1341.0,0.1996
1342.0,0.2091
1343.0,0.1651
1344.0,0.09927
1345.0,0.1388
1346.0,0.08669
1347.0,0.09094
1348.0,0.01082
1349.0,0.0321
1350.0,0.02922
1351.0,0.01204
1352.0,0.005353
1353.0,0.0005345
1354.0,0.001251
1355.0,3.572e-05
1356.0,0.0002789
1357.0,0.0004123
1358.0,4.024e-05
1359.0,1.229e-05
1360.0,2.53e-05
1361.0,2.055e-07
1362.0,1.476e-09
1363.0,3.975e-05
1364.0,1.932e-05
1365.0,1.38e-09
1366.0,0.0001351
1367.0,5.277e-05
1368.0,8.024e-11
1369.0,7.868e-06
1370.0,5.596e-06
1371.0,5.438e-07
1372.0,2.972e-05
1373.0,0.0003069
1374.0,0.0009237
1375.0,0.001594
1376.0,0.001106
1377.0,0.000568
1378.0,0.004217
1379.0,0.0002493
1380.0,0.0004472
1381.0,1.667e-05
1382.0,2.959e-05
1383.0,7.081e-07
1384.0,1.012e-05
1385.0,1.908e-05
1386.0,3.342e-05
1387.0,0.001148
1388.0,2.781e-05
1389.0,0.002549
1390.0,0.002148
1391.0,0.001635
1392.0,0.000135
1393.0,0.0005486
1394.0,0.0005263
1395.0,7.318e-06
1396.0,2.312e-07
1397.0,0.0002632
1398.0,0.004826
1399.0,0.003116
1400.0,1.614e-07
1401.0,3.446e-07
1402.0,0.00513
1403.0,0.007016
1404.0,0.002249
1405.0,4.925e-06
1406.0,0.006673
1407.0,0.0005914
1408.0,0.00537
1409.0,0.002451
1410.0,0.001735
1411.0,0.006089
1412.0,0.007092
1413.0,0.04372
1414.0,0.001333
1415.0,0.0007538
1416.0,0.05685
1417.0,0.02359
1418.0,0.02647
1419.0,0.004515
1420.0,0.01655
1421.0,0.01887
1422.0,0.07182
1423.0,0.01593
1424.0,0.02826
1425.0,0.04302
1426.0,0.044
1427.0,0.06913
1428.0,0.01055
1429.0,0.05646
1430.0,0.08474
1431.0,0.09018
1432.0,0.008554
1433.0,0.0618
1434.0,0.03375
1435.0,0.04129
1436.0,0.06699
1437.0,0.05181
1438.0,0.02553
1439.0,0.0854
1440.0,0.06511
1441.0,0.05524
1442.0,0.05933
1443.0,0.06609
1444.0,0.08878
1445.0,0.07573
1446.0,0.0361
1447.0,0.05732
1448.0,0.1448
1449.0,0.1324
1450.0,0.0425
1451.0,0.01912
1452.0,0.08581
1453.0,0.1084
1454.0,0.1645
1455.0,0.08585
1456.0,0.1188
1457.0,0.1459
1458.0,0.1598
1459.0,0.1907
1460.0,0.1064
1461.0,0.116
1462.0,0.1596
1463.0,0.05968
1464.0,0.1791
1465.0,0.11
1466.0,0.08966
1467.0,0.05412
1468.0,0.102
1469.0,0.1212
