interpolation:linear
wavelength,value
280.0,9.475e-25
280.5,3.536e-23
281.0,2.023e-22
281.5,7.293e-21
282.0,6.341e-20
282.5,2.581e-19
283.0,1.215e-18
283.5,2.366e-18
284.0,6.967e-17
284.5,2.553e-16
285.0,6.383e-16
285.5,5.294e-15
286.0,2.561e-14
286.5,1.564e-13
287.0,5.509e-13
287.5,2.68e-12
288.0,1.301e-11
288.5,5.373e-11
289.0,1.873e-10
289.5,7.272e-10
290.0,2.442e-09
290.5,5.81e-09
291.0,1.476e-08
291.5,5.134e-08
292.0,1.362e-07
292.5,2.102e-07
293.0,5.034e-07
293.5,1.402e-06
294.0,2.425e-06
294.5,4.373e-06
295.0,7.93e-06
295.5,1.99e-05
296.0,3.67e-05
296.5,4.893e-05
297.0,6.36e-05
297.5,0.0001596
298.0,0.0002371
298.5,0.0002277
299.0,0.0004791
299.5,0.0007257
300.0,0.0007598
300.5,0.001043
301.0,0.00172
301.5,0.002515
302.0,0.002066
302.5,0.003918
303.0,0.006752
303.5,0.008277
304.0,0.007609
304.5,0.0106
305.0,0.01455
305.5,0.01569
306.0,0.01489
306.5,0.01788
307.0,0.02429
307.5,0.0297
308.0,0.03111
308.5,0.03538
309.0,0.03148
309.5,0.03496
310.0,0.03468
310.5,0.05599
311.0,0.06952
311.5,0.06701
312.0,0.06476
312.5,0.07708
313.0,0.08284
313.5,0.08207
314.0,0.09962
314.5,0.08457
315.0,0.1108
315.5,0.09548
316.0,0.08047
316.5,0.112
317.0,0.1399
317.5,0.1479
318.0,0.1131
318.5,0.1342
319.0,0.1559
319.5,0.1332
320.0,0.1627
320.5,0.1943
321.0,0.1657
321.5,0.1588
322.0,0.1792
322.5,0.1562
323.0,0.1512
323.5,0.176
324.0,0.2052
324.5,0.2126
325.0,0.1927
325.5,0.2421
326.0,0.2872
326.5,0.283
327.0,0.2856
327.5,0.2798
328.0,0.2571
328.5,0.2628
329.0,0.3078
329.5,0.3481
330.0,0.3551
330.5,0.2913
331.0,0.3002
331.5,0.3018
332.0,0.3203
332.5,0.315
333.0,0.3173
333.5,0.2932
334.0,0.3024
334.5,0.3439
335.0,0.321
335.5,0.3653
336.0,0.2537
336.5,0.3092
337.0,0.2566
337.5,0.3214
338.0,0.3103
338.5,0.351
339.0,0.3506
339.5,0.3372
340.0,0.4067
340.5,0.3675
341.0,0.3532
341.5,0.3284
342.0,0.3946
342.5,0.3712
343.0,0.408
343.5,0.3842
344.0,0.2888
344.5,0.2865
345.0,0.3846
345.5,0.3953
346.0,0.3378
346.5,0.3842
347.0,0.4125
347.5,0.3342
348.0,0.3839
348.5,0.3857
349.0,0.3592
349.5,0.3566
350.0,0.4426
350.5,0.4683
351.0,0.4191
351.5,0.4066
352.0,0.4395
352.5,0.3447
353.0,0.436
353.5,0.4679
354.0,0.4875
354.5,0.496
355.0,0.4956
355.5,0.4491
356.0,0.4714
356.5,0.4037
357.0,0.3346
357.5,0.4109
358.0,0.3267
358.5,0.28
359.0,0.3927
359.5,0.5016
360.0,0.5334
360.5,0.4277
361.0,0.391
361.5,0.4512
362.0,0.3911
362.5,0.5426
363.0,0.4885
363.5,0.451
364.0,0.5529
364.5,0.4738
365.0,0.4838
365.5,0.6088
366.0,0.6465
366.5,0.6089
367.0,0.5945
367.5,0.6185
368.0,0.5425
368.5,0.5487
369.0,0.594
369.5,0.6347
370.0,0.6782
370.5,0.5276
371.0,0.565
371.5,0.7086
372.0,0.4714
372.5,0.5665
373.0,0.5775
373.5,0.3766
374.0,0.5484
374.5,0.4552
375.0,0.4435
375.5,0.6636
376.0,0.5514
376.5,0.5727
377.0,0.6076
377.5,0.7124
378.0,0.7739
378.5,0.7333
379.0,0.6066
379.5,0.5555
380.0,0.5789
380.5,0.7026
381.0,0.7055
381.5,0.5604
382.0,0.4986
382.5,0.4259
383.0,0.3951
383.5,0.3813
384.0,0.4214
384.5,0.621
385.0,0.6171
385.5,0.5757
386.0,0.4941
386.5,0.6502
387.0,0.5414
387.5,0.6093
388.0,0.5636
388.5,0.5582
389.0,0.6037
389.5,0.7326
390.0,0.7366
390.5,0.6791
391.0,0.8009
391.5,0.8184
392.0,0.6906
392.5,0.6194
393.0,0.3452
393.5,0.2514
394.0,0.5124
394.5,0.6525
395.0,0.7976
395.5,0.8117
396.0,0.7049
396.5,0.4127
397.0,0.3103
397.5,0.6321
398.0,0.8868
398.5,0.9181
399.0,0.9955
399.5,0.9938
400.0,1.034
401.0,1.065
402.0,1.127
403.0,1.073
404.0,1.06
405.0,1.063
406.0,1.048
407.0,1.034
408.0,1.078
409.0,1.157
410.0,1.013
411.0,1.1
412.0,1.184
413.0,1.158
414.0,1.175
415.0,1.181
416.0,1.204
417.0,1.178
418.0,1.159
419.0,1.177
420.0,1.175
421.0,1.232
422.0,1.174
423.0,1.149
424.0,1.218
425.0,1.219
426.0,1.189
427.0,1.169
428.0,1.142
429.0,1.083
430.0,0.9497
431.0,0.9437
432.0,1.221
433.0,1.23
434.0,1.144
435.0,1.198
436.0,1.351
437.0,1.335
438.0,1.218
439.0,1.263
440.0,1.305
441.0,1.354
442.0,1.455
443.0,1.42
444.0,1.453
445.0,1.425
446.0,1.361
447.0,1.474
448.0,1.5
449.0,1.508
450.0,1.552
451.0,1.612
452.0,1.556
453.0,1.465
454.0,1.532
455.0,1.544
456.0,1.583
457.0,1.612
458.0,1.56
459.0,1.554
460.0,1.561
461.0,1.599
462.0,1.613
463.0,1.604
464.0,1.579
465.0,1.56
466.0,1.577
467.0,1.551
468.0,1.571
469.0,1.582
470.0,1.534
471.0,1.534
472.0,1.618
473.0,1.6
474.0,1.605
475.0,1.622
476.0,1.576
477.0,1.584
478.0,1.629
479.0,1.621
480.0,1.625
481.0,1.657
482.0,1.667
483.0,1.648
484.0,1.615
485.0,1.54
486.0,1.347
487.0,1.413
488.0,1.552
489.0,1.559
490.0,1.642
491.0,1.615
492.0,1.526
493.0,1.578
494.0,1.596
495.0,1.611
496.0,1.622
497.0,1.649
498.0,1.574
499.0,1.596
500.0,1.552
501.0,1.525
502.0,1.507
503.0,1.571
504.0,1.537
505.0,1.59
506.0,1.643
507.0,1.565
508.0,1.516
509.0,1.559
510.0,1.552
511.0,1.594
512.0,1.612
513.0,1.527
514.0,1.518
515.0,1.504
516.0,1.501
517.0,1.335
518.0,1.405
519.0,1.475
520.0,1.53
521.0,1.546
522.0,1.549
523.0,1.522
524.0,1.579
525.0,1.599
526.0,1.529
527.0,1.443
528.0,1.528
529.0,1.612
530.0,1.591
531.0,1.616
532.0,1.561
533.0,1.517
534.0,1.562
535.0,1.597
536.0,1.612
537.0,1.55
538.0,1.578
539.0,1.566
540.0,1.502
541.0,1.514
542.0,1.563
543.0,1.547
544.0,1.576
545.0,1.571
546.0,1.58
547.0,1.58
548.0,1.562
549.0,1.567
550.0,1.586
551.0,1.568
552.0,1.58
553.0,1.553
554.0,1.591
555.0,1.595
556.0,1.576
557.0,1.528
558.0,1.518
559.0,1.491
560.0,1.511
561.0,1.532
562.0,1.523
563.0,1.566
564.0,1.525
565.0,1.513
566.0,1.492
567.0,1.522
568.0,1.511
569.0,1.48
570.0,1.48
571.0,1.47
572.0,1.509
573.0,1.526
574.0,1.523
575.0,1.496
576.0,1.483
577.0,1.499
578.0,1.476
579.0,1.481
580.0,1.507
581.0,1.514
582.0,1.541
583.0,1.544
584.0,1.557
585.0,1.519
586.0,1.489
587.0,1.523
588.0,1.492
589.0,1.332
590.0,1.393
591.0,1.468
592.0,1.454
593.0,1.472
594.0,1.464
595.0,1.432
596.0,1.481
597.0,1.467
598.0,1.462
599.0,1.463
600.0,1.464
601.0,1.451
602.0,1.441
603.0,1.465
604.0,1.489
605.0,1.482
606.0,1.475
607.0,1.49
608.0,1.473
609.0,1.476
610.0,1.465
611.0,1.472
612.0,1.468
613.0,1.45
614.0,1.43
615.0,1.461
616.0,1.413
617.0,1.41
618.0,1.464
619.0,1.45
620.0,1.459
621.0,1.462
622.0,1.446
623.0,1.425
624.0,1.401
625.0,1.398
626.0,1.419
627.0,1.437
628.0,1.363
629.0,1.411
630.0,1.379
631.0,1.404
632.0,1.387
633.0,1.426
634.0,1.411
635.0,1.432
636.0,1.412
637.0,1.435
638.0,1.448
639.0,1.431
640.0,1.417
641.0,1.415
642.0,1.409
643.0,1.428
644.0,1.423
645.0,1.426
646.0,1.396
647.0,1.385
648.0,1.387
649.0,1.361
650.0,1.361
651.0,1.419
652.0,1.368
653.0,1.4
654.0,1.385
655.0,1.337
656.0,1.183
657.0,1.215
658.0,1.359
659.0,1.368
660.0,1.374
661.0,1.384
662.0,1.388
663.0,1.361
664.0,1.375
665.0,1.375
666.0,1.376
667.0,1.374
668.0,1.374
669.0,1.395
670.0,1.389
671.0,1.389
672.0,1.377
673.0,1.398
674.0,1.393
675.0,1.38
676.0,1.389
677.0,1.376
678.0,1.38
679.0,1.357
680.0,1.368
681.0,1.359
682.0,1.358
683.0,1.356
684.0,1.349
685.0,1.361
686.0,1.353
687.0,0.9873
688.0,1.114
689.0,1.117
690.0,1.158
691.0,1.203
692.0,1.234
693.0,1.226
694.0,1.216
695.0,1.256
696.0,1.258
697.0,1.322
698.0,1.302
699.0,1.28
700.0,1.265
701.0,1.255
702.0,1.26
703.0,1.263
704.0,1.298
705.0,1.3
706.0,1.297
707.0,1.298
708.0,1.301
709.0,1.3
710.0,1.302
711.0,1.299
712.0,1.294
713.0,1.282
714.0,1.287
715.0,1.25
716.0,1.252
717.0,1.119
718.0,1.034
719.0,0.9509
720.0,0.9982
721.0,1.082
722.0,1.215
723.0,1.143
724.0,1.043
725.0,1.031
726.0,1.077
727.0,1.085
728.0,1.031
729.0,1.058
730.0,1.119
731.0,1.074
732.0,1.137
733.0,1.192
734.0,1.217
735.0,1.194
736.0,1.192
737.0,1.197
738.0,1.208
739.0,1.185
740.0,1.213
741.0,1.2
742.0,1.2
743.0,1.23
744.0,1.226
745.0,1.226
746.0,1.232
747.0,1.234
748.0,1.232
749.0,1.218
750.0,1.217
751.0,1.205
752.0,1.21
753.0,1.217
754.0,1.22
755.0,1.213
756.0,1.212
757.0,1.214
758.0,1.2
759.0,1.18
760.0,0.2897
761.0,0.1743
762.0,0.6951
763.0,0.4044
764.0,0.5568
765.0,0.6958
766.0,0.8102
767.0,0.9796
768.0,1.097
769.0,1.113
770.0,1.143
771.0,1.149
772.0,1.15
773.0,1.158
774.0,1.152
775.0,1.143
776.0,1.157
777.0,1.142
778.0,1.135
779.0,1.137
780.0,1.13
781.0,1.132
782.0,1.139
783.0,1.119
784.0,1.124
785.0,1.116
786.0,1.129
787.0,1.113
788.0,1.101
789.0,1.101
790.0,1.077
791.0,1.081
792.0,1.073
793.0,1.056
794.0,1.069
795.0,1.089
796.0,1.062
797.0,1.064
798.0,1.088
799.0,1.083
800.0,1.066
801.0,1.064
802.0,1.061
803.0,1.054
804.0,1.055
805.0,1.05
806.0,1.076
807.0,1.064
808.0,1.065
809.0,1.047
810.0,1.041
811.0,1.045
812.0,1.02
813.0,1.002
814.0,0.8981
815.0,0.8922
816.0,0.8331
817.0,0.8463
818.0,0.8184
819.0,0.9005
820.0,0.8539
821.0,0.9785
822.0,0.9539
823.0,0.6805
824.0,0.9329
825.0,0.9629
826.0,0.9324
827.0,0.9777
828.0,0.8467
829.0,0.9257
830.0,0.9156
831.0,0.9182
832.0,0.8934
833.0,0.9413
834.0,0.9139
835.0,0.9916
836.0,0.9569
837.0,0.994
838.0,0.9665
839.0,0.9784
840.0,0.999
841.0,0.9864
842.0,0.9864
843.0,0.9836
844.0,0.9713
845.0,1.002
846.0,0.9977
847.0,0.9785
848.0,0.9735
849.0,0.946
850.0,0.9063
851.0,0.9607
852.0,0.9535
853.0,0.9171
854.0,0.7926
855.0,0.8698
856.0,0.9511
857.0,0.9717
858.0,0.9649
859.0,0.9654
860.0,0.9669
861.0,0.9617
862.0,0.9768
863.0,0.9999
864.0,0.9499
865.0,0.9416
866.0,0.8467
867.0,0.8836
868.0,0.9616
869.0,0.9417
870.0,0.9686
871.0,0.9555
872.0,0.9521
873.0,0.9503
874.0,0.939
875.0,0.9201
876.0,0.9298
877.0,0.9392
878.0,0.9496
879.0,0.935
880.0,0.9151
881.0,0.9019
882.0,0.9216
883.0,0.9241
884.0,0.9201
885.0,0.9271
886.0,0.8854
887.0,0.8935
888.0,0.9076
889.0,0.9165
890.0,0.9106
891.0,0.9082
892.0,0.8843
893.0,0.8597
894.0,0.8349
895.0,0.796
896.0,0.7532
897.0,0.6568
898.0,0.7111
899.0,0.5529
900.0,0.7223
901.0,0.579
902.0,0.6638
903.0,0.6754
904.0,0.8291
905.0,0.8038
906.0,0.7549
907.0,0.6277
908.0,0.6382
909.0,0.6844
910.0,0.6176
911.0,0.6509
912.0,0.6776
913.0,0.6274
914.0,0.62
915.0,0.6708
916.0,0.5718
917.0,0.7118
918.0,0.5866
919.0,0.7217
920.0,0.723
921.0,0.7504
922.0,0.6797
923.0,0.7245
924.0,0.6972
925.0,0.6823
926.0,0.6898
927.0,0.7638
928.0,0.5844
929.0,0.5399
930.0,0.4347
931.0,0.4102
932.0,0.3059
933.0,0.2544
934.0,0.1518
935.0,0.2556
936.0,0.1673
937.0,0.1706
938.0,0.2067
939.0,0.3976
940.0,0.4711
941.0,0.3654
942.0,0.4168
943.0,0.282
944.0,0.2901
945.0,0.3751
946.0,0.2015
947.0,0.3795
948.0,0.2806
949.0,0.4975
950.0,0.1549
951.0,0.4881
952.0,0.2763
953.0,0.3476
954.0,0.4162
955.0,0.3505
956.0,0.3356
957.0,0.2781
958.0,0.4611
959.0,0.3771
960.0,0.4223
961.0,0.4658
962.0,0.4419
963.0,0.5022
964.0,0.4626
965.0,0.4996
966.0,0.5014
967.0,0.5
968.0,0.6458
969.0,0.6762
970.0,0.6246
971.0,0.7042
972.0,0.6758
973.0,0.5991
974.0,0.5704
975.0,0.5878
976.0,0.5638
977.0,0.6304
978.0,0.6036
979.0,0.6287
980.0,0.5934
981.0,0.7
982.0,0.6732
983.0,0.6486
984.0,0.717
985.0,0.6706
986.0,0.7271
987.0,0.7157
988.0,0.7144
989.0,0.7234
990.0,0.71
991.0,0.7259
992.0,0.7299
993.0,0.7164
994.0,0.7294
995.0,0.7282
996.0,0.7254
997.0,0.7263
998.0,0.723
999.0,0.7203
1000.0,0.7159
1001.0,0.7241
1002.0,0.7069
1003.0,0.7116
1004.0,0.6949
1005.0,0.6685
1006.0,0.6951
1007.0,0.7096
1008.0,0.7063
1009.0,0.7031
1010.0,0.7004
1011.0,0.7061
1012.0,0.7005
1013.0,0.7043
1014.0,0.6993
1015.0,0.6948
1016.0,0.6918
1017.0,0.6937
1018.0,0.6908
1019.0,0.677
1020.0,0.6873
1021.0,0.6862
1022.0,0.6813
1023.0,0.6886
1024.0,0.6807
1025.0,0.6878
1026.0,0.6852
1027.0,0.6836
1028.0,0.6822
1029.0,0.6743
1030.0,0.6786
1031.0,0.676
1032.0,0.674
1033.0,0.6639
1034.0,0.6639
1035.0,0.666
1036.0,0.6696
1037.0,0.6587
1038.0,0.6616
1039.0,0.6613
1040.0,0.6587
1041.0,0.6614
1042.0,0.6568
1043.0,0.6548
1044.0,0.6572
1045.0,0.6484
1046.0,0.6413
1047.0,0.6472
1048.0,0.6508
1049.0,0.6485
1050.0,0.6457
1051.0,0.6449
1052.0,0.6424
1053.0,0.6374
1054.0,0.6389
1055.0,0.6395
1056.0,0.6374
1057.0,0.6356
1058.0,0.6201
1059.0,0.6209
1060.0,0.6201
1061.0,0.6195
1062.0,0.6229
1063.0,0.6169
1064.0,0.6242
1065.0,0.62
1066.0,0.6075
1067.0,0.6155
1068.0,0.6023
1069.0,0.5835
1070.0,0.6036
1071.0,0.6121
1072.0,0.6058
1073.0,0.5969
1074.0,0.6114
1075.0,0.5836
1076.0,0.611
1077.0,0.6017
1078.0,0.5909
1079.0,0.6009
1080.0,0.5925
1081.0,0.5749
1082.0,0.5817
1083.0,0.583
1084.0,0.5742
1085.0,0.5937
1086.0,0.5462
1087.0,0.5605
1088.0,0.5829
1089.0,0.5677
1090.0,0.5571
1091.0,0.5818
1092.0,0.5797
1093.0,0.4997
1094.0,0.5314
1095.0,0.5194
1096.0,0.4998
1097.0,0.5663
1098.0,0.4929
1099.0,0.5129
1100.0,0.4805
1101.0,0.4854
1102.0,0.4658
1103.0,0.4629
1104.0,0.4633
1105.0,0.502
1106.0,0.398
1107.0,0.4795
1108.0,0.415
1109.0,0.4141
1110.0,0.4764
1111.0,0.3347
1112.0,0.4103
1113.0,0.2732
1114.0,0.3039
1115.0,0.2524
1116.0,0.2089
1117.0,0.0852
1118.0,0.2245
1119.0,0.118
1120.0,0.1487
1121.0,0.1932
1122.0,0.0871
1123.0,0.1342
1124.0,0.1134
1125.0,0.1463
1126.0,0.05672
1127.0,0.1645
1128.0,0.1046
1129.0,0.11
1130.0,0.07519
1131.0,0.2974
1132.0,0.2361
1133.0,0.1573
1134.0,0.04512
1135.0,0.01668
1136.0,0.134
1137.0,0.2944
1138.0,0.2092
1139.0,0.2975
1140.0,0.2541
1141.0,0.1988
1142.0,0.2256
1143.0,0.3143
1144.0,0.1173
1145.0,0.1515
1146.0,0.1635
1147.0,0.06363
1148.0,0.2722
1149.0,0.2219
1150.0,0.1257
1151.0,0.2077
1152.0,0.2504
1153.0,0.2401
1154.0,0.1482
1155.0,0.3106
1156.0,0.2825
1157.0,0.3129
1158.0,0.3093
1159.0,0.3299
1160.0,0.2865
1161.0,0.3444
1162.0,0.3468
1163.0,0.4539
1164.0,0.3947
1165.0,0.3773
1166.0,0.3713
1167.0,0.4016
1168.0,0.4071
1169.0,0.4149
1170.0,0.4467
1171.0,0.4362
1172.0,0.4417
1173.0,0.4457
1174.0,0.3302
1175.0,0.4336
1176.0,0.4709
1177.0,0.4558
1178.0,0.3515
1179.0,0.4745
1180.0,0.43
1181.0,0.4431
1182.0,0.3157
1183.0,0.4349
1184.0,0.4109
1185.0,0.3993
1186.0,0.4638
1187.0,0.4447
1188.0,0.3219
1189.0,0.415
1190.0,0.4532
1191.0,0.4355
1192.0,0.459
1193.0,0.4417
1194.0,0.454
1195.0,0.433
1196.0,0.4193
1197.0,0.4522
1198.0,0.4166
1199.0,0.3626
1200.0,0.4365
1201.0,0.4238
1202.0,0.4197
1203.0,0.4163
1204.0,0.3687
1205.0,0.427
1206.0,0.467
1207.0,0.4194
1208.0,0.4104
1209.0,0.4182
1210.0,0.4337
1211.0,0.4163
1212.0,0.4149
1213.0,0.4535
1214.0,0.423
1215.0,0.4159
1216.0,0.4519
1217.0,0.4416
1218.0,0.4484
1219.0,0.4436
1220.0,0.4486
1221.0,0.4522
1222.0,0.4414
1223.0,0.438
1224.0,0.4365
1225.0,0.4494
1226.0,0.4514
1227.0,0.4206
1228.0,0.4528
1229.0,0.4515
1230.0,0.4446
1231.0,0.4546
1232.0,0.452
1233.0,0.4398
1234.0,0.4535
1235.0,0.4511
1236.0,0.454
1237.0,0.449
1238.0,0.4525
1239.0,0.4467
1240.0,0.4483
1241.0,0.447
1242.0,0.4453
1243.0,0.4416
1244.0,0.445
1245.0,0.4468
1246.0,0.4441
1247.0,0.4427
1248.0,0.4428
1249.0,0.4438
1250.0,0.4413
1251.0,0.4362
1252.0,0.4356
1253.0,0.4333
1254.0,0.4298
1255.0,0.4355
1256.0,0.4254
1257.0,0.4235
1258.0,0.4297
1259.0,0.4175
1260.0,0.4192
1261.0,0.3999
1262.0,0.3901
1263.0,0.391
1264.0,0.366
1265.0,0.3884
1266.0,0.3767
1267.0,0.3813
1268.0,0.3649
1269.0,0.2496
1270.0,0.3807
1271.0,0.3981
1272.0,0.3989
1273.0,0.3951
1274.0,0.3958
1275.0,0.4007
1276.0,0.4038
1277.0,0.4056
1278.0,0.4116
1279.0,0.4081
1280.0,0.4028
1281.0,0.3836
1282.0,0.3683
1283.0,0.397
1284.0,0.4067
1285.0,0.4092
1286.0,0.414
1287.0,0.409
1288.0,0.4085
1289.0,0.3982
1290.0,0.4047
1291.0,0.4099
1292.0,0.39
1293.0,0.4032
1294.0,0.4006
1295.0,0.3999
1296.0,0.3849
1297.0,0.3667
1298.0,0.3896
1299.0,0.4032
1300.0,0.35
1301.0,0.359
1302.0,0.3882
1303.0,0.3445
1304.0,0.302
1305.0,0.3809
1306.0,0.3814
1307.0,0.3056
1308.0,0.3437
1309.0,0.3792
1310.0,0.3002
1311.0,0.3314
1312.0,0.3237
1313.0,0.3187
1314.0,0.2882
1315.0,0.2863
1316.0,0.3275
1317.0,0.3112
1318.0,0.3348
1319.0,0.2714
1320.0,0.2609
1321.0,0.3005
1322.0,0.305
1323.0,0.2375
1324.0,0.2662
1325.0,0.3233
1326.0,0.2826
1327.0,0.2708
1328.0,0.2361
1329.0,0.1841
1330.0,0.2361
1331.0,0.1508
1332.0,0.1529
1333.0,0.2106
1334.0,0.175
1335.0,0.2365
1336.0,0.1912
1337.0,0.1716
1338.0,0.1853
1339.0,0.1834
1340.0,0.1763
1341.0,0.1769
1342.0,0.1855
1343.0,0.1359
1344.0,0.08107
1345.0,0.1158
1346.0,0.06456
1347.0,0.06683
1348.0,0.005819
1349.0,0.01914
1350.0,0.01869
1351.0,0.005899
1352.0,0.002082
1353.0,0.0001464
1354.0,0.0004143
1355.0,6.302e-06
1356.0,7.35e-05
1357.0,0.0001107
1358.0,7.277e-06
1359.0,1.458e-06
1360.0,3.929e-06
1361.0,1.201e-08
1362.0,5.192e-11
1363.0,5.951e-06
1364.0,2.596e-06
1365.0,3.085e-11
1366.0,2.293e-05
1367.0,8.881e-06
1368.0,6.861e-13
1369.0,1.004e-06
1370.0,6.01e-07
1371.0,4.42e-08
1372.0,4.909e-06
1373.0,7.133e-05
1374.0,0.0002663
1375.0,0.0004809
1376.0,0.0003689
1377.0,0.0001782
1378.0,0.001553
1379.0,7.597e-05
1380.0,0.0001239
1381.0,3.776e-06
1382.0,4.673e-06
1383.0,8.612e-08
1384.0,1.222e-06
1385.0,3.579e-06
1386.0,4.746e-06
1387.0,0.0003096
1388.0,6.433e-06
1389.0,0.0008357
1390.0,0.0007171
1391.0,0.000506
1392.0,3.619e-05
1393.0,0.0001694
1394.0,0.0001224
1395.0,1.197e-06
1396.0,1.518e-08
1397.0,7.388e-05
1398.0,0.001775
1399.0,0.001127
1400.0,8.464e-09
1401.0,2.482e-08
1402.0,0.002367
1403.0,0.003126
1404.0,0.000976
1405.0,6.899e-07
1406.0,0.002758
1407.0,0.0002351
1408.0,0.002227
1409.0,0.0008781
1410.0,0.000645
1411.0,0.002725
1412.0,0.003408
1413.0,0.02761
1414.0,0.0005002
1415.0,0.0002601
1416.0,0.04016
1417.0,0.01399
1418.0,0.01604
1419.0,0.002585
1420.0,0.009894
1421.0,0.01082
1422.0,0.05186
1423.0,0.01056
1424.0,0.01936
1425.0,0.02908
1426.0,0.03139
1427.0,0.05394
1428.0,0.005584
1429.0,0.04198
1430.0,0.06752
1431.0,0.07316
1432.0,0.00445
1433.0,0.04797
1434.0,0.02512
1435.0,0.02756
1436.0,0.04928
1437.0,0.03779
1438.0,0.01706
1439.0,0.06529
1440.0,0.04912
1441.0,0.03927
1442.0,0.04316
1443.0,0.05141
1444.0,0.07004
1445.0,0.05702
1446.0,0.02634
1447.0,0.04143
1448.0,0.1242
1449.0,0.11
1450.0,0.03065
1451.0,0.01287
1452.0,0.06833
1453.0,0.08843
1454.0,0.1443
1455.0,0.07084
1456.0,0.09636
1457.0,0.1248
1458.0,0.1429
1459.0,0.1696
1460.0,0.09063
1461.0,0.09649
1462.0,0.1379
1463.0,0.04703
1464.0,0.1599
1465.0,0.09704
1466.0,0.07158
1467.0,0.03973
1468.0,0.0832
