interpolation:linear
wavelength,value
280.0,2.67e-19
280.5,4.489e-18
281.0,1.918e-17
281.5,3.197e-16
282.0,1.739e-15
282.5,5.161e-15
283.0,1.716e-14
283.5,2.81e-14
284.0,3.699e-13
284.5,9.39e-13
285.0,1.579e-12
285.5,8.207e-12
286.0,3.286e-11
286.5,1.36e-10
287.0,3.598e-10
287.5,1.202e-09
288.0,3.633e-09
288.5,1.166e-08
289.0,3.137e-08
289.5,9.155e-08
290.0,2.434e-07
290.5,4.763e-07
291.0,9.562e-07
291.5,2.465e-06
292.0,5.124e-06
292.5,6.896e-06
293.0,1.385e-05
293.5,3.035e-05
294.0,4.463e-05
294.5,7.122e-05
295.0,0.0001107
295.5,0.0002298
296.0,0.000372
296.5,0.0004384
297.0,0.0005167
297.5,0.00113
298.0,0.001503
298.5,0.00133
299.0,0.002591
299.5,0.003471
300.0,0.003408
300.5,0.004395
301.0,0.006615
301.5,0.008984
302.0,0.00712
302.5,0.01268
303.0,0.02022
303.5,0.02371
304.0,0.02132
304.5,0.02822
305.0,0.03625
305.5,0.03754
306.0,0.03505
306.5,0.04104
307.0,0.05302
307.5,0.06196
308.0,0.06431
308.5,0.07153
309.0,0.06253
309.5,0.06629
310.0,0.06436
310.5,0.1027
311.0,0.1253
311.5,0.1197
312.0,0.1118
312.5,0.1302
313.0,0.1383
313.5,0.1379
314.0,0.1633
314.5,0.1345
315.0,0.1749
315.5,0.1524
316.0,0.1254
316.5,0.1711
317.0,0.2134
317.5,0.2262
318.0,0.1705
318.5,0.1977
319.0,0.227
319.5,0.1966
320.0,0.2404
320.5,0.2805
321.0,0.2348
321.5,0.2242
322.0,0.2571
322.5,0.2235
323.0,0.2132
323.5,0.2432
324.0,0.2822
324.5,0.2939
325.0,0.2693
325.5,0.3347
326.0,0.3914
326.5,0.3822
327.0,0.3859
327.5,0.3787
328.0,0.3514
328.5,0.3536
329.0,0.41
329.5,0.4618
330.0,0.4711
330.5,0.3883
331.0,0.4004
331.5,0.3998
332.0,0.4208
332.5,0.4121
333.0,0.4151
333.5,0.3848
334.0,0.3965
334.5,0.4478
335.0,0.4162
335.5,0.4722
336.0,0.3274
336.5,0.3994
337.0,0.3317
337.5,0.415
338.0,0.3985
338.5,0.4495
339.0,0.4481
339.5,0.4304
340.0,0.5193
340.5,0.4683
341.0,0.4488
341.5,0.4163
342.0,0.4995
342.5,0.4691
343.0,0.515
343.5,0.4846
344.0,0.3645
344.5,0.3606
345.0,0.4828
345.5,0.4954
346.0,0.4226
346.5,0.48
347.0,0.5148
347.5,0.4166
348.0,0.4776
348.5,0.4793
349.0,0.4457
349.5,0.4419
350.0,0.5477
350.5,0.5788
351.0,0.5174
351.5,0.5016
352.0,0.5413
352.5,0.424
353.0,0.5355
353.5,0.574
354.0,0.5974
354.5,0.6071
355.0,0.6061
355.5,0.5485
356.0,0.575
356.5,0.492
357.0,0.4074
357.5,0.4998
358.0,0.3969
358.5,0.3399
359.0,0.4763
359.5,0.6078
360.0,0.6457
360.5,0.5171
361.0,0.4722
361.5,0.5442
362.0,0.471
362.5,0.6525
363.0,0.5867
363.5,0.5411
364.0,0.6626
364.5,0.5672
365.0,0.5786
365.5,0.7273
366.0,0.7715
366.5,0.7258
367.0,0.7079
367.5,0.7358
368.0,0.6448
368.5,0.6515
369.0,0.7046
369.5,0.7521
370.0,0.8029
370.5,0.624
371.0,0.6676
371.5,0.8366
372.0,0.5561
372.5,0.6677
373.0,0.68
373.5,0.443
374.0,0.6445
374.5,0.5344
375.0,0.5202
375.5,0.778
376.0,0.6459
376.5,0.6704
377.0,0.7106
377.5,0.8324
378.0,0.9037
378.5,0.8556
379.0,0.7074
379.5,0.6474
380.0,0.6741
380.5,0.8174
381.0,0.82
381.5,0.6506
382.0,0.5784
382.5,0.4935
383.0,0.4574
383.5,0.4411
384.0,0.4871
384.5,0.7173
385.0,0.7121
385.5,0.6639
386.0,0.5693
386.5,0.7485
387.0,0.6228
387.5,0.7005
388.0,0.6475
388.5,0.6407
389.0,0.6925
389.5,0.8397
390.0,0.8437
390.5,0.7773
391.0,0.916
391.5,0.9355
392.0,0.7889
392.5,0.7069
393.0,0.3937
393.5,0.2865
394.0,0.5835
394.5,0.7426
395.0,0.9072
395.5,0.9227
396.0,0.8008
396.5,0.4685
397.0,0.3519
397.5,0.7165
398.0,1.005
398.5,1.04
399.0,1.126
399.5,1.124
400.0,1.168
401.0,1.202
402.0,1.27
403.0,1.208
404.0,1.192
405.0,1.194
406.0,1.176
407.0,1.159
408.0,1.207
409.0,1.293
410.0,1.132
411.0,1.227
412.0,1.32
413.0,1.289
414.0,1.307
415.0,1.312
416.0,1.336
417.0,1.306
418.0,1.283
419.0,1.302
420.0,1.298
421.0,1.36
422.0,1.295
423.0,1.266
424.0,1.342
425.0,1.341
426.0,1.307
427.0,1.284
428.0,1.253
429.0,1.187
430.0,1.04
431.0,1.033
432.0,1.334
433.0,1.343
434.0,1.249
435.0,1.307
436.0,1.473
437.0,1.454
438.0,1.325
439.0,1.373
440.0,1.418
441.0,1.47
442.0,1.579
443.0,1.54
444.0,1.575
445.0,1.543
446.0,1.473
447.0,1.593
448.0,1.621
449.0,1.627
450.0,1.674
451.0,1.738
452.0,1.676
453.0,1.578
454.0,1.648
455.0,1.66
456.0,1.701
457.0,1.731
458.0,1.675
459.0,1.667
460.0,1.674
461.0,1.714
462.0,1.728
463.0,1.718
464.0,1.689
465.0,1.668
466.0,1.685
467.0,1.656
468.0,1.678
469.0,1.688
470.0,1.636
471.0,1.635
472.0,1.725
473.0,1.705
474.0,1.71
475.0,1.728
476.0,1.68
477.0,1.688
478.0,1.735
479.0,1.725
480.0,1.728
481.0,1.761
482.0,1.769
483.0,1.748
484.0,1.712
485.0,1.632
486.0,1.427
487.0,1.496
488.0,1.642
489.0,1.65
490.0,1.736
491.0,1.706
492.0,1.612
493.0,1.666
494.0,1.684
495.0,1.699
496.0,1.711
497.0,1.739
498.0,1.659
499.0,1.682
500.0,1.635
501.0,1.607
502.0,1.588
503.0,1.657
504.0,1.623
505.0,1.676
506.0,1.732
507.0,1.649
508.0,1.596
509.0,1.641
510.0,1.632
511.0,1.675
512.0,1.693
513.0,1.604
514.0,1.593
515.0,1.578
516.0,1.575
517.0,1.4
518.0,1.473
519.0,1.546
520.0,1.604
521.0,1.62
522.0,1.623
523.0,1.595
524.0,1.654
525.0,1.677
526.0,1.603
527.0,1.513
528.0,1.602
529.0,1.69
530.0,1.668
531.0,1.694
532.0,1.637
533.0,1.589
534.0,1.637
535.0,1.672
536.0,1.688
537.0,1.622
538.0,1.651
539.0,1.638
540.0,1.571
541.0,1.585
542.0,1.636
543.0,1.618
544.0,1.648
545.0,1.644
546.0,1.653
547.0,1.652
548.0,1.632
549.0,1.637
550.0,1.657
551.0,1.638
552.0,1.65
553.0,1.621
554.0,1.661
555.0,1.666
556.0,1.645
557.0,1.595
558.0,1.585
559.0,1.557
560.0,1.578
561.0,1.6
562.0,1.591
563.0,1.636
564.0,1.593
565.0,1.581
566.0,1.56
567.0,1.591
568.0,1.582
569.0,1.552
570.0,1.551
571.0,1.54
572.0,1.583
573.0,1.601
574.0,1.598
575.0,1.57
576.0,1.556
577.0,1.573
578.0,1.548
579.0,1.551
580.0,1.576
581.0,1.581
582.0,1.608
583.0,1.61
584.0,1.623
585.0,1.583
586.0,1.551
587.0,1.587
588.0,1.559
589.0,1.4
590.0,1.463
591.0,1.537
592.0,1.525
593.0,1.54
594.0,1.533
595.0,1.502
596.0,1.547
597.0,1.534
598.0,1.526
599.0,1.526
600.0,1.525
601.0,1.51
602.0,1.5
603.0,1.524
604.0,1.549
605.0,1.54
606.0,1.533
607.0,1.547
608.0,1.529
609.0,1.531
610.0,1.519
611.0,1.527
612.0,1.522
613.0,1.503
614.0,1.481
615.0,1.513
616.0,1.462
617.0,1.459
618.0,1.515
619.0,1.5
620.0,1.51
621.0,1.513
622.0,1.497
623.0,1.475
624.0,1.45
625.0,1.446
626.0,1.469
627.0,1.488
628.0,1.429
629.0,1.467
630.0,1.435
631.0,1.455
632.0,1.436
633.0,1.474
634.0,1.456
635.0,1.477
636.0,1.456
637.0,1.478
638.0,1.49
639.0,1.472
640.0,1.456
641.0,1.455
642.0,1.447
643.0,1.467
644.0,1.461
645.0,1.464
646.0,1.435
647.0,1.429
648.0,1.432
649.0,1.405
650.0,1.399
651.0,1.457
652.0,1.412
653.0,1.438
654.0,1.421
655.0,1.376
656.0,1.214
657.0,1.247
658.0,1.393
659.0,1.402
660.0,1.407
661.0,1.417
662.0,1.423
663.0,1.394
664.0,1.407
665.0,1.405
666.0,1.405
667.0,1.403
668.0,1.402
669.0,1.424
670.0,1.417
671.0,1.416
672.0,1.404
673.0,1.425
674.0,1.419
675.0,1.406
676.0,1.415
677.0,1.401
678.0,1.405
679.0,1.382
680.0,1.393
681.0,1.384
682.0,1.382
683.0,1.38
684.0,1.373
685.0,1.385
686.0,1.377
687.0,1.086
688.0,1.188
689.0,1.19
690.0,1.22
691.0,1.254
692.0,1.276
693.0,1.269
694.0,1.26
695.0,1.292
696.0,1.295
697.0,1.347
698.0,1.327
699.0,1.312
700.0,1.297
701.0,1.289
702.0,1.292
703.0,1.294
704.0,1.326
705.0,1.328
706.0,1.323
707.0,1.323
708.0,1.326
709.0,1.322
710.0,1.325
711.0,1.322
712.0,1.315
713.0,1.304
714.0,1.309
715.0,1.274
716.0,1.277
717.0,1.171
718.0,1.09
719.0,1.007
720.0,1.058
721.0,1.127
722.0,1.244
723.0,1.182
724.0,1.092
725.0,1.084
726.0,1.128
727.0,1.131
728.0,1.084
729.0,1.101
730.0,1.162
731.0,1.121
732.0,1.174
733.0,1.219
734.0,1.242
735.0,1.22
736.0,1.218
737.0,1.224
738.0,1.228
739.0,1.205
740.0,1.231
741.0,1.217
742.0,1.215
743.0,1.246
744.0,1.241
745.0,1.24
746.0,1.245
747.0,1.248
748.0,1.245
749.0,1.231
750.0,1.231
751.0,1.218
752.0,1.223
753.0,1.23
754.0,1.232
755.0,1.226
756.0,1.225
757.0,1.227
758.0,1.212
759.0,1.196
760.0,0.4105
761.0,0.2786
762.0,0.7954
763.0,0.5289
764.0,0.6738
765.0,0.7965
766.0,0.8856
767.0,1.032
768.0,1.126
769.0,1.135
770.0,1.158
771.0,1.161
772.0,1.161
773.0,1.169
774.0,1.163
775.0,1.154
776.0,1.168
777.0,1.153
778.0,1.146
779.0,1.147
780.0,1.14
781.0,1.142
782.0,1.149
783.0,1.129
784.0,1.134
785.0,1.126
786.0,1.139
787.0,1.126
788.0,1.115
789.0,1.116
790.0,1.096
791.0,1.096
792.0,1.087
793.0,1.071
794.0,1.079
795.0,1.1
796.0,1.079
797.0,1.081
798.0,1.1
799.0,1.096
800.0,1.08
801.0,1.08
802.0,1.076
803.0,1.07
804.0,1.07
805.0,1.063
806.0,1.087
807.0,1.075
808.0,1.075
809.0,1.06
810.0,1.055
811.0,1.062
812.0,1.041
813.0,1.026
814.0,0.9366
815.0,0.9302
816.0,0.872
817.0,0.8832
818.0,0.8577
819.0,0.9287
820.0,0.8868
821.0,0.9963
822.0,0.9748
823.0,0.73
824.0,0.9595
825.0,0.982
826.0,0.9566
827.0,0.9965
828.0,0.8812
829.0,0.9486
830.0,0.9403
831.0,0.942
832.0,0.92
833.0,0.959
834.0,0.9372
835.0,1.004
836.0,0.9768
837.0,1.006
838.0,0.9814
839.0,0.9898
840.0,1.01
841.0,0.9985
842.0,0.9963
843.0,0.9913
844.0,0.9801
845.0,1.01
846.0,1.005
847.0,0.9847
848.0,0.9806
849.0,0.9529
850.0,0.9127
851.0,0.9685
852.0,0.9609
853.0,0.9233
854.0,0.7986
855.0,0.8755
856.0,0.9576
857.0,0.9777
858.0,0.9711
859.0,0.9712
860.0,0.9724
861.0,0.9673
862.0,0.9823
863.0,1.006
864.0,0.9552
865.0,0.9467
866.0,0.8513
867.0,0.8884
868.0,0.9668
869.0,0.9467
870.0,0.9736
871.0,0.9605
872.0,0.957
873.0,0.9551
874.0,0.9438
875.0,0.9248
876.0,0.9346
877.0,0.944
878.0,0.9546
879.0,0.9399
880.0,0.9198
881.0,0.907
882.0,0.927
883.0,0.9291
884.0,0.9252
885.0,0.9322
886.0,0.8919
887.0,0.8989
888.0,0.914
889.0,0.9212
890.0,0.9172
891.0,0.9138
892.0,0.8921
893.0,0.8706
894.0,0.8513
895.0,0.8192
896.0,0.7801
897.0,0.6921
898.0,0.7419
899.0,0.5927
900.0,0.747
901.0,0.6189
902.0,0.6906
903.0,0.7084
904.0,0.8454
905.0,0.8233
906.0,0.7764
907.0,0.6628
908.0,0.672
909.0,0.7116
910.0,0.6572
911.0,0.6846
912.0,0.7082
913.0,0.6683
914.0,0.6581
915.0,0.7085
916.0,0.611
917.0,0.7416
918.0,0.6266
919.0,0.749
920.0,0.7442
921.0,0.7691
922.0,0.7076
923.0,0.7423
924.0,0.7253
925.0,0.7108
926.0,0.7178
927.0,0.7845
928.0,0.6305
929.0,0.5906
930.0,0.49
931.0,0.4594
932.0,0.3566
933.0,0.3055
934.0,0.2007
935.0,0.2997
936.0,0.2076
937.0,0.2141
938.0,0.2545
939.0,0.4453
940.0,0.5179
941.0,0.4156
942.0,0.4643
943.0,0.3255
944.0,0.3263
945.0,0.4247
946.0,0.2437
947.0,0.433
948.0,0.324
949.0,0.5515
950.0,0.1994
951.0,0.5387
952.0,0.3269
953.0,0.3978
954.0,0.4613
955.0,0.3991
956.0,0.379
957.0,0.3313
958.0,0.4969
959.0,0.422
960.0,0.4713
961.0,0.5087
962.0,0.4848
963.0,0.5406
964.0,0.5019
965.0,0.536
966.0,0.5409
967.0,0.5399
968.0,0.6654
969.0,0.6975
970.0,0.6499
971.0,0.7185
972.0,0.6922
973.0,0.628
974.0,0.6006
975.0,0.613
976.0,0.5951
977.0,0.6516
978.0,0.6297
979.0,0.6508
980.0,0.6181
981.0,0.7133
982.0,0.6909
983.0,0.6689
984.0,0.7253
985.0,0.688
986.0,0.7324
987.0,0.7238
988.0,0.7227
989.0,0.7268
990.0,0.7176
991.0,0.7297
992.0,0.7333
993.0,0.7228
994.0,0.7325
995.0,0.7307
996.0,0.7284
997.0,0.7291
998.0,0.726
999.0,0.7231
1000.0,0.7195
1001.0,0.7269
1002.0,0.7127
1003.0,0.7144
1004.0,0.6985
1005.0,0.6708
1006.0,0.6982
1007.0,0.7124
1008.0,0.7096
1009.0,0.707
1010.0,0.7047
1011.0,0.7087
1012.0,0.7037
1013.0,0.7067
1014.0,0.7018
1015.0,0.6973
1016.0,0.6943
1017.0,0.6963
1018.0,0.693
1019.0,0.6805
1020.0,0.6898
1021.0,0.6884
1022.0,0.6839
1023.0,0.6914
1024.0,0.6847
1025.0,0.6901
1026.0,0.6878
1027.0,0.6861
1028.0,0.6849
1029.0,0.677
1030.0,0.6808
1031.0,0.6785
1032.0,0.6763
1033.0,0.6661
1034.0,0.6661
1035.0,0.6682
1036.0,0.6719
1037.0,0.6609
1038.0,0.6639
1039.0,0.6637
1040.0,0.6611
1041.0,0.664
1042.0,0.6594
1043.0,0.6574
1044.0,0.6598
1045.0,0.651
1046.0,0.644
1047.0,0.65
1048.0,0.6537
1049.0,0.6515
1050.0,0.6488
1051.0,0.6481
1052.0,0.6457
1053.0,0.6408
1054.0,0.6425
1055.0,0.6432
1056.0,0.6413
1057.0,0.6396
1058.0,0.6242
1059.0,0.6253
1060.0,0.6245
1061.0,0.624
1062.0,0.6276
1063.0,0.6217
1064.0,0.629
1065.0,0.6253
1066.0,0.6123
1067.0,0.6205
1068.0,0.6075
1069.0,0.5883
1070.0,0.6089
1071.0,0.6164
1072.0,0.6109
1073.0,0.6017
1074.0,0.615
1075.0,0.5905
1076.0,0.6149
1077.0,0.6075
1078.0,0.5973
1079.0,0.6041
1080.0,0.5984
1081.0,0.582
1082.0,0.5861
1083.0,0.5866
1084.0,0.5826
1085.0,0.599
1086.0,0.5574
1087.0,0.5671
1088.0,0.5872
1089.0,0.5751
1090.0,0.5671
1091.0,0.5871
1092.0,0.5842
1093.0,0.5145
1094.0,0.5368
1095.0,0.5326
1096.0,0.516
1097.0,0.5704
1098.0,0.5097
1099.0,0.5285
1100.0,0.5007
1101.0,0.5041
1102.0,0.4867
1103.0,0.4859
1104.0,0.486
1105.0,0.5185
1106.0,0.4305
1107.0,0.4991
1108.0,0.4438
1109.0,0.4407
1110.0,0.4969
1111.0,0.366
1112.0,0.4357
1113.0,0.3085
1114.0,0.3401
1115.0,0.283
1116.0,0.2461
1117.0,0.1151
1118.0,0.2592
1119.0,0.1474
1120.0,0.185
1121.0,0.233
1122.0,0.1147
1123.0,0.1668
1124.0,0.141
1125.0,0.1795
1126.0,0.07949
1127.0,0.2009
1128.0,0.1382
1129.0,0.1433
1130.0,0.104
1131.0,0.3399
1132.0,0.2746
1133.0,0.1953
1134.0,0.06556
1135.0,0.02413
1136.0,0.1706
1137.0,0.3389
1138.0,0.2448
1139.0,0.3271
1140.0,0.2879
1141.0,0.2327
1142.0,0.2591
1143.0,0.352
1144.0,0.1441
1145.0,0.1875
1146.0,0.2024
1147.0,0.08963
1148.0,0.305
1149.0,0.2559
1150.0,0.155
1151.0,0.2433
1152.0,0.2852
1153.0,0.2677
1154.0,0.1869
1155.0,0.3418
1156.0,0.3149
1157.0,0.3439
1158.0,0.3394
1159.0,0.3562
1160.0,0.3173
1161.0,0.3691
1162.0,0.3724
1163.0,0.4681
1164.0,0.4146
1165.0,0.4023
1166.0,0.3924
1167.0,0.4206
1168.0,0.4273
1169.0,0.4328
1170.0,0.4608
1171.0,0.4512
1172.0,0.4541
1173.0,0.4598
1174.0,0.3566
1175.0,0.4456
1176.0,0.4774
1177.0,0.4661
1178.0,0.3717
1179.0,0.4806
1180.0,0.4432
1181.0,0.4555
1182.0,0.3377
1183.0,0.4453
1184.0,0.425
1185.0,0.4164
1186.0,0.4722
1187.0,0.4562
1188.0,0.3447
1189.0,0.4268
1190.0,0.4616
1191.0,0.4488
1192.0,0.4668
1193.0,0.4514
1194.0,0.4624
1195.0,0.4447
1196.0,0.4334
1197.0,0.4582
1198.0,0.4259
1199.0,0.3799
1200.0,0.4464
1201.0,0.4363
1202.0,0.4308
1203.0,0.4268
1204.0,0.3841
1205.0,0.4356
1206.0,0.471
1207.0,0.4312
1208.0,0.4192
1209.0,0.4265
1210.0,0.4403
1211.0,0.4262
1212.0,0.4278
1213.0,0.459
1214.0,0.4344
1215.0,0.4282
1216.0,0.4573
1217.0,0.4486
1218.0,0.4539
1219.0,0.4498
1220.0,0.454
1221.0,0.4566
1222.0,0.447
1223.0,0.4441
1224.0,0.4436
1225.0,0.4538
1226.0,0.4548
1227.0,0.4281
1228.0,0.4554
1229.0,0.4548
1230.0,0.4487
1231.0,0.4562
1232.0,0.4537
1233.0,0.4446
1234.0,0.4545
1235.0,0.4526
1236.0,0.4551
1237.0,0.4513
1238.0,0.4536
1239.0,0.4478
1240.0,0.4492
1241.0,0.4487
1242.0,0.4463
1243.0,0.4426
1244.0,0.4462
1245.0,0.4478
1246.0,0.4452
1247.0,0.4439
1248.0,0.4444
1249.0,0.445
1250.0,0.4428
1251.0,0.4381
1252.0,0.437
1253.0,0.4357
1254.0,0.4331
1255.0,0.4371
1256.0,0.429
1257.0,0.4275
1258.0,0.4322
1259.0,0.423
1260.0,0.4244
1261.0,0.4088
1262.0,0.401
1263.0,0.402
1264.0,0.3814
1265.0,0.3992
1266.0,0.3903
1267.0,0.3929
1268.0,0.3794
1269.0,0.2847
1270.0,0.3931
1271.0,0.4065
1272.0,0.4068
1273.0,0.4035
1274.0,0.4036
1275.0,0.4078
1276.0,0.4102
1277.0,0.4111
1278.0,0.4155
1279.0,0.4121
1280.0,0.4067
1281.0,0.3866
1282.0,0.37
1283.0,0.399
1284.0,0.409
1285.0,0.4114
1286.0,0.4155
1287.0,0.4117
1288.0,0.4109
1289.0,0.403
1290.0,0.4069
1291.0,0.4117
1292.0,0.3964
1293.0,0.4061
1294.0,0.4038
1295.0,0.4041
1296.0,0.3922
1297.0,0.3764
1298.0,0.3948
1299.0,0.4057
1300.0,0.3616
1301.0,0.3688
1302.0,0.3931
1303.0,0.3549
1304.0,0.3201
1305.0,0.3866
1306.0,0.3875
1307.0,0.3212
1308.0,0.3529
1309.0,0.3856
1310.0,0.3158
1311.0,0.3422
1312.0,0.3357
1313.0,0.3318
1314.0,0.3035
1315.0,0.3033
1316.0,0.3395
1317.0,0.3237
1318.0,0.3445
1319.0,0.2906
1320.0,0.277
1321.0,0.3152
1322.0,0.321
1323.0,0.2598
1324.0,0.285
1325.0,0.3354
1326.0,0.2994
1327.0,0.2885
1328.0,0.2547
1329.0,0.2068
1330.0,0.2606
1331.0,0.1778
1332.0,0.1765
1333.0,0.2391
1334.0,0.1961
1335.0,0.2582
1336.0,0.2139
1337.0,0.1961
1338.0,0.2104
1339.0,0.2072
1340.0,0.1969
1341.0,0.2029
1342.0,0.2125
1343.0,0.1695
1344.0,0.1021
1345.0,0.1423
1346.0,0.09017
1347.0,0.09472
1348.0,0.01178
1349.0,0.0344
1350.0,0.03101
1351.0,0.01324
1352.0,0.006062
1353.0,0.0006365
1354.0,0.001452
1355.0,4.519e-05
1356.0,0.0003343
1357.0,0.0004925
1358.0,5.074e-05
1359.0,1.637e-05
1360.0,3.253e-05
1361.0,3.014e-07
1362.0,2.332e-09
1363.0,5.108e-05
1364.0,2.53e-05
1365.0,2.306e-09
1366.0,0.0001706
1367.0,6.709e-05
1368.0,1.518e-10
1369.0,1.04e-05
1370.0,7.557e-06
1371.0,7.642e-07
1372.0,3.792e-05
1373.0,0.0003734
1374.0,0.001091
1375.0,0.001867
1376.0,0.001283
1377.0,0.0006651
1378.0,0.004815
1379.0,0.0002935
1380.0,0.0005321
1381.0,2.047e-05
1382.0,3.796e-05
1383.0,9.459e-07
1384.0,1.345e-05
1385.0,2.398e-05
1386.0,4.342e-05
1387.0,0.001364
1388.0,3.402e-05
1389.0,0.002956
1390.0,0.002483
1391.0,0.001913
1392.0,0.0001616
1393.0,0.0006436
1394.0,0.0006391
1395.0,9.376e-06
1396.0,3.342e-07
1397.0,0.000313
1398.0,0.005504
1399.0,0.003567
1400.0,2.4e-07
1401.0,4.92e-07
1402.0,0.005699
1403.0,0.00782
1404.0,0.002517
1405.0,6.439e-06
1406.0,0.007496
1407.0,0.000672
1408.0,0.006034
1409.0,0.002806
1410.0,0.001984
1411.0,0.006785
1412.0,0.007833
1413.0,0.04644
1414.0,0.001523
1415.0,0.0008716
1416.0,0.05959
1417.0,0.02535
1418.0,0.02829
1419.0,0.00487
1420.0,0.01773
1421.0,0.02037
1422.0,0.07499
1423.0,0.01688
1424.0,0.02977
1425.0,0.04536
1426.0,0.04608
1427.0,0.07148
1428.0,0.01151
1429.0,0.05877
1430.0,0.08739
1431.0,0.09276
1432.0,0.00935
1433.0,0.06399
1434.0,0.03516
1435.0,0.04361
1436.0,0.06983
1437.0,0.05411
1438.0,0.02699
1439.0,0.08853
1440.0,0.06766
1441.0,0.05785
1442.0,0.06188
1443.0,0.06832
1444.0,0.09169
1445.0,0.07865
1446.0,0.03763
1447.0,0.0599
1448.0,0.1478
1449.0,0.1358
1450.0,0.04445
1451.0,0.0202
1452.0,0.0885
1453.0,0.1114
1454.0,0.1675
1455.0,0.08812
1456.0,0.1222
1457.0,0.149
1458.0,0.1622
1459.0,0.1937
1460.0,0.1088
1461.0,0.1189
1462.0,0.1628
1463.0,0.0617
1464.0,0.1819
1465.0,0.1119
1466.0,0.09242
1467.0,0.05645
1468.0,0.1048
1469.0,0.1242
1470.0,0.07348
1471.0,0.02988
1472.0,0.0708
