interpolation:linear
wavelength,value
280.0,3.5280000000000006e-26
280.5,1.623e-24
281.0,1.0019999999999999e-23
281.5,4.423e-22
282.0,4.349e-21
282.5,1.9230000000000003e-20
283.0,9.919000000000001e-20
283.5,2.021e-19
284.0,7.349e-18
284.5,2.965e-17
285.0,8.226e-17
285.5,7.712e-16
286.0,3.92e-15
286.5,2.651e-14
287.0,1.007e-13
287.5,5.405e-13
288.0,2.971e-12
288.5,1.311e-11
289.0,4.89e-11
289.5,2.046e-10
290.0,7.305e-10
290.5,1.829e-09
291.0,4.943e-09
291.5,1.86e-08
292.0,5.258e-08
292.5,8.414e-08
293.0,2.11e-07
293.5,6.259e-07
294.0,1.13e-06
294.5,2.103e-06
295.0,3.971e-06
295.5,1.048e-05
296.0,1.999e-05
296.5,2.753e-05
297.0,3.671e-05
297.5,9.547e-05
298.0,0.000146
298.5,0.0001433
299.0,0.0003077
299.5,0.0004813
300.0,0.0005125
300.5,0.0007156
301.0,0.001208
301.5,0.001801
302.0,0.001493
302.5,0.002879
303.0,0.005064
303.5,0.00628
304.0,0.005806
304.5,0.008199
305.0,0.01145
305.5,0.01248
306.0,0.0119
306.5,0.01438
307.0,0.01979
307.5,0.02449
308.0,0.02571
308.5,0.02941
309.0,0.02629
309.5,0.02955
310.0,0.02949
310.5,0.04775
311.0,0.05956
311.5,0.05754
312.0,0.05611
312.5,0.06717
313.0,0.07241
313.5,0.07162
314.0,0.08749
314.5,0.07486
315.0,0.09824
315.5,0.08444
316.0,0.07162
316.5,0.1002
317.0,0.1252
317.5,0.1323
318.0,0.1015
318.5,0.1212
319.0,0.1413
319.5,0.1202
320.0,0.1469
320.5,0.1764
321.0,0.1512
321.5,0.1451
322.0,0.163
322.5,0.1422
323.0,0.1381
323.5,0.1617
324.0,0.1887
324.5,0.1953
325.0,0.1765
325.5,0.2224
326.0,0.2648
326.5,0.2616
327.0,0.2639
327.5,0.2584
328.0,0.2369
328.5,0.243
329.0,0.2854
329.5,0.3232
330.0,0.3296
330.5,0.2701
331.0,0.2783
331.5,0.2803
332.0,0.2981
332.5,0.2935
333.0,0.2957
333.5,0.273
334.0,0.2816
334.5,0.3209
335.0,0.2998
335.5,0.3414
336.0,0.2372
336.5,0.289
337.0,0.2399
337.5,0.3005
338.0,0.2905
338.5,0.3289
339.0,0.3287
339.5,0.3163
340.0,0.3814
340.5,0.3448
341.0,0.3317
341.5,0.3085
342.0,0.3709
342.5,0.3491
343.0,0.3837
343.5,0.3615
344.0,0.2716
344.5,0.2697
345.0,0.3623
345.5,0.3726
346.0,0.3185
346.5,0.3624
347.0,0.3892
347.5,0.3154
348.0,0.3624
348.5,0.3643
349.0,0.3394
349.5,0.3371
350.0,0.4185
350.5,0.443
351.0,0.3965
351.5,0.3848
352.0,0.4161
352.5,0.3265
353.0,0.413
353.5,0.4435
354.0,0.4621
354.5,0.4703
355.0,0.4701
355.5,0.4261
356.0,0.4474
356.5,0.3833
357.0,0.3177
357.5,0.3903
358.0,0.3104
358.5,0.2661
359.0,0.3733
359.5,0.4769
360.0,0.5073
360.5,0.4068
361.0,0.372
361.5,0.4296
362.0,0.3725
362.5,0.5169
363.0,0.4655
363.5,0.43
364.0,0.5273
364.5,0.452
365.0,0.4616
365.5,0.581
366.0,0.6172
366.5,0.5815
367.0,0.5678
367.5,0.5909
368.0,0.5185
368.5,0.5245
369.0,0.5679
369.5,0.607
370.0,0.6487
370.5,0.5048
371.0,0.5408
371.5,0.6783
372.0,0.4514
372.5,0.5426
373.0,0.5533
373.5,0.3609
374.0,0.5256
374.5,0.4364
375.0,0.4252
375.5,0.6365
376.0,0.5289
376.5,0.5495
377.0,0.5831
377.5,0.6838
378.0,0.743
378.5,0.7041
379.0,0.5826
379.5,0.5336
380.0,0.5562
380.5,0.6752
381.0,0.6782
381.5,0.5388
382.0,0.4796
382.5,0.4097
383.0,0.3802
383.5,0.367
384.0,0.4057
384.5,0.598
385.0,0.5942
385.5,0.5546
386.0,0.476
386.5,0.6266
387.0,0.5218
387.5,0.5874
388.0,0.5435
388.5,0.5383
389.0,0.5823
389.5,0.7067
390.0,0.7107
390.5,0.6554
391.0,0.7731
391.5,0.7902
392.0,0.6669
392.5,0.5982
393.0,0.3335
393.5,0.2429
394.0,0.4951
394.5,0.6307
395.0,0.771
395.5,0.7848
396.0,0.6817
396.5,0.3992
397.0,0.3002
397.5,0.6116
398.0,0.8581
398.5,0.8886
399.0,0.9637
399.5,0.9622
400.0,1.001
401.0,1.031
402.0,1.092
403.0,1.04
404.0,1.028
405.0,1.031
406.0,1.017
407.0,1.004
408.0,1.046
409.0,1.123
410.0,0.9841
411.0,1.069
412.0,1.151
413.0,1.126
414.0,1.143
415.0,1.149
416.0,1.172
417.0,1.146
418.0,1.128
419.0,1.146
420.0,1.144
421.0,1.2
422.0,1.144
423.0,1.12
424.0,1.188
425.0,1.188
426.0,1.16
427.0,1.141
428.0,1.114
429.0,1.057
430.0,0.9273
431.0,0.9215
432.0,1.192
433.0,1.202
434.0,1.118
435.0,1.171
436.0,1.321
437.0,1.306
438.0,1.191
439.0,1.235
440.0,1.277
441.0,1.325
442.0,1.424
443.0,1.391
444.0,1.423
445.0,1.395
446.0,1.333
447.0,1.444
448.0,1.47
449.0,1.478
450.0,1.521
451.0,1.581
452.0,1.526
453.0,1.437
454.0,1.502
455.0,1.515
456.0,1.553
457.0,1.582
458.0,1.531
459.0,1.525
460.0,1.532
461.0,1.57
462.0,1.584
463.0,1.576
464.0,1.551
465.0,1.533
466.0,1.55
467.0,1.524
468.0,1.545
469.0,1.555
470.0,1.508
471.0,1.508
472.0,1.591
473.0,1.573
474.0,1.578
475.0,1.595
476.0,1.55
477.0,1.557
478.0,1.603
479.0,1.595
480.0,1.599
481.0,1.631
482.0,1.641
483.0,1.622
484.0,1.591
485.0,1.517
486.0,1.327
487.0,1.392
488.0,1.529
489.0,1.537
490.0,1.618
491.0,1.592
492.0,1.505
493.0,1.556
494.0,1.573
495.0,1.588
496.0,1.6
497.0,1.626
498.0,1.552
499.0,1.574
500.0,1.53
501.0,1.505
502.0,1.486
503.0,1.55
504.0,1.515
505.0,1.568
506.0,1.621
507.0,1.543
508.0,1.496
509.0,1.539
510.0,1.531
511.0,1.573
512.0,1.591
513.0,1.508
514.0,1.498
515.0,1.485
516.0,1.483
517.0,1.318
518.0,1.387
519.0,1.456
520.0,1.511
521.0,1.527
522.0,1.53
523.0,1.504
524.0,1.559
525.0,1.58
526.0,1.511
527.0,1.425
528.0,1.509
529.0,1.592
530.0,1.571
531.0,1.596
532.0,1.542
533.0,1.498
534.0,1.543
535.0,1.578
536.0,1.593
537.0,1.531
538.0,1.559
539.0,1.547
540.0,1.485
541.0,1.496
542.0,1.545
543.0,1.529
544.0,1.557
545.0,1.553
546.0,1.562
547.0,1.561
548.0,1.543
549.0,1.549
550.0,1.568
551.0,1.55
552.0,1.562
553.0,1.535
554.0,1.573
555.0,1.577
556.0,1.558
557.0,1.511
558.0,1.501
559.0,1.474
560.0,1.494
561.0,1.515
562.0,1.505
563.0,1.548
564.0,1.507
565.0,1.495
566.0,1.475
567.0,1.504
568.0,1.493
569.0,1.461
570.0,1.461
571.0,1.453
572.0,1.49
573.0,1.507
574.0,1.504
575.0,1.477
576.0,1.464
577.0,1.481
578.0,1.458
579.0,1.463
580.0,1.49
581.0,1.497
582.0,1.524
583.0,1.527
584.0,1.541
585.0,1.503
586.0,1.473
587.0,1.507
588.0,1.475
589.0,1.315
590.0,1.375
591.0,1.451
592.0,1.436
593.0,1.454
594.0,1.446
595.0,1.414
596.0,1.464
597.0,1.45
598.0,1.446
599.0,1.447
600.0,1.448
601.0,1.436
602.0,1.426
603.0,1.45
604.0,1.474
605.0,1.467
606.0,1.461
607.0,1.475
608.0,1.459
609.0,1.461
610.0,1.451
611.0,1.459
612.0,1.454
613.0,1.436
614.0,1.417
615.0,1.448
616.0,1.4
617.0,1.397
618.0,1.451
619.0,1.437
620.0,1.447
621.0,1.449
622.0,1.433
623.0,1.412
624.0,1.388
625.0,1.385
626.0,1.406
627.0,1.424
628.0,1.346
629.0,1.396
630.0,1.365
631.0,1.391
632.0,1.374
633.0,1.414
634.0,1.399
635.0,1.42
636.0,1.401
637.0,1.424
638.0,1.437
639.0,1.42
640.0,1.406
641.0,1.405
642.0,1.399
643.0,1.418
644.0,1.413
645.0,1.416
646.0,1.385
647.0,1.373
648.0,1.376
649.0,1.35
650.0,1.351
651.0,1.409
652.0,1.357
653.0,1.391
654.0,1.375
655.0,1.327
656.0,1.175
657.0,1.206
658.0,1.35
659.0,1.36
660.0,1.365
661.0,1.375
662.0,1.379
663.0,1.352
664.0,1.367
665.0,1.367
666.0,1.368
667.0,1.367
668.0,1.367
669.0,1.388
670.0,1.382
671.0,1.382
672.0,1.37
673.0,1.391
674.0,1.386
675.0,1.373
676.0,1.383
677.0,1.369
678.0,1.373
679.0,1.351
680.0,1.362
681.0,1.353
682.0,1.352
683.0,1.349
684.0,1.343
685.0,1.355
686.0,1.347
687.0,0.9627
688.0,1.096
689.0,1.099
690.0,1.142
691.0,1.19
692.0,1.223
693.0,1.215
694.0,1.205
695.0,1.247
696.0,1.249
697.0,1.315
698.0,1.295
699.0,1.271
700.0,1.256
701.0,1.246
702.0,1.252
703.0,1.255
704.0,1.291
705.0,1.293
706.0,1.291
707.0,1.291
708.0,1.294
709.0,1.294
710.0,1.295
711.0,1.293
712.0,1.288
713.0,1.276
714.0,1.281
715.0,1.244
716.0,1.245
717.0,1.105
718.0,1.02
719.0,0.9375
720.0,0.9838
721.0,1.07
722.0,1.208
723.0,1.133
724.0,1.032
725.0,1.019
726.0,1.064
727.0,1.074
728.0,1.018
729.0,1.047
730.0,1.108
731.0,1.063
732.0,1.127
733.0,1.184
734.0,1.21
735.0,1.187
736.0,1.185
737.0,1.19
738.0,1.203
739.0,1.18
740.0,1.209
741.0,1.196
742.0,1.196
743.0,1.226
744.0,1.222
745.0,1.222
746.0,1.228
747.0,1.231
748.0,1.228
749.0,1.214
750.0,1.214
751.0,1.202
752.0,1.207
753.0,1.213
754.0,1.216
755.0,1.209
756.0,1.209
757.0,1.211
758.0,1.196
759.0,1.176
760.0,0.2643
761.0,0.1541
762.0,0.6709
763.0,0.3768
764.0,0.5295
765.0,0.6715
766.0,0.7914
767.0,0.9663
768.0,1.09
769.0,1.107
770.0,1.139
771.0,1.145
772.0,1.147
773.0,1.155
774.0,1.149
775.0,1.141
776.0,1.155
777.0,1.139
778.0,1.133
779.0,1.134
780.0,1.128
781.0,1.129
782.0,1.136
783.0,1.116
784.0,1.122
785.0,1.114
786.0,1.126
787.0,1.109
788.0,1.097
789.0,1.097
790.0,1.072
791.0,1.078
792.0,1.069
793.0,1.053
794.0,1.067
795.0,1.086
796.0,1.058
797.0,1.059
798.0,1.085
799.0,1.08
800.0,1.062
801.0,1.06
802.0,1.057
803.0,1.05
804.0,1.051
805.0,1.046
806.0,1.073
807.0,1.061
808.0,1.062
809.0,1.044
810.0,1.037
811.0,1.041
812.0,1.015
813.0,0.996
814.0,0.8888
815.0,0.883
816.0,0.8238
817.0,0.8374
818.0,0.809
819.0,0.8936
820.0,0.8459
821.0,0.974
822.0,0.9487
823.0,0.6691
824.0,0.9264
825.0,0.9582
826.0,0.9264
827.0,0.973
828.0,0.8384
829.0,0.9201
830.0,0.9096
831.0,0.9124
832.0,0.8869
833.0,0.9367
834.0,0.9081
835.0,0.9882
836.0,0.9519
837.0,0.9908
838.0,0.9626
839.0,0.9755
840.0,0.9962
841.0,0.9833
842.0,0.9838
843.0,0.9816
844.0,0.969
845.0,1.0
846.0,0.9959
847.0,0.9769
848.0,0.9717
849.0,0.9442
850.0,0.9046
851.0,0.9586
852.0,0.9516
853.0,0.9154
854.0,0.791
855.0,0.8684
856.0,0.9494
857.0,0.9701
858.0,0.9632
859.0,0.9638
860.0,0.9654
861.0,0.9603
862.0,0.9753
863.0,0.9984
864.0,0.9486
865.0,0.9403
866.0,0.8455
867.0,0.8824
868.0,0.9603
869.0,0.9404
870.0,0.9672
871.0,0.9542
872.0,0.9508
873.0,0.949
874.0,0.9378
875.0,0.9189
876.0,0.9285
877.0,0.9379
878.0,0.9483
879.0,0.9338
880.0,0.9138
881.0,0.9005
882.0,0.9202
883.0,0.9228
884.0,0.9188
885.0,0.9258
886.0,0.8837
887.0,0.8921
888.0,0.9059
889.0,0.9152
890.0,0.9089
891.0,0.9068
892.0,0.8823
893.0,0.8569
894.0,0.8308
895.0,0.7902
896.0,0.7468
897.0,0.6485
898.0,0.7037
899.0,0.5439
900.0,0.7164
901.0,0.5697
902.0,0.6574
903.0,0.6675
904.0,0.8251
905.0,0.799
906.0,0.7496
907.0,0.6195
908.0,0.6303
909.0,0.6779
910.0,0.6083
911.0,0.643
912.0,0.6703
913.0,0.6178
914.0,0.611
915.0,0.6616
916.0,0.5627
917.0,0.7045
918.0,0.5773
919.0,0.7151
920.0,0.718
921.0,0.7457
922.0,0.673
923.0,0.7201
924.0,0.6902
925.0,0.6754
926.0,0.6828
927.0,0.7585
928.0,0.5734
929.0,0.528
930.0,0.4221
931.0,0.3988
932.0,0.2944
933.0,0.2432
934.0,0.1415
935.0,0.2457
936.0,0.1585
937.0,0.1613
938.0,0.1964
939.0,0.3866
940.0,0.4601
941.0,0.354
942.0,0.4056
943.0,0.2721
944.0,0.2819
945.0,0.3639
946.0,0.1923
947.0,0.3673
948.0,0.271
949.0,0.4847
950.0,0.1456
951.0,0.4761
952.0,0.2651
953.0,0.3363
954.0,0.4057
955.0,0.3394
956.0,0.3262
957.0,0.2665
958.0,0.4528
959.0,0.367
960.0,0.4111
961.0,0.4559
962.0,0.4321
963.0,0.4933
964.0,0.4536
965.0,0.491
966.0,0.4922
967.0,0.4906
968.0,0.6411
969.0,0.6709
970.0,0.6185
971.0,0.7007
972.0,0.6717
973.0,0.5922
974.0,0.5632
975.0,0.5817
976.0,0.5563
977.0,0.6254
978.0,0.5974
979.0,0.6233
980.0,0.5876
981.0,0.6966
982.0,0.6687
983.0,0.6436
984.0,0.7149
985.0,0.6662
986.0,0.7257
987.0,0.7135
988.0,0.7122
989.0,0.7225
990.0,0.7079
991.0,0.725
992.0,0.729
993.0,0.7147
994.0,0.7286
995.0,0.7275
996.0,0.7246
997.0,0.7255
998.0,0.7223
999.0,0.7196
1000.0,0.715
1001.0,0.7234
1002.0,0.7054
1003.0,0.7108
1004.0,0.6939
1005.0,0.6679
1006.0,0.6943
1007.0,0.7089
1008.0,0.7054
1009.0,0.702
1010.0,0.6993
1011.0,0.7054
1012.0,0.6996
1013.0,0.7036
1014.0,0.6987
1015.0,0.6942
1016.0,0.6911
1017.0,0.693
1018.0,0.6902
1019.0,0.6761
1020.0,0.6867
1021.0,0.6856
1022.0,0.6806
1023.0,0.6879
1024.0,0.6797
1025.0,0.6872
1026.0,0.6845
1027.0,0.6829
1028.0,0.6815
1029.0,0.6736
1030.0,0.678
1031.0,0.6754
1032.0,0.6734
1033.0,0.6633
1034.0,0.6633
1035.0,0.6654
1036.0,0.6689
1037.0,0.6581
1038.0,0.661
1039.0,0.6607
1040.0,0.6581
1041.0,0.6608
1042.0,0.6562
1043.0,0.6542
1044.0,0.6565
1045.0,0.6477
1046.0,0.6406
1047.0,0.6464
1048.0,0.65
1049.0,0.6478
1050.0,0.6449
1051.0,0.6441
1052.0,0.6415
1053.0,0.6365
1054.0,0.638
1055.0,0.6385
1056.0,0.6364
1057.0,0.6345
1058.0,0.619
1059.0,0.6198
1060.0,0.6189
1061.0,0.6183
1062.0,0.6216
1063.0,0.6156
1064.0,0.6229
1065.0,0.6187
1066.0,0.6063
1067.0,0.6142
1068.0,0.601
1069.0,0.5823
1070.0,0.6023
1071.0,0.611
1072.0,0.6045
1073.0,0.5957
1074.0,0.6104
1075.0,0.5817
1076.0,0.61
1077.0,0.6002
1078.0,0.5893
1079.0,0.6
1080.0,0.591
1081.0,0.573
1082.0,0.5806
1083.0,0.582
1084.0,0.5721
1085.0,0.5923
1086.0,0.5435
1087.0,0.5588
1088.0,0.5818
1089.0,0.5658
1090.0,0.5546
1091.0,0.5805
1092.0,0.5786
1093.0,0.4961
1094.0,0.5301
1095.0,0.5161
1096.0,0.4958
1097.0,0.5652
1098.0,0.4887
1099.0,0.5089
1100.0,0.4756
1101.0,0.4808
1102.0,0.4607
1103.0,0.4573
1104.0,0.4578
1105.0,0.4979
1106.0,0.3903
1107.0,0.4747
1108.0,0.4081
1109.0,0.4077
1110.0,0.4713
1111.0,0.3274
1112.0,0.4042
1113.0,0.2652
1114.0,0.2955
1115.0,0.2453
1116.0,0.2007
1117.0,0.07907
1118.0,0.2166
1119.0,0.1117
1120.0,0.1408
1121.0,0.1842
1122.0,0.08118
1123.0,0.1271
1124.0,0.1073
1125.0,0.139
1126.0,0.05202
1127.0,0.1564
1128.0,0.09752
1129.0,0.1029
1130.0,0.06937
1131.0,0.2874
1132.0,0.2272
1133.0,0.1489
1134.0,0.04109
1135.0,0.01525
1136.0,0.126
1137.0,0.2838
1138.0,0.201
1139.0,0.2904
1140.0,0.2463
1141.0,0.191
1142.0,0.2178
1143.0,0.3053
1144.0,0.1114
1145.0,0.1436
1146.0,0.1549
1147.0,0.05829
1148.0,0.2644
1149.0,0.214
1150.0,0.1195
1151.0,0.1996
1152.0,0.2423
1153.0,0.2336
1154.0,0.1399
1155.0,0.3032
1156.0,0.2749
1157.0,0.3056
1158.0,0.3022
1159.0,0.3235
1160.0,0.2794
1161.0,0.3386
1162.0,0.3407
1163.0,0.4503
1164.0,0.3899
1165.0,0.3713
1166.0,0.3663
1167.0,0.3971
1168.0,0.4022
1169.0,0.4105
1170.0,0.4432
1171.0,0.4326
1172.0,0.4386
1173.0,0.4422
1174.0,0.3241
1175.0,0.4307
1176.0,0.4693
1177.0,0.4532
1178.0,0.3468
1179.0,0.473
1180.0,0.4268
1181.0,0.44
1182.0,0.3106
1183.0,0.4323
1184.0,0.4074
1185.0,0.3952
1186.0,0.4616
1187.0,0.4419
1188.0,0.3166
1189.0,0.4122
1190.0,0.4511
1191.0,0.4321
1192.0,0.457
1193.0,0.4393
1194.0,0.4519
1195.0,0.43
1196.0,0.4158
1197.0,0.4507
1198.0,0.4144
1199.0,0.3585
1200.0,0.434
1201.0,0.4207
1202.0,0.417
1203.0,0.4137
1204.0,0.3651
1205.0,0.4249
1206.0,0.466
1207.0,0.4166
1208.0,0.4082
1209.0,0.4161
1210.0,0.4321
1211.0,0.4139
1212.0,0.4116
1213.0,0.4521
1214.0,0.4202
1215.0,0.4128
1216.0,0.4505
1217.0,0.4398
1218.0,0.447
1219.0,0.442
1220.0,0.4473
1221.0,0.4511
1222.0,0.4401
1223.0,0.4365
1224.0,0.4347
1225.0,0.4483
1226.0,0.4505
1227.0,0.4187
1228.0,0.4521
1229.0,0.4506
1230.0,0.4435
1231.0,0.4541
1232.0,0.4515
1233.0,0.4385
1234.0,0.4532
1235.0,0.4507
1236.0,0.4537
1237.0,0.4484
1238.0,0.4522
1239.0,0.4464
1240.0,0.448
1241.0,0.4465
1242.0,0.445
1243.0,0.4414
1244.0,0.4447
1245.0,0.4465
1246.0,0.4439
1247.0,0.4423
1248.0,0.4423
1249.0,0.4435
1250.0,0.441
1251.0,0.4357
1252.0,0.4353
1253.0,0.4327
1254.0,0.429
1255.0,0.4351
1256.0,0.4245
1257.0,0.4225
1258.0,0.4291
1259.0,0.416
1260.0,0.4179
1261.0,0.3976
1262.0,0.3873
1263.0,0.3881
1264.0,0.3621
1265.0,0.3856
1266.0,0.3733
1267.0,0.3783
1268.0,0.3612
1269.0,0.2411
1270.0,0.3775
1271.0,0.3959
1272.0,0.3968
1273.0,0.393
1274.0,0.3938
1275.0,0.3989
1276.0,0.4022
1277.0,0.4041
1278.0,0.4106
1279.0,0.407
1280.0,0.4018
1281.0,0.3828
1282.0,0.3679
1283.0,0.3965
1284.0,0.4061
1285.0,0.4087
1286.0,0.4137
1287.0,0.4083
1288.0,0.4079
1289.0,0.3969
1290.0,0.4042
1291.0,0.4095
1292.0,0.3883
1293.0,0.4024
1294.0,0.3998
1295.0,0.3988
1296.0,0.3831
1297.0,0.3642
1298.0,0.3883
1299.0,0.4026
1300.0,0.3472
1301.0,0.3566
1302.0,0.387
1303.0,0.3419
1304.0,0.2976
1305.0,0.3795
1306.0,0.3799
1307.0,0.3019
1308.0,0.3415
1309.0,0.3775
1310.0,0.2965
1311.0,0.3288
1312.0,0.3208
1313.0,0.3156
1314.0,0.2846
1315.0,0.2822
1316.0,0.3246
1317.0,0.3082
1318.0,0.3325
1319.0,0.2669
1320.0,0.2571
1321.0,0.297
1322.0,0.3011
1323.0,0.2323
1324.0,0.2617
1325.0,0.3203
1326.0,0.2786
1327.0,0.2666
1328.0,0.2318
1329.0,0.1788
1330.0,0.2304
1331.0,0.1448
1332.0,0.1476
1333.0,0.2039
1334.0,0.1702
1335.0,0.2314
1336.0,0.1859
1337.0,0.166
1338.0,0.1795
1339.0,0.178
1340.0,0.1716
1341.0,0.1709
1342.0,0.1793
1343.0,0.1284
1344.0,0.07664
1345.0,0.1099
1346.0,0.05926
1347.0,0.06105
1348.0,0.00488
1349.0,0.01649
1350.0,0.0164
1351.0,0.004802
1352.0,0.001577
1353.0,0.0001009
1354.0,0.0003018
1355.0,3.839e-06
1356.0,5.023e-05
1357.0,7.598e-05
1358.0,4.464e-06
1359.0,7.877e-07
1360.0,2.303e-06
1361.0,5.313e-09
1362.0,2.009e-11
1363.0,3.407e-06
1364.0,1.456e-06
1365.0,1.036e-11
1366.0,1.36e-05
1367.0,5.317e-06
1368.0,1.727e-13
1369.0,5.568e-07
1370.0,3.162e-07
1371.0,2.157e-08
1372.0,2.932e-06
1373.0,4.682e-05
1374.0,0.000186
1375.0,0.0003378
1376.0,0.0002695
1377.0,0.0001281
1378.0,0.001159
1379.0,5.433e-05
1380.0,8.579e-05
1381.0,2.492e-06
1382.0,2.751e-06
1383.0,4.757e-08
1384.0,6.651e-07
1385.0,2.228e-06
1386.0,2.699e-06
1387.0,0.0002104
1388.0,4.265e-06
1389.0,0.0006039
1390.0,0.0005194
1391.0,0.00036
1392.0,2.495e-05
1393.0,0.0001212
1394.0,8.003e-05
1395.0,7.174e-07
1396.0,6.959e-09
1397.0,5.149e-05
1398.0,0.001321
1399.0,0.0008373
1400.0,3.622e-09
1401.0,1.169e-08
1402.0,0.001898
1403.0,0.002476
1404.0,0.0007676
1405.0,3.947e-07
1406.0,0.002125
1407.0,0.0001817
1408.0,0.001721
1409.0,0.0006487
1410.0,0.0004861
1411.0,0.002162
1412.0,0.002763
1413.0,0.0241
1414.0,0.0003786
1415.0,0.0001923
1416.0,0.03635
1417.0,0.01207
1418.0,0.01385
1419.0,0.002203
1420.0,0.00852
1421.0,0.009261
1422.0,0.04714
1423.0,0.009426
1424.0,0.01741
1425.0,0.02599
1426.0,0.02853
1427.0,0.05022
1428.0,0.004657
1429.0,0.03855
1430.0,0.06326
1431.0,0.06889
1432.0,0.003695
1433.0,0.04466
1434.0,0.02313
1435.0,0.02455
1436.0,0.04513
1437.0,0.03458
1438.0,0.01523
1439.0,0.06039
1440.0,0.04534
1441.0,0.03561
1442.0,0.0393
1443.0,0.04776
1444.0,0.06544
1445.0,0.05249
1446.0,0.02401
1447.0,0.03776
1448.0,0.1188
1449.0,0.1044
1450.0,0.02795
1451.0,0.01153
1452.0,0.064
1453.0,0.08335
1454.0,0.1389
1455.0,0.06705
1456.0,0.09074
1457.0,0.1193
1458.0,0.1384
1459.0,0.164
1460.0,0.08662
1461.0,0.09148
1462.0,0.1322
1463.0,0.04401
1464.0,0.1548
