interpolation:linear
wavelength,value
280.0,1.781e-25
280.5,7.39e-24
281.0,4.3949999999999996e-23
281.5,1.756e-21
282.0,1.625e-20
282.5,6.901000000000001e-20
283.0,3.403e-19
283.5,6.781e-19
284.0,2.222e-17
284.5,8.551e-17
285.0,2.254e-16
285.5,1.99e-15
286.0,9.87e-15
286.5,6.349e-14
287.0,2.323e-13
287.5,1.188e-12
288.0,6.143e-12
288.5,2.624e-11
289.0,9.467e-11
289.5,3.818e-10
290.0,1.323e-09
290.5,3.23e-09
291.0,8.468e-09
291.5,3.065e-08
292.0,8.398e-08
292.5,1.32e-07
293.0,3.237e-07
293.5,9.308e-07
294.0,1.645e-06
294.5,3.015e-06
295.0,5.581e-06
295.5,1.437e-05
296.0,2.695e-05
296.5,3.653e-05
297.0,4.811e-05
297.5,0.0001229
298.0,0.0001854
298.5,0.00018
299.0,0.0003826
299.5,0.0005891
300.0,0.0006221
300.5,0.0008615
301.0,0.001437
301.5,0.002123
302.0,0.001752
302.5,0.003351
303.0,0.005834
303.5,0.007194
304.0,0.006633
304.5,0.009304
305.0,0.01288
305.5,0.01397
306.0,0.01329
306.5,0.01601
307.0,0.02189
307.5,0.02693
308.0,0.02824
308.5,0.03221
309.0,0.02873
309.5,0.0321
310.0,0.03194
310.5,0.05164
311.0,0.06427
311.5,0.06202
312.0,0.06021
312.5,0.07188
313.0,0.07737
313.5,0.07658
314.0,0.09326
314.5,0.07949
315.0,0.1042
315.5,0.08971
316.0,0.07585
316.5,0.1058
317.0,0.1322
317.5,0.1398
318.0,0.107
318.5,0.1274
319.0,0.1483
319.5,0.1264
320.0,0.1545
320.5,0.185
321.0,0.1581
321.5,0.1517
322.0,0.1708
322.5,0.1489
323.0,0.1444
323.5,0.1686
324.0,0.1966
324.5,0.2037
325.0,0.1843
325.5,0.2319
326.0,0.2756
326.5,0.2719
327.0,0.2743
327.5,0.2687
328.0,0.2466
328.5,0.2525
329.0,0.2962
329.5,0.3352
330.0,0.3419
330.5,0.2804
331.0,0.2888
331.5,0.2907
332.0,0.3088
332.5,0.3039
333.0,0.3061
333.5,0.2827
334.0,0.2917
334.5,0.332
335.0,0.3101
335.5,0.353
336.0,0.2452
336.5,0.2988
337.0,0.248
337.5,0.3106
338.0,0.3001
338.5,0.3396
339.0,0.3393
339.5,0.3264
340.0,0.3937
340.5,0.3557
341.0,0.3421
341.5,0.3181
342.0,0.3824
342.5,0.3598
343.0,0.3955
343.5,0.3725
344.0,0.2799
344.5,0.2778
345.0,0.3731
345.5,0.3836
346.0,0.3279
346.5,0.373
347.0,0.4005
347.5,0.3245
348.0,0.3728
348.5,0.3747
349.0,0.349
349.5,0.3466
350.0,0.4302
350.5,0.4553
351.0,0.4075
351.5,0.3954
352.0,0.4274
352.5,0.3354
353.0,0.4242
353.5,0.4553
354.0,0.4744
354.5,0.4828
355.0,0.4825
355.5,0.4373
356.0,0.459
356.5,0.3932
357.0,0.3259
357.5,0.4003
358.0,0.3183
358.5,0.2728
359.0,0.3828
359.5,0.4889
360.0,0.52
360.5,0.4169
361.0,0.3812
361.5,0.4401
362.0,0.3815
362.5,0.5294
363.0,0.4767
363.5,0.4402
364.0,0.5398
364.5,0.4626
365.0,0.4724
365.5,0.5945
366.0,0.6315
366.5,0.5948
367.0,0.5808
367.5,0.6043
368.0,0.5302
368.5,0.5363
369.0,0.5806
369.5,0.6205
370.0,0.6631
370.5,0.5159
371.0,0.5526
371.5,0.6931
372.0,0.4611
372.5,0.5543
373.0,0.5651
373.5,0.3685
374.0,0.5367
374.5,0.4455
375.0,0.4341
375.5,0.6497
376.0,0.5399
376.5,0.5608
377.0,0.595
377.5,0.6977
378.0,0.7581
378.5,0.7183
379.0,0.5943
379.5,0.5443
380.0,0.5672
380.5,0.6885
381.0,0.6915
381.5,0.5493
382.0,0.4889
382.5,0.4176
383.0,0.3874
383.5,0.3739
384.0,0.4133
384.5,0.6092
385.0,0.6054
385.5,0.5649
386.0,0.4848
386.5,0.6381
387.0,0.5313
387.5,0.598
388.0,0.5533
388.5,0.548
389.0,0.5927
389.5,0.7193
390.0,0.7233
390.5,0.667
391.0,0.7866
391.5,0.8039
392.0,0.6785
392.5,0.6085
393.0,0.3392
393.5,0.247
394.0,0.5035
394.5,0.6413
395.0,0.784
395.5,0.7979
396.0,0.693
396.5,0.4058
397.0,0.3051
397.5,0.6216
398.0,0.8721
398.5,0.903
399.0,0.9792
399.5,0.9776
400.0,1.017
401.0,1.048
402.0,1.109
403.0,1.057
404.0,1.043
405.0,1.046
406.0,1.032
407.0,1.019
408.0,1.062
409.0,1.14
410.0,0.9983
411.0,1.084
412.0,1.167
413.0,1.142
414.0,1.159
415.0,1.164
416.0,1.188
417.0,1.162
418.0,1.143
419.0,1.161
420.0,1.159
421.0,1.216
422.0,1.158
423.0,1.134
424.0,1.203
425.0,1.203
426.0,1.174
427.0,1.155
428.0,1.128
429.0,1.07
430.0,0.9383
431.0,0.9324
432.0,1.206
433.0,1.215
434.0,1.131
435.0,1.184
436.0,1.336
437.0,1.32
438.0,1.204
439.0,1.248
440.0,1.29
441.0,1.34
442.0,1.439
443.0,1.405
444.0,1.438
445.0,1.41
446.0,1.347
447.0,1.458
448.0,1.485
449.0,1.492
450.0,1.536
451.0,1.596
452.0,1.54
453.0,1.451
454.0,1.517
455.0,1.529
456.0,1.568
457.0,1.596
458.0,1.545
459.0,1.539
460.0,1.546
461.0,1.584
462.0,1.598
463.0,1.59
464.0,1.565
465.0,1.546
466.0,1.563
467.0,1.537
468.0,1.558
469.0,1.568
470.0,1.521
471.0,1.521
472.0,1.605
473.0,1.586
474.0,1.591
475.0,1.608
476.0,1.563
477.0,1.57
478.0,1.616
479.0,1.608
480.0,1.612
481.0,1.644
482.0,1.654
483.0,1.635
484.0,1.603
485.0,1.528
486.0,1.337
487.0,1.403
488.0,1.541
489.0,1.548
490.0,1.63
491.0,1.603
492.0,1.515
493.0,1.567
494.0,1.584
495.0,1.599
496.0,1.611
497.0,1.638
498.0,1.563
499.0,1.585
500.0,1.541
501.0,1.515
502.0,1.496
503.0,1.56
504.0,1.526
505.0,1.579
506.0,1.632
507.0,1.554
508.0,1.506
509.0,1.549
510.0,1.541
511.0,1.583
512.0,1.602
513.0,1.517
514.0,1.508
515.0,1.494
516.0,1.492
517.0,1.327
518.0,1.396
519.0,1.465
520.0,1.52
521.0,1.536
522.0,1.539
523.0,1.513
524.0,1.569
525.0,1.589
526.0,1.52
527.0,1.434
528.0,1.518
529.0,1.602
530.0,1.581
531.0,1.606
532.0,1.552
533.0,1.507
534.0,1.553
535.0,1.587
536.0,1.603
537.0,1.54
538.0,1.568
539.0,1.556
540.0,1.493
541.0,1.505
542.0,1.554
543.0,1.538
544.0,1.566
545.0,1.562
546.0,1.571
547.0,1.57
548.0,1.552
549.0,1.558
550.0,1.577
551.0,1.559
552.0,1.571
553.0,1.544
554.0,1.582
555.0,1.586
556.0,1.567
557.0,1.519
558.0,1.509
559.0,1.483
560.0,1.502
561.0,1.523
562.0,1.514
563.0,1.557
564.0,1.516
565.0,1.504
566.0,1.483
567.0,1.513
568.0,1.502
569.0,1.47
570.0,1.47
571.0,1.461
572.0,1.499
573.0,1.517
574.0,1.513
575.0,1.486
576.0,1.473
577.0,1.49
578.0,1.467
579.0,1.472
580.0,1.498
581.0,1.505
582.0,1.533
583.0,1.536
584.0,1.549
585.0,1.511
586.0,1.481
587.0,1.515
588.0,1.483
589.0,1.323
590.0,1.383
591.0,1.459
592.0,1.445
593.0,1.463
594.0,1.455
595.0,1.423
596.0,1.473
597.0,1.459
598.0,1.454
599.0,1.455
600.0,1.456
601.0,1.443
602.0,1.434
603.0,1.457
604.0,1.482
605.0,1.474
606.0,1.468
607.0,1.482
608.0,1.466
609.0,1.468
610.0,1.458
611.0,1.465
612.0,1.461
613.0,1.443
614.0,1.423
615.0,1.454
616.0,1.406
617.0,1.404
618.0,1.458
619.0,1.443
620.0,1.453
621.0,1.455
622.0,1.439
623.0,1.418
624.0,1.394
625.0,1.391
626.0,1.413
627.0,1.43
628.0,1.354
629.0,1.404
630.0,1.372
631.0,1.398
632.0,1.38
633.0,1.42
634.0,1.405
635.0,1.426
636.0,1.406
637.0,1.429
638.0,1.442
639.0,1.426
640.0,1.411
641.0,1.41
642.0,1.404
643.0,1.423
644.0,1.418
645.0,1.421
646.0,1.39
647.0,1.379
648.0,1.381
649.0,1.355
650.0,1.356
651.0,1.414
652.0,1.362
653.0,1.396
654.0,1.38
655.0,1.332
656.0,1.179
657.0,1.21
658.0,1.355
659.0,1.364
660.0,1.37
661.0,1.379
662.0,1.384
663.0,1.356
664.0,1.371
665.0,1.371
666.0,1.372
667.0,1.37
668.0,1.37
669.0,1.392
670.0,1.386
671.0,1.385
672.0,1.373
673.0,1.394
674.0,1.389
675.0,1.376
676.0,1.386
677.0,1.372
678.0,1.376
679.0,1.354
680.0,1.365
681.0,1.356
682.0,1.355
683.0,1.352
684.0,1.346
685.0,1.358
686.0,1.35
687.0,0.9747
688.0,1.105
689.0,1.108
690.0,1.15
691.0,1.196
692.0,1.229
693.0,1.22
694.0,1.211
695.0,1.251
696.0,1.253
697.0,1.318
698.0,1.298
699.0,1.275
700.0,1.26
701.0,1.25
702.0,1.256
703.0,1.259
704.0,1.294
705.0,1.297
706.0,1.294
707.0,1.294
708.0,1.298
709.0,1.297
710.0,1.298
711.0,1.296
712.0,1.291
713.0,1.279
714.0,1.284
715.0,1.247
716.0,1.249
717.0,1.112
718.0,1.027
719.0,0.944
720.0,0.9908
721.0,1.076
722.0,1.211
723.0,1.138
724.0,1.037
725.0,1.025
726.0,1.071
727.0,1.08
728.0,1.024
729.0,1.052
730.0,1.113
731.0,1.068
732.0,1.132
733.0,1.188
734.0,1.213
735.0,1.19
736.0,1.189
737.0,1.194
738.0,1.205
739.0,1.182
740.0,1.211
741.0,1.198
742.0,1.198
743.0,1.228
744.0,1.224
745.0,1.224
746.0,1.23
747.0,1.232
748.0,1.23
749.0,1.216
750.0,1.216
751.0,1.203
752.0,1.209
753.0,1.215
754.0,1.218
755.0,1.211
756.0,1.211
757.0,1.213
758.0,1.198
759.0,1.178
760.0,0.2765
761.0,0.1637
762.0,0.6827
763.0,0.3901
764.0,0.5427
765.0,0.6833
766.0,0.8006
767.0,0.9728
768.0,1.094
769.0,1.11
770.0,1.141
771.0,1.147
772.0,1.148
773.0,1.156
774.0,1.151
775.0,1.142
776.0,1.156
777.0,1.141
778.0,1.134
779.0,1.135
780.0,1.129
781.0,1.13
782.0,1.137
783.0,1.118
784.0,1.123
785.0,1.115
786.0,1.128
787.0,1.111
788.0,1.099
789.0,1.099
790.0,1.074
791.0,1.079
792.0,1.071
793.0,1.054
794.0,1.068
795.0,1.087
796.0,1.06
797.0,1.062
798.0,1.087
799.0,1.081
800.0,1.064
801.0,1.062
802.0,1.059
803.0,1.052
804.0,1.053
805.0,1.048
806.0,1.075
807.0,1.062
808.0,1.063
809.0,1.045
810.0,1.039
811.0,1.043
812.0,1.017
813.0,0.999
814.0,0.8933
815.0,0.8875
816.0,0.8283
817.0,0.8418
818.0,0.8136
819.0,0.897
820.0,0.8498
821.0,0.9762
822.0,0.9513
823.0,0.6747
824.0,0.9296
825.0,0.9605
826.0,0.9293
827.0,0.9753
828.0,0.8424
829.0,0.9229
830.0,0.9125
831.0,0.9152
832.0,0.8901
833.0,0.939
834.0,0.9109
835.0,0.9899
836.0,0.9544
837.0,0.9924
838.0,0.9646
839.0,0.9769
840.0,0.9976
841.0,0.9849
842.0,0.9851
843.0,0.9826
844.0,0.9701
845.0,1.001
846.0,0.9968
847.0,0.9777
848.0,0.9726
849.0,0.9451
850.0,0.9054
851.0,0.9597
852.0,0.9526
853.0,0.9162
854.0,0.7918
855.0,0.8691
856.0,0.9502
857.0,0.9709
858.0,0.964
859.0,0.9646
860.0,0.9661
861.0,0.961
862.0,0.976
863.0,0.9992
864.0,0.9492
865.0,0.9409
866.0,0.8461
867.0,0.883
868.0,0.9609
869.0,0.941
870.0,0.9679
871.0,0.9548
872.0,0.9515
873.0,0.9496
874.0,0.9384
875.0,0.9195
876.0,0.9292
877.0,0.9385
878.0,0.949
879.0,0.9344
880.0,0.9144
881.0,0.9012
882.0,0.9209
883.0,0.9234
884.0,0.9194
885.0,0.9264
886.0,0.8845
887.0,0.8928
888.0,0.9068
889.0,0.9158
890.0,0.9098
891.0,0.9075
892.0,0.8833
893.0,0.8582
894.0,0.8328
895.0,0.793
896.0,0.7499
897.0,0.6525
898.0,0.7073
899.0,0.5483
900.0,0.7193
901.0,0.5742
902.0,0.6605
903.0,0.6714
904.0,0.8271
905.0,0.8013
906.0,0.7522
907.0,0.6235
908.0,0.6341
909.0,0.6811
910.0,0.6128
911.0,0.6469
912.0,0.6739
913.0,0.6225
914.0,0.6154
915.0,0.6661
916.0,0.5671
917.0,0.7081
918.0,0.5818
919.0,0.7183
920.0,0.7204
921.0,0.748
922.0,0.6762
923.0,0.7223
924.0,0.6936
925.0,0.6788
926.0,0.6862
927.0,0.7611
928.0,0.5787
929.0,0.5338
930.0,0.4282
931.0,0.4043
932.0,0.3
933.0,0.2486
934.0,0.1464
935.0,0.2505
936.0,0.1627
937.0,0.1658
938.0,0.2014
939.0,0.392
940.0,0.4654
941.0,0.3595
942.0,0.4111
943.0,0.2769
944.0,0.2859
945.0,0.3693
946.0,0.1967
947.0,0.3732
948.0,0.2757
949.0,0.4909
950.0,0.1501
951.0,0.4819
952.0,0.2705
953.0,0.3418
954.0,0.4108
955.0,0.3448
956.0,0.3308
957.0,0.2721
958.0,0.4568
959.0,0.3719
960.0,0.4166
961.0,0.4607
962.0,0.4369
963.0,0.4976
964.0,0.458
965.0,0.4951
966.0,0.4967
967.0,0.4952
968.0,0.6434
969.0,0.6735
970.0,0.6215
971.0,0.7024
972.0,0.6737
973.0,0.5956
974.0,0.5667
975.0,0.5847
976.0,0.5599
977.0,0.6279
978.0,0.6004
979.0,0.6259
980.0,0.5904
981.0,0.6982
982.0,0.6709
983.0,0.6461
984.0,0.716
985.0,0.6684
986.0,0.7264
987.0,0.7146
988.0,0.7133
989.0,0.723
990.0,0.7089
991.0,0.7254
992.0,0.7294
993.0,0.7155
994.0,0.729
995.0,0.7278
996.0,0.725
997.0,0.7259
998.0,0.7226
999.0,0.7199
1000.0,0.7154
1001.0,0.7238
1002.0,0.7061
1003.0,0.7112
1004.0,0.6944
1005.0,0.6682
1006.0,0.6947
1007.0,0.7093
1008.0,0.7058
1009.0,0.7025
1010.0,0.6998
1011.0,0.7057
1012.0,0.7001
1013.0,0.7039
1014.0,0.699
1015.0,0.6945
1016.0,0.6914
1017.0,0.6933
1018.0,0.6905
1019.0,0.6766
1020.0,0.687
1021.0,0.6859
1022.0,0.6809
1023.0,0.6882
1024.0,0.6802
1025.0,0.6875
1026.0,0.6848
1027.0,0.6832
1028.0,0.6819
1029.0,0.6739
1030.0,0.6783
1031.0,0.6757
1032.0,0.6737
1033.0,0.6635
1034.0,0.6636
1035.0,0.6657
1036.0,0.6692
1037.0,0.6583
1038.0,0.6613
1039.0,0.661
1040.0,0.6584
1041.0,0.6611
1042.0,0.6565
1043.0,0.6545
1044.0,0.6569
1045.0,0.648
1046.0,0.6409
1047.0,0.6468
1048.0,0.6504
1049.0,0.6481
1050.0,0.6453
1051.0,0.6445
1052.0,0.6419
1053.0,0.637
1054.0,0.6385
1055.0,0.639
1056.0,0.6369
1057.0,0.635
1058.0,0.6195
1059.0,0.6204
1060.0,0.6195
1061.0,0.6189
1062.0,0.6223
1063.0,0.6162
1064.0,0.6235
1065.0,0.6193
1066.0,0.6069
1067.0,0.6148
1068.0,0.6016
1069.0,0.5829
1070.0,0.6029
1071.0,0.6116
1072.0,0.6051
1073.0,0.5963
1074.0,0.6109
1075.0,0.5826
1076.0,0.6105
1077.0,0.601
1078.0,0.5901
1079.0,0.6005
1080.0,0.5918
1081.0,0.5739
1082.0,0.5812
1083.0,0.5825
1084.0,0.5732
1085.0,0.593
1086.0,0.5448
1087.0,0.5596
1088.0,0.5824
1089.0,0.5667
1090.0,0.5558
1091.0,0.5811
1092.0,0.5792
1093.0,0.4979
1094.0,0.5308
1095.0,0.5177
1096.0,0.4978
1097.0,0.5657
1098.0,0.4907
1099.0,0.5109
1100.0,0.478
1101.0,0.4831
1102.0,0.4632
1103.0,0.4601
1104.0,0.4605
1105.0,0.4999
1106.0,0.3941
1107.0,0.4771
1108.0,0.4115
1109.0,0.4108
1110.0,0.4738
1111.0,0.3309
1112.0,0.4071
1113.0,0.2691
1114.0,0.2996
1115.0,0.2487
1116.0,0.2047
1117.0,0.08201
1118.0,0.2204
1119.0,0.1148
1120.0,0.1446
1121.0,0.1885
1122.0,0.08403
1123.0,0.1305
1124.0,0.1102
1125.0,0.1425
1126.0,0.05428
1127.0,0.1603
1128.0,0.1009
1129.0,0.1063
1130.0,0.07216
1131.0,0.2922
1132.0,0.2315
1133.0,0.153
1134.0,0.04302
1135.0,0.01594
1136.0,0.1299
1137.0,0.2889
1138.0,0.205
1139.0,0.2939
1140.0,0.2501
1141.0,0.1948
1142.0,0.2216
1143.0,0.3097
1144.0,0.1142
1145.0,0.1474
1146.0,0.1591
1147.0,0.06086
1148.0,0.2682
1149.0,0.2178
1150.0,0.1225
1151.0,0.2035
1152.0,0.2462
1153.0,0.2367
1154.0,0.1439
1155.0,0.3068
1156.0,0.2786
1157.0,0.3091
1158.0,0.3057
1159.0,0.3266
1160.0,0.2828
1161.0,0.3414
1162.0,0.3437
1163.0,0.452
1164.0,0.3922
1165.0,0.3742
1166.0,0.3687
1167.0,0.3993
1168.0,0.4046
1169.0,0.4127
1170.0,0.4449
1171.0,0.4344
1172.0,0.4401
1173.0,0.4439
1174.0,0.3271
1175.0,0.4321
1176.0,0.4701
1177.0,0.4545
1178.0,0.3491
1179.0,0.4737
1180.0,0.4284
1181.0,0.4415
1182.0,0.3131
1183.0,0.4335
1184.0,0.4091
1185.0,0.3972
1186.0,0.4627
1187.0,0.4433
1188.0,0.3192
1189.0,0.4136
1190.0,0.4521
1191.0,0.4337
1192.0,0.458
1193.0,0.4405
1194.0,0.4529
1195.0,0.4315
1196.0,0.4175
1197.0,0.4514
1198.0,0.4154
1199.0,0.3605
1200.0,0.4352
1201.0,0.4222
1202.0,0.4183
1203.0,0.415
1204.0,0.3669
1205.0,0.4259
1206.0,0.4665
1207.0,0.418
1208.0,0.4093
1209.0,0.4171
1210.0,0.4329
1211.0,0.4151
1212.0,0.4132
1213.0,0.4528
1214.0,0.4216
1215.0,0.4143
1216.0,0.4512
1217.0,0.4407
1218.0,0.4477
1219.0,0.4428
1220.0,0.4479
1221.0,0.4516
1222.0,0.4407
1223.0,0.4372
1224.0,0.4355
1225.0,0.4488
1226.0,0.451
1227.0,0.4196
1228.0,0.4525
1229.0,0.451
1230.0,0.444
1231.0,0.4544
1232.0,0.4517
1233.0,0.4391
1234.0,0.4534
1235.0,0.4509
1236.0,0.4539
1237.0,0.4487
1238.0,0.4524
1239.0,0.4466
1240.0,0.4481
1241.0,0.4467
1242.0,0.4452
1243.0,0.4415
1244.0,0.4449
1245.0,0.4466
1246.0,0.444
1247.0,0.4425
1248.0,0.4426
1249.0,0.4436
1250.0,0.4411
1251.0,0.4359
1252.0,0.4355
1253.0,0.433
1254.0,0.4294
1255.0,0.4353
1256.0,0.4249
1257.0,0.423
1258.0,0.4294
1259.0,0.4167
1260.0,0.4186
1261.0,0.3987
1262.0,0.3887
1263.0,0.3895
1264.0,0.364
1265.0,0.3869
1266.0,0.375
1267.0,0.3797
1268.0,0.3631
1269.0,0.2452
1270.0,0.3791
1271.0,0.397
1272.0,0.3978
1273.0,0.394
1274.0,0.3948
1275.0,0.3998
1276.0,0.403
1277.0,0.4048
1278.0,0.4111
1279.0,0.4076
1280.0,0.4023
1281.0,0.3832
1282.0,0.3681
1283.0,0.3967
1284.0,0.4064
1285.0,0.4089
1286.0,0.4138
1287.0,0.4086
1288.0,0.4082
1289.0,0.3975
1290.0,0.4045
1291.0,0.4097
1292.0,0.3892
1293.0,0.4028
1294.0,0.4002
1295.0,0.3993
1296.0,0.384
1297.0,0.3654
1298.0,0.389
1299.0,0.4029
1300.0,0.3486
1301.0,0.3577
1302.0,0.3876
1303.0,0.3432
1304.0,0.2997
1305.0,0.3802
1306.0,0.3807
1307.0,0.3037
1308.0,0.3426
1309.0,0.3783
1310.0,0.2983
1311.0,0.33
1312.0,0.3222
1313.0,0.3171
1314.0,0.2864
1315.0,0.2842
1316.0,0.326
1317.0,0.3096
1318.0,0.3336
1319.0,0.2691
1320.0,0.2589
1321.0,0.2987
1322.0,0.303
1323.0,0.2348
1324.0,0.2639
1325.0,0.3218
1326.0,0.2805
1327.0,0.2687
1328.0,0.2339
1329.0,0.1814
1330.0,0.2332
1331.0,0.1477
1332.0,0.1501
1333.0,0.2072
1334.0,0.1725
1335.0,0.2339
1336.0,0.1885
1337.0,0.1687
1338.0,0.1823
1339.0,0.1806
1340.0,0.1739
1341.0,0.1739
1342.0,0.1823
1343.0,0.132
1344.0,0.07878
1345.0,0.1127
1346.0,0.0618
1347.0,0.06382
1348.0,0.005319
1349.0,0.01774
1350.0,0.01749
1351.0,0.005312
1352.0,0.001808
1353.0,0.0001211
1354.0,0.0003525
1355.0,4.894e-06
1356.0,6.053e-05
1357.0,9.14e-05
1358.0,5.672e-06
1359.0,1.065e-06
1360.0,2.993e-06
1361.0,7.924e-09
1362.0,3.199e-11
1363.0,4.481e-06
1364.0,1.933e-06
1365.0,1.769e-11
1366.0,1.758e-05
1367.0,6.838e-06
1368.0,3.399e-13
1369.0,7.434e-07
1370.0,4.333e-07
1371.0,3.066e-08
1372.0,3.774e-06
1373.0,5.756e-05
1374.0,0.0002218
1375.0,0.0004019
1376.0,0.0003144
1377.0,0.0001506
1378.0,0.001338
1379.0,6.402e-05
1380.0,0.0001027
1381.0,3.054e-06
1382.0,3.567e-06
1383.0,6.36e-08
1384.0,8.964e-07
1385.0,2.81e-06
1386.0,3.56e-06
1387.0,0.0002544
1388.0,5.215e-06
1389.0,0.0007084
1390.0,0.0006087
1391.0,0.0004255
1392.0,2.993e-05
1393.0,0.0001428
1394.0,9.859e-05
1395.0,9.218e-07
1396.0,1.02e-08
1397.0,6.145e-05
1398.0,0.001528
1399.0,0.0009689
1400.0,5.492e-09
1401.0,1.691e-08
1402.0,0.002115
1403.0,0.002776
1404.0,0.0008636
1405.0,5.188e-07
1406.0,0.002416
1407.0,0.0002061
1408.0,0.001954
1409.0,0.0007528
1410.0,0.0005584
1411.0,0.002422
1412.0,0.003062
1413.0,0.02577
1414.0,0.000434
1415.0,0.000223
1416.0,0.03817
1417.0,0.01297
1418.0,0.01489
1419.0,0.002383
1420.0,0.009169
1421.0,0.009995
1422.0,0.0494
1423.0,0.009966
1424.0,0.01834
1425.0,0.02746
1426.0,0.02989
1427.0,0.05201
1428.0,0.00509
1429.0,0.0402
1430.0,0.06532
1431.0,0.07095
1432.0,0.004047
1433.0,0.04625
1434.0,0.02409
1435.0,0.02598
1436.0,0.04712
1437.0,0.03612
1438.0,0.0161
1439.0,0.06275
1440.0,0.04716
1441.0,0.03736
1442.0,0.04115
1443.0,0.04952
1444.0,0.06766
1445.0,0.05467
1446.0,0.02512
1447.0,0.03951
1448.0,0.1214
1449.0,0.1071
1450.0,0.02924
1451.0,0.01217
1452.0,0.06609
1453.0,0.08581
1454.0,0.1415
1455.0,0.06888
1456.0,0.09345
1457.0,0.122
1458.0,0.1406
1459.0,0.1667
1460.0,0.08856
1461.0,0.0939
1462.0,0.1349
1463.0,0.04546
1464.0,0.1573
1465.0,0.09529
