interpolation:linear
wavelength,value
280.0,5.6620000000000005e-28
280.5,3.3870000000000005e-26
281.0,2.302e-25
281.5,1.3099999999999999e-23
282.0,1.503e-22
282.5,7.3769999999999995e-22
283.0,4.265e-21
283.5,9.202e-21
284.0,4.362e-19
284.5,1.985e-18
285.0,6.277e-18
285.5,6.864e-17
286.0,3.713e-16
286.5,2.854e-15
287.0,1.191e-14
287.5,7.237e-14
288.0,4.649e-13
288.5,2.228e-12
289.0,9.054e-12
289.5,4.162e-11
290.0,1.605e-10
290.5,4.286e-10
291.0,1.251e-09
291.5,5.196e-09
292.0,1.592e-08
292.5,2.665e-08
293.0,7.082e-08
293.5,2.273e-07
294.0,4.327e-07
294.5,8.389e-07
295.0,1.666e-06
295.5,4.679e-06
296.0,9.319e-06
296.5,1.337e-05
297.0,1.841e-05
297.5,5.009e-05
298.0,7.946e-05
298.5,8.013e-05
299.0,0.0001765
299.5,0.0002874
300.0,0.0003125
300.5,0.0004455
301.0,0.000775
301.5,0.001184
302.0,0.0009929
302.5,0.001955
303.0,0.003527
303.5,0.004439
304.0,0.004134
304.5,0.005937
305.0,0.008475
305.5,0.009358
306.0,0.008972
306.5,0.01093
307.0,0.0153
307.5,0.01921
308.0,0.02024
308.5,0.02332
309.0,0.02096
309.5,0.02393
310.0,0.02405
310.5,0.03909
311.0,0.04904
311.5,0.04752
312.0,0.04685
312.5,0.05649
313.0,0.06115
313.5,0.06034
314.0,0.07432
314.5,0.06423
315.0,0.08448
315.5,0.07236
316.0,0.06186
316.5,0.0871
317.0,0.1089
317.5,0.115
318.0,0.08862
318.5,0.1066
319.0,0.1248
319.5,0.1057
320.0,0.1291
320.5,0.1562
321.0,0.1347
321.5,0.1294
322.0,0.1447
322.5,0.1264
323.0,0.1233
323.5,0.1453
324.0,0.1698
324.5,0.1755
325.0,0.158
325.5,0.1999
326.0,0.239
326.5,0.2369
327.0,0.2389
327.5,0.2338
328.0,0.2136
328.5,0.2203
329.0,0.2596
329.5,0.2944
330.0,0.3002
330.5,0.2457
331.0,0.253
331.5,0.2554
332.0,0.2724
332.5,0.2685
333.0,0.2705
333.5,0.2495
334.0,0.2575
334.5,0.2941
335.0,0.2752
335.5,0.3136
336.0,0.218
336.5,0.2656
337.0,0.2204
337.5,0.2761
338.0,0.2674
338.5,0.303
339.0,0.3031
339.5,0.2918
340.0,0.3518
340.5,0.3182
341.0,0.3065
341.5,0.2853
342.0,0.3431
342.5,0.3231
343.0,0.3553
343.5,0.3348
344.0,0.2515
344.5,0.2499
345.0,0.336
345.5,0.3458
346.0,0.2958
346.5,0.3367
347.0,0.3617
347.5,0.2933
348.0,0.3372
348.5,0.3391
349.0,0.316
349.5,0.314
350.0,0.39
350.5,0.413
351.0,0.3698
351.5,0.359
352.0,0.3884
352.5,0.3049
353.0,0.3859
353.5,0.4145
354.0,0.4321
354.5,0.4399
355.0,0.4398
355.5,0.3989
356.0,0.419
356.5,0.3591
357.0,0.2977
357.5,0.3659
358.0,0.291
358.5,0.2496
359.0,0.3503
359.5,0.4476
360.0,0.4762
360.5,0.3821
361.0,0.3495
361.5,0.4038
362.0,0.3503
362.5,0.4863
363.0,0.4382
363.5,0.4049
364.0,0.4967
364.5,0.4259
365.0,0.4351
365.5,0.5478
366.0,0.5822
366.5,0.5487
367.0,0.536
367.5,0.5579
368.0,0.4897
368.5,0.4956
369.0,0.5368
369.5,0.5739
370.0,0.6135
370.5,0.4776
371.0,0.5118
371.5,0.6421
372.0,0.4274
372.5,0.5139
373.0,0.5242
373.5,0.342
374.0,0.4983
374.5,0.4138
375.0,0.4034
375.5,0.6039
376.0,0.502
376.5,0.5216
377.0,0.5537
377.5,0.6495
378.0,0.7059
378.5,0.6691
379.0,0.5538
379.5,0.5073
380.0,0.5288
380.5,0.6422
381.0,0.6453
381.5,0.5128
382.0,0.4566
382.5,0.3902
383.0,0.3622
383.5,0.3497
384.0,0.3867
384.5,0.5702
385.0,0.5668
385.5,0.5291
386.0,0.4542
386.5,0.5981
387.0,0.4982
387.5,0.5609
388.0,0.5191
388.5,0.5143
389.0,0.5565
389.5,0.6756
390.0,0.6796
390.5,0.6268
391.0,0.7395
391.5,0.756
392.0,0.6382
392.5,0.5726
393.0,0.3193
393.5,0.2326
394.0,0.4743
394.5,0.6043
395.0,0.7389
395.5,0.7522
396.0,0.6536
396.5,0.3828
397.0,0.2879
397.5,0.5867
398.0,0.8234
398.5,0.8528
399.0,0.9251
399.5,0.9239
400.0,0.9613
401.0,0.991
402.0,1.049
403.0,1.001
404.0,0.9886
405.0,0.992
406.0,0.9793
407.0,0.9668
408.0,1.008
409.0,1.082
410.0,0.9488
411.0,1.031
412.0,1.111
413.0,1.087
414.0,1.103
415.0,1.11
416.0,1.132
417.0,1.108
418.0,1.091
419.0,1.108
420.0,1.107
421.0,1.161
422.0,1.107
423.0,1.085
424.0,1.15
425.0,1.152
426.0,1.124
427.0,1.106
428.0,1.08
429.0,1.026
430.0,0.8999
431.0,0.8945
432.0,1.158
433.0,1.167
434.0,1.086
435.0,1.137
436.0,1.284
437.0,1.269
438.0,1.158
439.0,1.201
440.0,1.242
441.0,1.29
442.0,1.387
443.0,1.354
444.0,1.386
445.0,1.359
446.0,1.299
447.0,1.407
448.0,1.432
449.0,1.441
450.0,1.484
451.0,1.542
452.0,1.489
453.0,1.403
454.0,1.467
455.0,1.479
456.0,1.517
457.0,1.545
458.0,1.495
459.0,1.49
460.0,1.497
461.0,1.534
462.0,1.548
463.0,1.54
464.0,1.517
465.0,1.5
466.0,1.516
467.0,1.491
468.0,1.512
469.0,1.522
470.0,1.476
471.0,1.476
472.0,1.558
473.0,1.54
474.0,1.545
475.0,1.562
476.0,1.518
477.0,1.525
478.0,1.57
479.0,1.562
480.0,1.567
481.0,1.599
482.0,1.609
483.0,1.591
484.0,1.56
485.0,1.488
486.0,1.302
487.0,1.367
488.0,1.501
489.0,1.508
490.0,1.589
491.0,1.563
492.0,1.478
493.0,1.528
494.0,1.545
495.0,1.56
496.0,1.572
497.0,1.598
498.0,1.525
499.0,1.547
500.0,1.504
501.0,1.479
502.0,1.461
503.0,1.523
504.0,1.488
505.0,1.541
506.0,1.593
507.0,1.517
508.0,1.471
509.0,1.513
510.0,1.506
511.0,1.547
512.0,1.566
513.0,1.483
514.0,1.475
515.0,1.461
516.0,1.459
517.0,1.298
518.0,1.366
519.0,1.434
520.0,1.488
521.0,1.503
522.0,1.506
523.0,1.481
524.0,1.535
525.0,1.555
526.0,1.487
527.0,1.403
528.0,1.486
529.0,1.568
530.0,1.547
531.0,1.571
532.0,1.519
533.0,1.475
534.0,1.52
535.0,1.554
536.0,1.569
537.0,1.508
538.0,1.536
539.0,1.524
540.0,1.463
541.0,1.474
542.0,1.522
543.0,1.506
544.0,1.534
545.0,1.53
546.0,1.539
547.0,1.539
548.0,1.521
549.0,1.527
550.0,1.546
551.0,1.528
552.0,1.54
553.0,1.513
554.0,1.551
555.0,1.555
556.0,1.536
557.0,1.489
558.0,1.48
559.0,1.453
560.0,1.473
561.0,1.493
562.0,1.484
563.0,1.526
564.0,1.485
565.0,1.474
566.0,1.453
567.0,1.482
568.0,1.471
569.0,1.439
570.0,1.439
571.0,1.43
572.0,1.467
573.0,1.484
574.0,1.48
575.0,1.453
576.0,1.441
577.0,1.457
578.0,1.436
579.0,1.441
580.0,1.468
581.0,1.475
582.0,1.503
583.0,1.507
584.0,1.52
585.0,1.483
586.0,1.453
587.0,1.487
588.0,1.454
589.0,1.293
590.0,1.353
591.0,1.429
592.0,1.413
593.0,1.433
594.0,1.425
595.0,1.392
596.0,1.444
597.0,1.429
598.0,1.425
599.0,1.427
600.0,1.429
601.0,1.417
602.0,1.408
603.0,1.431
604.0,1.455
605.0,1.448
606.0,1.442
607.0,1.457
608.0,1.441
609.0,1.444
610.0,1.433
611.0,1.441
612.0,1.437
613.0,1.42
614.0,1.4
615.0,1.431
616.0,1.384
617.0,1.382
618.0,1.435
619.0,1.421
620.0,1.431
621.0,1.433
622.0,1.417
623.0,1.396
624.0,1.372
625.0,1.37
626.0,1.39
627.0,1.407
628.0,1.325
629.0,1.378
630.0,1.347
631.0,1.375
632.0,1.358
633.0,1.399
634.0,1.384
635.0,1.406
636.0,1.387
637.0,1.41
638.0,1.423
639.0,1.407
640.0,1.393
641.0,1.393
642.0,1.386
643.0,1.405
644.0,1.401
645.0,1.404
646.0,1.373
647.0,1.359
648.0,1.361
649.0,1.336
650.0,1.339
651.0,1.397
652.0,1.343
653.0,1.379
654.0,1.363
655.0,1.315
656.0,1.164
657.0,1.196
658.0,1.34
659.0,1.349
660.0,1.355
661.0,1.365
662.0,1.368
663.0,1.341
664.0,1.357
665.0,1.357
666.0,1.358
667.0,1.357
668.0,1.358
669.0,1.379
670.0,1.373
671.0,1.373
672.0,1.361
673.0,1.382
674.0,1.377
675.0,1.365
676.0,1.374
677.0,1.361
678.0,1.365
679.0,1.343
680.0,1.354
681.0,1.345
682.0,1.344
683.0,1.342
684.0,1.335
685.0,1.347
686.0,1.339
687.0,0.9328
688.0,1.073
689.0,1.076
690.0,1.122
691.0,1.173
692.0,1.21
693.0,1.201
694.0,1.191
695.0,1.236
696.0,1.238
697.0,1.307
698.0,1.287
699.0,1.261
700.0,1.246
701.0,1.235
702.0,1.242
703.0,1.245
704.0,1.282
705.0,1.284
706.0,1.282
707.0,1.283
708.0,1.286
709.0,1.287
710.0,1.288
711.0,1.286
712.0,1.281
713.0,1.269
714.0,1.274
715.0,1.236
716.0,1.237
717.0,1.089
718.0,1.004
719.0,0.9214
720.0,0.9663
721.0,1.057
722.0,1.198
723.0,1.122
724.0,1.017
725.0,1.003
726.0,1.049
727.0,1.061
728.0,1.002
729.0,1.034
730.0,1.094
731.0,1.049
732.0,1.116
733.0,1.176
734.0,1.202
735.0,1.178
736.0,1.177
737.0,1.182
738.0,1.196
739.0,1.173
740.0,1.203
741.0,1.19
742.0,1.191
743.0,1.221
744.0,1.218
745.0,1.218
746.0,1.223
747.0,1.226
748.0,1.224
749.0,1.21
750.0,1.21
751.0,1.197
752.0,1.203
753.0,1.209
754.0,1.212
755.0,1.205
756.0,1.205
757.0,1.207
758.0,1.192
759.0,1.17
760.0,0.2356
761.0,0.132
762.0,0.6416
763.0,0.3448
764.0,0.4971
765.0,0.6421
766.0,0.7685
767.0,0.95
768.0,1.081
769.0,1.1
770.0,1.134
771.0,1.141
772.0,1.143
773.0,1.151
774.0,1.146
775.0,1.137
776.0,1.151
777.0,1.136
778.0,1.129
779.0,1.13
780.0,1.124
781.0,1.126
782.0,1.133
783.0,1.113
784.0,1.119
785.0,1.11
786.0,1.123
787.0,1.105
788.0,1.092
789.0,1.092
790.0,1.066
791.0,1.073
792.0,1.065
793.0,1.048
794.0,1.063
795.0,1.082
796.0,1.052
797.0,1.054
798.0,1.082
799.0,1.075
800.0,1.058
801.0,1.055
802.0,1.052
803.0,1.045
804.0,1.046
805.0,1.042
806.0,1.07
807.0,1.057
808.0,1.058
809.0,1.04
810.0,1.032
811.0,1.035
812.0,1.008
813.0,0.9885
814.0,0.8774
815.0,0.8718
816.0,0.8127
817.0,0.8268
818.0,0.7976
819.0,0.8851
820.0,0.8363
821.0,0.9685
822.0,0.9424
823.0,0.6555
824.0,0.9183
825.0,0.9525
826.0,0.9192
827.0,0.9672
828.0,0.8283
829.0,0.9133
830.0,0.9023
831.0,0.9053
832.0,0.8791
833.0,0.9311
834.0,0.9009
835.0,0.9841
836.0,0.9456
837.0,0.9868
838.0,0.9578
839.0,0.9717
840.0,0.9927
841.0,0.9794
842.0,0.9806
843.0,0.9791
844.0,0.9661
845.0,0.998
846.0,0.9936
847.0,0.9749
848.0,0.9694
849.0,0.9419
850.0,0.9025
851.0,0.9561
852.0,0.9492
853.0,0.9134
854.0,0.789
855.0,0.8665
856.0,0.9472
857.0,0.9681
858.0,0.9612
859.0,0.9619
860.0,0.9636
861.0,0.9584
862.0,0.9735
863.0,0.9966
864.0,0.9468
865.0,0.9386
866.0,0.844
867.0,0.8808
868.0,0.9586
869.0,0.9388
870.0,0.9656
871.0,0.9525
872.0,0.9492
873.0,0.9474
874.0,0.9362
875.0,0.9173
876.0,0.9269
877.0,0.9364
878.0,0.9467
879.0,0.9322
880.0,0.9123
881.0,0.8988
882.0,0.9184
883.0,0.9212
884.0,0.9171
885.0,0.9241
886.0,0.8815
887.0,0.8904
888.0,0.9039
889.0,0.9136
890.0,0.9068
891.0,0.9049
892.0,0.8798
893.0,0.8535
894.0,0.8257
895.0,0.783
896.0,0.739
897.0,0.6386
898.0,0.6947
899.0,0.533
900.0,0.7091
901.0,0.5585
902.0,0.6496
903.0,0.6579
904.0,0.82
905.0,0.7931
906.0,0.7432
907.0,0.6095
908.0,0.6208
909.0,0.6699
910.0,0.5971
911.0,0.6336
912.0,0.6614
913.0,0.6063
914.0,0.6003
915.0,0.6504
916.0,0.552
917.0,0.6955
918.0,0.5661
919.0,0.707
920.0,0.7119
921.0,0.7399
922.0,0.6648
923.0,0.7147
924.0,0.6816
925.0,0.6669
926.0,0.6743
927.0,0.7518
928.0,0.5601
929.0,0.5136
930.0,0.407
931.0,0.3852
932.0,0.2808
933.0,0.2299
934.0,0.1297
935.0,0.234
936.0,0.1483
937.0,0.1506
938.0,0.1844
939.0,0.3734
940.0,0.4469
941.0,0.3404
942.0,0.3922
943.0,0.2604
944.0,0.2722
945.0,0.3505
946.0,0.1815
947.0,0.3529
948.0,0.2598
949.0,0.4693
950.0,0.1351
951.0,0.4616
952.0,0.2521
953.0,0.3229
954.0,0.3931
955.0,0.3263
956.0,0.3153
957.0,0.2529
958.0,0.4428
959.0,0.3549
960.0,0.3977
961.0,0.444
962.0,0.4204
963.0,0.4826
964.0,0.4428
965.0,0.4806
966.0,0.4812
967.0,0.4794
968.0,0.6354
969.0,0.6643
970.0,0.6111
971.0,0.6963
972.0,0.6667
973.0,0.5838
974.0,0.5545
975.0,0.5744
976.0,0.5472
977.0,0.6193
978.0,0.5898
979.0,0.6167
980.0,0.5805
981.0,0.6924
982.0,0.6633
983.0,0.6375
984.0,0.7123
985.0,0.6608
986.0,0.724
987.0,0.7108
988.0,0.7095
989.0,0.7214
990.0,0.7053
991.0,0.7238
992.0,0.7279
993.0,0.7126
994.0,0.7277
995.0,0.7267
996.0,0.7236
997.0,0.7246
998.0,0.7213
999.0,0.7187
1000.0,0.7138
1001.0,0.7225
1002.0,0.7035
1003.0,0.7099
1004.0,0.6927
1005.0,0.6671
1006.0,0.6934
1007.0,0.708
1008.0,0.7043
1009.0,0.7007
1010.0,0.6979
1011.0,0.7045
1012.0,0.6986
1013.0,0.7028
1014.0,0.6979
1015.0,0.6934
1016.0,0.6903
1017.0,0.6921
1018.0,0.6894
1019.0,0.675
1020.0,0.6859
1021.0,0.6849
1022.0,0.6797
1023.0,0.687
1024.0,0.6784
1025.0,0.6865
1026.0,0.6836
1027.0,0.6821
1028.0,0.6807
1029.0,0.6727
1030.0,0.6772
1031.0,0.6746
1032.0,0.6726
1033.0,0.6625
1034.0,0.6626
1035.0,0.6646
1036.0,0.6681
1037.0,0.6573
1038.0,0.6602
1039.0,0.6599
1040.0,0.6573
1041.0,0.6599
1042.0,0.6554
1043.0,0.6533
1044.0,0.6556
1045.0,0.6468
1046.0,0.6397
1047.0,0.6455
1048.0,0.6491
1049.0,0.6468
1050.0,0.6439
1051.0,0.643
1052.0,0.6404
1053.0,0.6354
1054.0,0.6368
1055.0,0.6372
1056.0,0.6351
1057.0,0.6332
1058.0,0.6177
1059.0,0.6184
1060.0,0.6175
1061.0,0.6168
1062.0,0.6201
1063.0,0.614
1064.0,0.6213
1065.0,0.617
1066.0,0.6047
1067.0,0.6126
1068.0,0.5993
1069.0,0.5807
1070.0,0.6005
1071.0,0.6096
1072.0,0.6028
1073.0,0.5941
1074.0,0.6092
1075.0,0.5795
1076.0,0.6088
1077.0,0.5984
1078.0,0.5872
1079.0,0.599
1080.0,0.5892
1081.0,0.5707
1082.0,0.5792
1083.0,0.5808
1084.0,0.5695
1085.0,0.5905
1086.0,0.5402
1087.0,0.5566
1088.0,0.5805
1089.0,0.5634
1090.0,0.5516
1091.0,0.5788
1092.0,0.5772
1093.0,0.4917
1094.0,0.5284
1095.0,0.512
1096.0,0.491
1097.0,0.5639
1098.0,0.4835
1099.0,0.5041
1100.0,0.4696
1101.0,0.4752
1102.0,0.4545
1103.0,0.4505
1104.0,0.4511
1105.0,0.4928
1106.0,0.3809
1107.0,0.4688
1108.0,0.3998
1109.0,0.4001
1110.0,0.4651
1111.0,0.3186
1112.0,0.3969
1113.0,0.2558
1114.0,0.2856
1115.0,0.2369
1116.0,0.191
1117.0,0.07215
1118.0,0.2072
1119.0,0.1044
1120.0,0.1315
1121.0,0.1735
1122.0,0.07437
1123.0,0.1188
1124.0,0.1003
1125.0,0.1304
1126.0,0.04671
1127.0,0.147
1128.0,0.08936
1129.0,0.09462
1130.0,0.06282
1131.0,0.2754
1132.0,0.2167
1133.0,0.1391
1134.0,0.03661
1135.0,0.01367
1136.0,0.1167
1137.0,0.2711
1138.0,0.1914
1139.0,0.2819
1140.0,0.2369
1141.0,0.1819
1142.0,0.2085
1143.0,0.2946
1144.0,0.1047
1145.0,0.1342
1146.0,0.1447
1147.0,0.05226
1148.0,0.255
1149.0,0.2047
1150.0,0.1124
1151.0,0.19
1152.0,0.2326
1153.0,0.2257
1154.0,0.1303
1155.0,0.2942
1156.0,0.2657
1157.0,0.2969
1158.0,0.2937
1159.0,0.3158
1160.0,0.2711
1161.0,0.3316
1162.0,0.3334
1163.0,0.4458
1164.0,0.3841
1165.0,0.364
1166.0,0.3603
1167.0,0.3916
1168.0,0.3963
1169.0,0.4051
1170.0,0.4388
1171.0,0.4281
1172.0,0.435
1173.0,0.4379
1174.0,0.3169
1175.0,0.4271
1176.0,0.4674
1177.0,0.4501
1178.0,0.3413
1179.0,0.4711
1180.0,0.4229
1181.0,0.4362
1182.0,0.3046
1183.0,0.429
1184.0,0.4033
1185.0,0.3902
1186.0,0.459
1187.0,0.4384
1188.0,0.3102
1189.0,0.4086
1190.0,0.4486
1191.0,0.428
1192.0,0.4546
1193.0,0.4364
1194.0,0.4493
1195.0,0.4264
1196.0,0.4116
1197.0,0.4488
1198.0,0.4117
1199.0,0.3535
1200.0,0.4311
1201.0,0.4169
1202.0,0.4138
1203.0,0.4104
1204.0,0.3607
1205.0,0.4224
1206.0,0.4648
1207.0,0.4131
1208.0,0.4056
1209.0,0.4137
1210.0,0.4302
1211.0,0.411
1212.0,0.4076
1213.0,0.4503
1214.0,0.4167
1215.0,0.4091
1216.0,0.4488
1217.0,0.4376
1218.0,0.4452
1219.0,0.4401
1220.0,0.4456
1221.0,0.4497
1222.0,0.4384
1223.0,0.4346
1224.0,0.4324
1225.0,0.4469
1226.0,0.4494
1227.0,0.4164
1228.0,0.4513
1229.0,0.4495
1230.0,0.4422
1231.0,0.4536
1232.0,0.4509
1233.0,0.4369
1234.0,0.4529
1235.0,0.4503
1236.0,0.4534
1237.0,0.4477
1238.0,0.4519
1239.0,0.4461
1240.0,0.4477
1241.0,0.446
1242.0,0.4447
1243.0,0.4411
1244.0,0.4443
1245.0,0.4462
1246.0,0.4435
1247.0,0.4419
1248.0,0.4418
1249.0,0.443
1250.0,0.4405
1251.0,0.4351
1252.0,0.4348
1253.0,0.4319
1254.0,0.4279
1255.0,0.4345
1256.0,0.4233
1257.0,0.4212
1258.0,0.4283
1259.0,0.4142
1260.0,0.4162
1261.0,0.3947
1262.0,0.3838
1263.0,0.3846
1264.0,0.3572
1265.0,0.3821
1266.0,0.3689
1267.0,0.3745
1268.0,0.3566
1269.0,0.2308
1270.0,0.3735
1271.0,0.3932
1272.0,0.3943
1273.0,0.3903
1274.0,0.3913
1275.0,0.3966
1276.0,0.4001
1277.0,0.4024
1278.0,0.4093
1279.0,0.4057
1280.0,0.4005
1281.0,0.3819
1282.0,0.3674
1283.0,0.3958
1284.0,0.4054
1285.0,0.408
1286.0,0.4132
1287.0,0.4074
1288.0,0.4071
1289.0,0.3954
1290.0,0.4035
1291.0,0.4089
1292.0,0.3863
1293.0,0.4015
1294.0,0.3988
1295.0,0.3974
1296.0,0.3808
1297.0,0.3612
1298.0,0.3867
1299.0,0.4018
1300.0,0.3438
1301.0,0.3536
1302.0,0.3854
1303.0,0.3389
1304.0,0.2924
1305.0,0.3777
1306.0,0.378
1307.0,0.2975
1308.0,0.3389
1309.0,0.3754
1310.0,0.292
1311.0,0.3257
1312.0,0.3173
1313.0,0.3118
1314.0,0.2802
1315.0,0.2773
1316.0,0.3211
1317.0,0.3045
1318.0,0.3296
1319.0,0.2614
1320.0,0.2525
1321.0,0.2928
1322.0,0.2963
1323.0,0.226
1324.0,0.2564
1325.0,0.3167
1326.0,0.2738
1327.0,0.2616
1328.0,0.2266
1329.0,0.1726
1330.0,0.2235
1331.0,0.1377
1332.0,0.1413
1333.0,0.196
1334.0,0.1647
1335.0,0.2252
1336.0,0.1796
1337.0,0.1595
1338.0,0.1726
1339.0,0.1715
1340.0,0.1661
1341.0,0.1638
1342.0,0.1719
1343.0,0.1198
1344.0,0.07156
1345.0,0.103
1346.0,0.05327
1347.0,0.05453
1348.0,0.003929
1349.0,0.0137
1350.0,0.01393
1351.0,0.00372
1352.0,0.001113
1353.0,6.368e-05
1354.0,0.000204
1355.0,2.081e-06
1356.0,3.139e-05
1357.0,4.767e-05
1358.0,2.441e-06
1359.0,3.67e-07
1360.0,1.189e-06
1361.0,1.935e-09
1362.0,6.242e-12
1363.0,1.695e-06
1364.0,7.106e-07
1365.0,2.686e-12
1366.0,7.07e-06
1367.0,2.816e-06
1368.0,3.109e-14
1369.0,2.685e-07
1370.0,1.427e-07
1371.0,8.896e-09
1372.0,1.55e-06
1373.0,2.777e-05
1374.0,0.0001191
1375.0,0.0002169
1376.0,0.0001828
1377.0,8.532e-05
1378.0,0.0008049
1379.0,3.598e-05
1380.0,5.445e-05
1381.0,1.498e-06
1382.0,1.427e-06
1383.0,2.295e-08
1384.0,3.128e-07
1385.0,1.244e-06
1386.0,1.339e-06
1387.0,0.0001296
1388.0,2.576e-06
1389.0,0.0004028
1390.0,0.0003469
1391.0,0.0002357
1392.0,1.579e-05
1393.0,8.017e-05
1394.0,4.715e-05
1395.0,3.822e-07
1396.0,2.653e-09
1397.0,3.3e-05
1398.0,0.0009117
1399.0,0.0005776
1400.0,1.264e-09
1401.0,4.608e-09
1402.0,0.001445
1403.0,0.001853
1404.0,0.0005698
1405.0,1.984e-07
1406.0,0.001533
1407.0,0.0001326
1408.0,0.001247
1409.0,0.0004438
1410.0,0.0003428
1411.0,0.001624
1412.0,0.002132
1413.0,0.02032
1414.0,0.0002687
1415.0,0.0001326
1416.0,0.03212
1417.0,0.01008
1418.0,0.01153
1419.0,0.001806
1420.0,0.00707
1421.0,0.007651
1422.0,0.04184
1423.0,0.008199
1424.0,0.01528
1425.0,0.02262
1426.0,0.02536
1427.0,0.04595
1428.0,0.003721
1429.0,0.03467
1430.0,0.05835
1431.0,0.06393
1432.0,0.002938
1433.0,0.04089
1434.0,0.02091
1435.0,0.02126
1436.0,0.04048
1437.0,0.03101
1438.0,0.01325
1439.0,0.05481
1440.0,0.04107
1441.0,0.03155
1442.0,0.03496
1443.0,0.04355
1444.0,0.06017
1445.0,0.04735
1446.0,0.02137
1447.0,0.03366
1448.0,0.1124
1449.0,0.09777
1450.0,0.02496
1451.0,0.01007
1452.0,0.05902
1453.0,0.07742
1454.0,0.1326
1455.0,0.06263
1456.0,0.08425
1457.0,0.1129
1458.0,0.133
1459.0,0.1573
1460.0,0.08193
1461.0,0.08561
