interpolation:linear
wavelength,value
280.0,1.986e-19
280.5,3.401e-18
281.0,1.463e-17
281.5,2.484e-16
282.0,1.366e-15
282.5,4.085e-15
283.0,1.37e-14
283.5,2.252e-14
284.0,3.021e-13
284.5,7.735e-13
285.0,1.313e-12
285.5,6.9e-12
286.0,2.775e-11
286.5,1.16e-10
287.0,3.087e-10
287.5,1.041e-09
288.0,3.18e-09
288.5,1.027e-08
289.0,2.78e-08
289.5,8.167e-08
290.0,2.184e-07
290.5,4.292e-07
291.0,8.666e-07
291.5,2.25e-06
292.0,4.704e-06
292.5,6.35e-06
293.0,1.281e-05
293.5,2.822e-05
294.0,4.167e-05
294.5,6.668e-05
295.0,0.0001041
295.5,0.0002169
296.0,0.0003522
296.5,0.0004163
297.0,0.0004918
297.5,0.001079
298.0,0.001439
298.5,0.001276
299.0,0.00249
299.5,0.003345
300.0,0.003289
300.5,0.004248
301.0,0.006408
301.5,0.008719
302.0,0.006915
302.5,0.01233
303.0,0.0197
303.5,0.02313
304.0,0.02081
304.5,0.02758
305.0,0.03547
305.5,0.03677
306.0,0.03435
306.5,0.04024
307.0,0.05205
307.5,0.0609
308.0,0.06321
308.5,0.07035
309.0,0.06153
309.5,0.06529
310.0,0.06342
310.5,0.1012
311.0,0.1235
311.5,0.118
312.0,0.1104
312.5,0.1286
313.0,0.1366
313.5,0.1362
314.0,0.1614
314.5,0.133
315.0,0.173
315.5,0.1508
316.0,0.1241
316.5,0.1694
317.0,0.2113
317.5,0.224
318.0,0.1689
318.5,0.1959
319.0,0.225
319.5,0.1948
320.0,0.2382
320.5,0.2781
321.0,0.2328
321.5,0.2224
322.0,0.2549
322.5,0.2216
323.0,0.2115
323.5,0.2413
324.0,0.2801
324.5,0.2917
325.0,0.2672
325.5,0.3321
326.0,0.3886
326.5,0.3795
327.0,0.3832
327.5,0.376
328.0,0.3488
328.5,0.3512
329.0,0.4072
329.5,0.4588
330.0,0.468
330.5,0.3857
331.0,0.3977
331.5,0.3972
332.0,0.4181
332.5,0.4095
333.0,0.4125
333.5,0.3823
334.0,0.394
334.5,0.445
335.0,0.4137
335.5,0.4694
336.0,0.3255
336.5,0.397
337.0,0.3297
337.5,0.4125
338.0,0.3962
338.5,0.4469
339.0,0.4455
339.5,0.4279
340.0,0.5163
340.5,0.4657
341.0,0.4463
341.5,0.414
342.0,0.4967
342.5,0.4665
343.0,0.5122
343.5,0.482
344.0,0.3625
344.5,0.3586
345.0,0.4803
345.5,0.4928
346.0,0.4204
346.5,0.4775
347.0,0.5121
347.5,0.4144
348.0,0.4752
348.5,0.4769
349.0,0.4435
349.5,0.4397
350.0,0.5449
350.5,0.5759
351.0,0.5149
351.5,0.4992
352.0,0.5387
352.5,0.422
353.0,0.5329
353.5,0.5712
354.0,0.5945
354.5,0.6043
355.0,0.6032
355.5,0.5459
356.0,0.5723
356.5,0.4897
357.0,0.4055
357.5,0.4975
358.0,0.3951
358.5,0.3383
359.0,0.4741
359.5,0.6051
360.0,0.6428
360.5,0.5148
361.0,0.4701
361.5,0.5418
362.0,0.469
362.5,0.6497
363.0,0.5842
363.5,0.5387
364.0,0.6597
364.5,0.5648
365.0,0.5762
365.5,0.7242
366.0,0.7683
366.5,0.7228
367.0,0.705
367.5,0.7328
368.0,0.6422
368.5,0.6489
369.0,0.7018
369.5,0.7491
370.0,0.7997
370.5,0.6215
371.0,0.665
371.5,0.8333
372.0,0.554
372.5,0.6651
373.0,0.6774
373.5,0.4413
374.0,0.6421
374.5,0.5324
375.0,0.5183
375.5,0.775
376.0,0.6435
376.5,0.6679
377.0,0.7079
377.5,0.8293
378.0,0.9004
378.5,0.8525
379.0,0.7048
379.5,0.645
380.0,0.6717
380.5,0.8145
381.0,0.8171
381.5,0.6484
382.0,0.5764
382.5,0.4918
383.0,0.4559
383.5,0.4395
384.0,0.4855
384.5,0.7149
385.0,0.7097
385.5,0.6617
386.0,0.5674
386.5,0.746
387.0,0.6208
387.5,0.6982
388.0,0.6454
388.5,0.6386
389.0,0.6903
389.5,0.837
390.0,0.841
390.5,0.7749
391.0,0.9131
391.5,0.9325
392.0,0.7864
392.5,0.7047
393.0,0.3925
393.5,0.2856
394.0,0.5818
394.5,0.7403
395.0,0.9044
395.5,0.9199
396.0,0.7984
396.5,0.4671
397.0,0.3509
397.5,0.7144
398.0,1.002
398.5,1.037
399.0,1.123
399.5,1.12
400.0,1.165
401.0,1.199
402.0,1.266
403.0,1.205
404.0,1.189
405.0,1.191
406.0,1.173
407.0,1.156
408.0,1.203
409.0,1.29
410.0,1.129
411.0,1.224
412.0,1.316
413.0,1.286
414.0,1.304
415.0,1.309
416.0,1.333
417.0,1.302
418.0,1.28
419.0,1.299
420.0,1.295
421.0,1.357
422.0,1.292
423.0,1.264
424.0,1.339
425.0,1.338
426.0,1.304
427.0,1.281
428.0,1.25
429.0,1.185
430.0,1.038
431.0,1.031
432.0,1.332
433.0,1.341
434.0,1.247
435.0,1.304
436.0,1.47
437.0,1.451
438.0,1.322
439.0,1.371
440.0,1.415
441.0,1.467
442.0,1.575
443.0,1.538
444.0,1.572
445.0,1.54
446.0,1.47
447.0,1.59
448.0,1.618
449.0,1.625
450.0,1.671
451.0,1.735
452.0,1.673
453.0,1.575
454.0,1.645
455.0,1.657
456.0,1.698
457.0,1.728
458.0,1.672
459.0,1.664
460.0,1.671
461.0,1.711
462.0,1.725
463.0,1.715
464.0,1.686
465.0,1.665
466.0,1.682
467.0,1.654
468.0,1.675
469.0,1.686
470.0,1.634
471.0,1.633
472.0,1.722
473.0,1.702
474.0,1.708
475.0,1.725
476.0,1.678
477.0,1.685
478.0,1.733
479.0,1.723
480.0,1.726
481.0,1.758
482.0,1.767
483.0,1.745
484.0,1.71
485.0,1.63
486.0,1.425
487.0,1.494
488.0,1.64
489.0,1.647
490.0,1.733
491.0,1.704
492.0,1.61
493.0,1.664
494.0,1.682
495.0,1.697
496.0,1.709
497.0,1.737
498.0,1.657
499.0,1.68
500.0,1.633
501.0,1.605
502.0,1.586
503.0,1.655
504.0,1.621
505.0,1.674
506.0,1.73
507.0,1.647
508.0,1.594
509.0,1.639
510.0,1.63
511.0,1.673
512.0,1.692
513.0,1.602
514.0,1.591
515.0,1.576
516.0,1.574
517.0,1.399
518.0,1.472
519.0,1.545
520.0,1.602
521.0,1.618
522.0,1.621
523.0,1.594
524.0,1.653
525.0,1.675
526.0,1.601
527.0,1.511
528.0,1.6
529.0,1.689
530.0,1.666
531.0,1.692
532.0,1.635
533.0,1.588
534.0,1.635
535.0,1.671
536.0,1.686
537.0,1.62
538.0,1.649
539.0,1.636
540.0,1.57
541.0,1.583
542.0,1.634
543.0,1.616
544.0,1.647
545.0,1.642
546.0,1.652
547.0,1.65
548.0,1.63
549.0,1.636
550.0,1.656
551.0,1.636
552.0,1.648
553.0,1.62
554.0,1.659
555.0,1.664
556.0,1.643
557.0,1.594
558.0,1.583
559.0,1.556
560.0,1.576
561.0,1.599
562.0,1.589
563.0,1.634
564.0,1.592
565.0,1.58
566.0,1.558
567.0,1.59
568.0,1.58
569.0,1.55
570.0,1.549
571.0,1.539
572.0,1.581
573.0,1.599
574.0,1.596
575.0,1.568
576.0,1.554
577.0,1.571
578.0,1.546
579.0,1.55
580.0,1.575
581.0,1.58
582.0,1.607
583.0,1.609
584.0,1.621
585.0,1.581
586.0,1.549
587.0,1.586
588.0,1.557
589.0,1.398
590.0,1.461
591.0,1.536
592.0,1.523
593.0,1.538
594.0,1.532
595.0,1.5
596.0,1.545
597.0,1.532
598.0,1.525
599.0,1.524
600.0,1.523
601.0,1.509
602.0,1.498
603.0,1.522
604.0,1.547
605.0,1.539
606.0,1.532
607.0,1.546
608.0,1.528
609.0,1.53
610.0,1.518
611.0,1.525
612.0,1.521
613.0,1.501
614.0,1.48
615.0,1.511
616.0,1.461
617.0,1.458
618.0,1.514
619.0,1.498
620.0,1.508
621.0,1.511
622.0,1.495
623.0,1.474
624.0,1.448
625.0,1.445
626.0,1.467
627.0,1.487
628.0,1.427
629.0,1.466
630.0,1.434
631.0,1.454
632.0,1.435
633.0,1.473
634.0,1.455
635.0,1.476
636.0,1.455
637.0,1.477
638.0,1.489
639.0,1.471
640.0,1.456
641.0,1.454
642.0,1.446
643.0,1.466
644.0,1.46
645.0,1.463
646.0,1.434
647.0,1.428
648.0,1.431
649.0,1.404
650.0,1.398
651.0,1.456
652.0,1.411
653.0,1.437
654.0,1.42
655.0,1.375
656.0,1.213
657.0,1.246
658.0,1.393
659.0,1.401
660.0,1.406
661.0,1.416
662.0,1.422
663.0,1.393
664.0,1.406
665.0,1.405
666.0,1.405
667.0,1.402
668.0,1.402
669.0,1.423
670.0,1.416
671.0,1.416
672.0,1.403
673.0,1.424
674.0,1.419
675.0,1.405
676.0,1.415
677.0,1.401
678.0,1.404
679.0,1.381
680.0,1.392
681.0,1.383
682.0,1.382
683.0,1.379
684.0,1.373
685.0,1.384
686.0,1.377
687.0,1.084
688.0,1.186
689.0,1.188
690.0,1.219
691.0,1.253
692.0,1.275
693.0,1.268
694.0,1.259
695.0,1.291
696.0,1.294
697.0,1.346
698.0,1.326
699.0,1.312
700.0,1.296
701.0,1.288
702.0,1.291
703.0,1.294
704.0,1.325
705.0,1.327
706.0,1.322
707.0,1.322
708.0,1.326
709.0,1.322
710.0,1.325
711.0,1.321
712.0,1.315
713.0,1.304
714.0,1.309
715.0,1.274
716.0,1.276
717.0,1.17
718.0,1.088
719.0,1.006
720.0,1.057
721.0,1.126
722.0,1.243
723.0,1.181
724.0,1.091
725.0,1.083
726.0,1.127
727.0,1.13
728.0,1.082
729.0,1.1
730.0,1.161
731.0,1.12
732.0,1.173
733.0,1.219
734.0,1.242
735.0,1.219
736.0,1.217
737.0,1.223
738.0,1.228
739.0,1.204
740.0,1.231
741.0,1.216
742.0,1.215
743.0,1.245
744.0,1.24
745.0,1.239
746.0,1.245
747.0,1.248
748.0,1.245
749.0,1.231
750.0,1.23
751.0,1.218
752.0,1.223
753.0,1.229
754.0,1.232
755.0,1.225
756.0,1.225
757.0,1.227
758.0,1.212
759.0,1.196
760.0,0.4071
761.0,0.2755
762.0,0.7929
763.0,0.5255
764.0,0.6708
765.0,0.7939
766.0,0.8837
767.0,1.03
768.0,1.125
769.0,1.135
770.0,1.158
771.0,1.161
772.0,1.161
773.0,1.169
774.0,1.163
775.0,1.154
776.0,1.168
777.0,1.152
778.0,1.146
779.0,1.147
780.0,1.14
781.0,1.141
782.0,1.149
783.0,1.128
784.0,1.134
785.0,1.126
786.0,1.139
787.0,1.126
788.0,1.115
789.0,1.116
790.0,1.096
791.0,1.096
792.0,1.087
793.0,1.071
794.0,1.079
795.0,1.1
796.0,1.079
797.0,1.081
798.0,1.1
799.0,1.095
800.0,1.08
801.0,1.079
802.0,1.076
803.0,1.069
804.0,1.069
805.0,1.063
806.0,1.086
807.0,1.075
808.0,1.075
809.0,1.06
810.0,1.055
811.0,1.062
812.0,1.041
813.0,1.026
814.0,0.9356
815.0,0.9292
816.0,0.871
817.0,0.8822
818.0,0.8567
819.0,0.928
820.0,0.886
821.0,0.9958
822.0,0.9742
823.0,0.7287
824.0,0.9589
825.0,0.9815
826.0,0.956
827.0,0.9961
828.0,0.8803
829.0,0.948
830.0,0.9396
831.0,0.9414
832.0,0.9193
833.0,0.9586
834.0,0.9366
835.0,1.004
836.0,0.9763
837.0,1.006
838.0,0.981
839.0,0.9895
840.0,1.01
841.0,0.9982
842.0,0.996
843.0,0.9911
844.0,0.9799
845.0,1.01
846.0,1.005
847.0,0.9845
848.0,0.9804
849.0,0.9527
850.0,0.9125
851.0,0.9684
852.0,0.9607
853.0,0.9231
854.0,0.7985
855.0,0.8753
856.0,0.9575
857.0,0.9776
858.0,0.971
859.0,0.971
860.0,0.9722
861.0,0.9672
862.0,0.9821
863.0,1.005
864.0,0.9551
865.0,0.9466
866.0,0.8512
867.0,0.8883
868.0,0.9666
869.0,0.9465
870.0,0.9735
871.0,0.9604
872.0,0.9569
873.0,0.955
874.0,0.9437
875.0,0.9247
876.0,0.9345
877.0,0.9439
878.0,0.9545
879.0,0.9398
880.0,0.9197
881.0,0.9069
882.0,0.9269
883.0,0.9289
884.0,0.9251
885.0,0.9321
886.0,0.8918
887.0,0.8987
888.0,0.9138
889.0,0.9211
890.0,0.9171
891.0,0.9137
892.0,0.8919
893.0,0.8703
894.0,0.8509
895.0,0.8186
896.0,0.7794
897.0,0.6912
898.0,0.7411
899.0,0.5916
900.0,0.7464
901.0,0.6179
902.0,0.6899
903.0,0.7075
904.0,0.845
905.0,0.8228
906.0,0.7759
907.0,0.6618
908.0,0.6711
909.0,0.711
910.0,0.6562
911.0,0.6837
912.0,0.7074
913.0,0.6672
914.0,0.6571
915.0,0.7075
916.0,0.6099
917.0,0.7409
918.0,0.6255
919.0,0.7483
920.0,0.7437
921.0,0.7686
922.0,0.7069
923.0,0.7419
924.0,0.7247
925.0,0.7101
926.0,0.7171
927.0,0.784
928.0,0.6293
929.0,0.5893
930.0,0.4885
931.0,0.4581
932.0,0.3553
933.0,0.3041
934.0,0.1993
935.0,0.2985
936.0,0.2065
937.0,0.2129
938.0,0.2532
939.0,0.4441
940.0,0.5167
941.0,0.4143
942.0,0.463
943.0,0.3243
944.0,0.3253
945.0,0.4233
946.0,0.2426
947.0,0.4316
948.0,0.3228
949.0,0.5501
950.0,0.1982
951.0,0.5374
952.0,0.3256
953.0,0.3964
954.0,0.4601
955.0,0.3978
956.0,0.3778
957.0,0.3299
958.0,0.496
959.0,0.4208
960.0,0.47
961.0,0.5076
962.0,0.4836
963.0,0.5396
964.0,0.5009
965.0,0.5351
966.0,0.5399
967.0,0.5389
968.0,0.6649
969.0,0.697
970.0,0.6493
971.0,0.7181
972.0,0.6918
973.0,0.6272
974.0,0.5999
975.0,0.6124
976.0,0.5943
977.0,0.651
978.0,0.629
979.0,0.6502
980.0,0.6175
981.0,0.713
982.0,0.6905
983.0,0.6684
984.0,0.7251
985.0,0.6875
986.0,0.7323
987.0,0.7236
988.0,0.7225
989.0,0.7267
990.0,0.7174
991.0,0.7296
992.0,0.7332
993.0,0.7226
994.0,0.7324
995.0,0.7307
996.0,0.7284
997.0,0.729
998.0,0.7259
999.0,0.723
1000.0,0.7194
1001.0,0.7268
1002.0,0.7126
1003.0,0.7144
1004.0,0.6984
1005.0,0.6708
1006.0,0.6981
1007.0,0.7123
1008.0,0.7095
1009.0,0.7069
1010.0,0.7046
1011.0,0.7086
1012.0,0.7037
1013.0,0.7066
1014.0,0.7017
1015.0,0.6973
1016.0,0.6943
1017.0,0.6963
1018.0,0.693
1019.0,0.6804
1020.0,0.6897
1021.0,0.6884
1022.0,0.6839
1023.0,0.6913
1024.0,0.6846
1025.0,0.6901
1026.0,0.6877
1027.0,0.686
1028.0,0.6848
1029.0,0.6769
1030.0,0.6808
1031.0,0.6784
1032.0,0.6762
1033.0,0.6661
1034.0,0.666
1035.0,0.6681
1036.0,0.6719
1037.0,0.6609
1038.0,0.6639
1039.0,0.6637
1040.0,0.661
1041.0,0.6639
1042.0,0.6593
1043.0,0.6573
1044.0,0.6598
1045.0,0.651
1046.0,0.6439
1047.0,0.6499
1048.0,0.6536
1049.0,0.6515
1050.0,0.6487
1051.0,0.648
1052.0,0.6456
1053.0,0.6407
1054.0,0.6424
1055.0,0.6431
1056.0,0.6412
1057.0,0.6395
1058.0,0.6241
1059.0,0.6252
1060.0,0.6244
1061.0,0.6239
1062.0,0.6275
1063.0,0.6216
1064.0,0.6289
1065.0,0.6252
1066.0,0.6122
1067.0,0.6204
1068.0,0.6074
1069.0,0.5882
1070.0,0.6088
1071.0,0.6163
1072.0,0.6107
1073.0,0.6016
1074.0,0.6149
1075.0,0.5903
1076.0,0.6148
1077.0,0.6074
1078.0,0.5971
1079.0,0.6041
1080.0,0.5982
1081.0,0.5818
1082.0,0.586
1083.0,0.5865
1084.0,0.5824
1085.0,0.5989
1086.0,0.5572
1087.0,0.5669
1088.0,0.5871
1089.0,0.5749
1090.0,0.5669
1091.0,0.5869
1092.0,0.584
1093.0,0.5142
1094.0,0.5367
1095.0,0.5323
1096.0,0.5156
1097.0,0.5703
1098.0,0.5092
1099.0,0.5282
1100.0,0.5002
1101.0,0.5037
1102.0,0.4861
1103.0,0.4853
1104.0,0.4855
1105.0,0.518
1106.0,0.4297
1107.0,0.4986
1108.0,0.443
1109.0,0.44
1110.0,0.4964
1111.0,0.3652
1112.0,0.4351
1113.0,0.3075
1114.0,0.3392
1115.0,0.2822
1116.0,0.2451
1117.0,0.1143
1118.0,0.2583
1119.0,0.1466
1120.0,0.184
1121.0,0.2319
1122.0,0.1139
1123.0,0.1659
1124.0,0.1403
1125.0,0.1786
1126.0,0.07885
1127.0,0.1999
1128.0,0.1372
1129.0,0.1424
1130.0,0.1031
1131.0,0.3388
1132.0,0.2736
1133.0,0.1942
1134.0,0.06496
1135.0,0.0239
1136.0,0.1696
1137.0,0.3378
1138.0,0.2439
1139.0,0.3264
1140.0,0.287
1141.0,0.2318
1142.0,0.2583
1143.0,0.3511
1144.0,0.1434
1145.0,0.1865
1146.0,0.2014
1147.0,0.08889
1148.0,0.3042
1149.0,0.2551
1150.0,0.1542
1151.0,0.2424
1152.0,0.2843
1153.0,0.267
1154.0,0.1858
1155.0,0.341
1156.0,0.3141
1157.0,0.3431
1158.0,0.3386
1159.0,0.3555
1160.0,0.3164
1161.0,0.3685
1162.0,0.3717
1163.0,0.4677
1164.0,0.414
1165.0,0.4017
1166.0,0.3918
1167.0,0.4202
1168.0,0.4268
1169.0,0.4324
1170.0,0.4604
1171.0,0.4509
1172.0,0.4538
1173.0,0.4595
1174.0,0.356
1175.0,0.4453
1176.0,0.4772
1177.0,0.4658
1178.0,0.3711
1179.0,0.4805
1180.0,0.4429
1181.0,0.4552
1182.0,0.3371
1183.0,0.445
1184.0,0.4247
1185.0,0.416
1186.0,0.472
1187.0,0.4559
1188.0,0.3441
1189.0,0.4266
1190.0,0.4614
1191.0,0.4485
1192.0,0.4666
1193.0,0.4511
1194.0,0.4622
1195.0,0.4444
1196.0,0.433
1197.0,0.4581
1198.0,0.4257
1199.0,0.3795
1200.0,0.4461
1201.0,0.436
1202.0,0.4306
1203.0,0.4266
1204.0,0.3837
1205.0,0.4354
1206.0,0.4709
1207.0,0.4309
1208.0,0.419
1209.0,0.4263
1210.0,0.4401
1211.0,0.4259
1212.0,0.4275
1213.0,0.4589
1214.0,0.4342
1215.0,0.4278
1216.0,0.4572
1217.0,0.4484
1218.0,0.4538
1219.0,0.4497
1220.0,0.4538
1221.0,0.4565
1222.0,0.4468
1223.0,0.4439
1224.0,0.4434
1225.0,0.4537
1226.0,0.4548
1227.0,0.428
1228.0,0.4554
1229.0,0.4547
1230.0,0.4486
1231.0,0.4562
1232.0,0.4537
1233.0,0.4445
1234.0,0.4545
1235.0,0.4525
1236.0,0.4551
1237.0,0.4512
1238.0,0.4535
1239.0,0.4478
1240.0,0.4492
1241.0,0.4486
1242.0,0.4463
1243.0,0.4425
1244.0,0.4462
1245.0,0.4478
1246.0,0.4451
1247.0,0.4438
1248.0,0.4443
1249.0,0.445
1250.0,0.4428
1251.0,0.4381
1252.0,0.4369
1253.0,0.4356
1254.0,0.433
1255.0,0.4371
1256.0,0.4289
1257.0,0.4274
1258.0,0.4321
1259.0,0.4229
1260.0,0.4243
1261.0,0.4086
1262.0,0.4007
1263.0,0.4017
1264.0,0.3811
1265.0,0.399
1266.0,0.3899
1267.0,0.3926
1268.0,0.379
1269.0,0.2839
1270.0,0.3928
1271.0,0.4063
1272.0,0.4066
1273.0,0.4033
1274.0,0.4034
1275.0,0.4077
1276.0,0.41
1277.0,0.411
1278.0,0.4154
1279.0,0.412
1280.0,0.4066
1281.0,0.3865
1282.0,0.3699
1283.0,0.3989
1284.0,0.409
1285.0,0.4113
1286.0,0.4154
1287.0,0.4116
1288.0,0.4109
1289.0,0.4029
1290.0,0.4069
1291.0,0.4117
1292.0,0.3963
1293.0,0.4061
1294.0,0.4038
1295.0,0.404
1296.0,0.392
1297.0,0.3761
1298.0,0.3947
1299.0,0.4057
1300.0,0.3613
1301.0,0.3686
1302.0,0.393
1303.0,0.3546
1304.0,0.3196
1305.0,0.3865
1306.0,0.3873
1307.0,0.3208
1308.0,0.3526
1309.0,0.3854
1310.0,0.3154
1311.0,0.3419
1312.0,0.3354
1313.0,0.3314
1314.0,0.3031
1315.0,0.3029
1316.0,0.3392
1317.0,0.3233
1318.0,0.3443
1319.0,0.2901
1320.0,0.2766
1321.0,0.3148
1322.0,0.3206
1323.0,0.2592
1324.0,0.2845
1325.0,0.3351
1326.0,0.299
1327.0,0.288
1328.0,0.2542
1329.0,0.2062
1330.0,0.26
1331.0,0.1771
1332.0,0.1758
1333.0,0.2384
1334.0,0.1956
1335.0,0.2576
1336.0,0.2133
1337.0,0.1954
1338.0,0.2098
1339.0,0.2066
1340.0,0.1963
1341.0,0.2022
1342.0,0.2118
1343.0,0.1686
1344.0,0.1015
1345.0,0.1416
1346.0,0.08945
1347.0,0.09393
1348.0,0.01157
1349.0,0.03392
1350.0,0.03063
1351.0,0.01299
1352.0,0.005909
1353.0,0.0006141
1354.0,0.001408
1355.0,4.306e-05
1356.0,0.0003221
1357.0,0.0004749
1358.0,4.838e-05
1359.0,1.544e-05
1360.0,3.09e-05
1361.0,2.787e-07
1362.0,2.123e-09
1363.0,4.853e-05
1364.0,2.394e-05
1365.0,2.076e-09
1366.0,0.0001626
1367.0,6.387e-05
1368.0,1.332e-10
1369.0,9.819e-06
1370.0,7.106e-06
1371.0,7.127e-07
1372.0,3.607e-05
1373.0,0.0003587
1374.0,0.001055
1375.0,0.001808
1376.0,0.001244
1377.0,0.0006439
1378.0,0.004686
1379.0,0.0002839
1380.0,0.0005135
1381.0,1.963e-05
1382.0,3.607e-05
1383.0,8.913e-07
1384.0,1.269e-05
1385.0,2.288e-05
1386.0,4.115e-05
1387.0,0.001317
1388.0,3.264e-05
1389.0,0.002868
1390.0,0.002411
1391.0,0.001853
1392.0,0.0001558
1393.0,0.0006229
1394.0,0.0006142
1395.0,8.911e-06
1396.0,3.099e-07
1397.0,0.0003021
1398.0,0.005358
1399.0,0.00347
1400.0,2.212e-07
1401.0,4.574e-07
1402.0,0.005577
1403.0,0.007648
1404.0,0.00246
1405.0,6.094e-06
1406.0,0.00732
1407.0,0.0006546
1408.0,0.005892
1409.0,0.002729
1410.0,0.001931
1411.0,0.006637
1412.0,0.007675
1413.0,0.04587
1414.0,0.001482
1415.0,0.000846
1416.0,0.05902
1417.0,0.02498
1418.0,0.0279
1419.0,0.004795
1420.0,0.01748
1421.0,0.02005
1422.0,0.07433
1423.0,0.01668
1424.0,0.02945
1425.0,0.04487
1426.0,0.04564
1427.0,0.07099
1428.0,0.0113
1429.0,0.05829
1430.0,0.08684
1431.0,0.09223
1432.0,0.009181
1433.0,0.06353
1434.0,0.03487
1435.0,0.04313
1436.0,0.06924
1437.0,0.05363
1438.0,0.02668
1439.0,0.08788
1440.0,0.06713
1441.0,0.05731
1442.0,0.06135
1443.0,0.06786
1444.0,0.09108
1445.0,0.07804
1446.0,0.03731
1447.0,0.05936
1448.0,0.1472
1449.0,0.1351
1450.0,0.04404
1451.0,0.01998
1452.0,0.08794
1453.0,0.1108
1454.0,0.1669
1455.0,0.08765
1456.0,0.1215
1457.0,0.1483
1458.0,0.1617
1459.0,0.1931
1460.0,0.1083
1461.0,0.1183
1462.0,0.1622
1463.0,0.06128
1464.0,0.1813
1465.0,0.1115
1466.0,0.09184
1467.0,0.05596
1468.0,0.1043
1469.0,0.1236
1470.0,0.07295
1471.0,0.02959
1472.0,0.07028
