interpolation:linear
wavelength,value
280.0,6.914999999999999e-23
280.5,1.965e-21
281.0,1.0170000000000001e-20
281.5,2.817e-19
282.0,2.087e-18
282.5,7.624e-18
283.0,3.187e-17
283.5,5.85e-17
284.0,1.308e-15
284.5,4.227e-15
285.0,9.229e-15
285.5,6.525e-14
286.0,2.958e-13
286.5,1.582e-12
287.0,5.052e-12
287.5,2.161e-11
288.0,8.923e-11
288.5,3.381e-10
289.0,1.079e-09
289.5,3.799e-09
290.0,1.178e-08
290.5,2.621e-08
291.0,6.144e-08
291.5,1.929e-07
292.0,4.707e-07
292.5,6.933e-07
293.0,1.563e-06
293.5,4.012e-06
294.0,6.564e-06
294.5,1.135e-05
295.0,1.953e-05
295.5,4.594e-05
296.0,8.102e-05
296.5,0.0001036
297.0,0.0001302
297.5,0.0003116
298.0,0.0004459
298.5,0.0004164
299.0,0.0008533
299.5,0.001239
300.0,0.001269
300.5,0.001706
301.0,0.002727
301.5,0.003887
302.0,0.003154
302.5,0.005854
303.0,0.009825
303.5,0.01186
304.0,0.01082
304.5,0.01482
305.0,0.01988
305.5,0.02114
306.0,0.01996
306.5,0.02376
307.0,0.03173
307.5,0.03819
308.0,0.03988
308.5,0.04501
309.0,0.03981
309.5,0.04351
310.0,0.04285
310.5,0.0689
311.0,0.08503
311.5,0.08171
312.0,0.07807
312.5,0.09223
313.0,0.0987
313.5,0.09802
314.0,0.118
314.5,0.09912
315.0,0.1295
315.5,0.1121
316.0,0.09366
316.5,0.1294
317.0,0.1616
317.5,0.1711
318.0,0.1301
318.5,0.1532
319.0,0.1773
319.5,0.1522
320.0,0.186
320.5,0.2203
321.0,0.1867
321.5,0.1787
322.0,0.2028
322.5,0.1766
323.0,0.17
323.5,0.1966
324.0,0.2288
324.5,0.2375
325.0,0.2161
325.5,0.2705
326.0,0.3193
326.5,0.3137
327.0,0.3166
327.5,0.3104
328.0,0.2861
328.5,0.2909
329.0,0.3395
329.5,0.3835
330.0,0.3911
330.5,0.3214
331.0,0.3313
331.5,0.3323
332.0,0.3516
332.5,0.3453
333.0,0.3479
333.5,0.3218
334.0,0.3318
334.5,0.3764
335.0,0.3509
335.5,0.3988
336.0,0.2768
336.5,0.3375
337.0,0.2802
337.5,0.3508
338.0,0.338
338.5,0.382
339.0,0.3813
339.5,0.3666
340.0,0.4422
340.5,0.3993
341.0,0.3834
341.5,0.3562
342.0,0.4278
342.5,0.4022
343.0,0.4418
343.5,0.416
344.0,0.3127
344.5,0.3099
345.0,0.4157
345.5,0.4271
346.0,0.3647
346.5,0.4146
347.0,0.445
347.5,0.3604
348.0,0.4137
348.5,0.4155
349.0,0.3867
349.5,0.3838
350.0,0.4761
350.5,0.5035
351.0,0.4504
351.5,0.4369
352.0,0.472
352.5,0.3701
353.0,0.4677
353.5,0.5018
354.0,0.5226
354.5,0.5315
355.0,0.5309
355.5,0.4809
356.0,0.5045
356.5,0.432
357.0,0.3579
357.5,0.4394
358.0,0.3492
358.5,0.2992
359.0,0.4195
359.5,0.5357
360.0,0.5694
360.5,0.4564
361.0,0.4171
361.5,0.4811
362.0,0.4168
362.5,0.578
363.0,0.5201
363.5,0.48
364.0,0.5882
364.5,0.5039
365.0,0.5144
365.5,0.647
366.0,0.6868
366.5,0.6466
367.0,0.6311
367.5,0.6564
368.0,0.5756
368.5,0.5819
369.0,0.6298
369.5,0.6726
370.0,0.7185
370.5,0.5588
371.0,0.5982
371.5,0.75
372.0,0.4989
372.5,0.5993
373.0,0.6107
373.5,0.3981
374.0,0.5796
374.5,0.4809
375.0,0.4684
375.5,0.7007
376.0,0.582
376.5,0.6044
377.0,0.641
377.5,0.7513
378.0,0.8161
378.5,0.773
379.0,0.6394
379.5,0.5854
380.0,0.6098
380.5,0.7399
381.0,0.7428
381.5,0.5898
382.0,0.5246
382.5,0.4479
383.0,0.4154
383.5,0.4008
384.0,0.4428
384.5,0.6524
385.0,0.6481
385.5,0.6045
386.0,0.5186
386.5,0.6823
387.0,0.568
387.5,0.6391
388.0,0.591
388.5,0.5852
389.0,0.6327
389.5,0.7676
390.0,0.7716
390.5,0.7112
391.0,0.8385
391.5,0.8567
392.0,0.7228
392.5,0.6481
393.0,0.3611
393.5,0.2629
394.0,0.5357
394.5,0.682
395.0,0.8335
395.5,0.8481
396.0,0.7364
396.5,0.431
397.0,0.3239
397.5,0.6598
398.0,0.9255
398.5,0.958
399.0,1.038
399.5,1.036
400.0,1.078
401.0,1.11
402.0,1.174
403.0,1.118
404.0,1.103
405.0,1.106
406.0,1.09
407.0,1.075
408.0,1.12
409.0,1.202
410.0,1.052
411.0,1.142
412.0,1.229
413.0,1.201
414.0,1.219
415.0,1.224
416.0,1.248
417.0,1.22
418.0,1.2
419.0,1.218
420.0,1.216
421.0,1.274
422.0,1.214
423.0,1.188
424.0,1.259
425.0,1.259
426.0,1.228
427.0,1.207
428.0,1.178
429.0,1.118
430.0,0.9797
431.0,0.9733
432.0,1.258
433.0,1.268
434.0,1.179
435.0,1.234
436.0,1.392
437.0,1.374
438.0,1.253
439.0,1.299
440.0,1.343
441.0,1.393
442.0,1.496
443.0,1.46
444.0,1.494
445.0,1.464
446.0,1.399
447.0,1.513
448.0,1.54
449.0,1.548
450.0,1.593
451.0,1.654
452.0,1.596
453.0,1.503
454.0,1.57
455.0,1.582
456.0,1.622
457.0,1.651
458.0,1.598
459.0,1.592
460.0,1.599
461.0,1.637
462.0,1.651
463.0,1.642
464.0,1.616
465.0,1.596
466.0,1.613
467.0,1.586
468.0,1.607
469.0,1.618
470.0,1.568
471.0,1.568
472.0,1.654
473.0,1.635
474.0,1.64
475.0,1.657
476.0,1.611
477.0,1.619
478.0,1.665
479.0,1.656
480.0,1.66
481.0,1.692
482.0,1.701
483.0,1.681
484.0,1.648
485.0,1.571
486.0,1.374
487.0,1.441
488.0,1.583
489.0,1.59
490.0,1.673
491.0,1.645
492.0,1.555
493.0,1.608
494.0,1.625
495.0,1.64
496.0,1.652
497.0,1.679
498.0,1.602
499.0,1.625
500.0,1.58
501.0,1.553
502.0,1.534
503.0,1.6
504.0,1.566
505.0,1.619
506.0,1.673
507.0,1.593
508.0,1.543
509.0,1.587
510.0,1.578
511.0,1.621
512.0,1.639
513.0,1.553
514.0,1.543
515.0,1.529
516.0,1.526
517.0,1.357
518.0,1.428
519.0,1.499
520.0,1.555
521.0,1.571
522.0,1.574
523.0,1.547
524.0,1.604
525.0,1.625
526.0,1.554
527.0,1.467
528.0,1.553
529.0,1.639
530.0,1.617
531.0,1.642
532.0,1.587
533.0,1.541
534.0,1.587
535.0,1.622
536.0,1.638
537.0,1.574
538.0,1.602
539.0,1.59
540.0,1.525
541.0,1.538
542.0,1.588
543.0,1.571
544.0,1.6
545.0,1.596
546.0,1.605
547.0,1.604
548.0,1.585
549.0,1.591
550.0,1.61
551.0,1.591
552.0,1.603
553.0,1.576
554.0,1.615
555.0,1.619
556.0,1.599
557.0,1.551
558.0,1.541
559.0,1.513
560.0,1.534
561.0,1.555
562.0,1.545
563.0,1.59
564.0,1.548
565.0,1.536
566.0,1.515
567.0,1.545
568.0,1.535
569.0,1.504
570.0,1.504
571.0,1.494
572.0,1.534
573.0,1.552
574.0,1.548
575.0,1.521
576.0,1.508
577.0,1.524
578.0,1.501
579.0,1.505
580.0,1.531
581.0,1.537
582.0,1.564
583.0,1.566
584.0,1.579
585.0,1.541
586.0,1.51
587.0,1.545
588.0,1.514
589.0,1.355
590.0,1.416
591.0,1.492
592.0,1.478
593.0,1.495
594.0,1.487
595.0,1.455
596.0,1.503
597.0,1.49
598.0,1.484
599.0,1.484
600.0,1.484
601.0,1.471
602.0,1.461
603.0,1.485
604.0,1.509
605.0,1.502
606.0,1.495
607.0,1.509
608.0,1.492
609.0,1.494
610.0,1.483
611.0,1.491
612.0,1.486
613.0,1.468
614.0,1.447
615.0,1.478
616.0,1.43
617.0,1.427
618.0,1.482
619.0,1.467
620.0,1.476
621.0,1.479
622.0,1.463
623.0,1.442
624.0,1.417
625.0,1.414
626.0,1.436
627.0,1.454
628.0,1.385
629.0,1.43
630.0,1.398
631.0,1.421
632.0,1.403
633.0,1.443
634.0,1.426
635.0,1.447
636.0,1.427
637.0,1.45
638.0,1.462
639.0,1.445
640.0,1.43
641.0,1.429
642.0,1.422
643.0,1.441
644.0,1.436
645.0,1.439
646.0,1.409
647.0,1.4
648.0,1.402
649.0,1.376
650.0,1.374
651.0,1.432
652.0,1.383
653.0,1.413
654.0,1.397
655.0,1.35
656.0,1.193
657.0,1.225
658.0,1.371
659.0,1.38
660.0,1.385
661.0,1.395
662.0,1.4
663.0,1.372
664.0,1.386
665.0,1.385
666.0,1.386
667.0,1.384
668.0,1.384
669.0,1.405
670.0,1.399
671.0,1.398
672.0,1.386
673.0,1.407
674.0,1.402
675.0,1.389
676.0,1.398
677.0,1.384
678.0,1.388
679.0,1.366
680.0,1.377
681.0,1.368
682.0,1.366
683.0,1.364
684.0,1.357
685.0,1.369
686.0,1.361
687.0,1.02
688.0,1.139
689.0,1.141
690.0,1.179
691.0,1.22
692.0,1.248
693.0,1.24
694.0,1.231
695.0,1.268
696.0,1.27
697.0,1.33
698.0,1.31
699.0,1.291
700.0,1.275
701.0,1.266
702.0,1.271
703.0,1.273
704.0,1.307
705.0,1.31
706.0,1.306
707.0,1.306
708.0,1.31
709.0,1.307
710.0,1.31
711.0,1.307
712.0,1.301
713.0,1.29
714.0,1.295
715.0,1.258
716.0,1.26
717.0,1.136
718.0,1.052
719.0,0.9691
720.0,1.018
721.0,1.096
722.0,1.225
723.0,1.156
724.0,1.059
725.0,1.049
726.0,1.094
727.0,1.1
728.0,1.048
729.0,1.072
730.0,1.133
731.0,1.09
732.0,1.149
733.0,1.201
734.0,1.225
735.0,1.202
736.0,1.201
737.0,1.206
738.0,1.215
739.0,1.191
740.0,1.219
741.0,1.206
742.0,1.205
743.0,1.235
744.0,1.231
745.0,1.231
746.0,1.236
747.0,1.239
748.0,1.236
749.0,1.222
750.0,1.222
751.0,1.21
752.0,1.215
753.0,1.221
754.0,1.224
755.0,1.217
756.0,1.217
757.0,1.219
758.0,1.204
759.0,1.185
760.0,0.3264
761.0,0.2046
762.0,0.7279
763.0,0.4433
764.0,0.5943
765.0,0.7287
766.0,0.8352
767.0,0.9971
768.0,1.107
769.0,1.121
770.0,1.148
771.0,1.153
772.0,1.154
773.0,1.162
774.0,1.156
775.0,1.147
776.0,1.161
777.0,1.146
778.0,1.139
779.0,1.14
780.0,1.134
781.0,1.135
782.0,1.142
783.0,1.122
784.0,1.128
785.0,1.12
786.0,1.133
787.0,1.117
788.0,1.106
789.0,1.106
790.0,1.083
791.0,1.086
792.0,1.078
793.0,1.061
794.0,1.072
795.0,1.092
796.0,1.068
797.0,1.07
798.0,1.092
799.0,1.087
800.0,1.071
801.0,1.069
802.0,1.066
803.0,1.059
804.0,1.06
805.0,1.054
806.0,1.08
807.0,1.068
808.0,1.068
809.0,1.052
810.0,1.045
811.0,1.051
812.0,1.027
813.0,1.01
814.0,0.9107
815.0,0.9046
816.0,0.8456
817.0,0.8582
818.0,0.8311
819.0,0.9098
820.0,0.8646
821.0,0.9845
822.0,0.9608
823.0,0.6963
824.0,0.9418
825.0,0.9692
826.0,0.9403
827.0,0.9839
828.0,0.8579
829.0,0.9332
830.0,0.9237
831.0,0.926
832.0,0.9021
833.0,0.9472
834.0,0.9216
835.0,0.9959
836.0,0.9636
837.0,0.9982
838.0,0.9716
839.0,0.9823
840.0,1.003
841.0,0.9905
842.0,0.9897
843.0,0.9862
844.0,0.9743
845.0,1.005
846.0,1.0
847.0,0.9806
848.0,0.976
849.0,0.9483
850.0,0.9085
851.0,0.9634
852.0,0.956
853.0,0.9192
854.0,0.7947
855.0,0.8718
856.0,0.9533
857.0,0.9737
858.0,0.967
859.0,0.9673
860.0,0.9687
861.0,0.9636
862.0,0.9786
863.0,1.002
864.0,0.9517
865.0,0.9434
866.0,0.8483
867.0,0.8853
868.0,0.9634
869.0,0.9434
870.0,0.9703
871.0,0.9572
872.0,0.9538
873.0,0.9519
874.0,0.9407
875.0,0.9217
876.0,0.9314
877.0,0.9408
878.0,0.9513
879.0,0.9367
880.0,0.9167
881.0,0.9036
882.0,0.9234
883.0,0.9258
884.0,0.9218
885.0,0.9289
886.0,0.8876
887.0,0.8953
888.0,0.9098
889.0,0.9181
890.0,0.9129
891.0,0.9101
892.0,0.887
893.0,0.8633
894.0,0.8404
895.0,0.8037
896.0,0.762
897.0,0.6681
898.0,0.7211
899.0,0.5655
900.0,0.7304
901.0,0.5918
902.0,0.6725
903.0,0.6861
904.0,0.8346
905.0,0.8102
906.0,0.7619
907.0,0.639
908.0,0.6491
909.0,0.6933
910.0,0.6304
911.0,0.6617
912.0,0.6876
913.0,0.6406
914.0,0.6322
915.0,0.6831
916.0,0.5843
917.0,0.7217
918.0,0.5994
919.0,0.7307
920.0,0.7299
921.0,0.7567
922.0,0.6888
923.0,0.7304
924.0,0.7065
925.0,0.6917
926.0,0.6991
927.0,0.7708
928.0,0.5993
929.0,0.5563
930.0,0.4523
931.0,0.4259
932.0,0.3219
933.0,0.2703
934.0,0.1666
935.0,0.2695
936.0,0.1797
937.0,0.1839
938.0,0.2214
939.0,0.4128
940.0,0.4861
941.0,0.3813
942.0,0.4321
943.0,0.2957
944.0,0.3015
945.0,0.3908
946.0,0.2146
947.0,0.3964
948.0,0.2941
949.0,0.515
950.0,0.1683
951.0,0.5044
952.0,0.292
953.0,0.3634
954.0,0.4306
955.0,0.3659
956.0,0.349
957.0,0.2946
958.0,0.4726
959.0,0.3913
960.0,0.4379
961.0,0.4795
962.0,0.4555
963.0,0.5145
964.0,0.4751
965.0,0.5113
966.0,0.5141
967.0,0.5128
968.0,0.6522
969.0,0.6833
970.0,0.6329
971.0,0.709
972.0,0.6812
973.0,0.6086
974.0,0.5802
975.0,0.5959
976.0,0.574
977.0,0.6373
978.0,0.6121
979.0,0.636
980.0,0.6014
981.0,0.7044
982.0,0.6791
983.0,0.6553
984.0,0.7198
985.0,0.6764
986.0,0.7289
987.0,0.7185
988.0,0.7172
989.0,0.7246
990.0,0.7126
991.0,0.7272
992.0,0.731
993.0,0.7186
994.0,0.7305
995.0,0.729
996.0,0.7264
997.0,0.7272
998.0,0.7241
999.0,0.7213
1000.0,0.7171
1001.0,0.7251
1002.0,0.7089
1003.0,0.7125
1004.0,0.6961
1005.0,0.6693
1006.0,0.6962
1007.0,0.7106
1008.0,0.7074
1009.0,0.7044
1010.0,0.7018
1011.0,0.707
1012.0,0.7016
1013.0,0.7051
1014.0,0.7002
1015.0,0.6957
1016.0,0.6927
1017.0,0.6946
1018.0,0.6915
1019.0,0.6782
1020.0,0.6882
1021.0,0.687
1022.0,0.6822
1023.0,0.6895
1024.0,0.6821
1025.0,0.6886
1026.0,0.6861
1027.0,0.6844
1028.0,0.6831
1029.0,0.6752
1030.0,0.6793
1031.0,0.6768
1032.0,0.6747
1033.0,0.6646
1034.0,0.6646
1035.0,0.6667
1036.0,0.6704
1037.0,0.6594
1038.0,0.6624
1039.0,0.6621
1040.0,0.6595
1041.0,0.6623
1042.0,0.6577
1043.0,0.6557
1044.0,0.6581
1045.0,0.6493
1046.0,0.6422
1047.0,0.6481
1048.0,0.6518
1049.0,0.6496
1050.0,0.6467
1051.0,0.646
1052.0,0.6435
1053.0,0.6386
1054.0,0.6401
1055.0,0.6407
1056.0,0.6387
1057.0,0.637
1058.0,0.6215
1059.0,0.6224
1060.0,0.6216
1061.0,0.621
1062.0,0.6245
1063.0,0.6185
1064.0,0.6258
1065.0,0.6218
1066.0,0.6092
1067.0,0.6172
1068.0,0.6041
1069.0,0.5852
1070.0,0.6054
1071.0,0.6136
1072.0,0.6075
1073.0,0.5986
1074.0,0.6126
1075.0,0.5859
1076.0,0.6124
1077.0,0.6037
1078.0,0.5931
1079.0,0.602
1080.0,0.5945
1081.0,0.5773
1082.0,0.5832
1083.0,0.5842
1084.0,0.577
1085.0,0.5955
1086.0,0.5499
1087.0,0.5627
1088.0,0.5844
1089.0,0.5702
1090.0,0.5604
1091.0,0.5836
1092.0,0.5812
1093.0,0.5046
1094.0,0.5332
1095.0,0.5238
1096.0,0.5052
1097.0,0.5676
1098.0,0.4985
1099.0,0.5181
1100.0,0.4871
1101.0,0.4916
1102.0,0.4727
1103.0,0.4705
1104.0,0.4708
1105.0,0.5074
1106.0,0.4086
1107.0,0.486
1108.0,0.4243
1109.0,0.4227
1110.0,0.4832
1111.0,0.3447
1112.0,0.4185
1113.0,0.2843
1114.0,0.3154
1115.0,0.2621
1116.0,0.2205
1117.0,0.09414
1118.0,0.2355
1119.0,0.127
1120.0,0.16
1121.0,0.2058
1122.0,0.09555
1123.0,0.1443
1124.0,0.1219
1125.0,0.1566
1126.0,0.06356
1127.0,0.1758
1128.0,0.1148
1129.0,0.1202
1130.0,0.08373
1131.0,0.3111
1132.0,0.2483
1133.0,0.1692
1134.0,0.05109
1135.0,0.01882
1136.0,0.1454
1137.0,0.3088
1138.0,0.2205
1139.0,0.3071
1140.0,0.2649
1141.0,0.2095
1142.0,0.2363
1143.0,0.3265
1144.0,0.1255
1145.0,0.1628
1146.0,0.1757
1147.0,0.07142
1148.0,0.2829
1149.0,0.2327
1150.0,0.1346
1151.0,0.219
1152.0,0.2615
1153.0,0.249
1154.0,0.16
1155.0,0.3207
1156.0,0.293
1157.0,0.3228
1158.0,0.319
1159.0,0.3385
1160.0,0.2962
1161.0,0.3524
1162.0,0.355
1163.0,0.4586
1164.0,0.4012
1165.0,0.3855
1166.0,0.3781
1167.0,0.4078
1168.0,0.4138
1169.0,0.4208
1170.0,0.4514
1171.0,0.4412
1172.0,0.4457
1173.0,0.4504
1174.0,0.3387
1175.0,0.4376
1176.0,0.4731
1177.0,0.4592
1178.0,0.3579
1179.0,0.4766
1180.0,0.4343
1181.0,0.4472
1182.0,0.3227
1183.0,0.4384
1184.0,0.4155
1185.0,0.4049
1186.0,0.4666
1187.0,0.4486
1188.0,0.3293
1189.0,0.4189
1190.0,0.456
1191.0,0.4399
1192.0,0.4616
1193.0,0.4449
1194.0,0.4568
1195.0,0.4369
1196.0,0.424
1197.0,0.4543
1198.0,0.4196
1199.0,0.3682
1200.0,0.4397
1201.0,0.4279
1202.0,0.4233
1203.0,0.4198
1204.0,0.3737
1205.0,0.4298
1206.0,0.4683
1207.0,0.4233
1208.0,0.4133
1209.0,0.4209
1210.0,0.4359
1211.0,0.4195
1212.0,0.4192
1213.0,0.4553
1214.0,0.4269
1215.0,0.42
1216.0,0.4537
1217.0,0.4439
1218.0,0.4502
1219.0,0.4457
1220.0,0.4504
1221.0,0.4537
1222.0,0.4433
1223.0,0.44
1224.0,0.4388
1225.0,0.4509
1226.0,0.4526
1227.0,0.4231
1228.0,0.4537
1229.0,0.4526
1230.0,0.446
1231.0,0.4551
1232.0,0.4526
1233.0,0.4414
1234.0,0.4538
1235.0,0.4516
1236.0,0.4544
1237.0,0.4498
1238.0,0.4529
1239.0,0.4471
1240.0,0.4486
1241.0,0.4476
1242.0,0.4456
1243.0,0.4419
1244.0,0.4454
1245.0,0.4471
1246.0,0.4445
1247.0,0.4431
1248.0,0.4433
1249.0,0.4442
1250.0,0.4419
1251.0,0.4369
1252.0,0.4361
1253.0,0.4341
1254.0,0.4309
1255.0,0.4361
1256.0,0.4266
1257.0,0.4249
1258.0,0.4306
1259.0,0.4194
1260.0,0.421
1261.0,0.4029
1262.0,0.3938
1263.0,0.3947
1264.0,0.3712
1265.0,0.3921
1266.0,0.3813
1267.0,0.3852
1268.0,0.3698
1269.0,0.2611
1270.0,0.3849
1271.0,0.4009
1272.0,0.4016
1273.0,0.398
1274.0,0.3984
1275.0,0.4032
1276.0,0.406
1277.0,0.4074
1278.0,0.413
1279.0,0.4095
1280.0,0.4041
1281.0,0.3846
1282.0,0.3689
1283.0,0.3977
1284.0,0.4075
1285.0,0.4099
1286.0,0.4145
1287.0,0.4099
1288.0,0.4093
1289.0,0.3998
1290.0,0.4055
1291.0,0.4105
1292.0,0.3922
1293.0,0.4042
1294.0,0.4017
1295.0,0.4013
1296.0,0.3874
1297.0,0.3699
1298.0,0.3914
1299.0,0.4041
1300.0,0.3538
1301.0,0.3622
1302.0,0.3899
1303.0,0.3479
1304.0,0.3079
1305.0,0.3828
1306.0,0.3835
1307.0,0.3106
1308.0,0.3467
1309.0,0.3814
1310.0,0.3052
1311.0,0.3349
1312.0,0.3276
1313.0,0.323
1314.0,0.2932
1315.0,0.2918
1316.0,0.3314
1317.0,0.3152
1318.0,0.338
1319.0,0.2776
1320.0,0.2661
1321.0,0.3053
1322.0,0.3102
1323.0,0.2446
1324.0,0.2722
1325.0,0.3273
1326.0,0.288
1327.0,0.2765
1328.0,0.242
1329.0,0.1913
1330.0,0.244
1331.0,0.1593
1332.0,0.1603
1333.0,0.2198
1334.0,0.1816
1335.0,0.2435
1336.0,0.1985
1337.0,0.1793
1338.0,0.1933
1339.0,0.191
1340.0,0.1828
1341.0,0.1852
1342.0,0.1941
1343.0,0.1464
1344.0,0.08745
1345.0,0.1241
1346.0,0.07226
1347.0,0.07523
1348.0,0.007357
1349.0,0.02332
1350.0,0.02218
1351.0,0.007742
1352.0,0.002996
1353.0,0.0002396
1354.0,0.0006305
1355.0,1.217e-05
1356.0,0.0001219
1357.0,0.0001825
1358.0,1.392e-05
1359.0,3.286e-06
1360.0,7.974e-06
1361.0,3.537e-08
1362.0,1.84e-10
1363.0,1.235e-05
1364.0,5.577e-06
1365.0,1.309e-10
1366.0,4.539e-05
1367.0,1.751e-05
1368.0,4.231e-12
1369.0,2.195e-06
1370.0,1.406e-06
1371.0,1.145e-07
1372.0,9.728e-06
1373.0,0.0001244
1374.0,0.000428
1375.0,0.0007633
1376.0,0.0005596
1377.0,0.0002764
1378.0,0.002278
1379.0,0.0001189
1380.0,0.0002018
1381.0,6.596e-06
1382.0,9.428e-06
1383.0,1.905e-07
1384.0,2.734e-06
1385.0,6.733e-06
1386.0,9.997e-06
1387.0,0.000513
1388.0,1.116e-05
1389.0,0.001281
1390.0,0.001094
1391.0,0.0007925
1392.0,5.948e-05
1393.0,0.0002644
1394.0,0.000214
1395.0,2.371e-06
1396.0,4.27e-08
1397.0,0.0001195
1398.0,0.002611
1399.0,0.001665
1400.0,2.601e-08
1401.0,6.739e-08
1402.0,0.003173
1403.0,0.004255
1404.0,0.001341
1405.0,1.451e-06
1406.0,0.003876
1407.0,0.0003323
1408.0,0.003123
1409.0,0.001304
1410.0,0.0009389
1411.0,0.003701
1412.0,0.004501
1413.0,0.03297
1414.0,0.0007247
1415.0,0.0003889
1416.0,0.04583
1417.0,0.01703
1418.0,0.01944
1419.0,0.003195
1420.0,0.01205
1421.0,0.01334
1422.0,0.05878
1423.0,0.01232
1424.0,0.02232
1425.0,0.03374
1426.0,0.03565
1427.0,0.05929
1428.0,0.007108
1429.0,0.047
1430.0,0.07361
1431.0,0.07922
1432.0,0.005699
1433.0,0.05277
1434.0,0.02806
1435.0,0.03214
1436.0,0.05538
1437.0,0.04255
1438.0,0.01985
1439.0,0.07234
1440.0,0.05465
1441.0,0.04471
1442.0,0.04878
1443.0,0.05663
1444.0,0.07663
1445.0,0.06356
1446.0,0.02973
1447.0,0.04686
1448.0,0.1317
1449.0,0.1181
1450.0,0.03467
1451.0,0.01493
1452.0,0.0745
1453.0,0.0956
1454.0,0.1517
1455.0,0.0762
1456.0,0.1043
1457.0,0.1324
1458.0,0.1491
1459.0,0.1774
1460.0,0.09627
1461.0,0.1035
1462.0,0.1458
1463.0,0.05141
1464.0,0.1669
1465.0,0.1018
1466.0,0.07799
1467.0,0.04466
