interpolation:linear
wavelength,value
280.0,3.266e-25
280.5,1.304e-23
281.0,7.648e-23
281.5,2.944e-21
282.0,2.664e-20
282.5,1.114e-19
283.0,5.401e-19
283.5,1.067e-18
284.0,3.364e-17
284.5,1.272e-16
285.0,3.289e-16
285.5,2.838e-15
286.0,1.395e-14
286.5,8.806e-14
287.0,3.178e-13
287.5,1.596e-12
288.0,8.066e-12
288.5,3.403e-11
289.0,1.213e-10
289.5,4.824e-10
290.0,1.652e-09
290.5,3.997e-09
291.0,1.036e-08
291.5,3.696e-08
292.0,1.001e-07
292.5,1.563e-07
293.0,3.799e-07
293.5,1.08e-06
294.0,1.894e-06
294.5,3.451e-06
295.0,6.339e-06
295.5,1.617e-05
296.0,3.015e-05
296.5,4.062e-05
297.0,5.324e-05
297.5,0.0001351
298.0,0.0002027
298.5,0.000196
299.0,0.0004152
299.5,0.0006354
300.0,0.0006689
300.5,0.0009235
301.0,0.001534
301.5,0.002257
302.0,0.00186
302.5,0.003547
303.0,0.006152
303.5,0.007569
304.0,0.006971
304.5,0.009755
305.0,0.01346
305.5,0.01457
306.0,0.01385
306.5,0.01667
307.0,0.02274
307.5,0.0279
308.0,0.02925
308.5,0.03333
309.0,0.0297
309.5,0.03311
310.0,0.03291
310.5,0.05318
311.0,0.06613
311.5,0.06379
312.0,0.06182
312.5,0.07372
313.0,0.07931
313.5,0.07853
314.0,0.09552
314.5,0.0813
315.0,0.1065
315.5,0.09176
316.0,0.07749
316.5,0.108
317.0,0.135
317.5,0.1427
318.0,0.1092
318.5,0.1298
319.0,0.151
319.5,0.1288
320.0,0.1574
320.5,0.1883
321.0,0.1608
321.5,0.1542
322.0,0.1738
322.5,0.1515
323.0,0.1468
323.5,0.1712
324.0,0.1997
324.5,0.2069
325.0,0.1873
325.5,0.2356
326.0,0.2798
326.5,0.2759
327.0,0.2784
327.5,0.2727
328.0,0.2504
328.5,0.2562
329.0,0.3004
329.5,0.3399
330.0,0.3466
330.5,0.2843
331.0,0.2929
331.5,0.2947
332.0,0.3129
332.5,0.3078
333.0,0.3101
333.5,0.2865
334.0,0.2955
334.5,0.3363
335.0,0.314
335.5,0.3574
336.0,0.2482
336.5,0.3025
337.0,0.2511
337.5,0.3145
338.0,0.3037
338.5,0.3436
339.0,0.3434
339.5,0.3303
340.0,0.3983
340.5,0.36
341.0,0.3461
341.5,0.3218
342.0,0.3868
342.5,0.3639
343.0,0.3999
343.5,0.3767
344.0,0.2831
344.5,0.2809
345.0,0.3772
345.5,0.3878
346.0,0.3314
346.5,0.377
347.0,0.4049
347.5,0.328
348.0,0.3768
348.5,0.3787
349.0,0.3527
349.5,0.3502
350.0,0.4346
350.5,0.46
351.0,0.4117
351.5,0.3994
352.0,0.4318
352.5,0.3387
353.0,0.4284
353.5,0.4599
354.0,0.4791
354.5,0.4875
355.0,0.4872
355.5,0.4415
356.0,0.4635
356.5,0.397
357.0,0.3291
357.5,0.4041
358.0,0.3213
358.5,0.2754
359.0,0.3863
359.5,0.4935
360.0,0.5248
360.5,0.4208
361.0,0.3847
361.5,0.4441
362.0,0.385
362.5,0.5341
363.0,0.4809
363.5,0.4441
364.0,0.5445
364.5,0.4667
365.0,0.4765
365.5,0.5996
366.0,0.6369
366.5,0.5999
367.0,0.5857
367.5,0.6094
368.0,0.5346
368.5,0.5408
369.0,0.5855
369.5,0.6256
370.0,0.6685
370.5,0.5201
371.0,0.557
371.5,0.6987
372.0,0.4649
372.5,0.5587
373.0,0.5696
373.5,0.3714
374.0,0.5409
374.5,0.449
375.0,0.4375
375.5,0.6547
376.0,0.544
376.5,0.5651
377.0,0.5996
377.5,0.703
378.0,0.7638
378.5,0.7237
379.0,0.5987
379.5,0.5483
380.0,0.5714
380.5,0.6936
381.0,0.6965
381.5,0.5533
382.0,0.4924
382.5,0.4206
383.0,0.3902
383.5,0.3766
384.0,0.4163
384.5,0.6135
385.0,0.6096
385.5,0.5688
386.0,0.4881
386.5,0.6424
387.0,0.535
387.5,0.6021
388.0,0.557
388.5,0.5517
389.0,0.5967
389.5,0.7241
390.0,0.7281
390.5,0.6714
391.0,0.7918
391.5,0.8092
392.0,0.6829
392.5,0.6124
393.0,0.3414
393.5,0.2486
394.0,0.5067
394.5,0.6454
395.0,0.7889
395.5,0.8029
396.0,0.6973
396.5,0.4083
397.0,0.307
397.5,0.6254
398.0,0.8774
398.5,0.9084
399.0,0.9851
399.5,0.9835
400.0,1.023
401.0,1.054
402.0,1.115
403.0,1.063
404.0,1.049
405.0,1.052
406.0,1.038
407.0,1.024
408.0,1.068
409.0,1.146
410.0,1.004
411.0,1.09
412.0,1.173
413.0,1.148
414.0,1.165
415.0,1.17
416.0,1.194
417.0,1.168
418.0,1.149
419.0,1.167
420.0,1.165
421.0,1.221
422.0,1.164
423.0,1.14
424.0,1.208
425.0,1.209
426.0,1.18
427.0,1.16
428.0,1.133
429.0,1.075
430.0,0.9424
431.0,0.9364
432.0,1.211
433.0,1.221
434.0,1.136
435.0,1.189
436.0,1.342
437.0,1.325
438.0,1.209
439.0,1.254
440.0,1.296
441.0,1.345
442.0,1.445
443.0,1.411
444.0,1.443
445.0,1.415
446.0,1.352
447.0,1.464
448.0,1.49
449.0,1.498
450.0,1.542
451.0,1.602
452.0,1.546
453.0,1.456
454.0,1.522
455.0,1.534
456.0,1.573
457.0,1.602
458.0,1.55
459.0,1.545
460.0,1.551
461.0,1.589
462.0,1.603
463.0,1.595
464.0,1.57
465.0,1.551
466.0,1.568
467.0,1.542
468.0,1.563
469.0,1.573
470.0,1.525
471.0,1.525
472.0,1.609
473.0,1.591
474.0,1.596
475.0,1.613
476.0,1.568
477.0,1.575
478.0,1.621
479.0,1.612
480.0,1.617
481.0,1.649
482.0,1.658
483.0,1.639
484.0,1.607
485.0,1.533
486.0,1.341
487.0,1.406
488.0,1.545
489.0,1.552
490.0,1.634
491.0,1.607
492.0,1.519
493.0,1.571
494.0,1.588
495.0,1.603
496.0,1.615
497.0,1.642
498.0,1.567
499.0,1.589
500.0,1.545
501.0,1.519
502.0,1.5
503.0,1.564
504.0,1.53
505.0,1.583
506.0,1.636
507.0,1.558
508.0,1.51
509.0,1.552
510.0,1.545
511.0,1.587
512.0,1.605
513.0,1.521
514.0,1.511
515.0,1.498
516.0,1.495
517.0,1.33
518.0,1.399
519.0,1.469
520.0,1.524
521.0,1.54
522.0,1.543
523.0,1.516
524.0,1.572
525.0,1.593
526.0,1.523
527.0,1.437
528.0,1.522
529.0,1.606
530.0,1.584
531.0,1.609
532.0,1.555
533.0,1.511
534.0,1.556
535.0,1.591
536.0,1.606
537.0,1.544
538.0,1.572
539.0,1.56
540.0,1.496
541.0,1.508
542.0,1.557
543.0,1.541
544.0,1.57
545.0,1.565
546.0,1.574
547.0,1.574
548.0,1.556
549.0,1.561
550.0,1.581
551.0,1.562
552.0,1.574
553.0,1.547
554.0,1.585
555.0,1.589
556.0,1.57
557.0,1.522
558.0,1.512
559.0,1.486
560.0,1.505
561.0,1.526
562.0,1.517
563.0,1.56
564.0,1.519
565.0,1.507
566.0,1.486
567.0,1.516
568.0,1.505
569.0,1.474
570.0,1.474
571.0,1.465
572.0,1.503
573.0,1.52
574.0,1.517
575.0,1.49
576.0,1.477
577.0,1.493
578.0,1.471
579.0,1.475
580.0,1.502
581.0,1.508
582.0,1.536
583.0,1.539
584.0,1.552
585.0,1.514
586.0,1.484
587.0,1.518
588.0,1.486
589.0,1.326
590.0,1.387
591.0,1.463
592.0,1.448
593.0,1.466
594.0,1.458
595.0,1.426
596.0,1.476
597.0,1.462
598.0,1.457
599.0,1.458
600.0,1.459
601.0,1.446
602.0,1.436
603.0,1.46
604.0,1.484
605.0,1.477
606.0,1.471
607.0,1.485
608.0,1.468
609.0,1.471
610.0,1.46
611.0,1.468
612.0,1.464
613.0,1.446
614.0,1.426
615.0,1.457
616.0,1.409
617.0,1.406
618.0,1.46
619.0,1.446
620.0,1.455
621.0,1.458
622.0,1.442
623.0,1.421
624.0,1.396
625.0,1.394
626.0,1.415
627.0,1.433
628.0,1.357
629.0,1.406
630.0,1.375
631.0,1.4
632.0,1.383
633.0,1.422
634.0,1.407
635.0,1.428
636.0,1.409
637.0,1.431
638.0,1.444
639.0,1.427
640.0,1.413
641.0,1.412
642.0,1.405
643.0,1.425
644.0,1.42
645.0,1.423
646.0,1.392
647.0,1.381
648.0,1.383
649.0,1.357
650.0,1.358
651.0,1.416
652.0,1.364
653.0,1.397
654.0,1.381
655.0,1.334
656.0,1.18
657.0,1.212
658.0,1.356
659.0,1.366
660.0,1.371
661.0,1.381
662.0,1.385
663.0,1.358
664.0,1.372
665.0,1.372
666.0,1.373
667.0,1.372
668.0,1.372
669.0,1.393
670.0,1.387
671.0,1.387
672.0,1.375
673.0,1.395
674.0,1.39
675.0,1.378
676.0,1.387
677.0,1.373
678.0,1.377
679.0,1.355
680.0,1.366
681.0,1.357
682.0,1.356
683.0,1.354
684.0,1.347
685.0,1.359
686.0,1.351
687.0,0.9793
688.0,1.108
689.0,1.111
690.0,1.152
691.0,1.198
692.0,1.231
693.0,1.222
694.0,1.213
695.0,1.253
696.0,1.255
697.0,1.319
698.0,1.299
699.0,1.277
700.0,1.262
701.0,1.252
702.0,1.258
703.0,1.26
704.0,1.296
705.0,1.298
706.0,1.295
707.0,1.296
708.0,1.299
709.0,1.298
710.0,1.3
711.0,1.297
712.0,1.292
713.0,1.28
714.0,1.285
715.0,1.248
716.0,1.25
717.0,1.114
718.0,1.029
719.0,0.9465
720.0,0.9935
721.0,1.078
722.0,1.213
723.0,1.14
724.0,1.04
725.0,1.027
726.0,1.073
727.0,1.082
728.0,1.026
729.0,1.054
730.0,1.115
731.0,1.071
732.0,1.134
733.0,1.189
734.0,1.215
735.0,1.191
736.0,1.19
737.0,1.195
738.0,1.206
739.0,1.183
740.0,1.212
741.0,1.199
742.0,1.199
743.0,1.229
744.0,1.225
745.0,1.225
746.0,1.23
747.0,1.233
748.0,1.231
749.0,1.217
750.0,1.216
751.0,1.204
752.0,1.209
753.0,1.215
754.0,1.218
755.0,1.212
756.0,1.211
757.0,1.213
758.0,1.198
759.0,1.178
760.0,0.2812
761.0,0.1675
762.0,0.6872
763.0,0.3952
764.0,0.5478
765.0,0.6878
766.0,0.8041
767.0,0.9753
768.0,1.095
769.0,1.111
770.0,1.142
771.0,1.148
772.0,1.149
773.0,1.157
774.0,1.151
775.0,1.143
776.0,1.156
777.0,1.141
778.0,1.135
779.0,1.136
780.0,1.129
781.0,1.131
782.0,1.138
783.0,1.118
784.0,1.123
785.0,1.116
786.0,1.128
787.0,1.112
788.0,1.1
789.0,1.1
790.0,1.075
791.0,1.08
792.0,1.072
793.0,1.055
794.0,1.068
795.0,1.088
796.0,1.061
797.0,1.062
798.0,1.087
799.0,1.082
800.0,1.065
801.0,1.063
802.0,1.06
803.0,1.053
804.0,1.054
805.0,1.049
806.0,1.075
807.0,1.063
808.0,1.064
809.0,1.046
810.0,1.039
811.0,1.044
812.0,1.018
813.0,1.0
814.0,0.8951
815.0,0.8892
816.0,0.83
817.0,0.8434
818.0,0.8153
819.0,0.8983
820.0,0.8513
821.0,0.9771
822.0,0.9522
823.0,0.6768
824.0,0.9308
825.0,0.9614
826.0,0.9304
827.0,0.9761
828.0,0.844
829.0,0.9239
830.0,0.9136
831.0,0.9163
832.0,0.8913
833.0,0.9398
834.0,0.912
835.0,0.9905
836.0,0.9553
837.0,0.993
838.0,0.9653
839.0,0.9775
840.0,0.9981
841.0,0.9854
842.0,0.9855
843.0,0.9829
844.0,0.9705
845.0,1.002
846.0,0.9971
847.0,0.978
848.0,0.9729
849.0,0.9454
850.0,0.9057
851.0,0.96
852.0,0.9529
853.0,0.9165
854.0,0.7921
855.0,0.8694
856.0,0.9505
857.0,0.9712
858.0,0.9643
859.0,0.9649
860.0,0.9664
861.0,0.9613
862.0,0.9763
863.0,0.9994
864.0,0.9495
865.0,0.9412
866.0,0.8463
867.0,0.8832
868.0,0.9612
869.0,0.9413
870.0,0.9681
871.0,0.955
872.0,0.9517
873.0,0.9498
874.0,0.9386
875.0,0.9197
876.0,0.9294
877.0,0.9388
878.0,0.9492
879.0,0.9346
880.0,0.9147
881.0,0.9014
882.0,0.9211
883.0,0.9237
884.0,0.9197
885.0,0.9267
886.0,0.8848
887.0,0.8931
888.0,0.9071
889.0,0.9161
890.0,0.9101
891.0,0.9078
892.0,0.8837
893.0,0.8588
894.0,0.8336
895.0,0.7941
896.0,0.7511
897.0,0.6541
898.0,0.7086
899.0,0.5499
900.0,0.7204
901.0,0.576
902.0,0.6617
903.0,0.6728
904.0,0.8278
905.0,0.8022
906.0,0.7531
907.0,0.625
908.0,0.6356
909.0,0.6823
910.0,0.6145
911.0,0.6483
912.0,0.6752
913.0,0.6243
914.0,0.617
915.0,0.6678
916.0,0.5688
917.0,0.7094
918.0,0.5835
919.0,0.7196
920.0,0.7214
921.0,0.7489
922.0,0.6775
923.0,0.7231
924.0,0.6949
925.0,0.6801
926.0,0.6875
927.0,0.7621
928.0,0.5808
929.0,0.536
930.0,0.4306
931.0,0.4064
932.0,0.3021
933.0,0.2507
934.0,0.1483
935.0,0.2523
936.0,0.1643
937.0,0.1675
938.0,0.2033
939.0,0.394
940.0,0.4675
941.0,0.3617
942.0,0.4131
943.0,0.2787
944.0,0.2874
945.0,0.3714
946.0,0.1985
947.0,0.3755
948.0,0.2775
949.0,0.4933
950.0,0.1518
951.0,0.4841
952.0,0.2726
953.0,0.3439
954.0,0.4127
955.0,0.3469
956.0,0.3325
957.0,0.2743
958.0,0.4584
959.0,0.3738
960.0,0.4186
961.0,0.4626
962.0,0.4387
963.0,0.4993
964.0,0.4596
965.0,0.4967
966.0,0.4984
967.0,0.4969
968.0,0.6442
969.0,0.6745
970.0,0.6226
971.0,0.7031
972.0,0.6744
973.0,0.5969
974.0,0.568
975.0,0.5858
976.0,0.5613
977.0,0.6288
978.0,0.6016
979.0,0.6269
980.0,0.5915
981.0,0.6989
982.0,0.6717
983.0,0.647
984.0,0.7163
985.0,0.6692
986.0,0.7267
987.0,0.715
988.0,0.7137
989.0,0.7231
990.0,0.7093
991.0,0.7256
992.0,0.7296
993.0,0.7158
994.0,0.7292
995.0,0.728
996.0,0.7251
997.0,0.726
998.0,0.7228
999.0,0.7201
1000.0,0.7156
1001.0,0.7239
1002.0,0.7064
1003.0,0.7113
1004.0,0.6946
1005.0,0.6683
1006.0,0.6949
1007.0,0.7094
1008.0,0.706
1009.0,0.7027
1010.0,0.7
1011.0,0.7058
1012.0,0.7002
1013.0,0.704
1014.0,0.6991
1015.0,0.6946
1016.0,0.6916
1017.0,0.6934
1018.0,0.6906
1019.0,0.6767
1020.0,0.6871
1021.0,0.686
1022.0,0.6811
1023.0,0.6884
1024.0,0.6804
1025.0,0.6876
1026.0,0.685
1027.0,0.6833
1028.0,0.682
1029.0,0.6741
1030.0,0.6784
1031.0,0.6758
1032.0,0.6738
1033.0,0.6637
1034.0,0.6637
1035.0,0.6658
1036.0,0.6694
1037.0,0.6585
1038.0,0.6614
1039.0,0.6611
1040.0,0.6585
1041.0,0.6612
1042.0,0.6566
1043.0,0.6546
1044.0,0.657
1045.0,0.6481
1046.0,0.6411
1047.0,0.6469
1048.0,0.6505
1049.0,0.6483
1050.0,0.6454
1051.0,0.6446
1052.0,0.6421
1053.0,0.6371
1054.0,0.6386
1055.0,0.6391
1056.0,0.6371
1057.0,0.6352
1058.0,0.6197
1059.0,0.6206
1060.0,0.6197
1061.0,0.6191
1062.0,0.6225
1063.0,0.6165
1064.0,0.6237
1065.0,0.6196
1066.0,0.6071
1067.0,0.6151
1068.0,0.6019
1069.0,0.5831
1070.0,0.6032
1071.0,0.6118
1072.0,0.6054
1073.0,0.5965
1074.0,0.6111
1075.0,0.583
1076.0,0.6107
1077.0,0.6012
1078.0,0.5904
1079.0,0.6006
1080.0,0.592
1081.0,0.5743
1082.0,0.5814
1083.0,0.5827
1084.0,0.5736
1085.0,0.5932
1086.0,0.5453
1087.0,0.5599
1088.0,0.5826
1089.0,0.5671
1090.0,0.5563
1091.0,0.5814
1092.0,0.5794
1093.0,0.4985
1094.0,0.531
1095.0,0.5183
1096.0,0.4985
1097.0,0.5659
1098.0,0.4915
1099.0,0.5116
1100.0,0.4789
1101.0,0.4839
1102.0,0.4642
1103.0,0.4611
1104.0,0.4615
1105.0,0.5006
1106.0,0.3955
1107.0,0.4779
1108.0,0.4127
1109.0,0.412
1110.0,0.4747
1111.0,0.3323
1112.0,0.4083
1113.0,0.2706
1114.0,0.3011
1115.0,0.25
1116.0,0.2062
1117.0,0.08315
1118.0,0.2219
1119.0,0.1159
1120.0,0.1461
1121.0,0.1902
1122.0,0.08513
1123.0,0.1318
1124.0,0.1114
1125.0,0.1439
1126.0,0.05515
1127.0,0.1618
1128.0,0.1023
1129.0,0.1077
1130.0,0.07324
1131.0,0.2941
1132.0,0.2332
1133.0,0.1546
1134.0,0.04377
1135.0,0.0162
1136.0,0.1314
1137.0,0.2909
1138.0,0.2065
1139.0,0.2952
1140.0,0.2515
1141.0,0.1962
1142.0,0.223
1143.0,0.3114
1144.0,0.1153
1145.0,0.1489
1146.0,0.1607
1147.0,0.06185
1148.0,0.2697
1149.0,0.2193
1150.0,0.1237
1151.0,0.205
1152.0,0.2477
1153.0,0.238
1154.0,0.1454
1155.0,0.3082
1156.0,0.28
1157.0,0.3105
1158.0,0.307
1159.0,0.3278
1160.0,0.2841
1161.0,0.3425
1162.0,0.3448
1163.0,0.4527
1164.0,0.3931
1165.0,0.3753
1166.0,0.3696
1167.0,0.4002
1168.0,0.4055
1169.0,0.4135
1170.0,0.4455
1171.0,0.435
1172.0,0.4407
1173.0,0.4446
1174.0,0.3282
1175.0,0.4327
1176.0,0.4704
1177.0,0.455
1178.0,0.3499
1179.0,0.474
1180.0,0.4289
1181.0,0.4421
1182.0,0.314
1183.0,0.434
1184.0,0.4097
1185.0,0.398
1186.0,0.4631
1187.0,0.4438
1188.0,0.3202
1189.0,0.4141
1190.0,0.4525
1191.0,0.4344
1192.0,0.4583
1193.0,0.4409
1194.0,0.4533
1195.0,0.432
1196.0,0.4182
1197.0,0.4517
1198.0,0.4159
1199.0,0.3613
1200.0,0.4357
1201.0,0.4228
1202.0,0.4188
1203.0,0.4155
1204.0,0.3675
1205.0,0.4263
1206.0,0.4667
1207.0,0.4185
1208.0,0.4097
1209.0,0.4175
1210.0,0.4332
1211.0,0.4155
1212.0,0.4138
1213.0,0.453
1214.0,0.4221
1215.0,0.4149
1216.0,0.4514
1217.0,0.441
1218.0,0.4479
1219.0,0.4431
1220.0,0.4482
1221.0,0.4518
1222.0,0.441
1223.0,0.4375
1224.0,0.4359
1225.0,0.449
1226.0,0.4511
1227.0,0.42
1228.0,0.4526
1229.0,0.4512
1230.0,0.4442
1231.0,0.4544
1232.0,0.4518
1233.0,0.4394
1234.0,0.4534
1235.0,0.451
1236.0,0.4539
1237.0,0.4488
1238.0,0.4524
1239.0,0.4466
1240.0,0.4482
1241.0,0.4468
1242.0,0.4452
1243.0,0.4415
1244.0,0.4449
1245.0,0.4467
1246.0,0.4441
1247.0,0.4426
1248.0,0.4426
1249.0,0.4437
1250.0,0.4412
1251.0,0.436
1252.0,0.4355
1253.0,0.4331
1254.0,0.4296
1255.0,0.4354
1256.0,0.4251
1257.0,0.4232
1258.0,0.4295
1259.0,0.417
1260.0,0.4188
1261.0,0.3991
1262.0,0.3892
1263.0,0.39
1264.0,0.3647
1265.0,0.3875
1266.0,0.3756
1267.0,0.3803
1268.0,0.3637
1269.0,0.2468
1270.0,0.3797
1271.0,0.3974
1272.0,0.3982
1273.0,0.3944
1274.0,0.3951
1275.0,0.4001
1276.0,0.4033
1277.0,0.4051
1278.0,0.4113
1279.0,0.4078
1280.0,0.4025
1281.0,0.3834
1282.0,0.3682
1283.0,0.3968
1284.0,0.4065
1285.0,0.409
1286.0,0.4139
1287.0,0.4088
1288.0,0.4083
1289.0,0.3978
1290.0,0.4046
1291.0,0.4098
1292.0,0.3895
1293.0,0.4029
1294.0,0.4003
1295.0,0.3995
1296.0,0.3843
1297.0,0.3659
1298.0,0.3892
1299.0,0.403
1300.0,0.3491
1301.0,0.3582
1302.0,0.3878
1303.0,0.3436
1304.0,0.3005
1305.0,0.3805
1306.0,0.381
1307.0,0.3044
1308.0,0.343
1309.0,0.3786
1310.0,0.299
1311.0,0.3305
1312.0,0.3228
1313.0,0.3177
1314.0,0.287
1315.0,0.285
1316.0,0.3265
1317.0,0.3102
1318.0,0.3341
1319.0,0.2699
1320.0,0.2596
1321.0,0.2994
1322.0,0.3037
1323.0,0.2358
1324.0,0.2647
1325.0,0.3223
1326.0,0.2813
1327.0,0.2694
1328.0,0.2347
1329.0,0.1824
1330.0,0.2342
1331.0,0.1488
1332.0,0.1511
1333.0,0.2084
1334.0,0.1734
1335.0,0.2349
1336.0,0.1895
1337.0,0.1697
1338.0,0.1834
1339.0,0.1816
1340.0,0.1748
1341.0,0.175
1342.0,0.1835
1343.0,0.1334
1344.0,0.0796
1345.0,0.1138
1346.0,0.06279
1347.0,0.0649
1348.0,0.005495
1349.0,0.01824
1350.0,0.01791
1351.0,0.005518
1352.0,0.001903
1353.0,0.0001297
1354.0,0.0003738
1355.0,5.363e-06
1356.0,6.494e-05
1357.0,9.798e-05
1358.0,6.207e-06
1359.0,1.193e-06
1360.0,3.302e-06
1361.0,9.212e-09
1362.0,3.811e-11
1363.0,4.967e-06
1364.0,2.151e-06
1365.0,2.164e-11
1366.0,1.936e-05
1367.0,7.517e-06
1368.0,4.384e-13
1369.0,8.288e-07
1370.0,4.878e-07
1371.0,3.5e-08
1372.0,4.151e-06
1373.0,6.221e-05
1374.0,0.000237
1375.0,0.0004289
1376.0,0.0003331
1377.0,0.0001601
1378.0,0.001413
1379.0,6.811e-05
1380.0,0.0001099
1381.0,3.297e-06
1382.0,3.933e-06
1383.0,7.097e-08
1384.0,1.003e-06
1385.0,3.067e-06
1386.0,3.951e-06
1387.0,0.0002732
1388.0,5.626e-06
1389.0,0.0007521
1390.0,0.0006459
1391.0,0.0004531
1392.0,3.206e-05
1393.0,0.0001519
1394.0,0.0001066
1395.0,1.013e-06
1396.0,1.178e-08
1397.0,6.568e-05
1398.0,0.001613
1399.0,0.001024
1400.0,6.423e-09
1401.0,1.943e-08
1402.0,0.002203
1403.0,0.002898
1404.0,0.0009027
1405.0,5.752e-07
1406.0,0.002535
1407.0,0.0002161
1408.0,0.002049
1409.0,0.0007961
1410.0,0.0005883
1411.0,0.002528
1412.0,0.003183
1413.0,0.02642
1414.0,0.0004569
1415.0,0.0002357
1416.0,0.03888
1417.0,0.01333
1418.0,0.01529
1419.0,0.002454
1420.0,0.009426
1421.0,0.01029
1422.0,0.05028
1423.0,0.01018
1424.0,0.0187
1425.0,0.02804
1426.0,0.03042
1427.0,0.05271
1428.0,0.005264
1429.0,0.04083
1430.0,0.06611
1431.0,0.07175
1432.0,0.004188
1433.0,0.04686
1434.0,0.02446
1435.0,0.02654
1436.0,0.04789
1437.0,0.03671
1438.0,0.01644
1439.0,0.06366
1440.0,0.04786
1441.0,0.03804
1442.0,0.04187
1443.0,0.0502
1444.0,0.06851
1445.0,0.05551
1446.0,0.02556
1447.0,0.0402
1448.0,0.1224
1449.0,0.1082
1450.0,0.02974
1451.0,0.01242
1452.0,0.06689
1453.0,0.08675
1454.0,0.1425
1455.0,0.06959
1456.0,0.09449
1457.0,0.123
1458.0,0.1414
1459.0,0.1678
1460.0,0.0893
1461.0,0.09483
1462.0,0.136
1463.0,0.04602
1464.0,0.1582
1465.0,0.09592
1466.0,0.07009
1467.0,0.03861
