interpolation:linear
wavelength,value
280.0,7.955e-27
280.5,4.022e-25
281.0,2.571e-24
281.5,1.244e-22
282.0,1.293e-21
282.5,5.937e-21
283.0,3.1910000000000005e-20
283.5,6.637000000000001e-20
284.0,2.655e-18
284.5,1.119e-17
285.0,3.254e-17
285.5,3.225e-16
286.0,1.676e-15
286.5,1.187e-14
287.0,4.664e-14
287.5,2.618e-13
288.0,1.522e-12
288.5,6.919e-12
289.0,2.662e-11
289.5,1.152e-10
290.0,4.23e-10
290.5,1.084e-09
291.0,3.013e-09
291.5,1.175e-08
292.0,3.418e-08
292.5,5.559e-08
293.0,1.424e-07
293.5,4.345e-07
294.0,7.993e-07
294.5,1.51e-06
295.0,2.904e-06
295.5,7.835e-06
296.0,1.518e-05
296.5,2.122e-05
297.0,2.863e-05
297.5,7.567e-05
298.0,0.0001173
298.5,0.0001162
299.0,0.0002518
299.5,0.0003997
300.0,0.0004288
300.5,0.0006032
301.0,0.001029
301.5,0.001548
302.0,0.001289
302.5,0.002505
303.0,0.004445
303.5,0.005542
304.0,0.005137
304.5,0.007298
305.0,0.01027
305.5,0.01125
306.0,0.01075
306.5,0.01303
307.0,0.01804
307.5,0.02244
308.0,0.02359
308.5,0.02705
309.0,0.02423
309.5,0.02739
310.0,0.0274
310.5,0.04443
311.0,0.05553
311.5,0.05371
312.0,0.05258
312.5,0.06311
313.0,0.06813
313.5,0.06733
314.0,0.08249
314.5,0.07084
315.0,0.09304
315.5,0.07987
316.0,0.06794
316.5,0.09526
317.0,0.1191
317.5,0.1258
318.0,0.09665
318.5,0.1157
319.0,0.1351
319.5,0.1148
320.0,0.1402
320.5,0.1689
321.0,0.145
321.5,0.1392
322.0,0.1561
322.5,0.1363
323.0,0.1325
323.5,0.1556
324.0,0.1817
324.5,0.1879
325.0,0.1696
325.5,0.214
326.0,0.2552
326.5,0.2524
327.0,0.2546
327.5,0.2493
328.0,0.2282
328.5,0.2346
329.0,0.2759
329.5,0.3125
330.0,0.3187
330.5,0.261
331.0,0.2689
331.5,0.2711
332.0,0.2886
332.5,0.2842
333.0,0.2863
333.5,0.2643
334.0,0.2727
334.5,0.3109
335.0,0.2907
335.5,0.3311
336.0,0.2301
336.5,0.2804
337.0,0.2327
337.5,0.2915
338.0,0.282
338.5,0.3193
339.0,0.3193
339.5,0.3072
340.0,0.3705
340.5,0.3349
341.0,0.3224
341.5,0.2999
342.0,0.3607
342.5,0.3395
343.0,0.3732
343.5,0.3516
344.0,0.2642
344.5,0.2624
345.0,0.3526
345.5,0.3627
346.0,0.3101
346.5,0.3529
347.0,0.3791
347.5,0.3073
348.0,0.3531
348.5,0.355
349.0,0.3308
349.5,0.3286
350.0,0.408
350.5,0.4319
351.0,0.3867
351.5,0.3753
352.0,0.4059
352.5,0.3185
353.0,0.4031
353.5,0.4328
354.0,0.4511
354.5,0.4591
355.0,0.4589
355.5,0.4161
356.0,0.4369
356.5,0.3744
357.0,0.3104
357.5,0.3813
358.0,0.3033
358.5,0.26
359.0,0.3648
359.5,0.4662
360.0,0.4959
360.5,0.3977
361.0,0.3638
361.5,0.4201
362.0,0.3643
362.5,0.5057
363.0,0.4555
363.5,0.4207
364.0,0.516
364.5,0.4424
365.0,0.4519
365.5,0.5688
366.0,0.6044
366.5,0.5694
367.0,0.5561
367.5,0.5788
368.0,0.5079
368.5,0.5139
369.0,0.5565
369.5,0.5948
370.0,0.6358
370.5,0.4948
371.0,0.5301
371.5,0.6651
372.0,0.4426
372.5,0.5321
373.0,0.5426
373.5,0.3539
374.0,0.5156
374.5,0.4281
375.0,0.4172
375.5,0.6245
376.0,0.519
376.5,0.5393
377.0,0.5723
377.5,0.6712
378.0,0.7295
378.5,0.6913
379.0,0.5721
379.5,0.5239
380.0,0.5462
380.5,0.6631
381.0,0.6661
381.5,0.5293
382.0,0.4712
382.5,0.4026
383.0,0.3736
383.5,0.3606
384.0,0.3987
384.5,0.5878
385.0,0.5842
385.5,0.5453
386.0,0.468
386.5,0.6161
387.0,0.5132
387.5,0.5777
388.0,0.5346
388.5,0.5295
389.0,0.5729
389.5,0.6953
390.0,0.6993
390.5,0.645
391.0,0.7608
391.5,0.7777
392.0,0.6564
392.5,0.5889
393.0,0.3283
393.5,0.2391
394.0,0.4875
394.5,0.621
395.0,0.7593
395.5,0.7729
396.0,0.6714
396.5,0.3932
397.0,0.2957
397.5,0.6025
398.0,0.8455
398.5,0.8755
399.0,0.9496
399.5,0.9482
400.0,0.9866
401.0,1.017
402.0,1.076
403.0,1.026
404.0,1.013
405.0,1.017
406.0,1.003
407.0,0.9904
408.0,1.032
409.0,1.108
410.0,0.9712
411.0,1.055
412.0,1.136
413.0,1.112
414.0,1.128
415.0,1.134
416.0,1.158
417.0,1.132
418.0,1.115
419.0,1.132
420.0,1.131
421.0,1.186
422.0,1.13
423.0,1.107
424.0,1.174
425.0,1.175
426.0,1.147
427.0,1.128
428.0,1.102
429.0,1.046
430.0,0.9174
431.0,0.9117
432.0,1.18
433.0,1.189
434.0,1.107
435.0,1.159
436.0,1.308
437.0,1.292
438.0,1.179
439.0,1.223
440.0,1.264
441.0,1.312
442.0,1.411
443.0,1.377
444.0,1.41
445.0,1.382
446.0,1.321
447.0,1.43
448.0,1.456
449.0,1.464
450.0,1.508
451.0,1.567
452.0,1.512
453.0,1.425
454.0,1.489
455.0,1.501
456.0,1.54
457.0,1.568
458.0,1.518
459.0,1.513
460.0,1.52
461.0,1.557
462.0,1.571
463.0,1.563
464.0,1.539
465.0,1.521
466.0,1.538
467.0,1.512
468.0,1.533
469.0,1.543
470.0,1.497
471.0,1.497
472.0,1.579
473.0,1.561
474.0,1.566
475.0,1.583
476.0,1.538
477.0,1.546
478.0,1.591
479.0,1.583
480.0,1.588
481.0,1.619
482.0,1.629
483.0,1.611
484.0,1.58
485.0,1.507
486.0,1.318
487.0,1.383
488.0,1.519
489.0,1.526
490.0,1.607
491.0,1.581
492.0,1.495
493.0,1.546
494.0,1.563
495.0,1.578
496.0,1.59
497.0,1.616
498.0,1.542
499.0,1.564
500.0,1.521
501.0,1.495
502.0,1.477
503.0,1.54
504.0,1.505
505.0,1.558
506.0,1.61
507.0,1.534
508.0,1.487
509.0,1.529
510.0,1.522
511.0,1.564
512.0,1.582
513.0,1.499
514.0,1.49
515.0,1.476
516.0,1.474
517.0,1.311
518.0,1.379
519.0,1.448
520.0,1.503
521.0,1.518
522.0,1.521
523.0,1.495
524.0,1.551
525.0,1.571
526.0,1.502
527.0,1.417
528.0,1.501
529.0,1.584
530.0,1.562
531.0,1.587
532.0,1.534
533.0,1.49
534.0,1.535
535.0,1.569
536.0,1.585
537.0,1.523
538.0,1.551
539.0,1.539
540.0,1.477
541.0,1.488
542.0,1.536
543.0,1.521
544.0,1.549
545.0,1.545
546.0,1.553
547.0,1.553
548.0,1.535
549.0,1.541
550.0,1.56
551.0,1.542
552.0,1.554
553.0,1.527
554.0,1.565
555.0,1.569
556.0,1.55
557.0,1.503
558.0,1.493
559.0,1.467
560.0,1.486
561.0,1.507
562.0,1.497
563.0,1.54
564.0,1.499
565.0,1.487
566.0,1.467
567.0,1.496
568.0,1.485
569.0,1.453
570.0,1.453
571.0,1.445
572.0,1.482
573.0,1.499
574.0,1.495
575.0,1.468
576.0,1.456
577.0,1.472
578.0,1.45
579.0,1.455
580.0,1.482
581.0,1.489
582.0,1.516
583.0,1.52
584.0,1.533
585.0,1.496
586.0,1.466
587.0,1.5
588.0,1.467
589.0,1.307
590.0,1.367
591.0,1.443
592.0,1.428
593.0,1.447
594.0,1.439
595.0,1.406
596.0,1.457
597.0,1.443
598.0,1.438
599.0,1.439
600.0,1.441
601.0,1.429
602.0,1.419
603.0,1.443
604.0,1.467
605.0,1.46
606.0,1.454
607.0,1.468
608.0,1.452
609.0,1.455
610.0,1.445
611.0,1.452
612.0,1.448
613.0,1.43
614.0,1.411
615.0,1.442
616.0,1.394
617.0,1.392
618.0,1.446
619.0,1.431
620.0,1.441
621.0,1.443
622.0,1.427
623.0,1.406
624.0,1.382
625.0,1.38
626.0,1.401
627.0,1.418
628.0,1.338
629.0,1.39
630.0,1.359
631.0,1.385
632.0,1.368
633.0,1.408
634.0,1.394
635.0,1.415
636.0,1.396
637.0,1.419
638.0,1.432
639.0,1.416
640.0,1.402
641.0,1.401
642.0,1.394
643.0,1.413
644.0,1.409
645.0,1.412
646.0,1.381
647.0,1.368
648.0,1.37
649.0,1.345
650.0,1.347
651.0,1.404
652.0,1.352
653.0,1.386
654.0,1.371
655.0,1.323
656.0,1.171
657.0,1.203
658.0,1.347
659.0,1.356
660.0,1.362
661.0,1.371
662.0,1.375
663.0,1.348
664.0,1.363
665.0,1.364
666.0,1.365
667.0,1.363
668.0,1.364
669.0,1.385
670.0,1.379
671.0,1.379
672.0,1.367
673.0,1.388
674.0,1.382
675.0,1.37
676.0,1.38
677.0,1.366
678.0,1.37
679.0,1.348
680.0,1.359
681.0,1.35
682.0,1.349
683.0,1.347
684.0,1.34
685.0,1.352
686.0,1.344
687.0,0.9518
688.0,1.087
689.0,1.09
690.0,1.135
691.0,1.184
692.0,1.219
693.0,1.21
694.0,1.2
695.0,1.243
696.0,1.245
697.0,1.312
698.0,1.292
699.0,1.267
700.0,1.253
701.0,1.242
702.0,1.248
703.0,1.251
704.0,1.288
705.0,1.29
706.0,1.288
707.0,1.288
708.0,1.291
709.0,1.291
710.0,1.293
711.0,1.29
712.0,1.286
713.0,1.274
714.0,1.279
715.0,1.241
716.0,1.242
717.0,1.1
718.0,1.014
719.0,0.9316
720.0,0.9774
721.0,1.066
722.0,1.204
723.0,1.129
724.0,1.026
725.0,1.013
726.0,1.059
727.0,1.069
728.0,1.012
729.0,1.042
730.0,1.103
731.0,1.058
732.0,1.123
733.0,1.181
734.0,1.207
735.0,1.184
736.0,1.182
737.0,1.187
738.0,1.201
739.0,1.177
740.0,1.206
741.0,1.194
742.0,1.194
743.0,1.224
744.0,1.221
745.0,1.221
746.0,1.226
747.0,1.229
748.0,1.227
749.0,1.213
750.0,1.212
751.0,1.2
752.0,1.205
753.0,1.212
754.0,1.215
755.0,1.208
756.0,1.207
757.0,1.209
758.0,1.195
759.0,1.174
760.0,0.2536
761.0,0.1457
762.0,0.6602
763.0,0.365
764.0,0.5176
765.0,0.6607
766.0,0.7831
767.0,0.9604
768.0,1.087
769.0,1.105
770.0,1.137
771.0,1.144
772.0,1.146
773.0,1.154
774.0,1.148
775.0,1.139
776.0,1.153
777.0,1.138
778.0,1.132
779.0,1.133
780.0,1.126
781.0,1.128
782.0,1.135
783.0,1.115
784.0,1.121
785.0,1.113
786.0,1.125
787.0,1.108
788.0,1.095
789.0,1.095
790.0,1.07
791.0,1.076
792.0,1.068
793.0,1.051
794.0,1.065
795.0,1.085
796.0,1.056
797.0,1.057
798.0,1.084
799.0,1.078
800.0,1.061
801.0,1.058
802.0,1.055
803.0,1.048
804.0,1.049
805.0,1.045
806.0,1.072
807.0,1.06
808.0,1.061
809.0,1.042
810.0,1.035
811.0,1.039
812.0,1.012
813.0,0.9933
814.0,0.8846
815.0,0.8789
816.0,0.8198
817.0,0.8336
818.0,0.8048
819.0,0.8905
820.0,0.8424
821.0,0.972
822.0,0.9464
823.0,0.6641
824.0,0.9234
825.0,0.9561
826.0,0.9238
827.0,0.9709
828.0,0.8347
829.0,0.9177
830.0,0.9069
831.0,0.9098
832.0,0.8841
833.0,0.9347
834.0,0.9055
835.0,0.9867
836.0,0.9496
837.0,0.9894
838.0,0.9609
839.0,0.9741
840.0,0.995
841.0,0.9819
842.0,0.9826
843.0,0.9807
844.0,0.968
845.0,0.9996
846.0,0.9951
847.0,0.9762
848.0,0.9709
849.0,0.9434
850.0,0.9038
851.0,0.9577
852.0,0.9508
853.0,0.9147
854.0,0.7903
855.0,0.8677
856.0,0.9486
857.0,0.9694
858.0,0.9625
859.0,0.9631
860.0,0.9648
861.0,0.9596
862.0,0.9747
863.0,0.9978
864.0,0.9479
865.0,0.9397
866.0,0.845
867.0,0.8818
868.0,0.9597
869.0,0.9398
870.0,0.9666
871.0,0.9536
872.0,0.9502
873.0,0.9484
874.0,0.9372
875.0,0.9183
876.0,0.928
877.0,0.9374
878.0,0.9477
879.0,0.9332
880.0,0.9133
881.0,0.8999
882.0,0.9195
883.0,0.9222
884.0,0.9182
885.0,0.9252
886.0,0.8829
887.0,0.8915
888.0,0.9052
889.0,0.9146
890.0,0.9081
891.0,0.9061
892.0,0.8814
893.0,0.8556
894.0,0.8289
895.0,0.7876
896.0,0.7439
897.0,0.6449
898.0,0.7004
899.0,0.5399
900.0,0.7137
901.0,0.5656
902.0,0.6545
903.0,0.664
904.0,0.8232
905.0,0.7968
906.0,0.7473
907.0,0.6158
908.0,0.6268
909.0,0.675
910.0,0.6042
911.0,0.6396
912.0,0.6671
913.0,0.6136
914.0,0.6071
915.0,0.6575
916.0,0.5588
917.0,0.7012
918.0,0.5732
919.0,0.7121
920.0,0.7158
921.0,0.7436
922.0,0.67
923.0,0.7181
924.0,0.6871
925.0,0.6723
926.0,0.6797
927.0,0.7561
928.0,0.5685
929.0,0.5227
930.0,0.4165
931.0,0.3938
932.0,0.2894
933.0,0.2383
934.0,0.1371
935.0,0.2414
936.0,0.1547
937.0,0.1573
938.0,0.1919
939.0,0.3817
940.0,0.4552
941.0,0.349
942.0,0.4007
943.0,0.2678
944.0,0.2783
945.0,0.3589
946.0,0.1883
947.0,0.362
948.0,0.2669
949.0,0.479
950.0,0.1417
951.0,0.4708
952.0,0.2603
953.0,0.3314
954.0,0.401
955.0,0.3346
956.0,0.3222
957.0,0.2614
958.0,0.4491
959.0,0.3625
960.0,0.4062
961.0,0.4516
962.0,0.4278
963.0,0.4894
964.0,0.4496
965.0,0.4872
966.0,0.4882
967.0,0.4865
968.0,0.639
969.0,0.6685
970.0,0.6158
971.0,0.6991
972.0,0.6699
973.0,0.5891
974.0,0.56
975.0,0.5791
976.0,0.5529
977.0,0.6232
978.0,0.5946
979.0,0.6209
980.0,0.585
981.0,0.6951
982.0,0.6668
983.0,0.6414
984.0,0.7139
985.0,0.6643
986.0,0.7251
987.0,0.7125
988.0,0.7112
989.0,0.7221
990.0,0.7069
991.0,0.7245
992.0,0.7286
993.0,0.7139
994.0,0.7283
995.0,0.7272
996.0,0.7242
997.0,0.7252
998.0,0.7219
999.0,0.7192
1000.0,0.7145
1001.0,0.7231
1002.0,0.7047
1003.0,0.7105
1004.0,0.6935
1005.0,0.6676
1006.0,0.694
1007.0,0.7086
1008.0,0.705
1009.0,0.7016
1010.0,0.6988
1011.0,0.7051
1012.0,0.6993
1013.0,0.7033
1014.0,0.6984
1015.0,0.6939
1016.0,0.6908
1017.0,0.6926
1018.0,0.6899
1019.0,0.6757
1020.0,0.6864
1021.0,0.6854
1022.0,0.6803
1023.0,0.6876
1024.0,0.6792
1025.0,0.6869
1026.0,0.6842
1027.0,0.6826
1028.0,0.6812
1029.0,0.6733
1030.0,0.6777
1031.0,0.6751
1032.0,0.6731
1033.0,0.663
1034.0,0.663
1035.0,0.6651
1036.0,0.6686
1037.0,0.6578
1038.0,0.6607
1039.0,0.6604
1040.0,0.6578
1041.0,0.6605
1042.0,0.6559
1043.0,0.6539
1044.0,0.6562
1045.0,0.6474
1046.0,0.6403
1047.0,0.6461
1048.0,0.6497
1049.0,0.6474
1050.0,0.6445
1051.0,0.6437
1052.0,0.6411
1053.0,0.6361
1054.0,0.6376
1055.0,0.638
1056.0,0.6359
1057.0,0.634
1058.0,0.6185
1059.0,0.6193
1060.0,0.6184
1061.0,0.6178
1062.0,0.6211
1063.0,0.615
1064.0,0.6223
1065.0,0.6181
1066.0,0.6057
1067.0,0.6136
1068.0,0.6004
1069.0,0.5817
1070.0,0.6016
1071.0,0.6105
1072.0,0.6039
1073.0,0.5951
1074.0,0.61
1075.0,0.5809
1076.0,0.6096
1077.0,0.5996
1078.0,0.5885
1079.0,0.5997
1080.0,0.5904
1081.0,0.5722
1082.0,0.5801
1083.0,0.5816
1084.0,0.5712
1085.0,0.5917
1086.0,0.5423
1087.0,0.558
1088.0,0.5813
1089.0,0.5649
1090.0,0.5535
1091.0,0.5799
1092.0,0.5781
1093.0,0.4945
1094.0,0.5295
1095.0,0.5146
1096.0,0.4941
1097.0,0.5647
1098.0,0.4868
1099.0,0.5072
1100.0,0.4734
1101.0,0.4788
1102.0,0.4585
1103.0,0.4549
1104.0,0.4554
1105.0,0.496
1106.0,0.3868
1107.0,0.4726
1108.0,0.4051
1109.0,0.4049
1110.0,0.469
1111.0,0.3242
1112.0,0.4015
1113.0,0.2618
1114.0,0.2919
1115.0,0.2422
1116.0,0.1971
1117.0,0.07648
1118.0,0.2131
1119.0,0.109
1120.0,0.1373
1121.0,0.1802
1122.0,0.07865
1123.0,0.124
1124.0,0.1047
1125.0,0.1358
1126.0,0.05004
1127.0,0.1529
1128.0,0.09448
1129.0,0.09981
1130.0,0.06691
1131.0,0.283
1132.0,0.2234
1133.0,0.1453
1134.0,0.03941
1135.0,0.01466
1136.0,0.1226
1137.0,0.2791
1138.0,0.1975
1139.0,0.2873
1140.0,0.2428
1141.0,0.1877
1142.0,0.2144
1143.0,0.3014
1144.0,0.1089
1145.0,0.1401
1146.0,0.1511
1147.0,0.05604
1148.0,0.261
1149.0,0.2106
1150.0,0.1169
1151.0,0.196
1152.0,0.2387
1153.0,0.2307
1154.0,0.1363
1155.0,0.2999
1156.0,0.2715
1157.0,0.3024
1158.0,0.2991
1159.0,0.3207
1160.0,0.2763
1161.0,0.336
1162.0,0.3381
1163.0,0.4487
1164.0,0.3878
1165.0,0.3686
1166.0,0.3641
1167.0,0.3951
1168.0,0.4
1169.0,0.4085
1170.0,0.4416
1171.0,0.4309
1172.0,0.4373
1173.0,0.4407
1174.0,0.3215
1175.0,0.4294
1176.0,0.4686
1177.0,0.4521
1178.0,0.3448
1179.0,0.4723
1180.0,0.4254
1181.0,0.4386
1182.0,0.3084
1183.0,0.4311
1184.0,0.4059
1185.0,0.3934
1186.0,0.4607
1187.0,0.4406
1188.0,0.3143
1189.0,0.4109
1190.0,0.4502
1191.0,0.4306
1192.0,0.4561
1193.0,0.4382
1194.0,0.4509
1195.0,0.4287
1196.0,0.4143
1197.0,0.45
1198.0,0.4134
1199.0,0.3567
1200.0,0.433
1201.0,0.4193
1202.0,0.4158
1203.0,0.4125
1204.0,0.3635
1205.0,0.424
1206.0,0.4656
1207.0,0.4153
1208.0,0.4073
1209.0,0.4152
1210.0,0.4314
1211.0,0.4129
1212.0,0.4102
1213.0,0.4514
1214.0,0.4189
1215.0,0.4115
1216.0,0.4499
1217.0,0.439
1218.0,0.4464
1219.0,0.4413
1220.0,0.4467
1221.0,0.4506
1222.0,0.4395
1223.0,0.4358
1224.0,0.4338
1225.0,0.4478
1226.0,0.4501
1227.0,0.4179
1228.0,0.4518
1229.0,0.4502
1230.0,0.443
1231.0,0.4539
1232.0,0.4513
1233.0,0.4379
1234.0,0.4531
1235.0,0.4506
1236.0,0.4536
1237.0,0.4482
1238.0,0.4521
1239.0,0.4463
1240.0,0.4479
1241.0,0.4463
1242.0,0.4449
1243.0,0.4413
1244.0,0.4446
1245.0,0.4464
1246.0,0.4438
1247.0,0.4422
1248.0,0.4422
1249.0,0.4433
1250.0,0.4408
1251.0,0.4355
1252.0,0.4351
1253.0,0.4324
1254.0,0.4286
1255.0,0.4349
1256.0,0.424
1257.0,0.422
1258.0,0.4288
1259.0,0.4154
1260.0,0.4173
1261.0,0.3965
1262.0,0.386
1263.0,0.3868
1264.0,0.3603
1265.0,0.3843
1266.0,0.3717
1267.0,0.3769
1268.0,0.3596
1269.0,0.2373
1270.0,0.3761
1271.0,0.3949
1272.0,0.3959
1273.0,0.392
1274.0,0.3929
1275.0,0.3981
1276.0,0.4014
1277.0,0.4035
1278.0,0.4102
1279.0,0.4066
1280.0,0.4013
1281.0,0.3825
1282.0,0.3677
1283.0,0.3962
1284.0,0.4059
1285.0,0.4084
1286.0,0.4135
1287.0,0.408
1288.0,0.4076
1289.0,0.3964
1290.0,0.4039
1291.0,0.4093
1292.0,0.3876
1293.0,0.4021
1294.0,0.3994
1295.0,0.3983
1296.0,0.3822
1297.0,0.3631
1298.0,0.3877
1299.0,0.4023
1300.0,0.3459
1301.0,0.3555
1302.0,0.3864
1303.0,0.3408
1304.0,0.2957
1305.0,0.3789
1306.0,0.3792
1307.0,0.3003
1308.0,0.3405
1309.0,0.3768
1310.0,0.2948
1311.0,0.3276
1312.0,0.3196
1313.0,0.3142
1314.0,0.283
1315.0,0.2804
1316.0,0.3233
1317.0,0.3068
1318.0,0.3314
1319.0,0.2649
1320.0,0.2554
1321.0,0.2955
1322.0,0.2993
1323.0,0.23
1324.0,0.2598
1325.0,0.319
1326.0,0.2768
1327.0,0.2648
1328.0,0.2298
1329.0,0.1766
1330.0,0.2278
1331.0,0.1422
1332.0,0.1452
1333.0,0.201
1334.0,0.1682
1335.0,0.2291
1336.0,0.1836
1337.0,0.1636
1338.0,0.177
1339.0,0.1756
1340.0,0.1696
1341.0,0.1683
1342.0,0.1766
1343.0,0.1252
1344.0,0.07475
1345.0,0.1073
1346.0,0.05702
1347.0,0.05861
1348.0,0.004511
1349.0,0.01542
1350.0,0.01546
1351.0,0.004378
1352.0,0.001391
1353.0,8.543e-05
1354.0,0.0002619
1355.0,3.074e-06
1356.0,4.236e-05
1357.0,6.418e-05
1358.0,3.587e-06
1359.0,5.975e-07
1360.0,1.813e-06
1361.0,3.685e-09
1362.0,1.315e-11
1363.0,2.648e-06
1364.0,1.123e-06
1365.0,6.354e-12
1366.0,1.074e-05
1367.0,4.224e-06
1368.0,9.288e-14
1369.0,4.275e-07
1370.0,2.371e-07
1371.0,1.565e-08
1372.0,2.327e-06
1373.0,3.875e-05
1374.0,0.0001583
1375.0,0.0002879
1376.0,0.0002341
1377.0,0.0001106
1378.0,0.001016
1379.0,4.678e-05
1380.0,7.276e-05
1381.0,2.071e-06
1382.0,2.169e-06
1383.0,3.65e-08
1384.0,5.061e-07
1385.0,1.803e-06
1386.0,2.094e-06
1387.0,0.0001766
1388.0,3.551e-06
1389.0,0.0005217
1390.0,0.000449
1391.0,0.0003089
1392.0,2.113e-05
1393.0,0.0001043
1394.0,6.61e-05
1395.0,5.708e-07
1396.0,4.907e-09
1397.0,4.381e-05
1398.0,0.001156
1399.0,0.0007322
1400.0,2.474e-09
1401.0,8.342e-09
1402.0,0.00172
1403.0,0.002229
1404.0,0.0006892
1405.0,3.075e-07
1406.0,0.001889
1407.0,0.000162
1408.0,0.001532
1409.0,0.0005657
1410.0,0.0004283
1411.0,0.001949
1412.0,0.002515
1413.0,0.02266
1414.0,0.0003343
1415.0,0.000168
1416.0,0.03476
1417.0,0.01131
1418.0,0.01297
1419.0,0.00205
1420.0,0.007964
1421.0,0.00864
1422.0,0.04515
1423.0,0.008959
1424.0,0.0166
1425.0,0.02472
1426.0,0.02733
1427.0,0.04863
1428.0,0.004293
1429.0,0.03709
1430.0,0.06144
1431.0,0.06705
1432.0,0.0034
1433.0,0.04325
1434.0,0.0223
1435.0,0.0233
1436.0,0.04339
1437.0,0.03324
1438.0,0.01448
1439.0,0.05831
1440.0,0.04374
1441.0,0.03408
1442.0,0.03768
1443.0,0.04619
1444.0,0.06348
1445.0,0.05057
1446.0,0.02302
1447.0,0.03622
1448.0,0.1164
1449.0,0.1019
1450.0,0.02682
1451.0,0.01098
1452.0,0.06215
1453.0,0.08115
1454.0,0.1366
1455.0,0.06542
1456.0,0.08833
1457.0,0.117
1458.0,0.1364
1459.0,0.1615
1460.0,0.08489
1461.0,0.08931
1462.0,0.1297
1463.0,0.04273
1464.0,0.1526
