interpolation:linear
wavelength,value
280.0,1.7839999999999998e-22
280.5,4.774e-21
281.0,2.4180000000000002e-20
281.5,6.316e-19
282.0,4.516e-18
282.5,1.611e-17
283.0,6.56e-17
283.5,1.188e-16
284.0,2.5e-15
284.5,7.86e-15
285.0,1.665e-14
285.5,1.136e-13
286.0,5.08e-13
286.5,2.638e-12
287.0,8.244e-12
287.5,3.428e-11
288.0,1.365e-10
288.5,5.077e-10
289.0,1.588e-09
289.5,5.474e-09
290.0,1.667e-08
290.5,3.656e-08
291.0,8.419e-08
291.5,2.584e-07
292.0,6.191e-07
292.5,9.025e-07
293.0,2.008e-06
293.5,5.061e-06
294.0,8.18e-06
294.5,1.402e-05
295.0,2.384e-05
295.5,5.526e-05
296.0,9.652e-05
296.5,0.0001222
297.0,0.0001525
297.5,0.0003613
298.0,0.0005126
298.5,0.0004757
299.0,0.0009693
299.5,0.001395
300.0,0.001422
300.5,0.001902
301.0,0.003019
301.5,0.00428
302.0,0.003463
302.5,0.006397
303.0,0.01067
303.5,0.01284
304.0,0.0117
304.5,0.01595
305.0,0.0213
305.5,0.02258
306.0,0.02129
306.5,0.0253
307.0,0.03365
307.5,0.04038
308.0,0.04213
308.5,0.04747
309.0,0.04193
309.5,0.04567
310.0,0.0449
310.5,0.07213
311.0,0.0889
311.5,0.08537
312.0,0.08136
312.5,0.09596
313.0,0.1026
313.5,0.1019
314.0,0.1225
314.5,0.1027
315.0,0.1341
315.5,0.1161
316.0,0.09686
316.5,0.1337
317.0,0.1669
317.5,0.1766
318.0,0.1342
318.5,0.1578
319.0,0.1824
319.5,0.1567
320.0,0.1915
320.5,0.2265
321.0,0.1916
321.5,0.1834
322.0,0.2084
322.5,0.1814
323.0,0.1745
323.5,0.2015
324.0,0.2344
324.5,0.2434
325.0,0.2216
325.5,0.2772
326.0,0.3269
326.5,0.3209
327.0,0.3239
327.5,0.3175
328.0,0.293
328.5,0.2975
329.0,0.3469
329.5,0.3918
330.0,0.3996
330.5,0.3285
331.0,0.3386
331.5,0.3394
332.0,0.359
332.5,0.3524
333.0,0.355
333.5,0.3284
334.0,0.3386
334.5,0.384
335.0,0.3578
335.5,0.4066
336.0,0.2822
336.5,0.3441
337.0,0.2857
337.5,0.3576
338.0,0.3445
338.5,0.3892
339.0,0.3885
339.5,0.3734
340.0,0.4504
340.5,0.4066
341.0,0.3904
341.5,0.3626
342.0,0.4355
342.5,0.4093
343.0,0.4497
343.5,0.4233
344.0,0.3183
344.5,0.3154
345.0,0.4229
345.5,0.4344
346.0,0.371
346.5,0.4217
347.0,0.4525
347.5,0.3664
348.0,0.4206
348.5,0.4224
349.0,0.3931
349.5,0.39
350.0,0.4838
350.5,0.5116
351.0,0.4577
351.5,0.4439
352.0,0.4795
352.5,0.3759
353.0,0.4751
353.5,0.5096
354.0,0.5307
354.5,0.5397
355.0,0.5391
355.5,0.4882
356.0,0.5122
356.5,0.4385
357.0,0.3633
357.5,0.446
358.0,0.3544
358.5,0.3036
359.0,0.4257
359.5,0.5435
360.0,0.5777
360.5,0.463
361.0,0.4231
361.5,0.488
362.0,0.4227
362.5,0.5861
363.0,0.5273
363.5,0.4867
364.0,0.5963
364.5,0.5108
365.0,0.5214
365.5,0.6557
366.0,0.6961
366.5,0.6553
367.0,0.6395
367.5,0.6651
368.0,0.5831
368.5,0.5895
369.0,0.6379
369.5,0.6813
370.0,0.7277
370.5,0.5659
371.0,0.6058
371.5,0.7595
372.0,0.5051
372.5,0.6068
373.0,0.6183
373.5,0.403
374.0,0.5867
374.5,0.4867
375.0,0.4741
375.5,0.7092
376.0,0.589
376.5,0.6116
377.0,0.6487
377.5,0.7602
378.0,0.8257
378.5,0.7821
379.0,0.6468
379.5,0.5922
380.0,0.6169
380.5,0.7485
381.0,0.7512
381.5,0.5965
382.0,0.5305
382.5,0.453
383.0,0.42
383.5,0.4052
384.0,0.4477
384.5,0.6596
385.0,0.6551
385.5,0.6111
386.0,0.5242
386.5,0.6896
387.0,0.574
387.5,0.6458
388.0,0.5973
388.5,0.5913
389.0,0.6393
389.5,0.7756
390.0,0.7795
390.5,0.7185
391.0,0.8471
391.5,0.8654
392.0,0.7301
392.5,0.6546
393.0,0.3647
393.5,0.2655
394.0,0.541
394.5,0.6887
395.0,0.8417
395.5,0.8563
396.0,0.7435
396.5,0.4352
397.0,0.327
397.5,0.6661
398.0,0.9343
398.5,0.9671
399.0,1.048
399.5,1.046
400.0,1.088
401.0,1.12
402.0,1.185
403.0,1.128
404.0,1.113
405.0,1.116
406.0,1.1
407.0,1.085
408.0,1.13
409.0,1.212
410.0,1.061
411.0,1.152
412.0,1.239
413.0,1.211
414.0,1.228
415.0,1.234
416.0,1.258
417.0,1.23
418.0,1.209
419.0,1.228
420.0,1.225
421.0,1.284
422.0,1.223
423.0,1.197
424.0,1.268
425.0,1.268
426.0,1.237
427.0,1.216
428.0,1.187
429.0,1.125
430.0,0.9864
431.0,0.9799
432.0,1.267
433.0,1.276
434.0,1.187
435.0,1.242
436.0,1.401
437.0,1.383
438.0,1.261
439.0,1.308
440.0,1.351
441.0,1.402
442.0,1.505
443.0,1.469
444.0,1.503
445.0,1.473
446.0,1.407
447.0,1.522
448.0,1.55
449.0,1.557
450.0,1.602
451.0,1.664
452.0,1.605
453.0,1.511
454.0,1.579
455.0,1.591
456.0,1.631
457.0,1.66
458.0,1.607
459.0,1.6
460.0,1.607
461.0,1.646
462.0,1.66
463.0,1.651
464.0,1.624
465.0,1.604
466.0,1.621
467.0,1.594
468.0,1.615
469.0,1.626
470.0,1.576
471.0,1.575
472.0,1.662
473.0,1.643
474.0,1.648
475.0,1.665
476.0,1.619
477.0,1.626
478.0,1.673
479.0,1.664
480.0,1.668
481.0,1.7
482.0,1.709
483.0,1.689
484.0,1.655
485.0,1.578
486.0,1.38
487.0,1.447
488.0,1.589
489.0,1.596
490.0,1.68
491.0,1.652
492.0,1.562
493.0,1.614
494.0,1.632
495.0,1.647
496.0,1.659
497.0,1.686
498.0,1.609
499.0,1.631
500.0,1.586
501.0,1.559
502.0,1.54
503.0,1.606
504.0,1.572
505.0,1.625
506.0,1.68
507.0,1.599
508.0,1.549
509.0,1.593
510.0,1.584
511.0,1.627
512.0,1.646
513.0,1.559
514.0,1.549
515.0,1.534
516.0,1.532
517.0,1.362
518.0,1.433
519.0,1.504
520.0,1.56
521.0,1.576
522.0,1.579
523.0,1.552
524.0,1.61
525.0,1.631
526.0,1.56
527.0,1.472
528.0,1.558
529.0,1.645
530.0,1.622
531.0,1.648
532.0,1.592
533.0,1.547
534.0,1.593
535.0,1.628
536.0,1.644
537.0,1.579
538.0,1.608
539.0,1.595
540.0,1.531
541.0,1.543
542.0,1.593
543.0,1.576
544.0,1.606
545.0,1.601
546.0,1.61
547.0,1.61
548.0,1.591
549.0,1.596
550.0,1.616
551.0,1.597
552.0,1.609
553.0,1.581
554.0,1.62
555.0,1.624
556.0,1.604
557.0,1.556
558.0,1.546
559.0,1.518
560.0,1.539
561.0,1.56
562.0,1.551
563.0,1.595
564.0,1.553
565.0,1.541
566.0,1.52
567.0,1.551
568.0,1.54
569.0,1.51
570.0,1.509
571.0,1.499
572.0,1.539
573.0,1.557
574.0,1.554
575.0,1.526
576.0,1.513
577.0,1.53
578.0,1.506
579.0,1.51
580.0,1.536
581.0,1.542
582.0,1.569
583.0,1.571
584.0,1.584
585.0,1.545
586.0,1.514
587.0,1.55
588.0,1.519
589.0,1.36
590.0,1.421
591.0,1.497
592.0,1.483
593.0,1.5
594.0,1.493
595.0,1.461
596.0,1.508
597.0,1.495
598.0,1.488
599.0,1.489
600.0,1.489
601.0,1.475
602.0,1.465
603.0,1.489
604.0,1.514
605.0,1.506
606.0,1.499
607.0,1.514
608.0,1.496
609.0,1.499
610.0,1.487
611.0,1.495
612.0,1.49
613.0,1.472
614.0,1.451
615.0,1.482
616.0,1.433
617.0,1.43
618.0,1.485
619.0,1.47
620.0,1.48
621.0,1.483
622.0,1.467
623.0,1.446
624.0,1.421
625.0,1.418
626.0,1.439
627.0,1.458
628.0,1.39
629.0,1.434
630.0,1.402
631.0,1.425
632.0,1.407
633.0,1.446
634.0,1.429
635.0,1.451
636.0,1.43
637.0,1.453
638.0,1.465
639.0,1.448
640.0,1.433
641.0,1.432
642.0,1.424
643.0,1.444
644.0,1.438
645.0,1.442
646.0,1.412
647.0,1.403
648.0,1.406
649.0,1.379
650.0,1.377
651.0,1.435
652.0,1.386
653.0,1.416
654.0,1.4
655.0,1.353
656.0,1.196
657.0,1.228
658.0,1.373
659.0,1.382
660.0,1.388
661.0,1.398
662.0,1.402
663.0,1.374
664.0,1.388
665.0,1.388
666.0,1.388
667.0,1.386
668.0,1.386
669.0,1.407
670.0,1.401
671.0,1.4
672.0,1.388
673.0,1.409
674.0,1.404
675.0,1.391
676.0,1.4
677.0,1.386
678.0,1.39
679.0,1.368
680.0,1.379
681.0,1.37
682.0,1.368
683.0,1.366
684.0,1.359
685.0,1.371
686.0,1.363
687.0,1.028
688.0,1.144
689.0,1.147
690.0,1.184
691.0,1.224
692.0,1.252
693.0,1.244
694.0,1.234
695.0,1.271
696.0,1.273
697.0,1.332
698.0,1.312
699.0,1.293
700.0,1.278
701.0,1.269
702.0,1.273
703.0,1.276
704.0,1.31
705.0,1.312
706.0,1.308
707.0,1.308
708.0,1.311
709.0,1.309
710.0,1.311
711.0,1.308
712.0,1.303
713.0,1.291
714.0,1.296
715.0,1.26
716.0,1.262
717.0,1.14
718.0,1.056
719.0,0.9733
720.0,1.022
721.0,1.1
722.0,1.227
723.0,1.159
724.0,1.063
725.0,1.053
726.0,1.098
727.0,1.104
728.0,1.052
729.0,1.075
730.0,1.136
731.0,1.093
732.0,1.152
733.0,1.203
734.0,1.227
735.0,1.204
736.0,1.203
737.0,1.208
738.0,1.216
739.0,1.193
740.0,1.221
741.0,1.207
742.0,1.206
743.0,1.237
744.0,1.232
745.0,1.232
746.0,1.237
747.0,1.24
748.0,1.238
749.0,1.223
750.0,1.223
751.0,1.211
752.0,1.216
753.0,1.222
754.0,1.225
755.0,1.218
756.0,1.218
757.0,1.22
758.0,1.205
759.0,1.187
760.0,0.3351
761.0,0.212
762.0,0.7354
763.0,0.4524
764.0,0.603
765.0,0.7362
766.0,0.8409
767.0,1.001
768.0,1.109
769.0,1.122
770.0,1.149
771.0,1.154
772.0,1.155
773.0,1.163
774.0,1.157
775.0,1.148
776.0,1.162
777.0,1.147
778.0,1.14
779.0,1.141
780.0,1.135
781.0,1.136
782.0,1.143
783.0,1.123
784.0,1.128
785.0,1.12
786.0,1.133
787.0,1.118
788.0,1.107
789.0,1.107
790.0,1.085
791.0,1.088
792.0,1.079
793.0,1.062
794.0,1.073
795.0,1.093
796.0,1.069
797.0,1.071
798.0,1.093
799.0,1.088
800.0,1.072
801.0,1.071
802.0,1.067
803.0,1.06
804.0,1.061
805.0,1.055
806.0,1.08
807.0,1.069
808.0,1.069
809.0,1.052
810.0,1.046
811.0,1.052
812.0,1.029
813.0,1.012
814.0,0.9136
815.0,0.9075
816.0,0.8485
817.0,0.861
818.0,0.834
819.0,0.9119
820.0,0.8671
821.0,0.9858
822.0,0.9624
823.0,0.6999
824.0,0.9437
825.0,0.9706
826.0,0.9421
827.0,0.9853
828.0,0.8605
829.0,0.9349
830.0,0.9255
831.0,0.9278
832.0,0.9041
833.0,0.9486
834.0,0.9234
835.0,0.9968
836.0,0.9651
837.0,0.9991
838.0,0.9727
839.0,0.9832
840.0,1.004
841.0,0.9914
842.0,0.9905
843.0,0.9868
844.0,0.9749
845.0,1.005
846.0,1.001
847.0,0.9811
848.0,0.9765
849.0,0.9489
850.0,0.9089
851.0,0.964
852.0,0.9566
853.0,0.9196
854.0,0.7951
855.0,0.8722
856.0,0.9538
857.0,0.9742
858.0,0.9675
859.0,0.9678
860.0,0.9692
861.0,0.9641
862.0,0.9791
863.0,1.002
864.0,0.9521
865.0,0.9438
866.0,0.8486
867.0,0.8856
868.0,0.9638
869.0,0.9438
870.0,0.9707
871.0,0.9576
872.0,0.9542
873.0,0.9523
874.0,0.941
875.0,0.9221
876.0,0.9318
877.0,0.9412
878.0,0.9517
879.0,0.9371
880.0,0.917
881.0,0.904
882.0,0.9238
883.0,0.9262
884.0,0.9222
885.0,0.9293
886.0,0.8881
887.0,0.8957
888.0,0.9102
889.0,0.9184
890.0,0.9134
891.0,0.9106
892.0,0.8876
893.0,0.8641
894.0,0.8416
895.0,0.8054
896.0,0.764
897.0,0.6707
898.0,0.7234
899.0,0.5684
900.0,0.7322
901.0,0.5948
902.0,0.6745
903.0,0.6886
904.0,0.8358
905.0,0.8117
906.0,0.7635
907.0,0.6416
908.0,0.6516
909.0,0.6953
910.0,0.6333
911.0,0.6642
912.0,0.6898
913.0,0.6436
914.0,0.635
915.0,0.6859
916.0,0.5871
917.0,0.7239
918.0,0.6024
919.0,0.7327
920.0,0.7314
921.0,0.758
922.0,0.6909
923.0,0.7318
924.0,0.7086
925.0,0.6938
926.0,0.7012
927.0,0.7724
928.0,0.6028
929.0,0.56
930.0,0.4563
931.0,0.4295
932.0,0.3256
933.0,0.274
934.0,0.1701
935.0,0.2727
936.0,0.1826
937.0,0.187
938.0,0.2249
939.0,0.4163
940.0,0.4896
941.0,0.385
942.0,0.4356
943.0,0.2989
944.0,0.3042
945.0,0.3944
946.0,0.2176
947.0,0.4003
948.0,0.2973
949.0,0.519
950.0,0.1715
951.0,0.5082
952.0,0.2957
953.0,0.3671
954.0,0.4339
955.0,0.3694
956.0,0.3521
957.0,0.2985
958.0,0.4752
959.0,0.3946
960.0,0.4415
961.0,0.4827
962.0,0.4587
963.0,0.5174
964.0,0.478
965.0,0.514
966.0,0.517
967.0,0.5158
968.0,0.6536
969.0,0.6849
970.0,0.6347
971.0,0.7101
972.0,0.6824
973.0,0.6107
974.0,0.5824
975.0,0.5978
976.0,0.5763
977.0,0.6389
978.0,0.614
979.0,0.6376
980.0,0.6033
981.0,0.7054
982.0,0.6804
983.0,0.6568
984.0,0.7205
985.0,0.6777
986.0,0.7293
987.0,0.7191
988.0,0.7179
989.0,0.7248
990.0,0.7132
991.0,0.7275
992.0,0.7313
993.0,0.7191
994.0,0.7307
995.0,0.7292
996.0,0.7267
997.0,0.7274
998.0,0.7243
999.0,0.7215
1000.0,0.7174
1001.0,0.7253
1002.0,0.7093
1003.0,0.7128
1004.0,0.6964
1005.0,0.6695
1006.0,0.6964
1007.0,0.7108
1008.0,0.7077
1009.0,0.7047
1010.0,0.7022
1011.0,0.7072
1012.0,0.7018
1013.0,0.7053
1014.0,0.7003
1015.0,0.6959
1016.0,0.6928
1017.0,0.6948
1018.0,0.6917
1019.0,0.6785
1020.0,0.6883
1021.0,0.6871
1022.0,0.6824
1023.0,0.6897
1024.0,0.6824
1025.0,0.6888
1026.0,0.6863
1027.0,0.6846
1028.0,0.6833
1029.0,0.6754
1030.0,0.6795
1031.0,0.677
1032.0,0.6749
1033.0,0.6648
1034.0,0.6648
1035.0,0.6669
1036.0,0.6705
1037.0,0.6596
1038.0,0.6626
1039.0,0.6623
1040.0,0.6597
1041.0,0.6625
1042.0,0.6579
1043.0,0.6559
1044.0,0.6583
1045.0,0.6495
1046.0,0.6424
1047.0,0.6483
1048.0,0.652
1049.0,0.6498
1050.0,0.647
1051.0,0.6462
1052.0,0.6437
1053.0,0.6388
1054.0,0.6404
1055.0,0.641
1056.0,0.639
1057.0,0.6373
1058.0,0.6218
1059.0,0.6228
1060.0,0.6219
1061.0,0.6213
1062.0,0.6249
1063.0,0.6189
1064.0,0.6262
1065.0,0.6222
1066.0,0.6095
1067.0,0.6176
1068.0,0.6045
1069.0,0.5855
1070.0,0.6058
1071.0,0.6139
1072.0,0.6079
1073.0,0.5989
1074.0,0.6129
1075.0,0.5864
1076.0,0.6127
1077.0,0.6041
1078.0,0.5936
1079.0,0.6022
1080.0,0.5949
1081.0,0.5778
1082.0,0.5835
1083.0,0.5845
1084.0,0.5777
1085.0,0.5959
1086.0,0.5507
1087.0,0.5632
1088.0,0.5847
1089.0,0.5707
1090.0,0.5612
1091.0,0.584
1092.0,0.5816
1093.0,0.5057
1094.0,0.5336
1095.0,0.5248
1096.0,0.5064
1097.0,0.568
1098.0,0.4997
1099.0,0.5193
1100.0,0.4886
1101.0,0.493
1102.0,0.4742
1103.0,0.4722
1104.0,0.4725
1105.0,0.5087
1106.0,0.411
1107.0,0.4874
1108.0,0.4265
1109.0,0.4247
1110.0,0.4847
1111.0,0.347
1112.0,0.4204
1113.0,0.2869
1114.0,0.3181
1115.0,0.2644
1116.0,0.2232
1117.0,0.09628
1118.0,0.238
1119.0,0.1292
1120.0,0.1626
1121.0,0.2087
1122.0,0.09755
1123.0,0.1466
1124.0,0.1239
1125.0,0.159
1126.0,0.06519
1127.0,0.1785
1128.0,0.1173
1129.0,0.1226
1130.0,0.08578
1131.0,0.3142
1132.0,0.2511
1133.0,0.1719
1134.0,0.05254
1135.0,0.01934
1136.0,0.148
1137.0,0.3121
1138.0,0.2231
1139.0,0.3093
1140.0,0.2674
1141.0,0.212
1142.0,0.2388
1143.0,0.3293
1144.0,0.1275
1145.0,0.1654
1146.0,0.1785
1147.0,0.07328
1148.0,0.2853
1149.0,0.2352
1150.0,0.1367
1151.0,0.2216
1152.0,0.2641
1153.0,0.251
1154.0,0.1628
1155.0,0.323
1156.0,0.2954
1157.0,0.3251
1158.0,0.3213
1159.0,0.3404
1160.0,0.2985
1161.0,0.3542
1162.0,0.3569
1163.0,0.4597
1164.0,0.4026
1165.0,0.3873
1166.0,0.3796
1167.0,0.4092
1168.0,0.4153
1169.0,0.4222
1170.0,0.4524
1171.0,0.4423
1172.0,0.4467
1173.0,0.4515
1174.0,0.3406
1175.0,0.4385
1176.0,0.4736
1177.0,0.46
1178.0,0.3594
1179.0,0.477
1180.0,0.4353
1181.0,0.4481
1182.0,0.3243
1183.0,0.4391
1184.0,0.4165
1185.0,0.4062
1186.0,0.4672
1187.0,0.4494
1188.0,0.3309
1189.0,0.4198
1190.0,0.4566
1191.0,0.4409
1192.0,0.4621
1193.0,0.4456
1194.0,0.4574
1195.0,0.4378
1196.0,0.425
1197.0,0.4547
1198.0,0.4203
1199.0,0.3695
1200.0,0.4405
1201.0,0.4289
1202.0,0.4241
1203.0,0.4206
1204.0,0.3748
1205.0,0.4304
1206.0,0.4686
1207.0,0.4242
1208.0,0.4139
1209.0,0.4215
1210.0,0.4364
1211.0,0.4203
1212.0,0.4201
1213.0,0.4558
1214.0,0.4277
1215.0,0.4209
1216.0,0.4541
1217.0,0.4444
1218.0,0.4507
1219.0,0.4462
1220.0,0.4508
1221.0,0.454
1222.0,0.4437
1223.0,0.4405
1224.0,0.4394
1225.0,0.4512
1226.0,0.4528
1227.0,0.4237
1228.0,0.4539
1229.0,0.4529
1230.0,0.4463
1231.0,0.4553
1232.0,0.4527
1233.0,0.4418
1234.0,0.4539
1235.0,0.4517
1236.0,0.4545
1237.0,0.45
1238.0,0.4529
1239.0,0.4472
1240.0,0.4487
1241.0,0.4477
1242.0,0.4457
1243.0,0.442
1244.0,0.4455
1245.0,0.4472
1246.0,0.4446
1247.0,0.4432
1248.0,0.4434
1249.0,0.4443
1250.0,0.442
1251.0,0.437
1252.0,0.4362
1253.0,0.4343
1254.0,0.4312
1255.0,0.4362
1256.0,0.4269
1257.0,0.4252
1258.0,0.4308
1259.0,0.4198
1260.0,0.4214
1261.0,0.4036
1262.0,0.3946
1263.0,0.3955
1264.0,0.3724
1265.0,0.3929
1266.0,0.3823
1267.0,0.3861
1268.0,0.3709
1269.0,0.2637
1270.0,0.3858
1271.0,0.4016
1272.0,0.4022
1273.0,0.3986
1274.0,0.399
1275.0,0.4037
1276.0,0.4064
1277.0,0.4079
1278.0,0.4132
1279.0,0.4098
1280.0,0.4044
1281.0,0.3848
1282.0,0.369
1283.0,0.3978
1284.0,0.4077
1285.0,0.4101
1286.0,0.4146
1287.0,0.4101
1288.0,0.4095
1289.0,0.4002
1290.0,0.4057
1291.0,0.4107
1292.0,0.3927
1293.0,0.4044
1294.0,0.4019
1295.0,0.4016
1296.0,0.3879
1297.0,0.3706
1298.0,0.3918
1299.0,0.4043
1300.0,0.3547
1301.0,0.363
1302.0,0.3903
1303.0,0.3486
1304.0,0.3092
1305.0,0.3833
1306.0,0.3839
1307.0,0.3118
1308.0,0.3474
1309.0,0.3819
1310.0,0.3064
1311.0,0.3357
1312.0,0.3285
1313.0,0.324
1314.0,0.2943
1315.0,0.2931
1316.0,0.3323
1317.0,0.3162
1318.0,0.3387
1319.0,0.279
1320.0,0.2673
1321.0,0.3064
1322.0,0.3114
1323.0,0.2463
1324.0,0.2736
1325.0,0.3282
1326.0,0.2893
1327.0,0.2778
1328.0,0.2434
1329.0,0.193
1330.0,0.2458
1331.0,0.1612
1332.0,0.162
1333.0,0.2219
1334.0,0.1831
1335.0,0.2451
1336.0,0.2001
1337.0,0.181
1338.0,0.1952
1339.0,0.1927
1340.0,0.1843
1341.0,0.1871
1342.0,0.1961
1343.0,0.1488
1344.0,0.08896
1345.0,0.126
1346.0,0.07409
1347.0,0.07723
1348.0,0.007755
1349.0,0.02437
1350.0,0.02305
1351.0,0.008227
1352.0,0.003247
1353.0,0.0002675
1354.0,0.0006925
1355.0,1.411e-05
1356.0,0.0001365
1357.0,0.0002041
1358.0,1.61e-05
1359.0,3.94e-06
1360.0,9.342e-06
1361.0,4.502e-08
1362.0,2.445e-10
1363.0,1.452e-05
1364.0,6.615e-06
1365.0,1.808e-10
1366.0,5.28e-05
1367.0,2.037e-05
1368.0,6.346e-12
1369.0,2.614e-06
1370.0,1.699e-06
1371.0,1.418e-07
1372.0,1.134e-05
1373.0,0.0001409
1374.0,0.0004758
1375.0,0.0008455
1376.0,0.0006144
1377.0,0.000305
1378.0,0.002481
1379.0,0.0001315
1380.0,0.000225
1381.0,7.481e-06
1382.0,1.103e-05
1383.0,2.277e-07
1384.0,3.273e-06
1385.0,7.761e-06
1386.0,1.18e-05
1387.0,0.0005737
1388.0,1.263e-05
1389.0,0.001409
1390.0,0.001201
1391.0,0.0008758
1392.0,6.651e-05
1393.0,0.0002921
1394.0,0.0002423
1395.0,2.765e-06
1396.0,5.382e-08
1397.0,0.0001331
1398.0,0.002844
1399.0,0.001816
1400.0,3.343e-08
1401.0,8.428e-08
1402.0,0.003389
1403.0,0.004558
1404.0,0.001439
1405.0,1.715e-06
1406.0,0.00418
1407.0,0.0003593
1408.0,0.003366
1409.0,0.001424
1410.0,0.001021
1411.0,0.003963
1412.0,0.004791
1413.0,0.03429
1414.0,0.0007876
1415.0,0.0004257
1416.0,0.04721
1417.0,0.0178
1418.0,0.02029
1419.0,0.00335
1420.0,0.01259
1421.0,0.01398
1422.0,0.06043
1423.0,0.01275
1424.0,0.02304
1425.0,0.03488
1426.0,0.03669
1427.0,0.06055
1428.0,0.007503
1429.0,0.0482
1430.0,0.07504
1431.0,0.08064
1432.0,0.006024
1433.0,0.05392
1434.0,0.02877
1435.0,0.03326
1436.0,0.05684
1437.0,0.04371
1438.0,0.02054
1439.0,0.07402
1440.0,0.05598
1441.0,0.04602
1442.0,0.05012
1443.0,0.05785
1444.0,0.07819
1445.0,0.06512
1446.0,0.03054
1447.0,0.04817
1448.0,0.1335
1449.0,0.1199
1450.0,0.03564
1451.0,0.01544
1452.0,0.07596
1453.0,0.09728
1454.0,0.1534
1455.0,0.07745
1456.0,0.1062
1457.0,0.1342
1458.0,0.1505
1459.0,0.1791
1460.0,0.09759
1461.0,0.1051
1462.0,0.1476
1463.0,0.05246
1464.0,0.1685
1465.0,0.1028
1466.0,0.0795
1467.0,0.04585
1468.0,0.09147
