interpolation:linear
wavelength,value
280.0,1.37e-26
280.5,6.692e-25
281.0,4.224e-24
281.5,1.9759999999999998e-22
282.0,2.013e-21
282.5,9.117e-21
283.0,4.8270000000000005e-20
283.5,9.965000000000001e-20
284.0,3.85e-18
284.5,1.597e-17
285.0,4.565e-17
285.5,4.433e-16
286.0,2.286e-15
286.5,1.592e-14
287.0,6.176e-14
287.5,3.411e-13
288.0,1.943e-12
288.5,8.736e-12
289.0,3.324e-11
289.5,1.421e-10
290.0,5.164e-10
290.5,1.312e-09
291.0,3.61e-09
291.5,1.389e-08
292.0,4e-08
292.5,6.467e-08
293.0,1.644e-07
293.5,4.964e-07
294.0,9.068e-07
294.5,1.704e-06
295.0,3.255e-06
295.5,8.711e-06
296.0,1.678e-05
296.5,2.333e-05
297.0,3.135e-05
297.5,8.237e-05
298.0,0.000127
298.5,0.0001255
299.0,0.0002709
299.5,0.0004277
300.0,0.0004577
300.5,0.000642
301.0,0.001091
301.5,0.001636
302.0,0.00136
302.5,0.002635
303.0,0.004661
303.5,0.0058
304.0,0.005372
304.5,0.007615
305.0,0.01069
305.5,0.01168
306.0,0.01115
306.5,0.01351
307.0,0.01866
307.5,0.02316
308.0,0.02434
308.5,0.02789
309.0,0.02496
309.5,0.02816
310.0,0.02814
310.5,0.04561
311.0,0.05697
311.5,0.05508
312.0,0.05384
312.5,0.06456
313.0,0.06967
313.5,0.06886
314.0,0.08428
314.5,0.07229
315.0,0.0949
315.5,0.08151
316.0,0.06926
316.5,0.09703
317.0,0.1213
317.5,0.1281
318.0,0.09839
318.5,0.1177
319.0,0.1374
319.5,0.1167
320.0,0.1426
320.5,0.1716
321.0,0.1472
321.5,0.1413
322.0,0.1586
322.5,0.1384
323.0,0.1345
323.5,0.1578
324.0,0.1842
324.5,0.1906
325.0,0.1721
325.5,0.217
326.0,0.2587
326.5,0.2557
327.0,0.2579
327.5,0.2526
328.0,0.2313
328.5,0.2376
329.0,0.2793
329.5,0.3164
330.0,0.3227
330.5,0.2643
331.0,0.2723
331.5,0.2744
332.0,0.292
332.5,0.2876
333.0,0.2897
333.5,0.2674
334.0,0.2759
334.5,0.3145
335.0,0.294
335.5,0.3349
336.0,0.2327
336.5,0.2835
337.0,0.2353
337.5,0.2947
338.0,0.2851
338.5,0.3228
339.0,0.3227
339.5,0.3105
340.0,0.3744
340.5,0.3385
341.0,0.3257
341.5,0.303
342.0,0.3644
342.5,0.3429
343.0,0.377
343.5,0.3552
344.0,0.2669
344.5,0.265
345.0,0.3561
345.5,0.3663
346.0,0.3132
346.5,0.3564
347.0,0.3828
347.5,0.3102
348.0,0.3565
348.5,0.3584
349.0,0.3339
349.5,0.3317
350.0,0.4118
350.5,0.4359
351.0,0.3902
351.5,0.3787
352.0,0.4096
352.5,0.3214
353.0,0.4067
353.5,0.4367
354.0,0.4551
354.5,0.4631
355.0,0.463
355.5,0.4197
356.0,0.4407
356.5,0.3776
357.0,0.3131
357.5,0.3846
358.0,0.3058
358.5,0.2622
359.0,0.3679
359.5,0.4701
360.0,0.5
360.5,0.401
361.0,0.3668
361.5,0.4235
362.0,0.3673
362.5,0.5097
363.0,0.4591
363.5,0.4241
364.0,0.5201
364.5,0.4459
365.0,0.4554
365.5,0.5732
366.0,0.609
366.5,0.5738
367.0,0.5604
367.5,0.5832
368.0,0.5117
368.5,0.5178
369.0,0.5607
369.5,0.5992
370.0,0.6405
370.5,0.4984
371.0,0.534
371.5,0.6699
372.0,0.4458
372.5,0.5359
373.0,0.5465
373.5,0.3565
374.0,0.5193
374.5,0.4311
375.0,0.4201
375.5,0.6289
376.0,0.5226
376.5,0.543
377.0,0.5762
377.5,0.6758
378.0,0.7344
378.5,0.696
379.0,0.5759
379.5,0.5274
380.0,0.5498
380.5,0.6675
381.0,0.6705
381.5,0.5327
382.0,0.4742
382.5,0.4052
383.0,0.376
383.5,0.3629
384.0,0.4013
384.5,0.5915
385.0,0.5878
385.5,0.5486
386.0,0.4709
386.5,0.6199
387.0,0.5163
387.5,0.5812
388.0,0.5378
388.5,0.5327
389.0,0.5763
389.5,0.6995
390.0,0.7035
390.5,0.6488
391.0,0.7653
391.5,0.7822
392.0,0.6602
392.5,0.5923
393.0,0.3302
393.5,0.2405
394.0,0.4903
394.5,0.6245
395.0,0.7636
395.5,0.7772
396.0,0.6752
396.5,0.3954
397.0,0.2973
397.5,0.6058
398.0,0.8501
398.5,0.8803
399.0,0.9547
399.5,0.9533
400.0,0.9918
401.0,1.022
402.0,1.082
403.0,1.031
404.0,1.019
405.0,1.022
406.0,1.008
407.0,0.9953
408.0,1.038
409.0,1.114
410.0,0.9759
411.0,1.06
412.0,1.142
413.0,1.117
414.0,1.134
415.0,1.14
416.0,1.163
417.0,1.137
418.0,1.12
419.0,1.137
420.0,1.136
421.0,1.191
422.0,1.135
423.0,1.112
424.0,1.179
425.0,1.18
426.0,1.152
427.0,1.133
428.0,1.106
429.0,1.05
430.0,0.921
431.0,0.9153
432.0,1.184
433.0,1.194
434.0,1.111
435.0,1.163
436.0,1.313
437.0,1.297
438.0,1.184
439.0,1.227
440.0,1.269
441.0,1.317
442.0,1.416
443.0,1.382
444.0,1.414
445.0,1.387
446.0,1.325
447.0,1.435
448.0,1.461
449.0,1.469
450.0,1.513
451.0,1.572
452.0,1.517
453.0,1.429
454.0,1.494
455.0,1.506
456.0,1.545
457.0,1.573
458.0,1.523
459.0,1.517
460.0,1.524
461.0,1.562
462.0,1.576
463.0,1.567
464.0,1.543
465.0,1.525
466.0,1.542
467.0,1.517
468.0,1.537
469.0,1.548
470.0,1.501
471.0,1.501
472.0,1.584
473.0,1.566
474.0,1.571
475.0,1.587
476.0,1.543
477.0,1.55
478.0,1.595
479.0,1.587
480.0,1.592
481.0,1.624
482.0,1.634
483.0,1.615
484.0,1.584
485.0,1.51
486.0,1.322
487.0,1.386
488.0,1.523
489.0,1.53
490.0,1.611
491.0,1.585
492.0,1.498
493.0,1.549
494.0,1.567
495.0,1.582
496.0,1.593
497.0,1.62
498.0,1.546
499.0,1.568
500.0,1.524
501.0,1.499
502.0,1.48
503.0,1.543
504.0,1.509
505.0,1.562
506.0,1.614
507.0,1.537
508.0,1.49
509.0,1.533
510.0,1.525
511.0,1.567
512.0,1.585
513.0,1.502
514.0,1.493
515.0,1.479
516.0,1.477
517.0,1.314
518.0,1.382
519.0,1.451
520.0,1.506
521.0,1.521
522.0,1.524
523.0,1.498
524.0,1.554
525.0,1.574
526.0,1.505
527.0,1.42
528.0,1.504
529.0,1.587
530.0,1.565
531.0,1.59
532.0,1.537
533.0,1.493
534.0,1.538
535.0,1.572
536.0,1.588
537.0,1.526
538.0,1.554
539.0,1.542
540.0,1.479
541.0,1.491
542.0,1.54
543.0,1.524
544.0,1.552
545.0,1.548
546.0,1.556
547.0,1.556
548.0,1.538
549.0,1.544
550.0,1.563
551.0,1.545
552.0,1.557
553.0,1.53
554.0,1.568
555.0,1.572
556.0,1.553
557.0,1.506
558.0,1.496
559.0,1.469
560.0,1.489
561.0,1.51
562.0,1.5
563.0,1.543
564.0,1.502
565.0,1.49
566.0,1.47
567.0,1.499
568.0,1.488
569.0,1.456
570.0,1.456
571.0,1.447
572.0,1.485
573.0,1.502
574.0,1.498
575.0,1.472
576.0,1.459
577.0,1.475
578.0,1.453
579.0,1.458
580.0,1.485
581.0,1.492
582.0,1.519
583.0,1.523
584.0,1.536
585.0,1.499
586.0,1.468
587.0,1.502
588.0,1.47
589.0,1.31
590.0,1.37
591.0,1.446
592.0,1.431
593.0,1.45
594.0,1.441
595.0,1.409
596.0,1.46
597.0,1.446
598.0,1.441
599.0,1.442
600.0,1.443
601.0,1.431
602.0,1.422
603.0,1.446
604.0,1.47
605.0,1.463
606.0,1.457
607.0,1.471
608.0,1.455
609.0,1.457
610.0,1.447
611.0,1.455
612.0,1.451
613.0,1.433
614.0,1.413
615.0,1.444
616.0,1.396
617.0,1.394
618.0,1.448
619.0,1.433
620.0,1.443
621.0,1.445
622.0,1.429
623.0,1.408
624.0,1.384
625.0,1.382
626.0,1.403
627.0,1.42
628.0,1.341
629.0,1.392
630.0,1.361
631.0,1.387
632.0,1.37
633.0,1.41
634.0,1.396
635.0,1.417
636.0,1.398
637.0,1.42
638.0,1.433
639.0,1.417
640.0,1.403
641.0,1.402
642.0,1.396
643.0,1.415
644.0,1.41
645.0,1.413
646.0,1.382
647.0,1.37
648.0,1.372
649.0,1.346
650.0,1.348
651.0,1.406
652.0,1.354
653.0,1.388
654.0,1.372
655.0,1.325
656.0,1.172
657.0,1.204
658.0,1.348
659.0,1.357
660.0,1.363
661.0,1.373
662.0,1.377
663.0,1.35
664.0,1.365
665.0,1.365
666.0,1.366
667.0,1.364
668.0,1.365
669.0,1.386
670.0,1.38
671.0,1.38
672.0,1.368
673.0,1.389
674.0,1.384
675.0,1.371
676.0,1.381
677.0,1.367
678.0,1.371
679.0,1.349
680.0,1.36
681.0,1.351
682.0,1.35
683.0,1.348
684.0,1.341
685.0,1.353
686.0,1.345
687.0,0.9558
688.0,1.09
689.0,1.093
690.0,1.137
691.0,1.186
692.0,1.22
693.0,1.212
694.0,1.202
695.0,1.244
696.0,1.246
697.0,1.313
698.0,1.293
699.0,1.269
700.0,1.254
701.0,1.243
702.0,1.25
703.0,1.252
704.0,1.289
705.0,1.291
706.0,1.289
707.0,1.289
708.0,1.293
709.0,1.292
710.0,1.294
711.0,1.291
712.0,1.287
713.0,1.275
714.0,1.28
715.0,1.242
716.0,1.243
717.0,1.102
718.0,1.016
719.0,0.9337
720.0,0.9797
721.0,1.067
722.0,1.205
723.0,1.131
724.0,1.028
725.0,1.015
726.0,1.061
727.0,1.071
728.0,1.014
729.0,1.044
730.0,1.104
731.0,1.06
732.0,1.125
733.0,1.182
734.0,1.208
735.0,1.185
736.0,1.183
737.0,1.188
738.0,1.201
739.0,1.178
740.0,1.207
741.0,1.194
742.0,1.195
743.0,1.225
744.0,1.221
745.0,1.221
746.0,1.227
747.0,1.23
748.0,1.227
749.0,1.213
750.0,1.213
751.0,1.201
752.0,1.206
753.0,1.212
754.0,1.215
755.0,1.208
756.0,1.208
757.0,1.21
758.0,1.195
759.0,1.174
760.0,0.2575
761.0,0.1487
762.0,0.6641
763.0,0.3693
764.0,0.5219
765.0,0.6646
766.0,0.7861
767.0,0.9626
768.0,1.088
769.0,1.106
770.0,1.138
771.0,1.144
772.0,1.146
773.0,1.154
774.0,1.149
775.0,1.14
776.0,1.154
777.0,1.139
778.0,1.132
779.0,1.133
780.0,1.127
781.0,1.128
782.0,1.135
783.0,1.116
784.0,1.121
785.0,1.113
786.0,1.126
787.0,1.108
788.0,1.096
789.0,1.096
790.0,1.071
791.0,1.076
792.0,1.068
793.0,1.051
794.0,1.066
795.0,1.085
796.0,1.057
797.0,1.058
798.0,1.085
799.0,1.079
800.0,1.061
801.0,1.059
802.0,1.056
803.0,1.049
804.0,1.05
805.0,1.045
806.0,1.072
807.0,1.06
808.0,1.061
809.0,1.043
810.0,1.036
811.0,1.039
812.0,1.013
813.0,0.9943
814.0,0.8861
815.0,0.8804
816.0,0.8213
817.0,0.835
818.0,0.8063
819.0,0.8916
820.0,0.8437
821.0,0.9727
822.0,0.9473
823.0,0.6659
824.0,0.9245
825.0,0.9569
826.0,0.9248
827.0,0.9716
828.0,0.836
829.0,0.9186
830.0,0.9079
831.0,0.9107
832.0,0.8851
833.0,0.9354
834.0,0.9064
835.0,0.9873
836.0,0.9504
837.0,0.9899
838.0,0.9615
839.0,0.9746
840.0,0.9954
841.0,0.9824
842.0,0.9831
843.0,0.981
844.0,0.9683
845.0,0.9999
846.0,0.9954
847.0,0.9764
848.0,0.9712
849.0,0.9437
850.0,0.9041
851.0,0.9581
852.0,0.9511
853.0,0.915
854.0,0.7906
855.0,0.8679
856.0,0.9489
857.0,0.9696
858.0,0.9628
859.0,0.9634
860.0,0.965
861.0,0.9599
862.0,0.9749
863.0,0.998
864.0,0.9482
865.0,0.9399
866.0,0.8452
867.0,0.882
868.0,0.9599
869.0,0.94
870.0,0.9669
871.0,0.9538
872.0,0.9504
873.0,0.9486
874.0,0.9374
875.0,0.9185
876.0,0.9282
877.0,0.9376
878.0,0.9479
879.0,0.9334
880.0,0.9135
881.0,0.9001
882.0,0.9198
883.0,0.9224
884.0,0.9184
885.0,0.9254
886.0,0.8832
887.0,0.8917
888.0,0.9055
889.0,0.9149
890.0,0.9084
891.0,0.9063
892.0,0.8817
893.0,0.8561
894.0,0.8296
895.0,0.7885
896.0,0.7449
897.0,0.6462
898.0,0.7016
899.0,0.5413
900.0,0.7147
901.0,0.5671
902.0,0.6556
903.0,0.6653
904.0,0.8239
905.0,0.7976
906.0,0.7481
907.0,0.6171
908.0,0.6281
909.0,0.676
910.0,0.6057
911.0,0.6408
912.0,0.6682
913.0,0.6151
914.0,0.6085
915.0,0.659
916.0,0.5602
917.0,0.7024
918.0,0.5747
919.0,0.7132
920.0,0.7166
921.0,0.7444
922.0,0.6711
923.0,0.7188
924.0,0.6882
925.0,0.6734
926.0,0.6808
927.0,0.7569
928.0,0.5703
929.0,0.5246
930.0,0.4185
931.0,0.3956
932.0,0.2912
933.0,0.24
934.0,0.1387
935.0,0.2429
936.0,0.1561
937.0,0.1588
938.0,0.1935
939.0,0.3835
940.0,0.457
941.0,0.3508
942.0,0.4025
943.0,0.2694
944.0,0.2796
945.0,0.3607
946.0,0.1897
947.0,0.3639
948.0,0.2684
949.0,0.4811
950.0,0.1431
951.0,0.4727
952.0,0.262
953.0,0.3332
954.0,0.4027
955.0,0.3364
956.0,0.3237
957.0,0.2632
958.0,0.4505
959.0,0.3642
960.0,0.408
961.0,0.4531
962.0,0.4294
963.0,0.4908
964.0,0.4511
965.0,0.4886
966.0,0.4896
967.0,0.488
968.0,0.6398
969.0,0.6693
970.0,0.6168
971.0,0.6997
972.0,0.6706
973.0,0.5902
974.0,0.5612
975.0,0.58
976.0,0.5541
977.0,0.624
978.0,0.5956
979.0,0.6218
980.0,0.5859
981.0,0.6956
982.0,0.6675
983.0,0.6422
984.0,0.7143
985.0,0.665
986.0,0.7254
987.0,0.7129
988.0,0.7116
989.0,0.7223
990.0,0.7073
991.0,0.7247
992.0,0.7288
993.0,0.7142
994.0,0.7284
995.0,0.7273
996.0,0.7244
997.0,0.7253
998.0,0.722
999.0,0.7194
1000.0,0.7147
1001.0,0.7232
1002.0,0.7049
1003.0,0.7106
1004.0,0.6937
1005.0,0.6677
1006.0,0.6941
1007.0,0.7087
1008.0,0.7052
1009.0,0.7017
1010.0,0.699
1011.0,0.7052
1012.0,0.6994
1013.0,0.7034
1014.0,0.6985
1015.0,0.694
1016.0,0.6909
1017.0,0.6928
1018.0,0.69
1019.0,0.6759
1020.0,0.6865
1021.0,0.6855
1022.0,0.6804
1023.0,0.6877
1024.0,0.6794
1025.0,0.687
1026.0,0.6843
1027.0,0.6827
1028.0,0.6813
1029.0,0.6734
1030.0,0.6778
1031.0,0.6752
1032.0,0.6732
1033.0,0.6631
1034.0,0.6631
1035.0,0.6652
1036.0,0.6688
1037.0,0.6579
1038.0,0.6608
1039.0,0.6605
1040.0,0.6579
1041.0,0.6606
1042.0,0.656
1043.0,0.654
1044.0,0.6563
1045.0,0.6475
1046.0,0.6404
1047.0,0.6462
1048.0,0.6498
1049.0,0.6475
1050.0,0.6446
1051.0,0.6438
1052.0,0.6413
1053.0,0.6363
1054.0,0.6377
1055.0,0.6382
1056.0,0.6361
1057.0,0.6342
1058.0,0.6187
1059.0,0.6195
1060.0,0.6186
1061.0,0.6179
1062.0,0.6213
1063.0,0.6153
1064.0,0.6225
1065.0,0.6183
1066.0,0.6059
1067.0,0.6138
1068.0,0.6006
1069.0,0.5819
1070.0,0.6019
1071.0,0.6107
1072.0,0.6041
1073.0,0.5953
1074.0,0.6101
1075.0,0.5812
1076.0,0.6097
1077.0,0.5998
1078.0,0.5888
1079.0,0.5998
1080.0,0.5906
1081.0,0.5725
1082.0,0.5803
1083.0,0.5817
1084.0,0.5715
1085.0,0.5919
1086.0,0.5427
1087.0,0.5583
1088.0,0.5815
1089.0,0.5652
1090.0,0.5539
1091.0,0.5801
1092.0,0.5783
1093.0,0.4951
1094.0,0.5297
1095.0,0.5152
1096.0,0.4947
1097.0,0.5649
1098.0,0.4875
1099.0,0.5078
1100.0,0.4742
1101.0,0.4795
1102.0,0.4593
1103.0,0.4558
1104.0,0.4563
1105.0,0.4967
1106.0,0.3881
1107.0,0.4734
1108.0,0.4062
1109.0,0.4059
1110.0,0.4699
1111.0,0.3253
1112.0,0.4025
1113.0,0.263
1114.0,0.2932
1115.0,0.2433
1116.0,0.1984
1117.0,0.07741
1118.0,0.2144
1119.0,0.11
1120.0,0.1386
1121.0,0.1817
1122.0,0.07957
1123.0,0.1251
1124.0,0.1057
1125.0,0.137
1126.0,0.05075
1127.0,0.1542
1128.0,0.09558
1129.0,0.1009
1130.0,0.0678
1131.0,0.2846
1132.0,0.2248
1133.0,0.1466
1134.0,0.04001
1135.0,0.01487
1136.0,0.1238
1137.0,0.2808
1138.0,0.1988
1139.0,0.2885
1140.0,0.2441
1141.0,0.1889
1142.0,0.2156
1143.0,0.3028
1144.0,0.1098
1145.0,0.1413
1146.0,0.1525
1147.0,0.05685
1148.0,0.2622
1149.0,0.2119
1150.0,0.1179
1151.0,0.1973
1152.0,0.24
1153.0,0.2317
1154.0,0.1376
1155.0,0.3011
1156.0,0.2727
1157.0,0.3036
1158.0,0.3002
1159.0,0.3217
1160.0,0.2775
1161.0,0.337
1162.0,0.339
1163.0,0.4493
1164.0,0.3886
1165.0,0.3696
1166.0,0.3649
1167.0,0.3958
1168.0,0.4008
1169.0,0.4092
1170.0,0.4422
1171.0,0.4315
1172.0,0.4378
1173.0,0.4412
1174.0,0.3224
1175.0,0.4299
1176.0,0.4689
1177.0,0.4525
1178.0,0.3455
1179.0,0.4726
1180.0,0.4259
1181.0,0.4391
1182.0,0.3092
1183.0,0.4315
1184.0,0.4065
1185.0,0.3941
1186.0,0.461
1187.0,0.4411
1188.0,0.3151
1189.0,0.4113
1190.0,0.4505
1191.0,0.4311
1192.0,0.4565
1193.0,0.4386
1194.0,0.4513
1195.0,0.4292
1196.0,0.4149
1197.0,0.4503
1198.0,0.4137
1199.0,0.3573
1200.0,0.4333
1201.0,0.4198
1202.0,0.4163
1203.0,0.4129
1204.0,0.3641
1205.0,0.4243
1206.0,0.4657
1207.0,0.4158
1208.0,0.4076
1209.0,0.4156
1210.0,0.4317
1211.0,0.4132
1212.0,0.4107
1213.0,0.4516
1214.0,0.4194
1215.0,0.412
1216.0,0.4501
1217.0,0.4393
1218.0,0.4466
1219.0,0.4416
1220.0,0.4469
1221.0,0.4507
1222.0,0.4397
1223.0,0.436
1224.0,0.4341
1225.0,0.448
1226.0,0.4503
1227.0,0.4182
1228.0,0.4519
1229.0,0.4503
1230.0,0.4432
1231.0,0.454
1232.0,0.4514
1233.0,0.4381
1234.0,0.4532
1235.0,0.4506
1236.0,0.4537
1237.0,0.4483
1238.0,0.4521
1239.0,0.4464
1240.0,0.448
1241.0,0.4464
1242.0,0.445
1243.0,0.4413
1244.0,0.4446
1245.0,0.4464
1246.0,0.4438
1247.0,0.4422
1248.0,0.4422
1249.0,0.4434
1250.0,0.4408
1251.0,0.4355
1252.0,0.4352
1253.0,0.4325
1254.0,0.4287
1255.0,0.435
1256.0,0.4242
1257.0,0.4222
1258.0,0.4289
1259.0,0.4156
1260.0,0.4175
1261.0,0.3969
1262.0,0.3865
1263.0,0.3873
1264.0,0.361
1265.0,0.3848
1266.0,0.3723
1267.0,0.3774
1268.0,0.3602
1269.0,0.2387
1270.0,0.3766
1271.0,0.3953
1272.0,0.3962
1273.0,0.3924
1274.0,0.3932
1275.0,0.3984
1276.0,0.4017
1277.0,0.4037
1278.0,0.4103
1279.0,0.4067
1280.0,0.4015
1281.0,0.3826
1282.0,0.3678
1283.0,0.3963
1284.0,0.406
1285.0,0.4085
1286.0,0.4135
1287.0,0.4081
1288.0,0.4077
1289.0,0.3966
1290.0,0.404
1291.0,0.4094
1292.0,0.3879
1293.0,0.4022
1294.0,0.3996
1295.0,0.3985
1296.0,0.3825
1297.0,0.3635
1298.0,0.388
1299.0,0.4024
1300.0,0.3464
1301.0,0.3559
1302.0,0.3866
1303.0,0.3412
1304.0,0.2964
1305.0,0.3791
1306.0,0.3795
1307.0,0.3009
1308.0,0.3409
1309.0,0.377
1310.0,0.2954
1311.0,0.3281
1312.0,0.32
1313.0,0.3147
1314.0,0.2836
1315.0,0.2811
1316.0,0.3238
1317.0,0.3073
1318.0,0.3318
1319.0,0.2656
1320.0,0.256
1321.0,0.2961
1322.0,0.3
1323.0,0.2308
1324.0,0.2605
1325.0,0.3195
1326.0,0.2775
1327.0,0.2655
1328.0,0.2305
1329.0,0.1774
1330.0,0.2288
1331.0,0.1431
1332.0,0.1461
1333.0,0.2021
1334.0,0.1689
1335.0,0.23
1336.0,0.1844
1337.0,0.1645
1338.0,0.1779
1339.0,0.1765
1340.0,0.1703
1341.0,0.1693
1342.0,0.1776
1343.0,0.1264
1344.0,0.07543
1345.0,0.1083
1346.0,0.05783
1347.0,0.05949
1348.0,0.004642
1349.0,0.0158
1350.0,0.01579
1351.0,0.004528
1352.0,0.001456
1353.0,9.078e-05
1354.0,0.0002758
1355.0,3.333e-06
1356.0,4.507e-05
1357.0,6.825e-05
1358.0,3.884e-06
1359.0,6.608e-07
1360.0,1.978e-06
1361.0,4.21e-09
1362.0,1.534e-11
1363.0,2.903e-06
1364.0,1.234e-06
1365.0,7.594e-12
1366.0,1.171e-05
1367.0,4.593e-06
1368.0,1.164e-13
1369.0,4.707e-07
1370.0,2.633e-07
1371.0,1.759e-08
1372.0,2.531e-06
1373.0,4.152e-05
1374.0,0.0001678
1375.0,0.0003052
1376.0,0.0002465
1377.0,0.0001167
1378.0,0.001066
1379.0,4.94e-05
1380.0,7.726e-05
1381.0,2.215e-06
1382.0,2.365e-06
1383.0,4.02e-08
1384.0,5.591e-07
1385.0,1.947e-06
1386.0,2.297e-06
1387.0,0.0001883
1388.0,3.796e-06
1389.0,0.0005503
1390.0,0.0004735
1391.0,0.0003266
1392.0,2.245e-05
1393.0,0.0001102
1394.0,7.088e-05
1395.0,6.203e-07
1396.0,5.573e-09
1397.0,4.647e-05
1398.0,0.001214
1399.0,0.0007689
1400.0,2.843e-09
1401.0,9.432e-09
1402.0,0.001782
1403.0,0.002316
1404.0,0.0007168
1405.0,3.368e-07
1406.0,0.001972
1407.0,0.0001689
1408.0,0.001599
1409.0,0.0005947
1410.0,0.0004485
1411.0,0.002024
1412.0,0.002603
1413.0,0.02318
1414.0,0.0003498
1415.0,0.0001765
1416.0,0.03533
1417.0,0.01158
1418.0,0.01328
1419.0,0.002105
1420.0,0.008162
1421.0,0.008861
1422.0,0.04587
1423.0,0.009126
1424.0,0.01689
1425.0,0.02517
1426.0,0.02776
1427.0,0.04921
1428.0,0.004422
1429.0,0.03762
1430.0,0.0621
1431.0,0.06771
1432.0,0.003505
1433.0,0.04376
1434.0,0.0226
1435.0,0.02375
1436.0,0.04401
1437.0,0.03372
1438.0,0.01475
1439.0,0.05906
1440.0,0.04432
1441.0,0.03463
1442.0,0.03826
1443.0,0.04676
1444.0,0.06419
1445.0,0.05126
1446.0,0.02337
1447.0,0.03677
1448.0,0.1173
1449.0,0.1028
1450.0,0.02723
1451.0,0.01117
1452.0,0.06282
1453.0,0.08195
1454.0,0.1375
1455.0,0.06601
1456.0,0.0892
1457.0,0.1178
1458.0,0.1371
1459.0,0.1624
1460.0,0.08552
1461.0,0.09009
1462.0,0.1306
1463.0,0.0432
1464.0,0.1534
