interpolation:linear
wavelength,value
280.0,2.008e-19
280.5,3.437e-18
281.0,1.478e-17
281.5,2.507e-16
282.0,1.379e-15
282.5,4.121e-15
283.0,1.381e-14
283.5,2.271e-14
284.0,3.044e-13
284.5,7.792e-13
285.0,1.322e-12
285.5,6.945e-12
286.0,2.793e-11
286.5,1.167e-10
287.0,3.105e-10
287.5,1.046e-09
288.0,3.196e-09
288.5,1.032e-08
289.0,2.792e-08
289.5,8.203e-08
290.0,2.193e-07
290.5,4.309e-07
291.0,8.698e-07
291.5,2.258e-06
292.0,4.719e-06
292.5,6.37e-06
293.0,1.284e-05
293.5,2.83e-05
294.0,4.177e-05
294.5,6.685e-05
295.0,0.0001043
295.5,0.0002174
296.0,0.000353
296.5,0.0004171
297.0,0.0004927
297.5,0.001081
298.0,0.001442
298.5,0.001278
299.0,0.002493
299.5,0.00335
300.0,0.003294
300.5,0.004253
301.0,0.006416
301.5,0.008728
302.0,0.006923
302.5,0.01234
303.0,0.01972
303.5,0.02315
304.0,0.02083
304.5,0.0276
305.0,0.0355
305.5,0.0368
306.0,0.03438
306.5,0.04027
307.0,0.05209
307.5,0.06094
308.0,0.06325
308.5,0.0704
309.0,0.06156
309.5,0.06533
310.0,0.06346
310.5,0.1013
311.0,0.1236
311.5,0.1181
312.0,0.1105
312.5,0.1287
313.0,0.1367
313.5,0.1363
314.0,0.1615
314.5,0.1331
315.0,0.1731
315.5,0.1508
316.0,0.1242
316.5,0.1694
317.0,0.2113
317.5,0.2241
318.0,0.1689
318.5,0.196
319.0,0.225
319.5,0.1949
320.0,0.2383
320.5,0.2782
321.0,0.2329
321.5,0.2225
322.0,0.255
322.5,0.2217
323.0,0.2116
323.5,0.2414
324.0,0.2802
324.5,0.2918
325.0,0.2672
325.5,0.3322
326.0,0.3887
326.5,0.3796
327.0,0.3833
327.5,0.3761
328.0,0.3489
328.5,0.3513
329.0,0.4073
329.5,0.4589
330.0,0.4681
330.5,0.3858
331.0,0.3978
331.5,0.3973
332.0,0.4182
332.5,0.4096
333.0,0.4126
333.5,0.3824
334.0,0.3941
334.5,0.4451
335.0,0.4138
335.5,0.4695
336.0,0.3255
336.5,0.3971
337.0,0.3298
337.5,0.4126
338.0,0.3963
338.5,0.447
339.0,0.4456
339.5,0.428
340.0,0.5164
340.5,0.4658
341.0,0.4464
341.5,0.4141
342.0,0.4968
342.5,0.4666
343.0,0.5123
343.5,0.4821
344.0,0.3626
344.5,0.3587
345.0,0.4804
345.5,0.4929
346.0,0.4205
346.5,0.4776
347.0,0.5122
347.5,0.4145
348.0,0.4753
348.5,0.477
349.0,0.4435
349.5,0.4397
350.0,0.545
350.5,0.576
351.0,0.515
351.5,0.4992
352.0,0.5388
352.5,0.422
353.0,0.533
353.5,0.5713
354.0,0.5946
354.5,0.6044
355.0,0.6033
355.5,0.546
356.0,0.5724
356.5,0.4898
357.0,0.4056
357.5,0.4976
358.0,0.3952
358.5,0.3384
359.0,0.4742
359.5,0.6052
360.0,0.6429
360.5,0.5149
361.0,0.4702
361.5,0.5419
362.0,0.4691
362.5,0.6498
363.0,0.5843
363.5,0.5388
364.0,0.6598
364.5,0.5649
365.0,0.5762
365.5,0.7244
366.0,0.7684
366.5,0.7229
367.0,0.7051
367.5,0.7329
368.0,0.6423
368.5,0.649
369.0,0.7019
369.5,0.7492
370.0,0.7998
370.5,0.6216
371.0,0.6651
371.5,0.8334
372.0,0.554
372.5,0.6652
373.0,0.6775
373.5,0.4413
374.0,0.6422
374.5,0.5325
375.0,0.5184
375.5,0.7752
376.0,0.6436
376.5,0.668
377.0,0.708
377.5,0.8294
378.0,0.9005
378.5,0.8526
379.0,0.7049
379.5,0.6451
380.0,0.6718
380.5,0.8146
381.0,0.8172
381.5,0.6484
382.0,0.5765
382.5,0.4919
383.0,0.4559
383.5,0.4396
384.0,0.4855
384.5,0.715
385.0,0.7098
385.5,0.6618
386.0,0.5674
386.5,0.7461
387.0,0.6208
387.5,0.6982
388.0,0.6455
388.5,0.6387
389.0,0.6904
389.5,0.8371
390.0,0.8411
390.5,0.7749
391.0,0.9132
391.5,0.9326
392.0,0.7865
392.5,0.7048
393.0,0.3926
393.5,0.2856
394.0,0.5818
394.5,0.7404
395.0,0.9045
395.5,0.92
396.0,0.7985
396.5,0.4672
397.0,0.3509
397.5,0.7145
398.0,1.002
398.5,1.037
399.0,1.123
399.5,1.121
400.0,1.165
401.0,1.199
402.0,1.267
403.0,1.205
404.0,1.189
405.0,1.191
406.0,1.173
407.0,1.156
408.0,1.204
409.0,1.29
410.0,1.129
411.0,1.224
412.0,1.316
413.0,1.286
414.0,1.304
415.0,1.309
416.0,1.333
417.0,1.303
418.0,1.28
419.0,1.299
420.0,1.295
421.0,1.357
422.0,1.292
423.0,1.264
424.0,1.339
425.0,1.338
426.0,1.304
427.0,1.281
428.0,1.25
429.0,1.185
430.0,1.038
431.0,1.031
432.0,1.332
433.0,1.341
434.0,1.247
435.0,1.304
436.0,1.47
437.0,1.451
438.0,1.322
439.0,1.371
440.0,1.415
441.0,1.467
442.0,1.576
443.0,1.538
444.0,1.572
445.0,1.541
446.0,1.47
447.0,1.59
448.0,1.618
449.0,1.625
450.0,1.671
451.0,1.735
452.0,1.673
453.0,1.575
454.0,1.645
455.0,1.657
456.0,1.698
457.0,1.728
458.0,1.672
459.0,1.664
460.0,1.671
461.0,1.711
462.0,1.725
463.0,1.715
464.0,1.687
465.0,1.665
466.0,1.682
467.0,1.654
468.0,1.675
469.0,1.686
470.0,1.634
471.0,1.633
472.0,1.722
473.0,1.702
474.0,1.708
475.0,1.726
476.0,1.678
477.0,1.685
478.0,1.733
479.0,1.723
480.0,1.726
481.0,1.758
482.0,1.767
483.0,1.745
484.0,1.71
485.0,1.63
486.0,1.425
487.0,1.494
488.0,1.64
489.0,1.647
490.0,1.734
491.0,1.704
492.0,1.61
493.0,1.664
494.0,1.682
495.0,1.697
496.0,1.709
497.0,1.737
498.0,1.657
499.0,1.68
500.0,1.633
501.0,1.606
502.0,1.586
503.0,1.655
504.0,1.621
505.0,1.674
506.0,1.73
507.0,1.647
508.0,1.595
509.0,1.639
510.0,1.63
511.0,1.673
512.0,1.692
513.0,1.602
514.0,1.591
515.0,1.576
516.0,1.574
517.0,1.399
518.0,1.472
519.0,1.545
520.0,1.602
521.0,1.619
522.0,1.621
523.0,1.594
524.0,1.653
525.0,1.675
526.0,1.601
527.0,1.511
528.0,1.6
529.0,1.689
530.0,1.666
531.0,1.692
532.0,1.635
533.0,1.588
534.0,1.635
535.0,1.671
536.0,1.686
537.0,1.62
538.0,1.649
539.0,1.636
540.0,1.57
541.0,1.583
542.0,1.634
543.0,1.616
544.0,1.647
545.0,1.642
546.0,1.652
547.0,1.65
548.0,1.631
549.0,1.636
550.0,1.656
551.0,1.636
552.0,1.648
553.0,1.62
554.0,1.659
555.0,1.664
556.0,1.643
557.0,1.594
558.0,1.583
559.0,1.556
560.0,1.577
561.0,1.599
562.0,1.589
563.0,1.635
564.0,1.592
565.0,1.58
566.0,1.558
567.0,1.59
568.0,1.58
569.0,1.55
570.0,1.549
571.0,1.539
572.0,1.581
573.0,1.599
574.0,1.596
575.0,1.568
576.0,1.555
577.0,1.571
578.0,1.546
579.0,1.55
580.0,1.575
581.0,1.58
582.0,1.607
583.0,1.609
584.0,1.621
585.0,1.581
586.0,1.549
587.0,1.586
588.0,1.557
589.0,1.398
590.0,1.461
591.0,1.536
592.0,1.523
593.0,1.538
594.0,1.532
595.0,1.5
596.0,1.545
597.0,1.532
598.0,1.525
599.0,1.524
600.0,1.523
601.0,1.509
602.0,1.498
603.0,1.522
604.0,1.547
605.0,1.539
606.0,1.532
607.0,1.546
608.0,1.528
609.0,1.53
610.0,1.518
611.0,1.525
612.0,1.521
613.0,1.501
614.0,1.48
615.0,1.512
616.0,1.461
617.0,1.458
618.0,1.514
619.0,1.499
620.0,1.508
621.0,1.512
622.0,1.496
623.0,1.474
624.0,1.448
625.0,1.445
626.0,1.467
627.0,1.487
628.0,1.428
629.0,1.466
630.0,1.434
631.0,1.454
632.0,1.435
633.0,1.473
634.0,1.455
635.0,1.476
636.0,1.455
637.0,1.477
638.0,1.489
639.0,1.471
640.0,1.456
641.0,1.454
642.0,1.446
643.0,1.466
644.0,1.46
645.0,1.463
646.0,1.434
647.0,1.428
648.0,1.431
649.0,1.404
650.0,1.398
651.0,1.456
652.0,1.411
653.0,1.437
654.0,1.42
655.0,1.375
656.0,1.214
657.0,1.246
658.0,1.393
659.0,1.401
660.0,1.406
661.0,1.416
662.0,1.422
663.0,1.393
664.0,1.406
665.0,1.405
666.0,1.405
667.0,1.402
668.0,1.402
669.0,1.423
670.0,1.417
671.0,1.416
672.0,1.403
673.0,1.424
674.0,1.419
675.0,1.405
676.0,1.415
677.0,1.401
678.0,1.404
679.0,1.381
680.0,1.392
681.0,1.383
682.0,1.382
683.0,1.379
684.0,1.373
685.0,1.384
686.0,1.377
687.0,1.084
688.0,1.186
689.0,1.188
690.0,1.219
691.0,1.253
692.0,1.275
693.0,1.268
694.0,1.259
695.0,1.291
696.0,1.294
697.0,1.346
698.0,1.326
699.0,1.312
700.0,1.296
701.0,1.288
702.0,1.291
703.0,1.294
704.0,1.325
705.0,1.327
706.0,1.322
707.0,1.322
708.0,1.326
709.0,1.322
710.0,1.325
711.0,1.321
712.0,1.315
713.0,1.304
714.0,1.309
715.0,1.274
716.0,1.276
717.0,1.17
718.0,1.088
719.0,1.006
720.0,1.057
721.0,1.126
722.0,1.243
723.0,1.181
724.0,1.091
725.0,1.083
726.0,1.127
727.0,1.13
728.0,1.083
729.0,1.1
730.0,1.161
731.0,1.12
732.0,1.174
733.0,1.219
734.0,1.242
735.0,1.219
736.0,1.217
737.0,1.223
738.0,1.228
739.0,1.204
740.0,1.231
741.0,1.216
742.0,1.215
743.0,1.245
744.0,1.24
745.0,1.239
746.0,1.245
747.0,1.248
748.0,1.245
749.0,1.231
750.0,1.23
751.0,1.218
752.0,1.223
753.0,1.229
754.0,1.232
755.0,1.225
756.0,1.225
757.0,1.227
758.0,1.212
759.0,1.196
760.0,0.4072
761.0,0.2756
762.0,0.793
763.0,0.5257
764.0,0.6709
765.0,0.794
766.0,0.8838
767.0,1.03
768.0,1.125
769.0,1.135
770.0,1.158
771.0,1.161
772.0,1.161
773.0,1.169
774.0,1.163
775.0,1.154
776.0,1.168
777.0,1.152
778.0,1.146
779.0,1.147
780.0,1.14
781.0,1.141
782.0,1.149
783.0,1.128
784.0,1.134
785.0,1.126
786.0,1.139
787.0,1.126
788.0,1.115
789.0,1.116
790.0,1.096
791.0,1.096
792.0,1.087
793.0,1.071
794.0,1.079
795.0,1.1
796.0,1.079
797.0,1.081
798.0,1.1
799.0,1.095
800.0,1.08
801.0,1.079
802.0,1.076
803.0,1.069
804.0,1.069
805.0,1.063
806.0,1.086
807.0,1.075
808.0,1.075
809.0,1.06
810.0,1.055
811.0,1.062
812.0,1.041
813.0,1.026
814.0,0.9357
815.0,0.9293
816.0,0.8711
817.0,0.8823
818.0,0.8567
819.0,0.928
820.0,0.886
821.0,0.9959
822.0,0.9743
823.0,0.7288
824.0,0.9589
825.0,0.9815
826.0,0.9561
827.0,0.9961
828.0,0.8804
829.0,0.948
830.0,0.9397
831.0,0.9414
832.0,0.9193
833.0,0.9586
834.0,0.9366
835.0,1.004
836.0,0.9764
837.0,1.006
838.0,0.981
839.0,0.9896
840.0,1.01
841.0,0.9982
842.0,0.996
843.0,0.9911
844.0,0.9799
845.0,1.01
846.0,1.005
847.0,0.9845
848.0,0.9805
849.0,0.9527
850.0,0.9125
851.0,0.9684
852.0,0.9607
853.0,0.9231
854.0,0.7985
855.0,0.8753
856.0,0.9575
857.0,0.9776
858.0,0.971
859.0,0.971
860.0,0.9723
861.0,0.9672
862.0,0.9821
863.0,1.005
864.0,0.9551
865.0,0.9466
866.0,0.8512
867.0,0.8883
868.0,0.9666
869.0,0.9465
870.0,0.9735
871.0,0.9604
872.0,0.9569
873.0,0.955
874.0,0.9437
875.0,0.9247
876.0,0.9345
877.0,0.9439
878.0,0.9545
879.0,0.9398
880.0,0.9197
881.0,0.9069
882.0,0.9269
883.0,0.9289
884.0,0.9251
885.0,0.9321
886.0,0.8918
887.0,0.8987
888.0,0.9138
889.0,0.9211
890.0,0.9171
891.0,0.9137
892.0,0.8919
893.0,0.8703
894.0,0.8509
895.0,0.8186
896.0,0.7794
897.0,0.6912
898.0,0.7412
899.0,0.5917
900.0,0.7464
901.0,0.618
902.0,0.6899
903.0,0.7076
904.0,0.845
905.0,0.8228
906.0,0.7759
907.0,0.6619
908.0,0.6711
909.0,0.711
910.0,0.6563
911.0,0.6837
912.0,0.7074
913.0,0.6672
914.0,0.6572
915.0,0.7075
916.0,0.61
917.0,0.7409
918.0,0.6256
919.0,0.7483
920.0,0.7437
921.0,0.7686
922.0,0.7069
923.0,0.7419
924.0,0.7247
925.0,0.7102
926.0,0.7171
927.0,0.784
928.0,0.6293
929.0,0.5893
930.0,0.4886
931.0,0.4581
932.0,0.3553
933.0,0.3042
934.0,0.1994
935.0,0.2986
936.0,0.2066
937.0,0.213
938.0,0.2532
939.0,0.4441
940.0,0.5168
941.0,0.4143
942.0,0.4631
943.0,0.3244
944.0,0.3254
945.0,0.4234
946.0,0.2426
947.0,0.4317
948.0,0.3228
949.0,0.5502
950.0,0.1982
951.0,0.5374
952.0,0.3256
953.0,0.3965
954.0,0.4601
955.0,0.3979
956.0,0.3779
957.0,0.3299
958.0,0.496
959.0,0.4209
960.0,0.47
961.0,0.5077
962.0,0.4837
963.0,0.5397
964.0,0.5009
965.0,0.5351
966.0,0.5399
967.0,0.5389
968.0,0.665
969.0,0.697
970.0,0.6493
971.0,0.7182
972.0,0.6918
973.0,0.6273
974.0,0.5999
975.0,0.6124
976.0,0.5943
977.0,0.6511
978.0,0.629
979.0,0.6503
980.0,0.6175
981.0,0.713
982.0,0.6905
983.0,0.6685
984.0,0.7251
985.0,0.6875
986.0,0.7323
987.0,0.7236
988.0,0.7225
989.0,0.7267
990.0,0.7174
991.0,0.7296
992.0,0.7332
993.0,0.7226
994.0,0.7324
995.0,0.7307
996.0,0.7284
997.0,0.729
998.0,0.7259
999.0,0.723
1000.0,0.7194
1001.0,0.7268
1002.0,0.7126
1003.0,0.7144
1004.0,0.6984
1005.0,0.6708
1006.0,0.6981
1007.0,0.7123
1008.0,0.7095
1009.0,0.7069
1010.0,0.7046
1011.0,0.7086
1012.0,0.7037
1013.0,0.7066
1014.0,0.7017
1015.0,0.6973
1016.0,0.6943
1017.0,0.6963
1018.0,0.693
1019.0,0.6804
1020.0,0.6897
1021.0,0.6884
1022.0,0.6839
1023.0,0.6913
1024.0,0.6846
1025.0,0.6901
1026.0,0.6877
1027.0,0.686
1028.0,0.6848
1029.0,0.6769
1030.0,0.6808
1031.0,0.6784
1032.0,0.6762
1033.0,0.6661
1034.0,0.666
1035.0,0.6681
1036.0,0.6719
1037.0,0.6609
1038.0,0.6639
1039.0,0.6637
1040.0,0.661
1041.0,0.6639
1042.0,0.6593
1043.0,0.6573
1044.0,0.6598
1045.0,0.651
1046.0,0.6439
1047.0,0.6499
1048.0,0.6536
1049.0,0.6515
1050.0,0.6487
1051.0,0.648
1052.0,0.6456
1053.0,0.6407
1054.0,0.6424
1055.0,0.6431
1056.0,0.6412
1057.0,0.6395
1058.0,0.6241
1059.0,0.6252
1060.0,0.6244
1061.0,0.6239
1062.0,0.6275
1063.0,0.6216
1064.0,0.6289
1065.0,0.6252
1066.0,0.6122
1067.0,0.6204
1068.0,0.6074
1069.0,0.5882
1070.0,0.6088
1071.0,0.6163
1072.0,0.6107
1073.0,0.6016
1074.0,0.6149
1075.0,0.5903
1076.0,0.6148
1077.0,0.6074
1078.0,0.5971
1079.0,0.6041
1080.0,0.5983
1081.0,0.5818
1082.0,0.586
1083.0,0.5865
1084.0,0.5824
1085.0,0.5989
1086.0,0.5572
1087.0,0.5669
1088.0,0.5871
1089.0,0.5749
1090.0,0.5669
1091.0,0.5869
1092.0,0.584
1093.0,0.5142
1094.0,0.5367
1095.0,0.5323
1096.0,0.5156
1097.0,0.5703
1098.0,0.5093
1099.0,0.5282
1100.0,0.5002
1101.0,0.5037
1102.0,0.4862
1103.0,0.4853
1104.0,0.4855
1105.0,0.5181
1106.0,0.4297
1107.0,0.4986
1108.0,0.4431
1109.0,0.4401
1110.0,0.4964
1111.0,0.3652
1112.0,0.4351
1113.0,0.3076
1114.0,0.3392
1115.0,0.2823
1116.0,0.2451
1117.0,0.1143
1118.0,0.2583
1119.0,0.1466
1120.0,0.184
1121.0,0.232
1122.0,0.114
1123.0,0.1659
1124.0,0.1403
1125.0,0.1786
1126.0,0.07887
1127.0,0.2
1128.0,0.1373
1129.0,0.1424
1130.0,0.1032
1131.0,0.3388
1132.0,0.2736
1133.0,0.1943
1134.0,0.06498
1135.0,0.02391
1136.0,0.1696
1137.0,0.3378
1138.0,0.2439
1139.0,0.3264
1140.0,0.2871
1141.0,0.2318
1142.0,0.2583
1143.0,0.3511
1144.0,0.1434
1145.0,0.1866
1146.0,0.2014
1147.0,0.08892
1148.0,0.3042
1149.0,0.2551
1150.0,0.1543
1151.0,0.2424
1152.0,0.2843
1153.0,0.267
1154.0,0.1859
1155.0,0.341
1156.0,0.3141
1157.0,0.3431
1158.0,0.3386
1159.0,0.3556
1160.0,0.3165
1161.0,0.3685
1162.0,0.3717
1163.0,0.4677
1164.0,0.4141
1165.0,0.4017
1166.0,0.3919
1167.0,0.4202
1168.0,0.4268
1169.0,0.4324
1170.0,0.4605
1171.0,0.4509
1172.0,0.4538
1173.0,0.4595
1174.0,0.356
1175.0,0.4454
1176.0,0.4772
1177.0,0.4659
1178.0,0.3711
1179.0,0.4805
1180.0,0.4429
1181.0,0.4552
1182.0,0.3371
1183.0,0.445
1184.0,0.4247
1185.0,0.416
1186.0,0.472
1187.0,0.4559
1188.0,0.3441
1189.0,0.4266
1190.0,0.4614
1191.0,0.4485
1192.0,0.4666
1193.0,0.4512
1194.0,0.4622
1195.0,0.4445
1196.0,0.433
1197.0,0.4581
1198.0,0.4257
1199.0,0.3795
1200.0,0.4461
1201.0,0.436
1202.0,0.4306
1203.0,0.4266
1204.0,0.3837
1205.0,0.4354
1206.0,0.4709
1207.0,0.4309
1208.0,0.419
1209.0,0.4263
1210.0,0.4401
1211.0,0.426
1212.0,0.4275
1213.0,0.4589
1214.0,0.4342
1215.0,0.4279
1216.0,0.4572
1217.0,0.4484
1218.0,0.4538
1219.0,0.4497
1220.0,0.4538
1221.0,0.4565
1222.0,0.4468
1223.0,0.4439
1224.0,0.4434
1225.0,0.4537
1226.0,0.4548
1227.0,0.428
1228.0,0.4554
1229.0,0.4547
1230.0,0.4486
1231.0,0.4562
1232.0,0.4537
1233.0,0.4445
1234.0,0.4545
1235.0,0.4525
1236.0,0.4551
1237.0,0.4512
1238.0,0.4535
1239.0,0.4478
1240.0,0.4492
1241.0,0.4486
1242.0,0.4463
1243.0,0.4425
1244.0,0.4462
1245.0,0.4478
1246.0,0.4451
1247.0,0.4438
1248.0,0.4443
1249.0,0.445
1250.0,0.4428
1251.0,0.4381
1252.0,0.4369
1253.0,0.4356
1254.0,0.433
1255.0,0.4371
1256.0,0.4289
1257.0,0.4274
1258.0,0.4321
1259.0,0.4229
1260.0,0.4243
1261.0,0.4086
1262.0,0.4007
1263.0,0.4017
1264.0,0.3811
1265.0,0.399
1266.0,0.39
1267.0,0.3926
1268.0,0.379
1269.0,0.2839
1270.0,0.3928
1271.0,0.4063
1272.0,0.4066
1273.0,0.4033
1274.0,0.4034
1275.0,0.4077
1276.0,0.41
1277.0,0.411
1278.0,0.4154
1279.0,0.412
1280.0,0.4066
1281.0,0.3865
1282.0,0.3699
1283.0,0.3989
1284.0,0.409
1285.0,0.4113
1286.0,0.4154
1287.0,0.4116
1288.0,0.4109
1289.0,0.4029
1290.0,0.4069
1291.0,0.4117
1292.0,0.3963
1293.0,0.4061
1294.0,0.4038
1295.0,0.404
1296.0,0.392
1297.0,0.3761
1298.0,0.3947
1299.0,0.4057
1300.0,0.3613
1301.0,0.3686
1302.0,0.393
1303.0,0.3546
1304.0,0.3197
1305.0,0.3865
1306.0,0.3873
1307.0,0.3208
1308.0,0.3527
1309.0,0.3855
1310.0,0.3154
1311.0,0.3419
1312.0,0.3354
1313.0,0.3315
1314.0,0.3031
1315.0,0.3029
1316.0,0.3392
1317.0,0.3233
1318.0,0.3443
1319.0,0.2902
1320.0,0.2766
1321.0,0.3148
1322.0,0.3206
1323.0,0.2592
1324.0,0.2845
1325.0,0.3351
1326.0,0.299
1327.0,0.288
1328.0,0.2542
1329.0,0.2062
1330.0,0.26
1331.0,0.1771
1332.0,0.1758
1333.0,0.2384
1334.0,0.1956
1335.0,0.2576
1336.0,0.2133
1337.0,0.1954
1338.0,0.2098
1339.0,0.2066
1340.0,0.1964
1341.0,0.2022
1342.0,0.2118
1343.0,0.1686
1344.0,0.1015
1345.0,0.1416
1346.0,0.08947
1347.0,0.09396
1348.0,0.01158
1349.0,0.03393
1350.0,0.03065
1351.0,0.013
1352.0,0.005915
1353.0,0.0006149
1354.0,0.00141
1355.0,4.314e-05
1356.0,0.0003225
1357.0,0.0004755
1358.0,4.847e-05
1359.0,1.547e-05
1360.0,3.096e-05
1361.0,2.795e-07
1362.0,2.131e-09
1363.0,4.862e-05
1364.0,2.399e-05
1365.0,2.084e-09
1366.0,0.0001629
1367.0,6.399e-05
1368.0,1.338e-10
1369.0,9.84e-06
1370.0,7.122e-06
1371.0,7.146e-07
1372.0,3.614e-05
1373.0,0.0003593
1374.0,0.001056
1375.0,0.00181
1376.0,0.001246
1377.0,0.0006447
1378.0,0.004691
1379.0,0.0002842
1380.0,0.0005141
1381.0,1.966e-05
1382.0,3.614e-05
1383.0,8.933e-07
1384.0,1.272e-05
1385.0,2.292e-05
1386.0,4.124e-05
1387.0,0.001318
1388.0,3.269e-05
1389.0,0.002871
1390.0,0.002413
1391.0,0.001855
1392.0,0.000156
1393.0,0.0006237
1394.0,0.0006151
1395.0,8.928e-06
1396.0,3.107e-07
1397.0,0.0003025
1398.0,0.005363
1399.0,0.003473
1400.0,2.219e-07
1401.0,4.586e-07
1402.0,0.005582
1403.0,0.007654
1404.0,0.002462
1405.0,6.107e-06
1406.0,0.007327
1407.0,0.0006552
1408.0,0.005897
1409.0,0.002732
1410.0,0.001933
1411.0,0.006642
1412.0,0.007681
1413.0,0.04589
1414.0,0.001483
1415.0,0.0008469
1416.0,0.05904
1417.0,0.02499
1418.0,0.02792
1419.0,0.004797
1420.0,0.01749
1421.0,0.02007
1422.0,0.07435
1423.0,0.01669
1424.0,0.02946
1425.0,0.04489
1426.0,0.04566
1427.0,0.07101
1428.0,0.01131
1429.0,0.0583
1430.0,0.08686
1431.0,0.09225
1432.0,0.009187
1433.0,0.06355
1434.0,0.03488
1435.0,0.04314
1436.0,0.06926
1437.0,0.05365
1438.0,0.02669
1439.0,0.0879
1440.0,0.06715
1441.0,0.05733
1442.0,0.06137
1443.0,0.06788
1444.0,0.09111
1445.0,0.07806
1446.0,0.03733
1447.0,0.05938
1448.0,0.1472
1449.0,0.1351
1450.0,0.04405
1451.0,0.01999
1452.0,0.08796
1453.0,0.1108
1454.0,0.1669
1455.0,0.08767
1456.0,0.1215
1457.0,0.1483
1458.0,0.1617
1459.0,0.1931
1460.0,0.1083
1461.0,0.1183
1462.0,0.1622
1463.0,0.0613
1464.0,0.1813
1465.0,0.1115
1466.0,0.09187
1467.0,0.05598
1468.0,0.1043
1469.0,0.1236
1470.0,0.07297
1471.0,0.0296
1472.0,0.0703
