interpolation:linear
wavelength,value
280.0,1.238e-28
280.5,8.154e-27
281.0,5.742000000000001e-26
281.5,3.588e-24
282.0,4.357e-23
282.5,2.2219999999999996e-22
283.0,1.34e-21
283.5,2.952e-21
284.0,1.543e-19
284.5,7.341e-19
285.0,2.435e-18
285.5,2.818e-17
286.0,1.56e-16
286.5,1.257e-15
287.0,5.43e-15
287.5,3.453e-14
288.0,2.349e-13
288.5,1.161e-12
289.0,4.867e-12
289.5,2.316e-11
290.0,9.186e-11
290.5,2.512e-10
291.0,7.548e-10
291.5,3.25e-09
292.0,1.025e-08
292.5,1.745e-08
293.0,4.739e-08
293.5,1.566e-07
294.0,3.04e-07
294.5,5.981e-07
295.0,1.21e-06
295.5,3.478e-06
296.0,7.037e-06
296.5,1.024e-05
297.0,1.428e-05
297.5,3.95e-05
298.0,6.351e-05
298.5,6.469e-05
299.0,0.0001438
299.5,0.0002377
300.0,0.0002605
300.5,0.0003742
301.0,0.0006581
301.5,0.001014
302.0,0.0008545
302.5,0.001696
303.0,0.003088
303.5,0.003907
304.0,0.003648
304.5,0.005271
305.0,0.007586
305.5,0.008417
306.0,0.008087
306.5,0.009886
307.0,0.01392
307.5,0.01757
308.0,0.01853
308.5,0.02141
309.0,0.01929
309.5,0.02214
310.0,0.02231
310.5,0.03631
311.0,0.04566
311.5,0.04429
312.0,0.04384
312.5,0.053
313.0,0.05746
313.5,0.05665
314.0,0.06998
314.5,0.06071
315.0,0.07992
315.5,0.06836
316.0,0.05861
316.5,0.08272
317.0,0.1035
317.5,0.1092
318.0,0.08429
318.5,0.1017
319.0,0.1193
319.5,0.1008
320.0,0.1231
320.5,0.1494
321.0,0.1291
321.5,0.1241
322.0,0.1385
322.5,0.121
323.0,0.1182
323.5,0.1397
324.0,0.1634
324.5,0.1687
325.0,0.1517
325.5,0.1921
326.0,0.2302
326.5,0.2284
327.0,0.2303
327.5,0.2254
328.0,0.2057
328.5,0.2125
329.0,0.2507
329.5,0.2844
330.0,0.2901
330.5,0.2372
331.0,0.2443
331.5,0.2468
332.0,0.2635
332.5,0.2599
333.0,0.2618
333.5,0.2414
334.0,0.2492
334.5,0.2848
335.0,0.2666
335.5,0.304
336.0,0.2113
336.5,0.2574
337.0,0.2136
337.5,0.2677
338.0,0.2594
338.5,0.294
339.0,0.2942
339.5,0.2832
340.0,0.3415
340.5,0.3089
341.0,0.2977
341.5,0.2771
342.0,0.3334
342.5,0.314
343.0,0.3453
343.5,0.3254
344.0,0.2445
344.5,0.243
345.0,0.3269
345.5,0.3364
346.0,0.2878
346.5,0.3277
347.0,0.3521
347.5,0.2855
348.0,0.3283
348.5,0.3302
349.0,0.3078
349.5,0.3059
350.0,0.38
350.5,0.4025
351.0,0.3605
351.5,0.3499
352.0,0.3786
352.5,0.2973
353.0,0.3764
353.5,0.4043
354.0,0.4215
354.5,0.4292
355.0,0.4292
355.5,0.3893
356.0,0.4089
356.5,0.3505
357.0,0.2907
357.5,0.3572
358.0,0.2842
358.5,0.2438
359.0,0.3421
359.5,0.4373
360.0,0.4653
360.5,0.3733
361.0,0.3416
361.5,0.3947
362.0,0.3424
362.5,0.4755
363.0,0.4285
363.5,0.396
364.0,0.4859
364.5,0.4167
365.0,0.4257
365.5,0.5361
366.0,0.5698
366.5,0.5371
367.0,0.5247
367.5,0.5462
368.0,0.4795
368.5,0.4853
369.0,0.5257
369.5,0.5621
370.0,0.6011
370.5,0.4679
371.0,0.5015
371.5,0.6293
372.0,0.4189
372.5,0.5037
373.0,0.5139
373.5,0.3353
374.0,0.4886
374.5,0.4058
375.0,0.3956
375.5,0.5923
376.0,0.4924
376.5,0.5117
377.0,0.5433
377.5,0.6373
378.0,0.6927
378.5,0.6567
379.0,0.5435
379.5,0.4979
380.0,0.5191
380.5,0.6305
381.0,0.6336
381.5,0.5036
382.0,0.4484
382.5,0.3833
383.0,0.3558
383.5,0.3436
384.0,0.3799
384.5,0.5602
385.0,0.557
385.5,0.52
386.0,0.4465
386.5,0.5879
387.0,0.4897
387.5,0.5515
388.0,0.5104
388.5,0.5058
389.0,0.5473
389.5,0.6644
390.0,0.6684
390.5,0.6166
391.0,0.7275
391.5,0.7438
392.0,0.628
392.5,0.5635
393.0,0.3142
393.5,0.2289
394.0,0.4669
394.5,0.5948
395.0,0.7274
395.5,0.7406
396.0,0.6435
396.5,0.377
397.0,0.2835
397.5,0.5779
398.0,0.811
398.5,0.84
399.0,0.9113
399.5,0.9102
400.0,0.9471
401.0,0.9765
402.0,1.034
403.0,0.9862
404.0,0.9746
405.0,0.9781
406.0,0.9657
407.0,0.9536
408.0,0.9944
409.0,1.068
410.0,0.9361
411.0,1.017
412.0,1.096
413.0,1.073
414.0,1.089
415.0,1.095
416.0,1.118
417.0,1.094
418.0,1.077
419.0,1.095
420.0,1.093
421.0,1.147
422.0,1.094
423.0,1.072
424.0,1.137
425.0,1.138
426.0,1.112
427.0,1.094
428.0,1.068
429.0,1.014
430.0,0.89
431.0,0.8847
432.0,1.145
433.0,1.155
434.0,1.075
435.0,1.125
436.0,1.271
437.0,1.256
438.0,1.147
439.0,1.189
440.0,1.23
441.0,1.277
442.0,1.373
443.0,1.34
444.0,1.372
445.0,1.346
446.0,1.287
447.0,1.394
448.0,1.419
449.0,1.427
450.0,1.47
451.0,1.528
452.0,1.475
453.0,1.39
454.0,1.454
455.0,1.466
456.0,1.503
457.0,1.532
458.0,1.482
459.0,1.478
460.0,1.485
461.0,1.521
462.0,1.536
463.0,1.528
464.0,1.504
465.0,1.487
466.0,1.504
467.0,1.48
468.0,1.5
469.0,1.51
470.0,1.465
471.0,1.465
472.0,1.546
473.0,1.529
474.0,1.534
475.0,1.55
476.0,1.506
477.0,1.513
478.0,1.558
479.0,1.55
480.0,1.556
481.0,1.587
482.0,1.597
483.0,1.58
484.0,1.549
485.0,1.478
486.0,1.293
487.0,1.357
488.0,1.491
489.0,1.498
490.0,1.578
491.0,1.552
492.0,1.468
493.0,1.518
494.0,1.535
495.0,1.55
496.0,1.562
497.0,1.588
498.0,1.515
499.0,1.537
500.0,1.495
501.0,1.469
502.0,1.451
503.0,1.513
504.0,1.478
505.0,1.531
506.0,1.582
507.0,1.507
508.0,1.461
509.0,1.504
510.0,1.497
511.0,1.538
512.0,1.556
513.0,1.475
514.0,1.466
515.0,1.453
516.0,1.451
517.0,1.29
518.0,1.358
519.0,1.426
520.0,1.479
521.0,1.495
522.0,1.498
523.0,1.472
524.0,1.527
525.0,1.546
526.0,1.479
527.0,1.395
528.0,1.477
529.0,1.559
530.0,1.538
531.0,1.562
532.0,1.51
533.0,1.467
534.0,1.511
535.0,1.545
536.0,1.561
537.0,1.5
538.0,1.528
539.0,1.516
540.0,1.455
541.0,1.466
542.0,1.513
543.0,1.498
544.0,1.526
545.0,1.522
546.0,1.53
547.0,1.53
548.0,1.513
549.0,1.518
550.0,1.538
551.0,1.52
552.0,1.532
553.0,1.505
554.0,1.543
555.0,1.547
556.0,1.528
557.0,1.482
558.0,1.472
559.0,1.446
560.0,1.465
561.0,1.485
562.0,1.476
563.0,1.517
564.0,1.477
565.0,1.466
566.0,1.445
567.0,1.474
568.0,1.463
569.0,1.43
570.0,1.431
571.0,1.422
572.0,1.458
573.0,1.475
574.0,1.471
575.0,1.445
576.0,1.433
577.0,1.449
578.0,1.427
579.0,1.433
580.0,1.46
581.0,1.467
582.0,1.495
583.0,1.499
584.0,1.512
585.0,1.476
586.0,1.446
587.0,1.479
588.0,1.446
589.0,1.285
590.0,1.345
591.0,1.421
592.0,1.405
593.0,1.425
594.0,1.417
595.0,1.384
596.0,1.436
597.0,1.422
598.0,1.418
599.0,1.419
600.0,1.421
601.0,1.41
602.0,1.401
603.0,1.424
604.0,1.448
605.0,1.441
606.0,1.436
607.0,1.45
608.0,1.434
609.0,1.437
610.0,1.427
611.0,1.435
612.0,1.431
613.0,1.413
614.0,1.394
615.0,1.425
616.0,1.378
617.0,1.376
618.0,1.429
619.0,1.415
620.0,1.425
621.0,1.427
622.0,1.411
623.0,1.39
624.0,1.367
625.0,1.364
626.0,1.385
627.0,1.401
628.0,1.317
629.0,1.372
630.0,1.341
631.0,1.369
632.0,1.353
633.0,1.393
634.0,1.379
635.0,1.401
636.0,1.382
637.0,1.405
638.0,1.418
639.0,1.402
640.0,1.389
641.0,1.388
642.0,1.382
643.0,1.401
644.0,1.396
645.0,1.399
646.0,1.368
647.0,1.354
648.0,1.356
649.0,1.33
650.0,1.334
651.0,1.392
652.0,1.338
653.0,1.374
654.0,1.359
655.0,1.311
656.0,1.161
657.0,1.192
658.0,1.336
659.0,1.345
660.0,1.351
661.0,1.361
662.0,1.364
663.0,1.337
664.0,1.353
665.0,1.354
666.0,1.355
667.0,1.354
668.0,1.354
669.0,1.375
670.0,1.37
671.0,1.37
672.0,1.358
673.0,1.379
674.0,1.374
675.0,1.362
676.0,1.371
677.0,1.358
678.0,1.362
679.0,1.34
680.0,1.351
681.0,1.342
682.0,1.341
683.0,1.339
684.0,1.332
685.0,1.344
686.0,1.336
687.0,0.922
688.0,1.064
689.0,1.068
690.0,1.115
691.0,1.167
692.0,1.205
693.0,1.196
694.0,1.186
695.0,1.232
696.0,1.234
697.0,1.304
698.0,1.284
699.0,1.257
700.0,1.242
701.0,1.231
702.0,1.238
703.0,1.241
704.0,1.279
705.0,1.281
706.0,1.279
707.0,1.28
708.0,1.283
709.0,1.284
710.0,1.285
711.0,1.283
712.0,1.279
713.0,1.267
714.0,1.272
715.0,1.233
716.0,1.234
717.0,1.084
718.0,0.9977
719.0,0.9156
720.0,0.96
721.0,1.052
722.0,1.195
723.0,1.117
724.0,1.012
725.0,0.9977
726.0,1.044
727.0,1.056
728.0,0.9963
729.0,1.029
730.0,1.089
731.0,1.044
732.0,1.112
733.0,1.172
734.0,1.199
735.0,1.175
736.0,1.174
737.0,1.179
738.0,1.194
739.0,1.171
740.0,1.201
741.0,1.188
742.0,1.189
743.0,1.219
744.0,1.216
745.0,1.216
746.0,1.222
747.0,1.225
748.0,1.222
749.0,1.208
750.0,1.208
751.0,1.196
752.0,1.201
753.0,1.207
754.0,1.21
755.0,1.204
756.0,1.203
757.0,1.205
758.0,1.19
759.0,1.168
760.0,0.2258
761.0,0.1246
762.0,0.6312
763.0,0.3337
764.0,0.4857
765.0,0.6316
766.0,0.7602
767.0,0.944
768.0,1.077
769.0,1.097
770.0,1.132
771.0,1.14
772.0,1.142
773.0,1.15
774.0,1.144
775.0,1.136
776.0,1.15
777.0,1.135
778.0,1.128
779.0,1.129
780.0,1.123
781.0,1.124
782.0,1.131
783.0,1.112
784.0,1.117
785.0,1.109
786.0,1.122
787.0,1.104
788.0,1.091
789.0,1.091
790.0,1.064
791.0,1.071
792.0,1.063
793.0,1.046
794.0,1.062
795.0,1.081
796.0,1.05
797.0,1.052
798.0,1.08
799.0,1.074
800.0,1.056
801.0,1.053
802.0,1.051
803.0,1.043
804.0,1.044
805.0,1.04
806.0,1.069
807.0,1.056
808.0,1.057
809.0,1.038
810.0,1.03
811.0,1.033
812.0,1.005
813.0,0.9857
814.0,0.8733
815.0,0.8678
816.0,0.8088
817.0,0.823
818.0,0.7936
819.0,0.8821
820.0,0.8328
821.0,0.9664
822.0,0.9401
823.0,0.6507
824.0,0.9154
825.0,0.9504
826.0,0.9166
827.0,0.9651
828.0,0.8247
829.0,0.9109
830.0,0.8997
831.0,0.9027
832.0,0.8763
833.0,0.9291
834.0,0.8984
835.0,0.9826
836.0,0.9434
837.0,0.9853
838.0,0.956
839.0,0.9704
840.0,0.9914
841.0,0.978
842.0,0.9794
843.0,0.9782
844.0,0.9651
845.0,0.9972
846.0,0.9928
847.0,0.9741
848.0,0.9685
849.0,0.9411
850.0,0.9017
851.0,0.9551
852.0,0.9484
853.0,0.9127
854.0,0.7883
855.0,0.8658
856.0,0.9464
857.0,0.9674
858.0,0.9604
859.0,0.9612
860.0,0.9629
861.0,0.9578
862.0,0.9728
863.0,0.9959
864.0,0.9462
865.0,0.938
866.0,0.8434
867.0,0.8803
868.0,0.958
869.0,0.9381
870.0,0.965
871.0,0.9519
872.0,0.9486
873.0,0.9468
874.0,0.9356
875.0,0.9167
876.0,0.9264
877.0,0.9358
878.0,0.9461
879.0,0.9316
880.0,0.9117
881.0,0.8982
882.0,0.9177
883.0,0.9206
884.0,0.9165
885.0,0.9235
886.0,0.8807
887.0,0.8897
888.0,0.9031
889.0,0.9131
890.0,0.906
891.0,0.9043
892.0,0.8789
893.0,0.8522
894.0,0.8238
895.0,0.7805
896.0,0.7361
897.0,0.635
898.0,0.6915
899.0,0.5292
900.0,0.7066
901.0,0.5546
902.0,0.6468
903.0,0.6545
904.0,0.8182
905.0,0.791
906.0,0.741
907.0,0.6059
908.0,0.6174
909.0,0.667
910.0,0.5931
911.0,0.6303
912.0,0.6583
913.0,0.6021
914.0,0.5965
915.0,0.6464
916.0,0.5481
917.0,0.6922
918.0,0.5621
919.0,0.7041
920.0,0.7097
921.0,0.7378
922.0,0.6618
923.0,0.7127
924.0,0.6786
925.0,0.6639
926.0,0.6712
927.0,0.7494
928.0,0.5554
929.0,0.5085
930.0,0.4017
931.0,0.3804
932.0,0.276
933.0,0.2253
934.0,0.1256
935.0,0.2298
936.0,0.1448
937.0,0.1469
938.0,0.1802
939.0,0.3687
940.0,0.4422
941.0,0.3356
942.0,0.3875
943.0,0.2563
944.0,0.2687
945.0,0.3458
946.0,0.1778
947.0,0.3478
948.0,0.2558
949.0,0.4638
950.0,0.1315
951.0,0.4565
952.0,0.2475
953.0,0.3182
954.0,0.3886
955.0,0.3217
956.0,0.3115
957.0,0.2481
958.0,0.4392
959.0,0.3507
960.0,0.393
961.0,0.4398
962.0,0.4163
963.0,0.4788
964.0,0.439
965.0,0.477
966.0,0.4773
967.0,0.4754
968.0,0.6333
969.0,0.6619
970.0,0.6084
971.0,0.6947
972.0,0.6649
973.0,0.5807
974.0,0.5515
975.0,0.5718
976.0,0.5439
977.0,0.6171
978.0,0.5871
979.0,0.6143
980.0,0.578
981.0,0.6909
982.0,0.6613
983.0,0.6353
984.0,0.7113
985.0,0.6589
986.0,0.7234
987.0,0.7098
988.0,0.7085
989.0,0.721
990.0,0.7043
991.0,0.7233
992.0,0.7275
993.0,0.7118
994.0,0.7273
995.0,0.7264
996.0,0.7232
997.0,0.7243
998.0,0.7209
999.0,0.7183
1000.0,0.7134
1001.0,0.7222
1002.0,0.7028
1003.0,0.7095
1004.0,0.6923
1005.0,0.6668
1006.0,0.693
1007.0,0.7077
1008.0,0.7039
1009.0,0.7003
1010.0,0.6974
1011.0,0.7042
1012.0,0.6982
1013.0,0.7025
1014.0,0.6976
1015.0,0.6931
1016.0,0.69
1017.0,0.6918
1018.0,0.6891
1019.0,0.6746
1020.0,0.6856
1021.0,0.6847
1022.0,0.6794
1023.0,0.6866
1024.0,0.6779
1025.0,0.6862
1026.0,0.6833
1027.0,0.6818
1028.0,0.6804
1029.0,0.6724
1030.0,0.6769
1031.0,0.6743
1032.0,0.6723
1033.0,0.6622
1034.0,0.6623
1035.0,0.6644
1036.0,0.6679
1037.0,0.657
1038.0,0.66
1039.0,0.6596
1040.0,0.657
1041.0,0.6596
1042.0,0.655
1043.0,0.653
1044.0,0.6553
1045.0,0.6465
1046.0,0.6394
1047.0,0.6452
1048.0,0.6487
1049.0,0.6464
1050.0,0.6435
1051.0,0.6426
1052.0,0.64
1053.0,0.635
1054.0,0.6364
1055.0,0.6368
1056.0,0.6346
1057.0,0.6327
1058.0,0.6172
1059.0,0.6179
1060.0,0.617
1061.0,0.6163
1062.0,0.6195
1063.0,0.6135
1064.0,0.6207
1065.0,0.6163
1066.0,0.6041
1067.0,0.612
1068.0,0.5987
1069.0,0.5802
1070.0,0.5999
1071.0,0.6091
1072.0,0.6022
1073.0,0.5935
1074.0,0.6088
1075.0,0.5787
1076.0,0.6083
1077.0,0.5977
1078.0,0.5865
1079.0,0.5986
1080.0,0.5885
1081.0,0.5699
1082.0,0.5787
1083.0,0.5804
1084.0,0.5686
1085.0,0.5899
1086.0,0.539
1087.0,0.5559
1088.0,0.58
1089.0,0.5626
1090.0,0.5505
1091.0,0.5782
1092.0,0.5767
1093.0,0.4901
1094.0,0.5278
1095.0,0.5105
1096.0,0.4892
1097.0,0.5634
1098.0,0.4817
1099.0,0.5023
1100.0,0.4675
1101.0,0.4732
1102.0,0.4523
1103.0,0.4481
1104.0,0.4487
1105.0,0.491
1106.0,0.3775
1107.0,0.4667
1108.0,0.3968
1109.0,0.3973
1110.0,0.4628
1111.0,0.3155
1112.0,0.3942
1113.0,0.2525
1114.0,0.2821
1115.0,0.2339
1116.0,0.1876
1117.0,0.06979
1118.0,0.2039
1119.0,0.1019
1120.0,0.1282
1121.0,0.1698
1122.0,0.07203
1123.0,0.1159
1124.0,0.09783
1125.0,0.1274
1126.0,0.0449
1127.0,0.1437
1128.0,0.08656
1129.0,0.09177
1130.0,0.0606
1131.0,0.2711
1132.0,0.213
1133.0,0.1357
1134.0,0.0351
1135.0,0.01314
1136.0,0.1135
1137.0,0.2666
1138.0,0.188
1139.0,0.2788
1140.0,0.2336
1141.0,0.1787
1142.0,0.2052
1143.0,0.2907
1144.0,0.1023
1145.0,0.1309
1146.0,0.1412
1147.0,0.05021
1148.0,0.2517
1149.0,0.2014
1150.0,0.11
1151.0,0.1866
1152.0,0.2291
1153.0,0.2229
1154.0,0.127
1155.0,0.291
1156.0,0.2624
1157.0,0.2938
1158.0,0.2907
1159.0,0.3131
1160.0,0.2681
1161.0,0.3291
1162.0,0.3308
1163.0,0.4442
1164.0,0.382
1165.0,0.3614
1166.0,0.3582
1167.0,0.3896
1168.0,0.3941
1169.0,0.4031
1170.0,0.4372
1171.0,0.4265
1172.0,0.4336
1173.0,0.4363
1174.0,0.3143
1175.0,0.4258
1176.0,0.4667
1177.0,0.449
1178.0,0.3394
1179.0,0.4704
1180.0,0.4215
1181.0,0.4348
1182.0,0.3025
1183.0,0.4278
1184.0,0.4018
1185.0,0.3885
1186.0,0.458
1187.0,0.4371
1188.0,0.3079
1189.0,0.4074
1190.0,0.4476
1191.0,0.4265
1192.0,0.4538
1193.0,0.4353
1194.0,0.4484
1195.0,0.4251
1196.0,0.41
1197.0,0.4481
1198.0,0.4107
1199.0,0.3517
1200.0,0.43
1201.0,0.4155
1202.0,0.4126
1203.0,0.4092
1204.0,0.3592
1205.0,0.4215
1206.0,0.4643
1207.0,0.4118
1208.0,0.4047
1209.0,0.4128
1210.0,0.4295
1211.0,0.41
1212.0,0.4062
1213.0,0.4496
1214.0,0.4154
1215.0,0.4078
1216.0,0.4482
1217.0,0.4368
1218.0,0.4446
1219.0,0.4394
1220.0,0.445
1221.0,0.4491
1222.0,0.4378
1223.0,0.4339
1224.0,0.4316
1225.0,0.4463
1226.0,0.449
1227.0,0.4155
1228.0,0.451
1229.0,0.4491
1230.0,0.4417
1231.0,0.4534
1232.0,0.4507
1233.0,0.4363
1234.0,0.4528
1235.0,0.4501
1236.0,0.4533
1237.0,0.4474
1238.0,0.4517
1239.0,0.446
1240.0,0.4476
1241.0,0.4458
1242.0,0.4446
1243.0,0.4409
1244.0,0.4442
1245.0,0.446
1246.0,0.4434
1247.0,0.4418
1248.0,0.4416
1249.0,0.4429
1250.0,0.4403
1251.0,0.4348
1252.0,0.4347
1253.0,0.4316
1254.0,0.4275
1255.0,0.4344
1256.0,0.4229
1257.0,0.4207
1258.0,0.428
1259.0,0.4136
1260.0,0.4156
1261.0,0.3936
1262.0,0.3825
1263.0,0.3833
1264.0,0.3554
1265.0,0.3808
1266.0,0.3674
1267.0,0.3732
1268.0,0.355
1269.0,0.2271
1270.0,0.3721
1271.0,0.3922
1272.0,0.3933
1273.0,0.3893
1274.0,0.3903
1275.0,0.3958
1276.0,0.3993
1277.0,0.4017
1278.0,0.4089
1279.0,0.4052
1280.0,0.4001
1281.0,0.3815
1282.0,0.3672
1283.0,0.3956
1284.0,0.4051
1285.0,0.4077
1286.0,0.413
1287.0,0.4071
1288.0,0.4069
1289.0,0.3948
1290.0,0.4032
1291.0,0.4087
1292.0,0.3855
1293.0,0.4012
1294.0,0.3984
1295.0,0.3969
1296.0,0.3799
1297.0,0.3601
1298.0,0.3861
1299.0,0.4015
1300.0,0.3425
1301.0,0.3525
1302.0,0.3848
1303.0,0.3378
1304.0,0.2905
1305.0,0.3771
1306.0,0.3773
1307.0,0.2959
1308.0,0.3379
1309.0,0.3746
1310.0,0.2904
1311.0,0.3245
1312.0,0.3161
1313.0,0.3104
1314.0,0.2787
1315.0,0.2756
1316.0,0.3198
1317.0,0.3032
1318.0,0.3286
1319.0,0.2595
1320.0,0.2509
1321.0,0.2913
1322.0,0.2946
1323.0,0.2238
1324.0,0.2546
1325.0,0.3154
1326.0,0.2721
1327.0,0.2598
1328.0,0.2247
1329.0,0.1704
1330.0,0.221
1331.0,0.1353
1332.0,0.1391
1333.0,0.1931
1334.0,0.1627
1335.0,0.223
1336.0,0.1773
1337.0,0.1573
1338.0,0.1702
1339.0,0.1692
1340.0,0.1641
1341.0,0.1613
1342.0,0.1693
1343.0,0.1167
1344.0,0.06981
1345.0,0.1005
1346.0,0.05123
1347.0,0.05231
1348.0,0.003631
1349.0,0.0128
1350.0,0.01312
1351.0,0.003389
1352.0,0.000979
1353.0,5.384e-05
1354.0,0.0001769
1355.0,1.665e-06
1356.0,2.646e-05
1357.0,4.023e-05
1358.0,1.96e-06
1359.0,2.777e-07
1360.0,9.35e-07
1361.0,1.34e-09
1362.0,4.084e-12
1363.0,1.311e-06
1364.0,5.471e-07
1365.0,1.642e-12
1366.0,5.56e-06
1367.0,2.233e-06
1368.0,1.661e-14
1369.0,2.059e-07
1370.0,1.067e-07
1371.0,6.445e-09
1372.0,1.229e-06
1373.0,2.295e-05
1374.0,0.0001012
1375.0,0.0001843
1376.0,0.0001587
1377.0,7.36e-05
1378.0,0.000704
1379.0,3.1e-05
1380.0,4.614e-05
1381.0,1.246e-06
1382.0,1.124e-06
1383.0,1.763e-08
1384.0,2.376e-07
1385.0,1.007e-06
1386.0,1.037e-06
1387.0,0.0001084
1388.0,2.147e-06
1389.0,0.0003473
1390.0,0.0002991
1391.0,0.0002019
1392.0,1.337e-05
1393.0,6.899e-05
1394.0,3.884e-05
1395.0,3.042e-07
1396.0,1.868e-09
1397.0,2.808e-05
1398.0,0.0007955
1399.0,0.0005041
1400.0,8.613e-10
1401.0,3.284e-09
1402.0,0.001309
1403.0,0.001667
1404.0,0.000511
1405.0,1.545e-07
1406.0,0.001359
1407.0,0.0001183
1408.0,0.001108
1409.0,0.000386
1410.0,0.0003019
1411.0,0.001463
1412.0,0.00194
1413.0,0.01908
1414.0,0.0002372
1415.0,0.0001159
1416.0,0.03071
1417.0,0.009445
1418.0,0.01078
1419.0,0.00168
1420.0,0.006603
1421.0,0.007141
1422.0,0.04005
1423.0,0.007796
1424.0,0.01458
1425.0,0.02151
1426.0,0.02431
1427.0,0.04448
1428.0,0.00343
1429.0,0.03335
1430.0,0.05666
1431.0,0.06221
1432.0,0.002704
1433.0,0.0396
1434.0,0.02015
1435.0,0.02018
1436.0,0.03891
1437.0,0.02981
1438.0,0.0126
1439.0,0.0529
1440.0,0.03963
1441.0,0.03019
1442.0,0.03349
1443.0,0.04209
1444.0,0.05836
1445.0,0.04559
1446.0,0.02048
1447.0,0.03229
1448.0,0.1101
1449.0,0.09547
1450.0,0.02395
1451.0,0.009594
1452.0,0.0573
1453.0,0.07536
1454.0,0.1304
1455.0,0.0611
1456.0,0.082
1457.0,0.1106
1458.0,0.131
1459.0,0.1549
1460.0,0.0803
1461.0,0.08356
1462.0,0.1231
1463.0,0.03942
1464.0,0.1465
