interpolation:linear
wavelength,value
280.0,1.08e-18
280.5,1.662e-17
281.0,6.874e-17
281.5,1.051e-15
282.0,5.428e-15
282.5,1.555e-14
283.0,4.975e-14
283.5,7.991e-14
284.0,9.615e-13
284.5,2.343e-12
285.0,3.77e-12
285.5,1.86e-11
286.0,7.291e-11
286.5,2.891e-10
287.0,7.406e-10
287.5,2.372e-09
288.0,6.802e-09
288.5,2.124e-08
289.0,5.548e-08
289.5,1.569e-07
290.0,4.064e-07
290.5,7.78e-07
291.0,1.522e-06
291.5,3.794e-06
292.0,7.676e-06
292.5,1.017e-05
293.0,2.003e-05
293.5,4.274e-05
294.0,6.173e-05
294.5,9.718e-05
295.0,0.0001485
295.5,0.0003018
296.0,0.0004815
296.5,0.0005597
297.0,0.0006525
297.5,0.001405
298.0,0.001847
298.5,0.001619
299.0,0.003126
299.5,0.004132
300.0,0.004028
300.5,0.005158
301.0,0.007685
301.5,0.01035
302.0,0.008172
302.5,0.01445
303.0,0.02284
303.5,0.02666
304.0,0.02391
304.5,0.03147
305.0,0.04012
305.5,0.04136
306.0,0.03855
306.5,0.04502
307.0,0.05783
307.5,0.06725
308.0,0.06972
308.5,0.07736
309.0,0.06749
309.5,0.07118
310.0,0.06894
310.5,0.1099
311.0,0.1337
311.5,0.1276
312.0,0.1188
312.5,0.1381
313.0,0.1464
313.5,0.1461
314.0,0.1725
314.5,0.1416
315.0,0.184
315.5,0.1606
316.0,0.1318
316.5,0.1793
317.0,0.2236
317.5,0.2372
318.0,0.1785
318.5,0.2064
319.0,0.2367
319.5,0.2053
320.0,0.251
320.5,0.2923
321.0,0.2441
321.5,0.233
322.0,0.2676
322.5,0.2325
323.0,0.2215
323.5,0.2521
324.0,0.2924
324.5,0.3047
325.0,0.2795
325.5,0.347
326.0,0.4051
326.5,0.3951
327.0,0.399
327.5,0.3917
328.0,0.3638
328.5,0.3655
329.0,0.4232
329.5,0.4766
330.0,0.4861
330.5,0.401
331.0,0.4134
331.5,0.4125
332.0,0.4338
332.5,0.4246
333.0,0.4277
333.5,0.3966
334.0,0.4086
334.5,0.4611
335.0,0.4284
335.5,0.4859
336.0,0.3368
336.5,0.411
337.0,0.3413
337.5,0.427
338.0,0.4098
338.5,0.462
339.0,0.4605
339.5,0.4422
340.0,0.5336
340.5,0.4811
341.0,0.4609
341.5,0.4275
342.0,0.5128
342.5,0.4815
343.0,0.5286
343.5,0.4973
344.0,0.374
344.5,0.3699
345.0,0.4952
345.5,0.508
346.0,0.4333
346.5,0.492
347.0,0.5277
347.5,0.4269
348.0,0.4894
348.5,0.4911
349.0,0.4565
349.5,0.4525
350.0,0.5608
350.5,0.5926
351.0,0.5297
351.5,0.5135
352.0,0.554
352.5,0.4339
353.0,0.5478
353.5,0.5872
354.0,0.611
354.5,0.621
355.0,0.6198
355.5,0.5608
356.0,0.5878
356.5,0.5029
357.0,0.4164
357.5,0.5108
358.0,0.4056
358.5,0.3473
359.0,0.4866
359.5,0.621
360.0,0.6595
360.5,0.5282
361.0,0.4822
361.5,0.5557
362.0,0.4809
362.5,0.6661
363.0,0.5988
363.5,0.5521
364.0,0.676
364.5,0.5787
365.0,0.5902
365.5,0.7418
366.0,0.7868
366.5,0.7401
367.0,0.7218
367.5,0.7502
368.0,0.6573
368.5,0.6641
369.0,0.7181
369.5,0.7665
370.0,0.8181
370.5,0.6357
371.0,0.6801
371.5,0.8521
372.0,0.5664
372.5,0.68
373.0,0.6924
373.5,0.451
374.0,0.6562
374.5,0.544
375.0,0.5296
375.5,0.7918
376.0,0.6573
376.5,0.6822
377.0,0.723
377.5,0.8469
378.0,0.9194
378.5,0.8704
379.0,0.7196
379.5,0.6585
380.0,0.6856
380.5,0.8313
381.0,0.8338
381.5,0.6615
382.0,0.5881
382.5,0.5017
383.0,0.4649
383.5,0.4483
384.0,0.495
384.5,0.7289
385.0,0.7236
385.5,0.6745
386.0,0.5783
386.5,0.7603
387.0,0.6326
387.5,0.7114
388.0,0.6576
388.5,0.6506
389.0,0.7032
389.5,0.8526
390.0,0.8565
390.5,0.7891
391.0,0.9298
391.5,0.9495
392.0,0.8007
392.5,0.7174
393.0,0.3995
393.5,0.2907
394.0,0.5921
394.5,0.7534
395.0,0.9203
395.5,0.936
396.0,0.8123
396.5,0.4751
397.0,0.3569
397.5,0.7266
398.0,1.019
398.5,1.054
399.0,1.142
399.5,1.139
400.0,1.185
401.0,1.218
402.0,1.287
403.0,1.224
404.0,1.208
405.0,1.209
406.0,1.191
407.0,1.174
408.0,1.222
409.0,1.31
410.0,1.146
411.0,1.242
412.0,1.336
413.0,1.305
414.0,1.322
415.0,1.327
416.0,1.352
417.0,1.321
418.0,1.298
419.0,1.317
420.0,1.313
421.0,1.375
422.0,1.309
423.0,1.28
424.0,1.356
425.0,1.355
426.0,1.32
427.0,1.297
428.0,1.266
429.0,1.199
430.0,1.051
431.0,1.043
432.0,1.348
433.0,1.357
434.0,1.261
435.0,1.319
436.0,1.487
437.0,1.467
438.0,1.337
439.0,1.386
440.0,1.431
441.0,1.484
442.0,1.593
443.0,1.554
444.0,1.589
445.0,1.557
446.0,1.486
447.0,1.607
448.0,1.635
449.0,1.641
450.0,1.688
451.0,1.753
452.0,1.69
453.0,1.591
454.0,1.661
455.0,1.673
456.0,1.714
457.0,1.744
458.0,1.688
459.0,1.68
460.0,1.687
461.0,1.727
462.0,1.741
463.0,1.731
464.0,1.702
465.0,1.68
466.0,1.697
467.0,1.669
468.0,1.69
469.0,1.7
470.0,1.648
471.0,1.647
472.0,1.737
473.0,1.717
474.0,1.722
475.0,1.74
476.0,1.692
477.0,1.7
478.0,1.748
479.0,1.737
480.0,1.74
481.0,1.772
482.0,1.781
483.0,1.759
484.0,1.724
485.0,1.643
486.0,1.436
487.0,1.505
488.0,1.653
489.0,1.66
490.0,1.746
491.0,1.717
492.0,1.622
493.0,1.676
494.0,1.694
495.0,1.71
496.0,1.721
497.0,1.749
498.0,1.669
499.0,1.692
500.0,1.645
501.0,1.617
502.0,1.598
503.0,1.666
504.0,1.633
505.0,1.686
506.0,1.742
507.0,1.658
508.0,1.606
509.0,1.65
510.0,1.641
511.0,1.684
512.0,1.703
513.0,1.612
514.0,1.602
515.0,1.587
516.0,1.584
517.0,1.408
518.0,1.481
519.0,1.554
520.0,1.612
521.0,1.629
522.0,1.632
523.0,1.604
524.0,1.663
525.0,1.685
526.0,1.611
527.0,1.521
528.0,1.61
529.0,1.699
530.0,1.676
531.0,1.703
532.0,1.645
533.0,1.598
534.0,1.645
535.0,1.681
536.0,1.697
537.0,1.63
538.0,1.659
539.0,1.646
540.0,1.579
541.0,1.593
542.0,1.644
543.0,1.626
544.0,1.657
545.0,1.652
546.0,1.662
547.0,1.66
548.0,1.64
549.0,1.645
550.0,1.665
551.0,1.646
552.0,1.658
553.0,1.629
554.0,1.669
555.0,1.674
556.0,1.653
557.0,1.603
558.0,1.593
559.0,1.565
560.0,1.586
561.0,1.608
562.0,1.598
563.0,1.644
564.0,1.601
565.0,1.589
566.0,1.568
567.0,1.599
568.0,1.59
569.0,1.56
570.0,1.559
571.0,1.548
572.0,1.591
573.0,1.61
574.0,1.606
575.0,1.579
576.0,1.565
577.0,1.581
578.0,1.556
579.0,1.559
580.0,1.584
581.0,1.589
582.0,1.616
583.0,1.618
584.0,1.63
585.0,1.59
586.0,1.558
587.0,1.595
588.0,1.566
589.0,1.408
590.0,1.471
591.0,1.545
592.0,1.533
593.0,1.548
594.0,1.541
595.0,1.51
596.0,1.554
597.0,1.541
598.0,1.533
599.0,1.533
600.0,1.532
601.0,1.517
602.0,1.506
603.0,1.53
604.0,1.556
605.0,1.547
606.0,1.54
607.0,1.554
608.0,1.535
609.0,1.537
610.0,1.525
611.0,1.533
612.0,1.528
613.0,1.508
614.0,1.487
615.0,1.519
616.0,1.468
617.0,1.465
618.0,1.521
619.0,1.505
620.0,1.515
621.0,1.518
622.0,1.502
623.0,1.481
624.0,1.455
625.0,1.452
626.0,1.474
627.0,1.494
628.0,1.437
629.0,1.474
630.0,1.442
631.0,1.461
632.0,1.441
633.0,1.48
634.0,1.461
635.0,1.482
636.0,1.461
637.0,1.483
638.0,1.495
639.0,1.477
640.0,1.461
641.0,1.459
642.0,1.451
643.0,1.471
644.0,1.465
645.0,1.469
646.0,1.44
647.0,1.434
648.0,1.437
649.0,1.41
650.0,1.403
651.0,1.461
652.0,1.417
653.0,1.442
654.0,1.425
655.0,1.38
656.0,1.218
657.0,1.25
658.0,1.397
659.0,1.405
660.0,1.411
661.0,1.421
662.0,1.426
663.0,1.397
664.0,1.41
665.0,1.409
666.0,1.409
667.0,1.406
668.0,1.406
669.0,1.427
670.0,1.42
671.0,1.419
672.0,1.407
673.0,1.428
674.0,1.422
675.0,1.409
676.0,1.418
677.0,1.404
678.0,1.408
679.0,1.385
680.0,1.396
681.0,1.387
682.0,1.385
683.0,1.383
684.0,1.376
685.0,1.387
686.0,1.38
687.0,1.098
688.0,1.196
689.0,1.198
690.0,1.228
691.0,1.26
692.0,1.281
693.0,1.274
694.0,1.265
695.0,1.296
696.0,1.299
697.0,1.35
698.0,1.33
699.0,1.316
700.0,1.301
701.0,1.293
702.0,1.295
703.0,1.298
704.0,1.329
705.0,1.331
706.0,1.326
707.0,1.326
708.0,1.329
709.0,1.325
710.0,1.328
711.0,1.324
712.0,1.317
713.0,1.307
714.0,1.312
715.0,1.277
716.0,1.28
717.0,1.177
718.0,1.097
719.0,1.014
720.0,1.065
721.0,1.132
722.0,1.247
723.0,1.187
724.0,1.098
725.0,1.09
726.0,1.134
727.0,1.136
728.0,1.09
729.0,1.106
730.0,1.167
731.0,1.127
732.0,1.179
733.0,1.223
734.0,1.245
735.0,1.223
736.0,1.221
737.0,1.227
738.0,1.23
739.0,1.207
740.0,1.233
741.0,1.218
742.0,1.217
743.0,1.247
744.0,1.242
745.0,1.241
746.0,1.247
747.0,1.25
748.0,1.247
749.0,1.233
750.0,1.232
751.0,1.22
752.0,1.225
753.0,1.231
754.0,1.234
755.0,1.227
756.0,1.227
757.0,1.228
758.0,1.214
759.0,1.198
760.0,0.4267
761.0,0.2935
762.0,0.8074
763.0,0.5449
764.0,0.6883
765.0,0.8085
766.0,0.8944
767.0,1.037
768.0,1.129
769.0,1.138
770.0,1.16
771.0,1.162
772.0,1.163
773.0,1.17
774.0,1.164
775.0,1.155
776.0,1.169
777.0,1.154
778.0,1.147
779.0,1.148
780.0,1.142
781.0,1.143
782.0,1.15
783.0,1.13
784.0,1.135
785.0,1.127
786.0,1.14
787.0,1.127
788.0,1.117
789.0,1.118
790.0,1.098
791.0,1.098
792.0,1.089
793.0,1.073
794.0,1.08
795.0,1.101
796.0,1.081
797.0,1.083
798.0,1.101
799.0,1.097
800.0,1.082
801.0,1.081
802.0,1.078
803.0,1.071
804.0,1.072
805.0,1.064
806.0,1.088
807.0,1.076
808.0,1.077
809.0,1.061
810.0,1.057
811.0,1.064
812.0,1.044
813.0,1.029
814.0,0.9412
815.0,0.9348
816.0,0.8768
817.0,0.8877
818.0,0.8625
819.0,0.932
820.0,0.8908
821.0,0.9983
822.0,0.9772
823.0,0.7362
824.0,0.9627
825.0,0.9842
826.0,0.9596
827.0,0.9988
828.0,0.8854
829.0,0.9513
830.0,0.9432
831.0,0.9448
832.0,0.9231
833.0,0.9611
834.0,0.9399
835.0,1.006
836.0,0.9791
837.0,1.008
838.0,0.983
839.0,0.9911
840.0,1.011
841.0,0.9998
842.0,0.9974
843.0,0.9922
844.0,0.9811
845.0,1.011
846.0,1.006
847.0,0.9854
848.0,0.9814
849.0,0.9537
850.0,0.9134
851.0,0.9694
852.0,0.9617
853.0,0.9239
854.0,0.7993
855.0,0.8761
856.0,0.9584
857.0,0.9784
858.0,0.9718
859.0,0.9718
860.0,0.973
861.0,0.9679
862.0,0.9829
863.0,1.006
864.0,0.9558
865.0,0.9473
866.0,0.8518
867.0,0.8889
868.0,0.9673
869.0,0.9472
870.0,0.9742
871.0,0.961
872.0,0.9576
873.0,0.9557
874.0,0.9443
875.0,0.9254
876.0,0.9352
877.0,0.9445
878.0,0.9552
879.0,0.9404
880.0,0.9203
881.0,0.9076
882.0,0.9276
883.0,0.9296
884.0,0.9258
885.0,0.9328
886.0,0.8927
887.0,0.8995
888.0,0.9147
889.0,0.9217
890.0,0.918
891.0,0.9145
892.0,0.8929
893.0,0.8719
894.0,0.8532
895.0,0.8218
896.0,0.7834
897.0,0.6965
898.0,0.7457
899.0,0.5977
900.0,0.75
901.0,0.6239
902.0,0.6939
903.0,0.7124
904.0,0.8473
905.0,0.8256
906.0,0.779
907.0,0.6671
908.0,0.6761
909.0,0.7149
910.0,0.6621
911.0,0.6887
912.0,0.7119
913.0,0.6733
914.0,0.6628
915.0,0.7129
916.0,0.6159
917.0,0.7451
918.0,0.6316
919.0,0.7522
920.0,0.7468
921.0,0.7712
922.0,0.711
923.0,0.7444
924.0,0.7287
925.0,0.7142
926.0,0.721
927.0,0.7869
928.0,0.6361
929.0,0.5967
930.0,0.497
931.0,0.4656
932.0,0.3631
933.0,0.3122
934.0,0.2074
935.0,0.3054
936.0,0.213
937.0,0.22
938.0,0.2609
939.0,0.4513
940.0,0.5237
941.0,0.4219
942.0,0.4702
943.0,0.3311
944.0,0.331
945.0,0.431
946.0,0.2493
947.0,0.4398
948.0,0.3297
949.0,0.5581
950.0,0.2056
951.0,0.5449
952.0,0.3336
953.0,0.4042
954.0,0.4669
955.0,0.4053
956.0,0.3848
957.0,0.3383
958.0,0.5014
959.0,0.4278
960.0,0.4775
961.0,0.5141
962.0,0.4902
963.0,0.5454
964.0,0.5069
965.0,0.5406
966.0,0.5458
967.0,0.5449
968.0,0.6678
969.0,0.7
970.0,0.653
971.0,0.7202
972.0,0.6942
973.0,0.6314
974.0,0.6043
975.0,0.6161
976.0,0.5988
977.0,0.6542
978.0,0.6328
979.0,0.6534
980.0,0.6211
981.0,0.7148
982.0,0.693
983.0,0.6713
984.0,0.7263
985.0,0.69
986.0,0.733
987.0,0.7247
988.0,0.7236
989.0,0.7271
990.0,0.7184
991.0,0.7301
992.0,0.7336
993.0,0.7235
994.0,0.7328
995.0,0.731
996.0,0.7288
997.0,0.7294
998.0,0.7263
999.0,0.7234
1000.0,0.7199
1001.0,0.7272
1002.0,0.7134
1003.0,0.7147
1004.0,0.6989
1005.0,0.6711
1006.0,0.6985
1007.0,0.7127
1008.0,0.71
1009.0,0.7075
1010.0,0.7052
1011.0,0.709
1012.0,0.7041
1013.0,0.707
1014.0,0.702
1015.0,0.6976
1016.0,0.6946
1017.0,0.6966
1018.0,0.6933
1019.0,0.6808
1020.0,0.69
1021.0,0.6887
1022.0,0.6842
1023.0,0.6917
1024.0,0.6851
1025.0,0.6904
1026.0,0.6881
1027.0,0.6864
1028.0,0.6852
1029.0,0.6773
1030.0,0.6811
1031.0,0.6787
1032.0,0.6765
1033.0,0.6664
1034.0,0.6663
1035.0,0.6684
1036.0,0.6722
1037.0,0.6612
1038.0,0.6642
1039.0,0.664
1040.0,0.6614
1041.0,0.6642
1042.0,0.6596
1043.0,0.6577
1044.0,0.6601
1045.0,0.6513
1046.0,0.6443
1047.0,0.6503
1048.0,0.654
1049.0,0.6519
1050.0,0.6491
1051.0,0.6484
1052.0,0.646
1053.0,0.6412
1054.0,0.6429
1055.0,0.6436
1056.0,0.6418
1057.0,0.6401
1058.0,0.6247
1059.0,0.6258
1060.0,0.625
1061.0,0.6245
1062.0,0.6282
1063.0,0.6223
1064.0,0.6295
1065.0,0.6259
1066.0,0.6128
1067.0,0.621
1068.0,0.6081
1069.0,0.5888
1070.0,0.6095
1071.0,0.6168
1072.0,0.6114
1073.0,0.6023
1074.0,0.6154
1075.0,0.5913
1076.0,0.6153
1077.0,0.6082
1078.0,0.598
1079.0,0.6045
1080.0,0.5991
1081.0,0.5828
1082.0,0.5866
1083.0,0.587
1084.0,0.5835
1085.0,0.5997
1086.0,0.5588
1087.0,0.5678
1088.0,0.5877
1089.0,0.576
1090.0,0.5683
1091.0,0.5877
1092.0,0.5847
1093.0,0.5163
1094.0,0.5374
1095.0,0.5342
1096.0,0.5179
1097.0,0.5708
1098.0,0.5116
1099.0,0.5304
1100.0,0.5031
1101.0,0.5064
1102.0,0.4891
1103.0,0.4886
1104.0,0.4888
1105.0,0.5204
1106.0,0.4344
1107.0,0.5014
1108.0,0.4473
1109.0,0.444
1110.0,0.4993
1111.0,0.3699
1112.0,0.4388
1113.0,0.313
1114.0,0.3447
1115.0,0.2869
1116.0,0.251
1117.0,0.1193
1118.0,0.2636
1119.0,0.1514
1120.0,0.1897
1121.0,0.238
1122.0,0.1184
1123.0,0.1711
1124.0,0.1447
1125.0,0.1838
1126.0,0.08263
1127.0,0.2056
1128.0,0.1427
1129.0,0.1477
1130.0,0.108
1131.0,0.3451
1132.0,0.2794
1133.0,0.2002
1134.0,0.06851
1135.0,0.02523
1136.0,0.1754
1137.0,0.3443
1138.0,0.2494
1139.0,0.3308
1140.0,0.2921
1141.0,0.237
1142.0,0.2633
1143.0,0.3567
1144.0,0.1477
1145.0,0.1922
1146.0,0.2075
1147.0,0.09322
1148.0,0.3091
1149.0,0.2602
1150.0,0.1591
1151.0,0.2478
1152.0,0.2895
1153.0,0.2711
1154.0,0.1921
1155.0,0.3456
1156.0,0.3189
1157.0,0.3478
1158.0,0.3431
1159.0,0.3594
1160.0,0.3212
1161.0,0.3722
1162.0,0.3755
1163.0,0.4697
1164.0,0.4169
1165.0,0.4053
1166.0,0.395
1167.0,0.4229
1168.0,0.4297
1169.0,0.4349
1170.0,0.4624
1171.0,0.453
1172.0,0.4557
1173.0,0.4615
1174.0,0.36
1175.0,0.4471
1176.0,0.4782
1177.0,0.4673
1178.0,0.3742
1179.0,0.4813
1180.0,0.4448
1181.0,0.457
1182.0,0.3405
1183.0,0.4465
1184.0,0.4267
1185.0,0.4185
1186.0,0.4731
1187.0,0.4576
1188.0,0.3475
1189.0,0.4283
1190.0,0.4626
1191.0,0.4504
1192.0,0.4677
1193.0,0.4525
1194.0,0.4634
1195.0,0.4461
1196.0,0.435
1197.0,0.4589
1198.0,0.427
1199.0,0.382
1200.0,0.4475
1201.0,0.4378
1202.0,0.4322
1203.0,0.4281
1204.0,0.386
1205.0,0.4367
1206.0,0.4714
1207.0,0.4326
1208.0,0.4203
1209.0,0.4275
1210.0,0.4411
1211.0,0.4274
1212.0,0.4293
1213.0,0.4596
1214.0,0.4357
1215.0,0.4296
1216.0,0.4579
1217.0,0.4494
1218.0,0.4545
1219.0,0.4505
1220.0,0.4546
1221.0,0.4571
1222.0,0.4476
1223.0,0.4448
1224.0,0.4444
1225.0,0.4543
1226.0,0.4552
1227.0,0.429
1228.0,0.4557
1229.0,0.4552
1230.0,0.4491
1231.0,0.4564
1232.0,0.4539
1233.0,0.4451
1234.0,0.4546
1235.0,0.4527
1236.0,0.4552
1237.0,0.4515
1238.0,0.4537
1239.0,0.4479
1240.0,0.4493
1241.0,0.4489
1242.0,0.4464
1243.0,0.4427
1244.0,0.4464
1245.0,0.4479
1246.0,0.4453
1247.0,0.444
1248.0,0.4446
1249.0,0.4452
1250.0,0.443
1251.0,0.4384
1252.0,0.4371
1253.0,0.436
1254.0,0.4334
1255.0,0.4373
1256.0,0.4294
1257.0,0.4279
1258.0,0.4325
1259.0,0.4236
1260.0,0.425
1261.0,0.4098
1262.0,0.4022
1263.0,0.4032
1264.0,0.3832
1265.0,0.4004
1266.0,0.3918
1267.0,0.3942
1268.0,0.381
1269.0,0.2889
1270.0,0.3945
1271.0,0.4074
1272.0,0.4077
1273.0,0.4044
1274.0,0.4044
1275.0,0.4086
1276.0,0.4109
1277.0,0.4117
1278.0,0.4159
1279.0,0.4125
1280.0,0.4071
1281.0,0.3869
1282.0,0.3701
1283.0,0.3992
1284.0,0.4093
1285.0,0.4116
1286.0,0.4156
1287.0,0.412
1288.0,0.4112
1289.0,0.4035
1290.0,0.4072
1291.0,0.4119
1292.0,0.3972
1293.0,0.4065
1294.0,0.4042
1295.0,0.4045
1296.0,0.393
1297.0,0.3775
1298.0,0.3954
1299.0,0.406
1300.0,0.363
1301.0,0.37
1302.0,0.3937
1303.0,0.3562
1304.0,0.3223
1305.0,0.3873
1306.0,0.3882
1307.0,0.3231
1308.0,0.354
1309.0,0.3863
1310.0,0.3177
1311.0,0.3435
1312.0,0.3371
1313.0,0.3333
1314.0,0.3054
1315.0,0.3054
1316.0,0.3409
1317.0,0.3252
1318.0,0.3457
1319.0,0.293
1320.0,0.279
1321.0,0.3169
1322.0,0.323
1323.0,0.2625
1324.0,0.2874
1325.0,0.3369
1326.0,0.3015
1327.0,0.2906
1328.0,0.257
1329.0,0.2096
1330.0,0.2637
1331.0,0.1813
1332.0,0.1795
1333.0,0.2426
1334.0,0.1989
1335.0,0.2608
1336.0,0.2167
1337.0,0.1992
1338.0,0.2136
1339.0,0.2102
1340.0,0.1995
1341.0,0.2062
1342.0,0.2159
1343.0,0.1738
1344.0,0.105
1345.0,0.1457
1346.0,0.09368
1347.0,0.09853
1348.0,0.01279
1349.0,0.03679
1350.0,0.03284
1351.0,0.01453
1352.0,0.006835
1353.0,0.0007543
1354.0,0.001679
1355.0,5.681e-05
1356.0,0.0003986
1357.0,0.0005854
1358.0,6.358e-05
1359.0,2.161e-05
1360.0,4.155e-05
1361.0,4.374e-07
1362.0,3.641e-09
1363.0,6.511e-05
1364.0,3.289e-05
1365.0,3.797e-09
1366.0,0.0002138
1367.0,8.469e-05
1368.0,2.815e-10
1369.0,1.363e-05
1370.0,1.012e-05
1371.0,1.064e-06
1372.0,4.806e-05
1373.0,0.0004517
1374.0,0.001283
1375.0,0.002174
1376.0,0.001482
1377.0,0.0007756
1378.0,0.005474
1379.0,0.0003442
1380.0,0.0006299
1381.0,2.502e-05
1382.0,4.836e-05
1383.0,1.255e-06
1384.0,1.774e-05
1385.0,2.998e-05
1386.0,5.597e-05
1387.0,0.001611
1388.0,4.143e-05
1389.0,0.003413
1390.0,0.002856
1391.0,0.002227
1392.0,0.0001927
1393.0,0.000752
1394.0,0.0007713
1395.0,1.194e-05
1396.0,4.782e-07
1397.0,0.0003705
1398.0,0.006247
1399.0,0.004065
1400.0,3.528e-07
1401.0,6.957e-07
1402.0,0.006313
1403.0,0.008688
1404.0,0.002809
1405.0,8.36e-06
1406.0,0.008388
1407.0,0.0007614
1408.0,0.006755
1409.0,0.003196
1410.0,0.002261
1411.0,0.007538
1412.0,0.008626
1413.0,0.04922
1414.0,0.001735
1415.0,0.001004
1416.0,0.06238
1417.0,0.02719
1418.0,0.03016
1419.0,0.005242
1420.0,0.01895
1421.0,0.02195
1422.0,0.07818
1423.0,0.01786
1424.0,0.03133
1425.0,0.04775
1426.0,0.0482
1427.0,0.07384
1428.0,0.01252
1429.0,0.0611
1430.0,0.09004
1431.0,0.09535
1432.0,0.0102
1433.0,0.06621
1434.0,0.03661
1435.0,0.04599
1436.0,0.07271
1437.0,0.05647
1438.0,0.02849
1439.0,0.09167
1440.0,0.07023
1441.0,0.06051
1442.0,0.06445
1443.0,0.07055
1444.0,0.09461
1445.0,0.08158
1446.0,0.03918
1447.0,0.06252
1448.0,0.1508
1449.0,0.1392
1450.0,0.04644
1451.0,0.02132
1452.0,0.0912
1453.0,0.1144
1454.0,0.1704
1455.0,0.09039
1456.0,0.1256
1457.0,0.152
1458.0,0.1646
1459.0,0.1966
1460.0,0.1112
1461.0,0.1218
1462.0,0.166
1463.0,0.06375
1464.0,0.1846
1465.0,0.1138
1466.0,0.09518
1467.0,0.05881
1468.0,0.1077
1469.0,0.1273
1470.0,0.07608
1471.0,0.03131
1472.0,0.07334
