interpolation:linear
wavelength,value
280.0,1.151e-25
280.5,4.912e-24
281.0,2.951e-23
281.5,1.2110000000000001e-21
282.0,1.1400000000000001e-20
282.5,4.892e-20
283.0,2.441e-19
283.5,4.894e-19
284.0,1.65e-17
284.5,6.428e-17
285.0,1.718e-16
285.5,1.541e-15
286.0,7.697e-15
286.5,5.018e-14
287.0,1.855e-13
287.5,9.611e-13
288.0,5.051e-12
288.5,2.176e-11
289.0,7.924e-11
289.5,3.228e-10
290.0,1.127e-09
290.5,2.771e-09
291.0,7.325e-09
291.5,2.679e-08
292.0,7.403e-08
292.5,1.169e-07
293.0,2.884e-07
293.5,8.364e-07
294.0,1.487e-06
294.5,2.736e-06
295.0,5.092e-06
295.5,1.319e-05
296.0,2.487e-05
296.5,3.385e-05
297.0,4.473e-05
297.5,0.0001148
298.0,0.0001738
298.5,0.0001693
299.0,0.0003608
299.5,0.0005579
300.0,0.0005905
300.5,0.0008195
301.0,0.001372
301.5,0.002031
302.0,0.001678
302.5,0.003217
303.0,0.005616
303.5,0.006935
304.0,0.006399
304.5,0.008992
305.0,0.01248
305.5,0.01355
306.0,0.0129
306.5,0.01555
307.0,0.02131
307.5,0.02625
308.0,0.02754
308.5,0.03143
309.0,0.02805
309.5,0.03139
310.0,0.03126
310.5,0.05056
311.0,0.06297
311.5,0.06078
312.0,0.05908
312.5,0.07058
313.0,0.076
313.5,0.07521
314.0,0.09167
314.5,0.07822
315.0,0.1026
315.5,0.08826
316.0,0.07468
316.5,0.1043
317.0,0.1303
317.5,0.1377
318.0,0.1055
318.5,0.1257
319.0,0.1464
319.5,0.1247
320.0,0.1524
320.5,0.1826
321.0,0.1562
321.5,0.1499
322.0,0.1686
322.5,0.1471
323.0,0.1427
323.5,0.1667
324.0,0.1945
324.5,0.2014
325.0,0.1822
325.5,0.2293
326.0,0.2726
326.5,0.2691
327.0,0.2715
327.5,0.2659
328.0,0.244
328.5,0.2499
329.0,0.2933
329.5,0.3319
330.0,0.3386
330.5,0.2776
331.0,0.2859
331.5,0.2878
332.0,0.3059
332.5,0.301
333.0,0.3033
333.5,0.2801
334.0,0.2889
334.5,0.329
335.0,0.3073
335.5,0.3498
336.0,0.243
336.5,0.2961
337.0,0.2458
337.5,0.3078
338.0,0.2975
338.5,0.3366
339.0,0.3364
339.5,0.3236
340.0,0.3903
340.5,0.3528
341.0,0.3393
341.5,0.3155
342.0,0.3793
342.5,0.3569
343.0,0.3923
343.5,0.3695
344.0,0.2777
344.5,0.2756
345.0,0.3702
345.5,0.3806
346.0,0.3253
346.5,0.3701
347.0,0.3975
347.5,0.3221
348.0,0.37
348.5,0.3719
349.0,0.3464
349.5,0.344
350.0,0.427
350.5,0.4519
351.0,0.4045
351.5,0.3925
352.0,0.4243
352.5,0.3329
353.0,0.4211
353.5,0.4521
354.0,0.4711
354.5,0.4794
355.0,0.4791
355.5,0.4342
356.0,0.4559
356.5,0.3905
357.0,0.3237
357.5,0.3976
358.0,0.3161
358.5,0.271
359.0,0.3802
359.5,0.4857
360.0,0.5165
360.5,0.4142
361.0,0.3787
361.5,0.4372
362.0,0.3791
362.5,0.526
363.0,0.4736
363.5,0.4374
364.0,0.5364
364.5,0.4597
365.0,0.4695
365.5,0.5908
366.0,0.6276
366.5,0.5912
367.0,0.5773
367.5,0.6007
368.0,0.527
368.5,0.5331
369.0,0.5772
369.5,0.6168
370.0,0.6592
370.5,0.5129
371.0,0.5494
371.5,0.6891
372.0,0.4585
372.5,0.5511
373.0,0.5619
373.5,0.3664
374.0,0.5337
374.5,0.443
375.0,0.4317
375.5,0.6461
376.0,0.5369
376.5,0.5577
377.0,0.5918
377.5,0.6939
378.0,0.754
378.5,0.7145
379.0,0.5911
379.5,0.5414
380.0,0.5642
380.5,0.6849
381.0,0.6879
381.5,0.5464
382.0,0.4863
382.5,0.4155
383.0,0.3855
383.5,0.372
384.0,0.4113
384.5,0.6062
385.0,0.6024
385.5,0.5621
386.0,0.4824
386.5,0.635
387.0,0.5288
387.5,0.5951
388.0,0.5506
388.5,0.5454
389.0,0.5899
389.5,0.7159
390.0,0.7199
390.5,0.6639
391.0,0.783
391.5,0.8002
392.0,0.6753
392.5,0.6057
393.0,0.3377
393.5,0.2459
394.0,0.5013
394.5,0.6384
395.0,0.7805
395.5,0.7943
396.0,0.69
396.5,0.404
397.0,0.3037
397.5,0.6189
398.0,0.8683
398.5,0.8991
399.0,0.975
399.5,0.9735
400.0,1.013
401.0,1.043
402.0,1.104
403.0,1.052
404.0,1.039
405.0,1.042
406.0,1.028
407.0,1.015
408.0,1.058
409.0,1.135
410.0,0.9944
411.0,1.08
412.0,1.163
413.0,1.137
414.0,1.154
415.0,1.16
416.0,1.184
417.0,1.158
418.0,1.139
419.0,1.157
420.0,1.155
421.0,1.211
422.0,1.154
423.0,1.13
424.0,1.199
425.0,1.199
426.0,1.17
427.0,1.151
428.0,1.124
429.0,1.067
430.0,0.9353
431.0,0.9294
432.0,1.202
433.0,1.212
434.0,1.128
435.0,1.18
436.0,1.332
437.0,1.316
438.0,1.201
439.0,1.245
440.0,1.287
441.0,1.336
442.0,1.435
443.0,1.401
444.0,1.434
445.0,1.406
446.0,1.343
447.0,1.454
448.0,1.481
449.0,1.488
450.0,1.532
451.0,1.592
452.0,1.536
453.0,1.447
454.0,1.513
455.0,1.525
456.0,1.564
457.0,1.592
458.0,1.541
459.0,1.536
460.0,1.542
461.0,1.58
462.0,1.594
463.0,1.586
464.0,1.561
465.0,1.543
466.0,1.559
467.0,1.534
468.0,1.554
469.0,1.565
470.0,1.517
471.0,1.517
472.0,1.601
473.0,1.583
474.0,1.588
475.0,1.604
476.0,1.56
477.0,1.567
478.0,1.612
479.0,1.604
480.0,1.609
481.0,1.64
482.0,1.65
483.0,1.631
484.0,1.6
485.0,1.525
486.0,1.335
487.0,1.4
488.0,1.538
489.0,1.545
490.0,1.627
491.0,1.6
492.0,1.512
493.0,1.564
494.0,1.581
495.0,1.596
496.0,1.608
497.0,1.634
498.0,1.56
499.0,1.582
500.0,1.538
501.0,1.512
502.0,1.494
503.0,1.557
504.0,1.523
505.0,1.576
506.0,1.629
507.0,1.551
508.0,1.503
509.0,1.546
510.0,1.538
511.0,1.58
512.0,1.599
513.0,1.515
514.0,1.505
515.0,1.492
516.0,1.489
517.0,1.324
518.0,1.394
519.0,1.463
520.0,1.518
521.0,1.534
522.0,1.537
523.0,1.51
524.0,1.566
525.0,1.587
526.0,1.517
527.0,1.432
528.0,1.516
529.0,1.6
530.0,1.578
531.0,1.603
532.0,1.549
533.0,1.505
534.0,1.55
535.0,1.585
536.0,1.6
537.0,1.538
538.0,1.566
539.0,1.554
540.0,1.491
541.0,1.503
542.0,1.551
543.0,1.535
544.0,1.564
545.0,1.56
546.0,1.568
547.0,1.568
548.0,1.55
549.0,1.555
550.0,1.575
551.0,1.557
552.0,1.568
553.0,1.541
554.0,1.579
555.0,1.584
556.0,1.564
557.0,1.517
558.0,1.507
559.0,1.48
560.0,1.5
561.0,1.521
562.0,1.511
563.0,1.554
564.0,1.513
565.0,1.502
566.0,1.481
567.0,1.51
568.0,1.499
569.0,1.468
570.0,1.468
571.0,1.459
572.0,1.497
573.0,1.514
574.0,1.51
575.0,1.484
576.0,1.471
577.0,1.487
578.0,1.465
579.0,1.47
580.0,1.496
581.0,1.503
582.0,1.53
583.0,1.533
584.0,1.547
585.0,1.509
586.0,1.479
587.0,1.513
588.0,1.481
589.0,1.321
590.0,1.381
591.0,1.457
592.0,1.442
593.0,1.461
594.0,1.453
595.0,1.42
596.0,1.47
597.0,1.457
598.0,1.451
599.0,1.452
600.0,1.454
601.0,1.441
602.0,1.432
603.0,1.455
604.0,1.48
605.0,1.472
606.0,1.466
607.0,1.48
608.0,1.464
609.0,1.466
610.0,1.456
611.0,1.464
612.0,1.459
613.0,1.441
614.0,1.422
615.0,1.452
616.0,1.405
617.0,1.402
618.0,1.456
619.0,1.442
620.0,1.451
621.0,1.454
622.0,1.438
623.0,1.417
624.0,1.392
625.0,1.39
626.0,1.411
627.0,1.428
628.0,1.352
629.0,1.402
630.0,1.37
631.0,1.396
632.0,1.379
633.0,1.418
634.0,1.403
635.0,1.425
636.0,1.405
637.0,1.428
638.0,1.441
639.0,1.424
640.0,1.41
641.0,1.409
642.0,1.402
643.0,1.421
644.0,1.416
645.0,1.42
646.0,1.389
647.0,1.377
648.0,1.38
649.0,1.354
650.0,1.355
651.0,1.412
652.0,1.361
653.0,1.394
654.0,1.379
655.0,1.331
656.0,1.177
657.0,1.209
658.0,1.354
659.0,1.363
660.0,1.368
661.0,1.378
662.0,1.383
663.0,1.355
664.0,1.37
665.0,1.37
666.0,1.371
667.0,1.369
668.0,1.369
669.0,1.391
670.0,1.385
671.0,1.384
672.0,1.373
673.0,1.393
674.0,1.388
675.0,1.376
676.0,1.385
677.0,1.371
678.0,1.375
679.0,1.353
680.0,1.364
681.0,1.355
682.0,1.354
683.0,1.352
684.0,1.345
685.0,1.357
686.0,1.349
687.0,0.9715
688.0,1.102
689.0,1.105
690.0,1.147
691.0,1.194
692.0,1.227
693.0,1.219
694.0,1.209
695.0,1.25
696.0,1.252
697.0,1.317
698.0,1.297
699.0,1.274
700.0,1.259
701.0,1.249
702.0,1.255
703.0,1.258
704.0,1.294
705.0,1.296
706.0,1.293
707.0,1.294
708.0,1.297
709.0,1.296
710.0,1.298
711.0,1.295
712.0,1.29
713.0,1.279
714.0,1.283
715.0,1.246
716.0,1.248
717.0,1.11
718.0,1.025
719.0,0.9423
720.0,0.9889
721.0,1.074
722.0,1.21
723.0,1.137
724.0,1.036
725.0,1.023
726.0,1.069
727.0,1.078
728.0,1.022
729.0,1.051
730.0,1.111
731.0,1.067
732.0,1.131
733.0,1.187
734.0,1.213
735.0,1.189
736.0,1.188
737.0,1.193
738.0,1.205
739.0,1.181
740.0,1.21
741.0,1.197
742.0,1.197
743.0,1.228
744.0,1.224
745.0,1.223
746.0,1.229
747.0,1.232
748.0,1.23
749.0,1.216
750.0,1.215
751.0,1.203
752.0,1.208
753.0,1.214
754.0,1.217
755.0,1.211
756.0,1.21
757.0,1.212
758.0,1.197
759.0,1.177
760.0,0.2732
761.0,0.1611
762.0,0.6795
763.0,0.3865
764.0,0.5392
765.0,0.6801
766.0,0.7981
767.0,0.9711
768.0,1.093
769.0,1.109
770.0,1.14
771.0,1.146
772.0,1.148
773.0,1.156
774.0,1.15
775.0,1.142
776.0,1.156
777.0,1.14
778.0,1.134
779.0,1.135
780.0,1.129
781.0,1.13
782.0,1.137
783.0,1.117
784.0,1.123
785.0,1.115
786.0,1.127
787.0,1.111
788.0,1.098
789.0,1.098
790.0,1.074
791.0,1.079
792.0,1.071
793.0,1.054
794.0,1.068
795.0,1.087
796.0,1.059
797.0,1.061
798.0,1.087
799.0,1.081
800.0,1.064
801.0,1.062
802.0,1.059
803.0,1.051
804.0,1.052
805.0,1.047
806.0,1.074
807.0,1.062
808.0,1.063
809.0,1.045
810.0,1.038
811.0,1.042
812.0,1.017
813.0,0.9982
814.0,0.8921
815.0,0.8863
816.0,0.8271
817.0,0.8406
818.0,0.8123
819.0,0.8961
820.0,0.8488
821.0,0.9756
822.0,0.9506
823.0,0.6732
824.0,0.9287
825.0,0.9599
826.0,0.9285
827.0,0.9746
828.0,0.8413
829.0,0.9221
830.0,0.9117
831.0,0.9145
832.0,0.8892
833.0,0.9384
834.0,0.9102
835.0,0.9894
836.0,0.9537
837.0,0.992
838.0,0.964
839.0,0.9765
840.0,0.9972
841.0,0.9844
842.0,0.9847
843.0,0.9823
844.0,0.9698
845.0,1.001
846.0,0.9966
847.0,0.9775
848.0,0.9724
849.0,0.9448
850.0,0.9052
851.0,0.9594
852.0,0.9523
853.0,0.916
854.0,0.7916
855.0,0.8689
856.0,0.95
857.0,0.9707
858.0,0.9638
859.0,0.9644
860.0,0.9659
861.0,0.9608
862.0,0.9758
863.0,0.999
864.0,0.949
865.0,0.9408
866.0,0.8459
867.0,0.8828
868.0,0.9608
869.0,0.9409
870.0,0.9677
871.0,0.9546
872.0,0.9513
873.0,0.9494
874.0,0.9382
875.0,0.9193
876.0,0.929
877.0,0.9384
878.0,0.9488
879.0,0.9342
880.0,0.9143
881.0,0.901
882.0,0.9207
883.0,0.9233
884.0,0.9192
885.0,0.9263
886.0,0.8843
887.0,0.8926
888.0,0.9065
889.0,0.9157
890.0,0.9095
891.0,0.9073
892.0,0.883
893.0,0.8579
894.0,0.8323
895.0,0.7923
896.0,0.7491
897.0,0.6514
898.0,0.7063
899.0,0.5471
900.0,0.7185
901.0,0.573
902.0,0.6597
903.0,0.6703
904.0,0.8265
905.0,0.8007
906.0,0.7515
907.0,0.6224
908.0,0.6331
909.0,0.6802
910.0,0.6116
911.0,0.6458
912.0,0.6729
913.0,0.6212
914.0,0.6142
915.0,0.6648
916.0,0.5659
917.0,0.7071
918.0,0.5806
919.0,0.7175
920.0,0.7198
921.0,0.7474
922.0,0.6754
923.0,0.7217
924.0,0.6927
925.0,0.6779
926.0,0.6853
927.0,0.7604
928.0,0.5773
929.0,0.5322
930.0,0.4265
931.0,0.4028
932.0,0.2985
933.0,0.2471
934.0,0.1451
935.0,0.2492
936.0,0.1616
937.0,0.1646
938.0,0.2
939.0,0.3905
940.0,0.464
941.0,0.358
942.0,0.4096
943.0,0.2756
944.0,0.2848
945.0,0.3679
946.0,0.1955
947.0,0.3716
948.0,0.2744
949.0,0.4892
950.0,0.1489
951.0,0.4803
952.0,0.269
953.0,0.3403
954.0,0.4094
955.0,0.3433
956.0,0.3295
957.0,0.2706
958.0,0.4557
959.0,0.3706
960.0,0.4151
961.0,0.4594
962.0,0.4356
963.0,0.4965
964.0,0.4568
965.0,0.494
966.0,0.4955
967.0,0.4939
968.0,0.6428
969.0,0.6728
970.0,0.6207
971.0,0.7019
972.0,0.6731
973.0,0.5947
974.0,0.5657
975.0,0.5839
976.0,0.5589
977.0,0.6272
978.0,0.5996
979.0,0.6252
980.0,0.5897
981.0,0.6978
982.0,0.6703
983.0,0.6454
984.0,0.7157
985.0,0.6678
986.0,0.7262
987.0,0.7143
988.0,0.713
989.0,0.7229
990.0,0.7086
991.0,0.7253
992.0,0.7293
993.0,0.7153
994.0,0.7289
995.0,0.7277
996.0,0.7249
997.0,0.7258
998.0,0.7225
999.0,0.7198
1000.0,0.7153
1001.0,0.7237
1002.0,0.7059
1003.0,0.7111
1004.0,0.6943
1005.0,0.6681
1006.0,0.6946
1007.0,0.7092
1008.0,0.7057
1009.0,0.7024
1010.0,0.6997
1011.0,0.7056
1012.0,0.6999
1013.0,0.7038
1014.0,0.6989
1015.0,0.6944
1016.0,0.6914
1017.0,0.6932
1018.0,0.6904
1019.0,0.6765
1020.0,0.6869
1021.0,0.6859
1022.0,0.6809
1023.0,0.6881
1024.0,0.68
1025.0,0.6874
1026.0,0.6847
1027.0,0.6831
1028.0,0.6818
1029.0,0.6738
1030.0,0.6782
1031.0,0.6756
1032.0,0.6736
1033.0,0.6635
1034.0,0.6635
1035.0,0.6656
1036.0,0.6692
1037.0,0.6583
1038.0,0.6612
1039.0,0.6609
1040.0,0.6583
1041.0,0.661
1042.0,0.6564
1043.0,0.6544
1044.0,0.6568
1045.0,0.6479
1046.0,0.6408
1047.0,0.6467
1048.0,0.6503
1049.0,0.648
1050.0,0.6452
1051.0,0.6444
1052.0,0.6418
1053.0,0.6368
1054.0,0.6383
1055.0,0.6388
1056.0,0.6367
1057.0,0.6349
1058.0,0.6194
1059.0,0.6202
1060.0,0.6194
1061.0,0.6187
1062.0,0.6221
1063.0,0.6161
1064.0,0.6233
1065.0,0.6192
1066.0,0.6067
1067.0,0.6147
1068.0,0.6015
1069.0,0.5827
1070.0,0.6028
1071.0,0.6114
1072.0,0.6049
1073.0,0.5961
1074.0,0.6107
1075.0,0.5824
1076.0,0.6104
1077.0,0.6008
1078.0,0.5899
1079.0,0.6003
1080.0,0.5916
1081.0,0.5737
1082.0,0.581
1083.0,0.5824
1084.0,0.5729
1085.0,0.5928
1086.0,0.5445
1087.0,0.5594
1088.0,0.5822
1089.0,0.5665
1090.0,0.5555
1091.0,0.5809
1092.0,0.579
1093.0,0.4974
1094.0,0.5306
1095.0,0.5173
1096.0,0.4973
1097.0,0.5656
1098.0,0.4902
1099.0,0.5103
1100.0,0.4773
1101.0,0.4824
1102.0,0.4625
1103.0,0.4593
1104.0,0.4598
1105.0,0.4993
1106.0,0.393
1107.0,0.4764
1108.0,0.4105
1109.0,0.41
1110.0,0.4731
1111.0,0.3299
1112.0,0.4063
1113.0,0.2681
1114.0,0.2985
1115.0,0.2478
1116.0,0.2036
1117.0,0.08121
1118.0,0.2194
1119.0,0.1139
1120.0,0.1436
1121.0,0.1874
1122.0,0.08325
1123.0,0.1296
1124.0,0.1094
1125.0,0.1415
1126.0,0.05366
1127.0,0.1593
1128.0,0.1
1129.0,0.1054
1130.0,0.07139
1131.0,0.2909
1132.0,0.2303
1133.0,0.1519
1134.0,0.04249
1135.0,0.01575
1136.0,0.1288
1137.0,0.2875
1138.0,0.2039
1139.0,0.2929
1140.0,0.2491
1141.0,0.1938
1142.0,0.2206
1143.0,0.3085
1144.0,0.1135
1145.0,0.1464
1146.0,0.1579
1147.0,0.06015
1148.0,0.2672
1149.0,0.2168
1150.0,0.1217
1151.0,0.2025
1152.0,0.2451
1153.0,0.2359
1154.0,0.1428
1155.0,0.3058
1156.0,0.2776
1157.0,0.3082
1158.0,0.3047
1159.0,0.3258
1160.0,0.2819
1161.0,0.3407
1162.0,0.3429
1163.0,0.4516
1164.0,0.3916
1165.0,0.3734
1166.0,0.3681
1167.0,0.3987
1168.0,0.404
1169.0,0.4121
1170.0,0.4444
1171.0,0.4339
1172.0,0.4397
1173.0,0.4435
1174.0,0.3263
1175.0,0.4317
1176.0,0.4699
1177.0,0.4542
1178.0,0.3485
1179.0,0.4735
1180.0,0.4279
1181.0,0.4411
1182.0,0.3124
1183.0,0.4332
1184.0,0.4087
1185.0,0.3967
1186.0,0.4624
1187.0,0.4429
1188.0,0.3185
1189.0,0.4132
1190.0,0.4519
1191.0,0.4333
1192.0,0.4577
1193.0,0.4401
1194.0,0.4526
1195.0,0.4311
1196.0,0.4171
1197.0,0.4512
1198.0,0.4151
1199.0,0.3599
1200.0,0.4349
1201.0,0.4218
1202.0,0.4179
1203.0,0.4146
1204.0,0.3664
1205.0,0.4257
1206.0,0.4664
1207.0,0.4176
1208.0,0.409
1209.0,0.4169
1210.0,0.4327
1211.0,0.4148
1212.0,0.4128
1213.0,0.4526
1214.0,0.4212
1215.0,0.4139
1216.0,0.451
1217.0,0.4404
1218.0,0.4475
1219.0,0.4426
1220.0,0.4478
1221.0,0.4515
1222.0,0.4406
1223.0,0.437
1224.0,0.4353
1225.0,0.4487
1226.0,0.4508
1227.0,0.4194
1228.0,0.4524
1229.0,0.4509
1230.0,0.4439
1231.0,0.4543
1232.0,0.4517
1233.0,0.439
1234.0,0.4533
1235.0,0.4509
1236.0,0.4538
1237.0,0.4487
1238.0,0.4523
1239.0,0.4465
1240.0,0.4481
1241.0,0.4467
1242.0,0.4451
1243.0,0.4415
1244.0,0.4448
1245.0,0.4466
1246.0,0.444
1247.0,0.4425
1248.0,0.4425
1249.0,0.4436
1250.0,0.4411
1251.0,0.4359
1252.0,0.4354
1253.0,0.4329
1254.0,0.4293
1255.0,0.4352
1256.0,0.4248
1257.0,0.4228
1258.0,0.4293
1259.0,0.4166
1260.0,0.4184
1261.0,0.3984
1262.0,0.3883
1263.0,0.3891
1264.0,0.3635
1265.0,0.3866
1266.0,0.3745
1267.0,0.3793
1268.0,0.3626
1269.0,0.2441
1270.0,0.3787
1271.0,0.3967
1272.0,0.3976
1273.0,0.3938
1274.0,0.3945
1275.0,0.3996
1276.0,0.4027
1277.0,0.4046
1278.0,0.411
1279.0,0.4074
1280.0,0.4022
1281.0,0.3831
1282.0,0.3681
1283.0,0.3966
1284.0,0.4064
1285.0,0.4089
1286.0,0.4138
1287.0,0.4085
1288.0,0.4081
1289.0,0.3974
1290.0,0.4044
1291.0,0.4097
1292.0,0.3889
1293.0,0.4027
1294.0,0.4001
1295.0,0.3992
1296.0,0.3837
1297.0,0.3651
1298.0,0.3888
1299.0,0.4028
1300.0,0.3482
1301.0,0.3574
1302.0,0.3874
1303.0,0.3428
1304.0,0.2991
1305.0,0.38
1306.0,0.3805
1307.0,0.3032
1308.0,0.3423
1309.0,0.3781
1310.0,0.2978
1311.0,0.3297
1312.0,0.3219
1313.0,0.3167
1314.0,0.2859
1315.0,0.2837
1316.0,0.3256
1317.0,0.3092
1318.0,0.3333
1319.0,0.2685
1320.0,0.2584
1321.0,0.2983
1322.0,0.3024
1323.0,0.2341
1324.0,0.2633
1325.0,0.3214
1326.0,0.28
1327.0,0.2681
1328.0,0.2333
1329.0,0.1807
1330.0,0.2324
1331.0,0.1469
1332.0,0.1494
1333.0,0.2063
1334.0,0.1719
1335.0,0.2332
1336.0,0.1878
1337.0,0.168
1338.0,0.1816
1339.0,0.1799
1340.0,0.1733
1341.0,0.1731
1342.0,0.1815
1343.0,0.1311
1344.0,0.07819
1345.0,0.112
1346.0,0.06111
1347.0,0.06306
1348.0,0.005197
1349.0,0.01739
1350.0,0.01719
1351.0,0.005169
1352.0,0.001743
1353.0,0.0001153
1354.0,0.0003381
1355.0,4.584e-06
1356.0,5.756e-05
1357.0,8.695e-05
1358.0,5.317e-06
1359.0,9.82e-07
1360.0,2.788e-06
1361.0,7.113e-09
1362.0,2.821e-11
1363.0,4.162e-06
1364.0,1.791e-06
1365.0,1.531e-11
1366.0,1.641e-05
1367.0,6.389e-06
1368.0,2.832e-13
1369.0,6.875e-07
1370.0,3.98e-07
1371.0,2.788e-08
1372.0,3.525e-06
1373.0,5.444e-05
1374.0,0.0002115
1375.0,0.0003835
1376.0,0.0003016
1377.0,0.0001442
1378.0,0.001288
1379.0,6.124e-05
1380.0,9.785e-05
1381.0,2.89e-06
1382.0,3.325e-06
1383.0,5.88e-08
1384.0,8.27e-07
1385.0,2.639e-06
1386.0,3.304e-06
1387.0,0.0002417
1388.0,4.939e-06
1389.0,0.0006785
1390.0,0.0005832
1391.0,0.0004067
1392.0,2.849e-05
1393.0,0.0001366
1394.0,9.32e-05
1395.0,8.614e-07
1396.0,9.199e-09
1397.0,5.858e-05
1398.0,0.001469
1399.0,0.0009315
1400.0,4.908e-09
1401.0,1.53e-08
1402.0,0.002054
1403.0,0.002691
1404.0,0.0008366
1405.0,4.819e-07
1406.0,0.002334
1407.0,0.0001992
1408.0,0.001888
1409.0,0.0007232
1410.0,0.0005379
1411.0,0.002349
1412.0,0.002978
1413.0,0.02531
1414.0,0.0004183
1415.0,0.0002142
1416.0,0.03767
1417.0,0.01272
1418.0,0.0146
1419.0,0.002333
1420.0,0.008989
1421.0,0.009791
1422.0,0.04878
1423.0,0.009817
1424.0,0.01808
1425.0,0.02706
1426.0,0.02952
1427.0,0.05152
1428.0,0.004969
1429.0,0.03974
1430.0,0.06476
1431.0,0.07039
1432.0,0.003949
1433.0,0.04581
1434.0,0.02382
1435.0,0.02558
1436.0,0.04657
1437.0,0.0357
1438.0,0.01586
1439.0,0.0621
1440.0,0.04666
1441.0,0.03688
1442.0,0.04065
1443.0,0.04904
1444.0,0.06705
1445.0,0.05407
1446.0,0.02482
1447.0,0.03903
1448.0,0.1207
1449.0,0.1064
1450.0,0.02888
1451.0,0.01199
1452.0,0.06552
1453.0,0.08514
1454.0,0.1408
1455.0,0.06838
1456.0,0.09271
1457.0,0.1213
1458.0,0.14
1459.0,0.166
1460.0,0.08803
1461.0,0.09324
1462.0,0.1342
1463.0,0.04506
1464.0,0.1566
1465.0,0.09484
