interpolation:linear
wavelength,value
280.0,2.1560000000000003e-28
280.5,1.371e-26
281.0,9.532e-26
281.5,5.756e-24
282.0,6.847e-23
282.5,3.4429999999999997e-22
283.0,2.045e-21
283.5,4.47e-21
284.0,2.254e-19
284.5,1.056e-18
285.0,3.441e-18
285.5,3.9e-17
286.0,2.141e-16
286.5,1.695e-15
287.0,7.233e-15
287.5,4.524e-14
288.0,3.014e-13
288.5,1.473e-12
289.0,6.105e-12
289.5,2.869e-11
290.0,1.126e-10
290.5,3.053e-10
291.0,9.078e-10
291.5,3.857e-09
292.0,1.204e-08
292.5,2.037e-08
293.0,5.487e-08
293.5,1.794e-07
294.0,3.458e-07
294.5,6.767e-07
295.0,1.36e-06
295.5,3.876e-06
296.0,7.796e-06
296.5,1.129e-05
297.0,1.567e-05
297.5,4.308e-05
298.0,6.892e-05
298.5,6.995e-05
299.0,0.0001549
299.5,0.0002547
300.0,0.0002784
300.5,0.0003988
301.0,0.0006986
301.5,0.001073
302.0,0.0009026
302.5,0.001786
303.0,0.003241
303.5,0.004093
304.0,0.003818
304.5,0.005505
305.0,0.007899
305.5,0.008749
306.0,0.008399
306.5,0.01026
307.0,0.01441
307.5,0.01815
308.0,0.01914
308.5,0.02208
309.0,0.01988
309.5,0.02277
310.0,0.02293
310.5,0.0373
311.0,0.04687
311.5,0.04544
312.0,0.04492
312.5,0.05425
313.0,0.05878
313.5,0.05797
314.0,0.07154
314.5,0.06197
315.0,0.08155
315.5,0.06979
316.0,0.05978
316.5,0.0843
317.0,0.1054
317.5,0.1113
318.0,0.08585
318.5,0.1035
319.0,0.1213
319.5,0.1026
320.0,0.1253
320.5,0.1519
321.0,0.1311
321.5,0.126
322.0,0.1407
322.5,0.1229
323.0,0.12
323.5,0.1417
324.0,0.1657
324.5,0.1712
325.0,0.154
325.5,0.1949
326.0,0.2334
326.5,0.2314
327.0,0.2334
327.5,0.2284
328.0,0.2086
328.5,0.2153
329.0,0.254
329.5,0.288
330.0,0.2937
330.5,0.2403
331.0,0.2474
331.5,0.2499
332.0,0.2667
332.5,0.263
333.0,0.265
333.5,0.2443
334.0,0.2522
334.5,0.2881
335.0,0.2697
335.5,0.3075
336.0,0.2138
336.5,0.2604
337.0,0.2161
337.5,0.2707
338.0,0.2623
338.5,0.2973
339.0,0.2974
339.5,0.2863
340.0,0.3452
340.5,0.3123
341.0,0.3008
341.5,0.2801
342.0,0.3369
342.5,0.3173
343.0,0.3489
343.5,0.3288
344.0,0.247
344.5,0.2455
345.0,0.3302
345.5,0.3398
346.0,0.2907
346.5,0.331
347.0,0.3556
347.5,0.2883
348.0,0.3315
348.5,0.3334
349.0,0.3108
349.5,0.3089
350.0,0.3837
350.5,0.4063
351.0,0.3639
351.5,0.3532
352.0,0.3822
352.5,0.3001
353.0,0.3798
353.5,0.408
354.0,0.4254
354.5,0.433
355.0,0.433
355.5,0.3928
356.0,0.4126
356.5,0.3536
357.0,0.2932
357.5,0.3604
358.0,0.2867
358.5,0.2459
359.0,0.3451
359.5,0.441
360.0,0.4693
360.5,0.3765
361.0,0.3445
361.5,0.398
362.0,0.3453
362.5,0.4794
363.0,0.432
363.5,0.3992
364.0,0.4898
364.5,0.42
365.0,0.4291
365.5,0.5403
366.0,0.5743
366.5,0.5413
367.0,0.5288
367.5,0.5505
368.0,0.4832
368.5,0.489
369.0,0.5297
369.5,0.5664
370.0,0.6056
370.5,0.4714
371.0,0.5052
371.5,0.6339
372.0,0.422
372.5,0.5074
373.0,0.5176
373.5,0.3377
374.0,0.4921
374.5,0.4087
375.0,0.3984
375.5,0.5965
376.0,0.4959
376.5,0.5153
377.0,0.547
377.5,0.6417
378.0,0.6975
378.5,0.6612
379.0,0.5472
379.5,0.5013
380.0,0.5227
380.5,0.6348
381.0,0.6378
381.5,0.5069
382.0,0.4514
382.5,0.3858
383.0,0.3581
383.5,0.3458
384.0,0.3824
384.5,0.5638
385.0,0.5605
385.5,0.5233
386.0,0.4493
386.5,0.5916
387.0,0.4928
387.5,0.5549
388.0,0.5136
388.5,0.5089
389.0,0.5506
389.5,0.6685
390.0,0.6725
390.5,0.6203
391.0,0.7319
391.5,0.7482
392.0,0.6317
392.5,0.5668
393.0,0.3161
393.5,0.2303
394.0,0.4696
394.5,0.5983
395.0,0.7316
395.5,0.7448
396.0,0.6471
396.5,0.3791
397.0,0.2851
397.5,0.5811
398.0,0.8155
398.5,0.8446
399.0,0.9164
399.5,0.9152
400.0,0.9523
401.0,0.9817
402.0,1.04
403.0,0.9914
404.0,0.9797
405.0,0.9831
406.0,0.9706
407.0,0.9584
408.0,0.9994
409.0,1.073
410.0,0.9407
411.0,1.022
412.0,1.101
413.0,1.078
414.0,1.094
415.0,1.101
416.0,1.123
417.0,1.099
418.0,1.082
419.0,1.1
420.0,1.098
421.0,1.153
422.0,1.099
423.0,1.076
424.0,1.142
425.0,1.143
426.0,1.116
427.0,1.098
428.0,1.073
429.0,1.019
430.0,0.8936
431.0,0.8882
432.0,1.15
433.0,1.159
434.0,1.079
435.0,1.13
436.0,1.276
437.0,1.261
438.0,1.151
439.0,1.193
440.0,1.234
441.0,1.282
442.0,1.378
443.0,1.345
444.0,1.377
445.0,1.35
446.0,1.291
447.0,1.399
448.0,1.424
449.0,1.432
450.0,1.475
451.0,1.533
452.0,1.48
453.0,1.395
454.0,1.458
455.0,1.47
456.0,1.508
457.0,1.536
458.0,1.487
459.0,1.482
460.0,1.489
461.0,1.526
462.0,1.54
463.0,1.532
464.0,1.509
465.0,1.492
466.0,1.509
467.0,1.484
468.0,1.504
469.0,1.515
470.0,1.469
471.0,1.469
472.0,1.55
473.0,1.533
474.0,1.538
475.0,1.554
476.0,1.51
477.0,1.517
478.0,1.562
479.0,1.555
480.0,1.56
481.0,1.591
482.0,1.601
483.0,1.584
484.0,1.553
485.0,1.482
486.0,1.297
487.0,1.361
488.0,1.495
489.0,1.502
490.0,1.582
491.0,1.556
492.0,1.472
493.0,1.522
494.0,1.539
495.0,1.554
496.0,1.565
497.0,1.592
498.0,1.519
499.0,1.541
500.0,1.498
501.0,1.473
502.0,1.455
503.0,1.516
504.0,1.482
505.0,1.535
506.0,1.586
507.0,1.511
508.0,1.465
509.0,1.507
510.0,1.5
511.0,1.541
512.0,1.56
513.0,1.478
514.0,1.469
515.0,1.456
516.0,1.454
517.0,1.293
518.0,1.361
519.0,1.429
520.0,1.482
521.0,1.498
522.0,1.501
523.0,1.475
524.0,1.53
525.0,1.55
526.0,1.482
527.0,1.398
528.0,1.48
529.0,1.562
530.0,1.541
531.0,1.565
532.0,1.513
533.0,1.47
534.0,1.514
535.0,1.548
536.0,1.564
537.0,1.503
538.0,1.531
539.0,1.519
540.0,1.458
541.0,1.469
542.0,1.516
543.0,1.501
544.0,1.529
545.0,1.525
546.0,1.533
547.0,1.533
548.0,1.516
549.0,1.521
550.0,1.541
551.0,1.523
552.0,1.535
553.0,1.508
554.0,1.545
555.0,1.55
556.0,1.531
557.0,1.484
558.0,1.475
559.0,1.448
560.0,1.468
561.0,1.488
562.0,1.479
563.0,1.52
564.0,1.48
565.0,1.469
566.0,1.448
567.0,1.477
568.0,1.466
569.0,1.433
570.0,1.434
571.0,1.425
572.0,1.462
573.0,1.478
574.0,1.474
575.0,1.448
576.0,1.436
577.0,1.452
578.0,1.43
579.0,1.436
580.0,1.463
581.0,1.47
582.0,1.498
583.0,1.502
584.0,1.515
585.0,1.478
586.0,1.449
587.0,1.482
588.0,1.449
589.0,1.288
590.0,1.348
591.0,1.424
592.0,1.408
593.0,1.428
594.0,1.42
595.0,1.387
596.0,1.439
597.0,1.425
598.0,1.421
599.0,1.422
600.0,1.424
601.0,1.412
602.0,1.403
603.0,1.427
604.0,1.451
605.0,1.444
606.0,1.438
607.0,1.453
608.0,1.437
609.0,1.44
610.0,1.429
611.0,1.437
612.0,1.433
613.0,1.416
614.0,1.397
615.0,1.427
616.0,1.38
617.0,1.378
618.0,1.431
619.0,1.417
620.0,1.427
621.0,1.429
622.0,1.413
623.0,1.392
624.0,1.369
625.0,1.366
626.0,1.387
627.0,1.403
628.0,1.32
629.0,1.374
630.0,1.343
631.0,1.371
632.0,1.355
633.0,1.395
634.0,1.381
635.0,1.402
636.0,1.384
637.0,1.407
638.0,1.42
639.0,1.404
640.0,1.39
641.0,1.39
642.0,1.383
643.0,1.402
644.0,1.398
645.0,1.401
646.0,1.37
647.0,1.356
648.0,1.358
649.0,1.332
650.0,1.336
651.0,1.394
652.0,1.34
653.0,1.376
654.0,1.361
655.0,1.312
656.0,1.162
657.0,1.194
658.0,1.337
659.0,1.347
660.0,1.352
661.0,1.362
662.0,1.366
663.0,1.339
664.0,1.354
665.0,1.355
666.0,1.356
667.0,1.355
668.0,1.356
669.0,1.377
670.0,1.371
671.0,1.371
672.0,1.359
673.0,1.38
674.0,1.375
675.0,1.363
676.0,1.372
677.0,1.359
678.0,1.363
679.0,1.341
680.0,1.352
681.0,1.343
682.0,1.342
683.0,1.34
684.0,1.333
685.0,1.345
686.0,1.337
687.0,0.9259
688.0,1.067
689.0,1.071
690.0,1.117
691.0,1.169
692.0,1.207
693.0,1.198
694.0,1.188
695.0,1.233
696.0,1.235
697.0,1.305
698.0,1.285
699.0,1.258
700.0,1.244
701.0,1.232
702.0,1.24
703.0,1.242
704.0,1.28
705.0,1.282
706.0,1.28
707.0,1.281
708.0,1.284
709.0,1.285
710.0,1.286
711.0,1.284
712.0,1.28
713.0,1.268
714.0,1.273
715.0,1.234
716.0,1.235
717.0,1.086
718.0,0.9998
719.0,0.9177
720.0,0.9623
721.0,1.054
722.0,1.196
723.0,1.119
724.0,1.014
725.0,0.9997
726.0,1.046
727.0,1.058
728.0,0.9983
729.0,1.031
730.0,1.091
731.0,1.045
732.0,1.113
733.0,1.173
734.0,1.2
735.0,1.176
736.0,1.175
737.0,1.18
738.0,1.195
739.0,1.172
740.0,1.201
741.0,1.189
742.0,1.19
743.0,1.22
744.0,1.216
745.0,1.217
746.0,1.222
747.0,1.225
748.0,1.223
749.0,1.209
750.0,1.209
751.0,1.196
752.0,1.202
753.0,1.208
754.0,1.211
755.0,1.204
756.0,1.204
757.0,1.206
758.0,1.191
759.0,1.169
760.0,0.2293
761.0,0.1273
762.0,0.635
763.0,0.3378
764.0,0.4899
765.0,0.6354
766.0,0.7632
767.0,0.9462
768.0,1.079
769.0,1.098
770.0,1.132
771.0,1.14
772.0,1.142
773.0,1.15
774.0,1.145
775.0,1.136
776.0,1.15
777.0,1.135
778.0,1.129
779.0,1.13
780.0,1.123
781.0,1.125
782.0,1.132
783.0,1.112
784.0,1.118
785.0,1.11
786.0,1.122
787.0,1.104
788.0,1.091
789.0,1.091
790.0,1.064
791.0,1.072
792.0,1.064
793.0,1.047
794.0,1.063
795.0,1.081
796.0,1.051
797.0,1.053
798.0,1.081
799.0,1.075
800.0,1.057
801.0,1.054
802.0,1.051
803.0,1.044
804.0,1.045
805.0,1.041
806.0,1.069
807.0,1.057
808.0,1.057
809.0,1.039
810.0,1.031
811.0,1.034
812.0,1.006
813.0,0.9867
814.0,0.8748
815.0,0.8693
816.0,0.8102
817.0,0.8243
818.0,0.795
819.0,0.8832
820.0,0.8341
821.0,0.9672
822.0,0.9409
823.0,0.6525
824.0,0.9164
825.0,0.9512
826.0,0.9176
827.0,0.9658
828.0,0.826
829.0,0.9118
830.0,0.9006
831.0,0.9037
832.0,0.8773
833.0,0.9298
834.0,0.8993
835.0,0.9831
836.0,0.9442
837.0,0.9859
838.0,0.9566
839.0,0.9709
840.0,0.9919
841.0,0.9785
842.0,0.9798
843.0,0.9785
844.0,0.9655
845.0,0.9975
846.0,0.9931
847.0,0.9744
848.0,0.9688
849.0,0.9414
850.0,0.902
851.0,0.9555
852.0,0.9487
853.0,0.9129
854.0,0.7886
855.0,0.8661
856.0,0.9467
857.0,0.9677
858.0,0.9607
859.0,0.9615
860.0,0.9632
861.0,0.958
862.0,0.9731
863.0,0.9962
864.0,0.9464
865.0,0.9382
866.0,0.8436
867.0,0.8805
868.0,0.9582
869.0,0.9384
870.0,0.9652
871.0,0.9521
872.0,0.9488
873.0,0.947
874.0,0.9358
875.0,0.9169
876.0,0.9266
877.0,0.936
878.0,0.9463
879.0,0.9318
880.0,0.9119
881.0,0.8984
882.0,0.918
883.0,0.9208
884.0,0.9167
885.0,0.9237
886.0,0.881
887.0,0.89
888.0,0.9034
889.0,0.9133
890.0,0.9063
891.0,0.9045
892.0,0.8792
893.0,0.8527
894.0,0.8245
895.0,0.7814
896.0,0.7372
897.0,0.6363
898.0,0.6927
899.0,0.5306
900.0,0.7075
901.0,0.556
902.0,0.6478
903.0,0.6558
904.0,0.8189
905.0,0.7917
906.0,0.7418
907.0,0.6072
908.0,0.6186
909.0,0.6681
910.0,0.5945
911.0,0.6315
912.0,0.6594
913.0,0.6036
914.0,0.5979
915.0,0.6478
916.0,0.5495
917.0,0.6934
918.0,0.5636
919.0,0.7051
920.0,0.7105
921.0,0.7386
922.0,0.6629
923.0,0.7134
924.0,0.6797
925.0,0.665
926.0,0.6723
927.0,0.7503
928.0,0.5571
929.0,0.5103
930.0,0.4036
931.0,0.3821
932.0,0.2777
933.0,0.227
934.0,0.1271
935.0,0.2313
936.0,0.1461
937.0,0.1483
938.0,0.1817
939.0,0.3704
940.0,0.4439
941.0,0.3373
942.0,0.3892
943.0,0.2578
944.0,0.27
945.0,0.3475
946.0,0.1791
947.0,0.3496
948.0,0.2573
949.0,0.4658
950.0,0.1328
951.0,0.4583
952.0,0.2492
953.0,0.3199
954.0,0.3902
955.0,0.3234
956.0,0.3129
957.0,0.2499
958.0,0.4405
959.0,0.3522
960.0,0.3947
961.0,0.4414
962.0,0.4178
963.0,0.4802
964.0,0.4404
965.0,0.4783
966.0,0.4787
967.0,0.4768
968.0,0.6341
969.0,0.6627
970.0,0.6094
971.0,0.6953
972.0,0.6656
973.0,0.5818
974.0,0.5526
975.0,0.5728
976.0,0.5451
977.0,0.6179
978.0,0.588
979.0,0.6152
980.0,0.5789
981.0,0.6915
982.0,0.662
983.0,0.6361
984.0,0.7116
985.0,0.6596
986.0,0.7236
987.0,0.7102
988.0,0.7089
989.0,0.7212
990.0,0.7046
991.0,0.7235
992.0,0.7276
993.0,0.7121
994.0,0.7274
995.0,0.7265
996.0,0.7234
997.0,0.7244
998.0,0.7211
999.0,0.7184
1000.0,0.7135
1001.0,0.7223
1002.0,0.703
1003.0,0.7097
1004.0,0.6925
1005.0,0.6669
1006.0,0.6931
1007.0,0.7078
1008.0,0.7041
1009.0,0.7004
1010.0,0.6976
1011.0,0.7043
1012.0,0.6983
1013.0,0.7026
1014.0,0.6977
1015.0,0.6932
1016.0,0.6901
1017.0,0.6919
1018.0,0.6892
1019.0,0.6748
1020.0,0.6857
1021.0,0.6847
1022.0,0.6795
1023.0,0.6868
1024.0,0.6781
1025.0,0.6863
1026.0,0.6834
1027.0,0.6819
1028.0,0.6805
1029.0,0.6725
1030.0,0.677
1031.0,0.6744
1032.0,0.6724
1033.0,0.6623
1034.0,0.6624
1035.0,0.6645
1036.0,0.668
1037.0,0.6571
1038.0,0.6601
1039.0,0.6597
1040.0,0.6571
1041.0,0.6597
1042.0,0.6552
1043.0,0.6531
1044.0,0.6554
1045.0,0.6466
1046.0,0.6395
1047.0,0.6453
1048.0,0.6488
1049.0,0.6465
1050.0,0.6436
1051.0,0.6428
1052.0,0.6402
1053.0,0.6351
1054.0,0.6365
1055.0,0.637
1056.0,0.6348
1057.0,0.6329
1058.0,0.6173
1059.0,0.6181
1060.0,0.6171
1061.0,0.6165
1062.0,0.6197
1063.0,0.6137
1064.0,0.6209
1065.0,0.6166
1066.0,0.6043
1067.0,0.6122
1068.0,0.5989
1069.0,0.5804
1070.0,0.6001
1071.0,0.6093
1072.0,0.6024
1073.0,0.5937
1074.0,0.6089
1075.0,0.579
1076.0,0.6085
1077.0,0.5979
1078.0,0.5867
1079.0,0.5987
1080.0,0.5888
1081.0,0.5702
1082.0,0.5789
1083.0,0.5806
1084.0,0.5689
1085.0,0.5901
1086.0,0.5394
1087.0,0.5561
1088.0,0.5801
1089.0,0.5629
1090.0,0.5509
1091.0,0.5784
1092.0,0.5769
1093.0,0.4907
1094.0,0.528
1095.0,0.5111
1096.0,0.4898
1097.0,0.5636
1098.0,0.4824
1099.0,0.503
1100.0,0.4682
1101.0,0.4739
1102.0,0.4531
1103.0,0.449
1104.0,0.4495
1105.0,0.4917
1106.0,0.3788
1107.0,0.4675
1108.0,0.3979
1109.0,0.3983
1110.0,0.4637
1111.0,0.3167
1112.0,0.3952
1113.0,0.2537
1114.0,0.2833
1115.0,0.235
1116.0,0.1888
1117.0,0.07064
1118.0,0.2051
1119.0,0.1028
1120.0,0.1294
1121.0,0.1711
1122.0,0.07287
1123.0,0.1169
1124.0,0.09871
1125.0,0.1285
1126.0,0.04555
1127.0,0.1449
1128.0,0.08757
1129.0,0.0928
1130.0,0.0614
1131.0,0.2727
1132.0,0.2143
1133.0,0.137
1134.0,0.03564
1135.0,0.01333
1136.0,0.1147
1137.0,0.2682
1138.0,0.1892
1139.0,0.28
1140.0,0.2348
1141.0,0.1798
1142.0,0.2064
1143.0,0.2921
1144.0,0.1032
1145.0,0.1321
1146.0,0.1425
1147.0,0.05095
1148.0,0.2529
1149.0,0.2026
1150.0,0.1109
1151.0,0.1878
1152.0,0.2304
1153.0,0.2239
1154.0,0.1282
1155.0,0.2921
1156.0,0.2636
1157.0,0.295
1158.0,0.2918
1159.0,0.3141
1160.0,0.2692
1161.0,0.33
1162.0,0.3318
1163.0,0.4448
1164.0,0.3828
1165.0,0.3623
1166.0,0.3589
1167.0,0.3903
1168.0,0.3949
1169.0,0.4038
1170.0,0.4378
1171.0,0.4271
1172.0,0.4341
1173.0,0.4369
1174.0,0.3152
1175.0,0.4263
1176.0,0.4669
1177.0,0.4494
1178.0,0.3401
1179.0,0.4707
1180.0,0.422
1181.0,0.4353
1182.0,0.3033
1183.0,0.4283
1184.0,0.4023
1185.0,0.3891
1186.0,0.4584
1187.0,0.4376
1188.0,0.3087
1189.0,0.4078
1190.0,0.448
1191.0,0.427
1192.0,0.4541
1193.0,0.4357
1194.0,0.4487
1195.0,0.4256
1196.0,0.4106
1197.0,0.4483
1198.0,0.4111
1199.0,0.3523
1200.0,0.4304
1201.0,0.416
1202.0,0.4131
1203.0,0.4097
1204.0,0.3598
1205.0,0.4219
1206.0,0.4645
1207.0,0.4123
1208.0,0.405
1209.0,0.4131
1210.0,0.4297
1211.0,0.4104
1212.0,0.4067
1213.0,0.4499
1214.0,0.4158
1215.0,0.4082
1216.0,0.4484
1217.0,0.4371
1218.0,0.4448
1219.0,0.4396
1220.0,0.4452
1221.0,0.4493
1222.0,0.438
1223.0,0.4342
1224.0,0.4319
1225.0,0.4465
1226.0,0.4492
1227.0,0.4158
1228.0,0.4511
1229.0,0.4492
1230.0,0.4419
1231.0,0.4535
1232.0,0.4508
1233.0,0.4366
1234.0,0.4528
1235.0,0.4502
1236.0,0.4533
1237.0,0.4475
1238.0,0.4518
1239.0,0.446
1240.0,0.4476
1241.0,0.4458
1242.0,0.4446
1243.0,0.441
1244.0,0.4442
1245.0,0.4461
1246.0,0.4435
1247.0,0.4418
1248.0,0.4417
1249.0,0.4429
1250.0,0.4404
1251.0,0.4349
1252.0,0.4347
1253.0,0.4317
1254.0,0.4277
1255.0,0.4344
1256.0,0.423
1257.0,0.4209
1258.0,0.4281
1259.0,0.4138
1260.0,0.4158
1261.0,0.394
1262.0,0.383
1263.0,0.3837
1264.0,0.356
1265.0,0.3813
1266.0,0.3679
1267.0,0.3737
1268.0,0.3556
1269.0,0.2284
1270.0,0.3726
1271.0,0.3925
1272.0,0.3937
1273.0,0.3896
1274.0,0.3907
1275.0,0.3961
1276.0,0.3996
1277.0,0.4019
1278.0,0.409
1279.0,0.4054
1280.0,0.4003
1281.0,0.3816
1282.0,0.3673
1283.0,0.3957
1284.0,0.4052
1285.0,0.4078
1286.0,0.4131
1287.0,0.4072
1288.0,0.407
1289.0,0.395
1290.0,0.4033
1291.0,0.4088
1292.0,0.3858
1293.0,0.4013
1294.0,0.3985
1295.0,0.3971
1296.0,0.3802
1297.0,0.3605
1298.0,0.3863
1299.0,0.4016
1300.0,0.343
1301.0,0.3529
1302.0,0.385
1303.0,0.3382
1304.0,0.2912
1305.0,0.3773
1306.0,0.3776
1307.0,0.2965
1308.0,0.3383
1309.0,0.3749
1310.0,0.291
1311.0,0.3249
1312.0,0.3166
1313.0,0.3109
1314.0,0.2792
1315.0,0.2762
1316.0,0.3202
1317.0,0.3037
1318.0,0.329
1319.0,0.2602
1320.0,0.2515
1321.0,0.2919
1322.0,0.2952
1323.0,0.2246
1324.0,0.2552
1325.0,0.3159
1326.0,0.2727
1327.0,0.2605
1328.0,0.2254
1329.0,0.1712
1330.0,0.2219
1331.0,0.1362
1332.0,0.1399
1333.0,0.1941
1334.0,0.1634
1335.0,0.2238
1336.0,0.1781
1337.0,0.1581
1338.0,0.1711
1339.0,0.17
1340.0,0.1648
1341.0,0.1622
1342.0,0.1703
1343.0,0.1178
1344.0,0.07044
1345.0,0.1014
1346.0,0.05197
1347.0,0.05311
1348.0,0.003737
1349.0,0.01312
1350.0,0.01341
1351.0,0.003506
1352.0,0.001026
1353.0,5.724e-05
1354.0,0.0001863
1355.0,1.806e-06
1356.0,2.816e-05
1357.0,4.28e-05
1358.0,2.123e-06
1359.0,3.074e-07
1360.0,1.021e-06
1361.0,1.532e-09
1362.0,4.766e-12
1363.0,1.44e-06
1364.0,6.018e-07
1365.0,1.965e-12
1366.0,6.069e-06
1367.0,2.43e-06
1368.0,2.088e-14
1369.0,2.268e-07
1370.0,1.186e-07
1371.0,7.248e-09
1372.0,1.337e-06
1373.0,2.46e-05
1374.0,0.0001074
1375.0,0.0001956
1376.0,0.0001671
1377.0,7.767e-05
1378.0,0.0007392
1379.0,3.273e-05
1380.0,4.901e-05
1381.0,1.333e-06
1382.0,1.226e-06
1383.0,1.941e-08
1384.0,2.626e-07
1385.0,1.087e-06
1386.0,1.138e-06
1387.0,0.0001157
1388.0,2.294e-06
1389.0,0.0003666
1390.0,0.0003157
1391.0,0.0002136
1392.0,1.421e-05
1393.0,7.287e-05
1394.0,4.169e-05
1395.0,3.306e-07
1396.0,2.123e-09
1397.0,2.978e-05
1398.0,0.0008361
1399.0,0.0005298
1400.0,9.907e-10
1401.0,3.715e-09
1402.0,0.001357
1403.0,0.001733
1404.0,0.0005317
1405.0,1.692e-07
1406.0,0.00142
1407.0,0.0001233
1408.0,0.001157
1409.0,0.0004061
1410.0,0.0003162
1411.0,0.001519
1412.0,0.002008
1413.0,0.01952
1414.0,0.0002482
1415.0,0.0001217
1416.0,0.03121
1417.0,0.009672
1418.0,0.01105
1419.0,0.001725
1420.0,0.006769
1421.0,0.007323
1422.0,0.04069
1423.0,0.00794
1424.0,0.01483
1425.0,0.02191
1426.0,0.02469
1427.0,0.04501
1428.0,0.003533
1429.0,0.03382
1430.0,0.05727
1431.0,0.06283
1432.0,0.002787
1433.0,0.04006
1434.0,0.02043
1435.0,0.02057
1436.0,0.03947
1437.0,0.03024
1438.0,0.01283
1439.0,0.05359
1440.0,0.04015
1441.0,0.03068
1442.0,0.03402
1443.0,0.04262
1444.0,0.05902
1445.0,0.04623
1446.0,0.0208
1447.0,0.03278
1448.0,0.1109
1449.0,0.0963
1450.0,0.02431
1451.0,0.009766
1452.0,0.05792
1453.0,0.0761
1454.0,0.1312
1455.0,0.06165
1456.0,0.08281
1457.0,0.1114
1458.0,0.1317
1459.0,0.1557
1460.0,0.08089
1461.0,0.0843
1462.0,0.124
1463.0,0.03984
1464.0,0.1473
