interpolation:linear
wavelength,value
280.0,4.0219999999999997e-23
280.5,1.183e-21
281.0,6.201e-21
281.5,1.776e-19
282.0,1.342e-18
282.5,4.971e-18
283.0,2.11e-17
283.5,3.901e-17
284.0,9.03e-16
284.5,2.965e-15
285.0,6.586e-15
285.5,4.751e-14
286.0,2.172e-13
286.5,1.181e-12
287.0,3.819e-12
287.5,1.66e-11
288.0,6.996e-11
288.5,2.68e-10
289.0,8.646e-10
289.5,3.083e-09
290.0,9.655e-09
290.5,2.167e-08
291.0,5.131e-08
291.5,1.632e-07
292.0,4.025e-07
292.5,5.963e-07
293.0,1.355e-06
293.5,3.513e-06
294.0,5.788e-06
294.5,1.006e-05
295.0,1.743e-05
295.5,4.133e-05
296.0,7.331e-05
296.5,9.42e-05
297.0,0.0001189
297.5,0.0002864
298.0,0.0004117
298.5,0.0003858
299.0,0.0007933
299.5,0.001158
300.0,0.00119
300.5,0.001603
301.0,0.002572
301.5,0.003679
302.0,0.00299
302.5,0.005565
303.0,0.00937
303.5,0.01134
304.0,0.01035
304.5,0.0142
305.0,0.01911
305.5,0.02036
306.0,0.01923
306.5,0.02292
307.0,0.03068
307.5,0.037
308.0,0.03865
308.5,0.04367
309.0,0.03865
309.5,0.04232
310.0,0.04172
310.5,0.06712
311.0,0.0829
311.5,0.07969
312.0,0.07625
312.5,0.09016
313.0,0.09654
313.5,0.09585
314.0,0.1155
314.5,0.09715
315.0,0.127
315.5,0.1098
316.0,0.09189
316.5,0.1271
317.0,0.1587
317.5,0.1679
318.0,0.1278
318.5,0.1507
319.0,0.1745
319.5,0.1496
320.0,0.1829
320.5,0.2168
321.0,0.1839
321.5,0.1761
322.0,0.1996
322.5,0.1739
323.0,0.1675
323.5,0.1939
324.0,0.2257
324.5,0.2343
325.0,0.213
325.5,0.2668
326.0,0.3151
326.5,0.3096
327.0,0.3125
327.5,0.3063
328.0,0.2823
328.5,0.2872
329.0,0.3353
329.5,0.3788
330.0,0.3864
330.5,0.3175
331.0,0.3272
331.5,0.3283
332.0,0.3475
332.5,0.3413
333.0,0.3438
333.5,0.318
334.0,0.3279
334.5,0.3722
335.0,0.3469
335.5,0.3944
336.0,0.2738
336.5,0.3338
337.0,0.2771
337.5,0.3469
338.0,0.3344
338.5,0.3779
339.0,0.3773
339.5,0.3627
340.0,0.4375
340.5,0.3951
341.0,0.3795
341.5,0.3525
342.0,0.4235
342.5,0.3981
343.0,0.4374
343.5,0.4118
344.0,0.3096
344.5,0.3069
345.0,0.4117
345.5,0.4229
346.0,0.3612
346.5,0.4107
347.0,0.4408
347.5,0.357
348.0,0.4098
348.5,0.4116
349.0,0.3831
349.5,0.3802
350.0,0.4717
350.5,0.4989
351.0,0.4464
351.5,0.433
352.0,0.4678
352.5,0.3668
353.0,0.4636
353.5,0.4974
354.0,0.5181
354.5,0.5269
355.0,0.5263
355.5,0.4768
356.0,0.5002
356.5,0.4283
357.0,0.3549
357.5,0.4357
358.0,0.3463
358.5,0.2967
359.0,0.4161
359.5,0.5313
360.0,0.5648
360.5,0.4527
361.0,0.4137
361.5,0.4773
362.0,0.4135
362.5,0.5734
363.0,0.516
363.5,0.4762
364.0,0.5837
364.5,0.5
365.0,0.5104
365.5,0.642
366.0,0.6816
366.5,0.6417
367.0,0.6264
367.5,0.6515
368.0,0.5713
368.5,0.5776
369.0,0.6251
369.5,0.6677
370.0,0.7133
370.5,0.5547
371.0,0.5939
371.5,0.7447
372.0,0.4953
372.5,0.5951
373.0,0.6064
373.5,0.3953
374.0,0.5756
374.5,0.4775
375.0,0.4652
375.5,0.6959
376.0,0.5781
376.5,0.6003
377.0,0.6367
377.5,0.7463
378.0,0.8107
378.5,0.7679
379.0,0.6351
379.5,0.5815
380.0,0.6058
380.5,0.7351
381.0,0.7379
381.5,0.586
382.0,0.5213
382.5,0.4451
383.0,0.4128
383.5,0.3983
384.0,0.4401
384.5,0.6484
385.0,0.6441
385.5,0.6008
386.0,0.5154
386.5,0.6781
387.0,0.5645
387.5,0.6352
388.0,0.5875
388.5,0.5817
389.0,0.629
389.5,0.7631
390.0,0.7671
390.5,0.7071
391.0,0.8337
391.5,0.8518
392.0,0.7187
392.5,0.6444
393.0,0.3591
393.5,0.2614
394.0,0.5327
394.5,0.6782
395.0,0.8289
395.5,0.8434
396.0,0.7323
396.5,0.4287
397.0,0.3222
397.5,0.6562
398.0,0.9205
398.5,0.9529
399.0,1.033
399.5,1.031
400.0,1.072
401.0,1.104
402.0,1.168
403.0,1.112
404.0,1.098
405.0,1.1
406.0,1.085
407.0,1.07
408.0,1.115
409.0,1.196
410.0,1.047
411.0,1.137
412.0,1.223
413.0,1.196
414.0,1.213
415.0,1.219
416.0,1.242
417.0,1.215
418.0,1.195
419.0,1.213
420.0,1.21
421.0,1.269
422.0,1.209
423.0,1.183
424.0,1.254
425.0,1.254
426.0,1.223
427.0,1.203
428.0,1.174
429.0,1.113
430.0,0.9759
431.0,0.9695
432.0,1.254
433.0,1.263
434.0,1.175
435.0,1.229
436.0,1.387
437.0,1.369
438.0,1.249
439.0,1.295
440.0,1.338
441.0,1.388
442.0,1.491
443.0,1.455
444.0,1.489
445.0,1.459
446.0,1.394
447.0,1.508
448.0,1.535
449.0,1.542
450.0,1.588
451.0,1.649
452.0,1.591
453.0,1.498
454.0,1.565
455.0,1.577
456.0,1.617
457.0,1.646
458.0,1.593
459.0,1.587
460.0,1.594
461.0,1.632
462.0,1.646
463.0,1.637
464.0,1.611
465.0,1.592
466.0,1.608
467.0,1.582
468.0,1.603
469.0,1.613
470.0,1.564
471.0,1.563
472.0,1.649
473.0,1.63
474.0,1.636
475.0,1.653
476.0,1.607
477.0,1.614
478.0,1.66
479.0,1.651
480.0,1.656
481.0,1.687
482.0,1.697
483.0,1.677
484.0,1.644
485.0,1.567
486.0,1.371
487.0,1.437
488.0,1.579
489.0,1.586
490.0,1.669
491.0,1.642
492.0,1.552
493.0,1.604
494.0,1.621
495.0,1.637
496.0,1.648
497.0,1.676
498.0,1.599
499.0,1.621
500.0,1.576
501.0,1.549
502.0,1.531
503.0,1.596
504.0,1.562
505.0,1.615
506.0,1.669
507.0,1.589
508.0,1.54
509.0,1.583
510.0,1.575
511.0,1.618
512.0,1.636
513.0,1.55
514.0,1.54
515.0,1.526
516.0,1.523
517.0,1.354
518.0,1.425
519.0,1.496
520.0,1.552
521.0,1.568
522.0,1.571
523.0,1.544
524.0,1.601
525.0,1.622
526.0,1.551
527.0,1.464
528.0,1.55
529.0,1.635
530.0,1.613
531.0,1.639
532.0,1.584
533.0,1.538
534.0,1.584
535.0,1.619
536.0,1.635
537.0,1.571
538.0,1.599
539.0,1.587
540.0,1.522
541.0,1.535
542.0,1.585
543.0,1.568
544.0,1.597
545.0,1.593
546.0,1.602
547.0,1.601
548.0,1.582
549.0,1.588
550.0,1.607
551.0,1.588
552.0,1.6
553.0,1.573
554.0,1.612
555.0,1.616
556.0,1.596
557.0,1.548
558.0,1.538
559.0,1.511
560.0,1.531
561.0,1.552
562.0,1.543
563.0,1.587
564.0,1.545
565.0,1.533
566.0,1.512
567.0,1.542
568.0,1.532
569.0,1.501
570.0,1.501
571.0,1.491
572.0,1.531
573.0,1.548
574.0,1.545
575.0,1.518
576.0,1.504
577.0,1.521
578.0,1.497
579.0,1.502
580.0,1.528
581.0,1.534
582.0,1.561
583.0,1.564
584.0,1.577
585.0,1.538
586.0,1.507
587.0,1.542
588.0,1.512
589.0,1.352
590.0,1.413
591.0,1.489
592.0,1.475
593.0,1.492
594.0,1.484
595.0,1.452
596.0,1.5
597.0,1.487
598.0,1.481
599.0,1.481
600.0,1.482
601.0,1.468
602.0,1.458
603.0,1.482
604.0,1.507
605.0,1.499
606.0,1.492
607.0,1.507
608.0,1.49
609.0,1.492
610.0,1.481
611.0,1.488
612.0,1.484
613.0,1.465
614.0,1.445
615.0,1.476
616.0,1.427
617.0,1.424
618.0,1.479
619.0,1.465
620.0,1.474
621.0,1.477
622.0,1.461
623.0,1.44
624.0,1.415
625.0,1.412
626.0,1.434
627.0,1.452
628.0,1.382
629.0,1.428
630.0,1.396
631.0,1.419
632.0,1.401
633.0,1.441
634.0,1.424
635.0,1.445
636.0,1.425
637.0,1.448
638.0,1.46
639.0,1.443
640.0,1.428
641.0,1.427
642.0,1.42
643.0,1.439
644.0,1.434
645.0,1.437
646.0,1.407
647.0,1.398
648.0,1.4
649.0,1.374
650.0,1.372
651.0,1.43
652.0,1.381
653.0,1.412
654.0,1.395
655.0,1.349
656.0,1.192
657.0,1.224
658.0,1.369
659.0,1.378
660.0,1.384
661.0,1.394
662.0,1.398
663.0,1.37
664.0,1.384
665.0,1.384
666.0,1.385
667.0,1.383
668.0,1.383
669.0,1.404
670.0,1.398
671.0,1.397
672.0,1.385
673.0,1.406
674.0,1.4
675.0,1.388
676.0,1.397
677.0,1.383
678.0,1.387
679.0,1.365
680.0,1.376
681.0,1.367
682.0,1.365
683.0,1.363
684.0,1.356
685.0,1.368
686.0,1.36
687.0,1.016
688.0,1.136
689.0,1.138
690.0,1.176
691.0,1.218
692.0,1.247
693.0,1.239
694.0,1.229
695.0,1.267
696.0,1.269
697.0,1.329
698.0,1.309
699.0,1.289
700.0,1.274
701.0,1.265
702.0,1.27
703.0,1.272
704.0,1.306
705.0,1.308
706.0,1.305
707.0,1.305
708.0,1.308
709.0,1.306
710.0,1.309
711.0,1.306
712.0,1.3
713.0,1.289
714.0,1.294
715.0,1.257
716.0,1.259
717.0,1.134
718.0,1.05
719.0,0.9668
720.0,1.015
721.0,1.095
722.0,1.223
723.0,1.154
724.0,1.057
725.0,1.046
726.0,1.092
727.0,1.098
728.0,1.046
729.0,1.07
730.0,1.131
731.0,1.088
732.0,1.148
733.0,1.2
734.0,1.224
735.0,1.201
736.0,1.2
737.0,1.205
738.0,1.214
739.0,1.191
740.0,1.219
741.0,1.205
742.0,1.204
743.0,1.235
744.0,1.23
745.0,1.23
746.0,1.236
747.0,1.238
748.0,1.236
749.0,1.222
750.0,1.221
751.0,1.209
752.0,1.214
753.0,1.22
754.0,1.223
755.0,1.217
756.0,1.216
757.0,1.218
758.0,1.203
759.0,1.185
760.0,0.3215
761.0,0.2005
762.0,0.7237
763.0,0.4382
764.0,0.5895
765.0,0.7245
766.0,0.832
767.0,0.9948
768.0,1.106
769.0,1.12
770.0,1.147
771.0,1.152
772.0,1.153
773.0,1.161
774.0,1.155
775.0,1.147
776.0,1.161
777.0,1.145
778.0,1.139
779.0,1.14
780.0,1.133
781.0,1.135
782.0,1.142
783.0,1.122
784.0,1.127
785.0,1.119
786.0,1.132
787.0,1.117
788.0,1.105
789.0,1.105
790.0,1.083
791.0,1.086
792.0,1.077
793.0,1.061
794.0,1.072
795.0,1.092
796.0,1.067
797.0,1.069
798.0,1.092
799.0,1.087
800.0,1.07
801.0,1.069
802.0,1.066
803.0,1.059
804.0,1.059
805.0,1.054
806.0,1.079
807.0,1.067
808.0,1.068
809.0,1.051
810.0,1.045
811.0,1.05
812.0,1.026
813.0,1.009
814.0,0.9091
815.0,0.903
816.0,0.844
817.0,0.8567
818.0,0.8295
819.0,0.9086
820.0,0.8632
821.0,0.9837
822.0,0.9599
823.0,0.6942
824.0,0.9406
825.0,0.9684
826.0,0.9393
827.0,0.9831
828.0,0.8565
829.0,0.9323
830.0,0.9226
831.0,0.925
832.0,0.901
833.0,0.9465
834.0,0.9207
835.0,0.9953
836.0,0.9628
837.0,0.9976
838.0,0.971
839.0,0.9818
840.0,1.002
841.0,0.99
842.0,0.9893
843.0,0.9859
844.0,0.9739
845.0,1.005
846.0,0.9998
847.0,0.9804
848.0,0.9757
849.0,0.948
850.0,0.9082
851.0,0.963
852.0,0.9557
853.0,0.9189
854.0,0.7944
855.0,0.8715
856.0,0.953
857.0,0.9735
858.0,0.9667
859.0,0.9671
860.0,0.9685
861.0,0.9634
862.0,0.9784
863.0,1.002
864.0,0.9515
865.0,0.9431
866.0,0.8481
867.0,0.8851
868.0,0.9631
869.0,0.9432
870.0,0.9701
871.0,0.957
872.0,0.9536
873.0,0.9517
874.0,0.9404
875.0,0.9215
876.0,0.9312
877.0,0.9406
878.0,0.9511
879.0,0.9365
880.0,0.9165
881.0,0.9034
882.0,0.9232
883.0,0.9256
884.0,0.9216
885.0,0.9287
886.0,0.8873
887.0,0.8951
888.0,0.9095
889.0,0.9179
890.0,0.9126
891.0,0.9099
892.0,0.8866
893.0,0.8629
894.0,0.8397
895.0,0.8027
896.0,0.7608
897.0,0.6667
898.0,0.7198
899.0,0.5639
900.0,0.7293
901.0,0.5902
902.0,0.6714
903.0,0.6847
904.0,0.8339
905.0,0.8094
906.0,0.761
907.0,0.6376
908.0,0.6477
909.0,0.6922
910.0,0.6287
911.0,0.6603
912.0,0.6863
913.0,0.6389
914.0,0.6307
915.0,0.6816
916.0,0.5826
917.0,0.7204
918.0,0.5978
919.0,0.7295
920.0,0.729
921.0,0.7559
922.0,0.6877
923.0,0.7297
924.0,0.7053
925.0,0.6905
926.0,0.6979
927.0,0.7699
928.0,0.5974
929.0,0.5542
930.0,0.45
931.0,0.4238
932.0,0.3198
933.0,0.2682
934.0,0.1646
935.0,0.2677
936.0,0.178
937.0,0.1821
938.0,0.2195
939.0,0.4109
940.0,0.4842
941.0,0.3793
942.0,0.4301
943.0,0.2939
944.0,0.3
945.0,0.3888
946.0,0.2128
947.0,0.3942
948.0,0.2924
949.0,0.5127
950.0,0.1665
951.0,0.5023
952.0,0.2899
953.0,0.3613
954.0,0.4287
955.0,0.3639
956.0,0.3472
957.0,0.2924
958.0,0.4711
959.0,0.3894
960.0,0.4359
961.0,0.4778
962.0,0.4537
963.0,0.5129
964.0,0.4735
965.0,0.5098
966.0,0.5125
967.0,0.5111
968.0,0.6513
969.0,0.6824
970.0,0.6318
971.0,0.7084
972.0,0.6805
973.0,0.6073
974.0,0.5789
975.0,0.5949
976.0,0.5726
977.0,0.6364
978.0,0.611
979.0,0.635
980.0,0.6004
981.0,0.7039
982.0,0.6783
983.0,0.6545
984.0,0.7195
985.0,0.6756
986.0,0.7287
987.0,0.7181
988.0,0.7169
989.0,0.7244
990.0,0.7123
991.0,0.727
992.0,0.7309
993.0,0.7183
994.0,0.7303
995.0,0.7289
996.0,0.7263
997.0,0.7271
998.0,0.7239
999.0,0.7211
1000.0,0.717
1001.0,0.725
1002.0,0.7086
1003.0,0.7124
1004.0,0.696
1005.0,0.6692
1006.0,0.696
1007.0,0.7104
1008.0,0.7073
1009.0,0.7042
1010.0,0.7017
1011.0,0.7069
1012.0,0.7014
1013.0,0.705
1014.0,0.7001
1015.0,0.6956
1016.0,0.6925
1017.0,0.6945
1018.0,0.6914
1019.0,0.6781
1020.0,0.688
1021.0,0.6869
1022.0,0.6821
1023.0,0.6894
1024.0,0.6819
1025.0,0.6885
1026.0,0.6859
1027.0,0.6843
1028.0,0.683
1029.0,0.6751
1030.0,0.6792
1031.0,0.6767
1032.0,0.6746
1033.0,0.6645
1034.0,0.6645
1035.0,0.6666
1036.0,0.6703
1037.0,0.6593
1038.0,0.6623
1039.0,0.662
1040.0,0.6594
1041.0,0.6622
1042.0,0.6576
1043.0,0.6556
1044.0,0.658
1045.0,0.6492
1046.0,0.6421
1047.0,0.648
1048.0,0.6517
1049.0,0.6494
1050.0,0.6466
1051.0,0.6458
1052.0,0.6434
1053.0,0.6384
1054.0,0.64
1055.0,0.6406
1056.0,0.6386
1057.0,0.6368
1058.0,0.6213
1059.0,0.6222
1060.0,0.6214
1061.0,0.6208
1062.0,0.6243
1063.0,0.6183
1064.0,0.6256
1065.0,0.6216
1066.0,0.6089
1067.0,0.617
1068.0,0.6039
1069.0,0.585
1070.0,0.6052
1071.0,0.6134
1072.0,0.6073
1073.0,0.5984
1074.0,0.6125
1075.0,0.5856
1076.0,0.6122
1077.0,0.6034
1078.0,0.5928
1079.0,0.6019
1080.0,0.5942
1081.0,0.577
1082.0,0.583
1083.0,0.584
1084.0,0.5767
1085.0,0.5953
1086.0,0.5494
1087.0,0.5624
1088.0,0.5842
1089.0,0.5699
1090.0,0.56
1091.0,0.5833
1092.0,0.581
1093.0,0.504
1094.0,0.533
1095.0,0.5233
1096.0,0.5045
1097.0,0.5675
1098.0,0.4978
1099.0,0.5174
1100.0,0.4863
1101.0,0.4908
1102.0,0.4718
1103.0,0.4695
1104.0,0.4698
1105.0,0.5067
1106.0,0.4073
1107.0,0.4851
1108.0,0.4231
1109.0,0.4216
1110.0,0.4823
1111.0,0.3434
1112.0,0.4175
1113.0,0.2829
1114.0,0.3139
1115.0,0.2609
1116.0,0.219
1117.0,0.09294
1118.0,0.2341
1119.0,0.1258
1120.0,0.1585
1121.0,0.2041
1122.0,0.09444
1123.0,0.143
1124.0,0.1208
1125.0,0.1552
1126.0,0.06264
1127.0,0.1743
1128.0,0.1135
1129.0,0.1189
1130.0,0.08259
1131.0,0.3093
1132.0,0.2467
1133.0,0.1676
1134.0,0.05029
1135.0,0.01853
1136.0,0.1439
1137.0,0.307
1138.0,0.219
1139.0,0.3059
1140.0,0.2635
1141.0,0.2081
1142.0,0.2349
1143.0,0.3249
1144.0,0.1244
1145.0,0.1613
1146.0,0.1741
1147.0,0.07038
1148.0,0.2815
1149.0,0.2313
1150.0,0.1334
1151.0,0.2175
1152.0,0.2601
1153.0,0.2479
1154.0,0.1585
1155.0,0.3194
1156.0,0.2916
1157.0,0.3215
1158.0,0.3178
1159.0,0.3374
1160.0,0.295
1161.0,0.3514
1162.0,0.354
1163.0,0.458
1164.0,0.4003
1165.0,0.3844
1166.0,0.3772
1167.0,0.407
1168.0,0.4129
1169.0,0.4201
1170.0,0.4508
1171.0,0.4405
1172.0,0.4452
1173.0,0.4498
1174.0,0.3376
1175.0,0.4371
1176.0,0.4728
1177.0,0.4588
1178.0,0.3571
1179.0,0.4763
1180.0,0.4338
1181.0,0.4467
1182.0,0.3218
1183.0,0.4379
1184.0,0.4149
1185.0,0.4042
1186.0,0.4662
1187.0,0.4481
1188.0,0.3283
1189.0,0.4184
1190.0,0.4556
1191.0,0.4393
1192.0,0.4612
1193.0,0.4445
1194.0,0.4564
1195.0,0.4364
1196.0,0.4234
1197.0,0.454
1198.0,0.4192
1199.0,0.3675
1200.0,0.4393
1201.0,0.4274
1202.0,0.4228
1203.0,0.4194
1204.0,0.373
1205.0,0.4294
1206.0,0.4682
1207.0,0.4228
1208.0,0.4129
1209.0,0.4205
1210.0,0.4356
1211.0,0.4191
1212.0,0.4186
1213.0,0.4551
1214.0,0.4264
1215.0,0.4194
1216.0,0.4535
1217.0,0.4436
1218.0,0.45
1219.0,0.4454
1220.0,0.4502
1221.0,0.4535
1222.0,0.443
1223.0,0.4398
1224.0,0.4385
1225.0,0.4507
1226.0,0.4524
1227.0,0.4228
1228.0,0.4536
1229.0,0.4525
1230.0,0.4458
1231.0,0.4551
1232.0,0.4525
1233.0,0.4412
1234.0,0.4538
1235.0,0.4516
1236.0,0.4543
1237.0,0.4497
1238.0,0.4528
1239.0,0.4471
1240.0,0.4485
1241.0,0.4475
1242.0,0.4456
1243.0,0.4419
1244.0,0.4454
1245.0,0.4471
1246.0,0.4444
1247.0,0.443
1248.0,0.4433
1249.0,0.4442
1250.0,0.4418
1251.0,0.4368
1252.0,0.436
1253.0,0.434
1254.0,0.4308
1255.0,0.436
1256.0,0.4265
1257.0,0.4247
1258.0,0.4305
1259.0,0.4191
1260.0,0.4208
1261.0,0.4025
1262.0,0.3933
1263.0,0.3942
1264.0,0.3706
1265.0,0.3916
1266.0,0.3807
1267.0,0.3847
1268.0,0.3692
1269.0,0.2596
1270.0,0.3844
1271.0,0.4006
1272.0,0.4012
1273.0,0.3976
1274.0,0.3981
1275.0,0.4028
1276.0,0.4057
1277.0,0.4072
1278.0,0.4128
1279.0,0.4093
1280.0,0.404
1281.0,0.3845
1282.0,0.3688
1283.0,0.3976
1284.0,0.4074
1285.0,0.4099
1286.0,0.4145
1287.0,0.4098
1288.0,0.4092
1289.0,0.3996
1290.0,0.4054
1291.0,0.4105
1292.0,0.3919
1293.0,0.4041
1294.0,0.4016
1295.0,0.4011
1296.0,0.3871
1297.0,0.3695
1298.0,0.3912
1299.0,0.404
1300.0,0.3533
1301.0,0.3618
1302.0,0.3897
1303.0,0.3474
1304.0,0.3071
1305.0,0.3826
1306.0,0.3832
1307.0,0.31
1308.0,0.3463
1309.0,0.3811
1310.0,0.3046
1311.0,0.3344
1312.0,0.3271
1313.0,0.3225
1314.0,0.2925
1315.0,0.2911
1316.0,0.3309
1317.0,0.3147
1318.0,0.3376
1319.0,0.2768
1320.0,0.2654
1321.0,0.3047
1322.0,0.3095
1323.0,0.2437
1324.0,0.2714
1325.0,0.3268
1326.0,0.2873
1327.0,0.2758
1328.0,0.2413
1329.0,0.1904
1330.0,0.243
1331.0,0.1582
1332.0,0.1593
1333.0,0.2186
1334.0,0.1807
1335.0,0.2426
1336.0,0.1975
1337.0,0.1782
1338.0,0.1923
1339.0,0.19
1340.0,0.182
1341.0,0.1841
1342.0,0.193
1343.0,0.145
1344.0,0.0866
1345.0,0.123
1346.0,0.07123
1347.0,0.07411
1348.0,0.00714
1349.0,0.02274
1350.0,0.02171
1351.0,0.007479
1352.0,0.002861
1353.0,0.000225
1354.0,0.0005976
1355.0,1.119e-05
1356.0,0.0001143
1357.0,0.0001712
1358.0,1.282e-05
1359.0,2.963e-06
1360.0,7.286e-06
1361.0,3.082e-08
1362.0,1.566e-10
1363.0,1.126e-05
1364.0,5.06e-06
1365.0,1.089e-10
1366.0,4.163e-05
1367.0,1.606e-05
1368.0,3.357e-12
1369.0,1.986e-06
1370.0,1.262e-06
1371.0,1.014e-07
1372.0,8.916e-06
1373.0,0.0001159
1374.0,0.000403
1375.0,0.0007199
1376.0,0.0005307
1377.0,0.0002614
1378.0,0.00217
1379.0,0.0001123
1380.0,0.0001896
1381.0,6.141e-06
1382.0,8.622e-06
1383.0,1.721e-07
1384.0,2.468e-06
1385.0,6.21e-06
1386.0,9.094e-06
1387.0,0.0004812
1388.0,1.04e-05
1389.0,0.001214
1390.0,0.001037
1391.0,0.0007486
1392.0,5.582e-05
1393.0,0.0002498
1394.0,0.0001993
1395.0,2.173e-06
1396.0,3.742e-08
1397.0,0.0001124
1398.0,0.002487
1399.0,0.001585
1400.0,2.255e-08
1401.0,5.933e-08
1402.0,0.003057
1403.0,0.004091
1404.0,0.001288
1405.0,1.32e-06
1406.0,0.003713
1407.0,0.0003179
1408.0,0.002992
1409.0,0.001241
1410.0,0.000895
1411.0,0.003559
1412.0,0.004344
1413.0,0.03224
1414.0,0.0006912
1415.0,0.0003694
1416.0,0.04507
1417.0,0.01661
1418.0,0.01897
1419.0,0.00311
1420.0,0.01175
1421.0,0.01299
1422.0,0.05785
1423.0,0.01208
1424.0,0.02191
1425.0,0.03311
1426.0,0.03508
1427.0,0.05858
1428.0,0.006893
1429.0,0.04633
1430.0,0.0728
1431.0,0.07842
1432.0,0.005521
1433.0,0.05213
1434.0,0.02766
1435.0,0.03152
1436.0,0.05456
1437.0,0.04191
1438.0,0.01947
1439.0,0.07141
1440.0,0.05391
1441.0,0.04398
1442.0,0.04803
1443.0,0.05594
1444.0,0.07576
1445.0,0.06269
1446.0,0.02928
1447.0,0.04613
1448.0,0.1307
1449.0,0.117
1450.0,0.03412
1451.0,0.01465
1452.0,0.07369
1453.0,0.09466
1454.0,0.1507
1455.0,0.0755
1456.0,0.1033
1457.0,0.1314
1458.0,0.1483
1459.0,0.1764
1460.0,0.09553
1461.0,0.1026
1462.0,0.1447
1463.0,0.05082
1464.0,0.166
1465.0,0.1011
1466.0,0.07715
1467.0,0.044
1468.0,0.08901
