interpolation:linear
wavelength,value
280.0,6.973e-27
280.5,3.556e-25
281.0,2.2799999999999998e-24
281.5,1.1119999999999998e-22
282.0,1.162e-21
282.5,5.351e-21
283.0,2.886e-20
283.5,6.014e-20
284.0,2.427e-18
284.5,1.026e-17
285.0,2.998e-17
285.5,2.985e-16
286.0,1.555e-15
286.5,1.106e-14
287.0,4.357e-14
287.5,2.456e-13
288.0,1.435e-12
288.5,6.539e-12
289.0,2.523e-11
289.5,1.095e-10
290.0,4.031e-10
290.5,1.035e-09
291.0,2.884e-09
291.5,1.128e-08
292.0,3.29e-08
292.5,5.359e-08
293.0,1.375e-07
293.5,4.207e-07
294.0,7.752e-07
294.5,1.467e-06
295.0,2.824e-06
295.5,7.636e-06
296.0,1.482e-05
296.5,2.073e-05
297.0,2.801e-05
297.5,7.413e-05
298.0,0.000115
298.5,0.0001141
299.0,0.0002474
299.5,0.0003931
300.0,0.0004221
300.5,0.0005942
301.0,0.001015
301.5,0.001528
302.0,0.001272
302.5,0.002474
303.0,0.004394
303.5,0.005481
304.0,0.005082
304.5,0.007223
305.0,0.01018
305.5,0.01115
306.0,0.01065
306.5,0.01292
307.0,0.01789
307.5,0.02226
308.0,0.02341
308.5,0.02685
309.0,0.02406
309.5,0.0272
310.0,0.02722
310.5,0.04414
311.0,0.05519
311.5,0.05338
312.0,0.05228
312.5,0.06276
313.0,0.06777
313.5,0.06696
314.0,0.08207
314.5,0.0705
315.0,0.09259
315.5,0.07948
316.0,0.06762
316.5,0.09483
317.0,0.1186
317.5,0.1252
318.0,0.09623
318.5,0.1153
319.0,0.1346
319.5,0.1143
320.0,0.1396
320.5,0.1682
321.0,0.1445
321.5,0.1387
322.0,0.1555
322.5,0.1358
323.0,0.1321
323.5,0.1551
324.0,0.1811
324.5,0.1873
325.0,0.169
325.5,0.2133
326.0,0.2544
326.5,0.2516
327.0,0.2538
327.5,0.2485
328.0,0.2275
328.5,0.2339
329.0,0.275
329.5,0.3116
330.0,0.3178
330.5,0.2603
331.0,0.2681
331.5,0.2703
332.0,0.2877
332.5,0.2834
333.0,0.2855
333.5,0.2635
334.0,0.2719
334.5,0.3101
335.0,0.2899
335.5,0.3303
336.0,0.2295
336.5,0.2796
337.0,0.2321
337.5,0.2907
338.0,0.2812
338.5,0.3185
339.0,0.3184
339.5,0.3064
340.0,0.3695
340.5,0.3341
341.0,0.3216
341.5,0.2992
342.0,0.3598
342.5,0.3386
343.0,0.3723
343.5,0.3507
344.0,0.2636
344.5,0.2618
345.0,0.3518
345.5,0.3618
346.0,0.3094
346.5,0.3521
347.0,0.3782
347.5,0.3066
348.0,0.3523
348.5,0.3542
349.0,0.33
349.5,0.3278
350.0,0.4071
350.5,0.431
351.0,0.3858
351.5,0.3744
352.0,0.405
352.5,0.3179
353.0,0.4022
353.5,0.4319
354.0,0.4501
354.5,0.4581
355.0,0.458
355.5,0.4152
356.0,0.436
356.5,0.3736
357.0,0.3097
357.5,0.3805
358.0,0.3026
358.5,0.2595
359.0,0.3641
359.5,0.4652
360.0,0.4949
360.5,0.3969
361.0,0.363
361.5,0.4193
362.0,0.3636
362.5,0.5047
363.0,0.4546
363.5,0.4199
364.0,0.5151
364.5,0.4416
365.0,0.451
365.5,0.5677
366.0,0.6032
366.5,0.5684
367.0,0.5551
367.5,0.5777
368.0,0.507
368.5,0.513
369.0,0.5555
369.5,0.5938
370.0,0.6347
370.5,0.4939
371.0,0.5292
371.5,0.6639
372.0,0.4418
372.5,0.5312
373.0,0.5417
373.5,0.3533
374.0,0.5148
374.5,0.4274
375.0,0.4165
375.5,0.6235
376.0,0.5182
376.5,0.5384
377.0,0.5714
377.5,0.6701
378.0,0.7283
378.5,0.6902
379.0,0.5711
379.5,0.5231
380.0,0.5453
380.5,0.6621
381.0,0.6651
381.5,0.5285
382.0,0.4704
382.5,0.402
383.0,0.373
383.5,0.3601
384.0,0.3981
384.5,0.5869
385.0,0.5833
385.5,0.5444
386.0,0.4673
386.5,0.6152
387.0,0.5124
387.5,0.5768
388.0,0.5338
388.5,0.5288
389.0,0.572
389.5,0.6944
390.0,0.6983
390.5,0.6441
391.0,0.7597
391.5,0.7766
392.0,0.6555
392.5,0.588
393.0,0.3279
393.5,0.2388
394.0,0.4869
394.5,0.6202
395.0,0.7583
395.5,0.7718
396.0,0.6705
396.5,0.3927
397.0,0.2953
397.5,0.6017
398.0,0.8443
398.5,0.8744
399.0,0.9484
399.5,0.947
400.0,0.9853
401.0,1.015
402.0,1.075
403.0,1.025
404.0,1.012
405.0,1.015
406.0,1.002
407.0,0.9892
408.0,1.031
409.0,1.107
410.0,0.9701
411.0,1.054
412.0,1.135
413.0,1.11
414.0,1.127
415.0,1.133
416.0,1.156
417.0,1.131
418.0,1.113
419.0,1.131
420.0,1.129
421.0,1.185
422.0,1.129
423.0,1.106
424.0,1.173
425.0,1.174
426.0,1.146
427.0,1.127
428.0,1.101
429.0,1.045
430.0,0.9165
431.0,0.9108
432.0,1.179
433.0,1.188
434.0,1.106
435.0,1.157
436.0,1.307
437.0,1.291
438.0,1.178
439.0,1.222
440.0,1.263
441.0,1.311
442.0,1.409
443.0,1.376
444.0,1.408
445.0,1.381
446.0,1.32
447.0,1.429
448.0,1.455
449.0,1.463
450.0,1.507
451.0,1.565
452.0,1.511
453.0,1.424
454.0,1.488
455.0,1.5
456.0,1.539
457.0,1.567
458.0,1.517
459.0,1.512
460.0,1.518
461.0,1.556
462.0,1.57
463.0,1.562
464.0,1.537
465.0,1.52
466.0,1.537
467.0,1.511
468.0,1.532
469.0,1.542
470.0,1.495
471.0,1.496
472.0,1.578
473.0,1.56
474.0,1.565
475.0,1.582
476.0,1.537
477.0,1.545
478.0,1.59
479.0,1.582
480.0,1.587
481.0,1.618
482.0,1.628
483.0,1.61
484.0,1.579
485.0,1.506
486.0,1.318
487.0,1.382
488.0,1.518
489.0,1.525
490.0,1.606
491.0,1.58
492.0,1.494
493.0,1.545
494.0,1.562
495.0,1.577
496.0,1.589
497.0,1.615
498.0,1.541
499.0,1.563
500.0,1.52
501.0,1.494
502.0,1.476
503.0,1.539
504.0,1.504
505.0,1.557
506.0,1.61
507.0,1.533
508.0,1.486
509.0,1.528
510.0,1.521
511.0,1.563
512.0,1.581
513.0,1.498
514.0,1.489
515.0,1.476
516.0,1.473
517.0,1.31
518.0,1.379
519.0,1.448
520.0,1.502
521.0,1.518
522.0,1.52
523.0,1.495
524.0,1.55
525.0,1.57
526.0,1.501
527.0,1.417
528.0,1.5
529.0,1.583
530.0,1.561
531.0,1.586
532.0,1.533
533.0,1.489
534.0,1.534
535.0,1.568
536.0,1.584
537.0,1.522
538.0,1.55
539.0,1.538
540.0,1.476
541.0,1.488
542.0,1.536
543.0,1.52
544.0,1.548
545.0,1.544
546.0,1.553
547.0,1.552
548.0,1.535
549.0,1.54
550.0,1.559
551.0,1.541
552.0,1.553
553.0,1.527
554.0,1.564
555.0,1.568
556.0,1.549
557.0,1.502
558.0,1.492
559.0,1.466
560.0,1.486
561.0,1.506
562.0,1.497
563.0,1.539
564.0,1.498
565.0,1.487
566.0,1.466
567.0,1.495
568.0,1.484
569.0,1.452
570.0,1.452
571.0,1.444
572.0,1.481
573.0,1.498
574.0,1.494
575.0,1.468
576.0,1.455
577.0,1.471
578.0,1.449
579.0,1.455
580.0,1.481
581.0,1.488
582.0,1.516
583.0,1.519
584.0,1.532
585.0,1.495
586.0,1.465
587.0,1.499
588.0,1.466
589.0,1.306
590.0,1.366
591.0,1.442
592.0,1.427
593.0,1.446
594.0,1.438
595.0,1.405
596.0,1.456
597.0,1.442
598.0,1.438
599.0,1.439
600.0,1.44
601.0,1.428
602.0,1.419
603.0,1.443
604.0,1.467
605.0,1.459
606.0,1.453
607.0,1.468
608.0,1.452
609.0,1.454
610.0,1.444
611.0,1.452
612.0,1.448
613.0,1.43
614.0,1.41
615.0,1.441
616.0,1.394
617.0,1.391
618.0,1.445
619.0,1.431
620.0,1.44
621.0,1.443
622.0,1.427
623.0,1.406
624.0,1.382
625.0,1.379
626.0,1.4
627.0,1.417
628.0,1.338
629.0,1.389
630.0,1.358
631.0,1.385
632.0,1.368
633.0,1.408
634.0,1.393
635.0,1.415
636.0,1.395
637.0,1.418
638.0,1.431
639.0,1.415
640.0,1.401
641.0,1.4
642.0,1.394
643.0,1.413
644.0,1.408
645.0,1.411
646.0,1.38
647.0,1.368
648.0,1.37
649.0,1.344
650.0,1.346
651.0,1.404
652.0,1.351
653.0,1.386
654.0,1.371
655.0,1.323
656.0,1.171
657.0,1.202
658.0,1.346
659.0,1.356
660.0,1.361
661.0,1.371
662.0,1.375
663.0,1.348
664.0,1.363
665.0,1.363
666.0,1.364
667.0,1.363
668.0,1.363
669.0,1.384
670.0,1.379
671.0,1.378
672.0,1.367
673.0,1.387
674.0,1.382
675.0,1.37
676.0,1.379
677.0,1.366
678.0,1.37
679.0,1.348
680.0,1.359
681.0,1.35
682.0,1.349
683.0,1.346
684.0,1.34
685.0,1.352
686.0,1.344
687.0,0.9509
688.0,1.087
689.0,1.09
690.0,1.134
691.0,1.183
692.0,1.218
693.0,1.209
694.0,1.2
695.0,1.242
696.0,1.244
697.0,1.312
698.0,1.292
699.0,1.267
700.0,1.252
701.0,1.242
702.0,1.248
703.0,1.251
704.0,1.287
705.0,1.29
706.0,1.287
707.0,1.288
708.0,1.291
709.0,1.291
710.0,1.292
711.0,1.29
712.0,1.286
713.0,1.274
714.0,1.279
715.0,1.241
716.0,1.242
717.0,1.099
718.0,1.014
719.0,0.9311
720.0,0.9769
721.0,1.065
722.0,1.204
723.0,1.129
724.0,1.026
725.0,1.013
726.0,1.058
727.0,1.069
728.0,1.011
729.0,1.042
730.0,1.102
731.0,1.057
732.0,1.123
733.0,1.181
734.0,1.207
735.0,1.183
736.0,1.182
737.0,1.187
738.0,1.2
739.0,1.177
740.0,1.206
741.0,1.194
742.0,1.194
743.0,1.224
744.0,1.22
745.0,1.22
746.0,1.226
747.0,1.229
748.0,1.227
749.0,1.213
750.0,1.212
751.0,1.2
752.0,1.205
753.0,1.212
754.0,1.214
755.0,1.208
756.0,1.207
757.0,1.209
758.0,1.195
759.0,1.173
760.0,0.2527
761.0,0.145
762.0,0.6592
763.0,0.3639
764.0,0.5166
765.0,0.6598
766.0,0.7824
767.0,0.9599
768.0,1.086
769.0,1.104
770.0,1.137
771.0,1.144
772.0,1.146
773.0,1.154
774.0,1.148
775.0,1.139
776.0,1.153
777.0,1.138
778.0,1.131
779.0,1.133
780.0,1.126
781.0,1.128
782.0,1.135
783.0,1.115
784.0,1.12
785.0,1.112
786.0,1.125
787.0,1.108
788.0,1.095
789.0,1.095
790.0,1.07
791.0,1.076
792.0,1.068
793.0,1.051
794.0,1.065
795.0,1.084
796.0,1.056
797.0,1.057
798.0,1.084
799.0,1.078
800.0,1.061
801.0,1.058
802.0,1.055
803.0,1.048
804.0,1.049
805.0,1.045
806.0,1.072
807.0,1.06
808.0,1.06
809.0,1.042
810.0,1.035
811.0,1.039
812.0,1.012
813.0,0.993
814.0,0.8842
815.0,0.8786
816.0,0.8194
817.0,0.8332
818.0,0.8045
819.0,0.8903
820.0,0.8421
821.0,0.9718
822.0,0.9462
823.0,0.6637
824.0,0.9232
825.0,0.9559
826.0,0.9236
827.0,0.9707
828.0,0.8344
829.0,0.9174
830.0,0.9067
831.0,0.9096
832.0,0.8838
833.0,0.9345
834.0,0.9053
835.0,0.9866
836.0,0.9494
837.0,0.9892
838.0,0.9607
839.0,0.974
840.0,0.9949
841.0,0.9818
842.0,0.9825
843.0,0.9806
844.0,0.9679
845.0,0.9995
846.0,0.995
847.0,0.9761
848.0,0.9708
849.0,0.9433
850.0,0.9037
851.0,0.9576
852.0,0.9507
853.0,0.9146
854.0,0.7902
855.0,0.8676
856.0,0.9485
857.0,0.9693
858.0,0.9624
859.0,0.9631
860.0,0.9647
861.0,0.9596
862.0,0.9746
863.0,0.9977
864.0,0.9479
865.0,0.9396
866.0,0.8449
867.0,0.8818
868.0,0.9596
869.0,0.9397
870.0,0.9666
871.0,0.9535
872.0,0.9502
873.0,0.9483
874.0,0.9371
875.0,0.9182
876.0,0.9279
877.0,0.9373
878.0,0.9477
879.0,0.9331
880.0,0.9132
881.0,0.8999
882.0,0.9195
883.0,0.9222
884.0,0.9181
885.0,0.9251
886.0,0.8828
887.0,0.8914
888.0,0.9051
889.0,0.9146
890.0,0.9081
891.0,0.906
892.0,0.8813
893.0,0.8555
894.0,0.8288
895.0,0.7874
896.0,0.7437
897.0,0.6445
898.0,0.7001
899.0,0.5395
900.0,0.7135
901.0,0.5652
902.0,0.6543
903.0,0.6637
904.0,0.8231
905.0,0.7967
906.0,0.7471
907.0,0.6155
908.0,0.6265
909.0,0.6747
910.0,0.6038
911.0,0.6393
912.0,0.6668
913.0,0.6132
914.0,0.6068
915.0,0.6571
916.0,0.5584
917.0,0.7009
918.0,0.5728
919.0,0.7119
920.0,0.7156
921.0,0.7434
922.0,0.6697
923.0,0.7179
924.0,0.6868
925.0,0.672
926.0,0.6794
927.0,0.7558
928.0,0.5681
929.0,0.5222
930.0,0.4161
931.0,0.3934
932.0,0.289
933.0,0.2378
934.0,0.1367
935.0,0.241
936.0,0.1544
937.0,0.157
938.0,0.1915
939.0,0.3813
940.0,0.4548
941.0,0.3485
942.0,0.4003
943.0,0.2674
944.0,0.278
945.0,0.3585
946.0,0.188
947.0,0.3615
948.0,0.2665
949.0,0.4785
950.0,0.1414
951.0,0.4703
952.0,0.2599
953.0,0.331
954.0,0.4006
955.0,0.3342
956.0,0.3219
957.0,0.261
958.0,0.4488
959.0,0.3622
960.0,0.4058
961.0,0.4512
962.0,0.4274
963.0,0.489
964.0,0.4493
965.0,0.4869
966.0,0.4878
967.0,0.4861
968.0,0.6388
969.0,0.6683
970.0,0.6155
971.0,0.6989
972.0,0.6697
973.0,0.5888
974.0,0.5597
975.0,0.5788
976.0,0.5526
977.0,0.623
978.0,0.5943
979.0,0.6207
980.0,0.5848
981.0,0.6949
982.0,0.6666
983.0,0.6412
984.0,0.7139
985.0,0.6641
986.0,0.7251
987.0,0.7125
988.0,0.7112
989.0,0.7221
990.0,0.7069
991.0,0.7245
992.0,0.7286
993.0,0.7139
994.0,0.7283
995.0,0.7272
996.0,0.7242
997.0,0.7252
998.0,0.7219
999.0,0.7192
1000.0,0.7145
1001.0,0.7231
1002.0,0.7046
1003.0,0.7104
1004.0,0.6935
1005.0,0.6676
1006.0,0.694
1007.0,0.7086
1008.0,0.705
1009.0,0.7015
1010.0,0.6987
1011.0,0.705
1012.0,0.6992
1013.0,0.7033
1014.0,0.6984
1015.0,0.6939
1016.0,0.6908
1017.0,0.6926
1018.0,0.6899
1019.0,0.6757
1020.0,0.6864
1021.0,0.6854
1022.0,0.6803
1023.0,0.6875
1024.0,0.6792
1025.0,0.6869
1026.0,0.6842
1027.0,0.6826
1028.0,0.6812
1029.0,0.6732
1030.0,0.6777
1031.0,0.6751
1032.0,0.6731
1033.0,0.663
1034.0,0.663
1035.0,0.6651
1036.0,0.6686
1037.0,0.6578
1038.0,0.6607
1039.0,0.6604
1040.0,0.6577
1041.0,0.6604
1042.0,0.6559
1043.0,0.6538
1044.0,0.6562
1045.0,0.6473
1046.0,0.6402
1047.0,0.6461
1048.0,0.6497
1049.0,0.6474
1050.0,0.6445
1051.0,0.6436
1052.0,0.6411
1053.0,0.6361
1054.0,0.6375
1055.0,0.638
1056.0,0.6359
1057.0,0.634
1058.0,0.6185
1059.0,0.6193
1060.0,0.6184
1061.0,0.6177
1062.0,0.621
1063.0,0.615
1064.0,0.6223
1065.0,0.618
1066.0,0.6057
1067.0,0.6136
1068.0,0.6003
1069.0,0.5817
1070.0,0.6016
1071.0,0.6105
1072.0,0.6038
1073.0,0.5951
1074.0,0.6099
1075.0,0.5809
1076.0,0.6095
1077.0,0.5995
1078.0,0.5885
1079.0,0.5996
1080.0,0.5903
1081.0,0.5721
1082.0,0.5801
1083.0,0.5816
1084.0,0.5711
1085.0,0.5916
1086.0,0.5422
1087.0,0.5579
1088.0,0.5813
1089.0,0.5649
1090.0,0.5534
1091.0,0.5798
1092.0,0.5781
1093.0,0.4944
1094.0,0.5294
1095.0,0.5145
1096.0,0.4939
1097.0,0.5647
1098.0,0.4867
1099.0,0.507
1100.0,0.4732
1101.0,0.4786
1102.0,0.4583
1103.0,0.4546
1104.0,0.4551
1105.0,0.4959
1106.0,0.3865
1107.0,0.4724
1108.0,0.4048
1109.0,0.4047
1110.0,0.4688
1111.0,0.3239
1112.0,0.4013
1113.0,0.2615
1114.0,0.2916
1115.0,0.242
1116.0,0.1968
1117.0,0.07626
1118.0,0.2128
1119.0,0.1088
1120.0,0.137
1121.0,0.1799
1122.0,0.07843
1123.0,0.1237
1124.0,0.1045
1125.0,0.1355
1126.0,0.04986
1127.0,0.1526
1128.0,0.09422
1129.0,0.09955
1130.0,0.0667
1131.0,0.2826
1132.0,0.223
1133.0,0.145
1134.0,0.03926
1135.0,0.0146
1136.0,0.1223
1137.0,0.2787
1138.0,0.1972
1139.0,0.287
1140.0,0.2425
1141.0,0.1874
1142.0,0.2141
1143.0,0.3011
1144.0,0.1087
1145.0,0.1398
1146.0,0.1508
1147.0,0.05584
1148.0,0.2607
1149.0,0.2103
1150.0,0.1167
1151.0,0.1957
1152.0,0.2384
1153.0,0.2304
1154.0,0.136
1155.0,0.2996
1156.0,0.2712
1157.0,0.3021
1158.0,0.2988
1159.0,0.3205
1160.0,0.2761
1161.0,0.3358
1162.0,0.3378
1163.0,0.4485
1164.0,0.3876
1165.0,0.3684
1166.0,0.3639
1167.0,0.3949
1168.0,0.3999
1169.0,0.4083
1170.0,0.4414
1171.0,0.4308
1172.0,0.4372
1173.0,0.4405
1174.0,0.3212
1175.0,0.4293
1176.0,0.4686
1177.0,0.452
1178.0,0.3446
1179.0,0.4723
1180.0,0.4253
1181.0,0.4385
1182.0,0.3082
1183.0,0.431
1184.0,0.4058
1185.0,0.3932
1186.0,0.4606
1187.0,0.4405
1188.0,0.314
1189.0,0.4108
1190.0,0.4501
1191.0,0.4305
1192.0,0.4561
1193.0,0.4381
1194.0,0.4508
1195.0,0.4286
1196.0,0.4142
1197.0,0.4499
1198.0,0.4133
1199.0,0.3565
1200.0,0.4329
1201.0,0.4192
1202.0,0.4157
1203.0,0.4124
1204.0,0.3634
1205.0,0.4239
1206.0,0.4655
1207.0,0.4152
1208.0,0.4072
1209.0,0.4152
1210.0,0.4314
1211.0,0.4128
1212.0,0.41
1213.0,0.4514
1214.0,0.4188
1215.0,0.4114
1216.0,0.4498
1217.0,0.4389
1218.0,0.4463
1219.0,0.4413
1220.0,0.4466
1221.0,0.4505
1222.0,0.4394
1223.0,0.4357
1224.0,0.4338
1225.0,0.4477
1226.0,0.4501
1227.0,0.4178
1228.0,0.4518
1229.0,0.4502
1230.0,0.443
1231.0,0.4539
1232.0,0.4513
1233.0,0.4379
1234.0,0.4531
1235.0,0.4506
1236.0,0.4536
1237.0,0.4481
1238.0,0.4521
1239.0,0.4463
1240.0,0.4479
1241.0,0.4463
1242.0,0.4449
1243.0,0.4413
1244.0,0.4446
1245.0,0.4464
1246.0,0.4437
1247.0,0.4422
1248.0,0.4421
1249.0,0.4433
1250.0,0.4408
1251.0,0.4354
1252.0,0.4351
1253.0,0.4323
1254.0,0.4286
1255.0,0.4349
1256.0,0.424
1257.0,0.422
1258.0,0.4288
1259.0,0.4153
1260.0,0.4172
1261.0,0.3964
1262.0,0.3859
1263.0,0.3867
1264.0,0.3601
1265.0,0.3842
1266.0,0.3716
1267.0,0.3768
1268.0,0.3594
1269.0,0.237
1270.0,0.376
1271.0,0.3948
1272.0,0.3958
1273.0,0.3919
1274.0,0.3928
1275.0,0.398
1276.0,0.4013
1277.0,0.4034
1278.0,0.4101
1279.0,0.4065
1280.0,0.4013
1281.0,0.3825
1282.0,0.3677
1283.0,0.3962
1284.0,0.4058
1285.0,0.4084
1286.0,0.4135
1287.0,0.4079
1288.0,0.4076
1289.0,0.3963
1290.0,0.4039
1291.0,0.4093
1292.0,0.3875
1293.0,0.4021
1294.0,0.3994
1295.0,0.3982
1296.0,0.3822
1297.0,0.363
1298.0,0.3877
1299.0,0.4023
1300.0,0.3458
1301.0,0.3554
1302.0,0.3863
1303.0,0.3407
1304.0,0.2955
1305.0,0.3788
1306.0,0.3792
1307.0,0.3002
1308.0,0.3405
1309.0,0.3767
1310.0,0.2947
1311.0,0.3275
1312.0,0.3194
1313.0,0.3141
1314.0,0.2829
1315.0,0.2803
1316.0,0.3232
1317.0,0.3067
1318.0,0.3314
1319.0,0.2647
1320.0,0.2553
1321.0,0.2954
1322.0,0.2992
1323.0,0.2298
1324.0,0.2596
1325.0,0.3189
1326.0,0.2767
1327.0,0.2646
1328.0,0.2297
1329.0,0.1764
1330.0,0.2276
1331.0,0.142
1332.0,0.145
1333.0,0.2008
1334.0,0.168
1335.0,0.2289
1336.0,0.1834
1337.0,0.1634
1338.0,0.1768
1339.0,0.1754
1340.0,0.1694
1341.0,0.1681
1342.0,0.1764
1343.0,0.1249
1344.0,0.07459
1345.0,0.1071
1346.0,0.05683
1347.0,0.0584
1348.0,0.004479
1349.0,0.01533
1350.0,0.01538
1351.0,0.004343
1352.0,0.001375
1353.0,8.418e-05
1354.0,0.0002586
1355.0,3.015e-06
1356.0,4.173e-05
1357.0,6.323e-05
1358.0,3.518e-06
1359.0,5.831e-07
1360.0,1.775e-06
1361.0,3.568e-09
1362.0,1.266e-11
1363.0,2.59e-06
1364.0,1.098e-06
1365.0,6.086e-12
1366.0,1.052e-05
1367.0,4.139e-06
1368.0,8.794e-14
1369.0,4.176e-07
1370.0,2.311e-07
1371.0,1.521e-08
1372.0,2.28e-06
1373.0,3.811e-05
1374.0,0.000156
1375.0,0.0002839
1376.0,0.0002313
1377.0,0.0001091
1378.0,0.001004
1379.0,4.617e-05
1380.0,7.171e-05
1381.0,2.037e-06
1382.0,2.124e-06
1383.0,3.566e-08
1384.0,4.941e-07
1385.0,1.77e-06
1386.0,2.048e-06
1387.0,0.0001739
1388.0,3.494e-06
1389.0,0.000515
1390.0,0.0004433
1391.0,0.0003047
1392.0,2.082e-05
1393.0,0.0001029
1394.0,6.499e-05
1395.0,5.594e-07
1396.0,4.758e-09
1397.0,4.32e-05
1398.0,0.001142
1399.0,0.0007236
1400.0,2.392e-09
1401.0,8.097e-09
1402.0,0.001705
1403.0,0.002209
1404.0,0.0006826
1405.0,3.008e-07
1406.0,0.001869
1407.0,0.0001604
1408.0,0.001516
1409.0,0.0005589
1410.0,0.0004236
1411.0,0.001932
1412.0,0.002495
1413.0,0.02254
1414.0,0.0003307
1415.0,0.0001661
1416.0,0.03462
1417.0,0.01124
1418.0,0.01289
1419.0,0.002037
1420.0,0.007917
1421.0,0.008587
1422.0,0.04498
1423.0,0.00892
1424.0,0.01653
1425.0,0.02461
1426.0,0.02723
1427.0,0.0485
1428.0,0.004262
1429.0,0.03697
1430.0,0.06128
1431.0,0.06689
1432.0,0.003375
1433.0,0.04313
1434.0,0.02223
1435.0,0.0232
1436.0,0.04324
1437.0,0.03313
1438.0,0.01441
1439.0,0.05813
1440.0,0.04361
1441.0,0.03395
1442.0,0.03754
1443.0,0.04606
1444.0,0.06331
1445.0,0.0504
1446.0,0.02294
1447.0,0.03609
1448.0,0.1162
1449.0,0.1017
1450.0,0.02673
1451.0,0.01093
1452.0,0.06199
1453.0,0.08096
1454.0,0.1364
1455.0,0.06527
1456.0,0.08812
1457.0,0.1167
1458.0,0.1362
1459.0,0.1613
1460.0,0.08474
1461.0,0.08912
1462.0,0.1295
1463.0,0.04262
1464.0,0.1524
