interpolation:linear
wavelength,value
280.0,3.488e-24
280.5,1.198e-22
281.0,6.6489999999999995e-22
281.5,2.2130000000000003e-20
282.0,1.833e-19
282.5,7.219e-19
283.0,3.278e-18
283.5,6.269e-18
284.0,1.698e-16
284.5,5.988e-16
285.0,1.437e-15
285.5,1.135e-14
286.0,5.385e-14
286.5,3.159e-13
287.0,1.08e-12
287.5,5.053e-12
288.0,2.335e-11
288.5,9.395e-11
289.0,3.188e-10
289.5,1.202e-09
290.0,3.938e-09
290.5,9.182e-09
291.0,2.276e-08
291.5,7.675e-08
292.0,1.985e-07
292.5,3.02e-07
293.0,7.102e-07
293.5,1.93e-06
294.0,3.281e-06
294.5,5.843e-06
295.0,1.043e-05
295.5,2.566e-05
296.0,4.668e-05
296.5,6.144e-05
297.0,7.907e-05
297.5,0.0001955
298.0,0.0002872
298.5,0.0002735
299.0,0.000571
299.5,0.0008538
300.0,0.000888
300.5,0.001212
301.0,0.001979
301.5,0.002871
302.0,0.002349
302.5,0.004427
303.0,0.007567
303.5,0.009233
304.0,0.008469
304.5,0.01174
305.0,0.016
305.5,0.01718
306.0,0.01628
306.5,0.0195
307.0,0.02635
307.5,0.03206
308.0,0.03355
308.5,0.03807
309.0,0.03381
309.5,0.03736
310.0,0.03699
310.5,0.05963
311.0,0.07391
311.5,0.07117
312.0,0.06855
312.5,0.0814
313.0,0.08737
313.5,0.08662
314.0,0.1049
314.5,0.08875
315.0,0.1162
315.5,0.1002
316.0,0.08427
316.5,0.117
317.0,0.1462
317.5,0.1546
318.0,0.118
318.5,0.1397
319.0,0.1622
319.5,0.1387
320.0,0.1695
320.5,0.2018
321.0,0.1718
321.5,0.1646
322.0,0.1861
322.5,0.1622
323.0,0.1567
323.5,0.182
324.0,0.2121
324.5,0.2199
325.0,0.1995
325.5,0.2504
326.0,0.2966
326.5,0.292
327.0,0.2947
327.5,0.2888
328.0,0.2656
328.5,0.271
329.0,0.3171
329.5,0.3585
330.0,0.3657
330.5,0.3002
331.0,0.3093
331.5,0.3108
332.0,0.3295
332.5,0.3239
333.0,0.3263
333.5,0.3016
334.0,0.311
334.5,0.3535
335.0,0.3298
335.5,0.3752
336.0,0.2605
336.5,0.3175
337.0,0.2636
337.5,0.33
338.0,0.3185
338.5,0.3601
339.0,0.3597
339.5,0.3459
340.0,0.4172
340.5,0.3768
341.0,0.3622
341.5,0.3366
342.0,0.4044
342.5,0.3804
343.0,0.418
343.5,0.3936
344.0,0.2959
344.5,0.2934
345.0,0.3938
345.5,0.4047
346.0,0.3458
346.5,0.3932
347.0,0.4222
347.5,0.342
348.0,0.3927
348.5,0.3945
349.0,0.3674
349.5,0.3647
350.0,0.4525
350.5,0.4787
351.0,0.4284
351.5,0.4156
352.0,0.4491
352.5,0.3522
353.0,0.4454
353.5,0.478
354.0,0.4979
354.5,0.5065
355.0,0.5061
355.5,0.4585
356.0,0.4812
356.5,0.4121
357.0,0.3415
357.5,0.4194
358.0,0.3334
358.5,0.2857
359.0,0.4007
359.5,0.5117
360.0,0.5441
360.5,0.4362
361.0,0.3987
361.5,0.4601
362.0,0.3988
362.5,0.5531
363.0,0.4979
363.5,0.4596
364.0,0.5634
364.5,0.4828
365.0,0.4929
365.5,0.6201
366.0,0.6585
366.5,0.6201
367.0,0.6054
367.5,0.6298
368.0,0.5524
368.5,0.5586
369.0,0.6047
369.5,0.646
370.0,0.6902
370.5,0.5369
371.0,0.5749
371.5,0.7209
372.0,0.4796
372.5,0.5763
373.0,0.5874
373.5,0.383
374.0,0.5577
374.5,0.4628
375.0,0.4509
375.5,0.6747
376.0,0.5605
376.5,0.5822
377.0,0.6176
377.5,0.724
378.0,0.7865
378.5,0.7451
379.0,0.6164
379.5,0.5644
380.0,0.5881
380.5,0.7137
381.0,0.7166
381.5,0.5691
382.0,0.5064
382.5,0.4325
383.0,0.4012
383.5,0.3871
384.0,0.4278
384.5,0.6304
385.0,0.6263
385.5,0.5843
386.0,0.5014
386.5,0.6598
387.0,0.5493
387.5,0.6182
388.0,0.5718
388.5,0.5662
389.0,0.6124
389.5,0.743
390.0,0.747
390.5,0.6887
391.0,0.8121
391.5,0.8299
392.0,0.7003
392.5,0.628
393.0,0.35
393.5,0.2548
394.0,0.5193
394.5,0.6613
395.0,0.8083
395.5,0.8226
396.0,0.7144
396.5,0.4182
397.0,0.3144
397.5,0.6404
398.0,0.8984
398.5,0.9301
399.0,1.008
399.5,1.007
400.0,1.047
401.0,1.078
402.0,1.141
403.0,1.087
404.0,1.073
405.0,1.076
406.0,1.061
407.0,1.047
408.0,1.091
409.0,1.17
410.0,1.025
411.0,1.113
412.0,1.198
413.0,1.171
414.0,1.188
415.0,1.194
416.0,1.217
417.0,1.191
418.0,1.171
419.0,1.189
420.0,1.187
421.0,1.245
422.0,1.186
423.0,1.161
424.0,1.231
425.0,1.231
426.0,1.201
427.0,1.181
428.0,1.153
429.0,1.093
430.0,0.9587
431.0,0.9526
432.0,1.232
433.0,1.241
434.0,1.155
435.0,1.209
436.0,1.364
437.0,1.347
438.0,1.228
439.0,1.274
440.0,1.316
441.0,1.366
442.0,1.468
443.0,1.433
444.0,1.466
445.0,1.437
446.0,1.373
447.0,1.486
448.0,1.512
449.0,1.52
450.0,1.564
451.0,1.625
452.0,1.568
453.0,1.477
454.0,1.543
455.0,1.555
456.0,1.595
457.0,1.624
458.0,1.571
459.0,1.565
460.0,1.572
461.0,1.61
462.0,1.624
463.0,1.616
464.0,1.59
465.0,1.571
466.0,1.588
467.0,1.562
468.0,1.582
469.0,1.593
470.0,1.544
471.0,1.544
472.0,1.629
473.0,1.61
474.0,1.615
475.0,1.632
476.0,1.587
477.0,1.594
478.0,1.64
479.0,1.632
480.0,1.636
481.0,1.668
482.0,1.677
483.0,1.658
484.0,1.625
485.0,1.55
486.0,1.355
487.0,1.422
488.0,1.561
489.0,1.569
490.0,1.651
491.0,1.624
492.0,1.535
493.0,1.587
494.0,1.604
495.0,1.62
496.0,1.631
497.0,1.658
498.0,1.582
499.0,1.605
500.0,1.56
501.0,1.534
502.0,1.515
503.0,1.58
504.0,1.546
505.0,1.599
506.0,1.652
507.0,1.573
508.0,1.524
509.0,1.567
510.0,1.56
511.0,1.602
512.0,1.62
513.0,1.535
514.0,1.525
515.0,1.511
516.0,1.509
517.0,1.342
518.0,1.412
519.0,1.482
520.0,1.537
521.0,1.553
522.0,1.556
523.0,1.53
524.0,1.586
525.0,1.607
526.0,1.537
527.0,1.45
528.0,1.536
529.0,1.62
530.0,1.598
531.0,1.624
532.0,1.569
533.0,1.524
534.0,1.57
535.0,1.605
536.0,1.62
537.0,1.557
538.0,1.585
539.0,1.573
540.0,1.509
541.0,1.521
542.0,1.571
543.0,1.554
544.0,1.583
545.0,1.579
546.0,1.588
547.0,1.587
548.0,1.569
549.0,1.574
550.0,1.594
551.0,1.575
552.0,1.587
553.0,1.56
554.0,1.598
555.0,1.602
556.0,1.583
557.0,1.535
558.0,1.525
559.0,1.498
560.0,1.518
561.0,1.539
562.0,1.529
563.0,1.573
564.0,1.532
565.0,1.52
566.0,1.499
567.0,1.529
568.0,1.518
569.0,1.487
570.0,1.487
571.0,1.477
572.0,1.517
573.0,1.534
574.0,1.53
575.0,1.503
576.0,1.49
577.0,1.507
578.0,1.484
579.0,1.488
580.0,1.514
581.0,1.521
582.0,1.548
583.0,1.551
584.0,1.564
585.0,1.526
586.0,1.495
587.0,1.53
588.0,1.499
589.0,1.339
590.0,1.4
591.0,1.475
592.0,1.461
593.0,1.479
594.0,1.471
595.0,1.439
596.0,1.488
597.0,1.474
598.0,1.469
599.0,1.469
600.0,1.47
601.0,1.457
602.0,1.447
603.0,1.471
604.0,1.495
605.0,1.488
606.0,1.481
607.0,1.496
608.0,1.479
609.0,1.481
610.0,1.47
611.0,1.478
612.0,1.474
613.0,1.455
614.0,1.435
615.0,1.466
616.0,1.418
617.0,1.415
618.0,1.47
619.0,1.455
620.0,1.465
621.0,1.467
622.0,1.451
623.0,1.43
624.0,1.406
625.0,1.403
626.0,1.424
627.0,1.442
628.0,1.369
629.0,1.417
630.0,1.385
631.0,1.409
632.0,1.392
633.0,1.431
634.0,1.415
635.0,1.437
636.0,1.417
637.0,1.439
638.0,1.452
639.0,1.435
640.0,1.421
641.0,1.419
642.0,1.413
643.0,1.432
644.0,1.427
645.0,1.43
646.0,1.4
647.0,1.389
648.0,1.392
649.0,1.365
650.0,1.365
651.0,1.423
652.0,1.372
653.0,1.404
654.0,1.388
655.0,1.341
656.0,1.186
657.0,1.218
658.0,1.363
659.0,1.372
660.0,1.377
661.0,1.387
662.0,1.392
663.0,1.364
664.0,1.378
665.0,1.378
666.0,1.379
667.0,1.377
668.0,1.377
669.0,1.398
670.0,1.392
671.0,1.392
672.0,1.38
673.0,1.401
674.0,1.395
675.0,1.383
676.0,1.392
677.0,1.378
678.0,1.382
679.0,1.36
680.0,1.371
681.0,1.362
682.0,1.361
683.0,1.358
684.0,1.352
685.0,1.363
686.0,1.356
687.0,0.9971
688.0,1.122
689.0,1.124
690.0,1.164
691.0,1.208
692.0,1.239
693.0,1.23
694.0,1.221
695.0,1.26
696.0,1.262
697.0,1.324
698.0,1.304
699.0,1.283
700.0,1.268
701.0,1.258
702.0,1.263
703.0,1.266
704.0,1.301
705.0,1.303
706.0,1.3
707.0,1.3
708.0,1.304
709.0,1.302
710.0,1.304
711.0,1.301
712.0,1.296
713.0,1.285
714.0,1.289
715.0,1.252
716.0,1.254
717.0,1.124
718.0,1.039
719.0,0.9563
720.0,1.004
721.0,1.086
722.0,1.218
723.0,1.147
724.0,1.048
725.0,1.037
726.0,1.082
727.0,1.09
728.0,1.036
729.0,1.062
730.0,1.123
731.0,1.079
732.0,1.141
733.0,1.194
734.0,1.219
735.0,1.196
736.0,1.195
737.0,1.2
738.0,1.21
739.0,1.187
740.0,1.215
741.0,1.202
742.0,1.202
743.0,1.232
744.0,1.228
745.0,1.227
746.0,1.233
747.0,1.236
748.0,1.233
749.0,1.219
750.0,1.219
751.0,1.206
752.0,1.212
753.0,1.218
754.0,1.221
755.0,1.214
756.0,1.214
757.0,1.216
758.0,1.201
759.0,1.182
760.0,0.3004
761.0,0.183
762.0,0.7049
763.0,0.4158
764.0,0.5679
765.0,0.7056
766.0,0.8177
767.0,0.9848
768.0,1.1
769.0,1.115
770.0,1.144
771.0,1.15
772.0,1.151
773.0,1.159
774.0,1.153
775.0,1.145
776.0,1.158
777.0,1.143
778.0,1.137
779.0,1.138
780.0,1.131
781.0,1.133
782.0,1.14
783.0,1.12
784.0,1.125
785.0,1.117
786.0,1.13
787.0,1.114
788.0,1.102
789.0,1.102
790.0,1.079
791.0,1.083
792.0,1.074
793.0,1.058
794.0,1.07
795.0,1.09
796.0,1.064
797.0,1.066
798.0,1.09
799.0,1.084
800.0,1.067
801.0,1.066
802.0,1.063
803.0,1.056
804.0,1.056
805.0,1.051
806.0,1.077
807.0,1.065
808.0,1.066
809.0,1.048
810.0,1.042
811.0,1.047
812.0,1.022
813.0,1.005
814.0,0.9019
815.0,0.8959
816.0,0.8368
817.0,0.8498
818.0,0.8222
819.0,0.9033
820.0,0.8571
821.0,0.9803
822.0,0.956
823.0,0.6852
824.0,0.9356
825.0,0.9648
826.0,0.9347
827.0,0.9795
828.0,0.8501
829.0,0.928
830.0,0.918
831.0,0.9206
832.0,0.896
833.0,0.9431
834.0,0.9162
835.0,0.9929
836.0,0.959
837.0,0.9953
838.0,0.9681
839.0,0.9796
840.0,1.0
841.0,0.9877
842.0,0.9874
843.0,0.9844
844.0,0.9722
845.0,1.003
846.0,0.9984
847.0,0.9792
848.0,0.9743
849.0,0.9467
850.0,0.9069
851.0,0.9615
852.0,0.9543
853.0,0.9177
854.0,0.7932
855.0,0.8704
856.0,0.9518
857.0,0.9723
858.0,0.9655
859.0,0.966
860.0,0.9674
861.0,0.9623
862.0,0.9773
863.0,1.0
864.0,0.9505
865.0,0.9421
866.0,0.8472
867.0,0.8841
868.0,0.9621
869.0,0.9422
870.0,0.9691
871.0,0.956
872.0,0.9526
873.0,0.9508
874.0,0.9395
875.0,0.9206
876.0,0.9303
877.0,0.9397
878.0,0.9501
879.0,0.9355
880.0,0.9155
881.0,0.9024
882.0,0.9222
883.0,0.9246
884.0,0.9206
885.0,0.9277
886.0,0.8861
887.0,0.8941
888.0,0.9083
889.0,0.9169
890.0,0.9113
891.0,0.9088
892.0,0.8851
893.0,0.8608
894.0,0.8366
895.0,0.7983
896.0,0.7558
897.0,0.6602
898.0,0.7141
899.0,0.5567
900.0,0.7247
901.0,0.5828
902.0,0.6664
903.0,0.6786
904.0,0.8308
905.0,0.8057
906.0,0.757
907.0,0.6311
908.0,0.6414
909.0,0.6871
910.0,0.6214
911.0,0.6541
912.0,0.6806
913.0,0.6313
914.0,0.6236
915.0,0.6745
916.0,0.5755
917.0,0.7148
918.0,0.5904
919.0,0.7244
920.0,0.7251
921.0,0.7523
922.0,0.6824
923.0,0.7263
924.0,0.7
925.0,0.6851
926.0,0.6926
927.0,0.7659
928.0,0.5888
929.0,0.5448
930.0,0.4399
931.0,0.4148
932.0,0.3107
933.0,0.2591
934.0,0.1561
935.0,0.2597
936.0,0.1709
937.0,0.1745
938.0,0.211
939.0,0.4021
940.0,0.4756
941.0,0.3702
942.0,0.4213
943.0,0.286
944.0,0.2935
945.0,0.3798
946.0,0.2053
947.0,0.3845
948.0,0.2846
949.0,0.5027
950.0,0.1588
951.0,0.493
952.0,0.2809
953.0,0.3523
954.0,0.4205
955.0,0.355
956.0,0.3395
957.0,0.283
958.0,0.4645
959.0,0.3813
960.0,0.427
961.0,0.4699
962.0,0.4459
963.0,0.5059
964.0,0.4663
965.0,0.503
966.0,0.5052
967.0,0.5038
968.0,0.6477
969.0,0.6784
970.0,0.6271
971.0,0.7057
972.0,0.6774
973.0,0.602
974.0,0.5733
975.0,0.5902
976.0,0.5668
977.0,0.6325
978.0,0.6061
979.0,0.6309
980.0,0.5958
981.0,0.7013
982.0,0.6749
983.0,0.6506
984.0,0.7179
985.0,0.6723
986.0,0.7277
987.0,0.7165
988.0,0.7153
989.0,0.7238
990.0,0.7108
991.0,0.7263
992.0,0.7302
993.0,0.7171
994.0,0.7298
995.0,0.7284
996.0,0.7257
997.0,0.7266
998.0,0.7233
999.0,0.7206
1000.0,0.7163
1001.0,0.7244
1002.0,0.7075
1003.0,0.7119
1004.0,0.6952
1005.0,0.6687
1006.0,0.6954
1007.0,0.7099
1008.0,0.7066
1009.0,0.7035
1010.0,0.7008
1011.0,0.7063
1012.0,0.7008
1013.0,0.7045
1014.0,0.6996
1015.0,0.6951
1016.0,0.692
1017.0,0.6939
1018.0,0.691
1019.0,0.6774
1020.0,0.6876
1021.0,0.6865
1022.0,0.6816
1023.0,0.6889
1024.0,0.6811
1025.0,0.6881
1026.0,0.6854
1027.0,0.6838
1028.0,0.6825
1029.0,0.6746
1030.0,0.6788
1031.0,0.6763
1032.0,0.6742
1033.0,0.6641
1034.0,0.6641
1035.0,0.6662
1036.0,0.6698
1037.0,0.6589
1038.0,0.6619
1039.0,0.6616
1040.0,0.6589
1041.0,0.6617
1042.0,0.6571
1043.0,0.6551
1044.0,0.6575
1045.0,0.6487
1046.0,0.6416
1047.0,0.6474
1048.0,0.6511
1049.0,0.6489
1050.0,0.646
1051.0,0.6452
1052.0,0.6427
1053.0,0.6378
1054.0,0.6393
1055.0,0.6399
1056.0,0.6378
1057.0,0.636
1058.0,0.6205
1059.0,0.6214
1060.0,0.6205
1061.0,0.6199
1062.0,0.6234
1063.0,0.6174
1064.0,0.6247
1065.0,0.6206
1066.0,0.608
1067.0,0.616
1068.0,0.6029
1069.0,0.584
1070.0,0.6042
1071.0,0.6126
1072.0,0.6063
1073.0,0.5974
1074.0,0.6117
1075.0,0.5843
1076.0,0.6114
1077.0,0.6023
1078.0,0.5916
1079.0,0.6012
1080.0,0.5931
1081.0,0.5756
1082.0,0.5822
1083.0,0.5833
1084.0,0.5751
1085.0,0.5942
1086.0,0.5473
1087.0,0.5612
1088.0,0.5834
1089.0,0.5684
1090.0,0.5581
1091.0,0.5823
1092.0,0.5802
1093.0,0.5012
1094.0,0.532
1095.0,0.5208
1096.0,0.5014
1097.0,0.5667
1098.0,0.4946
1099.0,0.5144
1100.0,0.4825
1101.0,0.4873
1102.0,0.4679
1103.0,0.4652
1104.0,0.4656
1105.0,0.5036
1106.0,0.4012
1107.0,0.4814
1108.0,0.4178
1109.0,0.4167
1110.0,0.4784
1111.0,0.3376
1112.0,0.4127
1113.0,0.2765
1114.0,0.3073
1115.0,0.2553
1116.0,0.2123
1117.0,0.08779
1118.0,0.2277
1119.0,0.1207
1120.0,0.152
1121.0,0.1969
1122.0,0.08957
1123.0,0.1372
1124.0,0.1159
1125.0,0.1493
1126.0,0.05871
1127.0,0.1678
1128.0,0.1076
1129.0,0.113
1130.0,0.07766
1131.0,0.3015
1132.0,0.2397
1133.0,0.1608
1134.0,0.04684
1135.0,0.0173
1136.0,0.1374
1137.0,0.2987
1138.0,0.2125
1139.0,0.3004
1140.0,0.2573
1141.0,0.2019
1142.0,0.2288
1143.0,0.3179
1144.0,0.1197
1145.0,0.1549
1146.0,0.1671
1147.0,0.0659
1148.0,0.2754
1149.0,0.2251
1150.0,0.1283
1151.0,0.211
1152.0,0.2537
1153.0,0.2428
1154.0,0.1517
1155.0,0.3136
1156.0,0.2857
1157.0,0.3158
1158.0,0.3122
1159.0,0.3324
1160.0,0.2894
1161.0,0.3468
1162.0,0.3492
1163.0,0.4553
1164.0,0.3966
1165.0,0.3797
1166.0,0.3733
1167.0,0.4035
1168.0,0.4091
1169.0,0.4167
1170.0,0.4481
1171.0,0.4377
1172.0,0.4429
1173.0,0.4472
1174.0,0.3327
1175.0,0.4348
1176.0,0.4716
1177.0,0.4568
1178.0,0.3534
1179.0,0.4751
1180.0,0.4313
1181.0,0.4443
1182.0,0.3178
1183.0,0.4359
1184.0,0.4122
1185.0,0.401
1186.0,0.4646
1187.0,0.4459
1188.0,0.3241
1189.0,0.4162
1190.0,0.454
1191.0,0.4368
1192.0,0.4597
1193.0,0.4426
1194.0,0.4548
1195.0,0.4341
1196.0,0.4207
1197.0,0.4528
1198.0,0.4175
1199.0,0.3643
1200.0,0.4374
1201.0,0.425
1202.0,0.4207
1203.0,0.4174
1204.0,0.3702
1205.0,0.4278
1206.0,0.4674
1207.0,0.4206
1208.0,0.4112
1209.0,0.419
1210.0,0.4344
1211.0,0.4173
1212.0,0.4162
1213.0,0.454
1214.0,0.4242
1215.0,0.4171
1216.0,0.4524
1217.0,0.4423
1218.0,0.4489
1219.0,0.4442
1220.0,0.4492
1221.0,0.4527
1222.0,0.442
1223.0,0.4386
1224.0,0.4372
1225.0,0.4499
1226.0,0.4518
1227.0,0.4214
1228.0,0.4531
1229.0,0.4518
1230.0,0.445
1231.0,0.4547
1232.0,0.4522
1233.0,0.4403
1234.0,0.4536
1235.0,0.4513
1236.0,0.4541
1237.0,0.4493
1238.0,0.4526
1239.0,0.4468
1240.0,0.4484
1241.0,0.4471
1242.0,0.4454
1243.0,0.4417
1244.0,0.4452
1245.0,0.4469
1246.0,0.4442
1247.0,0.4428
1248.0,0.4429
1249.0,0.4439
1250.0,0.4415
1251.0,0.4364
1252.0,0.4358
1253.0,0.4335
1254.0,0.4302
1255.0,0.4357
1256.0,0.4258
1257.0,0.4239
1258.0,0.43
1259.0,0.418
1260.0,0.4198
1261.0,0.4008
1262.0,0.3912
1263.0,0.3921
1264.0,0.3676
1265.0,0.3895
1266.0,0.3781
1267.0,0.3825
1268.0,0.3664
1269.0,0.253
1270.0,0.382
1271.0,0.3989
1272.0,0.3997
1273.0,0.396
1274.0,0.3966
1275.0,0.4015
1276.0,0.4045
1277.0,0.4061
1278.0,0.412
1279.0,0.4085
1280.0,0.4032
1281.0,0.3839
1282.0,0.3685
1283.0,0.3972
1284.0,0.407
1285.0,0.4094
1286.0,0.4142
1287.0,0.4093
1288.0,0.4088
1289.0,0.3987
1290.0,0.405
1291.0,0.4101
1292.0,0.3907
1293.0,0.4035
1294.0,0.4009
1295.0,0.4003
1296.0,0.3857
1297.0,0.3676
1298.0,0.3902
1299.0,0.4035
1300.0,0.3511
1301.0,0.3599
1302.0,0.3887
1303.0,0.3455
1304.0,0.3037
1305.0,0.3815
1306.0,0.3821
1307.0,0.3071
1308.0,0.3446
1309.0,0.3799
1310.0,0.3017
1311.0,0.3324
1312.0,0.3249
1313.0,0.32
1314.0,0.2897
1315.0,0.288
1316.0,0.3287
1317.0,0.3124
1318.0,0.3358
1319.0,0.2733
1320.0,0.2624
1321.0,0.302
1322.0,0.3065
1323.0,0.2396
1324.0,0.268
1325.0,0.3245
1326.0,0.2842
1327.0,0.2725
1328.0,0.2379
1329.0,0.1862
1330.0,0.2385
1331.0,0.1533
1332.0,0.1551
1333.0,0.2133
1334.0,0.1769
1335.0,0.2386
1336.0,0.1934
1337.0,0.1738
1338.0,0.1877
1339.0,0.1857
1340.0,0.1783
1341.0,0.1794
1342.0,0.1881
1343.0,0.139
1344.0,0.08293
1345.0,0.1182
1346.0,0.0668
1347.0,0.06927
1348.0,0.006245
1349.0,0.02032
1350.0,0.01968
1351.0,0.006404
1352.0,0.002325
1353.0,0.0001699
1354.0,0.0004702
1355.0,7.686e-06
1356.0,8.561e-05
1357.0,0.0001288
1358.0,8.849e-06
1359.0,1.863e-06
1360.0,4.864e-06
1361.0,1.664e-08
1362.0,7.6e-11
1363.0,7.426e-06
1364.0,3.27e-06
1365.0,4.772e-11
1366.0,2.82e-05
1367.0,1.09e-05
1368.0,1.189e-12
1369.0,1.271e-06
1370.0,7.768e-07
1371.0,5.889e-08
1372.0,6.034e-06
1373.0,8.438e-05
1374.0,0.0003074
1375.0,0.0005533
1376.0,0.0004183
1377.0,0.0002034
1378.0,0.001744
1379.0,8.693e-05
1380.0,0.0001435
1381.0,4.465e-06
1382.0,5.775e-06
1383.0,1.093e-07
1384.0,1.559e-06
1385.0,4.328e-06
1386.0,5.944e-06
1387.0,0.0003609
1388.0,7.591e-06
1389.0,0.0009511
1390.0,0.000815
1391.0,0.0005796
1392.0,4.203e-05
1393.0,0.0001937
1394.0,0.0001449
1395.0,1.47e-06
1396.0,2.073e-08
1397.0,8.538e-05
1398.0,0.001996
1399.0,0.001268
1400.0,1.188e-08
1401.0,3.354e-08
1402.0,0.002585
1403.0,0.003431
1404.0,0.001074
1405.0,8.63e-07
1406.0,0.003058
1407.0,0.0002608
1408.0,0.002468
1409.0,0.0009901
1410.0,0.0007223
1411.0,0.002989
1412.0,0.003706
1413.0,0.02914
1414.0,0.0005593
1415.0,0.0002936
1416.0,0.04179
1417.0,0.01484
1418.0,0.017
1419.0,0.002756
1420.0,0.0105
1421.0,0.01153
1422.0,0.05387
1423.0,0.01106
1424.0,0.0202
1425.0,0.03041
1426.0,0.03261
1427.0,0.05551
1428.0,0.006005
1429.0,0.04344
1430.0,0.0693
1431.0,0.07494
1432.0,0.004794
1433.0,0.04937
1434.0,0.02597
1435.0,0.02887
1436.0,0.05105
1437.0,0.03916
1438.0,0.01785
1439.0,0.06734
1440.0,0.05073
1441.0,0.04084
1442.0,0.04479
1443.0,0.05294
1444.0,0.07197
1445.0,0.05892
1446.0,0.02732
1447.0,0.043
1448.0,0.1264
1449.0,0.1124
1450.0,0.0318
1451.0,0.01346
1452.0,0.07013
1453.0,0.09054
1454.0,0.1465
1455.0,0.07242
1456.0,0.0987
1457.0,0.1271
1458.0,0.1448
1459.0,0.1719
1460.0,0.09229
1461.0,0.09856
1462.0,0.1402
1463.0,0.0483
1464.0,0.162
1465.0,0.09844
1466.0,0.07346
1467.0,0.04116
