interpolation:linear
wavelength,value
280.0,1.6690000000000001e-21
280.5,3.8740000000000005e-20
281.0,1.863e-19
281.5,4.241e-18
282.0,2.789e-17
282.5,9.406e-17
283.0,3.6e-16
283.5,6.323e-16
284.0,1.153e-14
284.5,3.394e-14
285.0,6.7e-14
285.5,4.207e-13
286.0,1.818e-12
286.5,8.81e-12
287.0,2.616e-11
287.5,1.017e-10
288.0,3.725e-10
288.5,1.324e-09
289.0,3.955e-09
289.5,1.296e-08
290.0,3.786e-08
290.5,8.017e-08
291.0,1.77e-07
291.5,5.152e-07
292.0,1.182e-06
292.5,1.681e-06
293.0,3.625e-06
293.5,8.752e-06
294.0,1.374e-05
294.5,2.305e-05
295.0,3.813e-05
295.5,8.545e-05
296.0,0.0001458
296.5,0.0001806
297.0,0.0002215
297.5,0.0005121
298.0,0.0007124
298.5,0.0006515
299.0,0.001309
299.5,0.001843
300.0,0.001858
300.5,0.002457
301.0,0.003837
301.5,0.00537
302.0,0.004317
302.5,0.007885
303.0,0.01298
303.5,0.01549
304.0,0.01406
304.5,0.019
305.0,0.02506
305.5,0.02638
306.0,0.0248
306.5,0.02933
307.0,0.03868
307.5,0.04603
308.0,0.04795
308.5,0.05382
309.0,0.04738
309.5,0.05118
310.0,0.05013
310.5,0.08036
311.0,0.09874
311.5,0.09466
312.0,0.08968
312.5,0.1054
313.0,0.1124
313.5,0.1118
314.0,0.1337
314.5,0.1115
315.0,0.1454
315.5,0.1262
316.0,0.1048
316.5,0.1441
317.0,0.1799
317.5,0.1905
318.0,0.1444
318.5,0.169
319.0,0.195
319.5,0.168
320.0,0.2053
320.5,0.2418
321.0,0.2039
321.5,0.1951
322.0,0.2222
322.5,0.1934
323.0,0.1855
323.5,0.2134
324.0,0.2481
324.5,0.2579
325.0,0.2352
325.5,0.2937
326.0,0.3454
326.5,0.3385
327.0,0.3417
327.5,0.3351
328.0,0.3097
328.5,0.3136
329.0,0.3651
329.5,0.412
330.0,0.4202
330.5,0.3458
331.0,0.3564
331.5,0.3569
332.0,0.3769
332.5,0.3697
333.0,0.3724
333.5,0.3447
334.0,0.3554
334.5,0.4025
335.0,0.3748
335.5,0.4257
336.0,0.2953
336.5,0.3601
337.0,0.2991
337.5,0.3743
338.0,0.3602
338.5,0.4067
339.0,0.4058
339.5,0.39
340.0,0.4705
340.5,0.4246
341.0,0.4074
341.5,0.3783
342.0,0.4541
342.5,0.4268
343.0,0.4687
343.5,0.4412
344.0,0.3318
344.5,0.3286
345.0,0.4404
345.5,0.4522
346.0,0.3861
346.5,0.4387
347.0,0.4708
347.5,0.3811
348.0,0.4373
348.5,0.4391
349.0,0.4085
349.5,0.4052
350.0,0.5025
350.5,0.5313
351.0,0.4752
351.5,0.4608
352.0,0.4976
352.5,0.39
353.0,0.4928
353.5,0.5285
354.0,0.5503
354.5,0.5595
355.0,0.5587
355.5,0.5059
356.0,0.5306
356.5,0.4542
357.0,0.3763
357.5,0.4618
358.0,0.3669
358.5,0.3143
359.0,0.4406
359.5,0.5625
360.0,0.5977
360.5,0.4789
361.0,0.4375
361.5,0.5046
362.0,0.437
362.5,0.6057
363.0,0.5448
363.5,0.5027
364.0,0.6159
364.5,0.5275
365.0,0.5382
365.5,0.6769
366.0,0.7183
366.5,0.6761
367.0,0.6597
367.5,0.686
368.0,0.6014
368.5,0.6079
369.0,0.6576
369.5,0.7023
370.0,0.7499
370.5,0.5831
371.0,0.6241
371.5,0.7823
372.0,0.5202
372.5,0.6248
373.0,0.6366
373.5,0.4148
374.0,0.6038
374.5,0.5008
375.0,0.4877
375.5,0.7296
376.0,0.6059
376.5,0.629
377.0,0.667
377.5,0.7816
378.0,0.8488
378.5,0.8039
379.0,0.6648
379.5,0.6085
380.0,0.6339
380.5,0.7689
381.0,0.7716
381.5,0.6125
382.0,0.5448
382.5,0.465
383.0,0.4311
383.5,0.4159
384.0,0.4594
384.5,0.6767
385.0,0.6721
385.5,0.6268
386.0,0.5376
386.5,0.7071
387.0,0.5885
387.5,0.6621
388.0,0.6122
388.5,0.606
389.0,0.6552
389.5,0.7946
390.0,0.7986
390.5,0.736
391.0,0.8676
391.5,0.8863
392.0,0.7476
392.5,0.6702
393.0,0.3734
393.5,0.2717
394.0,0.5537
394.5,0.7048
395.0,0.8612
395.5,0.8761
396.0,0.7606
396.5,0.4451
397.0,0.3345
397.5,0.6811
398.0,0.9553
398.5,0.9887
399.0,1.071
399.5,1.069
400.0,1.112
401.0,1.145
402.0,1.21
403.0,1.152
404.0,1.137
405.0,1.139
406.0,1.123
407.0,1.107
408.0,1.153
409.0,1.236
410.0,1.082
411.0,1.174
412.0,1.263
413.0,1.235
414.0,1.252
415.0,1.257
416.0,1.281
417.0,1.252
418.0,1.232
419.0,1.25
420.0,1.247
421.0,1.307
422.0,1.244
423.0,1.218
424.0,1.29
425.0,1.29
426.0,1.258
427.0,1.236
428.0,1.207
429.0,1.144
430.0,1.003
431.0,0.9958
432.0,1.287
433.0,1.296
434.0,1.206
435.0,1.262
436.0,1.423
437.0,1.404
438.0,1.28
439.0,1.327
440.0,1.371
441.0,1.422
442.0,1.527
443.0,1.491
444.0,1.525
445.0,1.494
446.0,1.427
447.0,1.544
448.0,1.571
449.0,1.578
450.0,1.624
451.0,1.686
452.0,1.626
453.0,1.531
454.0,1.6
455.0,1.612
456.0,1.652
457.0,1.682
458.0,1.627
459.0,1.62
460.0,1.627
461.0,1.666
462.0,1.68
463.0,1.671
464.0,1.644
465.0,1.623
466.0,1.64
467.0,1.613
468.0,1.634
469.0,1.645
470.0,1.594
471.0,1.593
472.0,1.681
473.0,1.661
474.0,1.667
475.0,1.684
476.0,1.637
477.0,1.645
478.0,1.692
479.0,1.682
480.0,1.686
481.0,1.718
482.0,1.727
483.0,1.707
484.0,1.672
485.0,1.594
486.0,1.394
487.0,1.462
488.0,1.605
489.0,1.613
490.0,1.697
491.0,1.669
492.0,1.577
493.0,1.63
494.0,1.648
495.0,1.663
496.0,1.675
497.0,1.702
498.0,1.624
499.0,1.647
500.0,1.601
501.0,1.574
502.0,1.555
503.0,1.622
504.0,1.588
505.0,1.641
506.0,1.695
507.0,1.614
508.0,1.563
509.0,1.607
510.0,1.599
511.0,1.642
512.0,1.66
513.0,1.572
514.0,1.562
515.0,1.548
516.0,1.545
517.0,1.374
518.0,1.445
519.0,1.517
520.0,1.574
521.0,1.59
522.0,1.593
523.0,1.565
524.0,1.623
525.0,1.645
526.0,1.573
527.0,1.484
528.0,1.572
529.0,1.658
530.0,1.636
531.0,1.662
532.0,1.606
533.0,1.56
534.0,1.606
535.0,1.642
536.0,1.657
537.0,1.592
538.0,1.621
539.0,1.608
540.0,1.543
541.0,1.556
542.0,1.606
543.0,1.589
544.0,1.619
545.0,1.614
546.0,1.623
547.0,1.622
548.0,1.603
549.0,1.608
550.0,1.628
551.0,1.609
552.0,1.621
553.0,1.593
554.0,1.632
555.0,1.637
556.0,1.617
557.0,1.568
558.0,1.558
559.0,1.53
560.0,1.551
561.0,1.572
562.0,1.563
563.0,1.607
564.0,1.565
565.0,1.553
566.0,1.532
567.0,1.563
568.0,1.553
569.0,1.522
570.0,1.522
571.0,1.512
572.0,1.553
573.0,1.571
574.0,1.567
575.0,1.54
576.0,1.526
577.0,1.543
578.0,1.519
579.0,1.523
580.0,1.548
581.0,1.554
582.0,1.581
583.0,1.583
584.0,1.596
585.0,1.557
586.0,1.525
587.0,1.561
588.0,1.531
589.0,1.372
590.0,1.434
591.0,1.509
592.0,1.496
593.0,1.512
594.0,1.505
595.0,1.473
596.0,1.52
597.0,1.507
598.0,1.5
599.0,1.5
600.0,1.5
601.0,1.486
602.0,1.476
603.0,1.5
604.0,1.525
605.0,1.517
606.0,1.51
607.0,1.524
608.0,1.506
609.0,1.508
610.0,1.497
611.0,1.505
612.0,1.5
613.0,1.481
614.0,1.46
615.0,1.492
616.0,1.442
617.0,1.439
618.0,1.494
619.0,1.479
620.0,1.489
621.0,1.492
622.0,1.476
623.0,1.455
624.0,1.43
625.0,1.427
626.0,1.448
627.0,1.467
628.0,1.402
629.0,1.444
630.0,1.412
631.0,1.434
632.0,1.416
633.0,1.455
634.0,1.438
635.0,1.459
636.0,1.438
637.0,1.461
638.0,1.473
639.0,1.455
640.0,1.44
641.0,1.439
642.0,1.431
643.0,1.451
644.0,1.445
645.0,1.449
646.0,1.419
647.0,1.411
648.0,1.414
649.0,1.387
650.0,1.383
651.0,1.441
652.0,1.394
653.0,1.423
654.0,1.406
655.0,1.36
656.0,1.201
657.0,1.234
658.0,1.379
659.0,1.388
660.0,1.394
661.0,1.403
662.0,1.409
663.0,1.38
664.0,1.394
665.0,1.393
666.0,1.393
667.0,1.391
668.0,1.391
669.0,1.412
670.0,1.406
671.0,1.405
672.0,1.393
673.0,1.414
674.0,1.408
675.0,1.395
676.0,1.405
677.0,1.391
678.0,1.395
679.0,1.372
680.0,1.383
681.0,1.374
682.0,1.372
683.0,1.37
684.0,1.363
685.0,1.375
686.0,1.368
687.0,1.045
688.0,1.158
689.0,1.16
690.0,1.195
691.0,1.233
692.0,1.259
693.0,1.251
694.0,1.242
695.0,1.277
696.0,1.28
697.0,1.337
698.0,1.317
699.0,1.299
700.0,1.284
701.0,1.275
702.0,1.279
703.0,1.281
704.0,1.315
705.0,1.317
706.0,1.313
707.0,1.313
708.0,1.316
709.0,1.313
710.0,1.316
711.0,1.312
712.0,1.306
713.0,1.295
714.0,1.3
715.0,1.264
716.0,1.267
717.0,1.149
718.0,1.066
719.0,0.9833
720.0,1.033
721.0,1.108
722.0,1.232
723.0,1.166
724.0,1.072
725.0,1.062
726.0,1.107
727.0,1.112
728.0,1.062
729.0,1.083
730.0,1.144
731.0,1.102
732.0,1.159
733.0,1.208
734.0,1.232
735.0,1.209
736.0,1.207
737.0,1.213
738.0,1.22
739.0,1.196
740.0,1.224
741.0,1.21
742.0,1.209
743.0,1.239
744.0,1.235
745.0,1.234
746.0,1.24
747.0,1.242
748.0,1.24
749.0,1.226
750.0,1.225
751.0,1.213
752.0,1.218
753.0,1.224
754.0,1.227
755.0,1.22
756.0,1.22
757.0,1.222
758.0,1.207
759.0,1.19
760.0,0.3566
761.0,0.2305
762.0,0.7532
763.0,0.4745
764.0,0.6238
765.0,0.7541
766.0,0.8543
767.0,1.01
768.0,1.114
769.0,1.126
770.0,1.152
771.0,1.156
772.0,1.157
773.0,1.165
774.0,1.159
775.0,1.15
776.0,1.164
777.0,1.148
778.0,1.142
779.0,1.143
780.0,1.136
781.0,1.138
782.0,1.145
783.0,1.125
784.0,1.13
785.0,1.122
786.0,1.135
787.0,1.121
788.0,1.109
789.0,1.11
790.0,1.088
791.0,1.09
792.0,1.081
793.0,1.065
794.0,1.075
795.0,1.095
796.0,1.072
797.0,1.074
798.0,1.095
799.0,1.091
800.0,1.074
801.0,1.073
802.0,1.07
803.0,1.063
804.0,1.064
805.0,1.057
806.0,1.082
807.0,1.071
808.0,1.071
809.0,1.055
810.0,1.049
811.0,1.055
812.0,1.033
813.0,1.016
814.0,0.9205
815.0,0.9142
816.0,0.8555
817.0,0.8675
818.0,0.841
819.0,0.9169
820.0,0.8729
821.0,0.989
822.0,0.9661
823.0,0.7087
824.0,0.9485
825.0,0.974
826.0,0.9465
827.0,0.9887
828.0,0.8666
829.0,0.939
830.0,0.9299
831.0,0.932
832.0,0.9088
833.0,0.9517
834.0,0.9275
835.0,0.9991
836.0,0.9686
837.0,1.001
838.0,0.9754
839.0,0.9852
840.0,1.005
841.0,0.9936
842.0,0.9923
843.0,0.9882
844.0,0.9765
845.0,1.007
846.0,1.002
847.0,0.9822
848.0,0.9778
849.0,0.9501
850.0,0.9101
851.0,0.9654
852.0,0.9579
853.0,0.9207
854.0,0.7962
855.0,0.8732
856.0,0.955
857.0,0.9753
858.0,0.9686
859.0,0.9688
860.0,0.9701
861.0,0.9651
862.0,0.98
863.0,1.003
864.0,0.9531
865.0,0.9447
866.0,0.8495
867.0,0.8865
868.0,0.9647
869.0,0.9446
870.0,0.9716
871.0,0.9585
872.0,0.955
873.0,0.9532
874.0,0.9419
875.0,0.9229
876.0,0.9327
877.0,0.942
878.0,0.9526
879.0,0.9379
880.0,0.9179
881.0,0.9049
882.0,0.9248
883.0,0.9271
884.0,0.9231
885.0,0.9302
886.0,0.8893
887.0,0.8967
888.0,0.9114
889.0,0.9193
890.0,0.9146
891.0,0.9116
892.0,0.8889
893.0,0.8661
894.0,0.8446
895.0,0.8096
896.0,0.7687
897.0,0.677
898.0,0.7289
899.0,0.5755
900.0,0.7366
901.0,0.6019
902.0,0.6793
903.0,0.6944
904.0,0.8387
905.0,0.8152
906.0,0.7674
907.0,0.6478
908.0,0.6576
909.0,0.7002
910.0,0.6404
911.0,0.6702
912.0,0.6953
913.0,0.6509
914.0,0.6418
915.0,0.6927
916.0,0.5941
917.0,0.7292
918.0,0.6095
919.0,0.7376
920.0,0.7352
921.0,0.7614
922.0,0.6959
923.0,0.7349
924.0,0.7136
925.0,0.6989
926.0,0.7062
927.0,0.7761
928.0,0.611
929.0,0.5691
930.0,0.4662
931.0,0.4382
932.0,0.3346
933.0,0.2831
934.0,0.1788
935.0,0.2805
936.0,0.1898
937.0,0.1947
938.0,0.2333
939.0,0.4248
940.0,0.4979
941.0,0.3939
942.0,0.444
943.0,0.3066
944.0,0.3106
945.0,0.4032
946.0,0.2251
947.0,0.4099
948.0,0.305
949.0,0.5286
950.0,0.1793
951.0,0.5172
952.0,0.3047
953.0,0.376
954.0,0.4419
955.0,0.3781
956.0,0.3598
957.0,0.3079
958.0,0.4816
959.0,0.4025
960.0,0.4502
961.0,0.4903
962.0,0.4663
963.0,0.5242
964.0,0.485
965.0,0.5205
966.0,0.524
967.0,0.5229
968.0,0.6571
969.0,0.6887
970.0,0.6392
971.0,0.7126
972.0,0.6853
973.0,0.6158
974.0,0.5878
975.0,0.6023
976.0,0.5818
977.0,0.6426
978.0,0.6187
979.0,0.6415
980.0,0.6076
981.0,0.7078
982.0,0.6835
983.0,0.6605
984.0,0.7219
985.0,0.6808
986.0,0.7303
987.0,0.7205
988.0,0.7193
989.0,0.7254
990.0,0.7146
991.0,0.7282
992.0,0.7319
993.0,0.7202
994.0,0.7312
995.0,0.7297
996.0,0.7272
997.0,0.7279
998.0,0.7248
999.0,0.722
1000.0,0.718
1001.0,0.7258
1002.0,0.7103
1003.0,0.7133
1004.0,0.697
1005.0,0.6699
1006.0,0.6969
1007.0,0.7113
1008.0,0.7083
1009.0,0.7054
1010.0,0.7029
1011.0,0.7076
1012.0,0.7024
1013.0,0.7057
1014.0,0.7008
1015.0,0.6963
1016.0,0.6933
1017.0,0.6952
1018.0,0.6921
1019.0,0.6791
1020.0,0.6888
1021.0,0.6875
1022.0,0.6829
1023.0,0.6902
1024.0,0.6831
1025.0,0.6892
1026.0,0.6867
1027.0,0.6851
1028.0,0.6838
1029.0,0.6759
1030.0,0.6799
1031.0,0.6775
1032.0,0.6753
1033.0,0.6652
1034.0,0.6652
1035.0,0.6673
1036.0,0.671
1037.0,0.66
1038.0,0.663
1039.0,0.6628
1040.0,0.6601
1041.0,0.6629
1042.0,0.6583
1043.0,0.6564
1044.0,0.6588
1045.0,0.65
1046.0,0.6429
1047.0,0.6488
1048.0,0.6525
1049.0,0.6503
1050.0,0.6475
1051.0,0.6468
1052.0,0.6443
1053.0,0.6394
1054.0,0.6411
1055.0,0.6417
1056.0,0.6397
1057.0,0.638
1058.0,0.6226
1059.0,0.6235
1060.0,0.6227
1061.0,0.6222
1062.0,0.6257
1063.0,0.6198
1064.0,0.627
1065.0,0.6232
1066.0,0.6104
1067.0,0.6185
1068.0,0.6054
1069.0,0.5864
1070.0,0.6068
1071.0,0.6147
1072.0,0.6088
1073.0,0.5998
1074.0,0.6135
1075.0,0.5877
1076.0,0.6133
1077.0,0.6052
1078.0,0.5947
1079.0,0.6028
1080.0,0.596
1081.0,0.5791
1082.0,0.5843
1083.0,0.5851
1084.0,0.5791
1085.0,0.5968
1086.0,0.5527
1087.0,0.5644
1088.0,0.5855
1089.0,0.5721
1090.0,0.5629
1091.0,0.5849
1092.0,0.5823
1093.0,0.5083
1094.0,0.5346
1095.0,0.5272
1096.0,0.5093
1097.0,0.5687
1098.0,0.5027
1099.0,0.5221
1100.0,0.4922
1101.0,0.4963
1102.0,0.4779
1103.0,0.4763
1104.0,0.4765
1105.0,0.5116
1106.0,0.4168
1107.0,0.4909
1108.0,0.4316
1109.0,0.4294
1110.0,0.4884
1111.0,0.3526
1112.0,0.4249
1113.0,0.2932
1114.0,0.3245
1115.0,0.2698
1116.0,0.2298
1117.0,0.1016
1118.0,0.2442
1119.0,0.1344
1120.0,0.169
1121.0,0.2157
1122.0,0.1024
1123.0,0.1524
1124.0,0.1288
1125.0,0.1649
1126.0,0.06922
1127.0,0.1849
1128.0,0.1232
1129.0,0.1285
1130.0,0.09088
1131.0,0.3218
1132.0,0.258
1133.0,0.1787
1134.0,0.05615
1135.0,0.02065
1136.0,0.1545
1137.0,0.3201
1138.0,0.2294
1139.0,0.3146
1140.0,0.2734
1141.0,0.218
1142.0,0.2447
1143.0,0.336
1144.0,0.1322
1145.0,0.1718
1146.0,0.1855
1147.0,0.07789
1148.0,0.2911
1149.0,0.2413
1150.0,0.1419
1151.0,0.2279
1152.0,0.2703
1153.0,0.256
1154.0,0.1697
1155.0,0.3286
1156.0,0.3011
1157.0,0.3306
1158.0,0.3266
1159.0,0.3451
1160.0,0.304
1161.0,0.3586
1162.0,0.3615
1163.0,0.4622
1164.0,0.4062
1165.0,0.3918
1166.0,0.3834
1167.0,0.4126
1168.0,0.4189
1169.0,0.4254
1170.0,0.455
1171.0,0.445
1172.0,0.4489
1173.0,0.454
1174.0,0.3453
1175.0,0.4406
1176.0,0.4747
1177.0,0.4618
1178.0,0.363
1179.0,0.4781
1180.0,0.4376
1181.0,0.4503
1182.0,0.3282
1183.0,0.441
1184.0,0.4191
1185.0,0.4092
1186.0,0.4687
1187.0,0.4515
1188.0,0.335
1189.0,0.4219
1190.0,0.4581
1191.0,0.4433
1192.0,0.4635
1193.0,0.4473
1194.0,0.4589
1195.0,0.4399
1196.0,0.4275
1197.0,0.4558
1198.0,0.422
1199.0,0.3726
1200.0,0.4422
1201.0,0.4311
1202.0,0.4261
1203.0,0.4225
1204.0,0.3776
1205.0,0.432
1206.0,0.4693
1207.0,0.4262
1208.0,0.4155
1209.0,0.423
1210.0,0.4376
1211.0,0.422
1212.0,0.4225
1213.0,0.4567
1214.0,0.4297
1215.0,0.4231
1216.0,0.4551
1217.0,0.4457
1218.0,0.4516
1219.0,0.4473
1220.0,0.4518
1221.0,0.4548
1222.0,0.4447
1223.0,0.4416
1224.0,0.4406
1225.0,0.452
1226.0,0.4534
1227.0,0.425
1228.0,0.4544
1229.0,0.4534
1230.0,0.447
1231.0,0.4556
1232.0,0.453
1233.0,0.4426
1234.0,0.4541
1235.0,0.452
1236.0,0.4547
1237.0,0.4504
1238.0,0.4531
1239.0,0.4474
1240.0,0.4488
1241.0,0.448
1242.0,0.4459
1243.0,0.4422
1244.0,0.4457
1245.0,0.4474
1246.0,0.4447
1247.0,0.4434
1248.0,0.4437
1249.0,0.4445
1250.0,0.4422
1251.0,0.4374
1252.0,0.4364
1253.0,0.4347
1254.0,0.4317
1255.0,0.4365
1256.0,0.4275
1257.0,0.4259
1258.0,0.4312
1259.0,0.4207
1260.0,0.4223
1261.0,0.4052
1262.0,0.3965
1263.0,0.3975
1264.0,0.3751
1265.0,0.3948
1266.0,0.3847
1267.0,0.3882
1268.0,0.3735
1269.0,0.27
1270.0,0.3881
1271.0,0.4031
1272.0,0.4036
1273.0,0.4001
1274.0,0.4004
1275.0,0.4049
1276.0,0.4076
1277.0,0.4088
1278.0,0.4139
1279.0,0.4105
1280.0,0.4051
1281.0,0.3854
1282.0,0.3693
1283.0,0.3982
1284.0,0.4081
1285.0,0.4105
1286.0,0.4149
1287.0,0.4106
1288.0,0.41
1289.0,0.401
1290.0,0.406
1291.0,0.411
1292.0,0.3938
1293.0,0.4049
1294.0,0.4025
1295.0,0.4024
1296.0,0.3892
1297.0,0.3723
1298.0,0.3927
1299.0,0.4047
1300.0,0.3567
1301.0,0.3647
1302.0,0.3911
1303.0,0.3505
1304.0,0.3124
1305.0,0.3843
1306.0,0.385
1307.0,0.3146
1308.0,0.349
1309.0,0.383
1310.0,0.3092
1311.0,0.3376
1312.0,0.3306
1313.0,0.3263
1314.0,0.297
1315.0,0.2961
1316.0,0.3344
1317.0,0.3184
1318.0,0.3405
1319.0,0.2824
1320.0,0.2701
1321.0,0.309
1322.0,0.3143
1323.0,0.2502
1324.0,0.277
1325.0,0.3303
1326.0,0.2923
1327.0,0.2809
1328.0,0.2467
1329.0,0.197
1330.0,0.2502
1331.0,0.166
1332.0,0.1662
1333.0,0.227
1334.0,0.1869
1335.0,0.249
1336.0,0.2042
1337.0,0.1854
1338.0,0.1997
1339.0,0.197
1340.0,0.188
1341.0,0.1917
1342.0,0.2009
1343.0,0.1548
1344.0,0.09268
1345.0,0.1307
1346.0,0.07864
1347.0,0.08218
1348.0,0.008792
1349.0,0.02705
1350.0,0.02522
1351.0,0.009501
1352.0,0.003928
1353.0,0.0003475
1354.0,0.0008658
1355.0,2.003e-05
1356.0,0.0001788
1357.0,0.0002662
1358.0,2.275e-05
1359.0,6.061e-06
1360.0,1.361e-05
1361.0,7.993e-08
1362.0,4.814e-10
1363.0,2.13e-05
1364.0,9.923e-06
1365.0,3.899e-10
1366.0,7.549e-05
1367.0,2.92e-05
1368.0,1.66e-11
1369.0,3.964e-06
1370.0,2.667e-06
1371.0,2.355e-07
1372.0,1.631e-05
1373.0,0.0001892
1374.0,0.0006117
1375.0,0.001076
1376.0,0.000767
1377.0,0.0003856
1378.0,0.003035
1379.0,0.0001673
1380.0,0.0002917
1381.0,1.011e-05
1382.0,1.602e-05
1383.0,3.489e-07
1384.0,5.017e-06
1385.0,1.089e-05
1386.0,1.751e-05
1387.0,0.000747
1388.0,1.699e-05
1389.0,0.001764
1390.0,0.001498
1391.0,0.00111
1392.0,8.681e-05
1393.0,0.0003705
1394.0,0.0003252
1395.0,3.988e-06
1396.0,9.333e-08
1397.0,0.0001721
1398.0,0.003479
1399.0,0.002229
1400.0,6.064e-08
1401.0,1.434e-07
1402.0,0.003963
1403.0,0.005366
1404.0,0.001703
1405.0,2.552e-06
1406.0,0.004995
1407.0,0.0004332
1408.0,0.00402
1409.0,0.001751
1410.0,0.001248
1411.0,0.004662
1412.0,0.005556
1413.0,0.03762
1414.0,0.0009603
1415.0,0.0005279
1416.0,0.05064
1417.0,0.01979
1418.0,0.02244
1419.0,0.003749
1420.0,0.01396
1421.0,0.01565
1422.0,0.06453
1423.0,0.01386
1424.0,0.02488
1425.0,0.03776
1426.0,0.03929
1427.0,0.06366
1428.0,0.008534
1429.0,0.05117
1430.0,0.07857
1431.0,0.08412
1432.0,0.006875
1433.0,0.05675
1434.0,0.03054
1435.0,0.0361
1436.0,0.06048
1437.0,0.04659
1438.0,0.02229
1439.0,0.07814
1440.0,0.05926
1441.0,0.04931
1442.0,0.05344
1443.0,0.06086
1444.0,0.08203
1445.0,0.06896
1446.0,0.03255
1447.0,0.05144
1448.0,0.1377
1449.0,0.1245
1450.0,0.03808
1451.0,0.01673
1452.0,0.07954
1453.0,0.1014
1454.0,0.1575
1455.0,0.08052
1456.0,0.1108
1457.0,0.1385
1458.0,0.154
1459.0,0.1834
1460.0,0.1008
1461.0,0.1091
1462.0,0.152
1463.0,0.05505
1464.0,0.1725
1465.0,0.1055
1466.0,0.0832
1467.0,0.04881
1468.0,0.09531
1469.0,0.114
