interpolation:linear
wavelength,value
280.0,1.8849999999999999e-22
280.5,5.025e-21
281.0,2.5420000000000002e-20
281.5,6.618e-19
282.0,4.722e-18
282.5,1.682e-17
283.0,6.84e-17
283.5,1.238e-16
284.0,2.596e-15
284.5,8.147e-15
285.0,1.723e-14
285.5,1.174e-13
286.0,5.241e-13
286.5,2.717e-12
287.0,8.481e-12
287.5,3.521e-11
288.0,1.4e-10
288.5,5.198e-10
289.0,1.624e-09
289.5,5.591e-09
290.0,1.701e-08
290.5,3.727e-08
291.0,8.574e-08
291.5,2.629e-07
292.0,6.29e-07
292.5,9.164e-07
293.0,2.038e-06
293.5,5.129e-06
294.0,8.285e-06
294.5,1.419e-05
295.0,2.411e-05
295.5,5.586e-05
296.0,9.75e-05
296.5,0.0001234
297.0,0.0001539
297.5,0.0003644
298.0,0.0005168
298.5,0.0004794
299.0,0.0009765
299.5,0.001404
300.0,0.001431
300.5,0.001914
301.0,0.003036
301.5,0.004304
302.0,0.003482
302.5,0.00643
303.0,0.01072
303.5,0.0129
304.0,0.01175
304.5,0.01602
305.0,0.02139
305.5,0.02267
306.0,0.02137
306.5,0.02539
307.0,0.03377
307.5,0.04051
308.0,0.04227
308.5,0.04762
309.0,0.04205
309.5,0.04579
310.0,0.04502
310.5,0.07232
311.0,0.08913
311.5,0.08558
312.0,0.08156
312.5,0.09618
313.0,0.1028
313.5,0.1022
314.0,0.1227
314.5,0.1029
315.0,0.1343
315.5,0.1163
316.0,0.09705
316.5,0.1339
317.0,0.1672
317.5,0.177
318.0,0.1345
318.5,0.158
319.0,0.1827
319.5,0.157
320.0,0.1919
320.5,0.2269
321.0,0.1919
321.5,0.1837
322.0,0.2087
322.5,0.1817
323.0,0.1748
323.5,0.2018
324.0,0.2347
324.5,0.2438
325.0,0.2219
325.5,0.2776
326.0,0.3273
326.5,0.3213
327.0,0.3243
327.5,0.318
328.0,0.2934
328.5,0.2979
329.0,0.3474
329.5,0.3922
330.0,0.4001
330.5,0.3289
331.0,0.339
331.5,0.3398
332.0,0.3594
332.5,0.3528
333.0,0.3554
333.5,0.3288
334.0,0.339
334.5,0.3845
335.0,0.3582
335.5,0.4071
336.0,0.2825
336.5,0.3445
337.0,0.286
337.5,0.358
338.0,0.3449
338.5,0.3896
339.0,0.3889
339.5,0.3738
340.0,0.4509
340.5,0.4071
341.0,0.3908
341.5,0.363
342.0,0.4359
342.5,0.4098
343.0,0.4501
343.5,0.4238
344.0,0.3186
344.5,0.3157
345.0,0.4234
345.5,0.4349
346.0,0.3713
346.5,0.4221
347.0,0.453
347.5,0.3668
348.0,0.421
348.5,0.4228
349.0,0.3935
349.5,0.3904
350.0,0.4842
350.5,0.5121
351.0,0.4581
351.5,0.4443
352.0,0.4799
352.5,0.3762
353.0,0.4755
353.5,0.5101
354.0,0.5312
354.5,0.5402
355.0,0.5395
355.5,0.4886
356.0,0.5126
356.5,0.4389
357.0,0.3636
357.5,0.4463
358.0,0.3547
358.5,0.3039
359.0,0.4261
359.5,0.544
360.0,0.5782
360.5,0.4634
361.0,0.4234
361.5,0.4884
362.0,0.4231
362.5,0.5865
363.0,0.5278
363.5,0.487
364.0,0.5968
364.5,0.5112
365.0,0.5218
365.5,0.6563
366.0,0.6966
366.5,0.6558
367.0,0.64
367.5,0.6656
368.0,0.5836
368.5,0.59
369.0,0.6384
369.5,0.6818
370.0,0.7283
370.5,0.5663
371.0,0.6062
371.5,0.76
372.0,0.5055
372.5,0.6072
373.0,0.6188
373.5,0.4033
374.0,0.5871
374.5,0.4871
375.0,0.4744
375.5,0.7097
376.0,0.5895
376.5,0.6121
377.0,0.6491
377.5,0.7608
378.0,0.8263
378.5,0.7826
379.0,0.6473
379.5,0.5926
380.0,0.6173
380.5,0.749
381.0,0.7517
381.5,0.5968
382.0,0.5309
382.5,0.4532
383.0,0.4203
383.5,0.4055
384.0,0.448
384.5,0.66
385.0,0.6555
385.5,0.6114
386.0,0.5245
386.5,0.69
387.0,0.5744
387.5,0.6462
388.0,0.5976
388.5,0.5916
389.0,0.6397
389.5,0.776
390.0,0.78
390.5,0.719
391.0,0.8476
391.5,0.8659
392.0,0.7305
392.5,0.6549
393.0,0.3649
393.5,0.2656
394.0,0.5413
394.5,0.6891
395.0,0.8421
395.5,0.8568
396.0,0.7439
396.5,0.4354
397.0,0.3272
397.5,0.6664
398.0,0.9348
398.5,0.9676
399.0,1.049
399.5,1.047
400.0,1.089
401.0,1.121
402.0,1.185
403.0,1.128
404.0,1.114
405.0,1.116
406.0,1.101
407.0,1.085
408.0,1.13
409.0,1.213
410.0,1.062
411.0,1.152
412.0,1.24
413.0,1.212
414.0,1.229
415.0,1.234
416.0,1.258
417.0,1.23
418.0,1.21
419.0,1.228
420.0,1.225
421.0,1.284
422.0,1.223
423.0,1.197
424.0,1.269
425.0,1.269
426.0,1.237
427.0,1.216
428.0,1.187
429.0,1.126
430.0,0.9868
431.0,0.9803
432.0,1.267
433.0,1.276
434.0,1.188
435.0,1.243
436.0,1.401
437.0,1.384
438.0,1.262
439.0,1.308
440.0,1.351
441.0,1.402
442.0,1.506
443.0,1.47
444.0,1.503
445.0,1.474
446.0,1.407
447.0,1.523
448.0,1.55
449.0,1.557
450.0,1.602
451.0,1.664
452.0,1.606
453.0,1.512
454.0,1.579
455.0,1.592
456.0,1.631
457.0,1.661
458.0,1.607
459.0,1.601
460.0,1.608
461.0,1.646
462.0,1.66
463.0,1.651
464.0,1.624
465.0,1.605
466.0,1.621
467.0,1.595
468.0,1.615
469.0,1.626
470.0,1.576
471.0,1.576
472.0,1.662
473.0,1.643
474.0,1.649
475.0,1.666
476.0,1.619
477.0,1.627
478.0,1.673
479.0,1.664
480.0,1.668
481.0,1.7
482.0,1.709
483.0,1.689
484.0,1.656
485.0,1.578
486.0,1.38
487.0,1.447
488.0,1.59
489.0,1.597
490.0,1.681
491.0,1.653
492.0,1.562
493.0,1.615
494.0,1.632
495.0,1.648
496.0,1.659
497.0,1.687
498.0,1.609
499.0,1.632
500.0,1.586
501.0,1.56
502.0,1.541
503.0,1.607
504.0,1.573
505.0,1.626
506.0,1.68
507.0,1.6
508.0,1.55
509.0,1.593
510.0,1.585
511.0,1.627
512.0,1.646
513.0,1.559
514.0,1.549
515.0,1.535
516.0,1.532
517.0,1.362
518.0,1.433
519.0,1.505
520.0,1.561
521.0,1.577
522.0,1.58
523.0,1.553
524.0,1.61
525.0,1.632
526.0,1.56
527.0,1.472
528.0,1.559
529.0,1.645
530.0,1.623
531.0,1.648
532.0,1.593
533.0,1.547
534.0,1.593
535.0,1.628
536.0,1.644
537.0,1.58
538.0,1.608
539.0,1.596
540.0,1.531
541.0,1.544
542.0,1.594
543.0,1.577
544.0,1.606
545.0,1.602
546.0,1.611
547.0,1.61
548.0,1.591
549.0,1.596
550.0,1.616
551.0,1.597
552.0,1.609
553.0,1.581
554.0,1.62
555.0,1.625
556.0,1.605
557.0,1.556
558.0,1.546
559.0,1.519
560.0,1.539
561.0,1.56
562.0,1.551
563.0,1.595
564.0,1.553
565.0,1.541
566.0,1.52
567.0,1.551
568.0,1.54
569.0,1.51
570.0,1.509
571.0,1.499
572.0,1.54
573.0,1.557
574.0,1.554
575.0,1.527
576.0,1.513
577.0,1.53
578.0,1.506
579.0,1.51
580.0,1.536
581.0,1.542
582.0,1.569
583.0,1.572
584.0,1.585
585.0,1.546
586.0,1.515
587.0,1.55
588.0,1.52
589.0,1.36
590.0,1.422
591.0,1.497
592.0,1.483
593.0,1.5
594.0,1.493
595.0,1.461
596.0,1.508
597.0,1.495
598.0,1.489
599.0,1.489
600.0,1.489
601.0,1.475
602.0,1.466
603.0,1.489
604.0,1.514
605.0,1.506
606.0,1.5
607.0,1.514
608.0,1.496
609.0,1.499
610.0,1.487
611.0,1.495
612.0,1.491
613.0,1.472
614.0,1.451
615.0,1.483
616.0,1.433
617.0,1.431
618.0,1.486
619.0,1.471
620.0,1.48
621.0,1.483
622.0,1.467
623.0,1.446
624.0,1.421
625.0,1.418
626.0,1.44
627.0,1.458
628.0,1.39
629.0,1.434
630.0,1.403
631.0,1.425
632.0,1.407
633.0,1.446
634.0,1.43
635.0,1.451
636.0,1.43
637.0,1.453
638.0,1.465
639.0,1.448
640.0,1.433
641.0,1.432
642.0,1.425
643.0,1.444
644.0,1.439
645.0,1.442
646.0,1.412
647.0,1.403
648.0,1.406
649.0,1.379
650.0,1.377
651.0,1.435
652.0,1.386
653.0,1.416
654.0,1.4
655.0,1.353
656.0,1.196
657.0,1.228
658.0,1.374
659.0,1.382
660.0,1.388
661.0,1.398
662.0,1.403
663.0,1.374
664.0,1.388
665.0,1.388
666.0,1.388
667.0,1.386
668.0,1.386
669.0,1.407
670.0,1.401
671.0,1.4
672.0,1.388
673.0,1.409
674.0,1.404
675.0,1.391
676.0,1.4
677.0,1.386
678.0,1.39
679.0,1.368
680.0,1.379
681.0,1.37
682.0,1.368
683.0,1.366
684.0,1.359
685.0,1.371
686.0,1.363
687.0,1.028
688.0,1.145
689.0,1.147
690.0,1.184
691.0,1.224
692.0,1.252
693.0,1.244
694.0,1.234
695.0,1.271
696.0,1.273
697.0,1.332
698.0,1.312
699.0,1.293
700.0,1.278
701.0,1.269
702.0,1.273
703.0,1.276
704.0,1.31
705.0,1.312
706.0,1.308
707.0,1.308
708.0,1.312
709.0,1.309
710.0,1.312
711.0,1.308
712.0,1.303
713.0,1.292
714.0,1.296
715.0,1.26
716.0,1.262
717.0,1.14
718.0,1.056
719.0,0.9735
720.0,1.022
721.0,1.1
722.0,1.227
723.0,1.159
724.0,1.063
725.0,1.053
726.0,1.098
727.0,1.104
728.0,1.052
729.0,1.075
730.0,1.137
731.0,1.093
732.0,1.152
733.0,1.203
734.0,1.228
735.0,1.205
736.0,1.203
737.0,1.208
738.0,1.217
739.0,1.193
740.0,1.221
741.0,1.207
742.0,1.206
743.0,1.237
744.0,1.232
745.0,1.232
746.0,1.237
747.0,1.24
748.0,1.238
749.0,1.224
750.0,1.223
751.0,1.211
752.0,1.216
753.0,1.222
754.0,1.225
755.0,1.218
756.0,1.218
757.0,1.22
758.0,1.205
759.0,1.187
760.0,0.3356
761.0,0.2125
762.0,0.7358
763.0,0.4529
764.0,0.6035
765.0,0.7366
766.0,0.8412
767.0,1.001
768.0,1.109
769.0,1.122
770.0,1.149
771.0,1.154
772.0,1.155
773.0,1.163
774.0,1.157
775.0,1.148
776.0,1.162
777.0,1.147
778.0,1.14
779.0,1.141
780.0,1.135
781.0,1.136
782.0,1.143
783.0,1.123
784.0,1.128
785.0,1.121
786.0,1.133
787.0,1.118
788.0,1.107
789.0,1.107
790.0,1.085
791.0,1.088
792.0,1.079
793.0,1.062
794.0,1.073
795.0,1.093
796.0,1.069
797.0,1.071
798.0,1.093
799.0,1.088
800.0,1.072
801.0,1.071
802.0,1.067
803.0,1.061
804.0,1.061
805.0,1.055
806.0,1.08
807.0,1.069
808.0,1.069
809.0,1.053
810.0,1.047
811.0,1.052
812.0,1.029
813.0,1.012
814.0,0.9138
815.0,0.9076
816.0,0.8487
817.0,0.8611
818.0,0.8342
819.0,0.912
820.0,0.8672
821.0,0.9859
822.0,0.9625
823.0,0.7001
824.0,0.9439
825.0,0.9707
826.0,0.9422
827.0,0.9854
828.0,0.8606
829.0,0.935
830.0,0.9256
831.0,0.9279
832.0,0.9042
833.0,0.9486
834.0,0.9235
835.0,0.9969
836.0,0.9652
837.0,0.9991
838.0,0.9728
839.0,0.9832
840.0,1.004
841.0,0.9915
842.0,0.9905
843.0,0.9868
844.0,0.975
845.0,1.005
846.0,1.001
847.0,0.9811
848.0,0.9765
849.0,0.9489
850.0,0.909
851.0,0.964
852.0,0.9566
853.0,0.9197
854.0,0.7951
855.0,0.8722
856.0,0.9538
857.0,0.9742
858.0,0.9675
859.0,0.9678
860.0,0.9692
861.0,0.9641
862.0,0.9791
863.0,1.002
864.0,0.9522
865.0,0.9438
866.0,0.8487
867.0,0.8857
868.0,0.9638
869.0,0.9438
870.0,0.9707
871.0,0.9576
872.0,0.9542
873.0,0.9523
874.0,0.941
875.0,0.9221
876.0,0.9318
877.0,0.9412
878.0,0.9517
879.0,0.9371
880.0,0.9171
881.0,0.904
882.0,0.9239
883.0,0.9262
884.0,0.9222
885.0,0.9293
886.0,0.8882
887.0,0.8958
888.0,0.9103
889.0,0.9185
890.0,0.9134
891.0,0.9106
892.0,0.8876
893.0,0.8642
894.0,0.8417
895.0,0.8055
896.0,0.7641
897.0,0.6709
898.0,0.7235
899.0,0.5686
900.0,0.7323
901.0,0.5949
902.0,0.6746
903.0,0.6887
904.0,0.8358
905.0,0.8118
906.0,0.7636
907.0,0.6418
908.0,0.6517
909.0,0.6954
910.0,0.6335
911.0,0.6644
912.0,0.69
913.0,0.6438
914.0,0.6352
915.0,0.6861
916.0,0.5873
917.0,0.724
918.0,0.6025
919.0,0.7328
920.0,0.7315
921.0,0.7581
922.0,0.691
923.0,0.7318
924.0,0.7087
925.0,0.6939
926.0,0.7013
927.0,0.7725
928.0,0.603
929.0,0.5603
930.0,0.4566
931.0,0.4297
932.0,0.3258
933.0,0.2743
934.0,0.1703
935.0,0.2729
936.0,0.1828
937.0,0.1872
938.0,0.2251
939.0,0.4165
940.0,0.4898
941.0,0.3852
942.0,0.4358
943.0,0.2991
944.0,0.3043
945.0,0.3946
946.0,0.2178
947.0,0.4006
948.0,0.2975
949.0,0.5192
950.0,0.1716
951.0,0.5084
952.0,0.2959
953.0,0.3673
954.0,0.4341
955.0,0.3696
956.0,0.3523
957.0,0.2987
958.0,0.4754
959.0,0.3948
960.0,0.4417
961.0,0.4829
962.0,0.4588
963.0,0.5175
964.0,0.4781
965.0,0.5141
966.0,0.5172
967.0,0.5159
968.0,0.6537
969.0,0.685
970.0,0.6348
971.0,0.7101
972.0,0.6825
973.0,0.6108
974.0,0.5825
975.0,0.5979
976.0,0.5764
977.0,0.639
978.0,0.6141
979.0,0.6377
980.0,0.6034
981.0,0.7055
982.0,0.6805
983.0,0.6569
984.0,0.7205
985.0,0.6778
986.0,0.7293
987.0,0.7191
988.0,0.7179
989.0,0.7248
990.0,0.7132
991.0,0.7275
992.0,0.7313
993.0,0.7191
994.0,0.7307
995.0,0.7293
996.0,0.7267
997.0,0.7274
998.0,0.7243
999.0,0.7215
1000.0,0.7174
1001.0,0.7253
1002.0,0.7093
1003.0,0.7128
1004.0,0.6964
1005.0,0.6695
1006.0,0.6964
1007.0,0.7108
1008.0,0.7077
1009.0,0.7047
1010.0,0.7022
1011.0,0.7072
1012.0,0.7018
1013.0,0.7053
1014.0,0.7004
1015.0,0.6959
1016.0,0.6929
1017.0,0.6948
1018.0,0.6917
1019.0,0.6785
1020.0,0.6883
1021.0,0.6872
1022.0,0.6824
1023.0,0.6898
1024.0,0.6824
1025.0,0.6888
1026.0,0.6863
1027.0,0.6846
1028.0,0.6833
1029.0,0.6754
1030.0,0.6795
1031.0,0.677
1032.0,0.6749
1033.0,0.6648
1034.0,0.6648
1035.0,0.6669
1036.0,0.6706
1037.0,0.6596
1038.0,0.6626
1039.0,0.6623
1040.0,0.6597
1041.0,0.6625
1042.0,0.6579
1043.0,0.6559
1044.0,0.6583
1045.0,0.6495
1046.0,0.6424
1047.0,0.6483
1048.0,0.652
1049.0,0.6498
1050.0,0.647
1051.0,0.6462
1052.0,0.6438
1053.0,0.6388
1054.0,0.6404
1055.0,0.641
1056.0,0.6391
1057.0,0.6373
1058.0,0.6218
1059.0,0.6228
1060.0,0.622
1061.0,0.6214
1062.0,0.6249
1063.0,0.6189
1064.0,0.6262
1065.0,0.6222
1066.0,0.6095
1067.0,0.6176
1068.0,0.6045
1069.0,0.5855
1070.0,0.6059
1071.0,0.6139
1072.0,0.6079
1073.0,0.5989
1074.0,0.6129
1075.0,0.5865
1076.0,0.6127
1077.0,0.6042
1078.0,0.5936
1079.0,0.6023
1080.0,0.595
1081.0,0.5778
1082.0,0.5836
1083.0,0.5845
1084.0,0.5777
1085.0,0.5959
1086.0,0.5508
1087.0,0.5632
1088.0,0.5847
1089.0,0.5708
1090.0,0.5612
1091.0,0.584
1092.0,0.5816
1093.0,0.5057
1094.0,0.5337
1095.0,0.5249
1096.0,0.5065
1097.0,0.568
1098.0,0.4998
1099.0,0.5193
1100.0,0.4887
1101.0,0.4931
1102.0,0.4743
1103.0,0.4723
1104.0,0.4726
1105.0,0.5087
1106.0,0.4112
1107.0,0.4875
1108.0,0.4266
1109.0,0.4248
1110.0,0.4848
1111.0,0.3471
1112.0,0.4205
1113.0,0.287
1114.0,0.3183
1115.0,0.2645
1116.0,0.2234
1117.0,0.0964
1118.0,0.2382
1119.0,0.1293
1120.0,0.1628
1121.0,0.2088
1122.0,0.09766
1123.0,0.1468
1124.0,0.124
1125.0,0.1592
1126.0,0.06528
1127.0,0.1786
1128.0,0.1174
1129.0,0.1228
1130.0,0.0859
1131.0,0.3144
1132.0,0.2513
1133.0,0.1721
1134.0,0.05262
1135.0,0.01938
1136.0,0.1482
1137.0,0.3123
1138.0,0.2233
1139.0,0.3094
1140.0,0.2676
1141.0,0.2121
1142.0,0.2389
1143.0,0.3295
1144.0,0.1276
1145.0,0.1656
1146.0,0.1787
1147.0,0.07339
1148.0,0.2854
1149.0,0.2354
1150.0,0.1368
1151.0,0.2217
1152.0,0.2642
1153.0,0.2512
1154.0,0.163
1155.0,0.3232
1156.0,0.2955
1157.0,0.3252
1158.0,0.3214
1159.0,0.3405
1160.0,0.2986
1161.0,0.3543
1162.0,0.357
1163.0,0.4598
1164.0,0.4027
1165.0,0.3874
1166.0,0.3797
1167.0,0.4093
1168.0,0.4153
1169.0,0.4222
1170.0,0.4525
1171.0,0.4424
1172.0,0.4467
1173.0,0.4515
1174.0,0.3407
1175.0,0.4385
1176.0,0.4736
1177.0,0.46
1178.0,0.3595
1179.0,0.477
1180.0,0.4353
1181.0,0.4482
1182.0,0.3244
1183.0,0.4392
1184.0,0.4166
1185.0,0.4062
1186.0,0.4673
1187.0,0.4495
1188.0,0.331
1189.0,0.4198
1190.0,0.4567
1191.0,0.441
1192.0,0.4622
1193.0,0.4456
1194.0,0.4574
1195.0,0.4378
1196.0,0.4251
1197.0,0.4547
1198.0,0.4203
1199.0,0.3696
1200.0,0.4405
1201.0,0.4289
1202.0,0.4242
1203.0,0.4207
1204.0,0.3749
1205.0,0.4305
1206.0,0.4687
1207.0,0.4242
1208.0,0.414
1209.0,0.4216
1210.0,0.4364
1211.0,0.4203
1212.0,0.4202
1213.0,0.4558
1214.0,0.4278
1215.0,0.4209
1216.0,0.4541
1217.0,0.4445
1218.0,0.4507
1219.0,0.4462
1220.0,0.4508
1221.0,0.4541
1222.0,0.4437
1223.0,0.4405
1224.0,0.4394
1225.0,0.4512
1226.0,0.4529
1227.0,0.4237
1228.0,0.4539
1229.0,0.4529
1230.0,0.4463
1231.0,0.4553
1232.0,0.4527
1233.0,0.4418
1234.0,0.4539
1235.0,0.4517
1236.0,0.4545
1237.0,0.45
1238.0,0.4529
1239.0,0.4472
1240.0,0.4487
1241.0,0.4477
1242.0,0.4457
1243.0,0.442
1244.0,0.4455
1245.0,0.4472
1246.0,0.4446
1247.0,0.4432
1248.0,0.4434
1249.0,0.4443
1250.0,0.442
1251.0,0.437
1252.0,0.4362
1253.0,0.4343
1254.0,0.4312
1255.0,0.4362
1256.0,0.4269
1257.0,0.4252
1258.0,0.4308
1259.0,0.4198
1260.0,0.4214
1261.0,0.4036
1262.0,0.3946
1263.0,0.3956
1264.0,0.3725
1265.0,0.3929
1266.0,0.3824
1267.0,0.3861
1268.0,0.371
1269.0,0.2638
1270.0,0.3859
1271.0,0.4016
1272.0,0.4022
1273.0,0.3986
1274.0,0.3991
1275.0,0.4037
1276.0,0.4065
1277.0,0.4079
1278.0,0.4133
1279.0,0.4098
1280.0,0.4044
1281.0,0.3849
1282.0,0.369
1283.0,0.3978
1284.0,0.4077
1285.0,0.4101
1286.0,0.4146
1287.0,0.4101
1288.0,0.4095
1289.0,0.4002
1290.0,0.4057
1291.0,0.4107
1292.0,0.3927
1293.0,0.4044
1294.0,0.4019
1295.0,0.4016
1296.0,0.388
1297.0,0.3707
1298.0,0.3918
1299.0,0.4043
1300.0,0.3547
1301.0,0.363
1302.0,0.3903
1303.0,0.3487
1304.0,0.3093
1305.0,0.3833
1306.0,0.384
1307.0,0.3119
1308.0,0.3474
1309.0,0.3819
1310.0,0.3065
1311.0,0.3357
1312.0,0.3286
1313.0,0.324
1314.0,0.2944
1315.0,0.2932
1316.0,0.3324
1317.0,0.3162
1318.0,0.3388
1319.0,0.2791
1320.0,0.2673
1321.0,0.3064
1322.0,0.3115
1323.0,0.2464
1324.0,0.2737
1325.0,0.3282
1326.0,0.2893
1327.0,0.2779
1328.0,0.2435
1329.0,0.1931
1330.0,0.2459
1331.0,0.1614
1332.0,0.1621
1333.0,0.222
1334.0,0.1832
1335.0,0.2452
1336.0,0.2002
1337.0,0.1811
1338.0,0.1953
1339.0,0.1928
1340.0,0.1844
1341.0,0.1872
1342.0,0.1962
1343.0,0.149
1344.0,0.08904
1345.0,0.1261
1346.0,0.0742
1347.0,0.07735
1348.0,0.007779
1349.0,0.02443
1350.0,0.0231
1351.0,0.008256
1352.0,0.003262
1353.0,0.0002692
1354.0,0.0006963
1355.0,1.423e-05
1356.0,0.0001374
1357.0,0.0002054
1358.0,1.624e-05
1359.0,3.982e-06
1360.0,9.428e-06
1361.0,4.566e-08
1362.0,2.486e-10
1363.0,1.466e-05
1364.0,6.681e-06
1365.0,1.843e-10
1366.0,5.326e-05
1367.0,2.055e-05
1368.0,6.497e-12
1369.0,2.641e-06
1370.0,1.718e-06
1371.0,1.435e-07
1372.0,1.144e-05
1373.0,0.0001419
1374.0,0.0004787
1375.0,0.0008505
1376.0,0.0006177
1377.0,0.0003068
1378.0,0.002493
1379.0,0.0001323
1380.0,0.0002265
1381.0,7.536e-06
1382.0,1.113e-05
1383.0,2.301e-07
1384.0,3.307e-06
1385.0,7.825e-06
1386.0,1.192e-05
1387.0,0.0005774
1388.0,1.272e-05
1389.0,0.001417
1390.0,0.001207
1391.0,0.0008808
1392.0,6.694e-05
1393.0,0.0002938
1394.0,0.000244
1395.0,2.79e-06
1396.0,5.455e-08
1397.0,0.0001339
1398.0,0.002858
1399.0,0.001825
1400.0,3.392e-08
1401.0,8.538e-08
1402.0,0.003402
1403.0,0.004576
1404.0,0.001445
1405.0,1.731e-06
1406.0,0.004198
1407.0,0.000361
1408.0,0.003381
1409.0,0.001431
1410.0,0.001026
1411.0,0.003979
1412.0,0.004808
1413.0,0.03437
1414.0,0.0007914
1415.0,0.0004279
1416.0,0.04729
1417.0,0.01785
1418.0,0.02034
1419.0,0.003359
1420.0,0.01262
1421.0,0.01402
1422.0,0.06053
1423.0,0.01278
1424.0,0.02309
1425.0,0.03495
1426.0,0.03675
1427.0,0.06062
1428.0,0.007527
1429.0,0.04827
1430.0,0.07513
1431.0,0.08073
1432.0,0.006043
1433.0,0.05399
1434.0,0.02881
1435.0,0.03333
1436.0,0.05693
1437.0,0.04377
1438.0,0.02058
1439.0,0.07412
1440.0,0.05605
1441.0,0.0461
1442.0,0.0502
1443.0,0.05793
1444.0,0.07828
1445.0,0.06521
1446.0,0.03059
1447.0,0.04825
1448.0,0.1336
1449.0,0.12
1450.0,0.0357
1451.0,0.01547
1452.0,0.07605
1453.0,0.09738
1454.0,0.1535
1455.0,0.07753
1456.0,0.1063
1457.0,0.1343
1458.0,0.1506
1459.0,0.1792
1460.0,0.09767
1461.0,0.1052
1462.0,0.1477
1463.0,0.05252
1464.0,0.1686
1465.0,0.1029
1466.0,0.07959
1467.0,0.04592
1468.0,0.09156
