interpolation:linear
wavelength,value
280.0,6.847e-19
280.5,1.084e-17
281.0,4.532e-17
281.5,7.128e-16
282.0,3.744e-15
282.5,1.085e-14
283.0,3.515e-14
283.5,5.682e-14
284.0,7.04e-13
284.5,1.739e-12
285.0,2.838e-12
285.5,1.424e-11
286.0,5.621e-11
286.5,2.261e-10
287.0,5.851e-10
287.5,1.9e-09
288.0,5.543e-09
288.5,1.747e-08
289.0,4.606e-08
289.5,1.316e-07
290.0,3.438e-07
290.5,6.629e-07
291.0,1.308e-06
291.5,3.296e-06
292.0,6.727e-06
292.5,8.96e-06
293.0,1.776e-05
293.5,3.822e-05
294.0,5.553e-05
294.5,8.781e-05
295.0,0.000135
295.5,0.0002761
296.0,0.0004426
296.5,0.0005168
297.0,0.0006047
297.5,0.001309
298.0,0.001727
298.5,0.001518
299.0,0.002941
299.5,0.003903
300.0,0.003814
300.5,0.004895
301.0,0.007318
301.5,0.009885
302.0,0.007813
302.5,0.01384
303.0,0.02195
303.5,0.02566
304.0,0.02303
304.5,0.03037
305.0,0.03881
305.5,0.04007
306.0,0.03737
306.5,0.04368
307.0,0.05622
307.5,0.06547
308.0,0.0679
308.5,0.07541
309.0,0.06583
309.5,0.06955
310.0,0.06741
310.5,0.1075
311.0,0.1309
311.5,0.125
312.0,0.1165
312.5,0.1354
313.0,0.1437
313.5,0.1434
314.0,0.1695
314.5,0.1393
315.0,0.181
315.5,0.1579
316.0,0.1297
316.5,0.1766
317.0,0.2202
317.5,0.2335
318.0,0.1759
318.5,0.2035
319.0,0.2334
319.5,0.2025
320.0,0.2475
320.5,0.2884
321.0,0.241
321.5,0.2301
322.0,0.2642
322.5,0.2295
323.0,0.2188
323.5,0.2492
324.0,0.289
324.5,0.3011
325.0,0.2761
325.5,0.3429
326.0,0.4006
326.5,0.3908
327.0,0.3947
327.5,0.3874
328.0,0.3597
328.5,0.3616
329.0,0.4189
329.5,0.4717
330.0,0.4812
330.5,0.3968
331.0,0.4091
331.5,0.4083
332.0,0.4295
332.5,0.4205
333.0,0.4235
333.5,0.3927
334.0,0.4046
334.5,0.4567
335.0,0.4244
335.5,0.4814
336.0,0.3337
336.5,0.4072
337.0,0.3382
337.5,0.4231
338.0,0.4061
338.5,0.4579
339.0,0.4564
339.5,0.4383
340.0,0.5289
340.5,0.4769
341.0,0.4569
341.5,0.4238
342.0,0.5084
342.5,0.4774
343.0,0.5241
343.5,0.4931
344.0,0.3709
344.5,0.3668
345.0,0.4911
345.5,0.5038
346.0,0.4298
346.5,0.4881
347.0,0.5234
347.5,0.4235
348.0,0.4855
348.5,0.4872
349.0,0.453
349.5,0.449
350.0,0.5565
350.5,0.588
351.0,0.5257
351.5,0.5096
352.0,0.5499
352.5,0.4307
353.0,0.5438
353.5,0.5829
354.0,0.6066
354.5,0.6164
355.0,0.6153
355.5,0.5567
356.0,0.5836
356.5,0.4993
357.0,0.4134
357.5,0.5072
358.0,0.4028
358.5,0.3448
359.0,0.4832
359.5,0.6166
360.0,0.655
360.5,0.5246
361.0,0.4789
361.5,0.5519
362.0,0.4776
362.5,0.6616
363.0,0.5948
363.5,0.5485
364.0,0.6716
364.5,0.5749
365.0,0.5864
365.5,0.737
366.0,0.7818
366.5,0.7354
367.0,0.7172
367.5,0.7455
368.0,0.6532
368.5,0.66
369.0,0.7137
369.5,0.7617
370.0,0.8131
370.5,0.6319
371.0,0.676
371.5,0.847
372.0,0.563
372.5,0.676
373.0,0.6883
373.5,0.4484
374.0,0.6524
374.5,0.5409
375.0,0.5265
375.5,0.7873
376.0,0.6536
376.5,0.6783
377.0,0.719
377.5,0.8421
378.0,0.9143
378.5,0.8656
379.0,0.7156
379.5,0.6548
380.0,0.6818
380.5,0.8267
381.0,0.8293
381.5,0.658
382.0,0.5849
382.5,0.499
383.0,0.4625
383.5,0.4459
384.0,0.4924
384.5,0.7251
385.0,0.7198
385.5,0.671
386.0,0.5753
386.5,0.7564
387.0,0.6294
387.5,0.7078
388.0,0.6543
388.5,0.6474
389.0,0.6997
389.5,0.8483
390.0,0.8523
390.5,0.7852
391.0,0.9252
391.5,0.9449
392.0,0.7968
392.5,0.714
393.0,0.3976
393.5,0.2893
394.0,0.5893
394.5,0.7498
395.0,0.916
395.5,0.9316
396.0,0.8085
396.5,0.473
397.0,0.3553
397.5,0.7233
398.0,1.014
398.5,1.049
399.0,1.137
399.5,1.134
400.0,1.179
401.0,1.213
402.0,1.282
403.0,1.219
404.0,1.202
405.0,1.204
406.0,1.186
407.0,1.169
408.0,1.217
409.0,1.304
410.0,1.141
411.0,1.237
412.0,1.33
413.0,1.3
414.0,1.317
415.0,1.322
416.0,1.347
417.0,1.316
418.0,1.293
419.0,1.312
420.0,1.308
421.0,1.37
422.0,1.304
423.0,1.276
424.0,1.351
425.0,1.35
426.0,1.316
427.0,1.293
428.0,1.261
429.0,1.195
430.0,1.047
431.0,1.04
432.0,1.343
433.0,1.352
434.0,1.257
435.0,1.315
436.0,1.482
437.0,1.463
438.0,1.333
439.0,1.382
440.0,1.427
441.0,1.479
442.0,1.588
443.0,1.55
444.0,1.584
445.0,1.553
446.0,1.482
447.0,1.602
448.0,1.631
449.0,1.637
450.0,1.684
451.0,1.748
452.0,1.685
453.0,1.586
454.0,1.657
455.0,1.669
456.0,1.71
457.0,1.74
458.0,1.684
459.0,1.676
460.0,1.683
461.0,1.723
462.0,1.736
463.0,1.727
464.0,1.698
465.0,1.676
466.0,1.693
467.0,1.665
468.0,1.686
469.0,1.696
470.0,1.644
471.0,1.643
472.0,1.733
473.0,1.713
474.0,1.718
475.0,1.736
476.0,1.688
477.0,1.696
478.0,1.744
479.0,1.733
480.0,1.736
481.0,1.769
482.0,1.777
483.0,1.755
484.0,1.72
485.0,1.639
486.0,1.433
487.0,1.502
488.0,1.649
489.0,1.657
490.0,1.743
491.0,1.713
492.0,1.619
493.0,1.673
494.0,1.691
495.0,1.706
496.0,1.718
497.0,1.746
498.0,1.665
499.0,1.689
500.0,1.642
501.0,1.614
502.0,1.595
503.0,1.663
504.0,1.63
505.0,1.683
506.0,1.739
507.0,1.655
508.0,1.603
509.0,1.647
510.0,1.638
511.0,1.681
512.0,1.7
513.0,1.61
514.0,1.599
515.0,1.584
516.0,1.581
517.0,1.405
518.0,1.478
519.0,1.552
520.0,1.61
521.0,1.626
522.0,1.629
523.0,1.601
524.0,1.66
525.0,1.682
526.0,1.609
527.0,1.518
528.0,1.608
529.0,1.696
530.0,1.673
531.0,1.7
532.0,1.642
533.0,1.595
534.0,1.642
535.0,1.678
536.0,1.694
537.0,1.627
538.0,1.656
539.0,1.643
540.0,1.577
541.0,1.59
542.0,1.642
543.0,1.623
544.0,1.654
545.0,1.649
546.0,1.659
547.0,1.657
548.0,1.638
549.0,1.643
550.0,1.663
551.0,1.643
552.0,1.655
553.0,1.627
554.0,1.667
555.0,1.671
556.0,1.65
557.0,1.6
558.0,1.59
559.0,1.562
560.0,1.583
561.0,1.605
562.0,1.596
563.0,1.642
564.0,1.599
565.0,1.587
566.0,1.565
567.0,1.597
568.0,1.587
569.0,1.558
570.0,1.557
571.0,1.546
572.0,1.589
573.0,1.607
574.0,1.603
575.0,1.576
576.0,1.562
577.0,1.579
578.0,1.554
579.0,1.557
580.0,1.582
581.0,1.587
582.0,1.614
583.0,1.615
584.0,1.628
585.0,1.587
586.0,1.555
587.0,1.592
588.0,1.564
589.0,1.405
590.0,1.468
591.0,1.543
592.0,1.53
593.0,1.545
594.0,1.539
595.0,1.507
596.0,1.552
597.0,1.539
598.0,1.531
599.0,1.531
600.0,1.529
601.0,1.514
602.0,1.504
603.0,1.528
604.0,1.553
605.0,1.545
606.0,1.538
607.0,1.552
608.0,1.533
609.0,1.535
610.0,1.523
611.0,1.531
612.0,1.526
613.0,1.507
614.0,1.485
615.0,1.517
616.0,1.466
617.0,1.463
618.0,1.519
619.0,1.503
620.0,1.513
621.0,1.517
622.0,1.501
623.0,1.479
624.0,1.453
625.0,1.45
626.0,1.472
627.0,1.492
628.0,1.434
629.0,1.472
630.0,1.439
631.0,1.459
632.0,1.44
633.0,1.478
634.0,1.46
635.0,1.481
636.0,1.459
637.0,1.482
638.0,1.493
639.0,1.475
640.0,1.46
641.0,1.458
642.0,1.45
643.0,1.47
644.0,1.464
645.0,1.467
646.0,1.438
647.0,1.432
648.0,1.436
649.0,1.408
650.0,1.402
651.0,1.46
652.0,1.415
653.0,1.441
654.0,1.424
655.0,1.379
656.0,1.217
657.0,1.249
658.0,1.396
659.0,1.404
660.0,1.409
661.0,1.419
662.0,1.425
663.0,1.396
664.0,1.409
665.0,1.408
666.0,1.408
667.0,1.405
668.0,1.405
669.0,1.426
670.0,1.419
671.0,1.418
672.0,1.406
673.0,1.427
674.0,1.421
675.0,1.408
676.0,1.417
677.0,1.403
678.0,1.407
679.0,1.384
680.0,1.395
681.0,1.386
682.0,1.384
683.0,1.382
684.0,1.375
685.0,1.386
686.0,1.379
687.0,1.094
688.0,1.194
689.0,1.195
690.0,1.225
691.0,1.258
692.0,1.279
693.0,1.272
694.0,1.264
695.0,1.295
696.0,1.298
697.0,1.349
698.0,1.329
699.0,1.315
700.0,1.299
701.0,1.292
702.0,1.294
703.0,1.297
704.0,1.328
705.0,1.33
706.0,1.325
707.0,1.325
708.0,1.328
709.0,1.324
710.0,1.327
711.0,1.323
712.0,1.317
713.0,1.306
714.0,1.311
715.0,1.276
716.0,1.279
717.0,1.175
718.0,1.094
719.0,1.012
720.0,1.063
721.0,1.13
722.0,1.246
723.0,1.185
724.0,1.096
725.0,1.088
726.0,1.132
727.0,1.134
728.0,1.088
729.0,1.105
730.0,1.166
731.0,1.125
732.0,1.177
733.0,1.222
734.0,1.244
735.0,1.222
736.0,1.22
737.0,1.226
738.0,1.23
739.0,1.206
740.0,1.233
741.0,1.218
742.0,1.216
743.0,1.247
744.0,1.242
745.0,1.241
746.0,1.247
747.0,1.249
748.0,1.246
749.0,1.232
750.0,1.232
751.0,1.219
752.0,1.224
753.0,1.23
754.0,1.233
755.0,1.227
756.0,1.226
757.0,1.228
758.0,1.213
759.0,1.197
760.0,0.4213
761.0,0.2885
762.0,0.8035
763.0,0.5396
764.0,0.6835
765.0,0.8046
766.0,0.8915
767.0,1.036
768.0,1.128
769.0,1.137
770.0,1.16
771.0,1.162
772.0,1.162
773.0,1.17
774.0,1.164
775.0,1.155
776.0,1.169
777.0,1.153
778.0,1.147
779.0,1.148
780.0,1.141
781.0,1.142
782.0,1.15
783.0,1.129
784.0,1.135
785.0,1.127
786.0,1.14
787.0,1.127
788.0,1.116
789.0,1.117
790.0,1.098
791.0,1.098
792.0,1.088
793.0,1.072
794.0,1.08
795.0,1.101
796.0,1.081
797.0,1.082
798.0,1.101
799.0,1.097
800.0,1.081
801.0,1.081
802.0,1.077
803.0,1.071
804.0,1.071
805.0,1.064
806.0,1.087
807.0,1.076
808.0,1.076
809.0,1.061
810.0,1.056
811.0,1.063
812.0,1.043
813.0,1.028
814.0,0.9397
815.0,0.9333
816.0,0.8753
817.0,0.8862
818.0,0.8609
819.0,0.9309
820.0,0.8895
821.0,0.9976
822.0,0.9764
823.0,0.7342
824.0,0.9616
825.0,0.9835
826.0,0.9586
827.0,0.998
828.0,0.884
829.0,0.9504
830.0,0.9422
831.0,0.9439
832.0,0.9221
833.0,0.9604
834.0,0.939
835.0,1.005
836.0,0.9784
837.0,1.007
838.0,0.9825
839.0,0.9907
840.0,1.011
841.0,0.9994
842.0,0.997
843.0,0.9919
844.0,0.9808
845.0,1.01
846.0,1.005
847.0,0.9852
848.0,0.9812
849.0,0.9534
850.0,0.9132
851.0,0.9691
852.0,0.9614
853.0,0.9237
854.0,0.7991
855.0,0.8759
856.0,0.9581
857.0,0.9782
858.0,0.9716
859.0,0.9716
860.0,0.9728
861.0,0.9677
862.0,0.9827
863.0,1.006
864.0,0.9556
865.0,0.9471
866.0,0.8517
867.0,0.8888
868.0,0.9671
869.0,0.947
870.0,0.974
871.0,0.9609
872.0,0.9574
873.0,0.9555
874.0,0.9442
875.0,0.9252
876.0,0.935
877.0,0.9443
878.0,0.955
879.0,0.9403
880.0,0.9202
881.0,0.9074
882.0,0.9274
883.0,0.9294
884.0,0.9256
885.0,0.9326
886.0,0.8924
887.0,0.8993
888.0,0.9145
889.0,0.9216
890.0,0.9177
891.0,0.9143
892.0,0.8926
893.0,0.8714
894.0,0.8526
895.0,0.821
896.0,0.7823
897.0,0.695
898.0,0.7445
899.0,0.5961
900.0,0.749
901.0,0.6223
902.0,0.6928
903.0,0.7111
904.0,0.8466
905.0,0.8248
906.0,0.7782
907.0,0.6657
908.0,0.6748
909.0,0.7139
910.0,0.6605
911.0,0.6874
912.0,0.7107
913.0,0.6716
914.0,0.6613
915.0,0.7115
916.0,0.6143
917.0,0.744
918.0,0.6299
919.0,0.7512
920.0,0.7459
921.0,0.7705
922.0,0.7099
923.0,0.7437
924.0,0.7276
925.0,0.7131
926.0,0.72
927.0,0.7861
928.0,0.6342
929.0,0.5947
930.0,0.4947
931.0,0.4635
932.0,0.3609
933.0,0.31
934.0,0.2051
935.0,0.3035
936.0,0.2112
937.0,0.2181
938.0,0.2588
939.0,0.4493
940.0,0.5218
941.0,0.4198
942.0,0.4682
943.0,0.3292
944.0,0.3294
945.0,0.4289
946.0,0.2474
947.0,0.4376
948.0,0.3278
949.0,0.556
950.0,0.2036
951.0,0.5428
952.0,0.3314
953.0,0.4021
954.0,0.4651
955.0,0.4033
956.0,0.3829
957.0,0.336
958.0,0.5
959.0,0.4259
960.0,0.4754
961.0,0.5123
962.0,0.4884
963.0,0.5439
964.0,0.5053
965.0,0.5391
966.0,0.5442
967.0,0.5433
968.0,0.6671
969.0,0.6992
970.0,0.652
971.0,0.7196
972.0,0.6935
973.0,0.6303
974.0,0.6031
975.0,0.6151
976.0,0.5976
977.0,0.6533
978.0,0.6318
979.0,0.6526
980.0,0.6201
981.0,0.7143
982.0,0.6923
983.0,0.6706
984.0,0.726
985.0,0.6893
986.0,0.7328
987.0,0.7244
988.0,0.7233
989.0,0.727
990.0,0.7182
991.0,0.73
992.0,0.7335
993.0,0.7232
994.0,0.7327
995.0,0.7309
996.0,0.7287
997.0,0.7293
998.0,0.7262
999.0,0.7233
1000.0,0.7197
1001.0,0.7271
1002.0,0.7132
1003.0,0.7146
1004.0,0.6988
1005.0,0.671
1006.0,0.6984
1007.0,0.7126
1008.0,0.7099
1009.0,0.7073
1010.0,0.705
1011.0,0.7089
1012.0,0.704
1013.0,0.7069
1014.0,0.7019
1015.0,0.6975
1016.0,0.6945
1017.0,0.6965
1018.0,0.6932
1019.0,0.6807
1020.0,0.6899
1021.0,0.6886
1022.0,0.6841
1023.0,0.6916
1024.0,0.685
1025.0,0.6903
1026.0,0.688
1027.0,0.6863
1028.0,0.6851
1029.0,0.6772
1030.0,0.681
1031.0,0.6786
1032.0,0.6764
1033.0,0.6663
1034.0,0.6663
1035.0,0.6684
1036.0,0.6721
1037.0,0.6611
1038.0,0.6641
1039.0,0.6639
1040.0,0.6613
1041.0,0.6641
1042.0,0.6595
1043.0,0.6576
1044.0,0.66
1045.0,0.6512
1046.0,0.6442
1047.0,0.6502
1048.0,0.6539
1049.0,0.6518
1050.0,0.649
1051.0,0.6483
1052.0,0.6459
1053.0,0.6411
1054.0,0.6428
1055.0,0.6435
1056.0,0.6416
1057.0,0.6399
1058.0,0.6245
1059.0,0.6256
1060.0,0.6248
1061.0,0.6243
1062.0,0.628
1063.0,0.6221
1064.0,0.6293
1065.0,0.6257
1066.0,0.6127
1067.0,0.6209
1068.0,0.6079
1069.0,0.5887
1070.0,0.6093
1071.0,0.6167
1072.0,0.6112
1073.0,0.6021
1074.0,0.6153
1075.0,0.591
1076.0,0.6152
1077.0,0.608
1078.0,0.5978
1079.0,0.6044
1080.0,0.5988
1081.0,0.5825
1082.0,0.5864
1083.0,0.5869
1084.0,0.5832
1085.0,0.5995
1086.0,0.5583
1087.0,0.5676
1088.0,0.5876
1089.0,0.5757
1090.0,0.5679
1091.0,0.5875
1092.0,0.5845
1093.0,0.5157
1094.0,0.5372
1095.0,0.5337
1096.0,0.5173
1097.0,0.5707
1098.0,0.511
1099.0,0.5298
1100.0,0.5023
1101.0,0.5056
1102.0,0.4883
1103.0,0.4877
1104.0,0.4879
1105.0,0.5198
1106.0,0.4332
1107.0,0.5006
1108.0,0.4461
1109.0,0.4429
1110.0,0.4985
1111.0,0.3687
1112.0,0.4378
1113.0,0.3115
1114.0,0.3432
1115.0,0.2857
1116.0,0.2494
1117.0,0.1179
1118.0,0.2622
1119.0,0.1501
1120.0,0.1881
1121.0,0.2364
1122.0,0.1172
1123.0,0.1696
1124.0,0.1435
1125.0,0.1824
1126.0,0.08159
1127.0,0.2041
1128.0,0.1412
1129.0,0.1462
1130.0,0.1067
1131.0,0.3433
1132.0,0.2778
1133.0,0.1986
1134.0,0.06753
1135.0,0.02486
1136.0,0.1738
1137.0,0.3425
1138.0,0.2479
1139.0,0.3296
1140.0,0.2907
1141.0,0.2356
1142.0,0.2619
1143.0,0.3551
1144.0,0.1465
1145.0,0.1906
1146.0,0.2058
1147.0,0.09203
1148.0,0.3077
1149.0,0.2588
1150.0,0.1577
1151.0,0.2463
1152.0,0.2881
1153.0,0.27
1154.0,0.1904
1155.0,0.3443
1156.0,0.3176
1157.0,0.3465
1158.0,0.3419
1159.0,0.3583
1160.0,0.3199
1161.0,0.3712
1162.0,0.3745
1163.0,0.4692
1164.0,0.4162
1165.0,0.4043
1166.0,0.3941
1167.0,0.4222
1168.0,0.429
1169.0,0.4342
1170.0,0.4619
1171.0,0.4524
1172.0,0.4552
1173.0,0.4609
1174.0,0.3589
1175.0,0.4466
1176.0,0.4779
1177.0,0.4669
1178.0,0.3734
1179.0,0.4811
1180.0,0.4443
1181.0,0.4565
1182.0,0.3396
1183.0,0.4461
1184.0,0.4262
1185.0,0.4178
1186.0,0.4728
1187.0,0.4571
1188.0,0.3466
1189.0,0.4278
1190.0,0.4623
1191.0,0.4499
1192.0,0.4674
1193.0,0.4522
1194.0,0.4631
1195.0,0.4457
1196.0,0.4345
1197.0,0.4587
1198.0,0.4267
1199.0,0.3813
1200.0,0.4471
1201.0,0.4373
1202.0,0.4318
1203.0,0.4277
1204.0,0.3854
1205.0,0.4363
1206.0,0.4713
1207.0,0.4321
1208.0,0.4199
1209.0,0.4272
1210.0,0.4408
1211.0,0.427
1212.0,0.4288
1213.0,0.4594
1214.0,0.4353
1215.0,0.4291
1216.0,0.4577
1217.0,0.4491
1218.0,0.4543
1219.0,0.4503
1220.0,0.4544
1221.0,0.457
1222.0,0.4474
1223.0,0.4446
1224.0,0.4441
1225.0,0.4541
1226.0,0.4551
1227.0,0.4287
1228.0,0.4556
1229.0,0.455
1230.0,0.449
1231.0,0.4564
1232.0,0.4538
1233.0,0.445
1234.0,0.4546
1235.0,0.4527
1236.0,0.4552
1237.0,0.4515
1238.0,0.4536
1239.0,0.4479
1240.0,0.4493
1241.0,0.4488
1242.0,0.4464
1243.0,0.4426
1244.0,0.4463
1245.0,0.4479
1246.0,0.4452
1247.0,0.444
1248.0,0.4445
1249.0,0.4451
1250.0,0.4429
1251.0,0.4383
1252.0,0.4371
1253.0,0.4359
1254.0,0.4333
1255.0,0.4373
1256.0,0.4293
1257.0,0.4278
1258.0,0.4324
1259.0,0.4234
1260.0,0.4248
1261.0,0.4095
1262.0,0.4018
1263.0,0.4028
1264.0,0.3826
1265.0,0.4
1266.0,0.3913
1267.0,0.3938
1268.0,0.3805
1269.0,0.2876
1270.0,0.3941
1271.0,0.4071
1272.0,0.4074
1273.0,0.4041
1274.0,0.4042
1275.0,0.4084
1276.0,0.4106
1277.0,0.4115
1278.0,0.4158
1279.0,0.4124
1280.0,0.407
1281.0,0.3868
1282.0,0.3701
1283.0,0.3991
1284.0,0.4092
1285.0,0.4115
1286.0,0.4156
1287.0,0.4119
1288.0,0.4111
1289.0,0.4033
1290.0,0.4071
1291.0,0.4118
1292.0,0.3969
1293.0,0.4064
1294.0,0.4041
1295.0,0.4044
1296.0,0.3927
1297.0,0.3771
1298.0,0.3952
1299.0,0.4059
1300.0,0.3625
1301.0,0.3696
1302.0,0.3935
1303.0,0.3557
1304.0,0.3216
1305.0,0.3871
1306.0,0.3879
1307.0,0.3225
1308.0,0.3536
1309.0,0.3861
1310.0,0.3171
1311.0,0.3431
1312.0,0.3367
1313.0,0.3328
1314.0,0.3048
1315.0,0.3047
1316.0,0.3405
1317.0,0.3247
1318.0,0.3453
1319.0,0.2922
1320.0,0.2784
1321.0,0.3164
1322.0,0.3223
1323.0,0.2616
1324.0,0.2866
1325.0,0.3364
1326.0,0.3008
1327.0,0.2899
1328.0,0.2562
1329.0,0.2087
1330.0,0.2627
1331.0,0.1802
1332.0,0.1785
1333.0,0.2415
1334.0,0.198
1335.0,0.26
1336.0,0.2157
1337.0,0.1982
1338.0,0.2125
1339.0,0.2092
1340.0,0.1986
1341.0,0.2051
1342.0,0.2148
1343.0,0.1724
1344.0,0.104
1345.0,0.1446
1346.0,0.09252
1347.0,0.09727
1348.0,0.01245
1349.0,0.03599
1350.0,0.03223
1351.0,0.0141
1352.0,0.006572
1353.0,0.0007135
1354.0,0.001601
1355.0,5.271e-05
1356.0,0.0003763
1357.0,0.0005532
1358.0,5.905e-05
1359.0,1.973e-05
1360.0,3.835e-05
1361.0,3.872e-07
1362.0,3.146e-09
1363.0,6.015e-05
1364.0,3.018e-05
1365.0,3.225e-09
1366.0,0.0001986
1367.0,7.847e-05
1368.0,2.3e-10
1369.0,1.247e-05
1370.0,9.196e-06
1371.0,9.549e-07
1372.0,4.447e-05
1373.0,0.0004244
1374.0,0.001217
1375.0,0.002068
1376.0,0.001414
1377.0,0.0007375
1378.0,0.005249
1379.0,0.0003267
1380.0,0.0005961
1381.0,2.343e-05
1382.0,4.468e-05
1383.0,1.144e-06
1384.0,1.62e-05
1385.0,2.786e-05
1386.0,5.151e-05
1387.0,0.001526
1388.0,3.884e-05
1389.0,0.003256
1390.0,0.002729
1391.0,0.002119
1392.0,0.0001819
1393.0,0.0007146
1394.0,0.0007253
1395.0,1.103e-05
1396.0,4.253e-07
1397.0,0.0003506
1398.0,0.005994
1399.0,0.003895
1400.0,3.11e-07
1401.0,6.211e-07
1402.0,0.006105
1403.0,0.008394
1404.0,0.00271
1405.0,7.675e-06
1406.0,0.008086
1407.0,0.0007309
1408.0,0.006511
1409.0,0.003063
1410.0,0.002167
1411.0,0.007283
1412.0,0.008358
1413.0,0.0483
1414.0,0.001662
1415.0,0.0009586
1416.0,0.06146
1417.0,0.02658
1418.0,0.02954
1419.0,0.005117
1420.0,0.01854
1421.0,0.02142
1422.0,0.07712
1423.0,0.01753
1424.0,0.03081
1425.0,0.04696
1426.0,0.0475
1427.0,0.07306
1428.0,0.01218
1429.0,0.06032
1430.0,0.08916
1431.0,0.09449
1432.0,0.009911
1433.0,0.06547
1434.0,0.03613
1435.0,0.0452
1436.0,0.07175
1437.0,0.05568
1438.0,0.02799
1439.0,0.09063
1440.0,0.06938
1441.0,0.05962
1442.0,0.0636
1443.0,0.06982
1444.0,0.09364
1445.0,0.08061
1446.0,0.03867
1447.0,0.06165
1448.0,0.1498
1449.0,0.138
1450.0,0.04578
1451.0,0.02095
1452.0,0.0903
1453.0,0.1134
1454.0,0.1694
1455.0,0.08964
1456.0,0.1245
1457.0,0.151
1458.0,0.1638
1459.0,0.1957
1460.0,0.1104
1461.0,0.1208
1462.0,0.1649
1463.0,0.06307
1464.0,0.1837
1465.0,0.1132
1466.0,0.09427
1467.0,0.05803
1468.0,0.1068
1469.0,0.1263
1470.0,0.07522
1471.0,0.03084
