interpolation:linear
wavelength,value
280.0,4.3459999999999996e-27
280.5,2.284e-25
281.0,1.48e-24
281.5,7.433e-23
282.0,7.902999999999999e-22
282.5,3.684e-21
283.0,2.0130000000000003e-20
283.5,4.223e-20
284.0,1.756e-18
284.5,7.533e-18
285.0,2.233e-17
285.5,2.263e-16
286.0,1.187e-15
286.5,8.568e-15
287.0,3.413e-14
287.5,1.951e-13
288.0,1.16e-12
288.5,5.339e-12
289.0,2.08e-11
289.5,9.129e-11
290.0,3.389e-10
290.5,8.768e-10
291.0,2.464e-09
291.5,9.746e-09
292.0,2.87e-08
292.5,4.699e-08
293.0,1.214e-07
293.5,3.746e-07
294.0,6.946e-07
294.5,1.32e-06
295.0,2.557e-06
295.5,6.964e-06
296.0,1.358e-05
296.5,1.909e-05
297.0,2.588e-05
297.5,6.885e-05
298.0,0.0001073
298.5,0.0001068
299.0,0.0002322
299.5,0.0003706
300.0,0.0003989
300.5,0.0005628
301.0,0.0009647
301.5,0.001456
302.0,0.001214
302.5,0.002367
303.0,0.004216
303.5,0.005267
304.0,0.004888
304.5,0.006961
305.0,0.009831
305.5,0.01078
306.0,0.01031
306.5,0.01252
307.0,0.01737
307.5,0.02165
308.0,0.02278
308.5,0.02615
309.0,0.02344
309.5,0.02655
310.0,0.02659
310.5,0.04314
311.0,0.05398
311.5,0.05223
312.0,0.05121
312.5,0.06153
313.0,0.06647
313.5,0.06566
314.0,0.08055
314.5,0.06927
315.0,0.09101
315.5,0.07809
316.0,0.0665
316.5,0.09333
317.0,0.1167
317.5,0.1232
318.0,0.09475
318.5,0.1136
319.0,0.1327
319.5,0.1126
320.0,0.1376
320.5,0.1659
321.0,0.1426
321.5,0.1369
322.0,0.1534
322.5,0.1339
323.0,0.1304
323.5,0.1532
324.0,0.1789
324.5,0.185
325.0,0.1669
325.5,0.2107
326.0,0.2514
326.5,0.2488
327.0,0.2509
327.5,0.2457
328.0,0.2248
328.5,0.2312
329.0,0.2721
329.5,0.3083
330.0,0.3144
330.5,0.2574
331.0,0.2652
331.5,0.2674
332.0,0.2848
332.5,0.2806
333.0,0.2827
333.5,0.2608
334.0,0.2691
334.5,0.307
335.0,0.2871
335.5,0.3271
336.0,0.2273
336.5,0.2769
337.0,0.2298
337.5,0.2879
338.0,0.2786
338.5,0.3155
339.0,0.3155
339.5,0.3036
340.0,0.3661
340.5,0.331
341.0,0.3187
341.5,0.2965
342.0,0.3566
342.5,0.3356
343.0,0.369
343.5,0.3477
344.0,0.2613
344.5,0.2595
345.0,0.3487
345.5,0.3588
346.0,0.3068
346.5,0.3492
347.0,0.3751
347.5,0.304
348.0,0.3494
348.5,0.3513
349.0,0.3274
349.5,0.3252
350.0,0.4038
350.5,0.4275
351.0,0.3828
351.5,0.3715
352.0,0.4018
352.5,0.3154
353.0,0.3991
353.5,0.4285
354.0,0.4467
354.5,0.4546
355.0,0.4545
355.5,0.4121
356.0,0.4328
356.5,0.3708
357.0,0.3074
357.5,0.3777
358.0,0.3004
358.5,0.2576
359.0,0.3615
359.5,0.4618
360.0,0.4913
360.5,0.3941
361.0,0.3605
361.5,0.4163
362.0,0.3611
362.5,0.5012
363.0,0.4514
363.5,0.417
364.0,0.5116
364.5,0.4386
365.0,0.448
365.5,0.5639
366.0,0.5992
366.5,0.5646
367.0,0.5515
367.5,0.574
368.0,0.5037
368.5,0.5097
369.0,0.5519
369.5,0.59
370.0,0.6307
370.5,0.4908
371.0,0.5259
371.5,0.6597
372.0,0.4391
372.5,0.5279
373.0,0.5383
373.5,0.3512
374.0,0.5116
374.5,0.4248
375.0,0.414
375.5,0.6197
376.0,0.5151
376.5,0.5352
377.0,0.568
377.5,0.6662
378.0,0.724
378.5,0.6862
379.0,0.5678
379.5,0.5201
380.0,0.5421
380.5,0.6583
381.0,0.6613
381.5,0.5255
382.0,0.4678
382.5,0.3997
383.0,0.371
383.5,0.3581
384.0,0.396
384.5,0.5837
385.0,0.5802
385.5,0.5415
386.0,0.4648
386.5,0.612
387.0,0.5097
387.5,0.5738
388.0,0.531
388.5,0.526
389.0,0.5691
389.5,0.6908
390.0,0.6948
390.5,0.6408
391.0,0.7559
391.5,0.7727
392.0,0.6522
392.5,0.5851
393.0,0.3262
393.5,0.2376
394.0,0.4845
394.5,0.6172
395.0,0.7546
395.5,0.7681
396.0,0.6673
396.5,0.3908
397.0,0.2939
397.5,0.5989
398.0,0.8404
398.5,0.8703
399.0,0.944
399.5,0.9426
400.0,0.9807
401.0,1.011
402.0,1.07
403.0,1.02
404.0,1.008
405.0,1.011
406.0,0.9978
407.0,0.9849
408.0,1.027
409.0,1.102
410.0,0.9661
411.0,1.05
412.0,1.13
413.0,1.106
414.0,1.123
415.0,1.129
416.0,1.152
417.0,1.127
418.0,1.109
419.0,1.127
420.0,1.125
421.0,1.18
422.0,1.125
423.0,1.102
424.0,1.169
425.0,1.17
426.0,1.142
427.0,1.123
428.0,1.097
429.0,1.041
430.0,0.9134
431.0,0.9077
432.0,1.175
433.0,1.184
434.0,1.102
435.0,1.154
436.0,1.302
437.0,1.287
438.0,1.174
439.0,1.218
440.0,1.259
441.0,1.307
442.0,1.405
443.0,1.372
444.0,1.404
445.0,1.377
446.0,1.316
447.0,1.425
448.0,1.451
449.0,1.459
450.0,1.502
451.0,1.561
452.0,1.507
453.0,1.42
454.0,1.484
455.0,1.496
456.0,1.535
457.0,1.563
458.0,1.513
459.0,1.508
460.0,1.514
461.0,1.552
462.0,1.566
463.0,1.558
464.0,1.534
465.0,1.516
466.0,1.533
467.0,1.508
468.0,1.528
469.0,1.539
470.0,1.492
471.0,1.492
472.0,1.574
473.0,1.556
474.0,1.562
475.0,1.578
476.0,1.534
477.0,1.541
478.0,1.586
479.0,1.578
480.0,1.583
481.0,1.615
482.0,1.625
483.0,1.606
484.0,1.575
485.0,1.502
486.0,1.315
487.0,1.379
488.0,1.515
489.0,1.522
490.0,1.603
491.0,1.577
492.0,1.491
493.0,1.542
494.0,1.559
495.0,1.574
496.0,1.585
497.0,1.612
498.0,1.538
499.0,1.56
500.0,1.517
501.0,1.491
502.0,1.473
503.0,1.536
504.0,1.501
505.0,1.554
506.0,1.606
507.0,1.53
508.0,1.483
509.0,1.525
510.0,1.518
511.0,1.56
512.0,1.578
513.0,1.495
514.0,1.486
515.0,1.473
516.0,1.471
517.0,1.308
518.0,1.376
519.0,1.445
520.0,1.499
521.0,1.515
522.0,1.518
523.0,1.492
524.0,1.547
525.0,1.567
526.0,1.499
527.0,1.414
528.0,1.497
529.0,1.58
530.0,1.559
531.0,1.583
532.0,1.53
533.0,1.486
534.0,1.531
535.0,1.566
536.0,1.581
537.0,1.52
538.0,1.547
539.0,1.536
540.0,1.473
541.0,1.485
542.0,1.533
543.0,1.517
544.0,1.545
545.0,1.541
546.0,1.55
547.0,1.55
548.0,1.532
549.0,1.538
550.0,1.557
551.0,1.539
552.0,1.551
553.0,1.524
554.0,1.562
555.0,1.566
556.0,1.547
557.0,1.5
558.0,1.49
559.0,1.464
560.0,1.483
561.0,1.504
562.0,1.494
563.0,1.537
564.0,1.496
565.0,1.484
566.0,1.464
567.0,1.493
568.0,1.482
569.0,1.45
570.0,1.45
571.0,1.441
572.0,1.478
573.0,1.495
574.0,1.492
575.0,1.465
576.0,1.452
577.0,1.469
578.0,1.447
579.0,1.452
580.0,1.479
581.0,1.486
582.0,1.513
583.0,1.517
584.0,1.53
585.0,1.493
586.0,1.463
587.0,1.497
588.0,1.464
589.0,1.304
590.0,1.363
591.0,1.44
592.0,1.424
593.0,1.444
594.0,1.435
595.0,1.403
596.0,1.454
597.0,1.44
598.0,1.435
599.0,1.437
600.0,1.438
601.0,1.426
602.0,1.417
603.0,1.44
604.0,1.465
605.0,1.457
606.0,1.451
607.0,1.466
608.0,1.45
609.0,1.452
610.0,1.442
611.0,1.45
612.0,1.446
613.0,1.428
614.0,1.408
615.0,1.439
616.0,1.392
617.0,1.389
618.0,1.443
619.0,1.429
620.0,1.438
621.0,1.441
622.0,1.425
623.0,1.404
624.0,1.38
625.0,1.377
626.0,1.398
627.0,1.415
628.0,1.335
629.0,1.387
630.0,1.356
631.0,1.383
632.0,1.366
633.0,1.406
634.0,1.392
635.0,1.413
636.0,1.394
637.0,1.417
638.0,1.43
639.0,1.414
640.0,1.4
641.0,1.399
642.0,1.392
643.0,1.411
644.0,1.407
645.0,1.41
646.0,1.379
647.0,1.366
648.0,1.368
649.0,1.342
650.0,1.345
651.0,1.403
652.0,1.35
653.0,1.385
654.0,1.369
655.0,1.321
656.0,1.169
657.0,1.201
658.0,1.345
659.0,1.354
660.0,1.36
661.0,1.37
662.0,1.374
663.0,1.347
664.0,1.362
665.0,1.362
666.0,1.363
667.0,1.362
668.0,1.362
669.0,1.383
670.0,1.377
671.0,1.377
672.0,1.366
673.0,1.386
674.0,1.381
675.0,1.369
676.0,1.378
677.0,1.365
678.0,1.369
679.0,1.347
680.0,1.358
681.0,1.349
682.0,1.348
683.0,1.345
684.0,1.339
685.0,1.351
686.0,1.343
687.0,0.9474
688.0,1.084
689.0,1.087
690.0,1.132
691.0,1.181
692.0,1.217
693.0,1.208
694.0,1.198
695.0,1.241
696.0,1.243
697.0,1.311
698.0,1.291
699.0,1.266
700.0,1.251
701.0,1.24
702.0,1.247
703.0,1.25
704.0,1.286
705.0,1.289
706.0,1.286
707.0,1.287
708.0,1.29
709.0,1.29
710.0,1.292
711.0,1.289
712.0,1.285
713.0,1.273
714.0,1.278
715.0,1.24
716.0,1.241
717.0,1.097
718.0,1.012
719.0,0.9292
720.0,0.9749
721.0,1.064
722.0,1.203
723.0,1.127
724.0,1.024
725.0,1.011
726.0,1.057
727.0,1.067
728.0,1.01
729.0,1.04
730.0,1.101
731.0,1.056
732.0,1.122
733.0,1.18
734.0,1.206
735.0,1.182
736.0,1.181
737.0,1.186
738.0,1.2
739.0,1.176
740.0,1.206
741.0,1.193
742.0,1.193
743.0,1.224
744.0,1.22
745.0,1.22
746.0,1.226
747.0,1.228
748.0,1.226
749.0,1.212
750.0,1.212
751.0,1.2
752.0,1.205
753.0,1.211
754.0,1.214
755.0,1.207
756.0,1.207
757.0,1.209
758.0,1.194
759.0,1.173
760.0,0.2494
761.0,0.1425
762.0,0.6559
763.0,0.3603
764.0,0.5129
765.0,0.6564
766.0,0.7797
767.0,0.958
768.0,1.085
769.0,1.104
770.0,1.136
771.0,1.143
772.0,1.145
773.0,1.153
774.0,1.148
775.0,1.139
776.0,1.153
777.0,1.138
778.0,1.131
779.0,1.132
780.0,1.126
781.0,1.127
782.0,1.134
783.0,1.115
784.0,1.12
785.0,1.112
786.0,1.125
787.0,1.107
788.0,1.095
789.0,1.095
790.0,1.069
791.0,1.075
792.0,1.067
793.0,1.05
794.0,1.065
795.0,1.084
796.0,1.055
797.0,1.057
798.0,1.084
799.0,1.078
800.0,1.06
801.0,1.058
802.0,1.055
803.0,1.047
804.0,1.048
805.0,1.044
806.0,1.071
807.0,1.059
808.0,1.06
809.0,1.042
810.0,1.034
811.0,1.038
812.0,1.011
813.0,0.9922
814.0,0.8829
815.0,0.8773
816.0,0.8182
817.0,0.832
818.0,0.8032
819.0,0.8893
820.0,0.841
821.0,0.9712
822.0,0.9455
823.0,0.6621
824.0,0.9222
825.0,0.9553
826.0,0.9227
827.0,0.97
828.0,0.8332
829.0,0.9167
830.0,0.9059
831.0,0.9088
832.0,0.8829
833.0,0.9339
834.0,0.9044
835.0,0.9861
836.0,0.9487
837.0,0.9888
838.0,0.9602
839.0,0.9736
840.0,0.9945
841.0,0.9813
842.0,0.9822
843.0,0.9803
844.0,0.9675
845.0,0.9992
846.0,0.9947
847.0,0.9759
848.0,0.9705
849.0,0.943
850.0,0.9035
851.0,0.9573
852.0,0.9504
853.0,0.9144
854.0,0.79
855.0,0.8674
856.0,0.9483
857.0,0.9691
858.0,0.9622
859.0,0.9629
860.0,0.9645
861.0,0.9594
862.0,0.9744
863.0,0.9975
864.0,0.9477
865.0,0.9394
866.0,0.8447
867.0,0.8816
868.0,0.9594
869.0,0.9396
870.0,0.9664
871.0,0.9533
872.0,0.95
873.0,0.9482
874.0,0.937
875.0,0.9181
876.0,0.9277
877.0,0.9371
878.0,0.9475
879.0,0.933
880.0,0.913
881.0,0.8997
882.0,0.9193
883.0,0.922
884.0,0.9179
885.0,0.9249
886.0,0.8826
887.0,0.8912
888.0,0.9049
889.0,0.9144
890.0,0.9078
891.0,0.9058
892.0,0.881
893.0,0.8551
894.0,0.8282
895.0,0.7865
896.0,0.7428
897.0,0.6434
898.0,0.6991
899.0,0.5383
900.0,0.7127
901.0,0.564
902.0,0.6534
903.0,0.6626
904.0,0.8225
905.0,0.796
906.0,0.7464
907.0,0.6143
908.0,0.6254
909.0,0.6738
910.0,0.6025
911.0,0.6382
912.0,0.6658
913.0,0.6119
914.0,0.6056
915.0,0.6559
916.0,0.5572
917.0,0.6999
918.0,0.5715
919.0,0.7109
920.0,0.7149
921.0,0.7428
922.0,0.6688
923.0,0.7173
924.0,0.6858
925.0,0.6711
926.0,0.6785
927.0,0.7551
928.0,0.5666
929.0,0.5206
930.0,0.4143
931.0,0.3918
932.0,0.2874
933.0,0.2363
934.0,0.1353
935.0,0.2396
936.0,0.1532
937.0,0.1558
938.0,0.1901
939.0,0.3798
940.0,0.4533
941.0,0.347
942.0,0.3988
943.0,0.2661
944.0,0.2769
945.0,0.357
946.0,0.1867
947.0,0.3599
948.0,0.2652
949.0,0.4768
950.0,0.1402
951.0,0.4687
952.0,0.2584
953.0,0.3294
954.0,0.3992
955.0,0.3327
956.0,0.3206
957.0,0.2594
958.0,0.4477
959.0,0.3608
960.0,0.4042
961.0,0.4498
962.0,0.4261
963.0,0.4878
964.0,0.4481
965.0,0.4857
966.0,0.4866
967.0,0.4849
968.0,0.6382
969.0,0.6675
970.0,0.6147
971.0,0.6984
972.0,0.6692
973.0,0.5879
974.0,0.5588
975.0,0.578
976.0,0.5516
977.0,0.6223
978.0,0.5935
979.0,0.6199
980.0,0.584
981.0,0.6945
982.0,0.666
983.0,0.6405
984.0,0.7136
985.0,0.6635
986.0,0.7249
987.0,0.7121
988.0,0.7108
989.0,0.722
990.0,0.7066
991.0,0.7244
992.0,0.7284
993.0,0.7136
994.0,0.7281
995.0,0.7271
996.0,0.7241
997.0,0.7251
998.0,0.7218
999.0,0.7191
1000.0,0.7144
1001.0,0.723
1002.0,0.7044
1003.0,0.7103
1004.0,0.6933
1005.0,0.6675
1006.0,0.6938
1007.0,0.7084
1008.0,0.7049
1009.0,0.7014
1010.0,0.6986
1011.0,0.7049
1012.0,0.6991
1013.0,0.7032
1014.0,0.6983
1015.0,0.6938
1016.0,0.6907
1017.0,0.6925
1018.0,0.6898
1019.0,0.6756
1020.0,0.6863
1021.0,0.6853
1022.0,0.6802
1023.0,0.6874
1024.0,0.679
1025.0,0.6868
1026.0,0.6841
1027.0,0.6825
1028.0,0.6811
1029.0,0.6731
1030.0,0.6776
1031.0,0.675
1032.0,0.673
1033.0,0.6629
1034.0,0.6629
1035.0,0.665
1036.0,0.6685
1037.0,0.6577
1038.0,0.6606
1039.0,0.6603
1040.0,0.6577
1041.0,0.6603
1042.0,0.6558
1043.0,0.6537
1044.0,0.6561
1045.0,0.6472
1046.0,0.6401
1047.0,0.6459
1048.0,0.6495
1049.0,0.6473
1050.0,0.6444
1051.0,0.6435
1052.0,0.641
1053.0,0.6359
1054.0,0.6374
1055.0,0.6379
1056.0,0.6357
1057.0,0.6338
1058.0,0.6183
1059.0,0.6191
1060.0,0.6182
1061.0,0.6175
1062.0,0.6209
1063.0,0.6148
1064.0,0.6221
1065.0,0.6178
1066.0,0.6055
1067.0,0.6134
1068.0,0.6001
1069.0,0.5815
1070.0,0.6014
1071.0,0.6103
1072.0,0.6036
1073.0,0.5949
1074.0,0.6098
1075.0,0.5806
1076.0,0.6094
1077.0,0.5993
1078.0,0.5882
1079.0,0.5995
1080.0,0.5901
1081.0,0.5718
1082.0,0.5799
1083.0,0.5814
1084.0,0.5708
1085.0,0.5914
1086.0,0.5418
1087.0,0.5577
1088.0,0.5811
1089.0,0.5646
1090.0,0.553
1091.0,0.5796
1092.0,0.5779
1093.0,0.4939
1094.0,0.5292
1095.0,0.514
1096.0,0.4933
1097.0,0.5645
1098.0,0.4861
1099.0,0.5065
1100.0,0.4725
1101.0,0.4779
1102.0,0.4575
1103.0,0.4539
1104.0,0.4544
1105.0,0.4953
1106.0,0.3855
1107.0,0.4717
1108.0,0.4038
1109.0,0.4038
1110.0,0.4681
1111.0,0.3229
1112.0,0.4004
1113.0,0.2604
1114.0,0.2904
1115.0,0.241
1116.0,0.1957
1117.0,0.07546
1118.0,0.2117
1119.0,0.1079
1120.0,0.136
1121.0,0.1787
1122.0,0.07765
1123.0,0.1228
1124.0,0.1037
1125.0,0.1346
1126.0,0.04925
1127.0,0.1516
1128.0,0.09328
1129.0,0.0986
1130.0,0.06595
1131.0,0.2812
1132.0,0.2218
1133.0,0.1439
1134.0,0.03875
1135.0,0.01442
1136.0,0.1212
1137.0,0.2773
1138.0,0.1961
1139.0,0.2861
1140.0,0.2415
1141.0,0.1863
1142.0,0.213
1143.0,0.2998
1144.0,0.1079
1145.0,0.1387
1146.0,0.1496
1147.0,0.05515
1148.0,0.2596
1149.0,0.2093
1150.0,0.1159
1151.0,0.1946
1152.0,0.2373
1153.0,0.2295
1154.0,0.1349
1155.0,0.2986
1156.0,0.2701
1157.0,0.3011
1158.0,0.2979
1159.0,0.3196
1160.0,0.2751
1161.0,0.335
1162.0,0.337
1163.0,0.448
1164.0,0.3869
1165.0,0.3675
1166.0,0.3632
1167.0,0.3943
1168.0,0.3992
1169.0,0.4077
1170.0,0.4409
1171.0,0.4303
1172.0,0.4368
1173.0,0.44
1174.0,0.3204
1175.0,0.4289
1176.0,0.4683
1177.0,0.4516
1178.0,0.344
1179.0,0.472
1180.0,0.4248
1181.0,0.4381
1182.0,0.3076
1183.0,0.4306
1184.0,0.4053
1185.0,0.3927
1186.0,0.4603
1187.0,0.4401
1188.0,0.3133
1189.0,0.4104
1190.0,0.4498
1191.0,0.43
1192.0,0.4558
1193.0,0.4378
1194.0,0.4506
1195.0,0.4282
1196.0,0.4137
1197.0,0.4497
1198.0,0.413
1199.0,0.3559
1200.0,0.4325
1201.0,0.4188
1202.0,0.4154
1203.0,0.412
1204.0,0.3629
1205.0,0.4236
1206.0,0.4654
1207.0,0.4148
1208.0,0.4069
1209.0,0.4149
1210.0,0.4311
1211.0,0.4124
1212.0,0.4096
1213.0,0.4512
1214.0,0.4184
1215.0,0.4109
1216.0,0.4496
1217.0,0.4387
1218.0,0.4461
1219.0,0.441
1220.0,0.4464
1221.0,0.4504
1222.0,0.4392
1223.0,0.4355
1224.0,0.4335
1225.0,0.4476
1226.0,0.45
1227.0,0.4175
1228.0,0.4517
1229.0,0.45
1230.0,0.4428
1231.0,0.4539
1232.0,0.4512
1233.0,0.4377
1234.0,0.4531
1235.0,0.4505
1236.0,0.4536
1237.0,0.448
1238.0,0.452
1239.0,0.4463
1240.0,0.4479
1241.0,0.4462
1242.0,0.4449
1243.0,0.4412
1244.0,0.4445
1245.0,0.4463
1246.0,0.4437
1247.0,0.4421
1248.0,0.4421
1249.0,0.4432
1250.0,0.4407
1251.0,0.4354
1252.0,0.4351
1253.0,0.4323
1254.0,0.4284
1255.0,0.4348
1256.0,0.4239
1257.0,0.4218
1258.0,0.4287
1259.0,0.4151
1260.0,0.4171
1261.0,0.3961
1262.0,0.3855
1263.0,0.3863
1264.0,0.3596
1265.0,0.3838
1266.0,0.3711
1267.0,0.3764
1268.0,0.3589
1269.0,0.2358
1270.0,0.3755
1271.0,0.3945
1272.0,0.3955
1273.0,0.3916
1274.0,0.3925
1275.0,0.3977
1276.0,0.4011
1277.0,0.4032
1278.0,0.41
1279.0,0.4064
1280.0,0.4012
1281.0,0.3823
1282.0,0.3677
1283.0,0.3961
1284.0,0.4058
1285.0,0.4083
1286.0,0.4134
1287.0,0.4078
1288.0,0.4075
1289.0,0.3962
1290.0,0.4038
1291.0,0.4092
1292.0,0.3873
1293.0,0.402
1294.0,0.3993
1295.0,0.3981
1296.0,0.3819
1297.0,0.3627
1298.0,0.3875
1299.0,0.4022
1300.0,0.3454
1301.0,0.355
1302.0,0.3862
1303.0,0.3404
1304.0,0.2949
1305.0,0.3786
1306.0,0.3789
1307.0,0.2996
1308.0,0.3402
1309.0,0.3764
1310.0,0.2942
1311.0,0.3272
1312.0,0.319
1313.0,0.3136
1314.0,0.2824
1315.0,0.2797
1316.0,0.3228
1317.0,0.3063
1318.0,0.331
1319.0,0.2641
1320.0,0.2547
1321.0,0.2949
1322.0,0.2986
1323.0,0.2291
1324.0,0.259
1325.0,0.3185
1326.0,0.2761
1327.0,0.2641
1328.0,0.2291
1329.0,0.1756
1330.0,0.2268
1331.0,0.1412
1332.0,0.1443
1333.0,0.1998
1334.0,0.1674
1335.0,0.2282
1336.0,0.1826
1337.0,0.1627
1338.0,0.176
1339.0,0.1746
1340.0,0.1688
1341.0,0.1673
1342.0,0.1755
1343.0,0.124
1344.0,0.074
1345.0,0.1063
1346.0,0.05614
1347.0,0.05765
1348.0,0.00437
1349.0,0.015
1350.0,0.01509
1351.0,0.004217
1352.0,0.001321
1353.0,7.986e-05
1354.0,0.0002473
1355.0,2.811e-06
1356.0,3.954e-05
1357.0,5.994e-05
1358.0,3.283e-06
1359.0,5.343e-07
1360.0,1.646e-06
1361.0,3.179e-09
1362.0,1.108e-11
1363.0,2.391e-06
1364.0,1.011e-06
1365.0,5.214e-12
1366.0,9.761e-06
1367.0,3.848e-06
1368.0,7.226e-14
1369.0,3.842e-07
1370.0,2.11e-07
1371.0,1.374e-08
1372.0,2.119e-06
1373.0,3.59e-05
1374.0,0.0001482
1375.0,0.0002699
1376.0,0.0002212
1377.0,0.0001042
1378.0,0.0009634
1379.0,4.404e-05
1380.0,6.807e-05
1381.0,1.922e-06
1382.0,1.97e-06
1383.0,3.281e-08
1384.0,4.532e-07
1385.0,1.655e-06
1386.0,1.89e-06
1387.0,0.0001646
1388.0,3.298e-06
1389.0,0.0004916
1390.0,0.0004233
1391.0,0.0002903
1392.0,1.976e-05
1393.0,9.819e-05
1394.0,6.117e-05
1395.0,5.205e-07
1396.0,4.261e-09
1397.0,4.105e-05
1398.0,0.001095
1399.0,0.0006935
1400.0,2.121e-09
1401.0,7.278e-09
1402.0,0.001652
1403.0,0.002137
1404.0,0.0006597
1405.0,2.78e-07
1406.0,0.001801
1407.0,0.0001547
1408.0,0.001462
1409.0,0.0005351
1410.0,0.0004069
1411.0,0.001869
1412.0,0.002422
1413.0,0.0221
1414.0,0.0003179
1415.0,0.0001591
1416.0,0.03413
1417.0,0.01101
1418.0,0.01262
1419.0,0.001992
1420.0,0.00775
1421.0,0.008401
1422.0,0.04437
1423.0,0.008778
1424.0,0.01629
1425.0,0.02422
1426.0,0.02687
1427.0,0.048
1428.0,0.004154
1429.0,0.03652
1430.0,0.06072
1431.0,0.06632
1432.0,0.003288
1433.0,0.0427
1434.0,0.02197
1435.0,0.02282
1436.0,0.0427
1437.0,0.03271
1438.0,0.01419
1439.0,0.05749
1440.0,0.04312
1441.0,0.03348
1442.0,0.03704
1443.0,0.04557
1444.0,0.06271
1445.0,0.04981
1446.0,0.02263
1447.0,0.03561
1448.0,0.1155
1449.0,0.101
1450.0,0.02638
1451.0,0.01076
1452.0,0.06142
1453.0,0.08028
1454.0,0.1357
1455.0,0.06477
1456.0,0.08738
1457.0,0.116
1458.0,0.1356
1459.0,0.1605
1460.0,0.0842
1461.0,0.08845
1462.0,0.1287
1463.0,0.04223
1464.0,0.1517
1465.0,0.09156
