interpolation:linear
wavelength,value
280.0,1.856e-18
280.5,2.759e-17
281.0,1.127e-16
281.5,1.667e-15
282.0,8.435e-15
282.5,2.384e-14
283.0,7.513e-14
283.5,1.198e-13
284.0,1.392e-12
284.5,3.339e-12
285.0,5.281e-12
285.5,2.554e-11
286.0,9.929e-11
286.5,3.872e-10
287.0,9.794e-10
287.5,3.087e-09
288.0,8.673e-09
288.5,2.678e-08
289.0,6.92e-08
289.5,1.933e-07
290.0,4.956e-07
290.5,9.409e-07
291.0,1.822e-06
291.5,4.484e-06
292.0,8.976e-06
292.5,1.182e-05
293.0,2.311e-05
293.5,4.88e-05
294.0,6.999e-05
294.5,0.0001096
295.0,0.0001664
295.5,0.0003353
296.0,0.0005321
296.5,0.0006152
297.0,0.0007142
297.5,0.001529
298.0,0.002
298.5,0.001747
299.0,0.003363
299.5,0.00442
300.0,0.004297
300.5,0.005488
301.0,0.008145
301.5,0.01094
302.0,0.00862
302.5,0.0152
303.0,0.02395
303.5,0.02789
304.0,0.025
304.5,0.03283
305.0,0.04173
305.5,0.04295
306.0,0.04
306.5,0.04666
307.0,0.05981
307.5,0.06941
308.0,0.07194
308.5,0.07975
309.0,0.06952
309.5,0.07317
310.0,0.0708
310.5,0.1128
311.0,0.1372
311.5,0.1309
312.0,0.1217
312.5,0.1412
313.0,0.1496
313.5,0.1494
314.0,0.1763
314.5,0.1445
315.0,0.1877
315.5,0.1638
316.0,0.1343
316.5,0.1826
317.0,0.2277
317.5,0.2416
318.0,0.1817
318.5,0.2099
319.0,0.2405
319.5,0.2088
320.0,0.2553
320.5,0.2969
321.0,0.2477
321.5,0.2365
322.0,0.2718
322.5,0.2362
323.0,0.2248
323.5,0.2556
324.0,0.2965
324.5,0.309
325.0,0.2835
325.5,0.3518
326.0,0.4106
326.5,0.4003
327.0,0.4042
327.5,0.3968
328.0,0.3687
328.5,0.3702
329.0,0.4285
329.5,0.4824
330.0,0.4921
330.5,0.406
331.0,0.4186
331.5,0.4175
332.0,0.4389
332.5,0.4295
333.0,0.4327
333.5,0.4012
334.0,0.4134
334.5,0.4664
335.0,0.4332
335.5,0.4913
336.0,0.3406
336.5,0.4155
337.0,0.3451
337.5,0.4317
338.0,0.4142
338.5,0.467
339.0,0.4654
339.5,0.4469
340.0,0.5392
340.5,0.4862
341.0,0.4657
341.5,0.4318
342.0,0.518
342.5,0.4863
343.0,0.5339
343.5,0.5023
344.0,0.3778
344.5,0.3736
345.0,0.5001
345.5,0.513
346.0,0.4375
346.5,0.4968
347.0,0.5327
347.5,0.431
348.0,0.494
348.5,0.4957
349.0,0.4608
349.5,0.4567
350.0,0.566
350.5,0.598
351.0,0.5345
351.5,0.5182
352.0,0.559
352.5,0.4378
353.0,0.5527
353.5,0.5924
354.0,0.6164
354.5,0.6264
355.0,0.6252
355.5,0.5656
356.0,0.5929
356.5,0.5072
357.0,0.42
357.5,0.5152
358.0,0.409
358.5,0.3502
359.0,0.4907
359.5,0.6261
360.0,0.665
360.5,0.5325
361.0,0.4862
361.5,0.5602
362.0,0.4847
362.5,0.6714
363.0,0.6035
363.5,0.5565
364.0,0.6813
364.5,0.5832
365.0,0.5948
365.5,0.7475
366.0,0.7928
366.5,0.7457
367.0,0.7273
367.5,0.7558
368.0,0.6622
368.5,0.669
369.0,0.7234
369.5,0.7721
370.0,0.8241
370.5,0.6403
371.0,0.685
371.5,0.8583
372.0,0.5705
372.5,0.6849
373.0,0.6973
373.5,0.4542
374.0,0.6608
374.5,0.5478
375.0,0.5332
375.5,0.7973
376.0,0.6618
376.5,0.6869
377.0,0.7279
377.5,0.8526
378.0,0.9256
378.5,0.8762
379.0,0.7243
379.5,0.6628
380.0,0.6901
380.5,0.8367
381.0,0.8392
381.5,0.6658
382.0,0.5918
382.5,0.5049
383.0,0.4679
383.5,0.4511
384.0,0.4981
384.5,0.7334
385.0,0.7281
385.5,0.6787
386.0,0.5818
386.5,0.7649
387.0,0.6364
387.5,0.7157
388.0,0.6615
388.5,0.6545
389.0,0.7073
389.5,0.8576
390.0,0.8615
390.5,0.7937
391.0,0.9352
391.5,0.955
392.0,0.8053
392.5,0.7215
393.0,0.4018
393.5,0.2923
394.0,0.5954
394.5,0.7576
395.0,0.9254
395.5,0.9411
396.0,0.8168
396.5,0.4777
397.0,0.3588
397.5,0.7305
398.0,1.024
398.5,1.06
399.0,1.148
399.5,1.145
400.0,1.191
401.0,1.225
402.0,1.294
403.0,1.231
404.0,1.214
405.0,1.216
406.0,1.197
407.0,1.179
408.0,1.228
409.0,1.316
410.0,1.151
411.0,1.248
412.0,1.342
413.0,1.311
414.0,1.328
415.0,1.333
416.0,1.358
417.0,1.326
418.0,1.304
419.0,1.323
420.0,1.319
421.0,1.381
422.0,1.314
423.0,1.286
424.0,1.362
425.0,1.361
426.0,1.326
427.0,1.303
428.0,1.271
429.0,1.204
430.0,1.055
431.0,1.047
432.0,1.353
433.0,1.362
434.0,1.266
435.0,1.324
436.0,1.493
437.0,1.473
438.0,1.342
439.0,1.391
440.0,1.436
441.0,1.489
442.0,1.598
443.0,1.56
444.0,1.594
445.0,1.562
446.0,1.491
447.0,1.612
448.0,1.641
449.0,1.647
450.0,1.694
451.0,1.758
452.0,1.695
453.0,1.596
454.0,1.666
455.0,1.678
456.0,1.72
457.0,1.75
458.0,1.693
459.0,1.685
460.0,1.692
461.0,1.732
462.0,1.746
463.0,1.736
464.0,1.707
465.0,1.685
466.0,1.702
467.0,1.673
468.0,1.695
469.0,1.705
470.0,1.653
471.0,1.652
472.0,1.742
473.0,1.721
474.0,1.727
475.0,1.745
476.0,1.697
477.0,1.704
478.0,1.752
479.0,1.742
480.0,1.745
481.0,1.777
482.0,1.786
483.0,1.764
484.0,1.728
485.0,1.647
486.0,1.439
487.0,1.509
488.0,1.657
489.0,1.664
490.0,1.751
491.0,1.721
492.0,1.626
493.0,1.68
494.0,1.698
495.0,1.714
496.0,1.725
497.0,1.753
498.0,1.672
499.0,1.696
500.0,1.648
501.0,1.62
502.0,1.601
503.0,1.67
504.0,1.637
505.0,1.69
506.0,1.746
507.0,1.662
508.0,1.609
509.0,1.654
510.0,1.644
511.0,1.688
512.0,1.706
513.0,1.616
514.0,1.605
515.0,1.59
516.0,1.587
517.0,1.411
518.0,1.484
519.0,1.558
520.0,1.616
521.0,1.632
522.0,1.635
523.0,1.607
524.0,1.666
525.0,1.689
526.0,1.615
527.0,1.524
528.0,1.614
529.0,1.703
530.0,1.68
531.0,1.706
532.0,1.649
533.0,1.601
534.0,1.649
535.0,1.684
536.0,1.7
537.0,1.633
538.0,1.662
539.0,1.649
540.0,1.582
541.0,1.596
542.0,1.648
543.0,1.629
544.0,1.66
545.0,1.655
546.0,1.665
547.0,1.663
548.0,1.643
549.0,1.648
550.0,1.669
551.0,1.649
552.0,1.661
553.0,1.632
554.0,1.672
555.0,1.677
556.0,1.656
557.0,1.606
558.0,1.596
559.0,1.568
560.0,1.589
561.0,1.611
562.0,1.601
563.0,1.647
564.0,1.604
565.0,1.592
566.0,1.571
567.0,1.602
568.0,1.593
569.0,1.564
570.0,1.562
571.0,1.551
572.0,1.595
573.0,1.613
574.0,1.61
575.0,1.582
576.0,1.568
577.0,1.585
578.0,1.559
579.0,1.563
580.0,1.587
581.0,1.592
582.0,1.619
583.0,1.621
584.0,1.633
585.0,1.593
586.0,1.56
587.0,1.598
588.0,1.569
589.0,1.411
590.0,1.474
591.0,1.549
592.0,1.536
593.0,1.551
594.0,1.544
595.0,1.513
596.0,1.557
597.0,1.544
598.0,1.536
599.0,1.536
600.0,1.534
601.0,1.519
602.0,1.509
603.0,1.533
604.0,1.558
605.0,1.55
606.0,1.542
607.0,1.556
608.0,1.538
609.0,1.54
610.0,1.528
611.0,1.535
612.0,1.53
613.0,1.511
614.0,1.489
615.0,1.521
616.0,1.47
617.0,1.467
618.0,1.523
619.0,1.508
620.0,1.518
621.0,1.521
622.0,1.505
623.0,1.483
624.0,1.457
625.0,1.454
626.0,1.476
627.0,1.497
628.0,1.44
629.0,1.476
630.0,1.444
631.0,1.463
632.0,1.443
633.0,1.482
634.0,1.463
635.0,1.484
636.0,1.463
637.0,1.485
638.0,1.497
639.0,1.479
640.0,1.463
641.0,1.461
642.0,1.453
643.0,1.473
644.0,1.467
645.0,1.47
646.0,1.441
647.0,1.436
648.0,1.439
649.0,1.412
650.0,1.405
651.0,1.463
652.0,1.419
653.0,1.444
654.0,1.427
655.0,1.382
656.0,1.219
657.0,1.252
658.0,1.399
659.0,1.407
660.0,1.412
661.0,1.422
662.0,1.428
663.0,1.399
664.0,1.412
665.0,1.41
666.0,1.41
667.0,1.408
668.0,1.407
669.0,1.428
670.0,1.421
671.0,1.421
672.0,1.408
673.0,1.429
674.0,1.423
675.0,1.41
676.0,1.419
677.0,1.405
678.0,1.409
679.0,1.386
680.0,1.397
681.0,1.388
682.0,1.386
683.0,1.384
684.0,1.377
685.0,1.388
686.0,1.381
687.0,1.103
688.0,1.2
689.0,1.201
690.0,1.23
691.0,1.262
692.0,1.283
693.0,1.276
694.0,1.267
695.0,1.298
696.0,1.301
697.0,1.351
698.0,1.331
699.0,1.318
700.0,1.302
701.0,1.294
702.0,1.297
703.0,1.3
704.0,1.33
705.0,1.332
706.0,1.327
707.0,1.327
708.0,1.33
709.0,1.326
710.0,1.329
711.0,1.325
712.0,1.318
713.0,1.308
714.0,1.313
715.0,1.278
716.0,1.281
717.0,1.18
718.0,1.099
719.0,1.017
720.0,1.068
721.0,1.134
722.0,1.248
723.0,1.189
724.0,1.1
725.0,1.093
726.0,1.136
727.0,1.138
728.0,1.093
729.0,1.108
730.0,1.169
731.0,1.129
732.0,1.18
733.0,1.224
734.0,1.246
735.0,1.224
736.0,1.222
737.0,1.228
738.0,1.231
739.0,1.208
740.0,1.234
741.0,1.219
742.0,1.218
743.0,1.248
744.0,1.243
745.0,1.242
746.0,1.248
747.0,1.25
748.0,1.248
749.0,1.233
750.0,1.233
751.0,1.22
752.0,1.225
753.0,1.232
754.0,1.234
755.0,1.228
756.0,1.227
757.0,1.229
758.0,1.214
759.0,1.199
760.0,0.4332
761.0,0.2995
762.0,0.8121
763.0,0.5512
764.0,0.694
765.0,0.8133
766.0,0.8978
767.0,1.04
768.0,1.13
769.0,1.139
770.0,1.161
771.0,1.163
772.0,1.163
773.0,1.171
774.0,1.165
775.0,1.156
776.0,1.17
777.0,1.154
778.0,1.147
779.0,1.149
780.0,1.142
781.0,1.143
782.0,1.15
783.0,1.13
784.0,1.136
785.0,1.128
786.0,1.141
787.0,1.128
788.0,1.117
789.0,1.118
790.0,1.099
791.0,1.099
792.0,1.09
793.0,1.073
794.0,1.08
795.0,1.102
796.0,1.082
797.0,1.084
798.0,1.102
799.0,1.098
800.0,1.082
801.0,1.082
802.0,1.079
803.0,1.072
804.0,1.072
805.0,1.065
806.0,1.088
807.0,1.077
808.0,1.077
809.0,1.062
810.0,1.057
811.0,1.065
812.0,1.045
813.0,1.03
814.0,0.943
815.0,0.9365
816.0,0.8787
817.0,0.8894
818.0,0.8644
819.0,0.9333
820.0,0.8924
821.0,0.9991
822.0,0.9782
823.0,0.7387
824.0,0.9639
825.0,0.9851
826.0,0.9607
827.0,0.9996
828.0,0.887
829.0,0.9524
830.0,0.9444
831.0,0.9459
832.0,0.9244
833.0,0.9619
834.0,0.9409
835.0,1.006
836.0,0.98
837.0,1.008
838.0,0.9837
839.0,0.9916
840.0,1.011
841.0,1.0
842.0,0.9978
843.0,0.9925
844.0,0.9815
845.0,1.011
846.0,1.006
847.0,0.9856
848.0,0.9817
849.0,0.954
850.0,0.9137
851.0,0.9698
852.0,0.962
853.0,0.9242
854.0,0.7996
855.0,0.8763
856.0,0.9587
857.0,0.9786
858.0,0.9721
859.0,0.9721
860.0,0.9732
861.0,0.9682
862.0,0.9831
863.0,1.006
864.0,0.956
865.0,0.9475
866.0,0.852
867.0,0.8891
868.0,0.9675
869.0,0.9474
870.0,0.9744
871.0,0.9613
872.0,0.9578
873.0,0.9559
874.0,0.9446
875.0,0.9256
876.0,0.9354
877.0,0.9447
878.0,0.9554
879.0,0.9407
880.0,0.9205
881.0,0.9078
882.0,0.9278
883.0,0.9298
884.0,0.926
885.0,0.933
886.0,0.893
887.0,0.8997
888.0,0.915
889.0,0.922
890.0,0.9183
891.0,0.9147
892.0,0.8932
893.0,0.8723
894.0,0.8539
895.0,0.8229
896.0,0.7846
897.0,0.6982
898.0,0.7472
899.0,0.5997
900.0,0.7512
901.0,0.6259
902.0,0.6951
903.0,0.714
904.0,0.848
905.0,0.8265
906.0,0.7801
907.0,0.6688
908.0,0.6778
909.0,0.7162
910.0,0.6641
911.0,0.6904
912.0,0.7133
913.0,0.6753
914.0,0.6647
915.0,0.7147
916.0,0.6179
917.0,0.7465
918.0,0.6335
919.0,0.7535
920.0,0.7478
921.0,0.7721
922.0,0.7123
923.0,0.7452
924.0,0.7299
925.0,0.7156
926.0,0.7223
927.0,0.7878
928.0,0.6383
929.0,0.5992
930.0,0.4997
931.0,0.468
932.0,0.3656
933.0,0.3149
934.0,0.21
935.0,0.3077
936.0,0.2151
937.0,0.2224
938.0,0.2634
939.0,0.4537
940.0,0.526
941.0,0.4245
942.0,0.4725
943.0,0.3333
944.0,0.3328
945.0,0.4335
946.0,0.2515
947.0,0.4425
948.0,0.3319
949.0,0.5607
950.0,0.2081
951.0,0.5473
952.0,0.3362
953.0,0.4067
954.0,0.4691
955.0,0.4078
956.0,0.3871
957.0,0.3411
958.0,0.5032
959.0,0.4301
960.0,0.4799
961.0,0.5162
962.0,0.4924
963.0,0.5473
964.0,0.5089
965.0,0.5423
966.0,0.5477
967.0,0.5469
968.0,0.6688
969.0,0.7009
970.0,0.6542
971.0,0.7208
972.0,0.6949
973.0,0.6328
974.0,0.6058
975.0,0.6173
976.0,0.6003
977.0,0.6552
978.0,0.6341
979.0,0.6545
980.0,0.6223
981.0,0.7154
982.0,0.6938
983.0,0.6723
984.0,0.7266
985.0,0.6907
986.0,0.7332
987.0,0.725
988.0,0.724
989.0,0.7273
990.0,0.7188
991.0,0.7303
992.0,0.7338
993.0,0.7237
994.0,0.7329
995.0,0.7311
996.0,0.7289
997.0,0.7295
998.0,0.7265
999.0,0.7235
1000.0,0.72
1001.0,0.7273
1002.0,0.7137
1003.0,0.7149
1004.0,0.6991
1005.0,0.6712
1006.0,0.6986
1007.0,0.7128
1008.0,0.7101
1009.0,0.7076
1010.0,0.7053
1011.0,0.7091
1012.0,0.7042
1013.0,0.7071
1014.0,0.7021
1015.0,0.6977
1016.0,0.6947
1017.0,0.6967
1018.0,0.6934
1019.0,0.681
1020.0,0.6901
1021.0,0.6888
1022.0,0.6843
1023.0,0.6918
1024.0,0.6853
1025.0,0.6905
1026.0,0.6882
1027.0,0.6865
1028.0,0.6853
1029.0,0.6774
1030.0,0.6812
1031.0,0.6788
1032.0,0.6766
1033.0,0.6665
1034.0,0.6664
1035.0,0.6685
1036.0,0.6723
1037.0,0.6613
1038.0,0.6643
1039.0,0.6641
1040.0,0.6615
1041.0,0.6643
1042.0,0.6597
1043.0,0.6578
1044.0,0.6602
1045.0,0.6515
1046.0,0.6444
1047.0,0.6504
1048.0,0.6542
1049.0,0.652
1050.0,0.6492
1051.0,0.6486
1052.0,0.6462
1053.0,0.6413
1054.0,0.6431
1055.0,0.6438
1056.0,0.6419
1057.0,0.6403
1058.0,0.6249
1059.0,0.6259
1060.0,0.6252
1061.0,0.6247
1062.0,0.6284
1063.0,0.6225
1064.0,0.6297
1065.0,0.6261
1066.0,0.613
1067.0,0.6213
1068.0,0.6083
1069.0,0.5891
1070.0,0.6098
1071.0,0.617
1072.0,0.6116
1073.0,0.6025
1074.0,0.6156
1075.0,0.5916
1076.0,0.6155
1077.0,0.6084
1078.0,0.5983
1079.0,0.6046
1080.0,0.5993
1081.0,0.5831
1082.0,0.5867
1083.0,0.5872
1084.0,0.5839
1085.0,0.5999
1086.0,0.5593
1087.0,0.5681
1088.0,0.5879
1089.0,0.5763
1090.0,0.5688
1091.0,0.5879
1092.0,0.5848
1093.0,0.517
1094.0,0.5376
1095.0,0.5348
1096.0,0.5186
1097.0,0.571
1098.0,0.5124
1099.0,0.5311
1100.0,0.5041
1101.0,0.5072
1102.0,0.4901
1103.0,0.4897
1104.0,0.4898
1105.0,0.5211
1106.0,0.436
1107.0,0.5023
1108.0,0.4486
1109.0,0.4453
1110.0,0.5003
1111.0,0.3715
1112.0,0.44
1113.0,0.3148
1114.0,0.3465
1115.0,0.2885
1116.0,0.2529
1117.0,0.121
1118.0,0.2654
1119.0,0.1529
1120.0,0.1916
1121.0,0.24
1122.0,0.1199
1123.0,0.1728
1124.0,0.1461
1125.0,0.1855
1126.0,0.08388
1127.0,0.2075
1128.0,0.1445
1129.0,0.1495
1130.0,0.1096
1131.0,0.3471
1132.0,0.2813
1133.0,0.2022
1134.0,0.06969
1135.0,0.02568
1136.0,0.1773
1137.0,0.3464
1138.0,0.2511
1139.0,0.3322
1140.0,0.2938
1141.0,0.2387
1142.0,0.265
1143.0,0.3585
1144.0,0.1492
1145.0,0.194
1146.0,0.2095
1147.0,0.09466
1148.0,0.3106
1149.0,0.2619
1150.0,0.1607
1151.0,0.2496
1152.0,0.2912
1153.0,0.2724
1154.0,0.1941
1155.0,0.3471
1156.0,0.3204
1157.0,0.3493
1158.0,0.3445
1159.0,0.3606
1160.0,0.3227
1161.0,0.3734
1162.0,0.3768
1163.0,0.4703
1164.0,0.4179
1165.0,0.4065
1166.0,0.396
1167.0,0.4238
1168.0,0.4307
1169.0,0.4357
1170.0,0.4631
1171.0,0.4537
1172.0,0.4562
1173.0,0.4621
1174.0,0.3613
1175.0,0.4476
1176.0,0.4785
1177.0,0.4678
1178.0,0.3752
1179.0,0.4816
1180.0,0.4454
1181.0,0.4575
1182.0,0.3416
1183.0,0.447
1184.0,0.4274
1185.0,0.4193
1186.0,0.4735
1187.0,0.4581
1188.0,0.3486
1189.0,0.4288
1190.0,0.463
1191.0,0.451
1192.0,0.468
1193.0,0.453
1194.0,0.4638
1195.0,0.4466
1196.0,0.4356
1197.0,0.4592
1198.0,0.4275
1199.0,0.3829
1200.0,0.448
1201.0,0.4384
1202.0,0.4327
1203.0,0.4285
1204.0,0.3868
1205.0,0.4371
1206.0,0.4716
1207.0,0.4331
1208.0,0.4207
1209.0,0.4279
1210.0,0.4414
1211.0,0.4279
1212.0,0.4299
1213.0,0.4599
1214.0,0.4363
1215.0,0.4301
1216.0,0.4582
1217.0,0.4497
1218.0,0.4548
1219.0,0.4508
1220.0,0.4548
1221.0,0.4573
1222.0,0.4479
1223.0,0.4451
1224.0,0.4447
1225.0,0.4545
1226.0,0.4554
1227.0,0.4293
1228.0,0.4559
1229.0,0.4553
1230.0,0.4493
1231.0,0.4565
1232.0,0.454
1233.0,0.4453
1234.0,0.4547
1235.0,0.4528
1236.0,0.4553
1237.0,0.4516
1238.0,0.4537
1239.0,0.448
1240.0,0.4493
1241.0,0.4489
1242.0,0.4464
1243.0,0.4427
1244.0,0.4464
1245.0,0.448
1246.0,0.4453
1247.0,0.4441
1248.0,0.4446
1249.0,0.4452
1250.0,0.4431
1251.0,0.4384
1252.0,0.4372
1253.0,0.4361
1254.0,0.4336
1255.0,0.4374
1256.0,0.4296
1257.0,0.4281
1258.0,0.4326
1259.0,0.4238
1260.0,0.4252
1261.0,0.4102
1262.0,0.4027
1263.0,0.4037
1264.0,0.3839
1265.0,0.4009
1266.0,0.3924
1267.0,0.3947
1268.0,0.3817
1269.0,0.2906
1270.0,0.3951
1271.0,0.4078
1272.0,0.4081
1273.0,0.4048
1274.0,0.4048
1275.0,0.4089
1276.0,0.4111
1277.0,0.412
1278.0,0.4161
1279.0,0.4127
1280.0,0.4073
1281.0,0.387
1282.0,0.3702
1283.0,0.3993
1284.0,0.4094
1285.0,0.4117
1286.0,0.4157
1287.0,0.4121
1288.0,0.4113
1289.0,0.4037
1290.0,0.4073
1291.0,0.412
1292.0,0.3974
1293.0,0.4066
1294.0,0.4043
1295.0,0.4047
1296.0,0.3933
1297.0,0.3779
1298.0,0.3956
1299.0,0.4061
1300.0,0.3635
1301.0,0.3704
1302.0,0.3939
1303.0,0.3567
1304.0,0.3232
1305.0,0.3876
1306.0,0.3884
1307.0,0.3238
1308.0,0.3544
1309.0,0.3866
1310.0,0.3184
1311.0,0.344
1312.0,0.3377
1313.0,0.334
1314.0,0.3061
1315.0,0.3062
1316.0,0.3415
1317.0,0.3258
1318.0,0.3462
1319.0,0.2939
1320.0,0.2798
1321.0,0.3176
1322.0,0.3237
1323.0,0.2636
1324.0,0.2883
1325.0,0.3375
1326.0,0.3023
1327.0,0.2915
1328.0,0.2579
1329.0,0.2108
1330.0,0.2648
1331.0,0.1827
1332.0,0.1807
1333.0,0.244
1334.0,0.2
1335.0,0.2619
1336.0,0.2178
1337.0,0.2005
1338.0,0.2148
1339.0,0.2114
1340.0,0.2005
1341.0,0.2075
1342.0,0.2172
1343.0,0.1755
1344.0,0.1061
1345.0,0.1471
1346.0,0.09509
1347.0,0.1
1348.0,0.01321
1349.0,0.03777
1350.0,0.03359
1351.0,0.01507
1352.0,0.007161
1353.0,0.0008058
1354.0,0.001777
1355.0,6.211e-05
1356.0,0.000427
1357.0,0.0006262
1358.0,6.943e-05
1359.0,2.408e-05
1360.0,4.571e-05
1361.0,5.057e-07
1362.0,4.333e-09
1363.0,7.155e-05
1364.0,3.642e-05
1365.0,4.612e-09
1366.0,0.0002334
1367.0,9.274e-05
1368.0,3.58e-10
1369.0,1.515e-05
1370.0,1.134e-05
1371.0,1.211e-06
1372.0,5.271e-05
1373.0,0.0004864
1374.0,0.001367
1375.0,0.002306
1376.0,0.001568
1377.0,0.0008235
1378.0,0.005754
1379.0,0.0003663
1380.0,0.0006728
1381.0,2.707e-05
1382.0,5.315e-05
1383.0,1.402e-06
1384.0,1.975e-05
1385.0,3.271e-05
1386.0,6.178e-05
1387.0,0.001719
1388.0,4.475e-05
1389.0,0.003609
1390.0,0.003016
1391.0,0.002362
1392.0,0.0002064
1393.0,0.0007991
1394.0,0.0008299
1395.0,1.312e-05
1396.0,5.499e-07
1397.0,0.0003958
1398.0,0.006562
1399.0,0.004278
1400.0,4.099e-07
1401.0,7.963e-07
1402.0,0.00657
1403.0,0.009052
1404.0,0.002932
1405.0,9.257e-06
1406.0,0.008762
1407.0,0.0007996
1408.0,0.007058
1409.0,0.003362
1410.0,0.002379
1411.0,0.007854
1412.0,0.008957
1413.0,0.05035
1414.0,0.001825
1415.0,0.001061
1416.0,0.06351
1417.0,0.02795
1418.0,0.03093
1419.0,0.005395
1420.0,0.01945
1421.0,0.0226
1422.0,0.07945
1423.0,0.01826
1424.0,0.03196
1425.0,0.04872
1426.0,0.04906
1427.0,0.07478
1428.0,0.01293
1429.0,0.06203
1430.0,0.0911
1431.0,0.09638
1432.0,0.01055
1433.0,0.0671
1434.0,0.0372
1435.0,0.04695
1436.0,0.07386
1437.0,0.05742
1438.0,0.0291
1439.0,0.09292
1440.0,0.07126
1441.0,0.06157
1442.0,0.06548
1443.0,0.07144
1444.0,0.09577
1445.0,0.08275
1446.0,0.0398
1447.0,0.06357
1448.0,0.152
1449.0,0.1405
1450.0,0.04724
1451.0,0.02177
1452.0,0.09227
1453.0,0.1156
1454.0,0.1715
1455.0,0.09129
1456.0,0.1269
1457.0,0.1532
1458.0,0.1656
1459.0,0.1978
1460.0,0.1121
1461.0,0.1229
1462.0,0.1672
1463.0,0.06457
1464.0,0.1857
1465.0,0.1146
1466.0,0.09628
1467.0,0.05976
1468.0,0.1088
1469.0,0.1285
1470.0,0.07711
1471.0,0.03189
