interpolation:linear
wavelength,value
280.0,1.763e-26
280.5,8.476e-25
281.0,5.319e-24
281.5,2.45e-22
282.0,2.472e-21
282.5,1.113e-20
283.0,5.849e-20
283.5,1.203e-19
284.0,4.575e-18
284.5,1.883e-17
285.0,5.341e-17
285.5,5.139e-16
286.0,2.64e-15
286.5,1.824e-14
287.0,7.036e-14
287.5,3.857e-13
288.0,2.176e-12
288.5,9.734e-12
289.0,3.684e-11
289.5,1.566e-10
290.0,5.664e-10
290.5,1.434e-09
291.0,3.926e-09
291.5,1.502e-08
292.0,4.303e-08
292.5,6.938e-08
293.0,1.757e-07
293.5,5.281e-07
294.0,9.616e-07
294.5,1.803e-06
295.0,3.433e-06
295.5,9.151e-06
296.0,1.759e-05
296.5,2.438e-05
297.0,3.27e-05
297.5,8.568e-05
298.0,0.0001319
298.5,0.00013
299.0,0.0002803
299.5,0.0004414
300.0,0.0004717
300.5,0.0006609
301.0,0.001121
301.5,0.001678
302.0,0.001394
302.5,0.002698
303.0,0.004766
303.5,0.005925
304.0,0.005485
304.5,0.007766
305.0,0.01089
305.5,0.01189
306.0,0.01135
306.5,0.01373
307.0,0.01896
307.5,0.02351
308.0,0.0247
308.5,0.02829
309.0,0.02531
309.5,0.02852
310.0,0.0285
310.5,0.04617
311.0,0.05765
311.5,0.05573
312.0,0.05444
312.5,0.06524
313.0,0.07039
313.5,0.06959
314.0,0.08513
314.5,0.07297
315.0,0.09578
315.5,0.08228
316.0,0.06988
316.5,0.09786
317.0,0.1223
317.5,0.1292
318.0,0.09921
318.5,0.1186
319.0,0.1384
319.5,0.1177
320.0,0.1437
320.5,0.1728
321.0,0.1483
321.5,0.1423
322.0,0.1598
322.5,0.1394
323.0,0.1355
323.5,0.1588
324.0,0.1854
324.5,0.1918
325.0,0.1733
325.5,0.2185
326.0,0.2603
326.5,0.2573
327.0,0.2595
327.5,0.2541
328.0,0.2328
328.5,0.2391
329.0,0.2809
329.5,0.3182
330.0,0.3245
330.5,0.2659
331.0,0.2739
331.5,0.276
332.0,0.2936
332.5,0.2891
333.0,0.2913
333.5,0.2689
334.0,0.2774
334.5,0.3162
335.0,0.2956
335.5,0.3366
336.0,0.2339
336.5,0.285
337.0,0.2365
337.5,0.2963
338.0,0.2865
338.5,0.3244
339.0,0.3243
339.5,0.312
340.0,0.3763
340.5,0.3402
341.0,0.3273
341.5,0.3045
342.0,0.3661
342.5,0.3446
343.0,0.3788
343.5,0.3568
344.0,0.2682
344.5,0.2663
345.0,0.3577
345.5,0.368
346.0,0.3146
346.5,0.358
347.0,0.3845
347.5,0.3116
348.0,0.3581
348.5,0.36
349.0,0.3354
349.5,0.3331
350.0,0.4136
350.5,0.4378
351.0,0.3919
351.5,0.3803
352.0,0.4113
352.5,0.3228
353.0,0.4084
353.5,0.4385
354.0,0.457
354.5,0.465
355.0,0.4649
355.5,0.4214
356.0,0.4425
356.5,0.3791
357.0,0.3143
357.5,0.3861
358.0,0.307
358.5,0.2632
359.0,0.3694
359.5,0.4719
360.0,0.5019
360.5,0.4026
361.0,0.3682
361.5,0.4251
362.0,0.3687
362.5,0.5116
363.0,0.4608
363.5,0.4256
364.0,0.522
364.5,0.4475
365.0,0.457
365.5,0.5753
366.0,0.6112
366.5,0.5758
367.0,0.5624
367.5,0.5852
368.0,0.5135
368.5,0.5195
369.0,0.5626
369.5,0.6013
370.0,0.6427
370.5,0.5001
371.0,0.5358
371.5,0.6721
372.0,0.4473
372.5,0.5377
373.0,0.5483
373.5,0.3576
374.0,0.521
374.5,0.4325
375.0,0.4215
375.5,0.6309
376.0,0.5243
376.5,0.5447
377.0,0.5781
377.5,0.6779
378.0,0.7367
378.5,0.6981
379.0,0.5777
379.5,0.5291
380.0,0.5515
380.5,0.6695
381.0,0.6725
381.5,0.5343
382.0,0.4756
382.5,0.4064
383.0,0.3771
383.5,0.364
384.0,0.4024
384.5,0.5932
385.0,0.5895
385.5,0.5502
386.0,0.4723
386.5,0.6217
387.0,0.5178
387.5,0.5828
388.0,0.5393
388.5,0.5342
389.0,0.5779
389.5,0.7014
390.0,0.7054
390.5,0.6505
391.0,0.7673
391.5,0.7843
392.0,0.662
392.5,0.5938
393.0,0.3311
393.5,0.2411
394.0,0.4916
394.5,0.6262
395.0,0.7656
395.5,0.7792
396.0,0.6769
396.5,0.3964
397.0,0.2981
397.5,0.6073
398.0,0.8522
398.5,0.8825
399.0,0.9571
399.5,0.9557
400.0,0.9943
401.0,1.025
402.0,1.085
403.0,1.034
404.0,1.021
405.0,1.024
406.0,1.011
407.0,0.9975
408.0,1.04
409.0,1.116
410.0,0.9781
411.0,1.062
412.0,1.144
413.0,1.119
414.0,1.136
415.0,1.142
416.0,1.165
417.0,1.14
418.0,1.122
419.0,1.14
420.0,1.138
421.0,1.193
422.0,1.137
423.0,1.114
424.0,1.181
425.0,1.182
426.0,1.154
427.0,1.135
428.0,1.108
429.0,1.052
430.0,0.9227
431.0,0.9169
432.0,1.186
433.0,1.196
434.0,1.113
435.0,1.165
436.0,1.315
437.0,1.299
438.0,1.186
439.0,1.229
440.0,1.271
441.0,1.319
442.0,1.418
443.0,1.384
444.0,1.417
445.0,1.389
446.0,1.328
447.0,1.438
448.0,1.463
449.0,1.471
450.0,1.515
451.0,1.574
452.0,1.519
453.0,1.431
454.0,1.496
455.0,1.508
456.0,1.547
457.0,1.575
458.0,1.525
459.0,1.519
460.0,1.526
461.0,1.564
462.0,1.578
463.0,1.57
464.0,1.545
465.0,1.527
466.0,1.544
467.0,1.519
468.0,1.539
469.0,1.55
470.0,1.503
471.0,1.503
472.0,1.586
473.0,1.568
474.0,1.573
475.0,1.589
476.0,1.545
477.0,1.552
478.0,1.597
479.0,1.589
480.0,1.594
481.0,1.626
482.0,1.636
483.0,1.617
484.0,1.586
485.0,1.512
486.0,1.323
487.0,1.388
488.0,1.525
489.0,1.532
490.0,1.613
491.0,1.587
492.0,1.5
493.0,1.551
494.0,1.568
495.0,1.583
496.0,1.595
497.0,1.622
498.0,1.548
499.0,1.569
500.0,1.526
501.0,1.5
502.0,1.482
503.0,1.545
504.0,1.51
505.0,1.564
506.0,1.616
507.0,1.539
508.0,1.492
509.0,1.534
510.0,1.527
511.0,1.569
512.0,1.587
513.0,1.503
514.0,1.494
515.0,1.481
516.0,1.479
517.0,1.315
518.0,1.384
519.0,1.453
520.0,1.507
521.0,1.523
522.0,1.526
523.0,1.5
524.0,1.555
525.0,1.576
526.0,1.507
527.0,1.422
528.0,1.505
529.0,1.588
530.0,1.567
531.0,1.592
532.0,1.538
533.0,1.494
534.0,1.539
535.0,1.574
536.0,1.589
537.0,1.527
538.0,1.555
539.0,1.543
540.0,1.481
541.0,1.493
542.0,1.541
543.0,1.525
544.0,1.553
545.0,1.549
546.0,1.558
547.0,1.558
548.0,1.54
549.0,1.545
550.0,1.564
551.0,1.546
552.0,1.558
553.0,1.531
554.0,1.569
555.0,1.573
556.0,1.554
557.0,1.507
558.0,1.497
559.0,1.471
560.0,1.49
561.0,1.511
562.0,1.502
563.0,1.544
564.0,1.503
565.0,1.492
566.0,1.471
567.0,1.5
568.0,1.489
569.0,1.458
570.0,1.458
571.0,1.449
572.0,1.486
573.0,1.503
574.0,1.5
575.0,1.473
576.0,1.46
577.0,1.477
578.0,1.454
579.0,1.46
580.0,1.486
581.0,1.493
582.0,1.521
583.0,1.524
584.0,1.537
585.0,1.5
586.0,1.47
587.0,1.504
588.0,1.471
589.0,1.311
590.0,1.371
591.0,1.447
592.0,1.432
593.0,1.451
594.0,1.443
595.0,1.41
596.0,1.461
597.0,1.447
598.0,1.442
599.0,1.443
600.0,1.445
601.0,1.432
602.0,1.423
603.0,1.447
604.0,1.471
605.0,1.464
606.0,1.458
607.0,1.472
608.0,1.456
609.0,1.458
610.0,1.448
611.0,1.456
612.0,1.452
613.0,1.434
614.0,1.414
615.0,1.445
616.0,1.397
617.0,1.395
618.0,1.449
619.0,1.434
620.0,1.444
621.0,1.446
622.0,1.43
623.0,1.409
624.0,1.385
625.0,1.383
626.0,1.404
627.0,1.421
628.0,1.342
629.0,1.393
630.0,1.362
631.0,1.388
632.0,1.371
633.0,1.411
634.0,1.396
635.0,1.418
636.0,1.399
637.0,1.421
638.0,1.434
639.0,1.418
640.0,1.404
641.0,1.403
642.0,1.397
643.0,1.416
644.0,1.411
645.0,1.414
646.0,1.383
647.0,1.371
648.0,1.373
649.0,1.347
650.0,1.349
651.0,1.407
652.0,1.354
653.0,1.389
654.0,1.373
655.0,1.325
656.0,1.173
657.0,1.205
658.0,1.349
659.0,1.358
660.0,1.364
661.0,1.373
662.0,1.378
663.0,1.35
664.0,1.365
665.0,1.366
666.0,1.366
667.0,1.365
668.0,1.365
669.0,1.386
670.0,1.381
671.0,1.38
672.0,1.369
673.0,1.389
674.0,1.384
675.0,1.372
676.0,1.381
677.0,1.368
678.0,1.372
679.0,1.35
680.0,1.361
681.0,1.352
682.0,1.35
683.0,1.348
684.0,1.342
685.0,1.353
686.0,1.346
687.0,0.9576
688.0,1.092
689.0,1.095
690.0,1.138
691.0,1.187
692.0,1.221
693.0,1.212
694.0,1.203
695.0,1.245
696.0,1.247
697.0,1.314
698.0,1.294
699.0,1.269
700.0,1.255
701.0,1.244
702.0,1.25
703.0,1.253
704.0,1.289
705.0,1.292
706.0,1.289
707.0,1.29
708.0,1.293
709.0,1.293
710.0,1.294
711.0,1.292
712.0,1.287
713.0,1.275
714.0,1.28
715.0,1.242
716.0,1.244
717.0,1.103
718.0,1.017
719.0,0.9347
720.0,0.9808
721.0,1.068
722.0,1.206
723.0,1.131
724.0,1.029
725.0,1.016
726.0,1.062
727.0,1.072
728.0,1.015
729.0,1.045
730.0,1.105
731.0,1.06
732.0,1.125
733.0,1.183
734.0,1.209
735.0,1.185
736.0,1.184
737.0,1.189
738.0,1.202
739.0,1.179
740.0,1.208
741.0,1.195
742.0,1.195
743.0,1.225
744.0,1.222
745.0,1.221
746.0,1.227
747.0,1.23
748.0,1.228
749.0,1.214
750.0,1.213
751.0,1.201
752.0,1.206
753.0,1.212
754.0,1.215
755.0,1.209
756.0,1.208
757.0,1.21
758.0,1.195
759.0,1.175
760.0,0.2593
761.0,0.1501
762.0,0.6659
763.0,0.3713
764.0,0.5239
765.0,0.6665
766.0,0.7875
767.0,0.9636
768.0,1.088
769.0,1.106
770.0,1.138
771.0,1.145
772.0,1.146
773.0,1.154
774.0,1.149
775.0,1.14
776.0,1.154
777.0,1.139
778.0,1.132
779.0,1.133
780.0,1.127
781.0,1.128
782.0,1.135
783.0,1.116
784.0,1.121
785.0,1.113
786.0,1.126
787.0,1.109
788.0,1.096
789.0,1.096
790.0,1.071
791.0,1.077
792.0,1.069
793.0,1.052
794.0,1.066
795.0,1.085
796.0,1.057
797.0,1.059
798.0,1.085
799.0,1.079
800.0,1.062
801.0,1.059
802.0,1.056
803.0,1.049
804.0,1.05
805.0,1.046
806.0,1.073
807.0,1.06
808.0,1.061
809.0,1.043
810.0,1.036
811.0,1.04
812.0,1.014
813.0,0.9947
814.0,0.8868
815.0,0.8811
816.0,0.8219
817.0,0.8356
818.0,0.807
819.0,0.8922
820.0,0.8443
821.0,0.9731
822.0,0.9477
823.0,0.6668
824.0,0.925
825.0,0.9572
826.0,0.9252
827.0,0.972
828.0,0.8367
829.0,0.919
830.0,0.9084
831.0,0.9112
832.0,0.8856
833.0,0.9358
834.0,0.9069
835.0,0.9875
836.0,0.9508
837.0,0.9901
838.0,0.9618
839.0,0.9748
840.0,0.9956
841.0,0.9827
842.0,0.9833
843.0,0.9812
844.0,0.9685
845.0,1.0
846.0,0.9955
847.0,0.9766
848.0,0.9713
849.0,0.9438
850.0,0.9042
851.0,0.9582
852.0,0.9512
853.0,0.9151
854.0,0.7907
855.0,0.8681
856.0,0.949
857.0,0.9698
858.0,0.9629
859.0,0.9635
860.0,0.9651
861.0,0.96
862.0,0.975
863.0,0.9981
864.0,0.9483
865.0,0.94
866.0,0.8453
867.0,0.8821
868.0,0.96
869.0,0.9401
870.0,0.967
871.0,0.9539
872.0,0.9505
873.0,0.9487
874.0,0.9375
875.0,0.9186
876.0,0.9283
877.0,0.9377
878.0,0.948
879.0,0.9335
880.0,0.9136
881.0,0.9002
882.0,0.9199
883.0,0.9225
884.0,0.9185
885.0,0.9255
886.0,0.8833
887.0,0.8918
888.0,0.9056
889.0,0.9149
890.0,0.9086
891.0,0.9065
892.0,0.8819
893.0,0.8563
894.0,0.8299
895.0,0.789
896.0,0.7454
897.0,0.6468
898.0,0.7021
899.0,0.542
900.0,0.7151
901.0,0.5678
902.0,0.6561
903.0,0.6659
904.0,0.8242
905.0,0.798
906.0,0.7485
907.0,0.6178
908.0,0.6287
909.0,0.6765
910.0,0.6063
911.0,0.6414
912.0,0.6688
913.0,0.6158
914.0,0.6092
915.0,0.6597
916.0,0.5609
917.0,0.7029
918.0,0.5754
919.0,0.7137
920.0,0.7169
921.0,0.7447
922.0,0.6716
923.0,0.7192
924.0,0.6887
925.0,0.6739
926.0,0.6814
927.0,0.7573
928.0,0.5711
929.0,0.5255
930.0,0.4195
931.0,0.3965
932.0,0.2921
933.0,0.2409
934.0,0.1394
935.0,0.2437
936.0,0.1567
937.0,0.1595
938.0,0.1943
939.0,0.3843
940.0,0.4578
941.0,0.3516
942.0,0.4033
943.0,0.2701
944.0,0.2802
945.0,0.3616
946.0,0.1904
947.0,0.3648
948.0,0.2691
949.0,0.482
950.0,0.1438
951.0,0.4736
952.0,0.2628
953.0,0.334
954.0,0.4035
955.0,0.3372
956.0,0.3243
957.0,0.2641
958.0,0.4511
959.0,0.3649
960.0,0.4088
961.0,0.4539
962.0,0.4301
963.0,0.4915
964.0,0.4517
965.0,0.4892
966.0,0.4903
967.0,0.4887
968.0,0.6401
969.0,0.6698
970.0,0.6172
971.0,0.6999
972.0,0.6709
973.0,0.5907
974.0,0.5617
975.0,0.5805
976.0,0.5547
977.0,0.6244
978.0,0.5961
979.0,0.6222
980.0,0.5864
981.0,0.6959
982.0,0.6678
983.0,0.6426
984.0,0.7145
985.0,0.6653
986.0,0.7255
987.0,0.7131
988.0,0.7118
989.0,0.7224
990.0,0.7074
991.0,0.7248
992.0,0.7288
993.0,0.7143
994.0,0.7285
995.0,0.7274
996.0,0.7244
997.0,0.7254
998.0,0.7221
999.0,0.7194
1000.0,0.7148
1001.0,0.7233
1002.0,0.705
1003.0,0.7107
1004.0,0.6937
1005.0,0.6678
1006.0,0.6942
1007.0,0.7088
1008.0,0.7052
1009.0,0.7018
1010.0,0.699
1011.0,0.7052
1012.0,0.6995
1013.0,0.7035
1014.0,0.6986
1015.0,0.694
1016.0,0.691
1017.0,0.6928
1018.0,0.69
1019.0,0.676
1020.0,0.6865
1021.0,0.6855
1022.0,0.6805
1023.0,0.6877
1024.0,0.6794
1025.0,0.6871
1026.0,0.6843
1027.0,0.6828
1028.0,0.6814
1029.0,0.6734
1030.0,0.6778
1031.0,0.6752
1032.0,0.6732
1033.0,0.6631
1034.0,0.6632
1035.0,0.6653
1036.0,0.6688
1037.0,0.6579
1038.0,0.6609
1039.0,0.6606
1040.0,0.6579
1041.0,0.6606
1042.0,0.656
1043.0,0.654
1044.0,0.6564
1045.0,0.6475
1046.0,0.6404
1047.0,0.6463
1048.0,0.6499
1049.0,0.6476
1050.0,0.6447
1051.0,0.6439
1052.0,0.6413
1053.0,0.6363
1054.0,0.6378
1055.0,0.6383
1056.0,0.6362
1057.0,0.6343
1058.0,0.6188
1059.0,0.6196
1060.0,0.6187
1061.0,0.618
1062.0,0.6214
1063.0,0.6154
1064.0,0.6226
1065.0,0.6184
1066.0,0.606
1067.0,0.6139
1068.0,0.6007
1069.0,0.582
1070.0,0.602
1071.0,0.6108
1072.0,0.6042
1073.0,0.5954
1074.0,0.6102
1075.0,0.5814
1076.0,0.6098
1077.0,0.5999
1078.0,0.5889
1079.0,0.5999
1080.0,0.5907
1081.0,0.5726
1082.0,0.5804
1083.0,0.5818
1084.0,0.5717
1085.0,0.592
1086.0,0.5429
1087.0,0.5584
1088.0,0.5816
1089.0,0.5654
1090.0,0.5541
1091.0,0.5802
1092.0,0.5784
1093.0,0.4954
1094.0,0.5298
1095.0,0.5154
1096.0,0.495
1097.0,0.565
1098.0,0.4878
1099.0,0.5081
1100.0,0.4746
1101.0,0.4799
1102.0,0.4597
1103.0,0.4562
1104.0,0.4567
1105.0,0.497
1106.0,0.3887
1107.0,0.4737
1108.0,0.4067
1109.0,0.4064
1110.0,0.4703
1111.0,0.3259
1112.0,0.4029
1113.0,0.2636
1114.0,0.2938
1115.0,0.2439
1116.0,0.199
1117.0,0.07785
1118.0,0.2149
1119.0,0.1104
1120.0,0.1391
1121.0,0.1823
1122.0,0.07999
1123.0,0.1256
1124.0,0.1061
1125.0,0.1375
1126.0,0.05109
1127.0,0.1548
1128.0,0.09609
1129.0,0.1014
1130.0,0.06821
1131.0,0.2853
1132.0,0.2254
1133.0,0.1472
1134.0,0.0403
1135.0,0.01497
1136.0,0.1244
1137.0,0.2816
1138.0,0.1994
1139.0,0.289
1140.0,0.2447
1141.0,0.1895
1142.0,0.2162
1143.0,0.3035
1144.0,0.1103
1145.0,0.1419
1146.0,0.1531
1147.0,0.05723
1148.0,0.2628
1149.0,0.2124
1150.0,0.1183
1151.0,0.1979
1152.0,0.2406
1153.0,0.2322
1154.0,0.1382
1155.0,0.3016
1156.0,0.2733
1157.0,0.3041
1158.0,0.3008
1159.0,0.3222
1160.0,0.278
1161.0,0.3374
1162.0,0.3395
1163.0,0.4495
1164.0,0.3889
1165.0,0.37
1166.0,0.3653
1167.0,0.3962
1168.0,0.4012
1169.0,0.4096
1170.0,0.4424
1171.0,0.4318
1172.0,0.438
1173.0,0.4415
1174.0,0.3229
1175.0,0.4301
1176.0,0.469
1177.0,0.4527
1178.0,0.3459
1179.0,0.4727
1180.0,0.4261
1181.0,0.4394
1182.0,0.3096
1183.0,0.4317
1184.0,0.4067
1185.0,0.3944
1186.0,0.4612
1187.0,0.4413
1188.0,0.3155
1189.0,0.4116
1190.0,0.4507
1191.0,0.4314
1192.0,0.4566
1193.0,0.4388
1194.0,0.4514
1195.0,0.4294
1196.0,0.4151
1197.0,0.4504
1198.0,0.4139
1199.0,0.3576
1200.0,0.4335
1201.0,0.42
1202.0,0.4164
1203.0,0.4131
1204.0,0.3644
1205.0,0.4245
1206.0,0.4658
1207.0,0.416
1208.0,0.4078
1209.0,0.4157
1210.0,0.4318
1211.0,0.4134
1212.0,0.4109
1213.0,0.4518
1214.0,0.4196
1215.0,0.4122
1216.0,0.4502
1217.0,0.4394
1218.0,0.4467
1219.0,0.4417
1220.0,0.447
1221.0,0.4508
1222.0,0.4398
1223.0,0.4361
1224.0,0.4343
1225.0,0.448
1226.0,0.4503
1227.0,0.4183
1228.0,0.452
1229.0,0.4504
1230.0,0.4433
1231.0,0.454
1232.0,0.4514
1233.0,0.4382
1234.0,0.4532
1235.0,0.4507
1236.0,0.4537
1237.0,0.4483
1238.0,0.4522
1239.0,0.4464
1240.0,0.448
1241.0,0.4464
1242.0,0.445
1243.0,0.4413
1244.0,0.4447
1245.0,0.4464
1246.0,0.4438
1247.0,0.4423
1248.0,0.4423
1249.0,0.4434
1250.0,0.4409
1251.0,0.4356
1252.0,0.4352
1253.0,0.4325
1254.0,0.4288
1255.0,0.435
1256.0,0.4243
1257.0,0.4222
1258.0,0.429
1259.0,0.4157
1260.0,0.4176
1261.0,0.3971
1262.0,0.3867
1263.0,0.3875
1264.0,0.3613
1265.0,0.385
1266.0,0.3725
1267.0,0.3776
1268.0,0.3605
1269.0,0.2393
1270.0,0.3769
1271.0,0.3954
1272.0,0.3964
1273.0,0.3925
1274.0,0.3934
1275.0,0.3985
1276.0,0.4018
1277.0,0.4038
1278.0,0.4104
1279.0,0.4068
1280.0,0.4016
1281.0,0.3827
1282.0,0.3678
1283.0,0.3963
1284.0,0.406
1285.0,0.4086
1286.0,0.4136
1287.0,0.4081
1288.0,0.4078
1289.0,0.3967
1290.0,0.4041
1291.0,0.4094
1292.0,0.388
1293.0,0.4023
1294.0,0.3996
1295.0,0.3985
1296.0,0.3827
1297.0,0.3637
1298.0,0.3881
1299.0,0.4025
1300.0,0.3466
1301.0,0.356
1302.0,0.3867
1303.0,0.3414
1304.0,0.2967
1305.0,0.3792
1306.0,0.3796
1307.0,0.3012
1308.0,0.3411
1309.0,0.3772
1310.0,0.2957
1311.0,0.3282
1312.0,0.3202
1313.0,0.3149
1314.0,0.2839
1315.0,0.2814
1316.0,0.324
1317.0,0.3075
1318.0,0.332
1319.0,0.266
1320.0,0.2563
1321.0,0.2963
1322.0,0.3002
1323.0,0.2312
1324.0,0.2608
1325.0,0.3197
1326.0,0.2778
1327.0,0.2658
1328.0,0.2309
1329.0,0.1778
1330.0,0.2292
1331.0,0.1436
1332.0,0.1465
1333.0,0.2026
1334.0,0.1693
1335.0,0.2303
1336.0,0.1848
1337.0,0.1649
1338.0,0.1783
1339.0,0.1769
1340.0,0.1707
1341.0,0.1697
1342.0,0.178
1343.0,0.1269
1344.0,0.07575
1345.0,0.1087
1346.0,0.05821
1347.0,0.0599
1348.0,0.004704
1349.0,0.01598
1350.0,0.01595
1351.0,0.0046
1352.0,0.001487
1353.0,9.338e-05
1354.0,0.0002825
1355.0,3.461e-06
1356.0,4.639e-05
1357.0,7.023e-05
1358.0,4.031e-06
1359.0,6.925e-07
1360.0,2.06e-06
1361.0,4.48e-09
1362.0,1.648e-11
1363.0,3.029e-06
1364.0,1.29e-06
1365.0,8.25e-12
1366.0,1.218e-05
1367.0,4.776e-06
1368.0,1.293e-13
1369.0,4.922e-07
1370.0,2.765e-07
1371.0,1.857e-08
1372.0,2.632e-06
1373.0,4.287e-05
1374.0,0.0001725
1375.0,0.0003136
1376.0,0.0002524
1377.0,0.0001196
1378.0,0.00109
1379.0,5.066e-05
1380.0,7.944e-05
1381.0,2.286e-06
1382.0,2.462e-06
1383.0,4.204e-08
1384.0,5.856e-07
1385.0,2.018e-06
1386.0,2.398e-06
1387.0,0.0001939
1388.0,3.915e-06
1389.0,0.0005641
1390.0,0.0004854
1391.0,0.0003352
1392.0,2.309e-05
1393.0,0.000113
1394.0,7.321e-05
1395.0,6.448e-07
1396.0,5.913e-09
1397.0,4.775e-05
1398.0,0.001241
1399.0,0.0007866
1400.0,3.032e-09
1401.0,9.987e-09
1402.0,0.001813
1403.0,0.002357
1404.0,0.00073
1405.0,3.513e-07
1406.0,0.002012
1407.0,0.0001722
1408.0,0.00163
1409.0,0.0006086
1410.0,0.0004582
1411.0,0.00206
1412.0,0.002645
1413.0,0.02342
1414.0,0.0003573
1415.0,0.0001806
1416.0,0.0356
1417.0,0.01171
1418.0,0.01343
1419.0,0.002131
1420.0,0.008256
1421.0,0.008965
1422.0,0.0462
1423.0,0.009205
1424.0,0.01703
1425.0,0.02539
1426.0,0.02796
1427.0,0.04947
1428.0,0.004483
1429.0,0.03786
1430.0,0.06241
1431.0,0.06803
1432.0,0.003554
1433.0,0.04399
1434.0,0.02274
1435.0,0.02396
1436.0,0.04431
1437.0,0.03395
1438.0,0.01487
1439.0,0.05941
1440.0,0.04459
1441.0,0.03489
1442.0,0.03854
1443.0,0.04702
1444.0,0.06452
1445.0,0.05159
1446.0,0.02354
1447.0,0.03703
1448.0,0.1177
1449.0,0.1032
1450.0,0.02742
1451.0,0.01127
1452.0,0.06313
1453.0,0.08232
1454.0,0.1379
1455.0,0.06628
1456.0,0.08961
1457.0,0.1182
1458.0,0.1374
1459.0,0.1628
1460.0,0.08581
1461.0,0.09046
1462.0,0.131
1463.0,0.04341
1464.0,0.1537
1465.0,0.09294
1466.0,0.06618
