interpolation:linear
wavelength,value
280.0,1.9049999999999998e-23
280.5,5.874999999999999e-22
281.0,3.134e-21
281.5,9.397000000000001e-20
282.0,7.304e-19
282.5,2.757e-18
283.0,1.194e-17
283.5,2.231e-17
284.0,5.419e-16
284.5,1.819e-15
285.0,4.136e-15
285.5,3.068e-14
286.0,1.418e-13
286.5,7.893e-13
287.0,2.596e-12
287.5,1.154e-11
288.0,5.003e-11
288.5,1.946e-10
289.0,6.374e-10
289.5,2.312e-09
290.0,7.341e-09
290.5,1.667e-08
291.0,4.003e-08
291.5,1.296e-07
292.0,3.243e-07
292.5,4.844e-07
293.0,1.112e-06
293.5,2.925e-06
294.0,4.867e-06
294.5,8.523e-06
295.0,1.49e-05
295.5,3.573e-05
296.0,6.386e-05
296.5,8.267e-05
297.0,0.000105
297.5,0.0002548
298.0,0.0003688
298.5,0.0003473
299.0,0.0007175
299.5,0.001055
300.0,0.001088
300.5,0.001472
301.0,0.002374
301.5,0.003411
302.0,0.002777
302.5,0.005189
303.0,0.008778
303.5,0.01065
304.0,0.009736
304.5,0.0134
305.0,0.0181
305.5,0.01933
306.0,0.01828
306.5,0.02182
307.0,0.02928
307.5,0.03541
308.0,0.03702
308.5,0.04187
309.0,0.0371
309.5,0.04074
310.0,0.04021
310.5,0.06473
311.0,0.08004
311.5,0.07698
312.0,0.07381
312.5,0.08739
313.0,0.09364
313.5,0.09293
314.0,0.1121
314.5,0.0945
315.0,0.1236
315.5,0.1068
316.0,0.08949
316.5,0.1239
317.0,0.1548
317.5,0.1637
318.0,0.1248
318.5,0.1472
319.0,0.1706
319.5,0.1462
320.0,0.1787
320.5,0.2121
321.0,0.1801
321.5,0.1725
322.0,0.1954
322.5,0.1702
323.0,0.1641
323.5,0.1902
324.0,0.2215
324.5,0.2298
325.0,0.2088
325.5,0.2617
326.0,0.3093
326.5,0.3041
327.0,0.3069
327.5,0.3008
328.0,0.2771
328.5,0.2821
329.0,0.3297
329.5,0.3725
330.0,0.3799
330.5,0.3121
331.0,0.3216
331.5,0.3228
332.0,0.3419
332.5,0.3359
333.0,0.3384
333.5,0.3129
334.0,0.3227
334.5,0.3664
335.0,0.3416
335.5,0.3884
336.0,0.2696
336.5,0.3287
337.0,0.2729
337.5,0.3417
338.0,0.3294
338.5,0.3724
339.0,0.3718
339.5,0.3575
340.0,0.4312
340.5,0.3894
341.0,0.3741
341.5,0.3476
342.0,0.4175
342.5,0.3926
343.0,0.4314
343.5,0.4062
344.0,0.3053
344.5,0.3027
345.0,0.4061
345.5,0.4173
346.0,0.3564
346.5,0.4053
347.0,0.435
347.5,0.3523
348.0,0.4045
348.5,0.4063
349.0,0.3783
349.5,0.3754
350.0,0.4657
350.5,0.4927
351.0,0.4408
351.5,0.4276
352.0,0.462
352.5,0.3623
353.0,0.458
353.5,0.4914
354.0,0.5118
354.5,0.5206
355.0,0.5201
355.5,0.4711
356.0,0.4943
356.5,0.4233
357.0,0.3508
357.5,0.4307
358.0,0.3423
358.5,0.2933
359.0,0.4113
359.5,0.5252
360.0,0.5584
360.5,0.4476
361.0,0.409
361.5,0.472
362.0,0.4089
362.5,0.5671
363.0,0.5104
363.5,0.4711
364.0,0.5774
364.5,0.4947
365.0,0.505
365.5,0.6353
366.0,0.6745
366.5,0.6351
367.0,0.6199
367.5,0.6448
368.0,0.5654
368.5,0.5718
369.0,0.6188
369.5,0.661
370.0,0.7061
370.5,0.5492
371.0,0.588
371.5,0.7373
372.0,0.4905
372.5,0.5893
373.0,0.6006
373.5,0.3915
374.0,0.57
374.5,0.473
375.0,0.4607
375.5,0.6894
376.0,0.5727
376.5,0.5947
377.0,0.6308
377.5,0.7394
378.0,0.8032
378.5,0.7609
379.0,0.6294
379.5,0.5762
380.0,0.6004
380.5,0.7285
381.0,0.7314
381.5,0.5808
382.0,0.5167
382.5,0.4412
383.0,0.4092
383.5,0.3948
384.0,0.4363
384.5,0.6428
385.0,0.6386
385.5,0.5957
386.0,0.5111
386.5,0.6725
387.0,0.5599
387.5,0.63
388.0,0.5827
388.5,0.5769
389.0,0.6239
389.5,0.7569
390.0,0.7609
390.5,0.7014
391.0,0.827
391.5,0.845
392.0,0.713
392.5,0.6393
393.0,0.3563
393.5,0.2593
394.0,0.5286
394.5,0.673
395.0,0.8226
395.5,0.837
396.0,0.7268
396.5,0.4254
397.0,0.3198
397.5,0.6513
398.0,0.9137
398.5,0.9459
399.0,1.025
399.5,1.023
400.0,1.065
401.0,1.096
402.0,1.159
403.0,1.104
404.0,1.09
405.0,1.093
406.0,1.078
407.0,1.063
408.0,1.107
409.0,1.188
410.0,1.04
411.0,1.129
412.0,1.215
413.0,1.188
414.0,1.205
415.0,1.211
416.0,1.235
417.0,1.207
418.0,1.188
419.0,1.206
420.0,1.203
421.0,1.261
422.0,1.201
423.0,1.176
424.0,1.247
425.0,1.247
426.0,1.216
427.0,1.196
428.0,1.167
429.0,1.107
430.0,0.9706
431.0,0.9643
432.0,1.247
433.0,1.256
434.0,1.169
435.0,1.223
436.0,1.38
437.0,1.363
438.0,1.242
439.0,1.288
440.0,1.331
441.0,1.381
442.0,1.484
443.0,1.448
444.0,1.482
445.0,1.452
446.0,1.387
447.0,1.501
448.0,1.528
449.0,1.535
450.0,1.58
451.0,1.642
452.0,1.584
453.0,1.491
454.0,1.559
455.0,1.571
456.0,1.61
457.0,1.639
458.0,1.586
459.0,1.58
460.0,1.587
461.0,1.626
462.0,1.64
463.0,1.631
464.0,1.605
465.0,1.585
466.0,1.602
467.0,1.576
468.0,1.596
469.0,1.607
470.0,1.558
471.0,1.557
472.0,1.643
473.0,1.624
474.0,1.629
475.0,1.646
476.0,1.601
477.0,1.608
478.0,1.654
479.0,1.645
480.0,1.65
481.0,1.681
482.0,1.691
483.0,1.671
484.0,1.638
485.0,1.562
486.0,1.366
487.0,1.432
488.0,1.573
489.0,1.581
490.0,1.664
491.0,1.636
492.0,1.547
493.0,1.599
494.0,1.616
495.0,1.631
496.0,1.643
497.0,1.67
498.0,1.594
499.0,1.616
500.0,1.571
501.0,1.545
502.0,1.526
503.0,1.591
504.0,1.557
505.0,1.61
506.0,1.664
507.0,1.585
508.0,1.535
509.0,1.578
510.0,1.57
511.0,1.613
512.0,1.631
513.0,1.545
514.0,1.535
515.0,1.521
516.0,1.519
517.0,1.35
518.0,1.421
519.0,1.492
520.0,1.547
521.0,1.563
522.0,1.566
523.0,1.539
524.0,1.596
525.0,1.618
526.0,1.547
527.0,1.459
528.0,1.545
529.0,1.631
530.0,1.609
531.0,1.634
532.0,1.579
533.0,1.534
534.0,1.58
535.0,1.615
536.0,1.63
537.0,1.567
538.0,1.595
539.0,1.583
540.0,1.518
541.0,1.531
542.0,1.581
543.0,1.564
544.0,1.593
545.0,1.588
546.0,1.597
547.0,1.597
548.0,1.578
549.0,1.583
550.0,1.603
551.0,1.584
552.0,1.596
553.0,1.569
554.0,1.607
555.0,1.612
556.0,1.592
557.0,1.544
558.0,1.534
559.0,1.507
560.0,1.527
561.0,1.548
562.0,1.539
563.0,1.582
564.0,1.541
565.0,1.529
566.0,1.508
567.0,1.538
568.0,1.528
569.0,1.497
570.0,1.496
571.0,1.487
572.0,1.526
573.0,1.544
574.0,1.54
575.0,1.513
576.0,1.5
577.0,1.517
578.0,1.493
579.0,1.498
580.0,1.524
581.0,1.53
582.0,1.557
583.0,1.56
584.0,1.573
585.0,1.534
586.0,1.503
587.0,1.538
588.0,1.508
589.0,1.348
590.0,1.409
591.0,1.485
592.0,1.47
593.0,1.488
594.0,1.48
595.0,1.448
596.0,1.497
597.0,1.483
598.0,1.477
599.0,1.478
600.0,1.478
601.0,1.465
602.0,1.455
603.0,1.479
604.0,1.503
605.0,1.496
606.0,1.489
607.0,1.503
608.0,1.486
609.0,1.489
610.0,1.478
611.0,1.485
612.0,1.481
613.0,1.462
614.0,1.442
615.0,1.473
616.0,1.424
617.0,1.422
618.0,1.476
619.0,1.462
620.0,1.471
621.0,1.474
622.0,1.458
623.0,1.437
624.0,1.412
625.0,1.409
626.0,1.431
627.0,1.449
628.0,1.378
629.0,1.424
630.0,1.393
631.0,1.416
632.0,1.398
633.0,1.438
634.0,1.421
635.0,1.443
636.0,1.422
637.0,1.445
638.0,1.458
639.0,1.441
640.0,1.426
641.0,1.425
642.0,1.418
643.0,1.437
644.0,1.432
645.0,1.435
646.0,1.405
647.0,1.395
648.0,1.398
649.0,1.371
650.0,1.37
651.0,1.428
652.0,1.378
653.0,1.409
654.0,1.393
655.0,1.346
656.0,1.19
657.0,1.222
658.0,1.367
659.0,1.376
660.0,1.382
661.0,1.392
662.0,1.396
663.0,1.368
664.0,1.383
665.0,1.382
666.0,1.383
667.0,1.381
668.0,1.381
669.0,1.402
670.0,1.396
671.0,1.395
672.0,1.383
673.0,1.404
674.0,1.399
675.0,1.386
676.0,1.396
677.0,1.382
678.0,1.386
679.0,1.363
680.0,1.374
681.0,1.365
682.0,1.364
683.0,1.361
684.0,1.355
685.0,1.366
686.0,1.359
687.0,1.01
688.0,1.131
689.0,1.134
690.0,1.172
691.0,1.215
692.0,1.244
693.0,1.236
694.0,1.226
695.0,1.265
696.0,1.267
697.0,1.328
698.0,1.308
699.0,1.287
700.0,1.272
701.0,1.263
702.0,1.268
703.0,1.27
704.0,1.305
705.0,1.307
706.0,1.303
707.0,1.304
708.0,1.307
709.0,1.305
710.0,1.307
711.0,1.304
712.0,1.299
713.0,1.288
714.0,1.292
715.0,1.256
716.0,1.258
717.0,1.131
718.0,1.046
719.0,0.9635
720.0,1.012
721.0,1.092
722.0,1.222
723.0,1.152
724.0,1.055
725.0,1.043
726.0,1.089
727.0,1.096
728.0,1.043
729.0,1.068
730.0,1.129
731.0,1.085
732.0,1.146
733.0,1.198
734.0,1.223
735.0,1.2
736.0,1.198
737.0,1.204
738.0,1.213
739.0,1.189
740.0,1.218
741.0,1.204
742.0,1.204
743.0,1.234
744.0,1.23
745.0,1.229
746.0,1.235
747.0,1.238
748.0,1.235
749.0,1.221
750.0,1.22
751.0,1.208
752.0,1.213
753.0,1.22
754.0,1.223
755.0,1.216
756.0,1.215
757.0,1.217
758.0,1.203
759.0,1.184
760.0,0.3149
761.0,0.195
762.0,0.7179
763.0,0.4312
764.0,0.5828
765.0,0.7186
766.0,0.8276
767.0,0.9918
768.0,1.104
769.0,1.118
770.0,1.147
771.0,1.152
772.0,1.153
773.0,1.161
774.0,1.155
775.0,1.146
776.0,1.16
777.0,1.145
778.0,1.138
779.0,1.139
780.0,1.133
781.0,1.134
782.0,1.141
783.0,1.121
784.0,1.127
785.0,1.119
786.0,1.131
787.0,1.116
788.0,1.104
789.0,1.104
790.0,1.081
791.0,1.085
792.0,1.076
793.0,1.06
794.0,1.071
795.0,1.091
796.0,1.066
797.0,1.068
798.0,1.091
799.0,1.086
800.0,1.069
801.0,1.068
802.0,1.065
803.0,1.058
804.0,1.058
805.0,1.053
806.0,1.079
807.0,1.067
808.0,1.067
809.0,1.05
810.0,1.044
811.0,1.049
812.0,1.025
813.0,1.008
814.0,0.9069
815.0,0.9008
816.0,0.8418
817.0,0.8546
818.0,0.8272
819.0,0.907
820.0,0.8613
821.0,0.9827
822.0,0.9587
823.0,0.6914
824.0,0.9391
825.0,0.9673
826.0,0.9379
827.0,0.982
828.0,0.8545
829.0,0.9309
830.0,0.9212
831.0,0.9237
832.0,0.8994
833.0,0.9454
834.0,0.9193
835.0,0.9946
836.0,0.9616
837.0,0.9969
838.0,0.9701
839.0,0.9811
840.0,1.002
841.0,0.9893
842.0,0.9887
843.0,0.9854
844.0,0.9734
845.0,1.004
846.0,0.9994
847.0,0.98
848.0,0.9752
849.0,0.9476
850.0,0.9078
851.0,0.9626
852.0,0.9553
853.0,0.9185
854.0,0.794
855.0,0.8712
856.0,0.9526
857.0,0.9731
858.0,0.9664
859.0,0.9667
860.0,0.9682
861.0,0.9631
862.0,0.9781
863.0,1.001
864.0,0.9512
865.0,0.9428
866.0,0.8478
867.0,0.8848
868.0,0.9628
869.0,0.9429
870.0,0.9698
871.0,0.9567
872.0,0.9533
873.0,0.9514
874.0,0.9402
875.0,0.9212
876.0,0.931
877.0,0.9403
878.0,0.9508
879.0,0.9362
880.0,0.9162
881.0,0.9031
882.0,0.9229
883.0,0.9253
884.0,0.9213
885.0,0.9283
886.0,0.887
887.0,0.8948
888.0,0.9091
889.0,0.9176
890.0,0.9122
891.0,0.9096
892.0,0.8862
893.0,0.8622
894.0,0.8388
895.0,0.8014
896.0,0.7593
897.0,0.6646
898.0,0.718
899.0,0.5616
900.0,0.7279
901.0,0.5879
902.0,0.6699
903.0,0.6828
904.0,0.8329
905.0,0.8083
906.0,0.7598
907.0,0.6356
908.0,0.6457
909.0,0.6906
910.0,0.6265
911.0,0.6584
912.0,0.6845
913.0,0.6365
914.0,0.6285
915.0,0.6794
916.0,0.5804
917.0,0.7187
918.0,0.5955
919.0,0.728
920.0,0.7278
921.0,0.7548
922.0,0.686
923.0,0.7286
924.0,0.7037
925.0,0.6888
926.0,0.6963
927.0,0.7687
928.0,0.5948
929.0,0.5513
930.0,0.4469
931.0,0.421
932.0,0.317
933.0,0.2654
934.0,0.162
935.0,0.2652
936.0,0.1758
937.0,0.1797
938.0,0.2168
939.0,0.4082
940.0,0.4815
941.0,0.3764
942.0,0.4274
943.0,0.2915
944.0,0.298
945.0,0.386
946.0,0.2105
947.0,0.3912
948.0,0.2899
949.0,0.5096
950.0,0.1641
951.0,0.4994
952.0,0.2871
953.0,0.3585
954.0,0.4262
955.0,0.3611
956.0,0.3448
957.0,0.2895
958.0,0.4691
959.0,0.3869
960.0,0.4331
961.0,0.4753
962.0,0.4513
963.0,0.5108
964.0,0.4712
965.0,0.5077
966.0,0.5102
967.0,0.5089
968.0,0.6502
969.0,0.6812
970.0,0.6303
971.0,0.7076
972.0,0.6795
973.0,0.6057
974.0,0.5772
975.0,0.5934
976.0,0.5708
977.0,0.6352
978.0,0.6095
979.0,0.6338
980.0,0.599
981.0,0.7031
982.0,0.6773
983.0,0.6533
984.0,0.719
985.0,0.6746
986.0,0.7284
987.0,0.7177
988.0,0.7164
989.0,0.7242
990.0,0.7118
991.0,0.7268
992.0,0.7307
993.0,0.7179
994.0,0.7302
995.0,0.7288
996.0,0.7261
997.0,0.7269
998.0,0.7237
999.0,0.721
1000.0,0.7168
1001.0,0.7248
1002.0,0.7083
1003.0,0.7122
1004.0,0.6957
1005.0,0.6691
1006.0,0.6958
1007.0,0.7103
1008.0,0.7071
1009.0,0.704
1010.0,0.7014
1011.0,0.7067
1012.0,0.7013
1013.0,0.7048
1014.0,0.6999
1015.0,0.6954
1016.0,0.6924
1017.0,0.6943
1018.0,0.6913
1019.0,0.6779
1020.0,0.6879
1021.0,0.6868
1022.0,0.6819
1023.0,0.6893
1024.0,0.6816
1025.0,0.6884
1026.0,0.6858
1027.0,0.6842
1028.0,0.6829
1029.0,0.6749
1030.0,0.6791
1031.0,0.6766
1032.0,0.6745
1033.0,0.6644
1034.0,0.6644
1035.0,0.6665
1036.0,0.6701
1037.0,0.6592
1038.0,0.6622
1039.0,0.6619
1040.0,0.6593
1041.0,0.662
1042.0,0.6574
1043.0,0.6554
1044.0,0.6578
1045.0,0.649
1046.0,0.6419
1047.0,0.6478
1048.0,0.6515
1049.0,0.6493
1050.0,0.6464
1051.0,0.6457
1052.0,0.6432
1053.0,0.6382
1054.0,0.6398
1055.0,0.6404
1056.0,0.6383
1057.0,0.6365
1058.0,0.6211
1059.0,0.622
1060.0,0.6211
1061.0,0.6205
1062.0,0.624
1063.0,0.618
1064.0,0.6253
1065.0,0.6213
1066.0,0.6087
1067.0,0.6167
1068.0,0.6036
1069.0,0.5847
1070.0,0.6049
1071.0,0.6131
1072.0,0.607
1073.0,0.5981
1074.0,0.6122
1075.0,0.5852
1076.0,0.612
1077.0,0.6031
1078.0,0.5925
1079.0,0.6017
1080.0,0.5939
1081.0,0.5765
1082.0,0.5828
1083.0,0.5838
1084.0,0.5762
1085.0,0.5949
1086.0,0.5488
1087.0,0.562
1088.0,0.584
1089.0,0.5694
1090.0,0.5594
1091.0,0.583
1092.0,0.5808
1093.0,0.5031
1094.0,0.5327
1095.0,0.5225
1096.0,0.5036
1097.0,0.5672
1098.0,0.4968
1099.0,0.5165
1100.0,0.4851
1101.0,0.4897
1102.0,0.4706
1103.0,0.4682
1104.0,0.4685
1105.0,0.5058
1106.0,0.4054
1107.0,0.484
1108.0,0.4215
1109.0,0.4201
1110.0,0.4811
1111.0,0.3416
1112.0,0.416
1113.0,0.2809
1114.0,0.3119
1115.0,0.2591
1116.0,0.2169
1117.0,0.09133
1118.0,0.2321
1119.0,0.1242
1120.0,0.1565
1121.0,0.2019
1122.0,0.09292
1123.0,0.1411
1124.0,0.1193
1125.0,0.1534
1126.0,0.06141
1127.0,0.1723
1128.0,0.1117
1129.0,0.1171
1130.0,0.08104
1131.0,0.3069
1132.0,0.2445
1133.0,0.1655
1134.0,0.04921
1135.0,0.01814
1136.0,0.1419
1137.0,0.3044
1138.0,0.217
1139.0,0.3042
1140.0,0.2616
1141.0,0.2062
1142.0,0.233
1143.0,0.3228
1144.0,0.123
1145.0,0.1593
1146.0,0.1719
1147.0,0.06898
1148.0,0.2796
1149.0,0.2294
1150.0,0.1318
1151.0,0.2155
1152.0,0.2581
1153.0,0.2463
1154.0,0.1563
1155.0,0.3176
1156.0,0.2898
1157.0,0.3198
1158.0,0.3161
1159.0,0.3358
1160.0,0.2932
1161.0,0.3499
1162.0,0.3525
1163.0,0.4572
1164.0,0.3992
1165.0,0.383
1166.0,0.376
1167.0,0.4059
1168.0,0.4117
1169.0,0.419
1170.0,0.45
1171.0,0.4397
1172.0,0.4445
1173.0,0.449
1174.0,0.3361
1175.0,0.4364
1176.0,0.4724
1177.0,0.4582
1178.0,0.3559
1179.0,0.4759
1180.0,0.433
1181.0,0.446
1182.0,0.3205
1183.0,0.4373
1184.0,0.4141
1185.0,0.4032
1186.0,0.4657
1187.0,0.4474
1188.0,0.327
1189.0,0.4177
1190.0,0.4552
1191.0,0.4386
1192.0,0.4608
1193.0,0.4439
1194.0,0.4559
1195.0,0.4357
1196.0,0.4226
1197.0,0.4537
1198.0,0.4187
1199.0,0.3665
1200.0,0.4387
1201.0,0.4267
1202.0,0.4222
1203.0,0.4188
1204.0,0.3722
1205.0,0.4289
1206.0,0.4679
1207.0,0.4221
1208.0,0.4124
1209.0,0.4201
1210.0,0.4352
1211.0,0.4186
1212.0,0.4179
1213.0,0.4548
1214.0,0.4257
1215.0,0.4187
1216.0,0.4531
1217.0,0.4432
1218.0,0.4497
1219.0,0.4451
1220.0,0.4499
1221.0,0.4533
1222.0,0.4427
1223.0,0.4394
1224.0,0.4381
1225.0,0.4505
1226.0,0.4522
1227.0,0.4224
1228.0,0.4534
1229.0,0.4523
1230.0,0.4455
1231.0,0.455
1232.0,0.4524
1233.0,0.4409
1234.0,0.4537
1235.0,0.4515
1236.0,0.4543
1237.0,0.4496
1238.0,0.4528
1239.0,0.447
1240.0,0.4485
1241.0,0.4474
1242.0,0.4455
1243.0,0.4418
1244.0,0.4453
1245.0,0.447
1246.0,0.4444
1247.0,0.4429
1248.0,0.4432
1249.0,0.4441
1250.0,0.4417
1251.0,0.4367
1252.0,0.436
1253.0,0.4339
1254.0,0.4306
1255.0,0.4359
1256.0,0.4263
1257.0,0.4245
1258.0,0.4303
1259.0,0.4188
1260.0,0.4205
1261.0,0.402
1262.0,0.3927
1263.0,0.3936
1264.0,0.3697
1265.0,0.3909
1266.0,0.3799
1267.0,0.384
1268.0,0.3683
1269.0,0.2576
1270.0,0.3836
1271.0,0.4001
1272.0,0.4008
1273.0,0.3971
1274.0,0.3976
1275.0,0.4024
1276.0,0.4053
1277.0,0.4069
1278.0,0.4126
1279.0,0.409
1280.0,0.4037
1281.0,0.3843
1282.0,0.3687
1283.0,0.3974
1284.0,0.4073
1285.0,0.4097
1286.0,0.4144
1287.0,0.4096
1288.0,0.4091
1289.0,0.3993
1290.0,0.4053
1291.0,0.4104
1292.0,0.3915
1293.0,0.4039
1294.0,0.4014
1295.0,0.4009
1296.0,0.3866
1297.0,0.3689
1298.0,0.3909
1299.0,0.4038
1300.0,0.3526
1301.0,0.3612
1302.0,0.3894
1303.0,0.3468
1304.0,0.3061
1305.0,0.3822
1306.0,0.3829
1307.0,0.3091
1308.0,0.3458
1309.0,0.3807
1310.0,0.3037
1311.0,0.3338
1312.0,0.3264
1313.0,0.3217
1314.0,0.2917
1315.0,0.2902
1316.0,0.3302
1317.0,0.314
1318.0,0.3371
1319.0,0.2757
1320.0,0.2645
1321.0,0.3038
1322.0,0.3086
1323.0,0.2424
1324.0,0.2704
1325.0,0.3261
1326.0,0.2864
1327.0,0.2748
1328.0,0.2402
1329.0,0.1891
1330.0,0.2416
1331.0,0.1567
1332.0,0.158
1333.0,0.217
1334.0,0.1795
1335.0,0.2414
1336.0,0.1962
1337.0,0.1769
1338.0,0.1909
1339.0,0.1887
1340.0,0.1808
1341.0,0.1827
1342.0,0.1915
1343.0,0.1431
1344.0,0.08545
1345.0,0.1215
1346.0,0.06984
1347.0,0.07259
1348.0,0.006852
1349.0,0.02197
1350.0,0.02107
1351.0,0.007132
1352.0,0.002685
1353.0,0.0002064
1354.0,0.0005552
1355.0,9.972e-06
1356.0,0.0001046
1357.0,0.0001569
1358.0,1.144e-05
1359.0,2.571e-06
1360.0,6.437e-06
1361.0,2.551e-08
1362.0,1.254e-10
1363.0,9.915e-06
1364.0,4.426e-06
1365.0,8.454e-11
1366.0,3.696e-05
1367.0,1.426e-05
1368.0,2.443e-12
1369.0,1.732e-06
1370.0,1.087e-06
1371.0,8.585e-08
1372.0,7.909e-06
1373.0,0.0001052
1374.0,0.0003709
1375.0,0.0006643
1376.0,0.0004933
1377.0,0.000242
1378.0,0.00203
1379.0,0.0001038
1380.0,0.0001741
1381.0,5.568e-06
1382.0,7.624e-06
1383.0,1.497e-07
1384.0,2.143e-06
1385.0,5.558e-06
1386.0,7.983e-06
1387.0,0.0004407
1388.0,9.439e-06
1389.0,0.001126
1390.0,0.0009632
1391.0,0.0006922
1392.0,5.116e-05
1393.0,0.000231
1394.0,0.0001808
1395.0,1.927e-06
1396.0,3.122e-08
1397.0,0.0001033
1398.0,0.002325
1399.0,0.00148
1400.0,1.853e-08
1401.0,4.981e-08
1402.0,0.002903
1403.0,0.003877
1404.0,0.001218
1405.0,1.158e-06
1406.0,0.003499
1407.0,0.0002991
1408.0,0.002821
1409.0,0.001158
1410.0,0.000838
1411.0,0.003374
1412.0,0.004138
1413.0,0.03126
1414.0,0.0006477
1415.0,0.0003442
1416.0,0.04404
1417.0,0.01604
1418.0,0.01835
1419.0,0.002997
1420.0,0.01135
1421.0,0.01252
1422.0,0.0566
1423.0,0.01175
1424.0,0.02137
1425.0,0.03226
1426.0,0.0343
1427.0,0.05762
1428.0,0.006607
1429.0,0.04542
1430.0,0.07171
1431.0,0.07734
1432.0,0.005287
1433.0,0.05127
1434.0,0.02713
1435.0,0.03068
1436.0,0.05346
1437.0,0.04105
1438.0,0.01896
1439.0,0.07014
1440.0,0.05292
1441.0,0.04299
1442.0,0.04701
1443.0,0.05501
1444.0,0.07457
1445.0,0.06151
1446.0,0.02867
1447.0,0.04514
1448.0,0.1294
1449.0,0.1156
1450.0,0.03339
1451.0,0.01427
1452.0,0.07258
1453.0,0.09338
1454.0,0.1494
1455.0,0.07454
1456.0,0.1019
1457.0,0.1301
1458.0,0.1472
1459.0,0.175
1460.0,0.09452
1461.0,0.1013
1462.0,0.1433
1463.0,0.05003
1464.0,0.1648
1465.0,0.1003
