interpolation:linear
wavelength,value
280.0,9.802000000000001e-26
280.5,4.225e-24
281.0,2.548e-23
281.5,1.056e-21
282.0,9.996e-21
282.5,4.3080000000000006e-20
283.0,2.16e-19
283.5,4.34e-19
284.0,1.478e-17
284.5,5.786e-17
285.0,1.554e-16
285.5,1.403e-15
286.0,7.022e-15
286.5,4.601e-14
287.0,1.707e-13
287.5,8.887e-13
288.0,4.699e-12
288.5,2.031e-11
289.0,7.42e-11
289.5,3.034e-10
290.0,1.063e-09
290.5,2.619e-09
291.0,6.943e-09
291.5,2.549e-08
292.0,7.066e-08
292.5,1.118e-07
293.0,2.764e-07
293.5,8.041e-07
294.0,1.432e-06
294.5,2.64e-06
295.0,4.923e-06
295.5,1.279e-05
296.0,2.414e-05
296.5,3.291e-05
297.0,4.355e-05
297.5,0.000112
298.0,0.0001698
298.5,0.0001655
299.0,0.0003531
299.5,0.0005468
300.0,0.0005792
300.5,0.0008045
301.0,0.001348
301.5,0.001998
302.0,0.001651
302.5,0.003169
303.0,0.005537
303.5,0.006842
304.0,0.006315
304.5,0.00888
305.0,0.01234
305.5,0.0134
306.0,0.01276
306.5,0.01539
307.0,0.02109
307.5,0.026
308.0,0.02728
308.5,0.03115
309.0,0.0278
309.5,0.03113
310.0,0.03101
310.5,0.05017
311.0,0.06249
311.5,0.06033
312.0,0.05866
312.5,0.0701
313.0,0.0755
313.5,0.07471
314.0,0.09109
314.5,0.07775
315.0,0.102
315.5,0.08773
316.0,0.07426
316.5,0.1037
317.0,0.1296
317.5,0.137
318.0,0.105
318.5,0.1251
319.0,0.1457
319.5,0.1241
320.0,0.1516
320.5,0.1818
321.0,0.1555
321.5,0.1492
322.0,0.1679
322.5,0.1464
323.0,0.142
323.5,0.166
324.0,0.1937
324.5,0.2005
325.0,0.1814
325.5,0.2284
326.0,0.2716
326.5,0.2681
327.0,0.2704
327.5,0.2649
328.0,0.243
328.5,0.249
329.0,0.2922
329.5,0.3307
330.0,0.3373
330.5,0.2765
331.0,0.2849
331.5,0.2868
332.0,0.3048
332.5,0.3
333.0,0.3022
333.5,0.2791
334.0,0.2879
334.5,0.3279
335.0,0.3063
335.5,0.3487
336.0,0.2422
336.5,0.2951
337.0,0.245
337.5,0.3068
338.0,0.2965
338.5,0.3356
339.0,0.3354
339.5,0.3226
340.0,0.3891
340.5,0.3517
341.0,0.3382
341.5,0.3146
342.0,0.3781
342.5,0.3558
343.0,0.3911
343.5,0.3684
344.0,0.2769
344.5,0.2748
345.0,0.3691
345.5,0.3795
346.0,0.3244
346.5,0.3691
347.0,0.3963
347.5,0.3212
348.0,0.369
348.5,0.3708
349.0,0.3454
349.5,0.343
350.0,0.4258
350.5,0.4507
351.0,0.4034
351.5,0.3914
352.0,0.4232
352.5,0.3321
353.0,0.42
353.5,0.4509
354.0,0.4699
354.5,0.4781
355.0,0.4779
355.5,0.4331
356.0,0.4547
356.5,0.3895
357.0,0.3229
357.5,0.3966
358.0,0.3153
358.5,0.2703
359.0,0.3792
359.5,0.4845
360.0,0.5153
360.5,0.4132
361.0,0.3778
361.5,0.4362
362.0,0.3782
362.5,0.5247
363.0,0.4725
363.5,0.4364
364.0,0.5351
364.5,0.4587
365.0,0.4684
365.5,0.5895
366.0,0.6262
366.5,0.5899
367.0,0.576
367.5,0.5993
368.0,0.5258
368.5,0.5319
369.0,0.5759
369.5,0.6154
370.0,0.6577
370.5,0.5118
371.0,0.5482
371.5,0.6876
372.0,0.4575
372.5,0.5499
373.0,0.5607
373.5,0.3657
374.0,0.5326
374.5,0.4421
375.0,0.4308
375.5,0.6448
376.0,0.5358
376.5,0.5566
377.0,0.5906
377.5,0.6925
378.0,0.7525
378.5,0.7131
379.0,0.59
379.5,0.5403
380.0,0.5631
380.5,0.6836
381.0,0.6865
381.5,0.5454
382.0,0.4854
382.5,0.4147
383.0,0.3848
383.5,0.3713
384.0,0.4105
384.5,0.605
385.0,0.6012
385.5,0.5611
386.0,0.4815
386.5,0.6338
387.0,0.5278
387.5,0.5941
388.0,0.5496
388.5,0.5444
389.0,0.5889
389.5,0.7147
390.0,0.7187
390.5,0.6627
391.0,0.7816
391.5,0.7988
392.0,0.6742
392.5,0.6047
393.0,0.3371
393.5,0.2455
394.0,0.5004
394.5,0.6374
395.0,0.7792
395.5,0.793
396.0,0.6888
396.5,0.4034
397.0,0.3033
397.5,0.6179
398.0,0.8669
398.5,0.8976
399.0,0.9735
399.5,0.9719
400.0,1.011
401.0,1.042
402.0,1.103
403.0,1.051
404.0,1.038
405.0,1.041
406.0,1.027
407.0,1.013
408.0,1.056
409.0,1.134
410.0,0.993
411.0,1.079
412.0,1.161
413.0,1.136
414.0,1.153
415.0,1.159
416.0,1.182
417.0,1.156
418.0,1.138
419.0,1.156
420.0,1.154
421.0,1.21
422.0,1.153
423.0,1.129
424.0,1.197
425.0,1.198
426.0,1.169
427.0,1.15
428.0,1.123
429.0,1.065
430.0,0.9342
431.0,0.9284
432.0,1.201
433.0,1.21
434.0,1.126
435.0,1.179
436.0,1.331
437.0,1.315
438.0,1.199
439.0,1.244
440.0,1.285
441.0,1.334
442.0,1.434
443.0,1.4
444.0,1.432
445.0,1.404
446.0,1.342
447.0,1.453
448.0,1.479
449.0,1.487
450.0,1.531
451.0,1.591
452.0,1.535
453.0,1.446
454.0,1.511
455.0,1.523
456.0,1.562
457.0,1.591
458.0,1.54
459.0,1.534
460.0,1.541
461.0,1.579
462.0,1.593
463.0,1.584
464.0,1.56
465.0,1.541
466.0,1.558
467.0,1.532
468.0,1.553
469.0,1.564
470.0,1.516
471.0,1.516
472.0,1.6
473.0,1.581
474.0,1.586
475.0,1.603
476.0,1.558
477.0,1.566
478.0,1.611
479.0,1.603
480.0,1.607
481.0,1.639
482.0,1.649
483.0,1.63
484.0,1.598
485.0,1.524
486.0,1.334
487.0,1.399
488.0,1.537
489.0,1.544
490.0,1.625
491.0,1.599
492.0,1.511
493.0,1.563
494.0,1.58
495.0,1.595
496.0,1.607
497.0,1.633
498.0,1.559
499.0,1.581
500.0,1.537
501.0,1.511
502.0,1.493
503.0,1.556
504.0,1.522
505.0,1.575
506.0,1.628
507.0,1.55
508.0,1.502
509.0,1.545
510.0,1.537
511.0,1.579
512.0,1.598
513.0,1.514
514.0,1.504
515.0,1.491
516.0,1.488
517.0,1.323
518.0,1.393
519.0,1.462
520.0,1.517
521.0,1.533
522.0,1.536
523.0,1.509
524.0,1.565
525.0,1.586
526.0,1.516
527.0,1.431
528.0,1.515
529.0,1.599
530.0,1.577
531.0,1.602
532.0,1.548
533.0,1.504
534.0,1.549
535.0,1.584
536.0,1.599
537.0,1.537
538.0,1.565
539.0,1.553
540.0,1.49
541.0,1.502
542.0,1.551
543.0,1.535
544.0,1.563
545.0,1.559
546.0,1.567
547.0,1.567
548.0,1.549
549.0,1.554
550.0,1.574
551.0,1.556
552.0,1.567
553.0,1.541
554.0,1.578
555.0,1.583
556.0,1.563
557.0,1.516
558.0,1.506
559.0,1.479
560.0,1.499
561.0,1.52
562.0,1.511
563.0,1.553
564.0,1.512
565.0,1.501
566.0,1.48
567.0,1.51
568.0,1.499
569.0,1.467
570.0,1.467
571.0,1.458
572.0,1.496
573.0,1.513
574.0,1.51
575.0,1.483
576.0,1.47
577.0,1.486
578.0,1.464
579.0,1.469
580.0,1.495
581.0,1.502
582.0,1.529
583.0,1.533
584.0,1.546
585.0,1.508
586.0,1.478
587.0,1.512
588.0,1.48
589.0,1.32
590.0,1.38
591.0,1.456
592.0,1.441
593.0,1.46
594.0,1.452
595.0,1.419
596.0,1.469
597.0,1.456
598.0,1.451
599.0,1.452
600.0,1.453
601.0,1.44
602.0,1.431
603.0,1.455
604.0,1.479
605.0,1.471
606.0,1.465
607.0,1.48
608.0,1.463
609.0,1.466
610.0,1.455
611.0,1.463
612.0,1.459
613.0,1.441
614.0,1.421
615.0,1.452
616.0,1.404
617.0,1.401
618.0,1.455
619.0,1.441
620.0,1.451
621.0,1.453
622.0,1.437
623.0,1.416
624.0,1.392
625.0,1.389
626.0,1.41
627.0,1.428
628.0,1.351
629.0,1.401
630.0,1.37
631.0,1.395
632.0,1.378
633.0,1.418
634.0,1.403
635.0,1.424
636.0,1.404
637.0,1.427
638.0,1.44
639.0,1.424
640.0,1.409
641.0,1.408
642.0,1.402
643.0,1.421
644.0,1.416
645.0,1.419
646.0,1.388
647.0,1.377
648.0,1.379
649.0,1.353
650.0,1.354
651.0,1.412
652.0,1.36
653.0,1.394
654.0,1.378
655.0,1.33
656.0,1.177
657.0,1.209
658.0,1.353
659.0,1.362
660.0,1.368
661.0,1.378
662.0,1.382
663.0,1.355
664.0,1.369
665.0,1.37
666.0,1.37
667.0,1.369
668.0,1.369
669.0,1.39
670.0,1.384
671.0,1.384
672.0,1.372
673.0,1.393
674.0,1.388
675.0,1.375
676.0,1.385
677.0,1.371
678.0,1.375
679.0,1.353
680.0,1.364
681.0,1.355
682.0,1.354
683.0,1.351
684.0,1.345
685.0,1.356
686.0,1.349
687.0,0.9703
688.0,1.101
689.0,1.104
690.0,1.147
691.0,1.194
692.0,1.227
693.0,1.218
694.0,1.208
695.0,1.25
696.0,1.252
697.0,1.317
698.0,1.297
699.0,1.274
700.0,1.259
701.0,1.249
702.0,1.255
703.0,1.257
704.0,1.293
705.0,1.295
706.0,1.293
707.0,1.293
708.0,1.296
709.0,1.296
710.0,1.297
711.0,1.295
712.0,1.29
713.0,1.278
714.0,1.283
715.0,1.246
716.0,1.247
717.0,1.109
718.0,1.024
719.0,0.9416
720.0,0.9882
721.0,1.074
722.0,1.21
723.0,1.136
724.0,1.035
725.0,1.023
726.0,1.068
727.0,1.078
728.0,1.022
729.0,1.05
730.0,1.111
731.0,1.066
732.0,1.13
733.0,1.187
734.0,1.212
735.0,1.189
736.0,1.187
737.0,1.193
738.0,1.205
739.0,1.181
740.0,1.21
741.0,1.197
742.0,1.197
743.0,1.227
744.0,1.223
745.0,1.223
746.0,1.229
747.0,1.232
748.0,1.229
749.0,1.216
750.0,1.215
751.0,1.203
752.0,1.208
753.0,1.214
754.0,1.217
755.0,1.21
756.0,1.21
757.0,1.212
758.0,1.197
759.0,1.177
760.0,0.272
761.0,0.1601
762.0,0.6783
763.0,0.3852
764.0,0.5378
765.0,0.6789
766.0,0.7972
767.0,0.9704
768.0,1.092
769.0,1.109
770.0,1.14
771.0,1.146
772.0,1.148
773.0,1.156
774.0,1.15
775.0,1.141
776.0,1.155
777.0,1.14
778.0,1.134
779.0,1.135
780.0,1.128
781.0,1.13
782.0,1.137
783.0,1.117
784.0,1.122
785.0,1.115
786.0,1.127
787.0,1.111
788.0,1.098
789.0,1.098
790.0,1.073
791.0,1.079
792.0,1.07
793.0,1.054
794.0,1.067
795.0,1.087
796.0,1.059
797.0,1.061
798.0,1.086
799.0,1.081
800.0,1.063
801.0,1.061
802.0,1.058
803.0,1.051
804.0,1.052
805.0,1.047
806.0,1.074
807.0,1.062
808.0,1.063
809.0,1.045
810.0,1.038
811.0,1.042
812.0,1.016
813.0,0.9979
814.0,0.8916
815.0,0.8858
816.0,0.8267
817.0,0.8402
818.0,0.8119
819.0,0.8957
820.0,0.8484
821.0,0.9754
822.0,0.9503
823.0,0.6726
824.0,0.9284
825.0,0.9597
826.0,0.9283
827.0,0.9744
828.0,0.8409
829.0,0.9219
830.0,0.9114
831.0,0.9142
832.0,0.8889
833.0,0.9381
834.0,0.9099
835.0,0.9893
836.0,0.9534
837.0,0.9918
838.0,0.9638
839.0,0.9764
840.0,0.9971
841.0,0.9843
842.0,0.9846
843.0,0.9822
844.0,0.9697
845.0,1.001
846.0,0.9965
847.0,0.9774
848.0,0.9723
849.0,0.9447
850.0,0.9051
851.0,0.9593
852.0,0.9522
853.0,0.9159
854.0,0.7915
855.0,0.8688
856.0,0.9499
857.0,0.9706
858.0,0.9637
859.0,0.9643
860.0,0.9659
861.0,0.9607
862.0,0.9758
863.0,0.9989
864.0,0.949
865.0,0.9407
866.0,0.8459
867.0,0.8828
868.0,0.9607
869.0,0.9408
870.0,0.9677
871.0,0.9546
872.0,0.9512
873.0,0.9494
874.0,0.9381
875.0,0.9192
876.0,0.9289
877.0,0.9383
878.0,0.9487
879.0,0.9342
880.0,0.9142
881.0,0.9009
882.0,0.9206
883.0,0.9232
884.0,0.9192
885.0,0.9262
886.0,0.8842
887.0,0.8926
888.0,0.9065
889.0,0.9156
890.0,0.9094
891.0,0.9072
892.0,0.8829
893.0,0.8577
894.0,0.8321
895.0,0.792
896.0,0.7487
897.0,0.651
898.0,0.7059
899.0,0.5466
900.0,0.7182
901.0,0.5725
902.0,0.6594
903.0,0.6699
904.0,0.8263
905.0,0.8005
906.0,0.7512
907.0,0.622
908.0,0.6327
909.0,0.6799
910.0,0.6111
911.0,0.6455
912.0,0.6725
913.0,0.6207
914.0,0.6138
915.0,0.6644
916.0,0.5655
917.0,0.7067
918.0,0.5801
919.0,0.7171
920.0,0.7195
921.0,0.7472
922.0,0.675
923.0,0.7215
924.0,0.6923
925.0,0.6775
926.0,0.685
927.0,0.7601
928.0,0.5768
929.0,0.5316
930.0,0.4259
931.0,0.4023
932.0,0.2979
933.0,0.2466
934.0,0.1446
935.0,0.2487
936.0,0.1612
937.0,0.1641
938.0,0.1995
939.0,0.39
940.0,0.4634
941.0,0.3575
942.0,0.409
943.0,0.2751
944.0,0.2844
945.0,0.3673
946.0,0.1951
947.0,0.371
948.0,0.274
949.0,0.4886
950.0,0.1484
951.0,0.4797
952.0,0.2685
953.0,0.3397
954.0,0.4089
955.0,0.3428
956.0,0.3291
957.0,0.27
958.0,0.4553
959.0,0.3701
960.0,0.4145
961.0,0.4589
962.0,0.4351
963.0,0.496
964.0,0.4563
965.0,0.4936
966.0,0.495
967.0,0.4935
968.0,0.6425
969.0,0.6725
970.0,0.6204
971.0,0.7018
972.0,0.673
973.0,0.5943
974.0,0.5654
975.0,0.5836
976.0,0.5586
977.0,0.6269
978.0,0.5993
979.0,0.625
980.0,0.5894
981.0,0.6976
982.0,0.6701
983.0,0.6452
984.0,0.7156
985.0,0.6676
986.0,0.7262
987.0,0.7142
988.0,0.7129
989.0,0.7228
990.0,0.7085
991.0,0.7253
992.0,0.7293
993.0,0.7152
994.0,0.7289
995.0,0.7277
996.0,0.7248
997.0,0.7258
998.0,0.7225
999.0,0.7198
1000.0,0.7153
1001.0,0.7237
1002.0,0.7058
1003.0,0.711
1004.0,0.6942
1005.0,0.6681
1006.0,0.6946
1007.0,0.7091
1008.0,0.7057
1009.0,0.7023
1010.0,0.6996
1011.0,0.7056
1012.0,0.6999
1013.0,0.7038
1014.0,0.6989
1015.0,0.6944
1016.0,0.6913
1017.0,0.6932
1018.0,0.6904
1019.0,0.6764
1020.0,0.6869
1021.0,0.6858
1022.0,0.6808
1023.0,0.6881
1024.0,0.68
1025.0,0.6874
1026.0,0.6847
1027.0,0.6831
1028.0,0.6818
1029.0,0.6738
1030.0,0.6782
1031.0,0.6756
1032.0,0.6736
1033.0,0.6634
1034.0,0.6635
1035.0,0.6656
1036.0,0.6691
1037.0,0.6582
1038.0,0.6612
1039.0,0.6609
1040.0,0.6583
1041.0,0.661
1042.0,0.6564
1043.0,0.6544
1044.0,0.6567
1045.0,0.6479
1046.0,0.6408
1047.0,0.6466
1048.0,0.6503
1049.0,0.648
1050.0,0.6451
1051.0,0.6443
1052.0,0.6418
1053.0,0.6368
1054.0,0.6383
1055.0,0.6388
1056.0,0.6367
1057.0,0.6348
1058.0,0.6194
1059.0,0.6202
1060.0,0.6193
1061.0,0.6187
1062.0,0.622
1063.0,0.616
1064.0,0.6233
1065.0,0.6191
1066.0,0.6067
1067.0,0.6146
1068.0,0.6014
1069.0,0.5827
1070.0,0.6027
1071.0,0.6114
1072.0,0.6049
1073.0,0.5961
1074.0,0.6107
1075.0,0.5823
1076.0,0.6104
1077.0,0.6007
1078.0,0.5898
1079.0,0.6003
1080.0,0.5915
1081.0,0.5736
1082.0,0.581
1083.0,0.5823
1084.0,0.5728
1085.0,0.5927
1086.0,0.5443
1087.0,0.5593
1088.0,0.5822
1089.0,0.5664
1090.0,0.5554
1091.0,0.5809
1092.0,0.579
1093.0,0.4972
1094.0,0.5305
1095.0,0.5171
1096.0,0.4971
1097.0,0.5655
1098.0,0.49
1099.0,0.5101
1100.0,0.4771
1101.0,0.4822
1102.0,0.4623
1103.0,0.4591
1104.0,0.4595
1105.0,0.4991
1106.0,0.3927
1107.0,0.4762
1108.0,0.4102
1109.0,0.4097
1110.0,0.4729
1111.0,0.3296
1112.0,0.4061
1113.0,0.2677
1114.0,0.2981
1115.0,0.2475
1116.0,0.2032
1117.0,0.08091
1118.0,0.219
1119.0,0.1136
1120.0,0.1432
1121.0,0.1869
1122.0,0.08297
1123.0,0.1292
1124.0,0.1091
1125.0,0.1412
1126.0,0.05344
1127.0,0.1589
1128.0,0.09966
1129.0,0.105
1130.0,0.07111
1131.0,0.2904
1132.0,0.2299
1133.0,0.1515
1134.0,0.0423
1135.0,0.01568
1136.0,0.1285
1137.0,0.287
1138.0,0.2035
1139.0,0.2926
1140.0,0.2487
1141.0,0.1934
1142.0,0.2202
1143.0,0.3081
1144.0,0.1132
1145.0,0.146
1146.0,0.1575
1147.0,0.0599
1148.0,0.2668
1149.0,0.2164
1150.0,0.1214
1151.0,0.2021
1152.0,0.2447
1153.0,0.2356
1154.0,0.1424
1155.0,0.3055
1156.0,0.2772
1157.0,0.3078
1158.0,0.3044
1159.0,0.3255
1160.0,0.2816
1161.0,0.3404
1162.0,0.3426
1163.0,0.4514
1164.0,0.3914
1165.0,0.3731
1166.0,0.3678
1167.0,0.3985
1168.0,0.4037
1169.0,0.4119
1170.0,0.4442
1171.0,0.4337
1172.0,0.4396
1173.0,0.4433
1174.0,0.326
1175.0,0.4316
1176.0,0.4698
1177.0,0.454
1178.0,0.3482
1179.0,0.4735
1180.0,0.4278
1181.0,0.441
1182.0,0.3122
1183.0,0.4331
1184.0,0.4085
1185.0,0.3965
1186.0,0.4623
1187.0,0.4428
1188.0,0.3182
1189.0,0.413
1190.0,0.4518
1191.0,0.4331
1192.0,0.4576
1193.0,0.44
1194.0,0.4525
1195.0,0.4309
1196.0,0.4169
1197.0,0.4512
1198.0,0.415
1199.0,0.3597
1200.0,0.4348
1201.0,0.4216
1202.0,0.4178
1203.0,0.4145
1204.0,0.3662
1205.0,0.4256
1206.0,0.4663
1207.0,0.4174
1208.0,0.4089
1209.0,0.4168
1210.0,0.4326
1211.0,0.4146
1212.0,0.4126
1213.0,0.4525
1214.0,0.4211
1215.0,0.4138
1216.0,0.4509
1217.0,0.4403
1218.0,0.4474
1219.0,0.4425
1220.0,0.4477
1221.0,0.4514
1222.0,0.4405
1223.0,0.4369
1224.0,0.4352
1225.0,0.4486
1226.0,0.4508
1227.0,0.4193
1228.0,0.4524
1229.0,0.4509
1230.0,0.4438
1231.0,0.4543
1232.0,0.4517
1233.0,0.4389
1234.0,0.4533
1235.0,0.4509
1236.0,0.4538
1237.0,0.4486
1238.0,0.4523
1239.0,0.4465
1240.0,0.4481
1241.0,0.4467
1242.0,0.4451
1243.0,0.4415
1244.0,0.4448
1245.0,0.4466
1246.0,0.444
1247.0,0.4424
1248.0,0.4425
1249.0,0.4436
1250.0,0.4411
1251.0,0.4359
1252.0,0.4354
1253.0,0.4329
1254.0,0.4292
1255.0,0.4352
1256.0,0.4248
1257.0,0.4228
1258.0,0.4293
1259.0,0.4165
1260.0,0.4183
1261.0,0.3983
1262.0,0.3882
1263.0,0.389
1264.0,0.3633
1265.0,0.3864
1266.0,0.3743
1267.0,0.3792
1268.0,0.3624
1269.0,0.2437
1270.0,0.3785
1271.0,0.3966
1272.0,0.3975
1273.0,0.3936
1274.0,0.3944
1275.0,0.3995
1276.0,0.4027
1277.0,0.4046
1278.0,0.4109
1279.0,0.4074
1280.0,0.4021
1281.0,0.3831
1282.0,0.3681
1283.0,0.3966
1284.0,0.4063
1285.0,0.4088
1286.0,0.4138
1287.0,0.4085
1288.0,0.4081
1289.0,0.3973
1290.0,0.4044
1291.0,0.4096
1292.0,0.3889
1293.0,0.4027
1294.0,0.4
1295.0,0.3991
1296.0,0.3837
1297.0,0.365
1298.0,0.3887
1299.0,0.4028
1300.0,0.348
1301.0,0.3573
1302.0,0.3874
1303.0,0.3427
1304.0,0.2989
1305.0,0.3799
1306.0,0.3804
1307.0,0.3031
1308.0,0.3422
1309.0,0.378
1310.0,0.2976
1311.0,0.3296
1312.0,0.3217
1313.0,0.3166
1314.0,0.2857
1315.0,0.2835
1316.0,0.3255
1317.0,0.3091
1318.0,0.3332
1319.0,0.2683
1320.0,0.2582
1321.0,0.2981
1322.0,0.3023
1323.0,0.2339
1324.0,0.2631
1325.0,0.3212
1326.0,0.2798
1327.0,0.2679
1328.0,0.2331
1329.0,0.1804
1330.0,0.2321
1331.0,0.1466
1332.0,0.1492
1333.0,0.206
1334.0,0.1717
1335.0,0.233
1336.0,0.1875
1337.0,0.1677
1338.0,0.1813
1339.0,0.1796
1340.0,0.1731
1341.0,0.1728
1342.0,0.1812
1343.0,0.1307
1344.0,0.07798
1345.0,0.1117
1346.0,0.06085
1347.0,0.06279
1348.0,0.005152
1349.0,0.01727
1350.0,0.01708
1351.0,0.005118
1352.0,0.001719
1353.0,0.0001132
1354.0,0.0003329
1355.0,4.474e-06
1356.0,5.65e-05
1357.0,8.537e-05
1358.0,5.192e-06
1359.0,9.529e-07
1360.0,2.717e-06
1361.0,6.836e-09
1362.0,2.693e-11
1363.0,4.05e-06
1364.0,1.741e-06
1365.0,1.452e-11
1366.0,1.599e-05
1367.0,6.231e-06
1368.0,2.647e-13
1369.0,6.68e-07
1370.0,3.857e-07
1371.0,2.693e-08
1372.0,3.438e-06
1373.0,5.333e-05
1374.0,0.0002078
1375.0,0.0003769
1376.0,0.000297
1377.0,0.0001419
1378.0,0.001269
1379.0,6.025e-05
1380.0,9.611e-05
1381.0,2.832e-06
1382.0,3.24e-06
1383.0,5.712e-08
1384.0,8.028e-07
1385.0,2.579e-06
1386.0,3.214e-06
1387.0,0.0002372
1388.0,4.841e-06
1389.0,0.0006679
1390.0,0.0005741
1391.0,0.0004
1392.0,2.798e-05
1393.0,0.0001344
1394.0,9.129e-05
1395.0,8.402e-07
1396.0,8.856e-09
1397.0,5.756e-05
1398.0,0.001448
1399.0,0.0009181
1400.0,4.709e-09
1401.0,1.475e-08
1402.0,0.002032
1403.0,0.002661
1404.0,0.0008268
1405.0,4.689e-07
1406.0,0.002304
1407.0,0.0001967
1408.0,0.001864
1409.0,0.0007126
1410.0,0.0005305
1411.0,0.002323
1412.0,0.002948
1413.0,0.02514
1414.0,0.0004126
1415.0,0.0002111
1416.0,0.03749
1417.0,0.01263
1418.0,0.0145
1419.0,0.002315
1420.0,0.008924
1421.0,0.009717
1422.0,0.04856
1423.0,0.009762
1424.0,0.01799
1425.0,0.02691
1426.0,0.02938
1427.0,0.05135
1428.0,0.004925
1429.0,0.03958
1430.0,0.06455
1431.0,0.07018
1432.0,0.003913
1433.0,0.04565
1434.0,0.02373
1435.0,0.02544
1436.0,0.04638
1437.0,0.03554
1438.0,0.01577
1439.0,0.06187
1440.0,0.04648
1441.0,0.0367
1442.0,0.04046
1443.0,0.04886
1444.0,0.06683
1445.0,0.05385
1446.0,0.02471
1447.0,0.03885
1448.0,0.1204
1449.0,0.1061
1450.0,0.02875
1451.0,0.01193
1452.0,0.06531
1453.0,0.08489
1454.0,0.1406
1455.0,0.0682
1456.0,0.09244
1457.0,0.121
1458.0,0.1398
1459.0,0.1657
1460.0,0.08784
1461.0,0.093
1462.0,0.1339
1463.0,0.04492
1464.0,0.1563
1465.0,0.09468
