interpolation:linear
wavelength,value
280.0,9.768e-23
280.5,2.715e-21
281.0,1.395e-20
281.5,3.781e-19
282.0,2.765e-18
282.5,1.001e-17
283.0,4.146e-17
283.5,7.574e-17
284.0,1.656e-15
284.5,5.299e-15
285.0,1.144e-14
285.5,7.987e-14
286.0,3.603e-13
286.5,1.906e-12
287.0,6.039e-12
287.5,2.557e-11
288.0,1.042e-10
288.5,3.921e-10
289.0,1.242e-09
289.5,4.34e-09
290.0,1.337e-08
290.5,2.959e-08
291.0,6.891e-08
291.5,2.146e-07
292.0,5.202e-07
292.5,7.632e-07
293.0,1.713e-06
293.5,4.366e-06
294.0,7.112e-06
294.5,1.226e-05
295.0,2.1e-05
295.5,4.914e-05
296.0,8.636e-05
296.5,0.00011
297.0,0.0001379
297.5,0.0003289
298.0,0.0004691
298.5,0.0004371
299.0,0.0008939
299.5,0.001294
300.0,0.001323
300.5,0.001775
301.0,0.00283
301.5,0.004026
302.0,0.003263
302.5,0.006047
303.0,0.01013
303.5,0.01221
304.0,0.01113
304.5,0.01522
305.0,0.02039
305.5,0.02166
306.0,0.02043
306.5,0.02431
307.0,0.03242
307.5,0.03898
308.0,0.04069
308.5,0.0459
309.0,0.04057
309.5,0.04428
310.0,0.04359
310.5,0.07006
311.0,0.08642
311.5,0.08302
312.0,0.07925
312.5,0.09357
313.0,0.1001
313.5,0.09943
314.0,0.1196
314.5,0.1004
315.0,0.1311
315.5,0.1135
316.0,0.09482
316.5,0.131
317.0,0.1635
317.5,0.1731
318.0,0.1316
318.5,0.1549
319.0,0.1792
319.5,0.1538
320.0,0.188
320.5,0.2225
321.0,0.1885
321.5,0.1804
322.0,0.2048
322.5,0.1783
323.0,0.1717
323.5,0.1984
324.0,0.2309
324.5,0.2397
325.0,0.2181
325.5,0.2729
326.0,0.322
326.5,0.3163
327.0,0.3192
327.5,0.313
328.0,0.2886
328.5,0.2933
329.0,0.3422
329.5,0.3865
330.0,0.3942
330.5,0.324
331.0,0.3339
331.5,0.3349
332.0,0.3543
332.5,0.3479
333.0,0.3504
333.5,0.3242
334.0,0.3343
334.5,0.3792
335.0,0.3534
335.5,0.4016
336.0,0.2788
336.5,0.3399
337.0,0.2822
337.5,0.3533
338.0,0.3404
338.5,0.3846
339.0,0.3839
339.5,0.3691
340.0,0.4452
340.5,0.4019
341.0,0.3859
341.5,0.3585
342.0,0.4306
342.5,0.4048
343.0,0.4447
343.5,0.4186
344.0,0.3147
344.5,0.3119
345.0,0.4184
345.5,0.4297
346.0,0.367
346.5,0.4172
347.0,0.4478
347.5,0.3626
348.0,0.4162
348.5,0.418
349.0,0.389
349.5,0.386
350.0,0.4789
350.5,0.5065
351.0,0.4531
351.5,0.4394
352.0,0.4747
352.5,0.3722
353.0,0.4704
353.5,0.5046
354.0,0.5256
354.5,0.5345
355.0,0.5339
355.5,0.4836
356.0,0.5073
356.5,0.4343
357.0,0.3599
357.5,0.4418
358.0,0.3511
358.5,0.3008
359.0,0.4218
359.5,0.5385
360.0,0.5724
360.5,0.4588
361.0,0.4192
361.5,0.4836
362.0,0.419
362.5,0.5809
363.0,0.5227
363.5,0.4824
364.0,0.5912
364.5,0.5064
365.0,0.5169
365.5,0.6502
366.0,0.6902
366.5,0.6498
367.0,0.6342
367.5,0.6595
368.0,0.5783
368.5,0.5847
369.0,0.6327
369.5,0.6758
370.0,0.7219
370.5,0.5613
371.0,0.601
371.5,0.7534
372.0,0.5011
372.5,0.602
373.0,0.6135
373.5,0.3999
374.0,0.5822
374.5,0.483
375.0,0.4704
375.5,0.7038
376.0,0.5846
376.5,0.607
377.0,0.6438
377.5,0.7546
378.0,0.8196
378.5,0.7763
379.0,0.6421
379.5,0.5878
380.0,0.6124
380.5,0.743
381.0,0.7458
381.5,0.5922
382.0,0.5268
382.5,0.4498
383.0,0.4171
383.5,0.4024
384.0,0.4446
384.5,0.655
385.0,0.6506
385.5,0.6069
386.0,0.5206
386.5,0.6849
387.0,0.5702
387.5,0.6415
388.0,0.5933
388.5,0.5874
389.0,0.6351
389.5,0.7705
390.0,0.7745
390.5,0.7139
391.0,0.8416
391.5,0.8599
392.0,0.7255
392.5,0.6504
393.0,0.3624
393.5,0.2638
394.0,0.5376
394.5,0.6845
395.0,0.8365
395.5,0.8511
396.0,0.739
396.5,0.4325
397.0,0.3251
397.5,0.6621
398.0,0.9287
398.5,0.9613
399.0,1.042
399.5,1.04
400.0,1.082
401.0,1.114
402.0,1.178
403.0,1.121
404.0,1.107
405.0,1.11
406.0,1.094
407.0,1.079
408.0,1.124
409.0,1.205
410.0,1.055
411.0,1.146
412.0,1.233
413.0,1.205
414.0,1.222
415.0,1.228
416.0,1.252
417.0,1.224
418.0,1.204
419.0,1.222
420.0,1.219
421.0,1.278
422.0,1.217
423.0,1.191
424.0,1.263
425.0,1.262
426.0,1.231
427.0,1.211
428.0,1.181
429.0,1.12
430.0,0.9822
431.0,0.9757
432.0,1.261
433.0,1.271
434.0,1.182
435.0,1.237
436.0,1.395
437.0,1.378
438.0,1.256
439.0,1.302
440.0,1.346
441.0,1.396
442.0,1.5
443.0,1.464
444.0,1.497
445.0,1.468
446.0,1.402
447.0,1.517
448.0,1.544
449.0,1.551
450.0,1.596
451.0,1.658
452.0,1.599
453.0,1.506
454.0,1.573
455.0,1.586
456.0,1.625
457.0,1.655
458.0,1.601
459.0,1.595
460.0,1.602
461.0,1.64
462.0,1.654
463.0,1.645
464.0,1.619
465.0,1.599
466.0,1.616
467.0,1.589
468.0,1.61
469.0,1.621
470.0,1.571
471.0,1.571
472.0,1.657
473.0,1.638
474.0,1.643
475.0,1.66
476.0,1.614
477.0,1.621
478.0,1.668
479.0,1.659
480.0,1.663
481.0,1.695
482.0,1.704
483.0,1.684
484.0,1.651
485.0,1.574
486.0,1.376
487.0,1.443
488.0,1.585
489.0,1.592
490.0,1.676
491.0,1.648
492.0,1.558
493.0,1.61
494.0,1.628
495.0,1.643
496.0,1.655
497.0,1.682
498.0,1.605
499.0,1.627
500.0,1.582
501.0,1.555
502.0,1.536
503.0,1.602
504.0,1.568
505.0,1.621
506.0,1.675
507.0,1.595
508.0,1.545
509.0,1.589
510.0,1.581
511.0,1.623
512.0,1.642
513.0,1.555
514.0,1.545
515.0,1.531
516.0,1.528
517.0,1.359
518.0,1.43
519.0,1.501
520.0,1.557
521.0,1.573
522.0,1.576
523.0,1.549
524.0,1.606
525.0,1.627
526.0,1.556
527.0,1.468
528.0,1.555
529.0,1.641
530.0,1.619
531.0,1.644
532.0,1.589
533.0,1.543
534.0,1.589
535.0,1.625
536.0,1.64
537.0,1.576
538.0,1.604
539.0,1.592
540.0,1.527
541.0,1.54
542.0,1.59
543.0,1.573
544.0,1.602
545.0,1.598
546.0,1.607
547.0,1.606
548.0,1.587
549.0,1.593
550.0,1.612
551.0,1.593
552.0,1.605
553.0,1.578
554.0,1.616
555.0,1.621
556.0,1.601
557.0,1.553
558.0,1.542
559.0,1.515
560.0,1.535
561.0,1.557
562.0,1.547
563.0,1.591
564.0,1.55
565.0,1.538
566.0,1.517
567.0,1.547
568.0,1.537
569.0,1.506
570.0,1.506
571.0,1.496
572.0,1.536
573.0,1.554
574.0,1.55
575.0,1.523
576.0,1.51
577.0,1.526
578.0,1.503
579.0,1.507
580.0,1.532
581.0,1.538
582.0,1.566
583.0,1.568
584.0,1.581
585.0,1.542
586.0,1.511
587.0,1.547
588.0,1.516
589.0,1.357
590.0,1.418
591.0,1.494
592.0,1.48
593.0,1.497
594.0,1.489
595.0,1.457
596.0,1.505
597.0,1.492
598.0,1.485
599.0,1.486
600.0,1.486
601.0,1.472
602.0,1.463
603.0,1.486
604.0,1.511
605.0,1.503
606.0,1.497
607.0,1.511
608.0,1.494
609.0,1.496
610.0,1.485
611.0,1.492
612.0,1.488
613.0,1.469
614.0,1.449
615.0,1.48
616.0,1.431
617.0,1.428
618.0,1.483
619.0,1.468
620.0,1.478
621.0,1.481
622.0,1.465
623.0,1.444
624.0,1.418
625.0,1.416
626.0,1.437
627.0,1.456
628.0,1.387
629.0,1.432
630.0,1.4
631.0,1.423
632.0,1.405
633.0,1.444
634.0,1.427
635.0,1.449
636.0,1.428
637.0,1.451
638.0,1.463
639.0,1.446
640.0,1.431
641.0,1.43
642.0,1.423
643.0,1.442
644.0,1.437
645.0,1.44
646.0,1.41
647.0,1.401
648.0,1.403
649.0,1.377
650.0,1.375
651.0,1.433
652.0,1.384
653.0,1.414
654.0,1.398
655.0,1.351
656.0,1.194
657.0,1.226
658.0,1.372
659.0,1.381
660.0,1.386
661.0,1.396
662.0,1.401
663.0,1.373
664.0,1.387
665.0,1.386
666.0,1.387
667.0,1.385
668.0,1.385
669.0,1.406
670.0,1.4
671.0,1.399
672.0,1.387
673.0,1.408
674.0,1.402
675.0,1.39
676.0,1.399
677.0,1.385
678.0,1.389
679.0,1.366
680.0,1.377
681.0,1.368
682.0,1.367
683.0,1.365
684.0,1.358
685.0,1.37
686.0,1.362
687.0,1.023
688.0,1.141
689.0,1.143
690.0,1.181
691.0,1.222
692.0,1.25
693.0,1.242
694.0,1.232
695.0,1.269
696.0,1.271
697.0,1.331
698.0,1.311
699.0,1.291
700.0,1.276
701.0,1.267
702.0,1.272
703.0,1.274
704.0,1.308
705.0,1.31
706.0,1.307
707.0,1.307
708.0,1.31
709.0,1.308
710.0,1.31
711.0,1.307
712.0,1.302
713.0,1.29
714.0,1.295
715.0,1.259
716.0,1.261
717.0,1.137
718.0,1.054
719.0,0.9706
720.0,1.019
721.0,1.098
722.0,1.226
723.0,1.157
724.0,1.061
725.0,1.05
726.0,1.095
727.0,1.101
728.0,1.05
729.0,1.073
730.0,1.134
731.0,1.091
732.0,1.15
733.0,1.202
734.0,1.226
735.0,1.203
736.0,1.201
737.0,1.207
738.0,1.215
739.0,1.192
740.0,1.22
741.0,1.206
742.0,1.206
743.0,1.236
744.0,1.231
745.0,1.231
746.0,1.237
747.0,1.239
748.0,1.237
749.0,1.223
750.0,1.222
751.0,1.21
752.0,1.215
753.0,1.221
754.0,1.224
755.0,1.218
756.0,1.217
757.0,1.219
758.0,1.204
759.0,1.186
760.0,0.3295
761.0,0.2073
762.0,0.7306
763.0,0.4466
764.0,0.5975
765.0,0.7314
766.0,0.8373
767.0,0.9985
768.0,1.108
769.0,1.121
770.0,1.149
771.0,1.153
772.0,1.154
773.0,1.162
774.0,1.156
775.0,1.147
776.0,1.161
777.0,1.146
778.0,1.139
779.0,1.14
780.0,1.134
781.0,1.135
782.0,1.142
783.0,1.122
784.0,1.128
785.0,1.12
786.0,1.133
787.0,1.118
788.0,1.106
789.0,1.106
790.0,1.084
791.0,1.087
792.0,1.078
793.0,1.062
794.0,1.073
795.0,1.093
796.0,1.068
797.0,1.07
798.0,1.093
799.0,1.088
800.0,1.071
801.0,1.07
802.0,1.067
803.0,1.06
804.0,1.06
805.0,1.055
806.0,1.08
807.0,1.068
808.0,1.069
809.0,1.052
810.0,1.046
811.0,1.051
812.0,1.028
813.0,1.011
814.0,0.9118
815.0,0.9057
816.0,0.8467
817.0,0.8592
818.0,0.8322
819.0,0.9106
820.0,0.8655
821.0,0.985
822.0,0.9614
823.0,0.6976
824.0,0.9425
825.0,0.9697
826.0,0.941
827.0,0.9844
828.0,0.8589
829.0,0.9339
830.0,0.9243
831.0,0.9267
832.0,0.9028
833.0,0.9477
834.0,0.9223
835.0,0.9962
836.0,0.9642
837.0,0.9985
838.0,0.972
839.0,0.9826
840.0,1.003
841.0,0.9909
842.0,0.99
843.0,0.9864
844.0,0.9745
845.0,1.005
846.0,1.0
847.0,0.9808
848.0,0.9762
849.0,0.9485
850.0,0.9086
851.0,0.9636
852.0,0.9562
853.0,0.9193
854.0,0.7948
855.0,0.8719
856.0,0.9535
857.0,0.9739
858.0,0.9672
859.0,0.9675
860.0,0.9689
861.0,0.9638
862.0,0.9788
863.0,1.002
864.0,0.9519
865.0,0.9435
866.0,0.8484
867.0,0.8854
868.0,0.9635
869.0,0.9435
870.0,0.9704
871.0,0.9573
872.0,0.9539
873.0,0.9521
874.0,0.9408
875.0,0.9218
876.0,0.9316
877.0,0.941
878.0,0.9515
879.0,0.9368
880.0,0.9168
881.0,0.9038
882.0,0.9236
883.0,0.9259
884.0,0.922
885.0,0.929
886.0,0.8878
887.0,0.8955
888.0,0.9099
889.0,0.9182
890.0,0.9131
891.0,0.9103
892.0,0.8872
893.0,0.8636
894.0,0.8409
895.0,0.8043
896.0,0.7627
897.0,0.6691
898.0,0.7219
899.0,0.5666
900.0,0.731
901.0,0.5929
902.0,0.6733
903.0,0.687
904.0,0.835
905.0,0.8108
906.0,0.7625
907.0,0.64
908.0,0.65
909.0,0.694
910.0,0.6314
911.0,0.6626
912.0,0.6884
913.0,0.6417
914.0,0.6333
915.0,0.6842
916.0,0.5853
917.0,0.7225
918.0,0.6005
919.0,0.7314
920.0,0.7304
921.0,0.7572
922.0,0.6896
923.0,0.7309
924.0,0.7073
925.0,0.6925
926.0,0.6999
927.0,0.7714
928.0,0.6006
929.0,0.5577
930.0,0.4537
931.0,0.4272
932.0,0.3233
933.0,0.2717
934.0,0.1679
935.0,0.2707
936.0,0.1807
937.0,0.185
938.0,0.2226
939.0,0.4141
940.0,0.4874
941.0,0.3827
942.0,0.4333
943.0,0.2969
944.0,0.3025
945.0,0.3921
946.0,0.2157
947.0,0.3978
948.0,0.2953
949.0,0.5164
950.0,0.1694
951.0,0.5058
952.0,0.2933
953.0,0.3647
954.0,0.4318
955.0,0.3672
956.0,0.3501
957.0,0.296
958.0,0.4735
959.0,0.3925
960.0,0.4392
961.0,0.4807
962.0,0.4566
963.0,0.5156
964.0,0.4761
965.0,0.5123
966.0,0.5151
967.0,0.5139
968.0,0.6527
969.0,0.6839
970.0,0.6335
971.0,0.7094
972.0,0.6816
973.0,0.6093
974.0,0.581
975.0,0.5966
976.0,0.5748
977.0,0.6379
978.0,0.6128
979.0,0.6366
980.0,0.6021
981.0,0.7048
982.0,0.6795
983.0,0.6559
984.0,0.7201
985.0,0.6769
986.0,0.7291
987.0,0.7187
988.0,0.7175
989.0,0.7246
990.0,0.7128
991.0,0.7273
992.0,0.7311
993.0,0.7188
994.0,0.7306
995.0,0.7291
996.0,0.7265
997.0,0.7273
998.0,0.7241
999.0,0.7213
1000.0,0.7172
1001.0,0.7252
1002.0,0.709
1003.0,0.7126
1004.0,0.6962
1005.0,0.6694
1006.0,0.6962
1007.0,0.7106
1008.0,0.7075
1009.0,0.7045
1010.0,0.702
1011.0,0.707
1012.0,0.7017
1013.0,0.7052
1014.0,0.7002
1015.0,0.6958
1016.0,0.6927
1017.0,0.6946
1018.0,0.6916
1019.0,0.6783
1020.0,0.6882
1021.0,0.687
1022.0,0.6823
1023.0,0.6896
1024.0,0.6822
1025.0,0.6887
1026.0,0.6861
1027.0,0.6845
1028.0,0.6832
1029.0,0.6753
1030.0,0.6794
1031.0,0.6769
1032.0,0.6748
1033.0,0.6647
1034.0,0.6647
1035.0,0.6668
1036.0,0.6704
1037.0,0.6595
1038.0,0.6625
1039.0,0.6622
1040.0,0.6596
1041.0,0.6624
1042.0,0.6578
1043.0,0.6558
1044.0,0.6582
1045.0,0.6494
1046.0,0.6423
1047.0,0.6482
1048.0,0.6519
1049.0,0.6497
1050.0,0.6468
1051.0,0.6461
1052.0,0.6436
1053.0,0.6387
1054.0,0.6402
1055.0,0.6408
1056.0,0.6389
1057.0,0.6371
1058.0,0.6216
1059.0,0.6225
1060.0,0.6217
1061.0,0.6211
1062.0,0.6246
1063.0,0.6187
1064.0,0.6259
1065.0,0.622
1066.0,0.6093
1067.0,0.6173
1068.0,0.6042
1069.0,0.5853
1070.0,0.6056
1071.0,0.6137
1072.0,0.6076
1073.0,0.5987
1074.0,0.6127
1075.0,0.5861
1076.0,0.6125
1077.0,0.6039
1078.0,0.5933
1079.0,0.6021
1080.0,0.5947
1081.0,0.5775
1082.0,0.5833
1083.0,0.5843
1084.0,0.5773
1085.0,0.5956
1086.0,0.5502
1087.0,0.5629
1088.0,0.5845
1089.0,0.5704
1090.0,0.5607
1091.0,0.5837
1092.0,0.5814
1093.0,0.505
1094.0,0.5334
1095.0,0.5242
1096.0,0.5056
1097.0,0.5678
1098.0,0.4989
1099.0,0.5185
1100.0,0.4877
1101.0,0.4921
1102.0,0.4732
1103.0,0.4711
1104.0,0.4714
1105.0,0.5079
1106.0,0.4095
1107.0,0.4865
1108.0,0.4251
1109.0,0.4234
1110.0,0.4838
1111.0,0.3455
1112.0,0.4192
1113.0,0.2852
1114.0,0.3164
1115.0,0.2629
1116.0,0.2215
1117.0,0.09491
1118.0,0.2364
1119.0,0.1278
1120.0,0.1609
1121.0,0.2068
1122.0,0.09627
1123.0,0.1451
1124.0,0.1226
1125.0,0.1575
1126.0,0.06414
1127.0,0.1768
1128.0,0.1157
1129.0,0.1211
1130.0,0.08447
1131.0,0.3122
1132.0,0.2493
1133.0,0.1702
1134.0,0.05162
1135.0,0.01901
1136.0,0.1463
1137.0,0.31
1138.0,0.2214
1139.0,0.3079
1140.0,0.2658
1141.0,0.2104
1142.0,0.2372
1143.0,0.3275
1144.0,0.1262
1145.0,0.1637
1146.0,0.1767
1147.0,0.07209
1148.0,0.2837
1149.0,0.2336
1150.0,0.1354
1151.0,0.2199
1152.0,0.2625
1153.0,0.2497
1154.0,0.1611
1155.0,0.3216
1156.0,0.2939
1157.0,0.3237
1158.0,0.3198
1159.0,0.3392
1160.0,0.2971
1161.0,0.3531
1162.0,0.3557
1163.0,0.459
1164.0,0.4017
1165.0,0.3861
1166.0,0.3786
1167.0,0.4083
1168.0,0.4143
1169.0,0.4213
1170.0,0.4518
1171.0,0.4416
1172.0,0.4461
1173.0,0.4508
1174.0,0.3394
1175.0,0.4379
1176.0,0.4732
1177.0,0.4595
1178.0,0.3584
1179.0,0.4767
1180.0,0.4347
1181.0,0.4475
1182.0,0.3233
1183.0,0.4386
1184.0,0.4159
1185.0,0.4054
1186.0,0.4668
1187.0,0.4489
1188.0,0.3299
1189.0,0.4192
1190.0,0.4562
1191.0,0.4403
1192.0,0.4618
1193.0,0.4451
1194.0,0.457
1195.0,0.4372
1196.0,0.4243
1197.0,0.4544
1198.0,0.4199
1199.0,0.3687
1200.0,0.44
1201.0,0.4283
1202.0,0.4236
1203.0,0.4201
1204.0,0.3741
1205.0,0.43
1206.0,0.4685
1207.0,0.4236
1208.0,0.4135
1209.0,0.4211
1210.0,0.4361
1211.0,0.4198
1212.0,0.4195
1213.0,0.4555
1214.0,0.4272
1215.0,0.4203
1216.0,0.4538
1217.0,0.4441
1218.0,0.4504
1219.0,0.4459
1220.0,0.4506
1221.0,0.4538
1222.0,0.4434
1223.0,0.4402
1224.0,0.439
1225.0,0.451
1226.0,0.4527
1227.0,0.4233
1228.0,0.4538
1229.0,0.4527
1230.0,0.4461
1231.0,0.4552
1232.0,0.4526
1233.0,0.4416
1234.0,0.4539
1235.0,0.4517
1236.0,0.4544
1237.0,0.4499
1238.0,0.4529
1239.0,0.4471
1240.0,0.4486
1241.0,0.4476
1242.0,0.4457
1243.0,0.442
1244.0,0.4455
1245.0,0.4472
1246.0,0.4445
1247.0,0.4431
1248.0,0.4434
1249.0,0.4443
1250.0,0.4419
1251.0,0.4369
1252.0,0.4361
1253.0,0.4342
1254.0,0.431
1255.0,0.4361
1256.0,0.4267
1257.0,0.425
1258.0,0.4306
1259.0,0.4195
1260.0,0.4211
1261.0,0.4032
1262.0,0.3941
1263.0,0.395
1264.0,0.3717
1265.0,0.3923
1266.0,0.3817
1267.0,0.3855
1268.0,0.3702
1269.0,0.262
1270.0,0.3853
1271.0,0.4012
1272.0,0.4018
1273.0,0.3982
1274.0,0.3986
1275.0,0.4033
1276.0,0.4061
1277.0,0.4076
1278.0,0.4131
1279.0,0.4096
1280.0,0.4042
1281.0,0.3847
1282.0,0.3689
1283.0,0.3977
1284.0,0.4076
1285.0,0.41
1286.0,0.4146
1287.0,0.41
1288.0,0.4094
1289.0,0.3999
1290.0,0.4055
1291.0,0.4106
1292.0,0.3923
1293.0,0.4043
1294.0,0.4018
1295.0,0.4014
1296.0,0.3876
1297.0,0.3702
1298.0,0.3915
1299.0,0.4041
1300.0,0.3541
1301.0,0.3625
1302.0,0.39
1303.0,0.3482
1304.0,0.3083
1305.0,0.383
1306.0,0.3836
1307.0,0.3111
1308.0,0.3469
1309.0,0.3816
1310.0,0.3057
1311.0,0.3352
1312.0,0.3279
1313.0,0.3234
1314.0,0.2936
1315.0,0.2923
1316.0,0.3317
1317.0,0.3156
1318.0,0.3383
1319.0,0.2781
1320.0,0.2665
1321.0,0.3057
1322.0,0.3107
1323.0,0.2452
1324.0,0.2727
1325.0,0.3276
1326.0,0.2885
1327.0,0.277
1328.0,0.2425
1329.0,0.1919
1330.0,0.2447
1331.0,0.16
1332.0,0.1609
1333.0,0.2206
1334.0,0.1821
1335.0,0.2441
1336.0,0.1991
1337.0,0.1799
1338.0,0.194
1339.0,0.1916
1340.0,0.1834
1341.0,0.1859
1342.0,0.1948
1343.0,0.1473
1344.0,0.08799
1345.0,0.1248
1346.0,0.07292
1347.0,0.07595
1348.0,0.0075
1349.0,0.02369
1350.0,0.02249
1351.0,0.007915
1352.0,0.003085
1353.0,0.0002494
1354.0,0.0006524
1355.0,1.284e-05
1356.0,0.000127
1357.0,0.0001901
1358.0,1.468e-05
1359.0,3.511e-06
1360.0,8.447e-06
1361.0,3.861e-08
1362.0,2.041e-10
1363.0,1.31e-05
1364.0,5.934e-06
1365.0,1.472e-10
1366.0,4.796e-05
1367.0,1.85e-05
1368.0,4.904e-12
1369.0,2.339e-06
1370.0,1.506e-06
1371.0,1.238e-07
1372.0,1.028e-05
1373.0,0.0001302
1374.0,0.0004448
1375.0,0.0007922
1376.0,0.000579
1377.0,0.0002865
1378.0,0.00235
1379.0,0.0001234
1380.0,0.0002099
1381.0,6.905e-06
1382.0,9.982e-06
1383.0,2.033e-07
1384.0,2.919e-06
1385.0,7.09e-06
1386.0,1.062e-05
1387.0,0.0005343
1388.0,1.167e-05
1389.0,0.001326
1390.0,0.001132
1391.0,0.0008219
1392.0,6.194e-05
1393.0,0.0002742
1394.0,0.0002239
1395.0,2.507e-06
1396.0,4.645e-08
1397.0,0.0001243
1398.0,0.002694
1399.0,0.001718
1400.0,2.85e-08
1401.0,7.31e-08
1402.0,0.00325
1403.0,0.004363
1404.0,0.001376
1405.0,1.542e-06
1406.0,0.003984
1407.0,0.0003419
1408.0,0.00321
1409.0,0.001347
1410.0,0.0009681
1411.0,0.003794
1412.0,0.004604
1413.0,0.03345
1414.0,0.000747
1415.0,0.0004019
1416.0,0.04633
1417.0,0.01731
1418.0,0.01974
1419.0,0.00325
1420.0,0.01224
1421.0,0.01357
1422.0,0.05937
1423.0,0.01247
1424.0,0.02258
1425.0,0.03415
1426.0,0.03603
1427.0,0.05974
1428.0,0.00725
1429.0,0.04743
1430.0,0.07413
1431.0,0.07974
1432.0,0.005815
1433.0,0.05319
1434.0,0.02832
1435.0,0.03254
1436.0,0.05591
1437.0,0.04297
1438.0,0.0201
1439.0,0.07295
1440.0,0.05513
1441.0,0.04518
1442.0,0.04926
1443.0,0.05707
1444.0,0.0772
1445.0,0.06413
1446.0,0.03003
1447.0,0.04733
1448.0,0.1324
1449.0,0.1187
1450.0,0.03502
1451.0,0.01511
1452.0,0.07503
1453.0,0.09621
1454.0,0.1523
1455.0,0.07665
1456.0,0.105
1457.0,0.1331
1458.0,0.1496
1459.0,0.178
1460.0,0.09675
1461.0,0.1041
1462.0,0.1464
1463.0,0.05179
1464.0,0.1675
1465.0,0.1021
1466.0,0.07854
1467.0,0.04509
1468.0,0.09046
