interpolation:linear
wavelength,value
280.0,5.789e-19
280.5,9.264e-18
281.0,3.888e-17
281.5,6.178e-16
282.0,3.265e-15
282.5,9.503e-15
283.0,3.093e-14
283.5,5.012e-14
284.0,6.277e-13
284.5,1.558e-12
285.0,2.556e-12
285.5,1.291e-11
286.0,5.108e-11
286.5,2.065e-10
287.0,5.365e-10
287.5,1.751e-09
288.0,5.141e-09
288.5,1.625e-08
289.0,4.301e-08
289.5,1.233e-07
290.0,3.233e-07
290.5,6.25e-07
291.0,1.237e-06
291.5,3.13e-06
292.0,6.409e-06
292.5,8.551e-06
293.0,1.699e-05
293.5,3.668e-05
294.0,5.341e-05
294.5,8.459e-05
295.0,0.0001303
295.5,0.0002672
296.0,0.0004291
296.5,0.0005019
297.0,0.000588
297.5,0.001275
298.0,0.001685
298.5,0.001483
299.0,0.002875
299.5,0.003822
300.0,0.003738
300.5,0.004802
301.0,0.007188
301.5,0.009718
302.0,0.007685
302.5,0.01363
303.0,0.02163
303.5,0.0253
304.0,0.02272
304.5,0.02997
305.0,0.03834
305.5,0.03961
306.0,0.03695
306.5,0.0432
307.0,0.05563
307.5,0.06483
308.0,0.06725
308.5,0.0747
309.0,0.06523
309.5,0.06895
310.0,0.06685
310.5,0.1066
311.0,0.1299
311.5,0.124
312.0,0.1157
312.5,0.1345
313.0,0.1427
313.5,0.1424
314.0,0.1684
314.5,0.1384
315.0,0.1799
315.5,0.1569
316.0,0.1289
316.5,0.1756
317.0,0.219
317.5,0.2322
318.0,0.1749
318.5,0.2025
319.0,0.2323
319.5,0.2014
320.0,0.2462
320.5,0.287
321.0,0.2399
321.5,0.2291
322.0,0.2629
322.5,0.2285
323.0,0.2178
323.5,0.2481
324.0,0.2878
324.5,0.2998
325.0,0.2749
325.5,0.3414
326.0,0.399
326.5,0.3893
327.0,0.3931
327.5,0.3859
328.0,0.3582
328.5,0.3602
329.0,0.4173
329.5,0.47
330.0,0.4794
330.5,0.3953
331.0,0.4076
331.5,0.4068
332.0,0.4279
332.5,0.419
333.0,0.422
333.5,0.3912
334.0,0.4032
334.5,0.4551
335.0,0.4229
335.5,0.4797
336.0,0.3326
336.5,0.4058
337.0,0.337
337.5,0.4216
338.0,0.4047
338.5,0.4564
339.0,0.4549
339.5,0.4369
340.0,0.5272
340.5,0.4754
341.0,0.4555
341.5,0.4224
342.0,0.5068
342.5,0.4759
343.0,0.5225
343.5,0.4916
344.0,0.3697
344.5,0.3657
345.0,0.4896
345.5,0.5023
346.0,0.4285
346.5,0.4866
347.0,0.5219
347.5,0.4223
348.0,0.4841
348.5,0.4858
349.0,0.4517
349.5,0.4478
350.0,0.5549
350.5,0.5864
351.0,0.5242
351.5,0.5082
352.0,0.5483
352.5,0.4295
353.0,0.5423
353.5,0.5813
354.0,0.6049
354.5,0.6148
355.0,0.6136
355.5,0.5553
356.0,0.582
356.5,0.498
357.0,0.4124
357.5,0.5059
358.0,0.4017
358.5,0.344
359.0,0.482
359.5,0.6151
360.0,0.6533
360.5,0.5232
361.0,0.4777
361.5,0.5505
362.0,0.4765
362.5,0.66
363.0,0.5934
363.5,0.5471
364.0,0.67
364.5,0.5735
365.0,0.585
365.5,0.7353
366.0,0.7799
366.5,0.7337
367.0,0.7156
367.5,0.7437
368.0,0.6517
368.5,0.6584
369.0,0.712
369.5,0.76
370.0,0.8113
370.5,0.6304
371.0,0.6745
371.5,0.8452
372.0,0.5618
372.5,0.6745
373.0,0.6868
373.5,0.4474
374.0,0.651
374.5,0.5397
375.0,0.5254
375.5,0.7856
376.0,0.6522
376.5,0.6769
377.0,0.7175
377.5,0.8404
378.0,0.9124
378.5,0.8638
379.0,0.7141
379.5,0.6535
380.0,0.6805
380.5,0.8251
381.0,0.8276
381.5,0.6567
382.0,0.5837
382.5,0.498
383.0,0.4616
383.5,0.445
384.0,0.4915
384.5,0.7237
385.0,0.7185
385.5,0.6698
386.0,0.5742
386.5,0.755
387.0,0.6282
387.5,0.7065
388.0,0.6531
388.5,0.6462
389.0,0.6984
389.5,0.8468
390.0,0.8507
390.5,0.7838
391.0,0.9236
391.5,0.9432
392.0,0.7954
392.5,0.7127
393.0,0.3969
393.5,0.2888
394.0,0.5882
394.5,0.7486
395.0,0.9144
395.5,0.93
396.0,0.8072
396.5,0.4722
397.0,0.3547
397.5,0.7221
398.0,1.013
398.5,1.048
399.0,1.135
399.5,1.132
400.0,1.177
401.0,1.211
402.0,1.279
403.0,1.217
404.0,1.201
405.0,1.202
406.0,1.184
407.0,1.167
408.0,1.215
409.0,1.302
410.0,1.139
411.0,1.236
412.0,1.328
413.0,1.298
414.0,1.315
415.0,1.32
416.0,1.345
417.0,1.314
418.0,1.292
419.0,1.31
420.0,1.306
421.0,1.368
422.0,1.303
423.0,1.274
424.0,1.35
425.0,1.349
426.0,1.314
427.0,1.291
428.0,1.26
429.0,1.194
430.0,1.046
431.0,1.039
432.0,1.342
433.0,1.351
434.0,1.256
435.0,1.314
436.0,1.481
437.0,1.461
438.0,1.331
439.0,1.38
440.0,1.425
441.0,1.478
442.0,1.586
443.0,1.548
444.0,1.583
445.0,1.551
446.0,1.48
447.0,1.601
448.0,1.629
449.0,1.635
450.0,1.682
451.0,1.746
452.0,1.684
453.0,1.585
454.0,1.655
455.0,1.667
456.0,1.708
457.0,1.738
458.0,1.682
459.0,1.674
460.0,1.681
461.0,1.721
462.0,1.735
463.0,1.725
464.0,1.696
465.0,1.675
466.0,1.691
467.0,1.663
468.0,1.684
469.0,1.695
470.0,1.643
471.0,1.642
472.0,1.732
473.0,1.711
474.0,1.717
475.0,1.735
476.0,1.687
477.0,1.694
478.0,1.742
479.0,1.732
480.0,1.735
481.0,1.767
482.0,1.776
483.0,1.754
484.0,1.719
485.0,1.638
486.0,1.432
487.0,1.501
488.0,1.648
489.0,1.655
490.0,1.742
491.0,1.712
492.0,1.618
493.0,1.672
494.0,1.69
495.0,1.705
496.0,1.717
497.0,1.745
498.0,1.664
499.0,1.687
500.0,1.64
501.0,1.613
502.0,1.593
503.0,1.662
504.0,1.629
505.0,1.682
506.0,1.738
507.0,1.654
508.0,1.601
509.0,1.646
510.0,1.637
511.0,1.68
512.0,1.699
513.0,1.608
514.0,1.598
515.0,1.583
516.0,1.58
517.0,1.404
518.0,1.478
519.0,1.551
520.0,1.609
521.0,1.625
522.0,1.628
523.0,1.6
524.0,1.659
525.0,1.681
526.0,1.608
527.0,1.517
528.0,1.607
529.0,1.695
530.0,1.672
531.0,1.699
532.0,1.641
533.0,1.594
534.0,1.641
535.0,1.677
536.0,1.693
537.0,1.626
538.0,1.655
539.0,1.642
540.0,1.576
541.0,1.589
542.0,1.641
543.0,1.622
544.0,1.653
545.0,1.648
546.0,1.658
547.0,1.656
548.0,1.637
549.0,1.642
550.0,1.662
551.0,1.642
552.0,1.654
553.0,1.626
554.0,1.666
555.0,1.67
556.0,1.649
557.0,1.6
558.0,1.589
559.0,1.561
560.0,1.582
561.0,1.604
562.0,1.595
563.0,1.641
564.0,1.598
565.0,1.586
566.0,1.564
567.0,1.596
568.0,1.586
569.0,1.557
570.0,1.556
571.0,1.545
572.0,1.588
573.0,1.606
574.0,1.602
575.0,1.575
576.0,1.561
577.0,1.578
578.0,1.553
579.0,1.556
580.0,1.581
581.0,1.586
582.0,1.613
583.0,1.614
584.0,1.627
585.0,1.587
586.0,1.555
587.0,1.591
588.0,1.563
589.0,1.404
590.0,1.467
591.0,1.542
592.0,1.529
593.0,1.544
594.0,1.538
595.0,1.506
596.0,1.551
597.0,1.538
598.0,1.53
599.0,1.53
600.0,1.529
601.0,1.514
602.0,1.503
603.0,1.527
604.0,1.553
605.0,1.544
606.0,1.537
607.0,1.551
608.0,1.533
609.0,1.535
610.0,1.523
611.0,1.53
612.0,1.525
613.0,1.506
614.0,1.484
615.0,1.516
616.0,1.465
617.0,1.462
618.0,1.518
619.0,1.503
620.0,1.513
621.0,1.516
622.0,1.5
623.0,1.479
624.0,1.453
625.0,1.45
626.0,1.472
627.0,1.492
628.0,1.433
629.0,1.471
630.0,1.439
631.0,1.458
632.0,1.439
633.0,1.477
634.0,1.459
635.0,1.48
636.0,1.458
637.0,1.481
638.0,1.493
639.0,1.475
640.0,1.459
641.0,1.457
642.0,1.449
643.0,1.469
644.0,1.463
645.0,1.467
646.0,1.438
647.0,1.431
648.0,1.435
649.0,1.408
650.0,1.401
651.0,1.459
652.0,1.415
653.0,1.44
654.0,1.423
655.0,1.378
656.0,1.216
657.0,1.249
658.0,1.395
659.0,1.404
660.0,1.409
661.0,1.419
662.0,1.425
663.0,1.396
664.0,1.409
665.0,1.407
666.0,1.407
667.0,1.405
668.0,1.404
669.0,1.425
670.0,1.419
671.0,1.418
672.0,1.406
673.0,1.426
674.0,1.421
675.0,1.408
676.0,1.417
677.0,1.403
678.0,1.406
679.0,1.384
680.0,1.395
681.0,1.385
682.0,1.384
683.0,1.381
684.0,1.375
685.0,1.386
686.0,1.379
687.0,1.093
688.0,1.193
689.0,1.194
690.0,1.224
691.0,1.257
692.0,1.279
693.0,1.272
694.0,1.263
695.0,1.294
696.0,1.297
697.0,1.348
698.0,1.328
699.0,1.314
700.0,1.299
701.0,1.291
702.0,1.294
703.0,1.297
704.0,1.328
705.0,1.33
706.0,1.325
707.0,1.324
708.0,1.328
709.0,1.324
710.0,1.327
711.0,1.323
712.0,1.316
713.0,1.306
714.0,1.31
715.0,1.276
716.0,1.278
717.0,1.175
718.0,1.094
719.0,1.011
720.0,1.062
721.0,1.13
722.0,1.246
723.0,1.185
724.0,1.096
725.0,1.087
726.0,1.131
727.0,1.134
728.0,1.087
729.0,1.104
730.0,1.165
731.0,1.124
732.0,1.177
733.0,1.221
734.0,1.244
735.0,1.222
736.0,1.22
737.0,1.226
738.0,1.229
739.0,1.206
740.0,1.233
741.0,1.218
742.0,1.216
743.0,1.246
744.0,1.241
745.0,1.24
746.0,1.246
747.0,1.249
748.0,1.246
749.0,1.232
750.0,1.231
751.0,1.219
752.0,1.224
753.0,1.23
754.0,1.233
755.0,1.226
756.0,1.226
757.0,1.228
758.0,1.213
759.0,1.197
760.0,0.4194
761.0,0.2867
762.0,0.8021
763.0,0.5377
764.0,0.6818
765.0,0.8031
766.0,0.8904
767.0,1.035
768.0,1.128
769.0,1.137
770.0,1.159
771.0,1.162
772.0,1.162
773.0,1.17
774.0,1.164
775.0,1.155
776.0,1.169
777.0,1.153
778.0,1.147
779.0,1.148
780.0,1.141
781.0,1.142
782.0,1.149
783.0,1.129
784.0,1.135
785.0,1.127
786.0,1.14
787.0,1.127
788.0,1.116
789.0,1.117
790.0,1.097
791.0,1.097
792.0,1.088
793.0,1.072
794.0,1.079
795.0,1.1
796.0,1.08
797.0,1.082
798.0,1.101
799.0,1.097
800.0,1.081
801.0,1.08
802.0,1.077
803.0,1.071
804.0,1.071
805.0,1.064
806.0,1.087
807.0,1.076
808.0,1.076
809.0,1.061
810.0,1.056
811.0,1.063
812.0,1.043
813.0,1.028
814.0,0.9392
815.0,0.9327
816.0,0.8747
817.0,0.8856
818.0,0.8603
819.0,0.9305
820.0,0.889
821.0,0.9974
822.0,0.9761
823.0,0.7334
824.0,0.9613
825.0,0.9832
826.0,0.9582
827.0,0.9978
828.0,0.8835
829.0,0.9501
830.0,0.9419
831.0,0.9435
832.0,0.9217
833.0,0.9602
834.0,0.9387
835.0,1.005
836.0,0.9781
837.0,1.007
838.0,0.9823
839.0,0.9905
840.0,1.01
841.0,0.9992
842.0,0.9969
843.0,0.9918
844.0,0.9806
845.0,1.01
846.0,1.005
847.0,0.9851
848.0,0.9811
849.0,0.9533
850.0,0.9131
851.0,0.969
852.0,0.9613
853.0,0.9236
854.0,0.799
855.0,0.8758
856.0,0.958
857.0,0.9781
858.0,0.9715
859.0,0.9715
860.0,0.9727
861.0,0.9677
862.0,0.9826
863.0,1.006
864.0,0.9555
865.0,0.9471
866.0,0.8516
867.0,0.8887
868.0,0.9671
869.0,0.947
870.0,0.974
871.0,0.9608
872.0,0.9573
873.0,0.9555
874.0,0.9441
875.0,0.9251
876.0,0.9349
877.0,0.9443
878.0,0.9549
879.0,0.9402
880.0,0.9201
881.0,0.9073
882.0,0.9273
883.0,0.9294
884.0,0.9255
885.0,0.9326
886.0,0.8923
887.0,0.8992
888.0,0.9144
889.0,0.9215
890.0,0.9177
891.0,0.9142
892.0,0.8925
893.0,0.8713
894.0,0.8524
895.0,0.8206
896.0,0.7819
897.0,0.6945
898.0,0.744
899.0,0.5955
900.0,0.7487
901.0,0.6217
902.0,0.6924
903.0,0.7106
904.0,0.8464
905.0,0.8246
906.0,0.7779
907.0,0.6651
908.0,0.6743
909.0,0.7135
910.0,0.6599
911.0,0.6869
912.0,0.7102
913.0,0.671
914.0,0.6607
915.0,0.7109
916.0,0.6137
917.0,0.7436
918.0,0.6293
919.0,0.7508
920.0,0.7456
921.0,0.7703
922.0,0.7094
923.0,0.7435
924.0,0.7272
925.0,0.7127
926.0,0.7196
927.0,0.7858
928.0,0.6336
929.0,0.594
930.0,0.4938
931.0,0.4628
932.0,0.3602
933.0,0.3092
934.0,0.2043
935.0,0.3028
936.0,0.2106
937.0,0.2174
938.0,0.258
939.0,0.4486
940.0,0.5211
941.0,0.4191
942.0,0.4675
943.0,0.3286
944.0,0.3289
945.0,0.4281
946.0,0.2468
947.0,0.4368
948.0,0.3271
949.0,0.5552
950.0,0.2028
951.0,0.5421
952.0,0.3306
953.0,0.4013
954.0,0.4644
955.0,0.4025
956.0,0.3822
957.0,0.3352
958.0,0.4994
959.0,0.4252
960.0,0.4747
961.0,0.5117
962.0,0.4878
963.0,0.5433
964.0,0.5047
965.0,0.5385
966.0,0.5436
967.0,0.5427
968.0,0.6668
969.0,0.6989
970.0,0.6516
971.0,0.7194
972.0,0.6933
973.0,0.6299
974.0,0.6027
975.0,0.6147
976.0,0.5971
977.0,0.653
978.0,0.6314
979.0,0.6523
980.0,0.6198
981.0,0.7141
982.0,0.692
983.0,0.6703
984.0,0.7258
985.0,0.6891
986.0,0.7327
987.0,0.7243
988.0,0.7232
989.0,0.727
990.0,0.7181
991.0,0.7299
992.0,0.7335
993.0,0.7231
994.0,0.7327
995.0,0.7309
996.0,0.7286
997.0,0.7292
998.0,0.7262
999.0,0.7233
1000.0,0.7197
1001.0,0.727
1002.0,0.7131
1003.0,0.7146
1004.0,0.6987
1005.0,0.671
1006.0,0.6983
1007.0,0.7125
1008.0,0.7098
1009.0,0.7073
1010.0,0.7049
1011.0,0.7089
1012.0,0.7039
1013.0,0.7068
1014.0,0.7019
1015.0,0.6975
1016.0,0.6945
1017.0,0.6965
1018.0,0.6932
1019.0,0.6807
1020.0,0.6899
1021.0,0.6886
1022.0,0.6841
1023.0,0.6915
1024.0,0.6849
1025.0,0.6903
1026.0,0.6879
1027.0,0.6862
1028.0,0.685
1029.0,0.6772
1030.0,0.681
1031.0,0.6786
1032.0,0.6764
1033.0,0.6663
1034.0,0.6662
1035.0,0.6683
1036.0,0.6721
1037.0,0.6611
1038.0,0.6641
1039.0,0.6639
1040.0,0.6612
1041.0,0.6641
1042.0,0.6595
1043.0,0.6576
1044.0,0.66
1045.0,0.6512
1046.0,0.6442
1047.0,0.6501
1048.0,0.6539
1049.0,0.6517
1050.0,0.649
1051.0,0.6483
1052.0,0.6459
1053.0,0.641
1054.0,0.6427
1055.0,0.6434
1056.0,0.6416
1057.0,0.6399
1058.0,0.6245
1059.0,0.6255
1060.0,0.6248
1061.0,0.6243
1062.0,0.6279
1063.0,0.622
1064.0,0.6293
1065.0,0.6256
1066.0,0.6126
1067.0,0.6208
1068.0,0.6078
1069.0,0.5886
1070.0,0.6093
1071.0,0.6166
1072.0,0.6112
1073.0,0.602
1074.0,0.6153
1075.0,0.5909
1076.0,0.6152
1077.0,0.6079
1078.0,0.5977
1079.0,0.6043
1080.0,0.5988
1081.0,0.5824
1082.0,0.5863
1083.0,0.5868
1084.0,0.5831
1085.0,0.5994
1086.0,0.5582
1087.0,0.5675
1088.0,0.5875
1089.0,0.5756
1090.0,0.5678
1091.0,0.5874
1092.0,0.5844
1093.0,0.5155
1094.0,0.5371
1095.0,0.5335
1096.0,0.517
1097.0,0.5706
1098.0,0.5107
1099.0,0.5295
1100.0,0.502
1101.0,0.5054
1102.0,0.488
1103.0,0.4874
1104.0,0.4875
1105.0,0.5195
1106.0,0.4327
1107.0,0.5003
1108.0,0.4457
1109.0,0.4425
1110.0,0.4983
1111.0,0.3682
1112.0,0.4374
1113.0,0.3109
1114.0,0.3426
1115.0,0.2852
1116.0,0.2488
1117.0,0.1174
1118.0,0.2616
1119.0,0.1496
1120.0,0.1876
1121.0,0.2358
1122.0,0.1167
1123.0,0.1691
1124.0,0.143
1125.0,0.1819
1126.0,0.08121
1127.0,0.2035
1128.0,0.1407
1129.0,0.1457
1130.0,0.1062
1131.0,0.3427
1132.0,0.2772
1133.0,0.198
1134.0,0.06717
1135.0,0.02473
1136.0,0.1732
1137.0,0.3419
1138.0,0.2473
1139.0,0.3291
1140.0,0.2902
1141.0,0.2351
1142.0,0.2614
1143.0,0.3546
1144.0,0.1461
1145.0,0.1901
1146.0,0.2052
1147.0,0.0916
1148.0,0.3073
1149.0,0.2583
1150.0,0.1572
1151.0,0.2458
1152.0,0.2875
1153.0,0.2695
1154.0,0.1897
1155.0,0.3439
1156.0,0.3171
1157.0,0.346
1158.0,0.3414
1159.0,0.358
1160.0,0.3194
1161.0,0.3708
1162.0,0.3741
1163.0,0.469
1164.0,0.4159
1165.0,0.404
1166.0,0.3938
1167.0,0.4219
1168.0,0.4287
1169.0,0.434
1170.0,0.4617
1171.0,0.4522
1172.0,0.455
1173.0,0.4607
1174.0,0.3585
1175.0,0.4464
1176.0,0.4778
1177.0,0.4668
1178.0,0.3731
1179.0,0.481
1180.0,0.4441
1181.0,0.4563
1182.0,0.3392
1183.0,0.446
1184.0,0.426
1185.0,0.4176
1186.0,0.4727
1187.0,0.457
1188.0,0.3462
1189.0,0.4276
1190.0,0.4622
1191.0,0.4497
1192.0,0.4673
1193.0,0.452
1194.0,0.463
1195.0,0.4455
1196.0,0.4343
1197.0,0.4586
1198.0,0.4265
1199.0,0.3811
1200.0,0.447
1201.0,0.4372
1202.0,0.4316
1203.0,0.4275
1204.0,0.3852
1205.0,0.4362
1206.0,0.4712
1207.0,0.4319
1208.0,0.4198
1209.0,0.4271
1210.0,0.4407
1211.0,0.4269
1212.0,0.4287
1213.0,0.4593
1214.0,0.4352
1215.0,0.4289
1216.0,0.4576
1217.0,0.4491
1218.0,0.4543
1219.0,0.4502
1220.0,0.4543
1221.0,0.4569
1222.0,0.4473
1223.0,0.4445
1224.0,0.444
1225.0,0.454
1226.0,0.455
1227.0,0.4286
1228.0,0.4556
1229.0,0.455
1230.0,0.4489
1231.0,0.4563
1232.0,0.4538
1233.0,0.4449
1234.0,0.4546
1235.0,0.4527
1236.0,0.4552
1237.0,0.4514
1238.0,0.4536
1239.0,0.4479
1240.0,0.4493
1241.0,0.4488
1242.0,0.4463
1243.0,0.4426
1244.0,0.4463
1245.0,0.4479
1246.0,0.4452
1247.0,0.444
1248.0,0.4445
1249.0,0.4451
1250.0,0.4429
1251.0,0.4383
1252.0,0.4371
1253.0,0.4358
1254.0,0.4333
1255.0,0.4372
1256.0,0.4292
1257.0,0.4277
1258.0,0.4323
1259.0,0.4233
1260.0,0.4247
1261.0,0.4094
1262.0,0.4016
1263.0,0.4027
1264.0,0.3824
1265.0,0.3999
1266.0,0.3911
1267.0,0.3936
1268.0,0.3803
1269.0,0.2871
1270.0,0.3939
1271.0,0.407
1272.0,0.4073
1273.0,0.404
1274.0,0.404
1275.0,0.4083
1276.0,0.4106
1277.0,0.4114
1278.0,0.4158
1279.0,0.4123
1280.0,0.4069
1281.0,0.3868
1282.0,0.3701
1283.0,0.3991
1284.0,0.4092
1285.0,0.4115
1286.0,0.4156
1287.0,0.4119
1288.0,0.4111
1289.0,0.4033
1290.0,0.4071
1291.0,0.4118
1292.0,0.3968
1293.0,0.4063
1294.0,0.404
1295.0,0.4043
1296.0,0.3926
1297.0,0.377
1298.0,0.3951
1299.0,0.4059
1300.0,0.3623
1301.0,0.3694
1302.0,0.3934
1303.0,0.3556
1304.0,0.3213
1305.0,0.387
1306.0,0.3879
1307.0,0.3222
1308.0,0.3535
1309.0,0.386
1310.0,0.3168
1311.0,0.3429
1312.0,0.3365
1313.0,0.3326
1314.0,0.3046
1315.0,0.3044
1316.0,0.3403
1317.0,0.3245
1318.0,0.3452
1319.0,0.2919
1320.0,0.2781
1321.0,0.3161
1322.0,0.3221
1323.0,0.2613
1324.0,0.2863
1325.0,0.3362
1326.0,0.3005
1327.0,0.2897
1328.0,0.2559
1329.0,0.2084
1330.0,0.2623
1331.0,0.1797
1332.0,0.1781
1333.0,0.2411
1334.0,0.1976
1335.0,0.2596
1336.0,0.2154
1337.0,0.1978
1338.0,0.2122
1339.0,0.2089
1340.0,0.1983
1341.0,0.2047
1342.0,0.2144
1343.0,0.1719
1344.0,0.1037
1345.0,0.1442
1346.0,0.0921
1347.0,0.09681
1348.0,0.01233
1349.0,0.0357
1350.0,0.03201
1351.0,0.01394
1352.0,0.006478
1353.0,0.0006991
1354.0,0.001573
1355.0,5.128e-05
1356.0,0.0003684
1357.0,0.0005418
1358.0,5.747e-05
1359.0,1.908e-05
1360.0,3.724e-05
1361.0,3.703e-07
1362.0,2.982e-09
1363.0,5.842e-05
1364.0,2.925e-05
1365.0,3.037e-09
1366.0,0.0001933
1367.0,7.63e-05
1368.0,2.135e-10
1369.0,1.207e-05
1370.0,8.879e-06
1371.0,9.176e-07
1372.0,4.322e-05
1373.0,0.0004148
1374.0,0.001194
1375.0,0.002031
1376.0,0.001389
1377.0,0.000724
1378.0,0.005169
1379.0,0.0003205
1380.0,0.0005841
1381.0,2.287e-05
1382.0,4.34e-05
1383.0,1.106e-06
1384.0,1.567e-05
1385.0,2.712e-05
1386.0,4.996e-05
1387.0,0.001495
1388.0,3.793e-05
1389.0,0.003201
1390.0,0.002683
1391.0,0.00208
1392.0,0.0001781
1393.0,0.0007014
1394.0,0.0007091
1395.0,1.071e-05
1396.0,4.073e-07
1397.0,0.0003436
1398.0,0.005903
1399.0,0.003835
1400.0,2.969e-07
1401.0,5.958e-07
1402.0,0.00603
1403.0,0.008288
1404.0,0.002674
1405.0,7.437e-06
1406.0,0.007977
1407.0,0.00072
1408.0,0.006423
1409.0,0.003016
1410.0,0.002133
1411.0,0.007192
1412.0,0.008262
1413.0,0.04796
1414.0,0.001636
1415.0,0.0009424
1416.0,0.06112
1417.0,0.02635
1418.0,0.02931
1419.0,0.005072
1420.0,0.01839
1421.0,0.02123
1422.0,0.07674
1423.0,0.01741
1424.0,0.03062
1425.0,0.04667
1426.0,0.04724
1427.0,0.07277
1428.0,0.01205
1429.0,0.06004
1430.0,0.08884
1431.0,0.09418
1432.0,0.009809
1433.0,0.0652
1434.0,0.03596
1435.0,0.04491
1436.0,0.0714
1437.0,0.0554
1438.0,0.02781
1439.0,0.09025
1440.0,0.06907
1441.0,0.0593
1442.0,0.06329
1443.0,0.06955
1444.0,0.09329
1445.0,0.08025
1446.0,0.03848
1447.0,0.06133
1448.0,0.1494
1449.0,0.1376
1450.0,0.04553
1451.0,0.02081
1452.0,0.08998
1453.0,0.1131
1454.0,0.1691
1455.0,0.08937
1456.0,0.1241
1457.0,0.1506
1458.0,0.1635
1459.0,0.1953
1460.0,0.1101
1461.0,0.1205
1462.0,0.1646
1463.0,0.06282
1464.0,0.1834
1465.0,0.113
1466.0,0.09393
1467.0,0.05774
1468.0,0.1064
1469.0,0.1259
1470.0,0.07491
1471.0,0.03066
