interpolation:linear
wavelength,value
280.0,4.8740000000000007e-26
280.5,2.197e-24
281.0,1.3459999999999998e-23
281.5,5.824999999999999e-22
282.0,5.659e-21
282.5,2.4820000000000003e-20
283.0,1.269e-19
283.5,2.574e-19
284.0,9.167e-18
284.5,3.663e-17
285.0,1.006e-16
285.5,9.32e-16
286.0,4.714e-15
286.5,3.156e-14
287.0,1.19e-13
287.5,6.326e-13
288.0,3.434e-12
288.5,1.505e-11
289.0,5.579e-11
289.5,2.318e-10
290.0,8.225e-10
290.5,2.049e-09
291.0,5.504e-09
291.5,2.055e-08
292.0,5.774e-08
292.5,9.206e-08
293.0,2.298e-07
293.5,6.775e-07
294.0,1.218e-06
294.5,2.26e-06
295.0,4.25e-06
295.5,1.116e-05
296.0,2.122e-05
296.5,2.913e-05
297.0,3.875e-05
297.5,0.0001004
298.0,0.0001532
298.5,0.00015
299.0,0.0003214
299.5,0.0005011
300.0,0.0005327
300.5,0.0007426
301.0,0.001251
301.5,0.001861
302.0,0.001541
302.5,0.002968
303.0,0.005209
303.5,0.006452
304.0,0.005963
304.5,0.008408
305.0,0.01172
305.5,0.01276
306.0,0.01216
306.5,0.01469
307.0,0.0202
307.5,0.02496
308.0,0.0262
308.5,0.02995
309.0,0.02676
309.5,0.03004
310.0,0.02996
310.5,0.0485
311.0,0.06047
311.5,0.05841
312.0,0.0569
312.5,0.06808
313.0,0.07338
313.5,0.07258
314.0,0.08861
314.5,0.07577
315.0,0.0994
315.5,0.08547
316.0,0.07244
316.5,0.1013
317.0,0.1266
317.5,0.1337
318.0,0.1026
318.5,0.1224
319.0,0.1427
319.5,0.1214
320.0,0.1484
320.5,0.1781
321.0,0.1525
321.5,0.1464
322.0,0.1645
322.5,0.1435
323.0,0.1393
323.5,0.163
324.0,0.1903
324.5,0.1969
325.0,0.178
325.5,0.2243
326.0,0.2669
326.5,0.2636
327.0,0.2659
327.5,0.2604
328.0,0.2388
328.5,0.2449
329.0,0.2876
329.5,0.3256
330.0,0.3321
330.5,0.2721
331.0,0.2803
331.5,0.2823
332.0,0.3002
332.5,0.2955
333.0,0.2977
333.5,0.2749
334.0,0.2836
334.5,0.3231
335.0,0.3019
335.5,0.3437
336.0,0.2388
336.5,0.291
337.0,0.2415
337.5,0.3025
338.0,0.2924
338.5,0.331
339.0,0.3308
339.5,0.3183
340.0,0.3838
340.5,0.3469
341.0,0.3338
341.5,0.3104
342.0,0.3732
342.5,0.3512
343.0,0.386
343.5,0.3636
344.0,0.2733
344.5,0.2713
345.0,0.3644
345.5,0.3748
346.0,0.3203
346.5,0.3645
347.0,0.3915
347.5,0.3172
348.0,0.3645
348.5,0.3664
349.0,0.3413
349.5,0.339
350.0,0.4208
350.5,0.4454
351.0,0.3987
351.5,0.3869
352.0,0.4183
352.5,0.3282
353.0,0.4152
353.5,0.4458
354.0,0.4646
354.5,0.4727
355.0,0.4725
355.5,0.4283
356.0,0.4497
356.5,0.3853
357.0,0.3194
357.5,0.3923
358.0,0.3119
358.5,0.2674
359.0,0.3752
359.5,0.4793
360.0,0.5098
360.5,0.4088
361.0,0.3739
361.5,0.4316
362.0,0.3743
362.5,0.5194
363.0,0.4677
363.5,0.432
364.0,0.5297
364.5,0.4541
365.0,0.4637
365.5,0.5837
366.0,0.62
366.5,0.5841
367.0,0.5704
367.5,0.5936
368.0,0.5208
368.5,0.5268
369.0,0.5705
369.5,0.6096
370.0,0.6516
370.5,0.507
371.0,0.5431
371.5,0.6812
372.0,0.4533
372.5,0.5449
373.0,0.5556
373.5,0.3624
374.0,0.5278
374.5,0.4382
375.0,0.427
375.5,0.6391
376.0,0.5311
376.5,0.5517
377.0,0.5855
377.5,0.6866
378.0,0.746
378.5,0.707
379.0,0.5849
379.5,0.5357
380.0,0.5583
380.5,0.6778
381.0,0.6808
381.5,0.5409
382.0,0.4814
382.5,0.4113
383.0,0.3816
383.5,0.3683
384.0,0.4072
384.5,0.6002
385.0,0.5965
385.5,0.5566
386.0,0.4777
386.5,0.6288
387.0,0.5237
387.5,0.5895
388.0,0.5454
388.5,0.5402
389.0,0.5844
389.5,0.7092
390.0,0.7132
390.5,0.6577
391.0,0.7758
391.5,0.7929
392.0,0.6692
392.5,0.6003
393.0,0.3346
393.5,0.2437
394.0,0.4968
394.5,0.6328
395.0,0.7736
395.5,0.7874
396.0,0.684
396.5,0.4005
397.0,0.3011
397.5,0.6136
398.0,0.8609
398.5,0.8914
399.0,0.9668
399.5,0.9653
400.0,1.004
401.0,1.035
402.0,1.095
403.0,1.044
404.0,1.031
405.0,1.034
406.0,1.02
407.0,1.007
408.0,1.049
409.0,1.126
410.0,0.9869
411.0,1.072
412.0,1.154
413.0,1.129
414.0,1.146
415.0,1.152
416.0,1.175
417.0,1.149
418.0,1.131
419.0,1.149
420.0,1.147
421.0,1.203
422.0,1.147
423.0,1.123
424.0,1.191
425.0,1.191
426.0,1.163
427.0,1.144
428.0,1.117
429.0,1.06
430.0,0.9295
431.0,0.9237
432.0,1.195
433.0,1.204
434.0,1.121
435.0,1.173
436.0,1.324
437.0,1.308
438.0,1.194
439.0,1.238
440.0,1.279
441.0,1.328
442.0,1.427
443.0,1.393
444.0,1.426
445.0,1.398
446.0,1.336
447.0,1.447
448.0,1.473
449.0,1.48
450.0,1.524
451.0,1.584
452.0,1.529
453.0,1.44
454.0,1.505
455.0,1.517
456.0,1.556
457.0,1.585
458.0,1.534
459.0,1.528
460.0,1.535
461.0,1.573
462.0,1.587
463.0,1.578
464.0,1.554
465.0,1.536
466.0,1.552
467.0,1.527
468.0,1.547
469.0,1.558
470.0,1.511
471.0,1.511
472.0,1.594
473.0,1.576
474.0,1.581
475.0,1.597
476.0,1.553
477.0,1.56
478.0,1.605
479.0,1.597
480.0,1.602
481.0,1.634
482.0,1.643
483.0,1.625
484.0,1.593
485.0,1.519
486.0,1.329
487.0,1.394
488.0,1.532
489.0,1.539
490.0,1.62
491.0,1.594
492.0,1.507
493.0,1.558
494.0,1.575
495.0,1.59
496.0,1.602
497.0,1.629
498.0,1.554
499.0,1.576
500.0,1.532
501.0,1.507
502.0,1.488
503.0,1.552
504.0,1.517
505.0,1.57
506.0,1.623
507.0,1.546
508.0,1.498
509.0,1.541
510.0,1.533
511.0,1.575
512.0,1.593
513.0,1.509
514.0,1.5
515.0,1.487
516.0,1.484
517.0,1.32
518.0,1.389
519.0,1.458
520.0,1.513
521.0,1.529
522.0,1.532
523.0,1.505
524.0,1.561
525.0,1.582
526.0,1.512
527.0,1.427
528.0,1.511
529.0,1.594
530.0,1.573
531.0,1.598
532.0,1.544
533.0,1.5
534.0,1.545
535.0,1.58
536.0,1.595
537.0,1.533
538.0,1.561
539.0,1.549
540.0,1.486
541.0,1.498
542.0,1.547
543.0,1.531
544.0,1.559
545.0,1.555
546.0,1.563
547.0,1.563
548.0,1.545
549.0,1.551
550.0,1.57
551.0,1.552
552.0,1.564
553.0,1.537
554.0,1.575
555.0,1.579
556.0,1.56
557.0,1.512
558.0,1.502
559.0,1.476
560.0,1.496
561.0,1.516
562.0,1.507
563.0,1.55
564.0,1.509
565.0,1.497
566.0,1.476
567.0,1.506
568.0,1.495
569.0,1.463
570.0,1.463
571.0,1.454
572.0,1.492
573.0,1.509
574.0,1.505
575.0,1.479
576.0,1.466
577.0,1.482
578.0,1.46
579.0,1.465
580.0,1.491
581.0,1.498
582.0,1.526
583.0,1.529
584.0,1.542
585.0,1.505
586.0,1.475
587.0,1.509
588.0,1.476
589.0,1.316
590.0,1.376
591.0,1.453
592.0,1.438
593.0,1.456
594.0,1.448
595.0,1.416
596.0,1.466
597.0,1.452
598.0,1.447
599.0,1.448
600.0,1.449
601.0,1.437
602.0,1.428
603.0,1.451
604.0,1.476
605.0,1.468
606.0,1.462
607.0,1.477
608.0,1.46
609.0,1.463
610.0,1.452
611.0,1.46
612.0,1.456
613.0,1.438
614.0,1.418
615.0,1.449
616.0,1.401
617.0,1.399
618.0,1.453
619.0,1.438
620.0,1.448
621.0,1.45
622.0,1.434
623.0,1.413
624.0,1.389
625.0,1.386
626.0,1.408
627.0,1.425
628.0,1.347
629.0,1.398
630.0,1.367
631.0,1.392
632.0,1.375
633.0,1.415
634.0,1.4
635.0,1.421
636.0,1.402
637.0,1.425
638.0,1.438
639.0,1.421
640.0,1.407
641.0,1.406
642.0,1.4
643.0,1.419
644.0,1.414
645.0,1.417
646.0,1.386
647.0,1.375
648.0,1.377
649.0,1.351
650.0,1.352
651.0,1.41
652.0,1.358
653.0,1.392
654.0,1.376
655.0,1.328
656.0,1.175
657.0,1.207
658.0,1.351
659.0,1.361
660.0,1.366
661.0,1.376
662.0,1.38
663.0,1.353
664.0,1.368
665.0,1.368
666.0,1.369
667.0,1.367
668.0,1.368
669.0,1.389
670.0,1.383
671.0,1.382
672.0,1.371
673.0,1.391
674.0,1.386
675.0,1.374
676.0,1.383
677.0,1.37
678.0,1.374
679.0,1.352
680.0,1.363
681.0,1.354
682.0,1.352
683.0,1.35
684.0,1.344
685.0,1.355
686.0,1.348
687.0,0.9651
688.0,1.097
689.0,1.1
690.0,1.143
691.0,1.191
692.0,1.224
693.0,1.216
694.0,1.206
695.0,1.248
696.0,1.25
697.0,1.316
698.0,1.296
699.0,1.272
700.0,1.257
701.0,1.247
702.0,1.253
703.0,1.255
704.0,1.292
705.0,1.294
706.0,1.291
707.0,1.292
708.0,1.295
709.0,1.295
710.0,1.296
711.0,1.294
712.0,1.289
713.0,1.277
714.0,1.282
715.0,1.244
716.0,1.246
717.0,1.107
718.0,1.021
719.0,0.9388
720.0,0.9852
721.0,1.072
722.0,1.208
723.0,1.134
724.0,1.033
725.0,1.02
726.0,1.066
727.0,1.075
728.0,1.019
729.0,1.048
730.0,1.109
731.0,1.064
732.0,1.128
733.0,1.185
734.0,1.211
735.0,1.187
736.0,1.186
737.0,1.191
738.0,1.203
739.0,1.18
740.0,1.209
741.0,1.196
742.0,1.196
743.0,1.227
744.0,1.223
745.0,1.223
746.0,1.228
747.0,1.231
748.0,1.229
749.0,1.215
750.0,1.214
751.0,1.202
752.0,1.207
753.0,1.214
754.0,1.216
755.0,1.21
756.0,1.209
757.0,1.211
758.0,1.197
759.0,1.176
760.0,0.2667
761.0,0.156
762.0,0.6732
763.0,0.3794
764.0,0.5321
765.0,0.6738
766.0,0.7933
767.0,0.9676
768.0,1.091
769.0,1.108
770.0,1.139
771.0,1.146
772.0,1.147
773.0,1.155
774.0,1.15
775.0,1.141
776.0,1.155
777.0,1.14
778.0,1.133
779.0,1.134
780.0,1.128
781.0,1.129
782.0,1.136
783.0,1.117
784.0,1.122
785.0,1.114
786.0,1.127
787.0,1.11
788.0,1.097
789.0,1.097
790.0,1.072
791.0,1.078
792.0,1.07
793.0,1.053
794.0,1.067
795.0,1.086
796.0,1.058
797.0,1.06
798.0,1.086
799.0,1.08
800.0,1.063
801.0,1.061
802.0,1.058
803.0,1.05
804.0,1.051
805.0,1.047
806.0,1.074
807.0,1.061
808.0,1.062
809.0,1.044
810.0,1.037
811.0,1.041
812.0,1.015
813.0,0.9966
814.0,0.8897
815.0,0.8839
816.0,0.8247
817.0,0.8383
818.0,0.8099
819.0,0.8943
820.0,0.8467
821.0,0.9745
822.0,0.9492
823.0,0.6702
824.0,0.927
825.0,0.9587
826.0,0.927
827.0,0.9734
828.0,0.8392
829.0,0.9207
830.0,0.9102
831.0,0.913
832.0,0.8876
833.0,0.9372
834.0,0.9087
835.0,0.9886
836.0,0.9524
837.0,0.9911
838.0,0.963
839.0,0.9757
840.0,0.9965
841.0,0.9836
842.0,0.9841
843.0,0.9818
844.0,0.9692
845.0,1.001
846.0,0.9961
847.0,0.9771
848.0,0.9719
849.0,0.9444
850.0,0.9047
851.0,0.9588
852.0,0.9518
853.0,0.9156
854.0,0.7912
855.0,0.8685
856.0,0.9495
857.0,0.9703
858.0,0.9634
859.0,0.964
860.0,0.9655
861.0,0.9604
862.0,0.9755
863.0,0.9986
864.0,0.9487
865.0,0.9404
866.0,0.8456
867.0,0.8825
868.0,0.9604
869.0,0.9405
870.0,0.9674
871.0,0.9543
872.0,0.9509
873.0,0.9491
874.0,0.9379
875.0,0.919
876.0,0.9287
877.0,0.9381
878.0,0.9484
879.0,0.9339
880.0,0.9139
881.0,0.9006
882.0,0.9203
883.0,0.9229
884.0,0.9189
885.0,0.9259
886.0,0.8838
887.0,0.8923
888.0,0.9061
889.0,0.9153
890.0,0.9091
891.0,0.9069
892.0,0.8825
893.0,0.8572
894.0,0.8312
895.0,0.7907
896.0,0.7474
897.0,0.6493
898.0,0.7044
899.0,0.5447
900.0,0.7169
901.0,0.5706
902.0,0.658
903.0,0.6683
904.0,0.8255
905.0,0.7995
906.0,0.7501
907.0,0.6203
908.0,0.6311
909.0,0.6785
910.0,0.6092
911.0,0.6438
912.0,0.671
913.0,0.6187
914.0,0.6119
915.0,0.6625
916.0,0.5636
917.0,0.7052
918.0,0.5782
919.0,0.7157
920.0,0.7185
921.0,0.7462
922.0,0.6736
923.0,0.7205
924.0,0.6909
925.0,0.6761
926.0,0.6835
927.0,0.759
928.0,0.5744
929.0,0.5291
930.0,0.4233
931.0,0.3999
932.0,0.2955
933.0,0.2442
934.0,0.1424
935.0,0.2466
936.0,0.1593
937.0,0.1622
938.0,0.1973
939.0,0.3876
940.0,0.4611
941.0,0.3551
942.0,0.4067
943.0,0.273
944.0,0.2827
945.0,0.3649
946.0,0.1932
947.0,0.3685
948.0,0.272
949.0,0.4859
950.0,0.1465
951.0,0.4772
952.0,0.2662
953.0,0.3374
954.0,0.4067
955.0,0.3405
956.0,0.3271
957.0,0.2676
958.0,0.4536
959.0,0.3679
960.0,0.4122
961.0,0.4569
962.0,0.433
963.0,0.4942
964.0,0.4544
965.0,0.4918
966.0,0.4931
967.0,0.4915
968.0,0.6415
969.0,0.6714
970.0,0.6191
971.0,0.701
972.0,0.6721
973.0,0.5929
974.0,0.5639
975.0,0.5823
976.0,0.557
977.0,0.6259
978.0,0.598
979.0,0.6238
980.0,0.5882
981.0,0.6969
982.0,0.6692
983.0,0.6441
984.0,0.7151
985.0,0.6666
986.0,0.7259
987.0,0.7137
988.0,0.7124
989.0,0.7226
990.0,0.7081
991.0,0.7251
992.0,0.7291
993.0,0.7149
994.0,0.7287
995.0,0.7276
996.0,0.7247
997.0,0.7256
998.0,0.7223
999.0,0.7196
1000.0,0.7151
1001.0,0.7235
1002.0,0.7055
1003.0,0.7109
1004.0,0.694
1005.0,0.668
1006.0,0.6944
1007.0,0.709
1008.0,0.7055
1009.0,0.7021
1010.0,0.6994
1011.0,0.7054
1012.0,0.6997
1013.0,0.7037
1014.0,0.6988
1015.0,0.6942
1016.0,0.6912
1017.0,0.693
1018.0,0.6902
1019.0,0.6762
1020.0,0.6867
1021.0,0.6857
1022.0,0.6807
1023.0,0.688
1024.0,0.6798
1025.0,0.6873
1026.0,0.6846
1027.0,0.683
1028.0,0.6816
1029.0,0.6736
1030.0,0.678
1031.0,0.6754
1032.0,0.6734
1033.0,0.6633
1034.0,0.6633
1035.0,0.6654
1036.0,0.669
1037.0,0.6581
1038.0,0.6611
1039.0,0.6608
1040.0,0.6581
1041.0,0.6608
1042.0,0.6562
1043.0,0.6542
1044.0,0.6566
1045.0,0.6477
1046.0,0.6407
1047.0,0.6465
1048.0,0.6501
1049.0,0.6478
1050.0,0.6449
1051.0,0.6441
1052.0,0.6416
1053.0,0.6366
1054.0,0.6381
1055.0,0.6386
1056.0,0.6365
1057.0,0.6346
1058.0,0.6191
1059.0,0.6199
1060.0,0.6191
1061.0,0.6184
1062.0,0.6218
1063.0,0.6157
1064.0,0.623
1065.0,0.6188
1066.0,0.6064
1067.0,0.6143
1068.0,0.6011
1069.0,0.5824
1070.0,0.6024
1071.0,0.6111
1072.0,0.6046
1073.0,0.5958
1074.0,0.6105
1075.0,0.5819
1076.0,0.6101
1077.0,0.6004
1078.0,0.5895
1079.0,0.6001
1080.0,0.5912
1081.0,0.5732
1082.0,0.5807
1083.0,0.5821
1084.0,0.5723
1085.0,0.5924
1086.0,0.5438
1087.0,0.5589
1088.0,0.5819
1089.0,0.566
1090.0,0.5548
1091.0,0.5806
1092.0,0.5787
1093.0,0.4965
1094.0,0.5302
1095.0,0.5164
1096.0,0.4962
1097.0,0.5653
1098.0,0.4891
1099.0,0.5093
1100.0,0.4761
1101.0,0.4813
1102.0,0.4612
1103.0,0.4579
1104.0,0.4583
1105.0,0.4983
1106.0,0.391
1107.0,0.4752
1108.0,0.4088
1109.0,0.4083
1110.0,0.4718
1111.0,0.3281
1112.0,0.4048
1113.0,0.266
1114.0,0.2963
1115.0,0.246
1116.0,0.2015
1117.0,0.07965
1118.0,0.2173
1119.0,0.1123
1120.0,0.1415
1121.0,0.185
1122.0,0.08174
1123.0,0.1277
1124.0,0.1079
1125.0,0.1397
1126.0,0.05247
1127.0,0.1572
1128.0,0.09819
1129.0,0.1036
1130.0,0.06991
1131.0,0.2883
1132.0,0.2281
1133.0,0.1497
1134.0,0.04147
1135.0,0.01539
1136.0,0.1268
1137.0,0.2848
1138.0,0.2018
1139.0,0.2911
1140.0,0.247
1141.0,0.1918
1142.0,0.2185
1143.0,0.3062
1144.0,0.112
1145.0,0.1443
1146.0,0.1557
1147.0,0.0588
1148.0,0.2652
1149.0,0.2148
1150.0,0.1201
1151.0,0.2004
1152.0,0.243
1153.0,0.2342
1154.0,0.1407
1155.0,0.3039
1156.0,0.2756
1157.0,0.3063
1158.0,0.3029
1159.0,0.3241
1160.0,0.2801
1161.0,0.3391
1162.0,0.3413
1163.0,0.4506
1164.0,0.3904
1165.0,0.3719
1166.0,0.3668
1167.0,0.3975
1168.0,0.4027
1169.0,0.4109
1170.0,0.4435
1171.0,0.4329
1172.0,0.4389
1173.0,0.4426
1174.0,0.3247
1175.0,0.431
1176.0,0.4695
1177.0,0.4535
1178.0,0.3473
1179.0,0.4731
1180.0,0.4271
1181.0,0.4403
1182.0,0.3111
1183.0,0.4325
1184.0,0.4078
1185.0,0.3956
1186.0,0.4618
1187.0,0.4422
1188.0,0.3171
1189.0,0.4124
1190.0,0.4513
1191.0,0.4324
1192.0,0.4572
1193.0,0.4395
1194.0,0.4521
1195.0,0.4303
1196.0,0.4162
1197.0,0.4508
1198.0,0.4146
1199.0,0.3589
1200.0,0.4343
1201.0,0.421
1202.0,0.4173
1203.0,0.4139
1204.0,0.3655
1205.0,0.4251
1206.0,0.4661
1207.0,0.4168
1208.0,0.4084
1209.0,0.4163
1210.0,0.4323
1211.0,0.4141
1212.0,0.4119
1213.0,0.4522
1214.0,0.4205
1215.0,0.4131
1216.0,0.4506
1217.0,0.44
1218.0,0.4471
1219.0,0.4422
1220.0,0.4474
1221.0,0.4512
1222.0,0.4402
1223.0,0.4366
1224.0,0.4348
1225.0,0.4484
1226.0,0.4506
1227.0,0.4189
1228.0,0.4522
1229.0,0.4507
1230.0,0.4436
1231.0,0.4542
1232.0,0.4516
1233.0,0.4386
1234.0,0.4533
1235.0,0.4508
1236.0,0.4538
1237.0,0.4485
1238.0,0.4522
1239.0,0.4465
1240.0,0.448
1241.0,0.4466
1242.0,0.4451
1243.0,0.4414
1244.0,0.4447
1245.0,0.4465
1246.0,0.4439
1247.0,0.4424
1248.0,0.4424
1249.0,0.4435
1250.0,0.441
1251.0,0.4357
1252.0,0.4353
1253.0,0.4327
1254.0,0.4291
1255.0,0.4351
1256.0,0.4246
1257.0,0.4226
1258.0,0.4292
1259.0,0.4162
1260.0,0.418
1261.0,0.3978
1262.0,0.3876
1263.0,0.3884
1264.0,0.3625
1265.0,0.3858
1266.0,0.3736
1267.0,0.3786
1268.0,0.3616
1269.0,0.2419
1270.0,0.3778
1271.0,0.3961
1272.0,0.397
1273.0,0.3932
1274.0,0.394
1275.0,0.3991
1276.0,0.4023
1277.0,0.4043
1278.0,0.4107
1279.0,0.4071
1280.0,0.4019
1281.0,0.3829
1282.0,0.368
1283.0,0.3965
1284.0,0.4062
1285.0,0.4087
1286.0,0.4137
1287.0,0.4083
1288.0,0.408
1289.0,0.3971
1290.0,0.4042
1291.0,0.4095
1292.0,0.3885
1293.0,0.4025
1294.0,0.3999
1295.0,0.3989
1296.0,0.3833
1297.0,0.3645
1298.0,0.3885
1299.0,0.4027
1300.0,0.3475
1301.0,0.3568
1302.0,0.3871
1303.0,0.3422
1304.0,0.298
1305.0,0.3796
1306.0,0.3801
1307.0,0.3023
1308.0,0.3417
1309.0,0.3777
1310.0,0.2968
1311.0,0.329
1312.0,0.3211
1313.0,0.3159
1314.0,0.285
1315.0,0.2826
1316.0,0.3249
1317.0,0.3085
1318.0,0.3327
1319.0,0.2673
1320.0,0.2574
1321.0,0.2974
1322.0,0.3014
1323.0,0.2328
1324.0,0.2622
1325.0,0.3206
1326.0,0.279
1327.0,0.267
1328.0,0.2322
1329.0,0.1793
1330.0,0.2309
1331.0,0.1454
1332.0,0.1481
1333.0,0.2046
1334.0,0.1707
1335.0,0.2319
1336.0,0.1864
1337.0,0.1666
1338.0,0.1801
1339.0,0.1785
1340.0,0.1721
1341.0,0.1715
1342.0,0.1799
1343.0,0.1291
1344.0,0.07706
1345.0,0.1105
1346.0,0.05976
1347.0,0.06159
1348.0,0.004964
1349.0,0.01673
1350.0,0.01661
1351.0,0.0049
1352.0,0.00162
1353.0,0.0001047
1354.0,0.0003113
1355.0,4.029e-06
1356.0,5.213e-05
1357.0,7.883e-05
1358.0,4.682e-06
1359.0,8.366e-07
1360.0,2.426e-06
1361.0,5.753e-09
1362.0,2.204e-11
1363.0,3.598e-06
1364.0,1.541e-06
1365.0,1.153e-11
1366.0,1.432e-05
1367.0,5.591e-06
1368.0,1.977e-13
1369.0,5.897e-07
1370.0,3.367e-07
1371.0,2.314e-08
1372.0,3.083e-06
1373.0,4.879e-05
1374.0,0.0001926
1375.0,0.0003497
1376.0,0.0002779
1377.0,0.0001323
1378.0,0.001193
1379.0,5.613e-05
1380.0,8.892e-05
1381.0,2.595e-06
1382.0,2.897e-06
1383.0,5.04e-08
1384.0,7.058e-07
1385.0,2.333e-06
1386.0,2.852e-06
1387.0,0.0002185
1388.0,4.439e-06
1389.0,0.0006234
1390.0,0.0005361
1391.0,0.0003722
1392.0,2.587e-05
1393.0,0.0001252
1394.0,8.343e-05
1395.0,7.541e-07
1396.0,7.51e-09
1397.0,5.333e-05
1398.0,0.00136
1399.0,0.000862
1400.0,3.935e-09
1401.0,1.258e-08
1402.0,0.001939
1403.0,0.002533
1404.0,0.0007859
1405.0,4.168e-07
1406.0,0.00218
1407.0,0.0001863
1408.0,0.001765
1409.0,0.0006683
1410.0,0.0004997
1411.0,0.002212
1412.0,0.00282
1413.0,0.02442
1414.0,0.0003891
1415.0,0.0001981
1416.0,0.0367
1417.0,0.01225
1418.0,0.01405
1419.0,0.002238
1420.0,0.008645
1421.0,0.009402
1422.0,0.04758
1423.0,0.009531
1424.0,0.01759
1425.0,0.02628
1426.0,0.02879
1427.0,0.05057
1428.0,0.00474
1429.0,0.03887
1430.0,0.06367
1431.0,0.0693
1432.0,0.003762
1433.0,0.04497
1434.0,0.02332
1435.0,0.02482
1436.0,0.04552
1437.0,0.03488
1438.0,0.0154
1439.0,0.06086
1440.0,0.0457
1441.0,0.03595
1442.0,0.03967
1443.0,0.04811
1444.0,0.06588
1445.0,0.05292
1446.0,0.02422
1447.0,0.0381
1448.0,0.1193
1449.0,0.1049
1450.0,0.0282
1451.0,0.01165
1452.0,0.06441
1453.0,0.08383
1454.0,0.1395
1455.0,0.06741
1456.0,0.09127
1457.0,0.1199
1458.0,0.1388
1459.0,0.1645
1460.0,0.087
1461.0,0.09196
1462.0,0.1327
1463.0,0.0443
