interpolation:linear
wavelength,value
280.0,1.0019999999999999e-22
280.5,2.781e-21
281.0,1.4270000000000002e-20
281.5,3.864e-19
282.0,2.823e-18
282.5,1.022e-17
283.0,4.228e-17
283.5,7.72e-17
284.0,1.685e-15
284.5,5.388e-15
285.0,1.163e-14
285.5,8.107e-14
286.0,3.655e-13
286.5,1.932e-12
287.0,6.119e-12
287.5,2.589e-11
288.0,1.054e-10
288.5,3.964e-10
289.0,1.255e-09
289.5,4.383e-09
290.0,1.349e-08
290.5,2.986e-08
291.0,6.95e-08
291.5,2.163e-07
292.0,5.24e-07
292.5,7.687e-07
293.0,1.724e-06
293.5,4.393e-06
294.0,7.155e-06
294.5,1.233e-05
295.0,2.112e-05
295.5,4.938e-05
296.0,8.676e-05
296.5,0.0001105
297.0,0.0001385
297.5,0.0003302
298.0,0.0004709
298.5,0.0004387
299.0,0.000897
299.5,0.001298
300.0,0.001327
300.5,0.00178
301.0,0.002837
301.5,0.004037
302.0,0.003272
302.5,0.006061
303.0,0.01015
303.5,0.01224
304.0,0.01116
304.5,0.01525
305.0,0.02042
305.5,0.02169
306.0,0.02047
306.5,0.02435
307.0,0.03247
307.5,0.03903
308.0,0.04075
308.5,0.04596
309.0,0.04063
309.5,0.04434
310.0,0.04364
310.5,0.07014
311.0,0.08653
311.5,0.08312
312.0,0.07934
312.5,0.09367
313.0,0.1002
313.5,0.09954
314.0,0.1197
314.5,0.1005
315.0,0.1313
315.5,0.1136
316.0,0.0949
316.5,0.1311
317.0,0.1637
317.5,0.1732
318.0,0.1317
318.5,0.155
319.0,0.1793
319.5,0.1539
320.0,0.1881
320.5,0.2227
321.0,0.1886
321.5,0.1806
322.0,0.2049
322.5,0.1785
323.0,0.1718
323.5,0.1985
324.0,0.231
324.5,0.2398
325.0,0.2182
325.5,0.2731
326.0,0.3223
326.5,0.3165
327.0,0.3194
327.5,0.3131
328.0,0.2888
328.5,0.2934
329.0,0.3424
329.5,0.3867
330.0,0.3944
330.5,0.3242
331.0,0.3341
331.5,0.3351
332.0,0.3545
332.5,0.3481
333.0,0.3506
333.5,0.3244
334.0,0.3344
334.5,0.3794
335.0,0.3536
335.5,0.4019
336.0,0.2789
336.5,0.34
337.0,0.2823
337.5,0.3534
338.0,0.3405
338.5,0.3848
339.0,0.3841
339.5,0.3692
340.0,0.4454
340.5,0.4021
341.0,0.3861
341.5,0.3587
342.0,0.4308
342.5,0.405
343.0,0.4449
343.5,0.4188
344.0,0.3149
344.5,0.3121
345.0,0.4185
345.5,0.4299
346.0,0.3672
346.5,0.4174
347.0,0.448
347.5,0.3627
348.0,0.4164
348.5,0.4182
349.0,0.3892
349.5,0.3862
350.0,0.4791
350.5,0.5067
351.0,0.4533
351.5,0.4396
352.0,0.4749
352.5,0.3723
353.0,0.4706
353.5,0.5049
354.0,0.5258
354.5,0.5347
355.0,0.5341
355.5,0.4837
356.0,0.5075
356.5,0.4345
357.0,0.36
357.5,0.442
358.0,0.3512
358.5,0.3009
359.0,0.4219
359.5,0.5388
360.0,0.5727
360.5,0.459
361.0,0.4194
361.5,0.4838
362.0,0.4191
362.5,0.5811
363.0,0.5229
363.5,0.4826
364.0,0.5914
364.5,0.5066
365.0,0.5171
365.5,0.6504
366.0,0.6904
366.5,0.65
367.0,0.6344
367.5,0.6598
368.0,0.5785
368.5,0.5849
369.0,0.6329
369.5,0.676
370.0,0.7221
370.5,0.5615
371.0,0.6012
371.5,0.7537
372.0,0.5013
372.5,0.6022
373.0,0.6137
373.5,0.4
374.0,0.5824
374.5,0.4832
375.0,0.4706
375.5,0.704
376.0,0.5848
376.5,0.6072
377.0,0.644
377.5,0.7548
378.0,0.8199
378.5,0.7766
379.0,0.6423
379.5,0.588
380.0,0.6126
380.5,0.7433
381.0,0.7461
381.5,0.5924
382.0,0.5269
382.5,0.4499
383.0,0.4172
383.5,0.4025
384.0,0.4447
384.5,0.6552
385.0,0.6508
385.5,0.6071
386.0,0.5208
386.5,0.6851
387.0,0.5703
387.5,0.6417
388.0,0.5935
388.5,0.5875
389.0,0.6353
389.5,0.7707
390.0,0.7747
390.5,0.7141
391.0,0.8419
391.5,0.8601
392.0,0.7257
392.5,0.6506
393.0,0.3625
393.5,0.2639
394.0,0.5378
394.5,0.6847
395.0,0.8367
395.5,0.8513
396.0,0.7392
396.5,0.4326
397.0,0.3251
397.5,0.6622
398.0,0.929
398.5,0.9616
399.0,1.042
399.5,1.04
400.0,1.082
401.0,1.114
402.0,1.178
403.0,1.122
404.0,1.107
405.0,1.11
406.0,1.094
407.0,1.079
408.0,1.124
409.0,1.206
410.0,1.056
411.0,1.146
412.0,1.233
413.0,1.205
414.0,1.222
415.0,1.228
416.0,1.252
417.0,1.224
418.0,1.204
419.0,1.222
420.0,1.219
421.0,1.278
422.0,1.217
423.0,1.191
424.0,1.263
425.0,1.263
426.0,1.232
427.0,1.211
428.0,1.182
429.0,1.121
430.0,0.9823
431.0,0.9759
432.0,1.262
433.0,1.271
434.0,1.182
435.0,1.237
436.0,1.395
437.0,1.378
438.0,1.256
439.0,1.303
440.0,1.346
441.0,1.396
442.0,1.5
443.0,1.464
444.0,1.497
445.0,1.468
446.0,1.402
447.0,1.517
448.0,1.544
449.0,1.551
450.0,1.596
451.0,1.658
452.0,1.599
453.0,1.506
454.0,1.574
455.0,1.586
456.0,1.626
457.0,1.655
458.0,1.601
459.0,1.595
460.0,1.602
461.0,1.641
462.0,1.655
463.0,1.645
464.0,1.619
465.0,1.599
466.0,1.616
467.0,1.589
468.0,1.61
469.0,1.621
470.0,1.571
471.0,1.571
472.0,1.657
473.0,1.638
474.0,1.643
475.0,1.66
476.0,1.614
477.0,1.622
478.0,1.668
479.0,1.659
480.0,1.663
481.0,1.695
482.0,1.704
483.0,1.684
484.0,1.651
485.0,1.574
486.0,1.376
487.0,1.443
488.0,1.585
489.0,1.592
490.0,1.676
491.0,1.648
492.0,1.558
493.0,1.61
494.0,1.628
495.0,1.643
496.0,1.655
497.0,1.682
498.0,1.605
499.0,1.627
500.0,1.582
501.0,1.555
502.0,1.537
503.0,1.602
504.0,1.569
505.0,1.622
506.0,1.676
507.0,1.596
508.0,1.546
509.0,1.589
510.0,1.581
511.0,1.623
512.0,1.642
513.0,1.555
514.0,1.545
515.0,1.531
516.0,1.529
517.0,1.359
518.0,1.43
519.0,1.501
520.0,1.557
521.0,1.573
522.0,1.576
523.0,1.549
524.0,1.606
525.0,1.628
526.0,1.556
527.0,1.469
528.0,1.555
529.0,1.641
530.0,1.619
531.0,1.644
532.0,1.589
533.0,1.543
534.0,1.59
535.0,1.625
536.0,1.64
537.0,1.576
538.0,1.605
539.0,1.592
540.0,1.527
541.0,1.54
542.0,1.59
543.0,1.573
544.0,1.602
545.0,1.598
546.0,1.607
547.0,1.606
548.0,1.587
549.0,1.593
550.0,1.612
551.0,1.594
552.0,1.605
553.0,1.578
554.0,1.617
555.0,1.621
556.0,1.601
557.0,1.553
558.0,1.543
559.0,1.515
560.0,1.536
561.0,1.557
562.0,1.547
563.0,1.592
564.0,1.55
565.0,1.538
566.0,1.517
567.0,1.547
568.0,1.537
569.0,1.506
570.0,1.506
571.0,1.496
572.0,1.536
573.0,1.554
574.0,1.55
575.0,1.523
576.0,1.51
577.0,1.526
578.0,1.503
579.0,1.507
580.0,1.533
581.0,1.539
582.0,1.566
583.0,1.568
584.0,1.581
585.0,1.543
586.0,1.512
587.0,1.547
588.0,1.516
589.0,1.357
590.0,1.418
591.0,1.494
592.0,1.48
593.0,1.497
594.0,1.489
595.0,1.457
596.0,1.505
597.0,1.492
598.0,1.485
599.0,1.486
600.0,1.486
601.0,1.472
602.0,1.463
603.0,1.486
604.0,1.511
605.0,1.503
606.0,1.497
607.0,1.511
608.0,1.494
609.0,1.496
610.0,1.485
611.0,1.492
612.0,1.488
613.0,1.469
614.0,1.449
615.0,1.48
616.0,1.431
617.0,1.428
618.0,1.483
619.0,1.468
620.0,1.478
621.0,1.481
622.0,1.465
623.0,1.444
624.0,1.419
625.0,1.416
626.0,1.437
627.0,1.456
628.0,1.387
629.0,1.432
630.0,1.4
631.0,1.423
632.0,1.405
633.0,1.444
634.0,1.427
635.0,1.449
636.0,1.428
637.0,1.451
638.0,1.463
639.0,1.446
640.0,1.431
641.0,1.43
642.0,1.423
643.0,1.442
644.0,1.437
645.0,1.44
646.0,1.41
647.0,1.401
648.0,1.404
649.0,1.377
650.0,1.375
651.0,1.433
652.0,1.384
653.0,1.414
654.0,1.398
655.0,1.351
656.0,1.194
657.0,1.226
658.0,1.372
659.0,1.381
660.0,1.386
661.0,1.396
662.0,1.401
663.0,1.373
664.0,1.387
665.0,1.386
666.0,1.387
667.0,1.385
668.0,1.385
669.0,1.406
670.0,1.4
671.0,1.399
672.0,1.387
673.0,1.408
674.0,1.402
675.0,1.39
676.0,1.399
677.0,1.385
678.0,1.389
679.0,1.366
680.0,1.377
681.0,1.369
682.0,1.367
683.0,1.365
684.0,1.358
685.0,1.37
686.0,1.362
687.0,1.023
688.0,1.141
689.0,1.144
690.0,1.181
691.0,1.222
692.0,1.25
693.0,1.242
694.0,1.232
695.0,1.269
696.0,1.271
697.0,1.331
698.0,1.311
699.0,1.292
700.0,1.276
701.0,1.267
702.0,1.272
703.0,1.274
704.0,1.308
705.0,1.31
706.0,1.307
707.0,1.307
708.0,1.31
709.0,1.308
710.0,1.31
711.0,1.307
712.0,1.302
713.0,1.29
714.0,1.295
715.0,1.259
716.0,1.261
717.0,1.138
718.0,1.054
719.0,0.9708
720.0,1.02
721.0,1.098
722.0,1.226
723.0,1.157
724.0,1.061
725.0,1.05
726.0,1.095
727.0,1.102
728.0,1.05
729.0,1.073
730.0,1.134
731.0,1.091
732.0,1.15
733.0,1.202
734.0,1.226
735.0,1.203
736.0,1.202
737.0,1.207
738.0,1.215
739.0,1.192
740.0,1.22
741.0,1.206
742.0,1.206
743.0,1.236
744.0,1.231
745.0,1.231
746.0,1.237
747.0,1.239
748.0,1.237
749.0,1.223
750.0,1.222
751.0,1.21
752.0,1.215
753.0,1.221
754.0,1.224
755.0,1.218
756.0,1.217
757.0,1.219
758.0,1.204
759.0,1.186
760.0,0.3298
761.0,0.2075
762.0,0.7308
763.0,0.4468
764.0,0.5977
765.0,0.7316
766.0,0.8374
767.0,0.9986
768.0,1.108
769.0,1.121
770.0,1.149
771.0,1.153
772.0,1.154
773.0,1.162
774.0,1.156
775.0,1.147
776.0,1.161
777.0,1.146
778.0,1.139
779.0,1.14
780.0,1.134
781.0,1.135
782.0,1.142
783.0,1.123
784.0,1.128
785.0,1.12
786.0,1.133
787.0,1.118
788.0,1.106
789.0,1.106
790.0,1.084
791.0,1.087
792.0,1.078
793.0,1.062
794.0,1.073
795.0,1.093
796.0,1.069
797.0,1.07
798.0,1.093
799.0,1.088
800.0,1.071
801.0,1.07
802.0,1.067
803.0,1.06
804.0,1.06
805.0,1.055
806.0,1.08
807.0,1.068
808.0,1.069
809.0,1.052
810.0,1.046
811.0,1.051
812.0,1.028
813.0,1.011
814.0,0.9119
815.0,0.9057
816.0,0.8468
817.0,0.8593
818.0,0.8323
819.0,0.9106
820.0,0.8656
821.0,0.985
822.0,0.9614
823.0,0.6977
824.0,0.9425
825.0,0.9698
826.0,0.941
827.0,0.9845
828.0,0.8589
829.0,0.9339
830.0,0.9244
831.0,0.9267
832.0,0.9029
833.0,0.9478
834.0,0.9223
835.0,0.9963
836.0,0.9642
837.0,0.9985
838.0,0.972
839.0,0.9826
840.0,1.003
841.0,0.9909
842.0,0.99
843.0,0.9864
844.0,0.9745
845.0,1.005
846.0,1.0
847.0,0.9808
848.0,0.9762
849.0,0.9485
850.0,0.9086
851.0,0.9636
852.0,0.9562
853.0,0.9194
854.0,0.7948
855.0,0.8719
856.0,0.9535
857.0,0.9739
858.0,0.9672
859.0,0.9675
860.0,0.9689
861.0,0.9638
862.0,0.9788
863.0,1.002
864.0,0.9519
865.0,0.9435
866.0,0.8484
867.0,0.8854
868.0,0.9635
869.0,0.9435
870.0,0.9705
871.0,0.9573
872.0,0.9539
873.0,0.9521
874.0,0.9408
875.0,0.9219
876.0,0.9316
877.0,0.941
878.0,0.9515
879.0,0.9368
880.0,0.9168
881.0,0.9038
882.0,0.9236
883.0,0.9259
884.0,0.922
885.0,0.929
886.0,0.8878
887.0,0.8955
888.0,0.91
889.0,0.9182
890.0,0.9131
891.0,0.9103
892.0,0.8872
893.0,0.8636
894.0,0.8409
895.0,0.8044
896.0,0.7627
897.0,0.6691
898.0,0.722
899.0,0.5667
900.0,0.7311
901.0,0.593
902.0,0.6733
903.0,0.6871
904.0,0.835
905.0,0.8108
906.0,0.7625
907.0,0.64
908.0,0.65
909.0,0.6941
910.0,0.6315
911.0,0.6627
912.0,0.6884
913.0,0.6418
914.0,0.6333
915.0,0.6842
916.0,0.5854
917.0,0.7226
918.0,0.6006
919.0,0.7315
920.0,0.7305
921.0,0.7572
922.0,0.6896
923.0,0.731
924.0,0.7073
925.0,0.6925
926.0,0.6999
927.0,0.7714
928.0,0.6007
929.0,0.5578
930.0,0.4539
931.0,0.4273
932.0,0.3234
933.0,0.2718
934.0,0.168
935.0,0.2707
936.0,0.1808
937.0,0.1851
938.0,0.2227
939.0,0.4142
940.0,0.4875
941.0,0.3828
942.0,0.4334
943.0,0.297
944.0,0.3026
945.0,0.3922
946.0,0.2157
947.0,0.398
948.0,0.2953
949.0,0.5165
950.0,0.1695
951.0,0.5059
952.0,0.2934
953.0,0.3648
954.0,0.4319
955.0,0.3673
956.0,0.3502
957.0,0.2961
958.0,0.4736
959.0,0.3926
960.0,0.4393
961.0,0.4808
962.0,0.4567
963.0,0.5156
964.0,0.4762
965.0,0.5123
966.0,0.5152
967.0,0.514
968.0,0.6527
969.0,0.684
970.0,0.6336
971.0,0.7094
972.0,0.6817
973.0,0.6094
974.0,0.581
975.0,0.5967
976.0,0.5749
977.0,0.6379
978.0,0.6129
979.0,0.6366
980.0,0.6021
981.0,0.7048
982.0,0.6796
983.0,0.6559
984.0,0.7201
985.0,0.6769
986.0,0.7291
987.0,0.7187
988.0,0.7175
989.0,0.7247
990.0,0.7128
991.0,0.7273
992.0,0.7311
993.0,0.7188
994.0,0.7306
995.0,0.7291
996.0,0.7265
997.0,0.7273
998.0,0.7241
999.0,0.7213
1000.0,0.7172
1001.0,0.7252
1002.0,0.709
1003.0,0.7126
1004.0,0.6962
1005.0,0.6694
1006.0,0.6962
1007.0,0.7106
1008.0,0.7075
1009.0,0.7045
1010.0,0.702
1011.0,0.707
1012.0,0.7017
1013.0,0.7052
1014.0,0.7002
1015.0,0.6958
1016.0,0.6927
1017.0,0.6946
1018.0,0.6916
1019.0,0.6783
1020.0,0.6882
1021.0,0.687
1022.0,0.6823
1023.0,0.6896
1024.0,0.6822
1025.0,0.6887
1026.0,0.6861
1027.0,0.6845
1028.0,0.6832
1029.0,0.6753
1030.0,0.6794
1031.0,0.6769
1032.0,0.6748
1033.0,0.6647
1034.0,0.6647
1035.0,0.6668
1036.0,0.6704
1037.0,0.6595
1038.0,0.6625
1039.0,0.6622
1040.0,0.6596
1041.0,0.6624
1042.0,0.6578
1043.0,0.6558
1044.0,0.6582
1045.0,0.6494
1046.0,0.6423
1047.0,0.6482
1048.0,0.6519
1049.0,0.6497
1050.0,0.6468
1051.0,0.6461
1052.0,0.6436
1053.0,0.6387
1054.0,0.6403
1055.0,0.6409
1056.0,0.6389
1057.0,0.6371
1058.0,0.6216
1059.0,0.6226
1060.0,0.6217
1061.0,0.6211
1062.0,0.6246
1063.0,0.6187
1064.0,0.6259
1065.0,0.622
1066.0,0.6093
1067.0,0.6173
1068.0,0.6042
1069.0,0.5853
1070.0,0.6056
1071.0,0.6137
1072.0,0.6077
1073.0,0.5987
1074.0,0.6127
1075.0,0.5861
1076.0,0.6125
1077.0,0.6039
1078.0,0.5933
1079.0,0.6021
1080.0,0.5947
1081.0,0.5775
1082.0,0.5833
1083.0,0.5843
1084.0,0.5773
1085.0,0.5956
1086.0,0.5502
1087.0,0.5629
1088.0,0.5845
1089.0,0.5704
1090.0,0.5607
1091.0,0.5837
1092.0,0.5814
1093.0,0.505
1094.0,0.5334
1095.0,0.5242
1096.0,0.5057
1097.0,0.5678
1098.0,0.499
1099.0,0.5186
1100.0,0.4877
1101.0,0.4921
1102.0,0.4733
1103.0,0.4711
1104.0,0.4715
1105.0,0.5079
1106.0,0.4096
1107.0,0.4865
1108.0,0.4252
1109.0,0.4235
1110.0,0.4838
1111.0,0.3456
1112.0,0.4193
1113.0,0.2853
1114.0,0.3165
1115.0,0.263
1116.0,0.2216
1117.0,0.09497
1118.0,0.2365
1119.0,0.1279
1120.0,0.161
1121.0,0.2069
1122.0,0.09633
1123.0,0.1452
1124.0,0.1227
1125.0,0.1575
1126.0,0.06419
1127.0,0.1769
1128.0,0.1158
1129.0,0.1212
1130.0,0.08453
1131.0,0.3123
1132.0,0.2494
1133.0,0.1702
1134.0,0.05165
1135.0,0.01902
1136.0,0.1464
1137.0,0.3101
1138.0,0.2215
1139.0,0.308
1140.0,0.2659
1141.0,0.2105
1142.0,0.2373
1143.0,0.3276
1144.0,0.1263
1145.0,0.1638
1146.0,0.1768
1147.0,0.07214
1148.0,0.2838
1149.0,0.2337
1150.0,0.1354
1151.0,0.22
1152.0,0.2625
1153.0,0.2498
1154.0,0.1611
1155.0,0.3216
1156.0,0.2939
1157.0,0.3237
1158.0,0.3199
1159.0,0.3392
1160.0,0.2971
1161.0,0.3531
1162.0,0.3558
1163.0,0.459
1164.0,0.4018
1165.0,0.3862
1166.0,0.3787
1167.0,0.4084
1168.0,0.4143
1169.0,0.4214
1170.0,0.4518
1171.0,0.4416
1172.0,0.4461
1173.0,0.4508
1174.0,0.3394
1175.0,0.4379
1176.0,0.4733
1177.0,0.4595
1178.0,0.3585
1179.0,0.4767
1180.0,0.4347
1181.0,0.4476
1182.0,0.3233
1183.0,0.4387
1184.0,0.4159
1185.0,0.4054
1186.0,0.4668
1187.0,0.4489
1188.0,0.3299
1189.0,0.4193
1190.0,0.4562
1191.0,0.4403
1192.0,0.4618
1193.0,0.4452
1194.0,0.457
1195.0,0.4372
1196.0,0.4244
1197.0,0.4544
1198.0,0.4199
1199.0,0.3687
1200.0,0.44
1201.0,0.4283
1202.0,0.4236
1203.0,0.4201
1204.0,0.3741
1205.0,0.43
1206.0,0.4685
1207.0,0.4236
1208.0,0.4135
1209.0,0.4211
1210.0,0.4361
1211.0,0.4198
1212.0,0.4196
1213.0,0.4555
1214.0,0.4272
1215.0,0.4203
1216.0,0.4539
1217.0,0.4441
1218.0,0.4504
1219.0,0.4459
1220.0,0.4506
1221.0,0.4538
1222.0,0.4434
1223.0,0.4402
1224.0,0.4391
1225.0,0.451
1226.0,0.4527
1227.0,0.4234
1228.0,0.4538
1229.0,0.4527
1230.0,0.4461
1231.0,0.4552
1232.0,0.4526
1233.0,0.4416
1234.0,0.4539
1235.0,0.4517
1236.0,0.4544
1237.0,0.4499
1238.0,0.4529
1239.0,0.4471
1240.0,0.4486
1241.0,0.4476
1242.0,0.4457
1243.0,0.442
1244.0,0.4455
1245.0,0.4472
1246.0,0.4445
1247.0,0.4431
1248.0,0.4434
1249.0,0.4443
1250.0,0.4419
1251.0,0.4369
1252.0,0.4361
1253.0,0.4342
1254.0,0.431
1255.0,0.4361
1256.0,0.4267
1257.0,0.425
1258.0,0.4307
1259.0,0.4195
1260.0,0.4212
1261.0,0.4032
1262.0,0.3941
1263.0,0.395
1264.0,0.3717
1265.0,0.3924
1266.0,0.3817
1267.0,0.3856
1268.0,0.3702
1269.0,0.2621
1270.0,0.3853
1271.0,0.4012
1272.0,0.4018
1273.0,0.3982
1274.0,0.3987
1275.0,0.4034
1276.0,0.4062
1277.0,0.4076
1278.0,0.4131
1279.0,0.4096
1280.0,0.4042
1281.0,0.3847
1282.0,0.3689
1283.0,0.3977
1284.0,0.4076
1285.0,0.41
1286.0,0.4146
1287.0,0.41
1288.0,0.4094
1289.0,0.3999
1290.0,0.4056
1291.0,0.4106
1292.0,0.3924
1293.0,0.4043
1294.0,0.4018
1295.0,0.4014
1296.0,0.3876
1297.0,0.3702
1298.0,0.3915
1299.0,0.4041
1300.0,0.3541
1301.0,0.3625
1302.0,0.39
1303.0,0.3482
1304.0,0.3084
1305.0,0.383
1306.0,0.3837
1307.0,0.3111
1308.0,0.347
1309.0,0.3816
1310.0,0.3057
1311.0,0.3352
1312.0,0.328
1313.0,0.3234
1314.0,0.2936
1315.0,0.2923
1316.0,0.3318
1317.0,0.3156
1318.0,0.3383
1319.0,0.2782
1320.0,0.2665
1321.0,0.3057
1322.0,0.3107
1323.0,0.2453
1324.0,0.2728
1325.0,0.3276
1326.0,0.2885
1327.0,0.277
1328.0,0.2426
1329.0,0.1919
1330.0,0.2447
1331.0,0.16
1332.0,0.161
1333.0,0.2206
1334.0,0.1822
1335.0,0.2442
1336.0,0.1991
1337.0,0.1799
1338.0,0.1941
1339.0,0.1917
1340.0,0.1834
1341.0,0.186
1342.0,0.1949
1343.0,0.1473
1344.0,0.08803
1345.0,0.1248
1346.0,0.07297
1347.0,0.07601
1348.0,0.00751
1349.0,0.02372
1350.0,0.02252
1351.0,0.007928
1352.0,0.003092
1353.0,0.0002501
1354.0,0.000654
1355.0,1.289e-05
1356.0,0.0001274
1357.0,0.0001907
1358.0,1.474e-05
1359.0,3.528e-06
1360.0,8.483e-06
1361.0,3.887e-08
1362.0,2.056e-10
1363.0,1.316e-05
1364.0,5.962e-06
1365.0,1.485e-10
1366.0,4.815e-05
1367.0,1.857e-05
1368.0,4.957e-12
1369.0,2.35e-06
1370.0,1.514e-06
1371.0,1.245e-07
1372.0,1.033e-05
1373.0,0.0001306
1374.0,0.0004461
1375.0,0.0007944
1376.0,0.0005804
1377.0,0.0002873
1378.0,0.002356
1379.0,0.0001237
1380.0,0.0002106
1381.0,6.928e-06
1382.0,1.002e-05
1383.0,2.042e-07
1384.0,2.933e-06
1385.0,7.117e-06
1386.0,1.067e-05
1387.0,0.0005359
1388.0,1.171e-05
1389.0,0.00133
1390.0,0.001134
1391.0,0.0008241
1392.0,6.213e-05
1393.0,0.0002749
1394.0,0.0002246
1395.0,2.518e-06
1396.0,4.674e-08
1397.0,0.0001246
1398.0,0.0027
1399.0,0.001722
1400.0,2.869e-08
1401.0,7.354e-08
1402.0,0.003256
1403.0,0.004371
1404.0,0.001378
1405.0,1.549e-06
1406.0,0.003992
1407.0,0.0003426
1408.0,0.003216
1409.0,0.00135
1410.0,0.0009703
1411.0,0.003801
1412.0,0.004612
1413.0,0.03348
1414.0,0.0007487
1415.0,0.0004029
1416.0,0.04636
1417.0,0.01733
1418.0,0.01977
1419.0,0.003255
1420.0,0.01225
1421.0,0.01359
1422.0,0.05942
1423.0,0.01249
1424.0,0.0226
1425.0,0.03418
1426.0,0.03606
1427.0,0.05978
1428.0,0.00726
1429.0,0.04746
1430.0,0.07416
1431.0,0.07977
1432.0,0.005823
1433.0,0.05322
1434.0,0.02834
1435.0,0.03257
1436.0,0.05594
1437.0,0.043
1438.0,0.02012
1439.0,0.07299
1440.0,0.05517
1441.0,0.04522
1442.0,0.0493
1443.0,0.0571
1444.0,0.07724
1445.0,0.06417
1446.0,0.03005
1447.0,0.04737
1448.0,0.1324
1449.0,0.1188
1450.0,0.03504
1451.0,0.01513
1452.0,0.07507
1453.0,0.09626
1454.0,0.1523
1455.0,0.07669
1456.0,0.1051
1457.0,0.1331
1458.0,0.1497
1459.0,0.1781
1460.0,0.09679
1461.0,0.1041
1462.0,0.1465
1463.0,0.05181
1464.0,0.1676
1465.0,0.1022
1466.0,0.07858
1467.0,0.04512
