interpolation:linear
wavelength,value
280.0,9.636e-28
280.5,5.572e-26
281.0,3.741e-25
281.5,2.0609999999999998e-23
282.0,2.318e-22
282.5,1.1220000000000001e-21
283.0,6.394e-21
283.5,1.369e-20
284.0,6.273e-19
284.5,2.812e-18
285.0,8.741e-18
285.5,9.371e-17
286.0,5.029e-16
286.5,3.802e-15
287.0,1.568e-14
287.5,9.374e-14
288.0,5.902e-13
288.5,2.799e-12
289.0,1.125e-11
289.5,5.109e-11
290.0,1.95e-10
290.5,5.166e-10
291.0,1.493e-09
291.5,6.123e-09
292.0,1.856e-08
292.5,3.09e-08
293.0,8.151e-08
293.5,2.59e-07
294.0,4.896e-07
294.5,9.442e-07
295.0,1.863e-06
295.5,5.191e-06
296.0,1.028e-05
296.5,1.467e-05
297.0,2.012e-05
297.5,5.442e-05
298.0,8.593e-05
298.5,8.636e-05
299.0,0.0001895
299.5,0.0003071
300.0,0.0003331
300.5,0.0004735
301.0,0.0008205
301.5,0.001249
302.0,0.001046
302.5,0.002055
303.0,0.003695
303.5,0.004641
304.0,0.004319
304.5,0.006188
305.0,0.008809
305.5,0.009711
306.0,0.009304
306.5,0.01133
307.0,0.01582
307.5,0.01982
308.0,0.02087
308.5,0.02402
309.0,0.02158
309.5,0.02459
310.0,0.02469
310.5,0.04011
311.0,0.05029
311.5,0.04871
312.0,0.04795
312.5,0.05776
313.0,0.0625
313.5,0.06169
314.0,0.0759
314.5,0.06551
315.0,0.08614
315.5,0.07381
316.0,0.06304
316.5,0.08868
317.0,0.1109
317.5,0.1171
318.0,0.09018
318.5,0.1084
319.0,0.1268
319.5,0.1075
320.0,0.1313
320.5,0.1587
321.0,0.1367
321.5,0.1314
322.0,0.1469
322.5,0.1283
323.0,0.1251
323.5,0.1473
324.0,0.1722
324.5,0.1779
325.0,0.1603
325.5,0.2026
326.0,0.2422
326.5,0.2399
327.0,0.242
327.5,0.2369
328.0,0.2165
328.5,0.2231
329.0,0.2628
329.5,0.2979
330.0,0.3039
330.5,0.2487
331.0,0.2561
331.5,0.2585
332.0,0.2756
332.5,0.2716
333.0,0.2736
333.5,0.2524
334.0,0.2605
334.5,0.2974
335.0,0.2782
335.5,0.3171
336.0,0.2204
336.5,0.2685
337.0,0.2228
337.5,0.2792
338.0,0.2703
338.5,0.3062
339.0,0.3063
339.5,0.2948
340.0,0.3555
340.5,0.3215
341.0,0.3096
341.5,0.2882
342.0,0.3466
342.5,0.3263
343.0,0.3588
343.5,0.3381
344.0,0.254
344.5,0.2524
345.0,0.3393
345.5,0.3492
346.0,0.2986
346.5,0.3399
347.0,0.3652
347.5,0.2961
348.0,0.3403
348.5,0.3422
349.0,0.319
349.5,0.3169
350.0,0.3936
350.5,0.4167
351.0,0.3732
351.5,0.3622
352.0,0.3918
352.5,0.3076
353.0,0.3893
353.5,0.4181
354.0,0.4359
354.5,0.4437
355.0,0.4436
355.5,0.4023
356.0,0.4225
356.5,0.3621
357.0,0.3002
357.5,0.3689
358.0,0.2934
358.5,0.2517
359.0,0.3532
359.5,0.4513
360.0,0.4801
360.5,0.3852
361.0,0.3523
361.5,0.407
362.0,0.3531
362.5,0.4901
363.0,0.4416
363.5,0.408
364.0,0.5005
364.5,0.4292
365.0,0.4384
365.5,0.552
366.0,0.5866
366.5,0.5528
367.0,0.54
367.5,0.5621
368.0,0.4933
368.5,0.4992
369.0,0.5407
369.5,0.578
370.0,0.618
370.5,0.481
371.0,0.5154
371.5,0.6467
372.0,0.4304
372.5,0.5175
373.0,0.5279
373.5,0.3444
374.0,0.5018
374.5,0.4167
375.0,0.4061
375.5,0.608
376.0,0.5054
376.5,0.5251
377.0,0.5574
377.5,0.6538
378.0,0.7106
378.5,0.6735
379.0,0.5574
379.5,0.5106
380.0,0.5323
380.5,0.6464
381.0,0.6494
381.5,0.5161
382.0,0.4595
382.5,0.3927
383.0,0.3645
383.5,0.3519
384.0,0.3891
384.5,0.5737
385.0,0.5702
385.5,0.5323
386.0,0.457
386.5,0.6017
387.0,0.5012
387.5,0.5642
388.0,0.5222
388.5,0.5173
389.0,0.5598
389.5,0.6795
390.0,0.6835
390.5,0.6304
391.0,0.7438
391.5,0.7603
392.0,0.6418
392.5,0.5759
393.0,0.3211
393.5,0.2339
394.0,0.4769
394.5,0.6076
395.0,0.743
395.5,0.7563
396.0,0.6571
396.5,0.3849
397.0,0.2895
397.5,0.5899
398.0,0.8278
398.5,0.8573
399.0,0.93
399.5,0.9288
400.0,0.9664
401.0,0.9961
402.0,1.055
403.0,1.006
404.0,0.9936
405.0,0.9969
406.0,0.9841
407.0,0.9715
408.0,1.013
409.0,1.088
410.0,0.9533
411.0,1.036
412.0,1.116
413.0,1.092
414.0,1.108
415.0,1.115
416.0,1.137
417.0,1.113
418.0,1.096
419.0,1.113
420.0,1.112
421.0,1.166
422.0,1.112
423.0,1.089
424.0,1.155
425.0,1.156
426.0,1.129
427.0,1.111
428.0,1.085
429.0,1.03
430.0,0.9034
431.0,0.8979
432.0,1.162
433.0,1.171
434.0,1.09
435.0,1.142
436.0,1.289
437.0,1.274
438.0,1.163
439.0,1.205
440.0,1.246
441.0,1.294
442.0,1.391
443.0,1.358
444.0,1.391
445.0,1.363
446.0,1.303
447.0,1.412
448.0,1.437
449.0,1.445
450.0,1.489
451.0,1.547
452.0,1.493
453.0,1.407
454.0,1.471
455.0,1.483
456.0,1.521
457.0,1.55
458.0,1.5
459.0,1.495
460.0,1.502
461.0,1.539
462.0,1.553
463.0,1.545
464.0,1.521
465.0,1.504
466.0,1.521
467.0,1.496
468.0,1.516
469.0,1.527
470.0,1.48
471.0,1.48
472.0,1.562
473.0,1.545
474.0,1.55
475.0,1.566
476.0,1.522
477.0,1.529
478.0,1.574
479.0,1.566
480.0,1.571
481.0,1.603
482.0,1.613
483.0,1.595
484.0,1.564
485.0,1.492
486.0,1.306
487.0,1.37
488.0,1.505
489.0,1.512
490.0,1.592
491.0,1.567
492.0,1.481
493.0,1.532
494.0,1.549
495.0,1.564
496.0,1.575
497.0,1.602
498.0,1.529
499.0,1.55
500.0,1.507
501.0,1.482
502.0,1.464
503.0,1.526
504.0,1.491
505.0,1.545
506.0,1.596
507.0,1.52
508.0,1.474
509.0,1.516
510.0,1.509
511.0,1.551
512.0,1.569
513.0,1.486
514.0,1.478
515.0,1.464
516.0,1.462
517.0,1.3
518.0,1.368
519.0,1.437
520.0,1.491
521.0,1.506
522.0,1.509
523.0,1.484
524.0,1.538
525.0,1.558
526.0,1.49
527.0,1.406
528.0,1.489
529.0,1.571
530.0,1.55
531.0,1.574
532.0,1.522
533.0,1.478
534.0,1.523
535.0,1.557
536.0,1.572
537.0,1.511
538.0,1.539
539.0,1.527
540.0,1.465
541.0,1.477
542.0,1.525
543.0,1.509
544.0,1.537
545.0,1.533
546.0,1.541
547.0,1.542
548.0,1.524
549.0,1.529
550.0,1.549
551.0,1.531
552.0,1.543
553.0,1.516
554.0,1.553
555.0,1.558
556.0,1.539
557.0,1.492
558.0,1.482
559.0,1.456
560.0,1.475
561.0,1.496
562.0,1.486
563.0,1.528
564.0,1.488
565.0,1.476
566.0,1.456
567.0,1.485
568.0,1.474
569.0,1.441
570.0,1.442
571.0,1.433
572.0,1.47
573.0,1.487
574.0,1.483
575.0,1.456
576.0,1.444
577.0,1.46
578.0,1.438
579.0,1.444
580.0,1.471
581.0,1.478
582.0,1.506
583.0,1.509
584.0,1.522
585.0,1.486
586.0,1.456
587.0,1.489
588.0,1.456
589.0,1.296
590.0,1.355
591.0,1.432
592.0,1.416
593.0,1.436
594.0,1.427
595.0,1.395
596.0,1.446
597.0,1.432
598.0,1.428
599.0,1.429
600.0,1.431
601.0,1.419
602.0,1.41
603.0,1.434
604.0,1.458
605.0,1.451
606.0,1.445
607.0,1.459
608.0,1.443
609.0,1.446
610.0,1.436
611.0,1.443
612.0,1.44
613.0,1.422
614.0,1.403
615.0,1.433
616.0,1.386
617.0,1.384
618.0,1.437
619.0,1.423
620.0,1.433
621.0,1.435
622.0,1.419
623.0,1.398
624.0,1.374
625.0,1.372
626.0,1.392
627.0,1.409
628.0,1.328
629.0,1.381
630.0,1.35
631.0,1.377
632.0,1.36
633.0,1.401
634.0,1.386
635.0,1.408
636.0,1.389
637.0,1.412
638.0,1.425
639.0,1.409
640.0,1.395
641.0,1.394
642.0,1.388
643.0,1.407
644.0,1.402
645.0,1.405
646.0,1.374
647.0,1.361
648.0,1.363
649.0,1.337
650.0,1.34
651.0,1.398
652.0,1.345
653.0,1.38
654.0,1.365
655.0,1.317
656.0,1.166
657.0,1.197
658.0,1.341
659.0,1.35
660.0,1.356
661.0,1.366
662.0,1.37
663.0,1.343
664.0,1.358
665.0,1.359
666.0,1.36
667.0,1.358
668.0,1.359
669.0,1.38
670.0,1.374
671.0,1.374
672.0,1.362
673.0,1.383
674.0,1.378
675.0,1.366
676.0,1.375
677.0,1.362
678.0,1.366
679.0,1.344
680.0,1.355
681.0,1.346
682.0,1.345
683.0,1.343
684.0,1.336
685.0,1.348
686.0,1.34
687.0,0.9366
688.0,1.076
689.0,1.079
690.0,1.124
691.0,1.175
692.0,1.212
693.0,1.203
694.0,1.193
695.0,1.237
696.0,1.239
697.0,1.308
698.0,1.288
699.0,1.262
700.0,1.247
701.0,1.236
702.0,1.243
703.0,1.246
704.0,1.283
705.0,1.285
706.0,1.283
707.0,1.284
708.0,1.287
709.0,1.288
710.0,1.289
711.0,1.287
712.0,1.282
713.0,1.27
714.0,1.275
715.0,1.237
716.0,1.238
717.0,1.091
718.0,1.006
719.0,0.9234
720.0,0.9685
721.0,1.059
722.0,1.2
723.0,1.123
724.0,1.019
725.0,1.005
726.0,1.051
727.0,1.062
728.0,1.004
729.0,1.036
730.0,1.096
731.0,1.051
732.0,1.117
733.0,1.177
734.0,1.203
735.0,1.179
736.0,1.178
737.0,1.183
738.0,1.197
739.0,1.174
740.0,1.203
741.0,1.191
742.0,1.192
743.0,1.222
744.0,1.218
745.0,1.218
746.0,1.224
747.0,1.227
748.0,1.224
749.0,1.211
750.0,1.21
751.0,1.198
752.0,1.203
753.0,1.209
754.0,1.212
755.0,1.206
756.0,1.205
757.0,1.207
758.0,1.193
759.0,1.171
760.0,0.2391
761.0,0.1346
762.0,0.6453
763.0,0.3488
764.0,0.5012
765.0,0.6458
766.0,0.7714
767.0,0.9521
768.0,1.082
769.0,1.101
770.0,1.134
771.0,1.142
772.0,1.144
773.0,1.152
774.0,1.146
775.0,1.138
776.0,1.152
777.0,1.136
778.0,1.13
779.0,1.131
780.0,1.125
781.0,1.126
782.0,1.133
783.0,1.113
784.0,1.119
785.0,1.111
786.0,1.123
787.0,1.106
788.0,1.093
789.0,1.093
790.0,1.067
791.0,1.073
792.0,1.065
793.0,1.049
794.0,1.064
795.0,1.083
796.0,1.053
797.0,1.055
798.0,1.082
799.0,1.076
800.0,1.058
801.0,1.056
802.0,1.053
803.0,1.046
804.0,1.047
805.0,1.043
806.0,1.07
807.0,1.058
808.0,1.059
809.0,1.04
810.0,1.033
811.0,1.036
812.0,1.009
813.0,0.9894
814.0,0.8788
815.0,0.8732
816.0,0.8141
817.0,0.8281
818.0,0.7991
819.0,0.8862
820.0,0.8375
821.0,0.9692
822.0,0.9432
823.0,0.6572
824.0,0.9193
825.0,0.9532
826.0,0.9201
827.0,0.9679
828.0,0.8296
829.0,0.9142
830.0,0.9032
831.0,0.9062
832.0,0.8801
833.0,0.9318
834.0,0.9019
835.0,0.9846
836.0,0.9464
837.0,0.9873
838.0,0.9584
839.0,0.9722
840.0,0.9932
841.0,0.9799
842.0,0.981
843.0,0.9794
844.0,0.9665
845.0,0.9984
846.0,0.9939
847.0,0.9751
848.0,0.9697
849.0,0.9422
850.0,0.9027
851.0,0.9564
852.0,0.9495
853.0,0.9137
854.0,0.7893
855.0,0.8668
856.0,0.9475
857.0,0.9684
858.0,0.9614
859.0,0.9622
860.0,0.9638
861.0,0.9587
862.0,0.9737
863.0,0.9968
864.0,0.947
865.0,0.9388
866.0,0.8442
867.0,0.881
868.0,0.9588
869.0,0.939
870.0,0.9658
871.0,0.9527
872.0,0.9494
873.0,0.9476
874.0,0.9364
875.0,0.9175
876.0,0.9272
877.0,0.9366
878.0,0.9469
879.0,0.9324
880.0,0.9125
881.0,0.899
882.0,0.9186
883.0,0.9214
884.0,0.9173
885.0,0.9243
886.0,0.8818
887.0,0.8906
888.0,0.9041
889.0,0.9138
890.0,0.907
891.0,0.9052
892.0,0.8801
893.0,0.8539
894.0,0.8263
895.0,0.784
896.0,0.7399
897.0,0.6398
898.0,0.6958
899.0,0.5344
900.0,0.7101
901.0,0.5599
902.0,0.6506
903.0,0.6592
904.0,0.8207
905.0,0.7938
906.0,0.7441
907.0,0.6107
908.0,0.622
909.0,0.6709
910.0,0.5985
911.0,0.6348
912.0,0.6626
913.0,0.6077
914.0,0.6017
915.0,0.6518
916.0,0.5533
917.0,0.6966
918.0,0.5675
919.0,0.708
920.0,0.7127
921.0,0.7407
922.0,0.6658
923.0,0.7153
924.0,0.6827
925.0,0.668
926.0,0.6753
927.0,0.7527
928.0,0.5618
929.0,0.5154
930.0,0.4089
931.0,0.3869
932.0,0.2825
933.0,0.2316
934.0,0.1311
935.0,0.2354
936.0,0.1496
937.0,0.1519
938.0,0.1858
939.0,0.3751
940.0,0.4485
941.0,0.3421
942.0,0.3939
943.0,0.2619
944.0,0.2734
945.0,0.3522
946.0,0.1829
947.0,0.3547
948.0,0.2612
949.0,0.4712
950.0,0.1364
951.0,0.4634
952.0,0.2537
953.0,0.3246
954.0,0.3947
955.0,0.328
956.0,0.3167
957.0,0.2546
958.0,0.4441
959.0,0.3564
960.0,0.3994
961.0,0.4455
962.0,0.4219
963.0,0.4839
964.0,0.4442
965.0,0.4819
966.0,0.4826
967.0,0.4808
968.0,0.6361
969.0,0.6651
970.0,0.612
971.0,0.6968
972.0,0.6674
973.0,0.5848
974.0,0.5556
975.0,0.5753
976.0,0.5483
977.0,0.6201
978.0,0.5907
979.0,0.6176
980.0,0.5814
981.0,0.693
982.0,0.664
983.0,0.6383
984.0,0.7126
985.0,0.6615
986.0,0.7243
987.0,0.7111
988.0,0.7098
989.0,0.7216
990.0,0.7056
991.0,0.7239
992.0,0.728
993.0,0.7128
994.0,0.7278
995.0,0.7268
996.0,0.7237
997.0,0.7247
998.0,0.7214
999.0,0.7188
1000.0,0.714
1001.0,0.7227
1002.0,0.7037
1003.0,0.71
1004.0,0.6929
1005.0,0.6672
1006.0,0.6935
1007.0,0.7081
1008.0,0.7045
1009.0,0.7009
1010.0,0.6981
1011.0,0.7046
1012.0,0.6987
1013.0,0.7029
1014.0,0.698
1015.0,0.6935
1016.0,0.6904
1017.0,0.6922
1018.0,0.6895
1019.0,0.6752
1020.0,0.686
1021.0,0.685
1022.0,0.6798
1023.0,0.6871
1024.0,0.6785
1025.0,0.6866
1026.0,0.6837
1027.0,0.6822
1028.0,0.6808
1029.0,0.6728
1030.0,0.6773
1031.0,0.6747
1032.0,0.6727
1033.0,0.6626
1034.0,0.6627
1035.0,0.6647
1036.0,0.6682
1037.0,0.6574
1038.0,0.6603
1039.0,0.66
1040.0,0.6574
1041.0,0.66
1042.0,0.6555
1043.0,0.6534
1044.0,0.6558
1045.0,0.6469
1046.0,0.6398
1047.0,0.6456
1048.0,0.6492
1049.0,0.6469
1050.0,0.644
1051.0,0.6431
1052.0,0.6406
1053.0,0.6355
1054.0,0.637
1055.0,0.6374
1056.0,0.6352
1057.0,0.6333
1058.0,0.6178
1059.0,0.6186
1060.0,0.6177
1061.0,0.617
1062.0,0.6203
1063.0,0.6142
1064.0,0.6215
1065.0,0.6172
1066.0,0.6049
1067.0,0.6128
1068.0,0.5995
1069.0,0.5809
1070.0,0.6008
1071.0,0.6098
1072.0,0.603
1073.0,0.5943
1074.0,0.6094
1075.0,0.5798
1076.0,0.6089
1077.0,0.5986
1078.0,0.5875
1079.0,0.5991
1080.0,0.5894
1081.0,0.571
1082.0,0.5794
1083.0,0.581
1084.0,0.5699
1085.0,0.5908
1086.0,0.5406
1087.0,0.5569
1088.0,0.5806
1089.0,0.5637
1090.0,0.5519
1091.0,0.579
1092.0,0.5774
1093.0,0.4923
1094.0,0.5286
1095.0,0.5125
1096.0,0.4916
1097.0,0.564
1098.0,0.4842
1099.0,0.5047
1100.0,0.4704
1101.0,0.4759
1102.0,0.4553
1103.0,0.4514
1104.0,0.4519
1105.0,0.4935
1106.0,0.3821
1107.0,0.4696
1108.0,0.4008
1109.0,0.401
1110.0,0.4659
1111.0,0.3197
1112.0,0.3978
1113.0,0.257
1114.0,0.2868
1115.0,0.238
1116.0,0.1922
1117.0,0.07299
1118.0,0.2083
1119.0,0.1053
1120.0,0.1326
1121.0,0.1749
1122.0,0.07521
1123.0,0.1198
1124.0,0.1011
1125.0,0.1315
1126.0,0.04736
1127.0,0.1482
1128.0,0.09037
1129.0,0.09564
1130.0,0.06362
1131.0,0.2769
1132.0,0.218
1133.0,0.1404
1134.0,0.03715
1135.0,0.01386
1136.0,0.1179
1137.0,0.2727
1138.0,0.1926
1139.0,0.283
1140.0,0.2381
1141.0,0.183
1142.0,0.2097
1143.0,0.2959
1144.0,0.1055
1145.0,0.1354
1146.0,0.146
1147.0,0.053
1148.0,0.2562
1149.0,0.2059
1150.0,0.1133
1151.0,0.1912
1152.0,0.2338
1153.0,0.2267
1154.0,0.1315
1155.0,0.2953
1156.0,0.2668
1157.0,0.298
1158.0,0.2948
1159.0,0.3168
1160.0,0.2721
1161.0,0.3325
1162.0,0.3344
1163.0,0.4464
1164.0,0.3848
1165.0,0.3649
1166.0,0.3611
1167.0,0.3923
1168.0,0.397
1169.0,0.4058
1170.0,0.4394
1171.0,0.4287
1172.0,0.4354
1173.0,0.4385
1174.0,0.3178
1175.0,0.4276
1176.0,0.4676
1177.0,0.4505
1178.0,0.342
1179.0,0.4714
1180.0,0.4234
1181.0,0.4367
1182.0,0.3054
1183.0,0.4294
1184.0,0.4038
1185.0,0.3909
1186.0,0.4593
1187.0,0.4388
1188.0,0.311
1189.0,0.4091
1190.0,0.4489
1191.0,0.4285
1192.0,0.4549
1193.0,0.4368
1194.0,0.4496
1195.0,0.4269
1196.0,0.4121
1197.0,0.449
1198.0,0.412
1199.0,0.3541
1200.0,0.4314
1201.0,0.4174
1202.0,0.4142
1203.0,0.4108
1204.0,0.3613
1205.0,0.4228
1206.0,0.4649
1207.0,0.4135
1208.0,0.4059
1209.0,0.414
1210.0,0.4304
1211.0,0.4114
1212.0,0.4081
1213.0,0.4505
1214.0,0.4171
1215.0,0.4096
1216.0,0.449
1217.0,0.4379
1218.0,0.4455
1219.0,0.4403
1220.0,0.4458
1221.0,0.4498
1222.0,0.4386
1223.0,0.4348
1224.0,0.4327
1225.0,0.447
1226.0,0.4496
1227.0,0.4167
1228.0,0.4514
1229.0,0.4496
1230.0,0.4423
1231.0,0.4537
1232.0,0.451
1233.0,0.4371
1234.0,0.453
1235.0,0.4503
1236.0,0.4534
1237.0,0.4478
1238.0,0.4519
1239.0,0.4461
1240.0,0.4478
1241.0,0.446
1242.0,0.4447
1243.0,0.4411
1244.0,0.4444
1245.0,0.4462
1246.0,0.4436
1247.0,0.442
1248.0,0.4419
1249.0,0.4431
1250.0,0.4405
1251.0,0.4351
1252.0,0.4349
1253.0,0.432
1254.0,0.4281
1255.0,0.4346
1256.0,0.4234
1257.0,0.4213
1258.0,0.4284
1259.0,0.4145
1260.0,0.4164
1261.0,0.395
1262.0,0.3842
1263.0,0.385
1264.0,0.3578
1265.0,0.3825
1266.0,0.3695
1267.0,0.375
1268.0,0.3572
1269.0,0.2321
1270.0,0.3741
1271.0,0.3935
1272.0,0.3946
1273.0,0.3906
1274.0,0.3916
1275.0,0.3969
1276.0,0.4004
1277.0,0.4026
1278.0,0.4095
1279.0,0.4059
1280.0,0.4007
1281.0,0.382
1282.0,0.3675
1283.0,0.3959
1284.0,0.4055
1285.0,0.4081
1286.0,0.4132
1287.0,0.4075
1288.0,0.4072
1289.0,0.3956
1290.0,0.4036
1291.0,0.409
1292.0,0.3866
1293.0,0.4016
1294.0,0.3989
1295.0,0.3976
1296.0,0.3811
1297.0,0.3616
1298.0,0.3869
1299.0,0.4019
1300.0,0.3442
1301.0,0.354
1302.0,0.3856
1303.0,0.3392
1304.0,0.293
1305.0,0.378
1306.0,0.3783
1307.0,0.298
1308.0,0.3392
1309.0,0.3757
1310.0,0.2926
1311.0,0.326
1312.0,0.3178
1313.0,0.3122
1314.0,0.2808
1315.0,0.2779
1316.0,0.3215
1317.0,0.305
1318.0,0.33
1319.0,0.2621
1320.0,0.2531
1321.0,0.2934
1322.0,0.2969
1323.0,0.2268
1324.0,0.2571
1325.0,0.3172
1326.0,0.2744
1327.0,0.2622
1328.0,0.2272
1329.0,0.1734
1330.0,0.2243
1331.0,0.1386
1332.0,0.1421
1333.0,0.197
1334.0,0.1654
1335.0,0.226
1336.0,0.1804
1337.0,0.1604
1338.0,0.1735
1339.0,0.1723
1340.0,0.1668
1341.0,0.1647
1342.0,0.1729
1343.0,0.1208
1344.0,0.07219
1345.0,0.1038
1346.0,0.054
1347.0,0.05532
1348.0,0.004039
1349.0,0.01403
1350.0,0.01422
1351.0,0.003843
1352.0,0.001164
1353.0,6.755e-05
1354.0,0.0002145
1355.0,2.25e-06
1356.0,3.333e-05
1357.0,5.06e-05
1358.0,2.637e-06
1359.0,4.047e-07
1360.0,1.294e-06
1361.0,2.202e-09
1362.0,7.245e-12
1363.0,1.854e-06
1364.0,7.789e-07
1365.0,3.192e-12
1366.0,7.691e-06
1367.0,3.054e-06
1368.0,3.872e-14
1369.0,2.947e-07
1370.0,1.58e-07
1371.0,9.962e-09
1372.0,1.681e-06
1373.0,2.969e-05
1374.0,0.0001261
1375.0,0.0002296
1376.0,0.0001921
1377.0,8.986e-05
1378.0,0.0008435
1379.0,3.792e-05
1380.0,5.77e-05
1381.0,1.598e-06
1382.0,1.552e-06
1383.0,2.519e-08
1384.0,3.445e-07
1385.0,1.34e-06
1386.0,1.465e-06
1387.0,0.0001379
1388.0,2.747e-06
1389.0,0.0004243
1390.0,0.0003654
1391.0,0.0002488
1392.0,1.674e-05
1393.0,8.451e-05
1394.0,5.046e-05
1395.0,4.141e-07
1396.0,3.001e-09
1397.0,3.493e-05
1398.0,0.0009563
1399.0,0.0006058
1400.0,1.447e-09
1401.0,5.19e-09
1402.0,0.001497
1403.0,0.001923
1404.0,0.000592
1405.0,2.166e-07
1406.0,0.001599
1407.0,0.000138
1408.0,0.0013
1409.0,0.000466
1410.0,0.0003584
1411.0,0.001684
1412.0,0.002204
1413.0,0.02077
1414.0,0.0002807
1415.0,0.000139
1416.0,0.03263
1417.0,0.01032
1418.0,0.01181
1419.0,0.001853
1420.0,0.007241
1421.0,0.007839
1422.0,0.04249
1423.0,0.008345
1424.0,0.01554
1425.0,0.02303
1426.0,0.02575
1427.0,0.04648
1428.0,0.003829
1429.0,0.03514
1430.0,0.05896
1431.0,0.06454
1432.0,0.003025
1433.0,0.04135
1434.0,0.02118
1435.0,0.02166
1436.0,0.04105
1437.0,0.03145
1438.0,0.01349
1439.0,0.0555
1440.0,0.0416
1441.0,0.03204
1442.0,0.03549
1443.0,0.04407
1444.0,0.06082
1445.0,0.04798
1446.0,0.02169
1447.0,0.03416
1448.0,0.1132
1449.0,0.09859
1450.0,0.02532
1451.0,0.01025
1452.0,0.05964
1453.0,0.07816
1454.0,0.1334
1455.0,0.06318
1456.0,0.08505
1457.0,0.1137
1458.0,0.1336
1459.0,0.1581
1460.0,0.08252
1461.0,0.08634
1462.0,0.1263
1463.0,0.04101
1464.0,0.1495
