interpolation:linear
wavelength,value
280.0,4.152e-19
280.5,6.786e-18
281.0,2.87e-17
281.5,4.655e-16
282.0,2.491e-15
282.5,7.31e-15
283.0,2.402e-14
283.5,3.909e-14
284.0,5.001e-13
284.5,1.253e-12
285.0,2.078e-12
285.5,1.063e-11
286.0,4.226e-11
286.5,1.726e-10
287.0,4.519e-10
287.5,1.49e-09
288.0,4.428e-09
288.5,1.409e-08
289.0,3.756e-08
289.5,1.085e-07
290.0,2.862e-07
290.5,5.561e-07
291.0,1.107e-06
291.5,2.825e-06
292.0,5.822e-06
292.5,7.796e-06
293.0,1.556e-05
293.5,3.381e-05
294.0,4.944e-05
294.5,7.856e-05
295.0,0.0001215
295.5,0.0002504
296.0,0.0004036
296.5,0.0004735
297.0,0.0005562
297.5,0.001211
298.0,0.001604
298.5,0.001415
299.0,0.002749
299.5,0.003667
300.0,0.003593
300.5,0.004622
301.0,0.006936
301.5,0.009396
302.0,0.007437
302.5,0.01321
303.0,0.02101
303.5,0.0246
304.0,0.02211
304.5,0.02921
305.0,0.03743
305.5,0.0387
306.0,0.03612
306.5,0.04226
307.0,0.0545
307.5,0.06358
308.0,0.06597
308.5,0.07332
309.0,0.06406
309.5,0.06779
310.0,0.06577
310.5,0.1049
311.0,0.1279
311.5,0.1221
312.0,0.114
312.5,0.1326
313.0,0.1408
313.5,0.1405
314.0,0.1662
314.5,0.1367
315.0,0.1777
315.5,0.155
316.0,0.1274
316.5,0.1736
317.0,0.2166
317.5,0.2296
318.0,0.173
318.5,0.2004
319.0,0.23
319.5,0.1993
320.0,0.2437
320.5,0.2842
321.0,0.2377
321.5,0.227
322.0,0.2604
322.5,0.2263
323.0,0.2158
323.5,0.246
324.0,0.2854
324.5,0.2973
325.0,0.2725
325.5,0.3385
326.0,0.3957
326.5,0.3862
327.0,0.39
327.5,0.3828
328.0,0.3553
328.5,0.3573
329.0,0.4141
329.5,0.4665
330.0,0.4758
330.5,0.3923
331.0,0.4045
331.5,0.4038
332.0,0.4248
332.5,0.416
333.0,0.419
333.5,0.3884
334.0,0.4003
334.5,0.452
335.0,0.42
335.5,0.4765
336.0,0.3304
336.5,0.403
337.0,0.3347
337.5,0.4188
338.0,0.4021
338.5,0.4534
339.0,0.452
339.5,0.4341
340.0,0.5238
340.5,0.4723
341.0,0.4526
341.5,0.4198
342.0,0.5037
342.5,0.473
343.0,0.5193
343.5,0.4886
344.0,0.3675
344.5,0.3635
345.0,0.4867
345.5,0.4993
346.0,0.426
346.5,0.4838
347.0,0.5188
347.5,0.4198
348.0,0.4813
348.5,0.483
349.0,0.4491
349.5,0.4452
350.0,0.5518
350.5,0.5831
351.0,0.5213
351.5,0.5053
352.0,0.5453
352.5,0.4271
353.0,0.5393
353.5,0.5781
354.0,0.6017
354.5,0.6115
355.0,0.6104
355.5,0.5523
356.0,0.579
356.5,0.4954
357.0,0.4102
357.5,0.5033
358.0,0.3996
358.5,0.3422
359.0,0.4795
359.5,0.6119
360.0,0.65
360.5,0.5206
361.0,0.4754
361.5,0.5478
362.0,0.4741
362.5,0.6568
363.0,0.5905
363.5,0.5445
364.0,0.6668
364.5,0.5708
365.0,0.5822
365.5,0.7318
366.0,0.7763
366.5,0.7303
367.0,0.7123
367.5,0.7403
368.0,0.6487
368.5,0.6555
369.0,0.7088
369.5,0.7566
370.0,0.8077
370.5,0.6277
371.0,0.6715
371.5,0.8414
372.0,0.5594
372.5,0.6716
373.0,0.6839
373.5,0.4455
374.0,0.6482
374.5,0.5374
375.0,0.5232
375.5,0.7823
376.0,0.6495
376.5,0.6741
377.0,0.7145
377.5,0.8369
378.0,0.9086
378.5,0.8603
379.0,0.7112
379.5,0.6508
380.0,0.6777
380.5,0.8218
381.0,0.8243
381.5,0.6541
382.0,0.5815
382.5,0.4961
383.0,0.4598
383.5,0.4433
384.0,0.4896
384.5,0.7209
385.0,0.7157
385.5,0.6672
386.0,0.5721
386.5,0.7522
387.0,0.6259
387.5,0.7039
388.0,0.6507
388.5,0.6438
389.0,0.6959
389.5,0.8437
390.0,0.8477
390.5,0.781
391.0,0.9203
391.5,0.9399
392.0,0.7926
392.5,0.7102
393.0,0.3956
393.5,0.2878
394.0,0.5862
394.5,0.746
395.0,0.9113
395.5,0.9269
396.0,0.8044
396.5,0.4706
397.0,0.3535
397.5,0.7197
398.0,1.009
398.5,1.044
399.0,1.131
399.5,1.129
400.0,1.174
401.0,1.207
402.0,1.275
403.0,1.213
404.0,1.197
405.0,1.199
406.0,1.181
407.0,1.163
408.0,1.211
409.0,1.298
410.0,1.136
411.0,1.232
412.0,1.325
413.0,1.294
414.0,1.312
415.0,1.317
416.0,1.341
417.0,1.31
418.0,1.288
419.0,1.307
420.0,1.303
421.0,1.365
422.0,1.299
423.0,1.271
424.0,1.346
425.0,1.345
426.0,1.311
427.0,1.288
428.0,1.257
429.0,1.191
430.0,1.043
431.0,1.036
432.0,1.339
433.0,1.347
434.0,1.253
435.0,1.311
436.0,1.477
437.0,1.458
438.0,1.329
439.0,1.377
440.0,1.422
441.0,1.474
442.0,1.583
443.0,1.545
444.0,1.579
445.0,1.548
446.0,1.477
447.0,1.597
448.0,1.626
449.0,1.632
450.0,1.679
451.0,1.743
452.0,1.68
453.0,1.582
454.0,1.652
455.0,1.664
456.0,1.705
457.0,1.735
458.0,1.679
459.0,1.671
460.0,1.678
461.0,1.718
462.0,1.732
463.0,1.722
464.0,1.693
465.0,1.672
466.0,1.688
467.0,1.66
468.0,1.681
469.0,1.692
470.0,1.64
471.0,1.639
472.0,1.729
473.0,1.708
474.0,1.714
475.0,1.732
476.0,1.684
477.0,1.691
478.0,1.739
479.0,1.729
480.0,1.732
481.0,1.764
482.0,1.773
483.0,1.751
484.0,1.716
485.0,1.635
486.0,1.43
487.0,1.499
488.0,1.646
489.0,1.653
490.0,1.739
491.0,1.709
492.0,1.615
493.0,1.669
494.0,1.687
495.0,1.703
496.0,1.714
497.0,1.742
498.0,1.662
499.0,1.685
500.0,1.638
501.0,1.61
502.0,1.591
503.0,1.66
504.0,1.627
505.0,1.679
506.0,1.735
507.0,1.652
508.0,1.599
509.0,1.644
510.0,1.634
511.0,1.678
512.0,1.696
513.0,1.606
514.0,1.596
515.0,1.581
516.0,1.578
517.0,1.403
518.0,1.476
519.0,1.549
520.0,1.607
521.0,1.623
522.0,1.626
523.0,1.598
524.0,1.657
525.0,1.679
526.0,1.606
527.0,1.515
528.0,1.605
529.0,1.693
530.0,1.67
531.0,1.696
532.0,1.639
533.0,1.592
534.0,1.639
535.0,1.675
536.0,1.691
537.0,1.624
538.0,1.653
539.0,1.64
540.0,1.574
541.0,1.587
542.0,1.639
543.0,1.62
544.0,1.651
545.0,1.646
546.0,1.656
547.0,1.654
548.0,1.635
549.0,1.64
550.0,1.66
551.0,1.64
552.0,1.652
553.0,1.624
554.0,1.664
555.0,1.668
556.0,1.648
557.0,1.598
558.0,1.587
559.0,1.56
560.0,1.58
561.0,1.603
562.0,1.593
563.0,1.639
564.0,1.596
565.0,1.584
566.0,1.562
567.0,1.594
568.0,1.584
569.0,1.555
570.0,1.554
571.0,1.543
572.0,1.586
573.0,1.604
574.0,1.6
575.0,1.573
576.0,1.559
577.0,1.576
578.0,1.551
579.0,1.554
580.0,1.579
581.0,1.584
582.0,1.611
583.0,1.612
584.0,1.625
585.0,1.585
586.0,1.553
587.0,1.59
588.0,1.561
589.0,1.402
590.0,1.465
591.0,1.54
592.0,1.527
593.0,1.542
594.0,1.536
595.0,1.504
596.0,1.549
597.0,1.536
598.0,1.528
599.0,1.528
600.0,1.527
601.0,1.512
602.0,1.502
603.0,1.526
604.0,1.551
605.0,1.543
606.0,1.535
607.0,1.549
608.0,1.531
609.0,1.533
610.0,1.521
611.0,1.529
612.0,1.524
613.0,1.504
614.0,1.483
615.0,1.515
616.0,1.464
617.0,1.461
618.0,1.517
619.0,1.501
620.0,1.511
621.0,1.514
622.0,1.498
623.0,1.477
624.0,1.451
625.0,1.448
626.0,1.47
627.0,1.49
628.0,1.431
629.0,1.469
630.0,1.437
631.0,1.457
632.0,1.438
633.0,1.476
634.0,1.458
635.0,1.479
636.0,1.457
637.0,1.48
638.0,1.491
639.0,1.474
640.0,1.458
641.0,1.456
642.0,1.448
643.0,1.468
644.0,1.462
645.0,1.466
646.0,1.437
647.0,1.43
648.0,1.434
649.0,1.407
650.0,1.4
651.0,1.458
652.0,1.413
653.0,1.439
654.0,1.422
655.0,1.377
656.0,1.215
657.0,1.248
658.0,1.395
659.0,1.403
660.0,1.408
661.0,1.418
662.0,1.424
663.0,1.395
664.0,1.408
665.0,1.406
666.0,1.407
667.0,1.404
668.0,1.404
669.0,1.425
670.0,1.418
671.0,1.417
672.0,1.405
673.0,1.426
674.0,1.42
675.0,1.407
676.0,1.416
677.0,1.402
678.0,1.406
679.0,1.383
680.0,1.394
681.0,1.385
682.0,1.383
683.0,1.381
684.0,1.374
685.0,1.386
686.0,1.378
687.0,1.09
688.0,1.191
689.0,1.192
690.0,1.223
691.0,1.256
692.0,1.278
693.0,1.271
694.0,1.262
695.0,1.293
696.0,1.296
697.0,1.348
698.0,1.328
699.0,1.314
700.0,1.298
701.0,1.29
702.0,1.293
703.0,1.296
704.0,1.327
705.0,1.329
706.0,1.324
707.0,1.324
708.0,1.327
709.0,1.323
710.0,1.326
711.0,1.322
712.0,1.316
713.0,1.305
714.0,1.31
715.0,1.275
716.0,1.278
717.0,1.173
718.0,1.092
719.0,1.009
720.0,1.06
721.0,1.129
722.0,1.245
723.0,1.184
724.0,1.094
725.0,1.086
726.0,1.13
727.0,1.132
728.0,1.086
729.0,1.103
730.0,1.164
731.0,1.123
732.0,1.176
733.0,1.22
734.0,1.243
735.0,1.221
736.0,1.219
737.0,1.225
738.0,1.229
739.0,1.205
740.0,1.232
741.0,1.217
742.0,1.216
743.0,1.246
744.0,1.241
745.0,1.24
746.0,1.246
747.0,1.248
748.0,1.246
749.0,1.232
750.0,1.231
751.0,1.219
752.0,1.224
753.0,1.23
754.0,1.233
755.0,1.226
756.0,1.226
757.0,1.228
758.0,1.213
759.0,1.197
760.0,0.4155
761.0,0.2832
762.0,0.7992
763.0,0.5339
764.0,0.6784
765.0,0.8003
766.0,0.8883
767.0,1.033
768.0,1.127
769.0,1.136
770.0,1.159
771.0,1.161
772.0,1.162
773.0,1.17
774.0,1.164
775.0,1.154
776.0,1.168
777.0,1.153
778.0,1.146
779.0,1.147
780.0,1.141
781.0,1.142
782.0,1.149
783.0,1.129
784.0,1.134
785.0,1.127
786.0,1.14
787.0,1.126
788.0,1.116
789.0,1.116
790.0,1.097
791.0,1.097
792.0,1.088
793.0,1.071
794.0,1.079
795.0,1.1
796.0,1.08
797.0,1.082
798.0,1.101
799.0,1.096
800.0,1.081
801.0,1.08
802.0,1.077
803.0,1.07
804.0,1.07
805.0,1.063
806.0,1.087
807.0,1.076
808.0,1.076
809.0,1.06
810.0,1.055
811.0,1.063
812.0,1.042
813.0,1.027
814.0,0.9381
815.0,0.9316
816.0,0.8735
817.0,0.8846
818.0,0.8592
819.0,0.9297
820.0,0.8881
821.0,0.9969
822.0,0.9755
823.0,0.732
824.0,0.9605
825.0,0.9827
826.0,0.9576
827.0,0.9972
828.0,0.8825
829.0,0.9495
830.0,0.9412
831.0,0.9429
832.0,0.921
833.0,0.9597
834.0,0.938
835.0,1.005
836.0,0.9775
837.0,1.007
838.0,0.9819
839.0,0.9902
840.0,1.01
841.0,0.9989
842.0,0.9966
843.0,0.9916
844.0,0.9804
845.0,1.01
846.0,1.005
847.0,0.9849
848.0,0.9809
849.0,0.9531
850.0,0.9129
851.0,0.9688
852.0,0.9611
853.0,0.9235
854.0,0.7989
855.0,0.8757
856.0,0.9579
857.0,0.9779
858.0,0.9714
859.0,0.9714
860.0,0.9726
861.0,0.9675
862.0,0.9825
863.0,1.006
864.0,0.9554
865.0,0.9469
866.0,0.8515
867.0,0.8886
868.0,0.9669
869.0,0.9468
870.0,0.9738
871.0,0.9607
872.0,0.9572
873.0,0.9553
874.0,0.944
875.0,0.925
876.0,0.9348
877.0,0.9441
878.0,0.9548
879.0,0.9401
880.0,0.92
881.0,0.9072
882.0,0.9272
883.0,0.9292
884.0,0.9254
885.0,0.9324
886.0,0.8922
887.0,0.8991
888.0,0.9142
889.0,0.9214
890.0,0.9175
891.0,0.914
892.0,0.8923
893.0,0.871
894.0,0.8519
895.0,0.82
896.0,0.7811
897.0,0.6935
898.0,0.7431
899.0,0.5943
900.0,0.748
901.0,0.6205
902.0,0.6916
903.0,0.7096
904.0,0.846
905.0,0.824
906.0,0.7773
907.0,0.6641
908.0,0.6733
909.0,0.7127
910.0,0.6588
911.0,0.6859
912.0,0.7093
913.0,0.6698
914.0,0.6596
915.0,0.7099
916.0,0.6125
917.0,0.7427
918.0,0.6281
919.0,0.75
920.0,0.745
921.0,0.7698
922.0,0.7087
923.0,0.743
924.0,0.7264
925.0,0.7119
926.0,0.7188
927.0,0.7853
928.0,0.6322
929.0,0.5925
930.0,0.4922
931.0,0.4613
932.0,0.3586
933.0,0.3076
934.0,0.2028
935.0,0.3015
936.0,0.2093
937.0,0.216
938.0,0.2565
939.0,0.4472
940.0,0.5198
941.0,0.4176
942.0,0.4661
943.0,0.3272
944.0,0.3278
945.0,0.4266
946.0,0.2455
947.0,0.4351
948.0,0.3258
949.0,0.5536
950.0,0.2014
951.0,0.5406
952.0,0.329
953.0,0.3998
954.0,0.463
955.0,0.4011
956.0,0.3808
957.0,0.3335
958.0,0.4983
959.0,0.4238
960.0,0.4732
961.0,0.5104
962.0,0.4865
963.0,0.5421
964.0,0.5035
965.0,0.5375
966.0,0.5424
967.0,0.5415
968.0,0.6662
969.0,0.6983
970.0,0.6509
971.0,0.719
972.0,0.6928
973.0,0.6291
974.0,0.6018
975.0,0.614
976.0,0.5962
977.0,0.6524
978.0,0.6307
979.0,0.6516
980.0,0.6191
981.0,0.7138
982.0,0.6915
983.0,0.6697
984.0,0.7256
985.0,0.6886
986.0,0.7326
987.0,0.7241
988.0,0.723
989.0,0.7269
990.0,0.7179
991.0,0.7298
992.0,0.7334
993.0,0.723
994.0,0.7326
995.0,0.7308
996.0,0.7286
997.0,0.7292
998.0,0.7261
999.0,0.7232
1000.0,0.7196
1001.0,0.727
1002.0,0.7129
1003.0,0.7145
1004.0,0.6986
1005.0,0.6709
1006.0,0.6983
1007.0,0.7125
1008.0,0.7097
1009.0,0.7072
1010.0,0.7048
1011.0,0.7088
1012.0,0.7038
1013.0,0.7068
1014.0,0.7018
1015.0,0.6974
1016.0,0.6944
1017.0,0.6964
1018.0,0.6931
1019.0,0.6806
1020.0,0.6898
1021.0,0.6885
1022.0,0.684
1023.0,0.6915
1024.0,0.6848
1025.0,0.6902
1026.0,0.6879
1027.0,0.6862
1028.0,0.685
1029.0,0.6771
1030.0,0.6809
1031.0,0.6785
1032.0,0.6763
1033.0,0.6662
1034.0,0.6662
1035.0,0.6683
1036.0,0.672
1037.0,0.661
1038.0,0.664
1039.0,0.6638
1040.0,0.6612
1041.0,0.664
1042.0,0.6594
1043.0,0.6575
1044.0,0.6599
1045.0,0.6511
1046.0,0.6441
1047.0,0.6501
1048.0,0.6538
1049.0,0.6517
1050.0,0.6489
1051.0,0.6482
1052.0,0.6458
1053.0,0.6409
1054.0,0.6426
1055.0,0.6433
1056.0,0.6415
1057.0,0.6398
1058.0,0.6244
1059.0,0.6254
1060.0,0.6247
1061.0,0.6241
1062.0,0.6278
1063.0,0.6219
1064.0,0.6291
1065.0,0.6255
1066.0,0.6125
1067.0,0.6207
1068.0,0.6077
1069.0,0.5885
1070.0,0.6091
1071.0,0.6165
1072.0,0.611
1073.0,0.6019
1074.0,0.6152
1075.0,0.5907
1076.0,0.6151
1077.0,0.6077
1078.0,0.5975
1079.0,0.6043
1080.0,0.5986
1081.0,0.5822
1082.0,0.5862
1083.0,0.5867
1084.0,0.5829
1085.0,0.5992
1086.0,0.5579
1087.0,0.5673
1088.0,0.5874
1089.0,0.5754
1090.0,0.5675
1091.0,0.5873
1092.0,0.5843
1093.0,0.5151
1094.0,0.537
1095.0,0.5331
1096.0,0.5166
1097.0,0.5705
1098.0,0.5103
1099.0,0.5291
1100.0,0.5015
1101.0,0.5048
1102.0,0.4874
1103.0,0.4867
1104.0,0.4869
1105.0,0.5191
1106.0,0.4318
1107.0,0.4998
1108.0,0.4449
1109.0,0.4418
1110.0,0.4977
1111.0,0.3672
1112.0,0.4367
1113.0,0.3099
1114.0,0.3416
1115.0,0.2843
1116.0,0.2476
1117.0,0.1164
1118.0,0.2606
1119.0,0.1486
1120.0,0.1864
1121.0,0.2346
1122.0,0.1158
1123.0,0.1681
1124.0,0.1422
1125.0,0.1808
1126.0,0.08047
1127.0,0.2024
1128.0,0.1396
1129.0,0.1447
1130.0,0.1052
1131.0,0.3415
1132.0,0.2761
1133.0,0.1968
1134.0,0.06648
1135.0,0.02447
1136.0,0.1721
1137.0,0.3406
1138.0,0.2463
1139.0,0.3283
1140.0,0.2892
1141.0,0.234
1142.0,0.2604
1143.0,0.3535
1144.0,0.1453
1145.0,0.189
1146.0,0.204
1147.0,0.09075
1148.0,0.3063
1149.0,0.2573
1150.0,0.1563
1151.0,0.2447
1152.0,0.2865
1153.0,0.2687
1154.0,0.1885
1155.0,0.343
1156.0,0.3161
1157.0,0.3451
1158.0,0.3405
1159.0,0.3572
1160.0,0.3185
1161.0,0.3701
1162.0,0.3734
1163.0,0.4686
1164.0,0.4153
1165.0,0.4032
1166.0,0.3932
1167.0,0.4214
1168.0,0.4281
1169.0,0.4335
1170.0,0.4613
1171.0,0.4518
1172.0,0.4546
1173.0,0.4603
1174.0,0.3577
1175.0,0.4461
1176.0,0.4776
1177.0,0.4665
1178.0,0.3725
1179.0,0.4808
1180.0,0.4437
1181.0,0.456
1182.0,0.3386
1183.0,0.4457
1184.0,0.4256
1185.0,0.4171
1186.0,0.4725
1187.0,0.4566
1188.0,0.3456
1189.0,0.4273
1190.0,0.462
1191.0,0.4493
1192.0,0.4671
1193.0,0.4518
1194.0,0.4627
1195.0,0.4452
1196.0,0.4339
1197.0,0.4585
1198.0,0.4262
1199.0,0.3806
1200.0,0.4467
1201.0,0.4368
1202.0,0.4313
1203.0,0.4272
1204.0,0.3847
1205.0,0.436
1206.0,0.4711
1207.0,0.4316
1208.0,0.4196
1209.0,0.4268
1210.0,0.4406
1211.0,0.4266
1212.0,0.4283
1213.0,0.4592
1214.0,0.4348
1215.0,0.4286
1216.0,0.4575
1217.0,0.4489
1218.0,0.4541
1219.0,0.45
1220.0,0.4542
1221.0,0.4568
1222.0,0.4472
1223.0,0.4443
1224.0,0.4438
1225.0,0.4539
1226.0,0.455
1227.0,0.4284
1228.0,0.4555
1229.0,0.4549
1230.0,0.4488
1231.0,0.4563
1232.0,0.4538
1233.0,0.4448
1234.0,0.4545
1235.0,0.4526
1236.0,0.4551
1237.0,0.4514
1238.0,0.4536
1239.0,0.4478
1240.0,0.4492
1241.0,0.4487
1242.0,0.4463
1243.0,0.4426
1244.0,0.4463
1245.0,0.4479
1246.0,0.4452
1247.0,0.4439
1248.0,0.4444
1249.0,0.4451
1250.0,0.4429
1251.0,0.4382
1252.0,0.437
1253.0,0.4358
1254.0,0.4332
1255.0,0.4372
1256.0,0.4291
1257.0,0.4276
1258.0,0.4323
1259.0,0.4232
1260.0,0.4246
1261.0,0.4092
1262.0,0.4014
1263.0,0.4024
1264.0,0.382
1265.0,0.3996
1266.0,0.3907
1267.0,0.3933
1268.0,0.3799
1269.0,0.2861
1270.0,0.3936
1271.0,0.4068
1272.0,0.4071
1273.0,0.4038
1274.0,0.4038
1275.0,0.4081
1276.0,0.4104
1277.0,0.4113
1278.0,0.4157
1279.0,0.4122
1280.0,0.4068
1281.0,0.3867
1282.0,0.37
1283.0,0.399
1284.0,0.4091
1285.0,0.4114
1286.0,0.4155
1287.0,0.4118
1288.0,0.411
1289.0,0.4031
1290.0,0.407
1291.0,0.4118
1292.0,0.3967
1293.0,0.4062
1294.0,0.4039
1295.0,0.4042
1296.0,0.3924
1297.0,0.3767
1298.0,0.395
1299.0,0.4058
1300.0,0.362
1301.0,0.3692
1302.0,0.3933
1303.0,0.3553
1304.0,0.3208
1305.0,0.3869
1306.0,0.3877
1307.0,0.3218
1308.0,0.3532
1309.0,0.3858
1310.0,0.3164
1311.0,0.3426
1312.0,0.3361
1313.0,0.3323
1314.0,0.3041
1315.0,0.304
1316.0,0.3399
1317.0,0.3241
1318.0,0.3449
1319.0,0.2914
1320.0,0.2776
1321.0,0.3157
1322.0,0.3216
1323.0,0.2606
1324.0,0.2857
1325.0,0.3359
1326.0,0.3
1327.0,0.2891
1328.0,0.2554
1329.0,0.2077
1330.0,0.2616
1331.0,0.1789
1332.0,0.1774
1333.0,0.2402
1334.0,0.197
1335.0,0.259
1336.0,0.2147
1337.0,0.1971
1338.0,0.2114
1339.0,0.2082
1340.0,0.1977
1341.0,0.2039
1342.0,0.2136
1343.0,0.1708
1344.0,0.103
1345.0,0.1433
1346.0,0.09126
1347.0,0.0959
1348.0,0.01209
1349.0,0.03514
1350.0,0.03157
1351.0,0.01364
1352.0,0.006296
1353.0,0.0006714
1354.0,0.00152
1355.0,4.856e-05
1356.0,0.0003533
1357.0,0.00052
1358.0,5.447e-05
1359.0,1.786e-05
1360.0,3.514e-05
1361.0,3.389e-07
1362.0,2.682e-09
1363.0,5.515e-05
1364.0,2.748e-05
1365.0,2.698e-09
1366.0,0.0001832
1367.0,7.219e-05
1368.0,1.844e-10
1369.0,1.132e-05
1370.0,8.284e-06
1371.0,8.482e-07
1372.0,4.086e-05
1373.0,0.0003965
1374.0,0.001149
1375.0,0.001959
1376.0,0.001342
1377.0,0.000698
1378.0,0.005013
1379.0,0.0003086
1380.0,0.0005611
1381.0,2.18e-05
1382.0,4.097e-05
1383.0,1.034e-06
1384.0,1.468e-05
1385.0,2.572e-05
1386.0,4.703e-05
1387.0,0.001437
1388.0,3.62e-05
1389.0,0.003093
1390.0,0.002595
1391.0,0.002007
1392.0,0.0001708
1393.0,0.0006759
1394.0,0.0006781
1395.0,1.012e-05
1396.0,3.741e-07
1397.0,0.0003301
1398.0,0.005728
1399.0,0.003717
1400.0,2.709e-07
1401.0,5.487e-07
1402.0,0.005885
1403.0,0.008083
1404.0,0.002606
1405.0,6.99e-06
1406.0,0.007767
1407.0,0.0006989
1408.0,0.006253
1409.0,0.002924
1410.0,0.002068
1411.0,0.007014
1412.0,0.008074
1413.0,0.0473
1414.0,0.001587
1415.0,0.0009112
1416.0,0.06046
1417.0,0.02592
1418.0,0.02886
1419.0,0.004984
1420.0,0.0181
1421.0,0.02086
1422.0,0.07598
1423.0,0.01718
1424.0,0.03025
1425.0,0.0461
1426.0,0.04674
1427.0,0.07221
1428.0,0.01181
1429.0,0.05949
1430.0,0.08821
1431.0,0.09357
1432.0,0.009609
1433.0,0.06468
1434.0,0.03561
1435.0,0.04435
1436.0,0.07072
1437.0,0.05484
1438.0,0.02745
1439.0,0.08951
1440.0,0.06846
1441.0,0.05868
1442.0,0.06268
1443.0,0.06902
1444.0,0.0926
1445.0,0.07956
1446.0,0.03811
1447.0,0.06071
1448.0,0.1487
1449.0,0.1368
1450.0,0.04506
1451.0,0.02055
1452.0,0.08934
1453.0,0.1124
1454.0,0.1684
1455.0,0.08883
1456.0,0.1233
1457.0,0.1499
1458.0,0.163
1459.0,0.1946
1460.0,0.1095
1461.0,0.1198
1462.0,0.1638
1463.0,0.06234
1464.0,0.1827
1465.0,0.1125
1466.0,0.09328
1467.0,0.05718
1468.0,0.1057
1469.0,0.1252
1470.0,0.07429
1471.0,0.03032
