interpolation:linear
wavelength,value
280.0,2.448e-24
280.5,8.601e-23
281.0,4.813e-22
281.5,1.6370000000000002e-20
282.0,1.374e-19
282.5,5.46e-19
283.0,2.504e-18
283.5,4.812e-18
284.0,1.333e-16
284.5,4.75e-16
285.0,1.153e-15
285.5,9.229e-15
286.0,4.401e-14
286.5,2.61e-13
287.0,8.996e-13
287.5,4.254e-12
288.0,1.992e-11
288.5,8.072e-11
289.0,2.759e-10
289.5,1.048e-09
290.0,3.459e-09
290.5,8.109e-09
291.0,2.024e-08
291.5,6.881e-08
292.0,1.792e-07
292.5,2.737e-07
293.0,6.469e-07
293.5,1.769e-06
294.0,3.023e-06
294.5,5.401e-06
295.0,9.68e-06
295.5,2.395e-05
296.0,4.373e-05
296.5,5.776e-05
297.0,7.453e-05
297.5,0.000185
298.0,0.0002726
298.5,0.0002603
299.0,0.0005444
299.5,0.0008169
300.0,0.0008512
300.5,0.001163
301.0,0.001905
301.5,0.00277
302.0,0.002269
302.5,0.004282
303.0,0.007336
303.5,0.008963
304.0,0.008226
304.5,0.01142
305.0,0.01559
305.5,0.01676
306.0,0.01589
306.5,0.01904
307.0,0.02577
307.5,0.0314
308.0,0.03287
308.5,0.03732
309.0,0.03316
309.5,0.03669
310.0,0.03635
310.5,0.05862
311.0,0.07269
311.5,0.07001
312.0,0.0675
312.5,0.08021
313.0,0.08612
313.5,0.08536
314.0,0.1034
314.5,0.08759
315.0,0.1147
315.5,0.09892
316.0,0.08322
316.5,0.1156
317.0,0.1444
317.5,0.1527
318.0,0.1166
318.5,0.1382
319.0,0.1604
319.5,0.1372
320.0,0.1676
320.5,0.1998
321.0,0.1701
321.5,0.163
322.0,0.1842
322.5,0.1605
323.0,0.1551
323.5,0.1804
324.0,0.2102
324.5,0.2179
325.0,0.1977
325.5,0.2482
326.0,0.294
326.5,0.2896
327.0,0.2922
327.5,0.2863
328.0,0.2633
328.5,0.2687
329.0,0.3145
329.5,0.3557
330.0,0.3628
330.5,0.2977
331.0,0.3068
331.5,0.3083
332.0,0.327
332.5,0.3214
333.0,0.3238
333.5,0.2993
334.0,0.3087
334.5,0.3509
335.0,0.3274
335.5,0.3724
336.0,0.2586
336.5,0.3152
337.0,0.2617
337.5,0.3277
338.0,0.3162
338.5,0.3576
339.0,0.3572
339.5,0.3435
340.0,0.4143
340.5,0.3743
341.0,0.3597
341.5,0.3343
342.0,0.4017
342.5,0.3778
343.0,0.4152
343.5,0.391
344.0,0.2939
344.5,0.2915
345.0,0.3913
345.5,0.4022
346.0,0.3436
346.5,0.3908
347.0,0.4195
347.5,0.3399
348.0,0.3903
348.5,0.3921
349.0,0.3651
349.5,0.3625
350.0,0.4498
350.5,0.4759
351.0,0.4258
351.5,0.4131
352.0,0.4465
352.5,0.3502
353.0,0.4428
353.5,0.4752
354.0,0.4951
354.5,0.5036
355.0,0.5032
355.5,0.456
356.0,0.4785
356.5,0.4098
357.0,0.3396
357.5,0.4171
358.0,0.3315
358.5,0.2841
359.0,0.3985
359.5,0.509
360.0,0.5412
360.5,0.4339
361.0,0.3966
361.5,0.4577
362.0,0.3967
362.5,0.5502
363.0,0.4953
363.5,0.4573
364.0,0.5606
364.5,0.4803
365.0,0.4904
365.5,0.617
366.0,0.6553
366.5,0.6171
367.0,0.6024
367.5,0.6267
368.0,0.5497
368.5,0.5559
369.0,0.6017
369.5,0.6429
370.0,0.6869
370.5,0.5343
371.0,0.5722
371.5,0.7176
372.0,0.4774
372.5,0.5736
373.0,0.5847
373.5,0.3812
374.0,0.5552
374.5,0.4607
375.0,0.4489
375.5,0.6717
376.0,0.558
376.5,0.5796
377.0,0.6149
377.5,0.7208
378.0,0.7831
378.5,0.7419
379.0,0.6137
379.5,0.562
380.0,0.5856
380.5,0.7107
381.0,0.7136
381.5,0.5667
382.0,0.5043
382.5,0.4307
383.0,0.3995
383.5,0.3855
384.0,0.4261
384.5,0.6279
385.0,0.6238
385.5,0.582
386.0,0.4994
386.5,0.6572
387.0,0.5472
387.5,0.6158
388.0,0.5696
388.5,0.564
389.0,0.61
389.5,0.7402
390.0,0.7442
390.5,0.6861
391.0,0.809
391.5,0.8268
392.0,0.6976
392.5,0.6256
393.0,0.3487
393.5,0.2539
394.0,0.5174
394.5,0.6589
395.0,0.8054
395.5,0.8196
396.0,0.7118
396.5,0.4167
397.0,0.3132
397.5,0.6381
398.0,0.8952
398.5,0.9268
399.0,1.005
399.5,1.003
400.0,1.043
401.0,1.075
402.0,1.137
403.0,1.083
404.0,1.069
405.0,1.072
406.0,1.058
407.0,1.043
408.0,1.087
409.0,1.167
410.0,1.022
411.0,1.109
412.0,1.194
413.0,1.168
414.0,1.185
415.0,1.19
416.0,1.214
417.0,1.187
418.0,1.168
419.0,1.186
420.0,1.184
421.0,1.241
422.0,1.182
423.0,1.158
424.0,1.227
425.0,1.228
426.0,1.198
427.0,1.178
428.0,1.15
429.0,1.091
430.0,0.9563
431.0,0.9501
432.0,1.229
433.0,1.238
434.0,1.152
435.0,1.206
436.0,1.36
437.0,1.344
438.0,1.225
439.0,1.271
440.0,1.313
441.0,1.363
442.0,1.464
443.0,1.429
444.0,1.462
445.0,1.433
446.0,1.369
447.0,1.482
448.0,1.509
449.0,1.516
450.0,1.561
451.0,1.622
452.0,1.565
453.0,1.474
454.0,1.54
455.0,1.552
456.0,1.591
457.0,1.62
458.0,1.568
459.0,1.562
460.0,1.569
461.0,1.607
462.0,1.621
463.0,1.612
464.0,1.587
465.0,1.568
466.0,1.585
467.0,1.559
468.0,1.579
469.0,1.59
470.0,1.541
471.0,1.541
472.0,1.626
473.0,1.607
474.0,1.613
475.0,1.629
476.0,1.584
477.0,1.591
478.0,1.637
479.0,1.629
480.0,1.633
481.0,1.665
482.0,1.674
483.0,1.655
484.0,1.622
485.0,1.547
486.0,1.353
487.0,1.419
488.0,1.559
489.0,1.566
490.0,1.649
491.0,1.621
492.0,1.533
493.0,1.585
494.0,1.602
495.0,1.617
496.0,1.629
497.0,1.656
498.0,1.58
499.0,1.602
500.0,1.558
501.0,1.531
502.0,1.513
503.0,1.578
504.0,1.543
505.0,1.596
506.0,1.65
507.0,1.571
508.0,1.522
509.0,1.565
510.0,1.557
511.0,1.6
512.0,1.618
513.0,1.533
514.0,1.523
515.0,1.509
516.0,1.507
517.0,1.34
518.0,1.41
519.0,1.48
520.0,1.535
521.0,1.551
522.0,1.554
523.0,1.528
524.0,1.584
525.0,1.605
526.0,1.535
527.0,1.448
528.0,1.534
529.0,1.618
530.0,1.596
531.0,1.621
532.0,1.567
533.0,1.522
534.0,1.568
535.0,1.603
536.0,1.618
537.0,1.555
538.0,1.583
539.0,1.571
540.0,1.507
541.0,1.52
542.0,1.569
543.0,1.552
544.0,1.581
545.0,1.577
546.0,1.586
547.0,1.585
548.0,1.567
549.0,1.572
550.0,1.592
551.0,1.573
552.0,1.585
553.0,1.558
554.0,1.596
555.0,1.6
556.0,1.581
557.0,1.533
558.0,1.523
559.0,1.496
560.0,1.516
561.0,1.537
562.0,1.528
563.0,1.571
564.0,1.53
565.0,1.518
566.0,1.497
567.0,1.527
568.0,1.516
569.0,1.485
570.0,1.485
571.0,1.476
572.0,1.515
573.0,1.532
574.0,1.528
575.0,1.501
576.0,1.488
577.0,1.505
578.0,1.482
579.0,1.486
580.0,1.512
581.0,1.519
582.0,1.546
583.0,1.549
584.0,1.562
585.0,1.524
586.0,1.493
587.0,1.528
588.0,1.497
589.0,1.337
590.0,1.398
591.0,1.474
592.0,1.459
593.0,1.477
594.0,1.469
595.0,1.437
596.0,1.486
597.0,1.472
598.0,1.467
599.0,1.468
600.0,1.468
601.0,1.455
602.0,1.446
603.0,1.469
604.0,1.494
605.0,1.486
606.0,1.48
607.0,1.494
608.0,1.477
609.0,1.48
610.0,1.469
611.0,1.476
612.0,1.472
613.0,1.454
614.0,1.434
615.0,1.465
616.0,1.416
617.0,1.414
618.0,1.468
619.0,1.453
620.0,1.463
621.0,1.466
622.0,1.45
623.0,1.429
624.0,1.404
625.0,1.401
626.0,1.423
627.0,1.441
628.0,1.368
629.0,1.415
630.0,1.384
631.0,1.408
632.0,1.39
633.0,1.43
634.0,1.414
635.0,1.435
636.0,1.415
637.0,1.438
638.0,1.451
639.0,1.434
640.0,1.42
641.0,1.418
642.0,1.411
643.0,1.431
644.0,1.426
645.0,1.429
646.0,1.398
647.0,1.388
648.0,1.39
649.0,1.364
650.0,1.364
651.0,1.422
652.0,1.371
653.0,1.403
654.0,1.387
655.0,1.34
656.0,1.185
657.0,1.217
658.0,1.362
659.0,1.371
660.0,1.376
661.0,1.386
662.0,1.391
663.0,1.363
664.0,1.377
665.0,1.377
666.0,1.378
667.0,1.376
668.0,1.376
669.0,1.397
670.0,1.391
671.0,1.391
672.0,1.379
673.0,1.4
674.0,1.395
675.0,1.382
676.0,1.391
677.0,1.378
678.0,1.381
679.0,1.359
680.0,1.37
681.0,1.361
682.0,1.36
683.0,1.357
684.0,1.351
685.0,1.363
686.0,1.355
687.0,0.9944
688.0,1.12
689.0,1.122
690.0,1.162
691.0,1.207
692.0,1.237
693.0,1.229
694.0,1.219
695.0,1.259
696.0,1.261
697.0,1.323
698.0,1.303
699.0,1.282
700.0,1.267
701.0,1.257
702.0,1.263
703.0,1.265
704.0,1.3
705.0,1.302
706.0,1.299
707.0,1.3
708.0,1.303
709.0,1.302
710.0,1.303
711.0,1.301
712.0,1.295
713.0,1.284
714.0,1.289
715.0,1.252
716.0,1.254
717.0,1.122
718.0,1.038
719.0,0.9548
720.0,1.002
721.0,1.085
722.0,1.217
723.0,1.146
724.0,1.047
725.0,1.035
726.0,1.081
727.0,1.089
728.0,1.034
729.0,1.061
730.0,1.122
731.0,1.078
732.0,1.14
733.0,1.194
734.0,1.219
735.0,1.195
736.0,1.194
737.0,1.199
738.0,1.21
739.0,1.186
740.0,1.215
741.0,1.201
742.0,1.201
743.0,1.231
744.0,1.227
745.0,1.227
746.0,1.233
747.0,1.235
748.0,1.233
749.0,1.219
750.0,1.218
751.0,1.206
752.0,1.211
753.0,1.218
754.0,1.22
755.0,1.214
756.0,1.213
757.0,1.215
758.0,1.2
759.0,1.181
760.0,0.2974
761.0,0.1806
762.0,0.7022
763.0,0.4127
764.0,0.5649
765.0,0.7029
766.0,0.8156
767.0,0.9834
768.0,1.099
769.0,1.115
770.0,1.144
771.0,1.149
772.0,1.151
773.0,1.159
774.0,1.153
775.0,1.144
776.0,1.158
777.0,1.143
778.0,1.136
779.0,1.137
780.0,1.131
781.0,1.132
782.0,1.139
783.0,1.12
784.0,1.125
785.0,1.117
786.0,1.13
787.0,1.114
788.0,1.102
789.0,1.102
790.0,1.078
791.0,1.083
792.0,1.074
793.0,1.057
794.0,1.07
795.0,1.09
796.0,1.064
797.0,1.065
798.0,1.089
799.0,1.084
800.0,1.067
801.0,1.065
802.0,1.062
803.0,1.055
804.0,1.056
805.0,1.051
806.0,1.077
807.0,1.065
808.0,1.065
809.0,1.048
810.0,1.042
811.0,1.046
812.0,1.022
813.0,1.004
814.0,0.9009
815.0,0.8949
816.0,0.8358
817.0,0.8489
818.0,0.8211
819.0,0.9025
820.0,0.8562
821.0,0.9798
822.0,0.9554
823.0,0.6839
824.0,0.9349
825.0,0.9643
826.0,0.9341
827.0,0.979
828.0,0.8491
829.0,0.9274
830.0,0.9173
831.0,0.9199
832.0,0.8953
833.0,0.9426
834.0,0.9156
835.0,0.9925
836.0,0.9584
837.0,0.9949
838.0,0.9677
839.0,0.9793
840.0,0.9999
841.0,0.9874
842.0,0.9871
843.0,0.9842
844.0,0.9719
845.0,1.003
846.0,0.9982
847.0,0.979
848.0,0.9741
849.0,0.9465
850.0,0.9067
851.0,0.9613
852.0,0.9541
853.0,0.9175
854.0,0.793
855.0,0.8703
856.0,0.9516
857.0,0.9721
858.0,0.9653
859.0,0.9658
860.0,0.9673
861.0,0.9622
862.0,0.9772
863.0,1.0
864.0,0.9503
865.0,0.942
866.0,0.8471
867.0,0.884
868.0,0.962
869.0,0.9421
870.0,0.969
871.0,0.9558
872.0,0.9525
873.0,0.9506
874.0,0.9394
875.0,0.9205
876.0,0.9302
877.0,0.9395
878.0,0.95
879.0,0.9354
880.0,0.9154
881.0,0.9022
882.0,0.922
883.0,0.9245
884.0,0.9205
885.0,0.9275
886.0,0.8859
887.0,0.8939
888.0,0.9081
889.0,0.9168
890.0,0.9111
891.0,0.9087
892.0,0.8849
893.0,0.8605
894.0,0.8361
895.0,0.7977
896.0,0.7551
897.0,0.6592
898.0,0.7132
899.0,0.5556
900.0,0.7241
901.0,0.5818
902.0,0.6657
903.0,0.6777
904.0,0.8303
905.0,0.8052
906.0,0.7564
907.0,0.6302
908.0,0.6406
909.0,0.6863
910.0,0.6204
911.0,0.6533
912.0,0.6798
913.0,0.6303
914.0,0.6226
915.0,0.6735
916.0,0.5745
917.0,0.714
918.0,0.5894
919.0,0.7237
920.0,0.7245
921.0,0.7518
922.0,0.6817
923.0,0.7258
924.0,0.6992
925.0,0.6844
926.0,0.6918
927.0,0.7653
928.0,0.5876
929.0,0.5435
930.0,0.4385
931.0,0.4136
932.0,0.3094
933.0,0.2578
934.0,0.1549
935.0,0.2586
936.0,0.1699
937.0,0.1734
938.0,0.2098
939.0,0.4009
940.0,0.4743
941.0,0.3689
942.0,0.4201
943.0,0.2849
944.0,0.2926
945.0,0.3785
946.0,0.2043
947.0,0.3831
948.0,0.2835
949.0,0.5013
950.0,0.1577
951.0,0.4916
952.0,0.2796
953.0,0.351
954.0,0.4193
955.0,0.3538
956.0,0.3385
957.0,0.2816
958.0,0.4636
959.0,0.3802
960.0,0.4257
961.0,0.4688
962.0,0.4448
963.0,0.5049
964.0,0.4653
965.0,0.5021
966.0,0.5042
967.0,0.5027
968.0,0.6472
969.0,0.6778
970.0,0.6264
971.0,0.7053
972.0,0.6769
973.0,0.6012
974.0,0.5725
975.0,0.5895
976.0,0.566
977.0,0.6319
978.0,0.6055
979.0,0.6303
980.0,0.5952
981.0,0.7009
982.0,0.6745
983.0,0.6501
984.0,0.7177
985.0,0.6719
986.0,0.7275
987.0,0.7163
988.0,0.715
989.0,0.7237
990.0,0.7105
991.0,0.7262
992.0,0.7301
993.0,0.7169
994.0,0.7297
995.0,0.7284
996.0,0.7256
997.0,0.7265
998.0,0.7233
999.0,0.7205
1000.0,0.7162
1001.0,0.7244
1002.0,0.7073
1003.0,0.7118
1004.0,0.6951
1005.0,0.6687
1006.0,0.6954
1007.0,0.7098
1008.0,0.7065
1009.0,0.7034
1010.0,0.7007
1011.0,0.7063
1012.0,0.7007
1013.0,0.7044
1014.0,0.6995
1015.0,0.695
1016.0,0.692
1017.0,0.6939
1018.0,0.6909
1019.0,0.6773
1020.0,0.6875
1021.0,0.6864
1022.0,0.6815
1023.0,0.6888
1024.0,0.681
1025.0,0.688
1026.0,0.6854
1027.0,0.6837
1028.0,0.6824
1029.0,0.6745
1030.0,0.6787
1031.0,0.6762
1032.0,0.6741
1033.0,0.664
1034.0,0.664
1035.0,0.6661
1036.0,0.6697
1037.0,0.6588
1038.0,0.6618
1039.0,0.6615
1040.0,0.6589
1041.0,0.6616
1042.0,0.657
1043.0,0.655
1044.0,0.6574
1045.0,0.6486
1046.0,0.6415
1047.0,0.6474
1048.0,0.651
1049.0,0.6488
1050.0,0.6459
1051.0,0.6451
1052.0,0.6426
1053.0,0.6377
1054.0,0.6392
1055.0,0.6397
1056.0,0.6377
1057.0,0.6359
1058.0,0.6204
1059.0,0.6213
1060.0,0.6204
1061.0,0.6198
1062.0,0.6232
1063.0,0.6172
1064.0,0.6245
1065.0,0.6204
1066.0,0.6079
1067.0,0.6159
1068.0,0.6027
1069.0,0.5839
1070.0,0.604
1071.0,0.6125
1072.0,0.6062
1073.0,0.5973
1074.0,0.6116
1075.0,0.5841
1076.0,0.6113
1077.0,0.6022
1078.0,0.5914
1079.0,0.6011
1080.0,0.593
1081.0,0.5754
1082.0,0.5821
1083.0,0.5832
1084.0,0.5749
1085.0,0.5941
1086.0,0.547
1087.0,0.561
1088.0,0.5833
1089.0,0.5682
1090.0,0.5578
1091.0,0.5822
1092.0,0.5801
1093.0,0.5008
1094.0,0.5318
1095.0,0.5204
1096.0,0.501
1097.0,0.5666
1098.0,0.4941
1099.0,0.514
1100.0,0.482
1101.0,0.4867
1102.0,0.4673
1103.0,0.4646
1104.0,0.465
1105.0,0.5032
1106.0,0.4003
1107.0,0.4809
1108.0,0.417
1109.0,0.416
1110.0,0.4779
1111.0,0.3368
1112.0,0.4121
1113.0,0.2756
1114.0,0.3064
1115.0,0.2545
1116.0,0.2114
1117.0,0.08708
1118.0,0.2269
1119.0,0.1199
1120.0,0.1511
1121.0,0.1959
1122.0,0.08889
1123.0,0.1363
1124.0,0.1152
1125.0,0.1485
1126.0,0.05816
1127.0,0.1669
1128.0,0.1068
1129.0,0.1122
1130.0,0.07698
1131.0,0.3004
1132.0,0.2387
1133.0,0.1599
1134.0,0.04637
1135.0,0.01713
1136.0,0.1365
1137.0,0.2975
1138.0,0.2116
1139.0,0.2996
1140.0,0.2565
1141.0,0.2011
1142.0,0.2279
1143.0,0.3169
1144.0,0.119
1145.0,0.154
1146.0,0.1661
1147.0,0.06527
1148.0,0.2745
1149.0,0.2242
1150.0,0.1276
1151.0,0.2101
1152.0,0.2528
1153.0,0.242
1154.0,0.1507
1155.0,0.3128
1156.0,0.2848
1157.0,0.315
1158.0,0.3114
1159.0,0.3317
1160.0,0.2886
1161.0,0.3461
1162.0,0.3486
1163.0,0.4549
1164.0,0.3961
1165.0,0.3791
1166.0,0.3727
1167.0,0.403
1168.0,0.4086
1169.0,0.4162
1170.0,0.4477
1171.0,0.4373
1172.0,0.4425
1173.0,0.4468
1174.0,0.3321
1175.0,0.4345
1176.0,0.4714
1177.0,0.4566
1178.0,0.3528
1179.0,0.475
1180.0,0.4309
1181.0,0.444
1182.0,0.3172
1183.0,0.4356
1184.0,0.4119
1185.0,0.4005
1186.0,0.4644
1187.0,0.4456
1188.0,0.3235
1189.0,0.4159
1190.0,0.4538
1191.0,0.4364
1192.0,0.4595
1193.0,0.4424
1194.0,0.4546
1195.0,0.4338
1196.0,0.4203
1197.0,0.4527
1198.0,0.4172
1199.0,0.3638
1200.0,0.4372
1201.0,0.4247
1202.0,0.4205
1203.0,0.4171
1204.0,0.3698
1205.0,0.4276
1206.0,0.4673
1207.0,0.4203
1208.0,0.411
1209.0,0.4188
1210.0,0.4342
1211.0,0.417
1212.0,0.4158
1213.0,0.4539
1214.0,0.4239
1215.0,0.4168
1216.0,0.4523
1217.0,0.4421
1218.0,0.4488
1219.0,0.4441
1220.0,0.449
1221.0,0.4525
1222.0,0.4418
1223.0,0.4384
1224.0,0.437
1225.0,0.4497
1226.0,0.4517
1227.0,0.4212
1228.0,0.453
1229.0,0.4517
1230.0,0.4449
1231.0,0.4547
1232.0,0.4521
1233.0,0.4401
1234.0,0.4536
1235.0,0.4512
1236.0,0.4541
1237.0,0.4492
1238.0,0.4526
1239.0,0.4468
1240.0,0.4483
1241.0,0.4471
1242.0,0.4454
1243.0,0.4417
1244.0,0.4451
1245.0,0.4469
1246.0,0.4442
1247.0,0.4427
1248.0,0.4429
1249.0,0.4439
1250.0,0.4415
1251.0,0.4363
1252.0,0.4357
1253.0,0.4335
1254.0,0.4301
1255.0,0.4356
1256.0,0.4257
1257.0,0.4238
1258.0,0.4299
1259.0,0.4179
1260.0,0.4196
1261.0,0.4006
1262.0,0.3909
1263.0,0.3918
1264.0,0.3672
1265.0,0.3892
1266.0,0.3778
1267.0,0.3821
1268.0,0.366
1269.0,0.2521
1270.0,0.3816
1271.0,0.3987
1272.0,0.3995
1273.0,0.3958
1274.0,0.3964
1275.0,0.4013
1276.0,0.4043
1277.0,0.406
1278.0,0.4119
1279.0,0.4084
1280.0,0.4031
1281.0,0.3838
1282.0,0.3685
1283.0,0.3971
1284.0,0.4069
1285.0,0.4094
1286.0,0.4141
1287.0,0.4092
1288.0,0.4087
1289.0,0.3985
1290.0,0.4049
1291.0,0.4101
1292.0,0.3905
1293.0,0.4034
1294.0,0.4008
1295.0,0.4002
1296.0,0.3855
1297.0,0.3674
1298.0,0.39
1299.0,0.4034
1300.0,0.3508
1301.0,0.3597
1302.0,0.3886
1303.0,0.3452
1304.0,0.3032
1305.0,0.3813
1306.0,0.3819
1307.0,0.3067
1308.0,0.3444
1309.0,0.3797
1310.0,0.3013
1311.0,0.3321
1312.0,0.3246
1313.0,0.3197
1314.0,0.2893
1315.0,0.2875
1316.0,0.3283
1317.0,0.312
1318.0,0.3355
1319.0,0.2728
1320.0,0.262
1321.0,0.3016
1322.0,0.3061
1323.0,0.239
1324.0,0.2675
1325.0,0.3242
1326.0,0.2838
1327.0,0.272
1328.0,0.2374
1329.0,0.1856
1330.0,0.2378
1331.0,0.1526
1332.0,0.1545
1333.0,0.2126
1334.0,0.1764
1335.0,0.2381
1336.0,0.1928
1337.0,0.1732
1338.0,0.1871
1339.0,0.1851
1340.0,0.1777
1341.0,0.1787
1342.0,0.1874
1343.0,0.1381
1344.0,0.08242
1345.0,0.1176
1346.0,0.06618
1347.0,0.0686
1348.0,0.006126
1349.0,0.01999
1350.0,0.01941
1351.0,0.006263
1352.0,0.002257
1353.0,0.0001631
1354.0,0.0004543
1355.0,7.281e-06
1356.0,8.213e-05
1357.0,0.0001236
1358.0,8.39e-06
1359.0,1.743e-06
1360.0,4.589e-06
1361.0,1.522e-08
1362.0,6.851e-11
1363.0,6.992e-06
1364.0,3.071e-06
1365.0,4.238e-11
1366.0,2.666e-05
1367.0,1.031e-05
1368.0,1.024e-12
1369.0,1.192e-06
1370.0,7.244e-07
1371.0,5.447e-08
1372.0,5.704e-06
1373.0,8.061e-05
1374.0,0.0002956
1375.0,0.0005326
1376.0,0.0004043
1377.0,0.0001962
1378.0,0.00169
1379.0,8.38e-05
1380.0,0.0001379
1381.0,4.266e-06
1382.0,5.452e-06
1383.0,1.024e-07
1384.0,1.459e-06
1385.0,4.11e-06
1386.0,5.591e-06
1387.0,0.0003462
1388.0,7.256e-06
1389.0,0.0009183
1390.0,0.0007871
1391.0,0.0005586
1392.0,4.035e-05
1393.0,0.0001867
1394.0,0.0001384
1395.0,1.39e-06
1396.0,1.905e-08
1397.0,8.208e-05
1398.0,0.001934
1399.0,0.001228
1400.0,1.083e-08
1401.0,3.09e-08
1402.0,0.002524
1403.0,0.003346
1404.0,0.001047
1405.0,8.119e-07
1406.0,0.002973
1407.0,0.0002535
1408.0,0.0024
1409.0,0.0009584
1410.0,0.0007004
1411.0,0.002915
1412.0,0.003622
1413.0,0.02872
1414.0,0.0005426
1415.0,0.0002841
1416.0,0.04134
1417.0,0.0146
1418.0,0.01673
1419.0,0.002708
1420.0,0.01033
1421.0,0.01133
1422.0,0.05331
1423.0,0.01092
1424.0,0.01997
1425.0,0.03004
1426.0,0.03227
1427.0,0.05508
1428.0,0.005888
1429.0,0.04304
1430.0,0.06881
1431.0,0.07445
1432.0,0.004698
1433.0,0.04898
1434.0,0.02574
1435.0,0.02851
1436.0,0.05056
1437.0,0.03878
1438.0,0.01763
1439.0,0.06678
1440.0,0.05029
1441.0,0.0404
1442.0,0.04434
1443.0,0.05252
1444.0,0.07144
1445.0,0.0584
1446.0,0.02705
1447.0,0.04256
1448.0,0.1258
1449.0,0.1118
1450.0,0.03148
1451.0,0.0133
1452.0,0.06964
1453.0,0.08996
1454.0,0.1459
1455.0,0.07199
1456.0,0.09805
1457.0,0.1264
1458.0,0.1442
1459.0,0.1713
1460.0,0.09183
1461.0,0.09799
1462.0,0.1396
1463.0,0.04795
1464.0,0.1614
1465.0,0.09805
1466.0,0.07295
