interpolation:linear
wavelength,value
280.0,3.8700000000000005e-26
280.5,1.77e-24
281.0,1.0899999999999999e-23
281.5,4.785999999999999e-22
282.0,4.6900000000000004e-21
282.5,2.0690000000000002e-20
283.0,1.064e-19
283.5,2.166e-19
284.0,7.829e-18
284.5,3.15e-17
285.0,8.714e-17
285.5,8.142e-16
286.0,4.133e-15
286.5,2.787e-14
287.0,1.056e-13
287.5,5.654e-13
288.0,3.097e-12
288.5,1.364e-11
289.0,5.078e-11
289.5,2.12e-10
290.0,7.557e-10
290.5,1.89e-09
291.0,5.098e-09
291.5,1.914e-08
292.0,5.401e-08
292.5,8.634e-08
293.0,2.163e-07
293.5,6.403e-07
294.0,1.154e-06
294.5,2.147e-06
295.0,4.049e-06
295.5,1.067e-05
296.0,2.033e-05
296.5,2.798e-05
297.0,3.729e-05
297.5,9.686e-05
298.0,0.000148
298.5,0.0001452
299.0,0.0003116
299.5,0.0004869
300.0,0.0005182
300.5,0.0007232
301.0,0.00122
301.5,0.001818
302.0,0.001507
302.5,0.002905
303.0,0.005105
303.5,0.006329
304.0,0.005851
304.5,0.008258
305.0,0.01153
305.5,0.01256
306.0,0.01197
306.5,0.01447
307.0,0.01991
307.5,0.02462
308.0,0.02585
308.5,0.02956
309.0,0.02642
309.5,0.02969
310.0,0.02962
310.5,0.04796
311.0,0.05982
311.5,0.05779
312.0,0.05633
312.5,0.06743
313.0,0.07269
313.5,0.07189
314.0,0.08781
314.5,0.07512
315.0,0.09857
315.5,0.08474
316.0,0.07185
316.5,0.1005
317.0,0.1256
317.5,0.1327
318.0,0.1018
318.5,0.1215
319.0,0.1417
319.5,0.1206
320.0,0.1473
320.5,0.1769
321.0,0.1515
321.5,0.1454
322.0,0.1634
322.5,0.1426
323.0,0.1384
323.5,0.1621
324.0,0.1891
324.5,0.1958
325.0,0.1769
325.5,0.2229
326.0,0.2654
326.5,0.2622
327.0,0.2645
327.5,0.259
328.0,0.2374
328.5,0.2436
329.0,0.2861
329.5,0.3239
330.0,0.3303
330.5,0.2707
331.0,0.2789
331.5,0.2809
332.0,0.2987
332.5,0.2941
333.0,0.2962
333.5,0.2735
334.0,0.2822
334.5,0.3215
335.0,0.3004
335.5,0.3421
336.0,0.2377
336.5,0.2896
337.0,0.2404
337.5,0.3011
338.0,0.2911
338.5,0.3295
339.0,0.3293
339.5,0.3168
340.0,0.3821
340.5,0.3454
341.0,0.3323
341.5,0.3091
342.0,0.3716
342.5,0.3497
343.0,0.3844
343.5,0.3621
344.0,0.2721
344.5,0.2701
345.0,0.3629
345.5,0.3732
346.0,0.319
346.5,0.363
347.0,0.3899
347.5,0.3159
348.0,0.363
348.5,0.3649
349.0,0.3399
349.5,0.3376
350.0,0.4191
350.5,0.4436
351.0,0.3971
351.5,0.3854
352.0,0.4167
352.5,0.327
353.0,0.4137
353.5,0.4441
354.0,0.4628
354.5,0.471
355.0,0.4708
355.5,0.4268
356.0,0.4481
356.5,0.3839
357.0,0.3182
357.5,0.3909
358.0,0.3108
358.5,0.2665
359.0,0.3739
359.5,0.4776
360.0,0.508
360.5,0.4074
361.0,0.3726
361.5,0.4302
362.0,0.373
362.5,0.5176
363.0,0.4661
363.5,0.4305
364.0,0.528
364.5,0.4526
365.0,0.4622
365.5,0.5817
366.0,0.618
366.5,0.5822
367.0,0.5686
367.5,0.5917
368.0,0.5191
368.5,0.5252
369.0,0.5687
369.5,0.6077
370.0,0.6495
370.5,0.5054
371.0,0.5414
371.5,0.6792
372.0,0.4519
372.5,0.5433
373.0,0.5539
373.5,0.3613
374.0,0.5263
374.5,0.4369
375.0,0.4257
375.5,0.6372
376.0,0.5295
376.5,0.5501
377.0,0.5838
377.5,0.6846
378.0,0.7439
378.5,0.7049
379.0,0.5833
379.5,0.5342
380.0,0.5568
380.5,0.6759
381.0,0.6789
381.5,0.5394
382.0,0.4801
382.5,0.4102
383.0,0.3806
383.5,0.3674
384.0,0.4061
384.5,0.5986
385.0,0.5949
385.5,0.5552
386.0,0.4765
386.5,0.6272
387.0,0.5223
387.5,0.588
388.0,0.544
388.5,0.5389
389.0,0.5829
389.5,0.7075
390.0,0.7115
390.5,0.6561
391.0,0.7738
391.5,0.7909
392.0,0.6676
392.5,0.5988
393.0,0.3338
393.5,0.2431
394.0,0.4956
394.5,0.6313
395.0,0.7718
395.5,0.7855
396.0,0.6823
396.5,0.3996
397.0,0.3004
397.5,0.6121
398.0,0.8589
398.5,0.8894
399.0,0.9646
399.5,0.9631
400.0,1.002
401.0,1.032
402.0,1.093
403.0,1.041
404.0,1.029
405.0,1.032
406.0,1.018
407.0,1.005
408.0,1.047
409.0,1.124
410.0,0.9849
411.0,1.07
412.0,1.152
413.0,1.127
414.0,1.144
415.0,1.15
416.0,1.173
417.0,1.147
418.0,1.129
419.0,1.147
420.0,1.145
421.0,1.201
422.0,1.144
423.0,1.121
424.0,1.189
425.0,1.189
426.0,1.161
427.0,1.142
428.0,1.115
429.0,1.058
430.0,0.928
431.0,0.9222
432.0,1.193
433.0,1.202
434.0,1.119
435.0,1.171
436.0,1.322
437.0,1.306
438.0,1.192
439.0,1.236
440.0,1.277
441.0,1.326
442.0,1.425
443.0,1.391
444.0,1.424
445.0,1.396
446.0,1.334
447.0,1.445
448.0,1.471
449.0,1.478
450.0,1.522
451.0,1.582
452.0,1.527
453.0,1.438
454.0,1.503
455.0,1.515
456.0,1.554
457.0,1.583
458.0,1.532
459.0,1.526
460.0,1.533
461.0,1.571
462.0,1.585
463.0,1.576
464.0,1.552
465.0,1.534
466.0,1.551
467.0,1.525
468.0,1.545
469.0,1.556
470.0,1.509
471.0,1.509
472.0,1.592
473.0,1.574
474.0,1.579
475.0,1.595
476.0,1.551
477.0,1.558
478.0,1.603
479.0,1.595
480.0,1.6
481.0,1.632
482.0,1.642
483.0,1.623
484.0,1.591
485.0,1.518
486.0,1.328
487.0,1.393
488.0,1.53
489.0,1.537
490.0,1.619
491.0,1.592
492.0,1.505
493.0,1.556
494.0,1.574
495.0,1.589
496.0,1.6
497.0,1.627
498.0,1.553
499.0,1.575
500.0,1.531
501.0,1.505
502.0,1.487
503.0,1.55
504.0,1.516
505.0,1.569
506.0,1.621
507.0,1.544
508.0,1.496
509.0,1.539
510.0,1.532
511.0,1.574
512.0,1.592
513.0,1.508
514.0,1.499
515.0,1.485
516.0,1.483
517.0,1.319
518.0,1.388
519.0,1.457
520.0,1.512
521.0,1.527
522.0,1.53
523.0,1.504
524.0,1.56
525.0,1.58
526.0,1.511
527.0,1.426
528.0,1.51
529.0,1.593
530.0,1.572
531.0,1.596
532.0,1.543
533.0,1.499
534.0,1.544
535.0,1.578
536.0,1.594
537.0,1.532
538.0,1.56
539.0,1.548
540.0,1.485
541.0,1.497
542.0,1.545
543.0,1.529
544.0,1.558
545.0,1.554
546.0,1.562
547.0,1.562
548.0,1.544
549.0,1.549
550.0,1.569
551.0,1.551
552.0,1.562
553.0,1.536
554.0,1.573
555.0,1.578
556.0,1.558
557.0,1.511
558.0,1.501
559.0,1.475
560.0,1.494
561.0,1.515
562.0,1.506
563.0,1.548
564.0,1.508
565.0,1.496
566.0,1.475
567.0,1.505
568.0,1.494
569.0,1.462
570.0,1.462
571.0,1.453
572.0,1.491
573.0,1.508
574.0,1.504
575.0,1.477
576.0,1.465
577.0,1.481
578.0,1.459
579.0,1.464
580.0,1.49
581.0,1.497
582.0,1.525
583.0,1.528
584.0,1.541
585.0,1.504
586.0,1.473
587.0,1.507
588.0,1.475
589.0,1.315
590.0,1.375
591.0,1.451
592.0,1.436
593.0,1.455
594.0,1.447
595.0,1.414
596.0,1.465
597.0,1.451
598.0,1.446
599.0,1.447
600.0,1.448
601.0,1.436
602.0,1.427
603.0,1.45
604.0,1.475
605.0,1.467
606.0,1.461
607.0,1.475
608.0,1.459
609.0,1.462
610.0,1.451
611.0,1.459
612.0,1.455
613.0,1.437
614.0,1.417
615.0,1.448
616.0,1.4
617.0,1.398
618.0,1.452
619.0,1.437
620.0,1.447
621.0,1.449
622.0,1.433
623.0,1.412
624.0,1.388
625.0,1.386
626.0,1.407
627.0,1.424
628.0,1.346
629.0,1.397
630.0,1.366
631.0,1.392
632.0,1.374
633.0,1.414
634.0,1.399
635.0,1.421
636.0,1.401
637.0,1.424
638.0,1.437
639.0,1.421
640.0,1.407
641.0,1.406
642.0,1.399
643.0,1.418
644.0,1.413
645.0,1.416
646.0,1.386
647.0,1.374
648.0,1.376
649.0,1.35
650.0,1.351
651.0,1.409
652.0,1.357
653.0,1.391
654.0,1.375
655.0,1.328
656.0,1.175
657.0,1.206
658.0,1.351
659.0,1.36
660.0,1.366
661.0,1.376
662.0,1.38
663.0,1.352
664.0,1.367
665.0,1.367
666.0,1.368
667.0,1.367
668.0,1.367
669.0,1.388
670.0,1.382
671.0,1.382
672.0,1.37
673.0,1.391
674.0,1.386
675.0,1.373
676.0,1.383
677.0,1.369
678.0,1.373
679.0,1.351
680.0,1.362
681.0,1.353
682.0,1.352
683.0,1.35
684.0,1.343
685.0,1.355
686.0,1.347
687.0,0.9634
688.0,1.096
689.0,1.099
690.0,1.142
691.0,1.19
692.0,1.224
693.0,1.215
694.0,1.205
695.0,1.247
696.0,1.249
697.0,1.315
698.0,1.295
699.0,1.271
700.0,1.256
701.0,1.246
702.0,1.252
703.0,1.255
704.0,1.291
705.0,1.293
706.0,1.291
707.0,1.291
708.0,1.295
709.0,1.294
710.0,1.296
711.0,1.293
712.0,1.288
713.0,1.277
714.0,1.282
715.0,1.244
716.0,1.246
717.0,1.106
718.0,1.02
719.0,0.9379
720.0,0.9842
721.0,1.071
722.0,1.208
723.0,1.134
724.0,1.032
725.0,1.019
726.0,1.065
727.0,1.074
728.0,1.018
729.0,1.047
730.0,1.108
731.0,1.063
732.0,1.128
733.0,1.185
734.0,1.21
735.0,1.187
736.0,1.185
737.0,1.191
738.0,1.203
739.0,1.18
740.0,1.209
741.0,1.196
742.0,1.196
743.0,1.226
744.0,1.222
745.0,1.222
746.0,1.228
747.0,1.231
748.0,1.228
749.0,1.215
750.0,1.214
751.0,1.202
752.0,1.207
753.0,1.213
754.0,1.216
755.0,1.21
756.0,1.209
757.0,1.211
758.0,1.196
759.0,1.176
760.0,0.265
761.0,0.1546
762.0,0.6715
763.0,0.3776
764.0,0.5303
765.0,0.6721
766.0,0.792
767.0,0.9667
768.0,1.09
769.0,1.107
770.0,1.139
771.0,1.145
772.0,1.147
773.0,1.155
774.0,1.149
775.0,1.141
776.0,1.155
777.0,1.14
778.0,1.133
779.0,1.134
780.0,1.128
781.0,1.129
782.0,1.136
783.0,1.116
784.0,1.122
785.0,1.114
786.0,1.126
787.0,1.11
788.0,1.097
789.0,1.097
790.0,1.072
791.0,1.078
792.0,1.069
793.0,1.053
794.0,1.067
795.0,1.086
796.0,1.058
797.0,1.06
798.0,1.086
799.0,1.08
800.0,1.062
801.0,1.06
802.0,1.057
803.0,1.05
804.0,1.051
805.0,1.046
806.0,1.073
807.0,1.061
808.0,1.062
809.0,1.044
810.0,1.037
811.0,1.041
812.0,1.015
813.0,0.9962
814.0,0.889
815.0,0.8833
816.0,0.8241
817.0,0.8377
818.0,0.8092
819.0,0.8938
820.0,0.8462
821.0,0.9741
822.0,0.9489
823.0,0.6694
824.0,0.9265
825.0,0.9583
826.0,0.9266
827.0,0.9731
828.0,0.8386
829.0,0.9203
830.0,0.9098
831.0,0.9126
832.0,0.8871
833.0,0.9369
834.0,0.9083
835.0,0.9883
836.0,0.952
837.0,0.9909
838.0,0.9628
839.0,0.9755
840.0,0.9963
841.0,0.9834
842.0,0.9839
843.0,0.9816
844.0,0.9691
845.0,1.001
846.0,0.9959
847.0,0.977
848.0,0.9717
849.0,0.9442
850.0,0.9046
851.0,0.9587
852.0,0.9517
853.0,0.9155
854.0,0.7911
855.0,0.8684
856.0,0.9494
857.0,0.9701
858.0,0.9633
859.0,0.9639
860.0,0.9654
861.0,0.9603
862.0,0.9754
863.0,0.9985
864.0,0.9486
865.0,0.9403
866.0,0.8455
867.0,0.8824
868.0,0.9603
869.0,0.9404
870.0,0.9673
871.0,0.9542
872.0,0.9509
873.0,0.949
874.0,0.9378
875.0,0.9189
876.0,0.9286
877.0,0.938
878.0,0.9483
879.0,0.9338
880.0,0.9138
881.0,0.9006
882.0,0.9202
883.0,0.9228
884.0,0.9188
885.0,0.9258
886.0,0.8837
887.0,0.8922
888.0,0.906
889.0,0.9152
890.0,0.909
891.0,0.9068
892.0,0.8824
893.0,0.857
894.0,0.8309
895.0,0.7903
896.0,0.7469
897.0,0.6487
898.0,0.7039
899.0,0.5441
900.0,0.7165
901.0,0.57
902.0,0.6576
903.0,0.6677
904.0,0.8252
905.0,0.7991
906.0,0.7498
907.0,0.6197
908.0,0.6305
909.0,0.678
910.0,0.6085
911.0,0.6433
912.0,0.6705
913.0,0.6181
914.0,0.6113
915.0,0.6618
916.0,0.563
917.0,0.7047
918.0,0.5775
919.0,0.7153
920.0,0.7181
921.0,0.7458
922.0,0.6731
923.0,0.7202
924.0,0.6904
925.0,0.6756
926.0,0.683
927.0,0.7586
928.0,0.5737
929.0,0.5283
930.0,0.4224
931.0,0.3991
932.0,0.2947
933.0,0.2435
934.0,0.1417
935.0,0.246
936.0,0.1587
937.0,0.1616
938.0,0.1966
939.0,0.3869
940.0,0.4604
941.0,0.3543
942.0,0.4059
943.0,0.2724
944.0,0.2821
945.0,0.3642
946.0,0.1925
947.0,0.3676
948.0,0.2713
949.0,0.485
950.0,0.1459
951.0,0.4764
952.0,0.2654
953.0,0.3366
954.0,0.4059
955.0,0.3397
956.0,0.3265
957.0,0.2668
958.0,0.453
959.0,0.3673
960.0,0.4114
961.0,0.4562
962.0,0.4324
963.0,0.4935
964.0,0.4538
965.0,0.4912
966.0,0.4925
967.0,0.4909
968.0,0.6412
969.0,0.671
970.0,0.6187
971.0,0.7008
972.0,0.6718
973.0,0.5924
974.0,0.5634
975.0,0.5819
976.0,0.5565
977.0,0.6255
978.0,0.5975
979.0,0.6235
980.0,0.5878
981.0,0.6967
982.0,0.6689
983.0,0.6437
984.0,0.715
985.0,0.6663
986.0,0.7258
987.0,0.7136
988.0,0.7123
989.0,0.7226
990.0,0.7079
991.0,0.725
992.0,0.729
993.0,0.7148
994.0,0.7287
995.0,0.7275
996.0,0.7246
997.0,0.7256
998.0,0.7223
999.0,0.7196
1000.0,0.715
1001.0,0.7235
1002.0,0.7054
1003.0,0.7108
1004.0,0.694
1005.0,0.6679
1006.0,0.6944
1007.0,0.7089
1008.0,0.7054
1009.0,0.7021
1010.0,0.6993
1011.0,0.7054
1012.0,0.6997
1013.0,0.7036
1014.0,0.6987
1015.0,0.6942
1016.0,0.6911
1017.0,0.693
1018.0,0.6902
1019.0,0.6762
1020.0,0.6867
1021.0,0.6857
1022.0,0.6806
1023.0,0.6879
1024.0,0.6797
1025.0,0.6872
1026.0,0.6845
1027.0,0.6829
1028.0,0.6816
1029.0,0.6736
1030.0,0.678
1031.0,0.6754
1032.0,0.6734
1033.0,0.6633
1034.0,0.6633
1035.0,0.6654
1036.0,0.6689
1037.0,0.6581
1038.0,0.661
1039.0,0.6607
1040.0,0.6581
1041.0,0.6608
1042.0,0.6562
1043.0,0.6542
1044.0,0.6565
1045.0,0.6477
1046.0,0.6406
1047.0,0.6464
1048.0,0.6501
1049.0,0.6478
1050.0,0.6449
1051.0,0.6441
1052.0,0.6415
1053.0,0.6365
1054.0,0.638
1055.0,0.6385
1056.0,0.6364
1057.0,0.6345
1058.0,0.619
1059.0,0.6198
1060.0,0.619
1061.0,0.6183
1062.0,0.6217
1063.0,0.6157
1064.0,0.6229
1065.0,0.6187
1066.0,0.6063
1067.0,0.6142
1068.0,0.601
1069.0,0.5823
1070.0,0.6023
1071.0,0.6111
1072.0,0.6045
1073.0,0.5957
1074.0,0.6104
1075.0,0.5818
1076.0,0.6101
1077.0,0.6003
1078.0,0.5893
1079.0,0.6001
1080.0,0.5911
1081.0,0.5731
1082.0,0.5806
1083.0,0.582
1084.0,0.5722
1085.0,0.5923
1086.0,0.5436
1087.0,0.5588
1088.0,0.5819
1089.0,0.5658
1090.0,0.5547
1091.0,0.5805
1092.0,0.5786
1093.0,0.4962
1094.0,0.5301
1095.0,0.5162
1096.0,0.496
1097.0,0.5652
1098.0,0.4888
1099.0,0.509
1100.0,0.4757
1101.0,0.4809
1102.0,0.4609
1103.0,0.4575
1104.0,0.458
1105.0,0.498
1106.0,0.3905
1107.0,0.4748
1108.0,0.4083
1109.0,0.4079
1110.0,0.4714
1111.0,0.3276
1112.0,0.4044
1113.0,0.2655
1114.0,0.2958
1115.0,0.2455
1116.0,0.2009
1117.0,0.07924
1118.0,0.2168
1119.0,0.1119
1120.0,0.141
1121.0,0.1844
1122.0,0.08134
1123.0,0.1273
1124.0,0.1075
1125.0,0.1392
1126.0,0.05215
1127.0,0.1567
1128.0,0.09771
1129.0,0.1031
1130.0,0.06952
1131.0,0.2877
1132.0,0.2275
1133.0,0.1492
1134.0,0.0412
1135.0,0.01529
1136.0,0.1262
1137.0,0.2841
1138.0,0.2013
1139.0,0.2906
1140.0,0.2465
1141.0,0.1912
1142.0,0.218
1143.0,0.3056
1144.0,0.1116
1145.0,0.1438
1146.0,0.1551
1147.0,0.05844
1148.0,0.2646
1149.0,0.2143
1150.0,0.1197
1151.0,0.1998
1152.0,0.2425
1153.0,0.2337
1154.0,0.1401
1155.0,0.3034
1156.0,0.2751
1157.0,0.3058
1158.0,0.3024
1159.0,0.3237
1160.0,0.2796
1161.0,0.3387
1162.0,0.3409
1163.0,0.4504
1164.0,0.39
1165.0,0.3714
1166.0,0.3664
1167.0,0.3972
1168.0,0.4024
1169.0,0.4106
1170.0,0.4433
1171.0,0.4327
1172.0,0.4387
1173.0,0.4423
1174.0,0.3243
1175.0,0.4308
1176.0,0.4694
1177.0,0.4533
1178.0,0.347
1179.0,0.473
1180.0,0.4269
1181.0,0.4401
1182.0,0.3108
1183.0,0.4323
1184.0,0.4075
1185.0,0.3953
1186.0,0.4617
1187.0,0.442
1188.0,0.3168
1189.0,0.4122
1190.0,0.4512
1191.0,0.4322
1192.0,0.4571
1193.0,0.4394
1194.0,0.4519
1195.0,0.4301
1196.0,0.4159
1197.0,0.4507
1198.0,0.4144
1199.0,0.3586
1200.0,0.4341
1201.0,0.4208
1202.0,0.4171
1203.0,0.4138
1204.0,0.3652
1205.0,0.425
1206.0,0.466
1207.0,0.4166
1208.0,0.4083
1209.0,0.4162
1210.0,0.4322
1211.0,0.414
1212.0,0.4117
1213.0,0.4521
1214.0,0.4203
1215.0,0.4129
1216.0,0.4505
1217.0,0.4398
1218.0,0.447
1219.0,0.4421
1220.0,0.4473
1221.0,0.4511
1222.0,0.4401
1223.0,0.4365
1224.0,0.4347
1225.0,0.4483
1226.0,0.4505
1227.0,0.4188
1228.0,0.4522
1229.0,0.4506
1230.0,0.4435
1231.0,0.4541
1232.0,0.4515
1233.0,0.4385
1234.0,0.4533
1235.0,0.4508
1236.0,0.4537
1237.0,0.4485
1238.0,0.4522
1239.0,0.4465
1240.0,0.448
1241.0,0.4465
1242.0,0.445
1243.0,0.4414
1244.0,0.4447
1245.0,0.4465
1246.0,0.4439
1247.0,0.4423
1248.0,0.4424
1249.0,0.4435
1250.0,0.441
1251.0,0.4357
1252.0,0.4353
1253.0,0.4327
1254.0,0.429
1255.0,0.4351
1256.0,0.4245
1257.0,0.4225
1258.0,0.4291
1259.0,0.4161
1260.0,0.4179
1261.0,0.3976
1262.0,0.3874
1263.0,0.3882
1264.0,0.3622
1265.0,0.3856
1266.0,0.3734
1267.0,0.3784
1268.0,0.3613
1269.0,0.2413
1270.0,0.3776
1271.0,0.396
1272.0,0.3969
1273.0,0.393
1274.0,0.3938
1275.0,0.399
1276.0,0.4022
1277.0,0.4042
1278.0,0.4106
1279.0,0.4071
1280.0,0.4018
1281.0,0.3829
1282.0,0.3679
1283.0,0.3965
1284.0,0.4062
1285.0,0.4087
1286.0,0.4137
1287.0,0.4083
1288.0,0.4079
1289.0,0.397
1290.0,0.4042
1291.0,0.4095
1292.0,0.3884
1293.0,0.4025
1294.0,0.3998
1295.0,0.3988
1296.0,0.3831
1297.0,0.3643
1298.0,0.3884
1299.0,0.4026
1300.0,0.3473
1301.0,0.3566
1302.0,0.387
1303.0,0.342
1304.0,0.2977
1305.0,0.3795
1306.0,0.38
1307.0,0.302
1308.0,0.3416
1309.0,0.3776
1310.0,0.2966
1311.0,0.3289
1312.0,0.3209
1313.0,0.3157
1314.0,0.2847
1315.0,0.2824
1316.0,0.3247
1317.0,0.3082
1318.0,0.3326
1319.0,0.267
1320.0,0.2572
1321.0,0.2971
1322.0,0.3012
1323.0,0.2324
1324.0,0.2619
1325.0,0.3204
1326.0,0.2787
1327.0,0.2667
1328.0,0.2319
1329.0,0.179
1330.0,0.2305
1331.0,0.145
1332.0,0.1477
1333.0,0.2041
1334.0,0.1704
1335.0,0.2315
1336.0,0.186
1337.0,0.1662
1338.0,0.1797
1339.0,0.1781
1340.0,0.1718
1341.0,0.1711
1342.0,0.1795
1343.0,0.1286
1344.0,0.07676
1345.0,0.11
1346.0,0.0594
1347.0,0.06121
1348.0,0.004904
1349.0,0.01656
1350.0,0.01646
1351.0,0.00483
1352.0,0.001589
1353.0,0.000102
1354.0,0.0003045
1355.0,3.892e-06
1356.0,5.077e-05
1357.0,7.679e-05
1358.0,4.525e-06
1359.0,8.014e-07
1360.0,2.338e-06
1361.0,5.435e-09
1362.0,2.063e-11
1363.0,3.46e-06
1364.0,1.48e-06
1365.0,1.068e-11
1366.0,1.38e-05
1367.0,5.394e-06
1368.0,1.795e-13
1369.0,5.66e-07
1370.0,3.22e-07
1371.0,2.201e-08
1372.0,2.974e-06
1373.0,4.737e-05
1374.0,0.0001878
1375.0,0.0003412
1376.0,0.0002719
1377.0,0.0001293
1378.0,0.001169
1379.0,5.484e-05
1380.0,8.667e-05
1381.0,2.521e-06
1382.0,2.792e-06
1383.0,4.836e-08
1384.0,6.765e-07
1385.0,2.258e-06
1386.0,2.742e-06
1387.0,0.0002127
1388.0,4.314e-06
1389.0,0.0006094
1390.0,0.0005242
1391.0,0.0003635
1392.0,2.521e-05
1393.0,0.0001223
1394.0,8.099e-05
1395.0,7.277e-07
1396.0,7.113e-09
1397.0,5.201e-05
1398.0,0.001332
1399.0,0.0008443
1400.0,3.709e-09
1401.0,1.194e-08
1402.0,0.00191
1403.0,0.002492
1404.0,0.0007728
1405.0,4.009e-07
1406.0,0.002141
1407.0,0.000183
1408.0,0.001734
1409.0,0.0006542
1410.0,0.00049
1411.0,0.002176
1412.0,0.002779
1413.0,0.02419
1414.0,0.0003816
1415.0,0.0001939
1416.0,0.03645
1417.0,0.01212
1418.0,0.01391
1419.0,0.002213
1420.0,0.008555
1421.0,0.009301
1422.0,0.04727
1423.0,0.009455
1424.0,0.01746
1425.0,0.02607
1426.0,0.0286
1427.0,0.05032
1428.0,0.00468
1429.0,0.03864
1430.0,0.06338
1431.0,0.069
1432.0,0.003714
1433.0,0.04474
1434.0,0.02319
1435.0,0.02462
1436.0,0.04524
1437.0,0.03467
1438.0,0.01528
1439.0,0.06053
1440.0,0.04544
1441.0,0.03571
1442.0,0.03941
1443.0,0.04786
1444.0,0.06557
1445.0,0.05261
1446.0,0.02407
1447.0,0.03785
1448.0,0.1189
1449.0,0.1045
1450.0,0.02802
1451.0,0.01156
1452.0,0.06412
1453.0,0.08349
1454.0,0.1391
1455.0,0.06715
1456.0,0.09089
1457.0,0.1195
1458.0,0.1385
1459.0,0.1642
1460.0,0.08673
1461.0,0.09161
1462.0,0.1323
