interpolation:linear
wavelength,value
280.0,2.697e-27
280.5,1.461e-25
281.0,9.575e-25
281.5,4.95e-23
282.0,5.358e-22
282.5,2.528e-21
283.0,1.4e-20
283.5,2.9560000000000005e-20
284.0,1.268e-18
284.5,5.513e-18
285.0,1.659e-17
285.5,1.712e-16
286.0,9.045e-16
286.5,6.624e-15
287.0,2.667e-14
287.5,1.547e-13
288.0,9.367e-13
288.5,4.351e-12
289.0,1.712e-11
289.5,7.595e-11
290.0,2.845e-10
290.5,7.415e-10
291.0,2.103e-09
291.5,8.411e-09
292.0,2.5e-08
292.5,4.114e-08
293.0,1.07e-07
293.5,3.333e-07
294.0,6.217e-07
294.5,1.187e-06
295.0,2.313e-06
295.5,6.345e-06
296.0,1.243e-05
296.5,1.756e-05
297.0,2.39e-05
297.5,6.391e-05
298.0,0.0001
298.5,9.982e-05
299.0,0.0002177
299.5,0.0003492
300.0,0.0003768
300.5,0.0005328
301.0,0.0009165
301.5,0.001387
302.0,0.001158
302.5,0.002263
303.0,0.004044
303.5,0.00506
304.0,0.0047
304.5,0.006707
305.0,0.009495
305.5,0.01043
306.0,0.009982
306.5,0.01213
307.0,0.01686
307.5,0.02106
308.0,0.02215
308.5,0.02545
309.0,0.02284
309.5,0.02591
310.0,0.02597
310.5,0.04216
311.0,0.05278
311.5,0.05109
312.0,0.05015
312.5,0.06031
313.0,0.06518
313.5,0.06437
314.0,0.07904
314.5,0.06806
315.0,0.08944
315.5,0.07671
316.0,0.06538
316.5,0.09183
317.0,0.1148
317.5,0.1212
318.0,0.09328
318.5,0.1119
319.0,0.1308
319.5,0.111
320.0,0.1356
320.5,0.1636
321.0,0.1407
321.5,0.1351
322.0,0.1513
322.5,0.1321
323.0,0.1287
323.5,0.1513
324.0,0.1767
324.5,0.1827
325.0,0.1648
325.5,0.2081
326.0,0.2485
326.5,0.2459
327.0,0.248
327.5,0.2428
328.0,0.2221
328.5,0.2286
329.0,0.2691
329.5,0.305
330.0,0.311
330.5,0.2546
331.0,0.2623
331.5,0.2646
332.0,0.2818
332.5,0.2777
333.0,0.2798
333.5,0.2581
334.0,0.2664
334.5,0.3039
335.0,0.2843
335.5,0.3239
336.0,0.2251
336.5,0.2742
337.0,0.2276
337.5,0.2851
338.0,0.2759
338.5,0.3125
339.0,0.3126
339.5,0.3008
340.0,0.3627
340.5,0.328
341.0,0.3158
341.5,0.2938
342.0,0.3534
342.5,0.3327
343.0,0.3658
343.5,0.3446
344.0,0.2589
344.5,0.2572
345.0,0.3457
345.5,0.3557
346.0,0.3042
346.5,0.3462
347.0,0.3719
347.5,0.3015
348.0,0.3465
348.5,0.3484
349.0,0.3247
349.5,0.3226
350.0,0.4006
350.5,0.4241
351.0,0.3797
351.5,0.3685
352.0,0.3986
352.5,0.3129
353.0,0.396
353.5,0.4252
354.0,0.4432
354.5,0.4511
355.0,0.451
355.5,0.409
356.0,0.4295
356.5,0.368
357.0,0.3051
357.5,0.3749
358.0,0.2982
358.5,0.2557
359.0,0.3588
359.5,0.4585
360.0,0.4877
360.5,0.3912
361.0,0.3579
361.5,0.4133
362.0,0.3585
362.5,0.4976
363.0,0.4483
363.5,0.4142
364.0,0.508
364.5,0.4356
365.0,0.4449
365.5,0.5601
366.0,0.5952
366.5,0.5608
367.0,0.5478
367.5,0.5702
368.0,0.5004
368.5,0.5063
369.0,0.5484
369.5,0.5862
370.0,0.6266
370.5,0.4877
371.0,0.5225
371.5,0.6556
372.0,0.4363
372.5,0.5246
373.0,0.535
373.5,0.349
374.0,0.5085
374.5,0.4222
375.0,0.4115
375.5,0.616
376.0,0.512
376.5,0.532
377.0,0.5646
377.5,0.6623
378.0,0.7197
378.5,0.6822
379.0,0.5645
379.5,0.5171
380.0,0.539
380.5,0.6545
381.0,0.6575
381.5,0.5225
382.0,0.4652
382.5,0.3975
383.0,0.3689
383.5,0.3561
384.0,0.3938
384.5,0.5805
385.0,0.577
385.5,0.5386
386.0,0.4623
386.5,0.6087
387.0,0.507
387.5,0.5708
388.0,0.5282
388.5,0.5233
389.0,0.5661
389.5,0.6872
390.0,0.6912
390.5,0.6375
391.0,0.752
391.5,0.7687
392.0,0.6489
392.5,0.5822
393.0,0.3246
393.5,0.2364
394.0,0.4821
394.5,0.6141
395.0,0.7509
395.5,0.7644
396.0,0.6641
396.5,0.3889
397.0,0.2925
397.5,0.596
398.0,0.8364
398.5,0.8661
399.0,0.9395
399.5,0.9382
400.0,0.9762
401.0,1.006
402.0,1.065
403.0,1.015
404.0,1.003
405.0,1.007
406.0,0.9934
407.0,0.9807
408.0,1.022
409.0,1.098
410.0,0.962
411.0,1.045
412.0,1.126
413.0,1.101
414.0,1.118
415.0,1.124
416.0,1.147
417.0,1.122
418.0,1.105
419.0,1.123
420.0,1.121
421.0,1.176
422.0,1.121
423.0,1.098
424.0,1.164
425.0,1.165
426.0,1.138
427.0,1.119
428.0,1.093
429.0,1.038
430.0,0.9102
431.0,0.9046
432.0,1.171
433.0,1.18
434.0,1.098
435.0,1.15
436.0,1.298
437.0,1.283
438.0,1.171
439.0,1.214
440.0,1.255
441.0,1.303
442.0,1.401
443.0,1.368
444.0,1.4
445.0,1.372
446.0,1.312
447.0,1.421
448.0,1.446
449.0,1.454
450.0,1.498
451.0,1.557
452.0,1.502
453.0,1.416
454.0,1.48
455.0,1.492
456.0,1.53
457.0,1.559
458.0,1.509
459.0,1.503
460.0,1.51
461.0,1.548
462.0,1.562
463.0,1.554
464.0,1.53
465.0,1.512
466.0,1.529
467.0,1.504
468.0,1.524
469.0,1.535
470.0,1.488
471.0,1.488
472.0,1.571
473.0,1.553
474.0,1.558
475.0,1.574
476.0,1.53
477.0,1.537
478.0,1.582
479.0,1.574
480.0,1.579
481.0,1.611
482.0,1.621
483.0,1.603
484.0,1.572
485.0,1.499
486.0,1.312
487.0,1.376
488.0,1.512
489.0,1.519
490.0,1.6
491.0,1.574
492.0,1.488
493.0,1.538
494.0,1.556
495.0,1.571
496.0,1.582
497.0,1.609
498.0,1.535
499.0,1.557
500.0,1.514
501.0,1.488
502.0,1.47
503.0,1.533
504.0,1.498
505.0,1.551
506.0,1.603
507.0,1.527
508.0,1.48
509.0,1.523
510.0,1.515
511.0,1.557
512.0,1.575
513.0,1.492
514.0,1.483
515.0,1.47
516.0,1.468
517.0,1.305
518.0,1.374
519.0,1.442
520.0,1.496
521.0,1.512
522.0,1.515
523.0,1.489
524.0,1.544
525.0,1.564
526.0,1.496
527.0,1.411
528.0,1.495
529.0,1.577
530.0,1.556
531.0,1.58
532.0,1.527
533.0,1.484
534.0,1.529
535.0,1.563
536.0,1.578
537.0,1.517
538.0,1.545
539.0,1.533
540.0,1.471
541.0,1.482
542.0,1.53
543.0,1.515
544.0,1.543
545.0,1.539
546.0,1.547
547.0,1.547
548.0,1.53
549.0,1.535
550.0,1.554
551.0,1.536
552.0,1.548
553.0,1.522
554.0,1.559
555.0,1.563
556.0,1.544
557.0,1.497
558.0,1.488
559.0,1.461
560.0,1.481
561.0,1.501
562.0,1.492
563.0,1.534
564.0,1.493
565.0,1.482
566.0,1.461
567.0,1.49
568.0,1.479
569.0,1.447
570.0,1.447
571.0,1.439
572.0,1.476
573.0,1.493
574.0,1.489
575.0,1.462
576.0,1.45
577.0,1.466
578.0,1.444
579.0,1.449
580.0,1.476
581.0,1.483
582.0,1.511
583.0,1.514
584.0,1.528
585.0,1.491
586.0,1.461
587.0,1.494
588.0,1.462
589.0,1.301
590.0,1.361
591.0,1.437
592.0,1.422
593.0,1.441
594.0,1.433
595.0,1.4
596.0,1.451
597.0,1.437
598.0,1.433
599.0,1.434
600.0,1.436
601.0,1.424
602.0,1.415
603.0,1.438
604.0,1.462
605.0,1.455
606.0,1.449
607.0,1.464
608.0,1.448
609.0,1.45
610.0,1.44
611.0,1.448
612.0,1.444
613.0,1.426
614.0,1.407
615.0,1.437
616.0,1.39
617.0,1.388
618.0,1.441
619.0,1.427
620.0,1.437
621.0,1.439
622.0,1.423
623.0,1.402
624.0,1.378
625.0,1.375
626.0,1.396
627.0,1.413
628.0,1.333
629.0,1.385
630.0,1.354
631.0,1.381
632.0,1.364
633.0,1.404
634.0,1.39
635.0,1.411
636.0,1.392
637.0,1.415
638.0,1.428
639.0,1.412
640.0,1.398
641.0,1.397
642.0,1.391
643.0,1.41
644.0,1.405
645.0,1.408
646.0,1.377
647.0,1.365
648.0,1.367
649.0,1.341
650.0,1.344
651.0,1.401
652.0,1.348
653.0,1.383
654.0,1.368
655.0,1.32
656.0,1.168
657.0,1.2
658.0,1.344
659.0,1.353
660.0,1.359
661.0,1.369
662.0,1.373
663.0,1.345
664.0,1.361
665.0,1.361
666.0,1.362
667.0,1.361
668.0,1.361
669.0,1.382
670.0,1.376
671.0,1.376
672.0,1.365
673.0,1.385
674.0,1.38
675.0,1.368
676.0,1.377
677.0,1.364
678.0,1.368
679.0,1.346
680.0,1.357
681.0,1.348
682.0,1.347
683.0,1.344
684.0,1.338
685.0,1.35
686.0,1.342
687.0,0.944
688.0,1.081
689.0,1.085
690.0,1.129
691.0,1.179
692.0,1.215
693.0,1.206
694.0,1.196
695.0,1.24
696.0,1.242
697.0,1.31
698.0,1.29
699.0,1.265
700.0,1.25
701.0,1.239
702.0,1.246
703.0,1.248
704.0,1.285
705.0,1.288
706.0,1.285
707.0,1.286
708.0,1.289
709.0,1.29
710.0,1.291
711.0,1.288
712.0,1.284
713.0,1.272
714.0,1.277
715.0,1.239
716.0,1.24
717.0,1.095
718.0,1.01
719.0,0.9274
720.0,0.9728
721.0,1.062
722.0,1.202
723.0,1.126
724.0,1.023
725.0,1.009
726.0,1.055
727.0,1.066
728.0,1.008
729.0,1.039
730.0,1.099
731.0,1.054
732.0,1.12
733.0,1.179
734.0,1.205
735.0,1.181
736.0,1.18
737.0,1.185
738.0,1.199
739.0,1.176
740.0,1.205
741.0,1.192
742.0,1.193
743.0,1.223
744.0,1.219
745.0,1.219
746.0,1.225
747.0,1.228
748.0,1.226
749.0,1.212
750.0,1.211
751.0,1.199
752.0,1.204
753.0,1.211
754.0,1.213
755.0,1.207
756.0,1.206
757.0,1.208
758.0,1.194
759.0,1.172
760.0,0.2461
761.0,0.1399
762.0,0.6525
763.0,0.3566
764.0,0.5091
765.0,0.6531
766.0,0.7771
767.0,0.9561
768.0,1.084
769.0,1.103
770.0,1.136
771.0,1.143
772.0,1.145
773.0,1.153
774.0,1.147
775.0,1.138
776.0,1.152
777.0,1.137
778.0,1.131
779.0,1.132
780.0,1.126
781.0,1.127
782.0,1.134
783.0,1.114
784.0,1.12
785.0,1.112
786.0,1.124
787.0,1.107
788.0,1.094
789.0,1.094
790.0,1.068
791.0,1.075
792.0,1.066
793.0,1.05
794.0,1.065
795.0,1.084
796.0,1.054
797.0,1.056
798.0,1.083
799.0,1.077
800.0,1.059
801.0,1.057
802.0,1.054
803.0,1.047
804.0,1.048
805.0,1.044
806.0,1.071
807.0,1.059
808.0,1.06
809.0,1.041
810.0,1.034
811.0,1.037
812.0,1.01
813.0,0.9913
814.0,0.8816
815.0,0.876
816.0,0.8169
817.0,0.8308
818.0,0.8019
819.0,0.8883
820.0,0.8399
821.0,0.9706
822.0,0.9448
823.0,0.6606
824.0,0.9213
825.0,0.9546
826.0,0.9219
827.0,0.9693
828.0,0.8321
829.0,0.9159
830.0,0.905
831.0,0.9079
832.0,0.882
833.0,0.9332
834.0,0.9036
835.0,0.9857
836.0,0.948
837.0,0.9883
838.0,0.9596
839.0,0.9731
840.0,0.9941
841.0,0.9809
842.0,0.9818
843.0,0.98
844.0,0.9672
845.0,0.999
846.0,0.9945
847.0,0.9756
848.0,0.9703
849.0,0.9428
850.0,0.9033
851.0,0.957
852.0,0.9501
853.0,0.9142
854.0,0.7898
855.0,0.8672
856.0,0.948
857.0,0.9689
858.0,0.962
859.0,0.9626
860.0,0.9643
861.0,0.9591
862.0,0.9742
863.0,0.9973
864.0,0.9475
865.0,0.9392
866.0,0.8446
867.0,0.8814
868.0,0.9592
869.0,0.9394
870.0,0.9662
871.0,0.9531
872.0,0.9498
873.0,0.948
874.0,0.9368
875.0,0.9179
876.0,0.9275
877.0,0.937
878.0,0.9473
879.0,0.9328
880.0,0.9128
881.0,0.8995
882.0,0.9191
883.0,0.9218
884.0,0.9177
885.0,0.9247
886.0,0.8823
887.0,0.891
888.0,0.9047
889.0,0.9142
890.0,0.9076
891.0,0.9056
892.0,0.8807
893.0,0.8547
894.0,0.8276
895.0,0.7857
896.0,0.7419
897.0,0.6423
898.0,0.6981
899.0,0.5371
900.0,0.7118
901.0,0.5627
902.0,0.6525
903.0,0.6615
904.0,0.8219
905.0,0.7953
906.0,0.7456
907.0,0.6132
908.0,0.6243
909.0,0.6729
910.0,0.6012
911.0,0.6371
912.0,0.6647
913.0,0.6105
914.0,0.6043
915.0,0.6546
916.0,0.556
917.0,0.6988
918.0,0.5702
919.0,0.71
920.0,0.7142
921.0,0.7421
922.0,0.6678
923.0,0.7167
924.0,0.6848
925.0,0.6701
926.0,0.6775
927.0,0.7543
928.0,0.5651
929.0,0.5189
930.0,0.4126
931.0,0.3903
932.0,0.2858
933.0,0.2348
934.0,0.134
935.0,0.2383
936.0,0.1521
937.0,0.1545
938.0,0.1888
939.0,0.3783
940.0,0.4518
941.0,0.3454
942.0,0.3972
943.0,0.2647
944.0,0.2758
945.0,0.3554
946.0,0.1855
947.0,0.3582
948.0,0.2639
949.0,0.475
950.0,0.1389
951.0,0.467
952.0,0.2569
953.0,0.3279
954.0,0.3978
955.0,0.3312
956.0,0.3193
957.0,0.2579
958.0,0.4465
959.0,0.3594
960.0,0.4027
961.0,0.4484
962.0,0.4248
963.0,0.4866
964.0,0.4468
965.0,0.4845
966.0,0.4853
967.0,0.4836
968.0,0.6375
969.0,0.6667
970.0,0.6138
971.0,0.6979
972.0,0.6686
973.0,0.5869
974.0,0.5578
975.0,0.5772
976.0,0.5506
977.0,0.6216
978.0,0.5926
979.0,0.6192
980.0,0.5832
981.0,0.694
982.0,0.6653
983.0,0.6398
984.0,0.7133
985.0,0.6629
986.0,0.7247
987.0,0.7118
988.0,0.7105
989.0,0.7219
990.0,0.7063
991.0,0.7242
992.0,0.7283
993.0,0.7134
994.0,0.728
995.0,0.727
996.0,0.724
997.0,0.725
998.0,0.7217
999.0,0.719
1000.0,0.7142
1001.0,0.7229
1002.0,0.7042
1003.0,0.7102
1004.0,0.6932
1005.0,0.6674
1006.0,0.6937
1007.0,0.7083
1008.0,0.7047
1009.0,0.7012
1010.0,0.6984
1011.0,0.7048
1012.0,0.699
1013.0,0.7031
1014.0,0.6982
1015.0,0.6937
1016.0,0.6906
1017.0,0.6924
1018.0,0.6897
1019.0,0.6755
1020.0,0.6862
1021.0,0.6852
1022.0,0.6801
1023.0,0.6873
1024.0,0.6789
1025.0,0.6868
1026.0,0.684
1027.0,0.6824
1028.0,0.681
1029.0,0.673
1030.0,0.6775
1031.0,0.6749
1032.0,0.6729
1033.0,0.6628
1034.0,0.6628
1035.0,0.6649
1036.0,0.6684
1037.0,0.6576
1038.0,0.6605
1039.0,0.6602
1040.0,0.6576
1041.0,0.6603
1042.0,0.6557
1043.0,0.6536
1044.0,0.656
1045.0,0.6471
1046.0,0.64
1047.0,0.6458
1048.0,0.6494
1049.0,0.6471
1050.0,0.6442
1051.0,0.6434
1052.0,0.6408
1053.0,0.6358
1054.0,0.6373
1055.0,0.6377
1056.0,0.6356
1057.0,0.6337
1058.0,0.6182
1059.0,0.6189
1060.0,0.618
1061.0,0.6174
1062.0,0.6207
1063.0,0.6146
1064.0,0.6219
1065.0,0.6176
1066.0,0.6053
1067.0,0.6132
1068.0,0.5999
1069.0,0.5813
1070.0,0.6012
1071.0,0.6102
1072.0,0.6034
1073.0,0.5947
1074.0,0.6097
1075.0,0.5803
1076.0,0.6093
1077.0,0.5991
1078.0,0.588
1079.0,0.5994
1080.0,0.5899
1081.0,0.5716
1082.0,0.5797
1083.0,0.5813
1084.0,0.5705
1085.0,0.5912
1086.0,0.5414
1087.0,0.5574
1088.0,0.581
1089.0,0.5643
1090.0,0.5527
1091.0,0.5794
1092.0,0.5777
1093.0,0.4934
1094.0,0.529
1095.0,0.5135
1096.0,0.4928
1097.0,0.5644
1098.0,0.4855
1099.0,0.5059
1100.0,0.4718
1101.0,0.4773
1102.0,0.4568
1103.0,0.4531
1104.0,0.4536
1105.0,0.4947
1106.0,0.3844
1107.0,0.471
1108.0,0.4029
1109.0,0.4029
1110.0,0.4674
1111.0,0.3219
1112.0,0.3996
1113.0,0.2593
1114.0,0.2893
1115.0,0.24
1116.0,0.1946
1117.0,0.07467
1118.0,0.2107
1119.0,0.1071
1120.0,0.1349
1121.0,0.1775
1122.0,0.07687
1123.0,0.1218
1124.0,0.1029
1125.0,0.1336
1126.0,0.04864
1127.0,0.1505
1128.0,0.09235
1129.0,0.09765
1130.0,0.0652
1131.0,0.2798
1132.0,0.2206
1133.0,0.1428
1134.0,0.03823
1135.0,0.01424
1136.0,0.1201
1137.0,0.2758
1138.0,0.195
1139.0,0.2851
1140.0,0.2404
1141.0,0.1853
1142.0,0.212
1143.0,0.2986
1144.0,0.1072
1145.0,0.1376
1146.0,0.1485
1147.0,0.05446
1148.0,0.2585
1149.0,0.2082
1150.0,0.1151
1151.0,0.1935
1152.0,0.2362
1153.0,0.2286
1154.0,0.1338
1155.0,0.2975
1156.0,0.2691
1157.0,0.3001
1158.0,0.2969
1159.0,0.3187
1160.0,0.2742
1161.0,0.3342
1162.0,0.3361
1163.0,0.4475
1164.0,0.3863
1165.0,0.3667
1166.0,0.3625
1167.0,0.3936
1168.0,0.3985
1169.0,0.4071
1170.0,0.4404
1171.0,0.4298
1172.0,0.4363
1173.0,0.4395
1174.0,0.3195
1175.0,0.4284
1176.0,0.4681
1177.0,0.4513
1178.0,0.3434
1179.0,0.4718
1180.0,0.4244
1181.0,0.4376
1182.0,0.3069
1183.0,0.4302
1184.0,0.4048
1185.0,0.3921
1186.0,0.46
1187.0,0.4397
1188.0,0.3126
1189.0,0.41
1190.0,0.4495
1191.0,0.4295
1192.0,0.4555
1193.0,0.4375
1194.0,0.4503
1195.0,0.4278
1196.0,0.4132
1197.0,0.4495
1198.0,0.4127
1199.0,0.3553
1200.0,0.4322
1201.0,0.4183
1202.0,0.415
1203.0,0.4116
1204.0,0.3624
1205.0,0.4234
1206.0,0.4652
1207.0,0.4144
1208.0,0.4066
1209.0,0.4146
1210.0,0.4309
1211.0,0.4121
1212.0,0.4091
1213.0,0.451
1214.0,0.418
1215.0,0.4105
1216.0,0.4494
1217.0,0.4384
1218.0,0.4459
1219.0,0.4408
1220.0,0.4462
1221.0,0.4502
1222.0,0.439
1223.0,0.4353
1224.0,0.4333
1225.0,0.4474
1226.0,0.4498
1227.0,0.4173
1228.0,0.4516
1229.0,0.4499
1230.0,0.4427
1231.0,0.4538
1232.0,0.4512
1233.0,0.4375
1234.0,0.453
1235.0,0.4504
1236.0,0.4535
1237.0,0.448
1238.0,0.452
1239.0,0.4462
1240.0,0.4478
1241.0,0.4462
1242.0,0.4448
1243.0,0.4412
1244.0,0.4445
1245.0,0.4463
1246.0,0.4437
1247.0,0.4421
1248.0,0.442
1249.0,0.4432
1250.0,0.4407
1251.0,0.4353
1252.0,0.435
1253.0,0.4322
1254.0,0.4283
1255.0,0.4347
1256.0,0.4237
1257.0,0.4217
1258.0,0.4286
1259.0,0.4149
1260.0,0.4169
1261.0,0.3958
1262.0,0.3851
1263.0,0.3859
1264.0,0.359
1265.0,0.3834
1266.0,0.3706
1267.0,0.3759
1268.0,0.3584
1269.0,0.2346
1270.0,0.375
1271.0,0.3942
1272.0,0.3952
1273.0,0.3913
1274.0,0.3922
1275.0,0.3975
1276.0,0.4009
1277.0,0.403
1278.0,0.4098
1279.0,0.4062
1280.0,0.401
1281.0,0.3822
1282.0,0.3676
1283.0,0.3961
1284.0,0.4057
1285.0,0.4082
1286.0,0.4134
1287.0,0.4077
1288.0,0.4074
1289.0,0.396
1290.0,0.4037
1291.0,0.4091
1292.0,0.3871
1293.0,0.4018
1294.0,0.3992
1295.0,0.3979
1296.0,0.3816
1297.0,0.3623
1298.0,0.3873
1299.0,0.4021
1300.0,0.345
1301.0,0.3547
1302.0,0.386
1303.0,0.34
1304.0,0.2943
1305.0,0.3784
1306.0,0.3787
1307.0,0.2991
1308.0,0.3399
1309.0,0.3762
1310.0,0.2937
1311.0,0.3268
1312.0,0.3186
1313.0,0.3132
1314.0,0.2819
1315.0,0.2792
1316.0,0.3224
1317.0,0.3059
1318.0,0.3307
1319.0,0.2635
1320.0,0.2542
1321.0,0.2944
1322.0,0.2981
1323.0,0.2284
1324.0,0.2584
1325.0,0.3181
1326.0,0.2756
1327.0,0.2635
1328.0,0.2285
1329.0,0.1749
1330.0,0.226
1331.0,0.1403
1332.0,0.1436
1333.0,0.1989
1334.0,0.1667
1335.0,0.2275
1336.0,0.1819
1337.0,0.1619
1338.0,0.1752
1339.0,0.1739
1340.0,0.1681
1341.0,0.1665
1342.0,0.1747
1343.0,0.123
1344.0,0.07342
1345.0,0.1055
1346.0,0.05545
1347.0,0.0569
1348.0,0.004262
1349.0,0.01469
1350.0,0.01481
1351.0,0.004095
1352.0,0.001269
1353.0,7.572e-05
1354.0,0.0002363
1355.0,2.619e-06
1356.0,3.745e-05
1357.0,5.68e-05
1358.0,3.062e-06
1359.0,4.892e-07
1360.0,1.525e-06
1361.0,2.829e-09
1362.0,9.679e-12
1363.0,2.206e-06
1364.0,9.307e-07
1365.0,4.462e-12
1366.0,9.051e-06
1367.0,3.576e-06
1368.0,5.929e-14
1369.0,3.532e-07
1370.0,1.925e-07
1371.0,1.241e-08
1372.0,1.969e-06
1373.0,3.38e-05
1374.0,0.0001408
1375.0,0.0002564
1376.0,0.0002115
1377.0,9.94e-05
1378.0,0.0009236
1379.0,4.199e-05
1380.0,6.459e-05
1381.0,1.812e-06
1382.0,1.827e-06
1383.0,3.016e-08
1384.0,4.154e-07
1385.0,1.548e-06
1386.0,1.743e-06
1387.0,0.0001556
1388.0,3.112e-06
1389.0,0.0004692
1390.0,0.000404
1391.0,0.0002765
1392.0,1.874e-05
1393.0,9.362e-05
1394.0,5.755e-05
1395.0,4.84e-07
1396.0,3.812e-09
1397.0,3.9e-05
1398.0,0.001049
1399.0,0.0006644
1400.0,1.878e-09
1401.0,6.537e-09
1402.0,0.001601
1403.0,0.002066
1404.0,0.0006374
1405.0,2.568e-07
1406.0,0.001734
1407.0,0.0001492
1408.0,0.001408
1409.0,0.0005122
1410.0,0.0003909
1411.0,0.001808
1412.0,0.00235
1413.0,0.02167
1414.0,0.0003056
1415.0,0.0001524
1416.0,0.03365
1417.0,0.01079
1418.0,0.01236
1419.0,0.001947
1420.0,0.007585
1421.0,0.008218
1422.0,0.04377
1423.0,0.008638
1424.0,0.01605
1425.0,0.02383
1426.0,0.02651
1427.0,0.04751
1428.0,0.004048
1429.0,0.03608
1430.0,0.06015
1431.0,0.06575
1432.0,0.003202
1433.0,0.04226
1434.0,0.02172
1435.0,0.02244
1436.0,0.04217
1437.0,0.03231
1438.0,0.01396
1439.0,0.05685
1440.0,0.04263
1441.0,0.03302
1442.0,0.03654
1443.0,0.04509
1444.0,0.0621
1445.0,0.04922
1446.0,0.02233
1447.0,0.03515
1448.0,0.1147
1449.0,0.1002
1450.0,0.02604
1451.0,0.01059
1452.0,0.06085
1453.0,0.0796
1454.0,0.1349
1455.0,0.06426
1456.0,0.08663
1457.0,0.1153
1458.0,0.135
1459.0,0.1598
1460.0,0.08366
1461.0,0.08777
1462.0,0.128
1463.0,0.04184
1464.0,0.151
1465.0,0.0911
1466.0,0.06379
