interpolation:linear
wavelength,value
280.0,7.199e-21
280.5,1.523e-19
281.0,7.076e-19
281.5,1.473e-17
282.0,9.17e-17
282.5,2.981e-16
283.0,1.096e-15
283.5,1.886e-15
284.0,3.13e-14
284.5,8.83e-14
285.0,1.665e-13
285.5,9.898e-13
286.0,4.185e-12
286.5,1.938e-11
287.0,5.566e-11
287.5,2.072e-10
288.0,7.177e-10
288.5,2.478e-09
289.0,7.18e-09
289.5,2.275e-08
290.0,6.47e-08
290.5,1.339e-07
291.0,2.877e-07
291.5,8.087e-07
292.0,1.803e-06
292.5,2.524e-06
293.0,5.333e-06
293.5,1.252e-05
294.0,1.929e-05
294.5,3.189e-05
295.0,5.184e-05
295.5,0.0001136
296.0,0.000191
296.5,0.0002332
297.0,0.0002827
297.5,0.0006432
298.0,0.0008834
298.5,0.0008001
299.0,0.001594
299.5,0.002212
300.0,0.002212
300.5,0.002905
301.0,0.004489
301.5,0.006228
302.0,0.004986
302.5,0.009041
303.0,0.01474
303.5,0.01751
304.0,0.01585
304.5,0.02129
305.0,0.02787
305.5,0.0292
306.0,0.0274
306.5,0.03231
307.0,0.04235
307.5,0.05014
308.0,0.05218
308.5,0.05841
309.0,0.05132
309.5,0.05514
310.0,0.05387
310.5,0.08624
311.0,0.1057
311.5,0.1013
312.0,0.09557
312.5,0.112
313.0,0.1193
313.5,0.1188
314.0,0.1417
314.5,0.1177
315.0,0.1534
315.5,0.1332
316.0,0.1104
316.5,0.1514
317.0,0.189
317.5,0.2002
318.0,0.1515
318.5,0.1768
319.0,0.2037
319.5,0.1758
320.0,0.2149
320.5,0.2524
321.0,0.2124
321.5,0.2031
322.0,0.2317
322.5,0.2016
323.0,0.1931
323.5,0.2216
324.0,0.2575
324.5,0.2678
325.0,0.2446
325.5,0.3049
326.0,0.3581
326.5,0.3505
327.0,0.3539
327.5,0.3472
328.0,0.3212
328.5,0.3247
329.0,0.3775
329.5,0.4258
330.0,0.4343
330.5,0.3575
331.0,0.3685
331.5,0.3687
332.0,0.389
332.5,0.3814
333.0,0.3842
333.5,0.3558
334.0,0.3668
334.5,0.4151
335.0,0.3863
335.5,0.4386
336.0,0.3042
336.5,0.371
337.0,0.3081
337.5,0.3856
338.0,0.3708
338.5,0.4186
339.0,0.4176
339.5,0.4012
340.0,0.484
340.5,0.4368
341.0,0.4189
341.5,0.3889
342.0,0.4668
342.5,0.4386
343.0,0.4816
343.5,0.4533
344.0,0.3409
344.5,0.3375
345.0,0.4523
345.5,0.4643
346.0,0.3963
346.5,0.4502
347.0,0.483
347.5,0.391
348.0,0.4485
348.5,0.4503
349.0,0.4189
349.5,0.4155
350.0,0.5151
350.5,0.5446
351.0,0.487
351.5,0.4722
352.0,0.5098
352.5,0.3995
353.0,0.5047
353.5,0.5412
354.0,0.5635
354.5,0.5728
355.0,0.572
355.5,0.5178
356.0,0.543
356.5,0.4648
357.0,0.385
357.5,0.4724
358.0,0.3753
358.5,0.3214
359.0,0.4506
359.5,0.5752
360.0,0.6112
360.5,0.4896
361.0,0.4472
361.5,0.5157
362.0,0.4465
362.5,0.6188
363.0,0.5566
363.5,0.5135
364.0,0.629
364.5,0.5386
365.0,0.5496
365.5,0.691
366.0,0.7333
366.5,0.69
367.0,0.6732
367.5,0.7
368.0,0.6136
368.5,0.6201
369.0,0.6708
369.5,0.7163
370.0,0.7648
370.5,0.5946
371.0,0.6363
371.5,0.7975
372.0,0.5303
372.5,0.6369
373.0,0.6488
373.5,0.4227
374.0,0.6153
374.5,0.5103
375.0,0.4969
375.5,0.7432
376.0,0.6171
376.5,0.6407
377.0,0.6793
377.5,0.7959
378.0,0.8643
378.5,0.8185
379.0,0.6768
379.5,0.6195
380.0,0.6452
380.5,0.7826
381.0,0.7853
381.5,0.6233
382.0,0.5543
382.5,0.4731
383.0,0.4386
383.5,0.423
384.0,0.4672
384.5,0.6882
385.0,0.6834
385.5,0.6372
386.0,0.5465
386.5,0.7188
387.0,0.5982
387.5,0.6729
388.0,0.6222
388.5,0.6158
389.0,0.6657
389.5,0.8074
390.0,0.8114
390.5,0.7477
391.0,0.8813
391.5,0.9002
392.0,0.7593
392.5,0.6806
393.0,0.3791
393.5,0.2759
394.0,0.5621
394.5,0.7155
395.0,0.8742
395.5,0.8893
396.0,0.772
396.5,0.4517
397.0,0.3394
397.5,0.6911
398.0,0.9693
398.5,1.003
399.0,1.087
399.5,1.085
400.0,1.128
401.0,1.161
402.0,1.227
403.0,1.168
404.0,1.152
405.0,1.155
406.0,1.138
407.0,1.121
408.0,1.168
409.0,1.252
410.0,1.096
411.0,1.189
412.0,1.279
413.0,1.25
414.0,1.268
415.0,1.273
416.0,1.297
417.0,1.267
418.0,1.246
419.0,1.265
420.0,1.262
421.0,1.322
422.0,1.259
423.0,1.231
424.0,1.305
425.0,1.304
426.0,1.272
427.0,1.25
428.0,1.22
429.0,1.156
430.0,1.013
431.0,1.006
432.0,1.301
433.0,1.31
434.0,1.218
435.0,1.274
436.0,1.437
437.0,1.418
438.0,1.293
439.0,1.34
440.0,1.384
441.0,1.436
442.0,1.542
443.0,1.505
444.0,1.539
445.0,1.508
446.0,1.44
447.0,1.558
448.0,1.585
449.0,1.592
450.0,1.638
451.0,1.701
452.0,1.641
453.0,1.544
454.0,1.613
455.0,1.625
456.0,1.666
457.0,1.696
458.0,1.641
459.0,1.634
460.0,1.641
461.0,1.68
462.0,1.694
463.0,1.684
464.0,1.657
465.0,1.636
466.0,1.653
467.0,1.625
468.0,1.646
469.0,1.657
470.0,1.606
471.0,1.605
472.0,1.694
473.0,1.674
474.0,1.679
475.0,1.697
476.0,1.65
477.0,1.657
478.0,1.704
479.0,1.694
480.0,1.698
481.0,1.73
482.0,1.739
483.0,1.718
484.0,1.684
485.0,1.605
486.0,1.404
487.0,1.471
488.0,1.616
489.0,1.623
490.0,1.708
491.0,1.679
492.0,1.587
493.0,1.64
494.0,1.658
495.0,1.673
496.0,1.685
497.0,1.713
498.0,1.634
499.0,1.657
500.0,1.611
501.0,1.583
502.0,1.564
503.0,1.632
504.0,1.598
505.0,1.651
506.0,1.706
507.0,1.624
508.0,1.573
509.0,1.617
510.0,1.608
511.0,1.651
512.0,1.67
513.0,1.581
514.0,1.571
515.0,1.556
516.0,1.554
517.0,1.381
518.0,1.453
519.0,1.525
520.0,1.582
521.0,1.598
522.0,1.601
523.0,1.574
524.0,1.632
525.0,1.654
526.0,1.581
527.0,1.492
528.0,1.58
529.0,1.668
530.0,1.645
531.0,1.671
532.0,1.615
533.0,1.568
534.0,1.615
535.0,1.65
536.0,1.666
537.0,1.601
538.0,1.629
539.0,1.617
540.0,1.551
541.0,1.564
542.0,1.615
543.0,1.597
544.0,1.627
545.0,1.623
546.0,1.632
547.0,1.631
548.0,1.612
549.0,1.617
550.0,1.637
551.0,1.617
552.0,1.629
553.0,1.601
554.0,1.641
555.0,1.645
556.0,1.625
557.0,1.576
558.0,1.565
559.0,1.538
560.0,1.558
561.0,1.58
562.0,1.571
563.0,1.616
564.0,1.573
565.0,1.561
566.0,1.54
567.0,1.571
568.0,1.561
569.0,1.531
570.0,1.53
571.0,1.52
572.0,1.561
573.0,1.579
574.0,1.576
575.0,1.548
576.0,1.535
577.0,1.551
578.0,1.527
579.0,1.531
580.0,1.556
581.0,1.562
582.0,1.589
583.0,1.591
584.0,1.604
585.0,1.564
586.0,1.533
587.0,1.569
588.0,1.539
589.0,1.38
590.0,1.442
591.0,1.517
592.0,1.504
593.0,1.52
594.0,1.513
595.0,1.481
596.0,1.528
597.0,1.514
598.0,1.507
599.0,1.507
600.0,1.507
601.0,1.493
602.0,1.483
603.0,1.507
604.0,1.531
605.0,1.523
606.0,1.516
607.0,1.53
608.0,1.513
609.0,1.515
610.0,1.503
611.0,1.511
612.0,1.506
613.0,1.487
614.0,1.466
615.0,1.498
616.0,1.448
617.0,1.445
618.0,1.5
619.0,1.485
620.0,1.495
621.0,1.498
622.0,1.482
623.0,1.461
624.0,1.435
625.0,1.432
626.0,1.454
627.0,1.473
628.0,1.41
629.0,1.451
630.0,1.419
631.0,1.44
632.0,1.421
633.0,1.46
634.0,1.443
635.0,1.464
636.0,1.443
637.0,1.466
638.0,1.478
639.0,1.46
640.0,1.445
641.0,1.443
642.0,1.436
643.0,1.455
644.0,1.45
645.0,1.453
646.0,1.424
647.0,1.416
648.0,1.419
649.0,1.392
650.0,1.388
651.0,1.446
652.0,1.399
653.0,1.427
654.0,1.41
655.0,1.365
656.0,1.205
657.0,1.237
658.0,1.383
659.0,1.392
660.0,1.397
661.0,1.407
662.0,1.413
663.0,1.384
664.0,1.398
665.0,1.397
666.0,1.397
667.0,1.395
668.0,1.394
669.0,1.415
670.0,1.409
671.0,1.408
672.0,1.396
673.0,1.417
674.0,1.411
675.0,1.398
676.0,1.408
677.0,1.394
678.0,1.398
679.0,1.375
680.0,1.386
681.0,1.377
682.0,1.375
683.0,1.373
684.0,1.366
685.0,1.378
686.0,1.37
687.0,1.057
688.0,1.166
689.0,1.168
690.0,1.202
691.0,1.239
692.0,1.264
693.0,1.256
694.0,1.247
695.0,1.282
696.0,1.284
697.0,1.34
698.0,1.319
699.0,1.303
700.0,1.288
701.0,1.279
702.0,1.283
703.0,1.285
704.0,1.318
705.0,1.32
706.0,1.316
707.0,1.316
708.0,1.319
709.0,1.316
710.0,1.318
711.0,1.315
712.0,1.309
713.0,1.298
714.0,1.303
715.0,1.267
716.0,1.27
717.0,1.156
718.0,1.073
719.0,0.99
720.0,1.04
721.0,1.113
722.0,1.235
723.0,1.171
724.0,1.078
725.0,1.068
726.0,1.113
727.0,1.117
728.0,1.068
729.0,1.088
730.0,1.149
731.0,1.107
732.0,1.163
733.0,1.211
734.0,1.235
735.0,1.212
736.0,1.21
737.0,1.216
738.0,1.222
739.0,1.199
740.0,1.226
741.0,1.212
742.0,1.211
743.0,1.241
744.0,1.236
745.0,1.236
746.0,1.241
747.0,1.244
748.0,1.242
749.0,1.227
750.0,1.227
751.0,1.214
752.0,1.22
753.0,1.226
754.0,1.229
755.0,1.222
756.0,1.221
757.0,1.223
758.0,1.209
759.0,1.191
760.0,0.3713
761.0,0.2434
762.0,0.7652
763.0,0.4896
764.0,0.6378
765.0,0.7661
766.0,0.8632
767.0,1.016
768.0,1.117
769.0,1.129
770.0,1.154
771.0,1.157
772.0,1.158
773.0,1.166
774.0,1.16
775.0,1.151
776.0,1.165
777.0,1.15
778.0,1.143
779.0,1.144
780.0,1.138
781.0,1.139
782.0,1.146
783.0,1.126
784.0,1.131
785.0,1.123
786.0,1.136
787.0,1.122
788.0,1.111
789.0,1.112
790.0,1.091
791.0,1.092
792.0,1.083
793.0,1.067
794.0,1.076
795.0,1.097
796.0,1.074
797.0,1.076
798.0,1.097
799.0,1.092
800.0,1.076
801.0,1.075
802.0,1.072
803.0,1.065
804.0,1.065
805.0,1.059
806.0,1.084
807.0,1.072
808.0,1.072
809.0,1.056
810.0,1.051
811.0,1.057
812.0,1.035
813.0,1.019
814.0,0.925
815.0,0.9187
816.0,0.8601
817.0,0.8719
818.0,0.8457
819.0,0.9202
820.0,0.8769
821.0,0.9911
822.0,0.9686
823.0,0.7146
824.0,0.9516
825.0,0.9763
826.0,0.9493
827.0,0.9909
828.0,0.8707
829.0,0.9417
830.0,0.9328
831.0,0.9348
832.0,0.9119
833.0,0.9538
834.0,0.9303
835.0,1.001
836.0,0.971
837.0,1.003
838.0,0.9771
839.0,0.9865
840.0,1.007
841.0,0.995
842.0,0.9934
843.0,0.9891
844.0,0.9775
845.0,1.008
846.0,1.003
847.0,0.9829
848.0,0.9786
849.0,0.9509
850.0,0.9108
851.0,0.9663
852.0,0.9587
853.0,0.9215
854.0,0.7969
855.0,0.8738
856.0,0.9557
857.0,0.976
858.0,0.9693
859.0,0.9695
860.0,0.9708
861.0,0.9657
862.0,0.9807
863.0,1.004
864.0,0.9537
865.0,0.9453
866.0,0.85
867.0,0.887
868.0,0.9653
869.0,0.9452
870.0,0.9722
871.0,0.959
872.0,0.9556
873.0,0.9537
874.0,0.9424
875.0,0.9235
876.0,0.9332
877.0,0.9426
878.0,0.9532
879.0,0.9385
880.0,0.9184
881.0,0.9055
882.0,0.9254
883.0,0.9276
884.0,0.9237
885.0,0.9308
886.0,0.8901
887.0,0.8973
888.0,0.9121
889.0,0.9198
890.0,0.9153
891.0,0.9122
892.0,0.8898
893.0,0.8674
894.0,0.8465
895.0,0.8123
896.0,0.7719
897.0,0.6812
898.0,0.7326
899.0,0.5803
900.0,0.7395
901.0,0.6066
902.0,0.6825
903.0,0.6983
904.0,0.8406
905.0,0.8175
906.0,0.7699
907.0,0.652
908.0,0.6616
909.0,0.7034
910.0,0.6451
911.0,0.6742
912.0,0.6989
913.0,0.6557
914.0,0.6464
915.0,0.6971
916.0,0.5988
917.0,0.7327
918.0,0.6143
919.0,0.7408
920.0,0.7377
921.0,0.7636
922.0,0.6992
923.0,0.737
924.0,0.717
925.0,0.7023
926.0,0.7095
927.0,0.7785
928.0,0.6164
929.0,0.5751
930.0,0.4728
931.0,0.4441
932.0,0.3407
933.0,0.2893
934.0,0.1848
935.0,0.2858
936.0,0.1947
937.0,0.2
938.0,0.2391
939.0,0.4305
940.0,0.5035
941.0,0.3999
942.0,0.4497
943.0,0.3119
944.0,0.3149
945.0,0.4092
946.0,0.2302
947.0,0.4163
948.0,0.3102
949.0,0.535
950.0,0.1848
951.0,0.5232
952.0,0.3108
953.0,0.382
954.0,0.4473
955.0,0.3839
956.0,0.3651
957.0,0.3143
958.0,0.4858
959.0,0.4079
960.0,0.4561
961.0,0.4955
962.0,0.4714
963.0,0.5288
964.0,0.4897
965.0,0.5248
966.0,0.5287
967.0,0.5276
968.0,0.6595
969.0,0.6912
970.0,0.6423
971.0,0.7143
972.0,0.6873
973.0,0.6192
974.0,0.5914
975.0,0.6053
976.0,0.5856
977.0,0.6452
978.0,0.6218
979.0,0.6442
980.0,0.6106
981.0,0.7094
982.0,0.6856
983.0,0.6629
984.0,0.7229
985.0,0.6828
986.0,0.7309
987.0,0.7215
988.0,0.7203
989.0,0.7258
990.0,0.7154
991.0,0.7286
992.0,0.7323
993.0,0.7209
994.0,0.7316
995.0,0.73
996.0,0.7276
997.0,0.7283
998.0,0.7252
999.0,0.7223
1000.0,0.7184
1001.0,0.7261
1002.0,0.711
1003.0,0.7136
1004.0,0.6975
1005.0,0.6702
1006.0,0.6973
1007.0,0.7116
1008.0,0.7087
1009.0,0.7059
1010.0,0.7034
1011.0,0.7079
1012.0,0.7028
1013.0,0.706
1014.0,0.7011
1015.0,0.6966
1016.0,0.6936
1017.0,0.6956
1018.0,0.6924
1019.0,0.6795
1020.0,0.6891
1021.0,0.6878
1022.0,0.6832
1023.0,0.6906
1024.0,0.6835
1025.0,0.6895
1026.0,0.687
1027.0,0.6854
1028.0,0.6841
1029.0,0.6762
1030.0,0.6802
1031.0,0.6778
1032.0,0.6756
1033.0,0.6655
1034.0,0.6655
1035.0,0.6675
1036.0,0.6712
1037.0,0.6603
1038.0,0.6633
1039.0,0.663
1040.0,0.6604
1041.0,0.6632
1042.0,0.6586
1043.0,0.6567
1044.0,0.6591
1045.0,0.6503
1046.0,0.6432
1047.0,0.6492
1048.0,0.6529
1049.0,0.6507
1050.0,0.6479
1051.0,0.6472
1052.0,0.6447
1053.0,0.6398
1054.0,0.6415
1055.0,0.6421
1056.0,0.6402
1057.0,0.6385
1058.0,0.623
1059.0,0.624
1060.0,0.6232
1061.0,0.6227
1062.0,0.6263
1063.0,0.6203
1064.0,0.6276
1065.0,0.6238
1066.0,0.6109
1067.0,0.619
1068.0,0.606
1069.0,0.5869
1070.0,0.6074
1071.0,0.6152
1072.0,0.6094
1073.0,0.6003
1074.0,0.614
1075.0,0.5885
1076.0,0.6138
1077.0,0.6058
1078.0,0.5954
1079.0,0.6032
1080.0,0.5967
1081.0,0.5799
1082.0,0.5848
1083.0,0.5855
1084.0,0.5801
1085.0,0.5975
1086.0,0.5541
1087.0,0.5652
1088.0,0.586
1089.0,0.5729
1090.0,0.5641
1091.0,0.5855
1092.0,0.5829
1093.0,0.5101
1094.0,0.5352
1095.0,0.5287
1096.0,0.5112
1097.0,0.5692
1098.0,0.5047
1099.0,0.5239
1100.0,0.4946
1101.0,0.4985
1102.0,0.4804
1103.0,0.479
1104.0,0.4792
1105.0,0.5136
1106.0,0.4207
1107.0,0.4932
1108.0,0.435
1109.0,0.4326
1110.0,0.4908
1111.0,0.3563
1112.0,0.428
1113.0,0.2974
1114.0,0.3289
1115.0,0.2735
1116.0,0.2343
1117.0,0.1053
1118.0,0.2484
1119.0,0.1379
1120.0,0.1734
1121.0,0.2205
1122.0,0.1058
1123.0,0.1564
1124.0,0.1322
1125.0,0.1689
1126.0,0.07201
1127.0,0.1894
1128.0,0.1273
1129.0,0.1326
1130.0,0.09442
1131.0,0.3269
1132.0,0.2626
1133.0,0.1833
1134.0,0.05868
1135.0,0.02158
1136.0,0.159
1137.0,0.3254
1138.0,0.2337
1139.0,0.3181
1140.0,0.2775
1141.0,0.2221
1142.0,0.2488
1143.0,0.3405
1144.0,0.1355
1145.0,0.1761
1146.0,0.1902
1147.0,0.08108
1148.0,0.295
1149.0,0.2454
1150.0,0.1455
1151.0,0.2322
1152.0,0.2744
1153.0,0.2592
1154.0,0.1744
1155.0,0.3323
1156.0,0.305
1157.0,0.3343
1158.0,0.3302
1159.0,0.3482
1160.0,0.3077
1161.0,0.3616
1162.0,0.3645
1163.0,0.4639
1164.0,0.4085
1165.0,0.3947
1166.0,0.3859
1167.0,0.4149
1168.0,0.4213
1169.0,0.4275
1170.0,0.4566
1171.0,0.4467
1172.0,0.4504
1173.0,0.4557
1174.0,0.3485
1175.0,0.442
1176.0,0.4755
1177.0,0.463
1178.0,0.3654
1179.0,0.4788
1180.0,0.4392
1181.0,0.4518
1182.0,0.3308
1183.0,0.4422
1184.0,0.4207
1185.0,0.4112
1186.0,0.4697
1187.0,0.4528
1188.0,0.3377
1189.0,0.4233
1190.0,0.4591
1191.0,0.4449
1192.0,0.4645
1193.0,0.4485
1194.0,0.4599
1195.0,0.4412
1196.0,0.4292
1197.0,0.4565
1198.0,0.4231
1199.0,0.3747
1200.0,0.4434
1201.0,0.4326
1202.0,0.4274
1203.0,0.4237
1204.0,0.3794
1205.0,0.433
1206.0,0.4698
1207.0,0.4276
1208.0,0.4166
1209.0,0.424
1210.0,0.4383
1211.0,0.4232
1212.0,0.424
1213.0,0.4574
1214.0,0.4311
1215.0,0.4245
1216.0,0.4557
1217.0,0.4465
1218.0,0.4523
1219.0,0.448
1220.0,0.4524
1221.0,0.4553
1222.0,0.4453
1223.0,0.4423
1224.0,0.4415
1225.0,0.4525
1226.0,0.4538
1227.0,0.4259
1228.0,0.4547
1229.0,0.4538
1230.0,0.4475
1231.0,0.4558
1232.0,0.4532
1233.0,0.4432
1234.0,0.4542
1235.0,0.4521
1236.0,0.4548
1237.0,0.4507
1238.0,0.4533
1239.0,0.4475
1240.0,0.4489
1241.0,0.4482
1242.0,0.446
1243.0,0.4423
1244.0,0.4459
1245.0,0.4475
1246.0,0.4449
1247.0,0.4435
1248.0,0.4439
1249.0,0.4447
1250.0,0.4424
1251.0,0.4376
1252.0,0.4366
1253.0,0.435
1254.0,0.4321
1255.0,0.4367
1256.0,0.428
1257.0,0.4263
1258.0,0.4315
1259.0,0.4214
1260.0,0.4229
1261.0,0.4062
1262.0,0.3978
1263.0,0.3988
1264.0,0.3769
1265.0,0.3961
1266.0,0.3863
1267.0,0.3895
1268.0,0.3752
1269.0,0.2741
1270.0,0.3895
1271.0,0.404
1272.0,0.4045
1273.0,0.4011
1274.0,0.4013
1275.0,0.4058
1276.0,0.4083
1277.0,0.4095
1278.0,0.4144
1279.0,0.4109
1280.0,0.4056
1281.0,0.3857
1282.0,0.3695
1283.0,0.3984
1284.0,0.4084
1285.0,0.4107
1286.0,0.4151
1287.0,0.4109
1288.0,0.4102
1289.0,0.4016
1290.0,0.4063
1291.0,0.4112
1292.0,0.3946
1293.0,0.4053
1294.0,0.4029
1295.0,0.4029
1296.0,0.3901
1297.0,0.3735
1298.0,0.3933
1299.0,0.405
1300.0,0.3581
1301.0,0.3659
1302.0,0.3917
1303.0,0.3517
1304.0,0.3146
1305.0,0.3849
1306.0,0.3857
1307.0,0.3164
1308.0,0.3501
1309.0,0.3837
1310.0,0.311
1311.0,0.3389
1312.0,0.3321
1313.0,0.3278
1314.0,0.2988
1315.0,0.2982
1316.0,0.3359
1317.0,0.3199
1318.0,0.3416
1319.0,0.2847
1320.0,0.272
1321.0,0.3107
1322.0,0.3162
1323.0,0.2529
1324.0,0.2792
1325.0,0.3318
1326.0,0.2943
1327.0,0.2831
1328.0,0.2489
1329.0,0.1997
1330.0,0.2531
1331.0,0.1693
1332.0,0.169
1333.0,0.2304
1334.0,0.1894
1335.0,0.2516
1336.0,0.2069
1337.0,0.1884
1338.0,0.2027
1339.0,0.1998
1340.0,0.1905
1341.0,0.1949
1342.0,0.2041
1343.0,0.1589
1344.0,0.09525
1345.0,0.1339
1346.0,0.08178
1347.0,0.0856
1348.0,0.009554
1349.0,0.02897
1350.0,0.02676
1351.0,0.01045
1352.0,0.004449
1353.0,0.000413
1354.0,0.001003
1355.0,2.525e-05
1356.0,0.0002136
1357.0,0.0003172
1358.0,2.859e-05
1359.0,8.05e-06
1360.0,1.745e-05
1361.0,1.167e-07
1362.0,7.537e-10
1363.0,2.738e-05
1364.0,1.296e-05
1365.0,6.472e-10
1366.0,9.541e-05
1367.0,3.702e-05
1368.0,3.125e-11
1369.0,5.217e-06
1370.0,3.591e-06
1371.0,3.293e-07
1372.0,2.075e-05
1373.0,0.0002297
1374.0,0.0007217
1375.0,0.001261
1376.0,0.000888
1377.0,0.0004503
1378.0,0.003464
1379.0,0.0001962
1380.0,0.0003462
1381.0,1.234e-05
1382.0,2.049e-05
1383.0,4.63e-07
1384.0,6.648e-06
1385.0,1.363e-05
1386.0,2.27e-05
1387.0,0.0008881
1388.0,2.069e-05
1389.0,0.002045
1390.0,0.001732
1391.0,0.001297
1392.0,0.0001036
1393.0,0.0004336
1394.0,0.0003946
1395.0,5.084e-06
1396.0,1.342e-07
1397.0,0.000204
1398.0,0.00397
1399.0,0.00255
1400.0,8.98e-08
1401.0,2.038e-07
1402.0,0.004394
1403.0,0.005976
1404.0,0.001904
1405.0,3.32e-06
1406.0,0.005613
1407.0,0.0004905
1408.0,0.004517
1409.0,0.002005
1410.0,0.001424
1411.0,0.005189
1412.0,0.006127
1413.0,0.03997
1414.0,0.001095
1415.0,0.0006088
1416.0,0.05305
1417.0,0.02123
1418.0,0.02398
1419.0,0.004039
1420.0,0.01495
1421.0,0.01687
1422.0,0.06737
1423.0,0.01465
1424.0,0.02618
1425.0,0.03978
1426.0,0.04111
1427.0,0.0658
1428.0,0.009292
1429.0,0.05323
1430.0,0.08098
1431.0,0.0865
1432.0,0.007503
1433.0,0.05872
1434.0,0.03178
1435.0,0.0381
1436.0,0.06301
1437.0,0.04861
1438.0,0.02353
1439.0,0.08098
1440.0,0.06154
1441.0,0.05161
1442.0,0.05574
1443.0,0.06291
1444.0,0.08467
1445.0,0.0716
1446.0,0.03393
1447.0,0.05372
1448.0,0.1405
1449.0,0.1276
1450.0,0.03979
1451.0,0.01765
1452.0,0.08199
1453.0,0.1041
1454.0,0.1603
1455.0,0.08261
1456.0,0.1139
1457.0,0.1414
1458.0,0.1563
1459.0,0.1863
1460.0,0.103
1461.0,0.1118
1462.0,0.155
1463.0,0.05685
1464.0,0.1751
1465.0,0.1073
1466.0,0.08573
1467.0,0.05087
1468.0,0.09793
1469.0,0.1168
