interpolation:linear
wavelength,value
280.0,8.231e-19
280.5,1.288e-17
281.0,5.362e-17
281.5,8.338e-16
282.0,4.349e-15
282.5,1.255e-14
283.0,4.044e-14
283.5,6.521e-14
284.0,7.984e-13
284.5,1.961e-12
285.0,3.182e-12
285.5,1.586e-11
286.0,6.243e-11
286.5,2.497e-10
287.0,6.435e-10
287.5,2.078e-09
288.0,6.02e-09
288.5,1.89e-08
289.0,4.965e-08
289.5,1.413e-07
290.0,3.678e-07
290.5,7.072e-07
291.0,1.39e-06
291.5,3.489e-06
292.0,7.095e-06
292.5,9.431e-06
293.0,1.864e-05
293.5,3.998e-05
294.0,5.795e-05
294.5,9.147e-05
295.0,0.0001403
295.5,0.0002862
296.0,0.0004579
296.5,0.0005337
297.0,0.0006235
297.5,0.001347
298.0,0.001774
298.5,0.001558
299.0,0.003014
299.5,0.003994
300.0,0.003899
300.5,0.004999
301.0,0.007464
301.5,0.01007
302.0,0.007956
302.5,0.01408
303.0,0.02231
303.5,0.02605
304.0,0.02338
304.5,0.03081
305.0,0.03934
305.5,0.04059
306.0,0.03785
306.5,0.04421
307.0,0.05686
307.5,0.06618
308.0,0.06863
308.5,0.07619
309.0,0.0665
309.5,0.0702
310.0,0.06802
310.5,0.1084
311.0,0.1321
311.5,0.126
312.0,0.1175
312.5,0.1365
313.0,0.1447
313.5,0.1445
314.0,0.1707
314.5,0.1402
315.0,0.1822
315.5,0.159
316.0,0.1305
316.5,0.1777
317.0,0.2216
317.5,0.235
318.0,0.1769
318.5,0.2047
319.0,0.2347
319.5,0.2036
320.0,0.2489
320.5,0.2899
321.0,0.2422
321.5,0.2313
322.0,0.2656
322.5,0.2308
323.0,0.2199
323.5,0.2503
324.0,0.2904
324.5,0.3026
325.0,0.2775
325.5,0.3445
326.0,0.4024
326.5,0.3926
327.0,0.3964
327.5,0.3891
328.0,0.3614
328.5,0.3632
329.0,0.4206
329.5,0.4737
330.0,0.4832
330.5,0.3985
331.0,0.4109
331.5,0.41
332.0,0.4312
332.5,0.4221
333.0,0.4252
333.5,0.3942
334.0,0.4062
334.5,0.4585
335.0,0.426
335.5,0.4832
336.0,0.335
336.5,0.4087
337.0,0.3394
337.5,0.4247
338.0,0.4076
338.5,0.4596
339.0,0.4581
339.5,0.4399
340.0,0.5308
340.5,0.4786
341.0,0.4585
341.5,0.4253
342.0,0.5102
342.5,0.479
343.0,0.5259
343.5,0.4948
344.0,0.3722
344.5,0.3681
345.0,0.4928
345.5,0.5055
346.0,0.4312
346.5,0.4897
347.0,0.5251
347.5,0.4249
348.0,0.4871
348.5,0.4888
349.0,0.4544
349.5,0.4505
350.0,0.5582
350.5,0.5899
351.0,0.5273
351.5,0.5112
352.0,0.5515
352.5,0.432
353.0,0.5454
353.5,0.5846
354.0,0.6084
354.5,0.6183
355.0,0.6171
355.5,0.5584
356.0,0.5853
356.5,0.5008
357.0,0.4146
357.5,0.5087
358.0,0.4039
358.5,0.3458
359.0,0.4846
359.5,0.6184
360.0,0.6568
360.5,0.526
361.0,0.4803
361.5,0.5534
362.0,0.4789
362.5,0.6634
363.0,0.5964
363.5,0.5499
364.0,0.6734
364.5,0.5764
365.0,0.5879
365.5,0.739
366.0,0.7838
366.5,0.7373
367.0,0.7191
367.5,0.7474
368.0,0.6549
368.5,0.6616
369.0,0.7155
369.5,0.7636
370.0,0.8151
370.5,0.6334
371.0,0.6777
371.5,0.8491
372.0,0.5644
372.5,0.6776
373.0,0.69
373.5,0.4494
374.0,0.6539
374.5,0.5421
375.0,0.5277
375.5,0.7891
376.0,0.6551
376.5,0.6799
377.0,0.7206
377.5,0.8441
378.0,0.9163
378.5,0.8675
379.0,0.7172
379.5,0.6563
380.0,0.6834
380.5,0.8286
381.0,0.8311
381.5,0.6594
382.0,0.5862
382.5,0.5001
383.0,0.4635
383.5,0.4469
384.0,0.4935
384.5,0.7266
385.0,0.7213
385.5,0.6724
386.0,0.5765
386.5,0.758
387.0,0.6307
387.5,0.7093
388.0,0.6556
388.5,0.6487
389.0,0.7011
389.5,0.85
390.0,0.854
390.5,0.7868
391.0,0.9271
391.5,0.9467
392.0,0.7984
392.5,0.7154
393.0,0.3984
393.5,0.2898
394.0,0.5904
394.5,0.7513
395.0,0.9177
395.5,0.9334
396.0,0.81
396.5,0.4738
397.0,0.3559
397.5,0.7246
398.0,1.016
398.5,1.051
399.0,1.139
399.5,1.136
400.0,1.181
401.0,1.215
402.0,1.284
403.0,1.221
404.0,1.205
405.0,1.206
406.0,1.188
407.0,1.171
408.0,1.219
409.0,1.306
410.0,1.143
411.0,1.239
412.0,1.332
413.0,1.302
414.0,1.319
415.0,1.324
416.0,1.349
417.0,1.318
418.0,1.295
419.0,1.314
420.0,1.31
421.0,1.372
422.0,1.306
423.0,1.278
424.0,1.353
425.0,1.352
426.0,1.318
427.0,1.295
428.0,1.263
429.0,1.197
430.0,1.048
431.0,1.041
432.0,1.345
433.0,1.354
434.0,1.259
435.0,1.317
436.0,1.484
437.0,1.465
438.0,1.335
439.0,1.384
440.0,1.429
441.0,1.481
442.0,1.59
443.0,1.552
444.0,1.586
445.0,1.554
446.0,1.483
447.0,1.604
448.0,1.633
449.0,1.639
450.0,1.686
451.0,1.75
452.0,1.687
453.0,1.588
454.0,1.658
455.0,1.671
456.0,1.712
457.0,1.742
458.0,1.685
459.0,1.678
460.0,1.684
461.0,1.724
462.0,1.738
463.0,1.728
464.0,1.699
465.0,1.678
466.0,1.695
467.0,1.666
468.0,1.687
469.0,1.698
470.0,1.646
471.0,1.645
472.0,1.735
473.0,1.714
474.0,1.72
475.0,1.738
476.0,1.69
477.0,1.697
478.0,1.745
479.0,1.735
480.0,1.738
481.0,1.77
482.0,1.779
483.0,1.757
484.0,1.721
485.0,1.64
486.0,1.434
487.0,1.503
488.0,1.651
489.0,1.658
490.0,1.744
491.0,1.715
492.0,1.62
493.0,1.674
494.0,1.692
495.0,1.708
496.0,1.719
497.0,1.747
498.0,1.667
499.0,1.69
500.0,1.643
501.0,1.615
502.0,1.596
503.0,1.665
504.0,1.631
505.0,1.684
506.0,1.74
507.0,1.657
508.0,1.604
509.0,1.648
510.0,1.639
511.0,1.682
512.0,1.701
513.0,1.611
514.0,1.6
515.0,1.585
516.0,1.582
517.0,1.406
518.0,1.479
519.0,1.553
520.0,1.611
521.0,1.627
522.0,1.63
523.0,1.602
524.0,1.661
525.0,1.684
526.0,1.61
527.0,1.519
528.0,1.609
529.0,1.698
530.0,1.675
531.0,1.701
532.0,1.644
533.0,1.596
534.0,1.644
535.0,1.679
536.0,1.695
537.0,1.628
538.0,1.657
539.0,1.644
540.0,1.578
541.0,1.591
542.0,1.643
543.0,1.624
544.0,1.655
545.0,1.65
546.0,1.66
547.0,1.659
548.0,1.639
549.0,1.644
550.0,1.664
551.0,1.644
552.0,1.656
553.0,1.628
554.0,1.668
555.0,1.672
556.0,1.651
557.0,1.601
558.0,1.591
559.0,1.563
560.0,1.584
561.0,1.606
562.0,1.597
563.0,1.643
564.0,1.6
565.0,1.588
566.0,1.566
567.0,1.598
568.0,1.588
569.0,1.559
570.0,1.558
571.0,1.547
572.0,1.59
573.0,1.608
574.0,1.605
575.0,1.577
576.0,1.563
577.0,1.58
578.0,1.555
579.0,1.558
580.0,1.583
581.0,1.588
582.0,1.615
583.0,1.616
584.0,1.629
585.0,1.588
586.0,1.556
587.0,1.593
588.0,1.565
589.0,1.406
590.0,1.469
591.0,1.544
592.0,1.531
593.0,1.546
594.0,1.54
595.0,1.508
596.0,1.553
597.0,1.54
598.0,1.532
599.0,1.532
600.0,1.53
601.0,1.515
602.0,1.505
603.0,1.529
604.0,1.554
605.0,1.546
606.0,1.538
607.0,1.552
608.0,1.534
609.0,1.536
610.0,1.524
611.0,1.532
612.0,1.527
613.0,1.507
614.0,1.486
615.0,1.517
616.0,1.467
617.0,1.464
618.0,1.52
619.0,1.504
620.0,1.514
621.0,1.517
622.0,1.501
623.0,1.48
624.0,1.454
625.0,1.451
626.0,1.473
627.0,1.493
628.0,1.435
629.0,1.473
630.0,1.44
631.0,1.46
632.0,1.44
633.0,1.479
634.0,1.46
635.0,1.481
636.0,1.46
637.0,1.482
638.0,1.494
639.0,1.476
640.0,1.46
641.0,1.458
642.0,1.45
643.0,1.47
644.0,1.464
645.0,1.468
646.0,1.439
647.0,1.433
648.0,1.436
649.0,1.409
650.0,1.402
651.0,1.46
652.0,1.416
653.0,1.441
654.0,1.424
655.0,1.379
656.0,1.217
657.0,1.25
658.0,1.396
659.0,1.405
660.0,1.41
661.0,1.42
662.0,1.426
663.0,1.397
664.0,1.41
665.0,1.408
666.0,1.408
667.0,1.406
668.0,1.405
669.0,1.426
670.0,1.42
671.0,1.419
672.0,1.406
673.0,1.427
674.0,1.422
675.0,1.408
676.0,1.418
677.0,1.403
678.0,1.407
679.0,1.384
680.0,1.395
681.0,1.386
682.0,1.385
683.0,1.382
684.0,1.375
685.0,1.387
686.0,1.379
687.0,1.096
688.0,1.195
689.0,1.196
690.0,1.226
691.0,1.259
692.0,1.28
693.0,1.273
694.0,1.264
695.0,1.295
696.0,1.298
697.0,1.349
698.0,1.329
699.0,1.315
700.0,1.3
701.0,1.292
702.0,1.295
703.0,1.297
704.0,1.328
705.0,1.331
706.0,1.325
707.0,1.325
708.0,1.328
709.0,1.324
710.0,1.327
711.0,1.324
712.0,1.317
713.0,1.306
714.0,1.311
715.0,1.276
716.0,1.279
717.0,1.176
718.0,1.095
719.0,1.013
720.0,1.064
721.0,1.131
722.0,1.246
723.0,1.186
724.0,1.097
725.0,1.089
726.0,1.133
727.0,1.135
728.0,1.089
729.0,1.105
730.0,1.166
731.0,1.125
732.0,1.178
733.0,1.222
734.0,1.245
735.0,1.222
736.0,1.22
737.0,1.226
738.0,1.23
739.0,1.206
740.0,1.233
741.0,1.218
742.0,1.217
743.0,1.247
744.0,1.242
745.0,1.241
746.0,1.247
747.0,1.249
748.0,1.247
749.0,1.232
750.0,1.232
751.0,1.219
752.0,1.225
753.0,1.231
754.0,1.234
755.0,1.227
756.0,1.226
757.0,1.228
758.0,1.213
759.0,1.198
760.0,0.4235
761.0,0.2905
762.0,0.8051
763.0,0.5417
764.0,0.6854
765.0,0.8062
766.0,0.8927
767.0,1.036
768.0,1.128
769.0,1.137
770.0,1.16
771.0,1.162
772.0,1.162
773.0,1.17
774.0,1.164
775.0,1.155
776.0,1.169
777.0,1.154
778.0,1.147
779.0,1.148
780.0,1.141
781.0,1.143
782.0,1.15
783.0,1.13
784.0,1.135
785.0,1.127
786.0,1.14
787.0,1.127
788.0,1.116
789.0,1.117
790.0,1.098
791.0,1.098
792.0,1.089
793.0,1.072
794.0,1.08
795.0,1.101
796.0,1.081
797.0,1.083
798.0,1.101
799.0,1.097
800.0,1.081
801.0,1.081
802.0,1.078
803.0,1.071
804.0,1.071
805.0,1.064
806.0,1.088
807.0,1.076
808.0,1.076
809.0,1.061
810.0,1.056
811.0,1.063
812.0,1.043
813.0,1.029
814.0,0.9403
815.0,0.9339
816.0,0.8759
817.0,0.8868
818.0,0.8615
819.0,0.9314
820.0,0.8901
821.0,0.9979
822.0,0.9767
823.0,0.735
824.0,0.962
825.0,0.9838
826.0,0.959
827.0,0.9983
828.0,0.8846
829.0,0.9508
830.0,0.9426
831.0,0.9443
832.0,0.9225
833.0,0.9607
834.0,0.9393
835.0,1.005
836.0,0.9787
837.0,1.007
838.0,0.9827
839.0,0.9908
840.0,1.011
841.0,0.9996
842.0,0.9972
843.0,0.992
844.0,0.9809
845.0,1.01
846.0,1.005
847.0,0.9852
848.0,0.9813
849.0,0.9535
850.0,0.9133
851.0,0.9693
852.0,0.9615
853.0,0.9238
854.0,0.7992
855.0,0.876
856.0,0.9582
857.0,0.9782
858.0,0.9717
859.0,0.9717
860.0,0.9729
861.0,0.9678
862.0,0.9828
863.0,1.006
864.0,0.9557
865.0,0.9472
866.0,0.8517
867.0,0.8888
868.0,0.9672
869.0,0.9471
870.0,0.9741
871.0,0.9609
872.0,0.9575
873.0,0.9556
874.0,0.9442
875.0,0.9253
876.0,0.9351
877.0,0.9444
878.0,0.9551
879.0,0.9403
880.0,0.9202
881.0,0.9075
882.0,0.9275
883.0,0.9295
884.0,0.9256
885.0,0.9327
886.0,0.8925
887.0,0.8993
888.0,0.9146
889.0,0.9216
890.0,0.9178
891.0,0.9144
892.0,0.8927
893.0,0.8716
894.0,0.8528
895.0,0.8213
896.0,0.7827
897.0,0.6956
898.0,0.745
899.0,0.5967
900.0,0.7494
901.0,0.6229
902.0,0.6932
903.0,0.7116
904.0,0.8469
905.0,0.8252
906.0,0.7785
907.0,0.6662
908.0,0.6753
909.0,0.7143
910.0,0.6612
911.0,0.6879
912.0,0.7111
913.0,0.6723
914.0,0.6619
915.0,0.7121
916.0,0.6149
917.0,0.7445
918.0,0.6306
919.0,0.7516
920.0,0.7463
921.0,0.7708
922.0,0.7103
923.0,0.744
924.0,0.728
925.0,0.7136
926.0,0.7204
927.0,0.7864
928.0,0.635
929.0,0.5955
930.0,0.4956
931.0,0.4644
932.0,0.3618
933.0,0.3109
934.0,0.206
935.0,0.3043
936.0,0.2119
937.0,0.2189
938.0,0.2596
939.0,0.4501
940.0,0.5226
941.0,0.4207
942.0,0.469
943.0,0.33
944.0,0.33
945.0,0.4297
946.0,0.2482
947.0,0.4385
948.0,0.3285
949.0,0.5568
950.0,0.2044
951.0,0.5436
952.0,0.3323
953.0,0.4029
954.0,0.4658
955.0,0.4041
956.0,0.3836
957.0,0.3369
958.0,0.5005
959.0,0.4267
960.0,0.4762
961.0,0.5131
962.0,0.4891
963.0,0.5445
964.0,0.5059
965.0,0.5397
966.0,0.5448
967.0,0.5439
968.0,0.6674
969.0,0.6995
970.0,0.6524
971.0,0.7198
972.0,0.6938
973.0,0.6308
974.0,0.6036
975.0,0.6155
976.0,0.5981
977.0,0.6537
978.0,0.6322
979.0,0.6529
980.0,0.6205
981.0,0.7145
982.0,0.6925
983.0,0.6709
984.0,0.7261
985.0,0.6896
986.0,0.7329
987.0,0.7245
988.0,0.7235
989.0,0.7271
990.0,0.7183
991.0,0.73
992.0,0.7336
993.0,0.7233
994.0,0.7327
995.0,0.731
996.0,0.7287
997.0,0.7293
998.0,0.7263
999.0,0.7234
1000.0,0.7198
1001.0,0.7271
1002.0,0.7133
1003.0,0.7147
1004.0,0.6988
1005.0,0.671
1006.0,0.6984
1007.0,0.7126
1008.0,0.7099
1009.0,0.7074
1010.0,0.7051
1011.0,0.7089
1012.0,0.704
1013.0,0.7069
1014.0,0.702
1015.0,0.6976
1016.0,0.6946
1017.0,0.6966
1018.0,0.6932
1019.0,0.6808
1020.0,0.69
1021.0,0.6886
1022.0,0.6842
1023.0,0.6916
1024.0,0.6851
1025.0,0.6903
1026.0,0.688
1027.0,0.6863
1028.0,0.6851
1029.0,0.6772
1030.0,0.681
1031.0,0.6787
1032.0,0.6765
1033.0,0.6663
1034.0,0.6663
1035.0,0.6684
1036.0,0.6721
1037.0,0.6611
1038.0,0.6642
1039.0,0.6639
1040.0,0.6613
1041.0,0.6642
1042.0,0.6596
1043.0,0.6576
1044.0,0.6601
1045.0,0.6513
1046.0,0.6442
1047.0,0.6502
1048.0,0.654
1049.0,0.6518
1050.0,0.649
1051.0,0.6484
1052.0,0.646
1053.0,0.6411
1054.0,0.6428
1055.0,0.6435
1056.0,0.6417
1057.0,0.64
1058.0,0.6246
1059.0,0.6257
1060.0,0.6249
1061.0,0.6244
1062.0,0.6281
1063.0,0.6222
1064.0,0.6294
1065.0,0.6258
1066.0,0.6127
1067.0,0.6209
1068.0,0.608
1069.0,0.5887
1070.0,0.6094
1071.0,0.6168
1072.0,0.6113
1073.0,0.6022
1074.0,0.6154
1075.0,0.5911
1076.0,0.6153
1077.0,0.6081
1078.0,0.5978
1079.0,0.6044
1080.0,0.5989
1081.0,0.5826
1082.0,0.5865
1083.0,0.5869
1084.0,0.5833
1085.0,0.5995
1086.0,0.5585
1087.0,0.5677
1088.0,0.5876
1089.0,0.5758
1090.0,0.5681
1091.0,0.5875
1092.0,0.5846
1093.0,0.5159
1094.0,0.5373
1095.0,0.5339
1096.0,0.5175
1097.0,0.5707
1098.0,0.5112
1099.0,0.53
1100.0,0.5026
1101.0,0.5059
1102.0,0.4886
1103.0,0.4881
1104.0,0.4882
1105.0,0.52
1106.0,0.4337
1107.0,0.5009
1108.0,0.4466
1109.0,0.4433
1110.0,0.4989
1111.0,0.3692
1112.0,0.4382
1113.0,0.3121
1114.0,0.3438
1115.0,0.2862
1116.0,0.25
1117.0,0.1185
1118.0,0.2628
1119.0,0.1506
1120.0,0.1888
1121.0,0.237
1122.0,0.1177
1123.0,0.1702
1124.0,0.1439
1125.0,0.183
1126.0,0.08201
1127.0,0.2047
1128.0,0.1418
1129.0,0.1468
1130.0,0.1072
1131.0,0.344
1132.0,0.2785
1133.0,0.1992
1134.0,0.06792
1135.0,0.02501
1136.0,0.1744
1137.0,0.3433
1138.0,0.2485
1139.0,0.3301
1140.0,0.2913
1141.0,0.2362
1142.0,0.2625
1143.0,0.3557
1144.0,0.147
1145.0,0.1913
1146.0,0.2065
1147.0,0.09251
1148.0,0.3083
1149.0,0.2594
1150.0,0.1583
1151.0,0.2469
1152.0,0.2886
1153.0,0.2704
1154.0,0.191
1155.0,0.3448
1156.0,0.3181
1157.0,0.347
1158.0,0.3423
1159.0,0.3588
1160.0,0.3204
1161.0,0.3716
1162.0,0.3749
1163.0,0.4694
1164.0,0.4165
1165.0,0.4047
1166.0,0.3945
1167.0,0.4225
1168.0,0.4293
1169.0,0.4345
1170.0,0.4621
1171.0,0.4527
1172.0,0.4554
1173.0,0.4611
1174.0,0.3593
1175.0,0.4468
1176.0,0.478
1177.0,0.4671
1178.0,0.3737
1179.0,0.4812
1180.0,0.4445
1181.0,0.4567
1182.0,0.3399
1183.0,0.4463
1184.0,0.4264
1185.0,0.4181
1186.0,0.4729
1187.0,0.4573
1188.0,0.3469
1189.0,0.428
1190.0,0.4624
1191.0,0.4501
1192.0,0.4675
1193.0,0.4523
1194.0,0.4632
1195.0,0.4458
1196.0,0.4347
1197.0,0.4588
1198.0,0.4268
1199.0,0.3816
1200.0,0.4473
1201.0,0.4375
1202.0,0.4319
1203.0,0.4278
1204.0,0.3856
1205.0,0.4365
1206.0,0.4713
1207.0,0.4323
1208.0,0.4201
1209.0,0.4273
1210.0,0.4409
1211.0,0.4272
1212.0,0.429
1213.0,0.4595
1214.0,0.4355
1215.0,0.4293
1216.0,0.4578
1217.0,0.4493
1218.0,0.4544
1219.0,0.4504
1220.0,0.4545
1221.0,0.457
1222.0,0.4475
1223.0,0.4447
1224.0,0.4442
1225.0,0.4542
1226.0,0.4551
1227.0,0.4288
1228.0,0.4557
1229.0,0.4551
1230.0,0.4491
1231.0,0.4564
1232.0,0.4539
1233.0,0.445
1234.0,0.4546
1235.0,0.4527
1236.0,0.4552
1237.0,0.4515
1238.0,0.4537
1239.0,0.4479
1240.0,0.4493
1241.0,0.4488
1242.0,0.4464
1243.0,0.4427
1244.0,0.4463
1245.0,0.4479
1246.0,0.4452
1247.0,0.444
1248.0,0.4445
1249.0,0.4452
1250.0,0.443
1251.0,0.4383
1252.0,0.4371
1253.0,0.4359
1254.0,0.4334
1255.0,0.4373
1256.0,0.4293
1257.0,0.4279
1258.0,0.4324
1259.0,0.4235
1260.0,0.4249
1261.0,0.4096
1262.0,0.402
1263.0,0.403
1264.0,0.3829
1265.0,0.4002
1266.0,0.3915
1267.0,0.394
1268.0,0.3807
1269.0,0.2881
1270.0,0.3942
1271.0,0.4072
1272.0,0.4075
1273.0,0.4042
1274.0,0.4043
1275.0,0.4085
1276.0,0.4107
1277.0,0.4116
1278.0,0.4159
1279.0,0.4124
1280.0,0.407
1281.0,0.3868
1282.0,0.3701
1283.0,0.3991
1284.0,0.4093
1285.0,0.4115
1286.0,0.4156
1287.0,0.412
1288.0,0.4112
1289.0,0.4034
1290.0,0.4071
1291.0,0.4119
1292.0,0.397
1293.0,0.4064
1294.0,0.4041
1295.0,0.4044
1296.0,0.3928
1297.0,0.3773
1298.0,0.3953
1299.0,0.406
1300.0,0.3627
1301.0,0.3697
1302.0,0.3935
1303.0,0.3559
1304.0,0.3219
1305.0,0.3872
1306.0,0.388
1307.0,0.3227
1308.0,0.3538
1309.0,0.3862
1310.0,0.3173
1311.0,0.3432
1312.0,0.3368
1313.0,0.333
1314.0,0.305
1315.0,0.305
1316.0,0.3407
1317.0,0.3249
1318.0,0.3455
1319.0,0.2925
1320.0,0.2786
1321.0,0.3166
1322.0,0.3226
1323.0,0.262
1324.0,0.2869
1325.0,0.3366
1326.0,0.3011
1327.0,0.2902
1328.0,0.2565
1329.0,0.2091
1330.0,0.2631
1331.0,0.1806
1332.0,0.1789
1333.0,0.2419
1334.0,0.1983
1335.0,0.2603
1336.0,0.2161
1337.0,0.1986
1338.0,0.2129
1339.0,0.2096
1340.0,0.199
1341.0,0.2055
1342.0,0.2152
1343.0,0.173
1344.0,0.1044
1345.0,0.145
1346.0,0.09299
1347.0,0.09777
1348.0,0.01258
1349.0,0.03631
1350.0,0.03248
1351.0,0.01427
1352.0,0.006677
1353.0,0.0007297
1354.0,0.001632
1355.0,5.432e-05
1356.0,0.0003852
1357.0,0.0005659
1358.0,6.084e-05
1359.0,2.047e-05
1360.0,3.961e-05
1361.0,4.067e-07
1362.0,3.337e-09
1363.0,6.21e-05
1364.0,3.124e-05
1365.0,3.444e-09
1366.0,0.0002046
1367.0,8.092e-05
1368.0,2.495e-10
1369.0,1.293e-05
1370.0,9.557e-06
1371.0,9.975e-07
1372.0,4.589e-05
1373.0,0.0004352
1374.0,0.001243
1375.0,0.00211
1376.0,0.001441
1377.0,0.0007526
1378.0,0.005338
1379.0,0.0003336
1380.0,0.0006095
1381.0,2.406e-05
1382.0,4.613e-05
1383.0,1.187e-06
1384.0,1.681e-05
1385.0,2.87e-05
1386.0,5.326e-05
1387.0,0.00156
1388.0,3.987e-05
1389.0,0.003319
1390.0,0.00278
1391.0,0.002162
1392.0,0.0001862
1393.0,0.0007295
1394.0,0.0007435
1395.0,1.139e-05
1396.0,4.459e-07
1397.0,0.0003585
1398.0,0.006095
1399.0,0.003963
1400.0,3.272e-07
1401.0,6.502e-07
1402.0,0.006188
1403.0,0.008511
1404.0,0.00275
1405.0,7.944e-06
1406.0,0.008206
1407.0,0.000743
1408.0,0.006608
1409.0,0.003116
1410.0,0.002204
1411.0,0.007385
1412.0,0.008465
1413.0,0.04867
1414.0,0.001691
1415.0,0.0009767
1416.0,0.06183
1417.0,0.02682
1418.0,0.02979
1419.0,0.005167
1420.0,0.0187
1421.0,0.02163
1422.0,0.07754
1423.0,0.01766
1424.0,0.03102
1425.0,0.04728
1426.0,0.04778
1427.0,0.07337
1428.0,0.01231
1429.0,0.06063
1430.0,0.08952
1431.0,0.09484
1432.0,0.01003
1433.0,0.06577
1434.0,0.03632
1435.0,0.04552
1436.0,0.07214
1437.0,0.056
1438.0,0.02819
1439.0,0.09105
1440.0,0.06972
1441.0,0.05998
1442.0,0.06394
1443.0,0.07011
1444.0,0.09403
1445.0,0.081
1446.0,0.03887
1447.0,0.062
1448.0,0.1502
1449.0,0.1385
1450.0,0.04604
1451.0,0.0211
1452.0,0.09066
1453.0,0.1138
1454.0,0.1698
1455.0,0.08994
1456.0,0.1249
1457.0,0.1514
1458.0,0.1641
1459.0,0.1961
1460.0,0.1107
1461.0,0.1212
1462.0,0.1654
1463.0,0.06334
1464.0,0.1841
1465.0,0.1134
1466.0,0.09463
1467.0,0.05834
1468.0,0.1071
1469.0,0.1267
1470.0,0.07557
1471.0,0.03103
1472.0,0.07284
