interpolation:linear
wavelength,value
280.0,1.166e-22
280.5,3.206e-21
281.0,1.6400000000000003e-20
281.5,4.397e-19
282.0,3.194e-18
282.5,1.152e-17
283.0,4.746e-17
283.5,8.648e-17
284.0,1.87e-15
284.5,5.951e-15
285.0,1.278e-14
285.5,8.861e-14
286.0,3.986e-13
286.5,2.097e-12
287.0,6.619e-12
287.5,2.788e-11
288.0,1.128e-10
288.5,4.231e-10
289.0,1.335e-09
289.5,4.647e-09
290.0,1.427e-08
290.5,3.149e-08
291.0,7.31e-08
291.5,2.267e-07
292.0,5.475e-07
292.5,8.018e-07
293.0,1.795e-06
293.5,4.56e-06
294.0,7.411e-06
294.5,1.275e-05
295.0,2.18e-05
295.5,5.087e-05
296.0,8.923e-05
296.5,0.0001135
297.0,0.0001421
297.5,0.0003381
298.0,0.0004815
298.5,0.0004481
299.0,0.0009155
299.5,0.001323
300.0,0.001351
300.5,0.001811
301.0,0.002884
301.5,0.004099
302.0,0.003321
302.5,0.006148
303.0,0.01028
303.5,0.01239
304.0,0.0113
304.5,0.01543
305.0,0.02065
305.5,0.02192
306.0,0.02068
306.5,0.0246
307.0,0.03278
307.5,0.03938
308.0,0.04111
308.5,0.04635
309.0,0.04096
309.5,0.04469
310.0,0.04397
310.5,0.07066
311.0,0.08715
311.5,0.08371
312.0,0.07987
312.5,0.09427
313.0,0.1008
313.5,0.1002
314.0,0.1204
314.5,0.1011
315.0,0.132
315.5,0.1143
316.0,0.09541
316.5,0.1318
317.0,0.1645
317.5,0.1741
318.0,0.1324
318.5,0.1557
319.0,0.1801
319.5,0.1547
320.0,0.189
320.5,0.2237
321.0,0.1894
321.5,0.1813
322.0,0.2058
322.5,0.1792
323.0,0.1725
323.5,0.1993
324.0,0.2319
324.5,0.2408
325.0,0.2191
325.5,0.2742
326.0,0.3235
326.5,0.3176
327.0,0.3206
327.5,0.3143
328.0,0.2899
328.5,0.2945
329.0,0.3436
329.5,0.388
330.0,0.3958
330.5,0.3253
331.0,0.3353
331.5,0.3362
332.0,0.3557
332.5,0.3492
333.0,0.3518
333.5,0.3254
334.0,0.3355
334.5,0.3806
335.0,0.3547
335.5,0.4031
336.0,0.2798
336.5,0.3411
337.0,0.2832
337.5,0.3545
338.0,0.3416
338.5,0.3859
339.0,0.3853
339.5,0.3703
340.0,0.4467
340.5,0.4033
341.0,0.3873
341.5,0.3597
342.0,0.432
342.5,0.4061
343.0,0.4461
343.5,0.42
344.0,0.3158
344.5,0.3129
345.0,0.4197
345.5,0.4311
346.0,0.3682
346.5,0.4185
347.0,0.4492
347.5,0.3637
348.0,0.4175
348.5,0.4193
349.0,0.3902
349.5,0.3872
350.0,0.4803
350.5,0.508
351.0,0.4544
351.5,0.4407
352.0,0.4761
352.5,0.3733
353.0,0.4718
353.5,0.5061
354.0,0.5271
354.5,0.536
355.0,0.5354
355.5,0.4849
356.0,0.5087
356.5,0.4356
357.0,0.3609
357.5,0.443
358.0,0.352
358.5,0.3016
359.0,0.4229
359.5,0.54
360.0,0.574
360.5,0.46
361.0,0.4204
361.5,0.4849
362.0,0.4201
362.5,0.5824
363.0,0.5241
363.5,0.4837
364.0,0.5927
364.5,0.5077
365.0,0.5182
365.5,0.6518
366.0,0.6919
366.5,0.6514
367.0,0.6357
367.5,0.6612
368.0,0.5797
368.5,0.5861
369.0,0.6343
369.5,0.6774
370.0,0.7236
370.5,0.5627
371.0,0.6024
371.5,0.7552
372.0,0.5023
372.5,0.6034
373.0,0.6149
373.5,0.4008
374.0,0.5835
374.5,0.4841
375.0,0.4715
375.5,0.7054
376.0,0.5859
376.5,0.6084
377.0,0.6452
377.5,0.7562
378.0,0.8214
378.5,0.778
379.0,0.6435
379.5,0.5891
380.0,0.6137
380.5,0.7446
381.0,0.7474
381.5,0.5934
382.0,0.5279
382.5,0.4507
383.0,0.418
383.5,0.4032
384.0,0.4455
384.5,0.6564
385.0,0.652
385.5,0.6081
386.0,0.5217
386.5,0.6863
387.0,0.5713
387.5,0.6428
388.0,0.5945
388.5,0.5885
389.0,0.6364
389.5,0.772
390.0,0.776
390.5,0.7153
391.0,0.8432
391.5,0.8615
392.0,0.7268
392.5,0.6516
393.0,0.3631
393.5,0.2643
394.0,0.5386
394.5,0.6857
395.0,0.838
395.5,0.8526
396.0,0.7403
396.5,0.4333
397.0,0.3256
397.5,0.6632
398.0,0.9304
398.5,0.963
399.0,1.044
399.5,1.042
400.0,1.084
401.0,1.116
402.0,1.18
403.0,1.123
404.0,1.109
405.0,1.111
406.0,1.096
407.0,1.08
408.0,1.126
409.0,1.207
410.0,1.057
411.0,1.147
412.0,1.234
413.0,1.207
414.0,1.224
415.0,1.23
416.0,1.253
417.0,1.225
418.0,1.205
419.0,1.223
420.0,1.221
421.0,1.28
422.0,1.219
423.0,1.193
424.0,1.264
425.0,1.264
426.0,1.233
427.0,1.212
428.0,1.183
429.0,1.122
430.0,0.9834
431.0,0.9769
432.0,1.263
433.0,1.272
434.0,1.184
435.0,1.238
436.0,1.397
437.0,1.379
438.0,1.258
439.0,1.304
440.0,1.347
441.0,1.398
442.0,1.501
443.0,1.465
444.0,1.499
445.0,1.469
446.0,1.403
447.0,1.518
448.0,1.545
449.0,1.553
450.0,1.598
451.0,1.659
452.0,1.601
453.0,1.507
454.0,1.575
455.0,1.587
456.0,1.627
457.0,1.656
458.0,1.603
459.0,1.596
460.0,1.603
461.0,1.642
462.0,1.656
463.0,1.647
464.0,1.62
465.0,1.601
466.0,1.617
467.0,1.591
468.0,1.611
469.0,1.622
470.0,1.572
471.0,1.572
472.0,1.658
473.0,1.639
474.0,1.644
475.0,1.662
476.0,1.615
477.0,1.623
478.0,1.669
479.0,1.66
480.0,1.664
481.0,1.696
482.0,1.706
483.0,1.685
484.0,1.652
485.0,1.575
486.0,1.377
487.0,1.444
488.0,1.586
489.0,1.593
490.0,1.677
491.0,1.649
492.0,1.559
493.0,1.611
494.0,1.629
495.0,1.644
496.0,1.656
497.0,1.683
498.0,1.606
499.0,1.628
500.0,1.583
501.0,1.556
502.0,1.538
503.0,1.604
504.0,1.57
505.0,1.623
506.0,1.677
507.0,1.597
508.0,1.547
509.0,1.59
510.0,1.582
511.0,1.624
512.0,1.643
513.0,1.556
514.0,1.546
515.0,1.532
516.0,1.529
517.0,1.36
518.0,1.431
519.0,1.502
520.0,1.558
521.0,1.574
522.0,1.577
523.0,1.55
524.0,1.607
525.0,1.629
526.0,1.557
527.0,1.469
528.0,1.556
529.0,1.642
530.0,1.62
531.0,1.645
532.0,1.59
533.0,1.544
534.0,1.591
535.0,1.626
536.0,1.641
537.0,1.577
538.0,1.605
539.0,1.593
540.0,1.528
541.0,1.541
542.0,1.591
543.0,1.574
544.0,1.603
545.0,1.599
546.0,1.608
547.0,1.607
548.0,1.588
549.0,1.594
550.0,1.613
551.0,1.594
552.0,1.606
553.0,1.579
554.0,1.617
555.0,1.622
556.0,1.602
557.0,1.553
558.0,1.543
559.0,1.516
560.0,1.536
561.0,1.558
562.0,1.548
563.0,1.592
564.0,1.551
565.0,1.539
566.0,1.518
567.0,1.548
568.0,1.538
569.0,1.507
570.0,1.507
571.0,1.497
572.0,1.537
573.0,1.555
574.0,1.551
575.0,1.524
576.0,1.511
577.0,1.527
578.0,1.504
579.0,1.508
580.0,1.533
581.0,1.539
582.0,1.567
583.0,1.569
584.0,1.582
585.0,1.543
586.0,1.512
587.0,1.548
588.0,1.517
589.0,1.358
590.0,1.419
591.0,1.495
592.0,1.481
593.0,1.498
594.0,1.49
595.0,1.458
596.0,1.506
597.0,1.493
598.0,1.486
599.0,1.487
600.0,1.487
601.0,1.473
602.0,1.463
603.0,1.487
604.0,1.512
605.0,1.504
606.0,1.497
607.0,1.512
608.0,1.494
609.0,1.497
610.0,1.485
611.0,1.493
612.0,1.489
613.0,1.47
614.0,1.449
615.0,1.481
616.0,1.432
617.0,1.429
618.0,1.484
619.0,1.469
620.0,1.479
621.0,1.481
622.0,1.465
623.0,1.444
624.0,1.419
625.0,1.416
626.0,1.438
627.0,1.457
628.0,1.388
629.0,1.432
630.0,1.401
631.0,1.423
632.0,1.405
633.0,1.445
634.0,1.428
635.0,1.449
636.0,1.429
637.0,1.451
638.0,1.464
639.0,1.447
640.0,1.432
641.0,1.43
642.0,1.423
643.0,1.443
644.0,1.437
645.0,1.441
646.0,1.411
647.0,1.401
648.0,1.404
649.0,1.378
650.0,1.375
651.0,1.433
652.0,1.385
653.0,1.415
654.0,1.398
655.0,1.352
656.0,1.195
657.0,1.227
658.0,1.372
659.0,1.381
660.0,1.387
661.0,1.396
662.0,1.401
663.0,1.373
664.0,1.387
665.0,1.387
666.0,1.387
667.0,1.385
668.0,1.385
669.0,1.406
670.0,1.4
671.0,1.399
672.0,1.387
673.0,1.408
674.0,1.403
675.0,1.39
676.0,1.399
677.0,1.385
678.0,1.389
679.0,1.367
680.0,1.378
681.0,1.369
682.0,1.367
683.0,1.365
684.0,1.358
685.0,1.37
686.0,1.362
687.0,1.024
688.0,1.142
689.0,1.144
690.0,1.181
691.0,1.222
692.0,1.25
693.0,1.242
694.0,1.233
695.0,1.27
696.0,1.272
697.0,1.331
698.0,1.311
699.0,1.292
700.0,1.277
701.0,1.268
702.0,1.272
703.0,1.275
704.0,1.309
705.0,1.311
706.0,1.307
707.0,1.307
708.0,1.311
709.0,1.308
710.0,1.311
711.0,1.308
712.0,1.302
713.0,1.291
714.0,1.295
715.0,1.259
716.0,1.261
717.0,1.138
718.0,1.054
719.0,0.9714
720.0,1.02
721.0,1.098
722.0,1.226
723.0,1.158
724.0,1.061
725.0,1.051
726.0,1.096
727.0,1.102
728.0,1.05
729.0,1.074
730.0,1.135
731.0,1.092
732.0,1.151
733.0,1.202
734.0,1.227
735.0,1.204
736.0,1.202
737.0,1.207
738.0,1.216
739.0,1.192
740.0,1.22
741.0,1.206
742.0,1.206
743.0,1.236
744.0,1.232
745.0,1.231
746.0,1.237
747.0,1.24
748.0,1.237
749.0,1.223
750.0,1.222
751.0,1.21
752.0,1.215
753.0,1.222
754.0,1.224
755.0,1.218
756.0,1.217
757.0,1.219
758.0,1.204
759.0,1.186
760.0,0.3312
761.0,0.2087
762.0,0.732
763.0,0.4483
764.0,0.5991
765.0,0.7328
766.0,0.8383
767.0,0.9992
768.0,1.108
769.0,1.122
770.0,1.149
771.0,1.153
772.0,1.154
773.0,1.162
774.0,1.156
775.0,1.147
776.0,1.161
777.0,1.146
778.0,1.139
779.0,1.141
780.0,1.134
781.0,1.135
782.0,1.143
783.0,1.123
784.0,1.128
785.0,1.12
786.0,1.133
787.0,1.118
788.0,1.106
789.0,1.107
790.0,1.084
791.0,1.087
792.0,1.078
793.0,1.062
794.0,1.073
795.0,1.093
796.0,1.069
797.0,1.07
798.0,1.093
799.0,1.088
800.0,1.071
801.0,1.07
802.0,1.067
803.0,1.06
804.0,1.061
805.0,1.055
806.0,1.08
807.0,1.068
808.0,1.069
809.0,1.052
810.0,1.046
811.0,1.052
812.0,1.028
813.0,1.011
814.0,0.9123
815.0,0.9062
816.0,0.8472
817.0,0.8597
818.0,0.8327
819.0,0.911
820.0,0.866
821.0,0.9852
822.0,0.9617
823.0,0.6983
824.0,0.9429
825.0,0.97
826.0,0.9413
827.0,0.9847
828.0,0.8593
829.0,0.9342
830.0,0.9247
831.0,0.927
832.0,0.9032
833.0,0.948
834.0,0.9226
835.0,0.9964
836.0,0.9644
837.0,0.9987
838.0,0.9722
839.0,0.9828
840.0,1.003
841.0,0.991
842.0,0.9902
843.0,0.9865
844.0,0.9746
845.0,1.005
846.0,1.0
847.0,0.9809
848.0,0.9763
849.0,0.9486
850.0,0.9087
851.0,0.9637
852.0,0.9563
853.0,0.9194
854.0,0.7949
855.0,0.872
856.0,0.9536
857.0,0.974
858.0,0.9673
859.0,0.9676
860.0,0.969
861.0,0.9639
862.0,0.9789
863.0,1.002
864.0,0.952
865.0,0.9436
866.0,0.8485
867.0,0.8855
868.0,0.9636
869.0,0.9436
870.0,0.9705
871.0,0.9574
872.0,0.954
873.0,0.9521
874.0,0.9409
875.0,0.9219
876.0,0.9317
877.0,0.941
878.0,0.9515
879.0,0.9369
880.0,0.9169
881.0,0.9038
882.0,0.9237
883.0,0.926
884.0,0.922
885.0,0.9291
886.0,0.8879
887.0,0.8956
888.0,0.91
889.0,0.9183
890.0,0.9132
891.0,0.9104
892.0,0.8873
893.0,0.8638
894.0,0.8411
895.0,0.8047
896.0,0.7631
897.0,0.6696
898.0,0.7224
899.0,0.5671
900.0,0.7314
901.0,0.5934
902.0,0.6736
903.0,0.6875
904.0,0.8352
905.0,0.811
906.0,0.7628
907.0,0.6404
908.0,0.6504
909.0,0.6944
910.0,0.632
911.0,0.6631
912.0,0.6888
913.0,0.6422
914.0,0.6338
915.0,0.6847
916.0,0.5858
917.0,0.7229
918.0,0.601
919.0,0.7318
920.0,0.7307
921.0,0.7574
922.0,0.69
923.0,0.7312
924.0,0.7077
925.0,0.6929
926.0,0.7002
927.0,0.7717
928.0,0.6012
929.0,0.5584
930.0,0.4545
931.0,0.4279
932.0,0.324
933.0,0.2724
934.0,0.1685
935.0,0.2713
936.0,0.1813
937.0,0.1856
938.0,0.2233
939.0,0.4148
940.0,0.488
941.0,0.3834
942.0,0.434
943.0,0.2975
944.0,0.303
945.0,0.3928
946.0,0.2162
947.0,0.3986
948.0,0.2959
949.0,0.5172
950.0,0.17
951.0,0.5065
952.0,0.294
953.0,0.3654
954.0,0.4324
955.0,0.3678
956.0,0.3507
957.0,0.2967
958.0,0.474
959.0,0.3931
960.0,0.4399
961.0,0.4813
962.0,0.4572
963.0,0.5161
964.0,0.4767
965.0,0.5128
966.0,0.5157
967.0,0.5144
968.0,0.653
969.0,0.6842
970.0,0.6339
971.0,0.7096
972.0,0.6819
973.0,0.6097
974.0,0.5814
975.0,0.597
976.0,0.5752
977.0,0.6382
978.0,0.6132
979.0,0.6369
980.0,0.6024
981.0,0.705
982.0,0.6798
983.0,0.6562
984.0,0.7202
985.0,0.6771
986.0,0.7291
987.0,0.7188
988.0,0.7176
989.0,0.7247
990.0,0.7129
991.0,0.7274
992.0,0.7312
993.0,0.7189
994.0,0.7306
995.0,0.7292
996.0,0.7266
997.0,0.7273
998.0,0.7242
999.0,0.7214
1000.0,0.7173
1001.0,0.7252
1002.0,0.7091
1003.0,0.7127
1004.0,0.6963
1005.0,0.6694
1006.0,0.6963
1007.0,0.7107
1008.0,0.7076
1009.0,0.7046
1010.0,0.702
1011.0,0.7071
1012.0,0.7017
1013.0,0.7052
1014.0,0.7003
1015.0,0.6958
1016.0,0.6928
1017.0,0.6947
1018.0,0.6916
1019.0,0.6783
1020.0,0.6883
1021.0,0.6871
1022.0,0.6823
1023.0,0.6897
1024.0,0.6822
1025.0,0.6887
1026.0,0.6862
1027.0,0.6845
1028.0,0.6832
1029.0,0.6753
1030.0,0.6794
1031.0,0.677
1032.0,0.6748
1033.0,0.6647
1034.0,0.6647
1035.0,0.6668
1036.0,0.6705
1037.0,0.6595
1038.0,0.6625
1039.0,0.6622
1040.0,0.6596
1041.0,0.6624
1042.0,0.6578
1043.0,0.6558
1044.0,0.6582
1045.0,0.6494
1046.0,0.6423
1047.0,0.6482
1048.0,0.6519
1049.0,0.6497
1050.0,0.6469
1051.0,0.6461
1052.0,0.6436
1053.0,0.6387
1054.0,0.6403
1055.0,0.6409
1056.0,0.6389
1057.0,0.6371
1058.0,0.6217
1059.0,0.6226
1060.0,0.6218
1061.0,0.6212
1062.0,0.6247
1063.0,0.6187
1064.0,0.626
1065.0,0.622
1066.0,0.6094
1067.0,0.6174
1068.0,0.6043
1069.0,0.5854
1070.0,0.6057
1071.0,0.6138
1072.0,0.6077
1073.0,0.5988
1074.0,0.6128
1075.0,0.5862
1076.0,0.6125
1077.0,0.6039
1078.0,0.5934
1079.0,0.6021
1080.0,0.5947
1081.0,0.5776
1082.0,0.5834
1083.0,0.5843
1084.0,0.5774
1085.0,0.5957
1086.0,0.5504
1087.0,0.563
1088.0,0.5846
1089.0,0.5705
1090.0,0.5608
1091.0,0.5838
1092.0,0.5814
1093.0,0.5052
1094.0,0.5335
1095.0,0.5244
1096.0,0.5059
1097.0,0.5678
1098.0,0.4992
1099.0,0.5187
1100.0,0.488
1101.0,0.4923
1102.0,0.4735
1103.0,0.4714
1104.0,0.4717
1105.0,0.5081
1106.0,0.4099
1107.0,0.4868
1108.0,0.4255
1109.0,0.4238
1110.0,0.484
1111.0,0.346
1112.0,0.4196
1113.0,0.2857
1114.0,0.3169
1115.0,0.2634
1116.0,0.222
1117.0,0.09531
1118.0,0.2369
1119.0,0.1282
1120.0,0.1614
1121.0,0.2074
1122.0,0.09665
1123.0,0.1456
1124.0,0.123
1125.0,0.1579
1126.0,0.06445
1127.0,0.1773
1128.0,0.1162
1129.0,0.1216
1130.0,0.08485
1131.0,0.3128
1132.0,0.2499
1133.0,0.1707
1134.0,0.05189
1135.0,0.01911
1136.0,0.1468
1137.0,0.3106
1138.0,0.2219
1139.0,0.3083
1140.0,0.2663
1141.0,0.2109
1142.0,0.2377
1143.0,0.3281
1144.0,0.1266
1145.0,0.1642
1146.0,0.1773
1147.0,0.07244
1148.0,0.2842
1149.0,0.2341
1150.0,0.1358
1151.0,0.2204
1152.0,0.2629
1153.0,0.2501
1154.0,0.1616
1155.0,0.322
1156.0,0.2943
1157.0,0.3241
1158.0,0.3203
1159.0,0.3395
1160.0,0.2975
1161.0,0.3534
1162.0,0.3561
1163.0,0.4592
1164.0,0.402
1165.0,0.3865
1166.0,0.3789
1167.0,0.4086
1168.0,0.4146
1169.0,0.4216
1170.0,0.452
1171.0,0.4418
1172.0,0.4463
1173.0,0.451
1174.0,0.3397
1175.0,0.4381
1176.0,0.4733
1177.0,0.4597
1178.0,0.3587
1179.0,0.4768
1180.0,0.4348
1181.0,0.4477
1182.0,0.3236
1183.0,0.4388
1184.0,0.4161
1185.0,0.4056
1186.0,0.4669
1187.0,0.449
1188.0,0.3302
1189.0,0.4194
1190.0,0.4563
1191.0,0.4405
1192.0,0.4619
1193.0,0.4453
1194.0,0.4571
1195.0,0.4374
1196.0,0.4245
1197.0,0.4545
1198.0,0.42
1199.0,0.3689
1200.0,0.4401
1201.0,0.4284
1202.0,0.4237
1203.0,0.4203
1204.0,0.3743
1205.0,0.4301
1206.0,0.4685
1207.0,0.4238
1208.0,0.4136
1209.0,0.4212
1210.0,0.4362
1211.0,0.4199
1212.0,0.4197
1213.0,0.4556
1214.0,0.4273
1215.0,0.4205
1216.0,0.4539
1217.0,0.4442
1218.0,0.4505
1219.0,0.446
1220.0,0.4506
1221.0,0.4539
1222.0,0.4435
1223.0,0.4403
1224.0,0.4391
1225.0,0.4511
1226.0,0.4527
1227.0,0.4234
1228.0,0.4538
1229.0,0.4527
1230.0,0.4461
1231.0,0.4552
1232.0,0.4526
1233.0,0.4416
1234.0,0.4539
1235.0,0.4517
1236.0,0.4544
1237.0,0.4499
1238.0,0.4529
1239.0,0.4471
1240.0,0.4486
1241.0,0.4476
1242.0,0.4457
1243.0,0.442
1244.0,0.4455
1245.0,0.4472
1246.0,0.4445
1247.0,0.4431
1248.0,0.4434
1249.0,0.4443
1250.0,0.4419
1251.0,0.4369
1252.0,0.4362
1253.0,0.4342
1254.0,0.4311
1255.0,0.4361
1256.0,0.4268
1257.0,0.425
1258.0,0.4307
1259.0,0.4196
1260.0,0.4212
1261.0,0.4033
1262.0,0.3942
1263.0,0.3952
1264.0,0.3719
1265.0,0.3925
1266.0,0.3819
1267.0,0.3857
1268.0,0.3704
1269.0,0.2625
1270.0,0.3854
1271.0,0.4013
1272.0,0.4019
1273.0,0.3983
1274.0,0.3988
1275.0,0.4034
1276.0,0.4062
1277.0,0.4077
1278.0,0.4131
1279.0,0.4096
1280.0,0.4043
1281.0,0.3847
1282.0,0.369
1283.0,0.3977
1284.0,0.4076
1285.0,0.41
1286.0,0.4146
1287.0,0.41
1288.0,0.4094
1289.0,0.4
1290.0,0.4056
1291.0,0.4106
1292.0,0.3924
1293.0,0.4043
1294.0,0.4018
1295.0,0.4015
1296.0,0.3877
1297.0,0.3703
1298.0,0.3916
1299.0,0.4042
1300.0,0.3543
1301.0,0.3626
1302.0,0.3901
1303.0,0.3483
1304.0,0.3086
1305.0,0.3831
1306.0,0.3837
1307.0,0.3113
1308.0,0.3471
1309.0,0.3816
1310.0,0.3059
1311.0,0.3353
1312.0,0.3281
1313.0,0.3235
1314.0,0.2938
1315.0,0.2925
1316.0,0.3319
1317.0,0.3157
1318.0,0.3384
1319.0,0.2784
1320.0,0.2667
1321.0,0.3059
1322.0,0.3109
1323.0,0.2455
1324.0,0.273
1325.0,0.3278
1326.0,0.2887
1327.0,0.2772
1328.0,0.2428
1329.0,0.1922
1330.0,0.245
1331.0,0.1604
1332.0,0.1613
1333.0,0.2209
1334.0,0.1824
1335.0,0.2444
1336.0,0.1994
1337.0,0.1802
1338.0,0.1944
1339.0,0.192
1340.0,0.1837
1341.0,0.1863
1342.0,0.1952
1343.0,0.1477
1344.0,0.08827
1345.0,0.1252
1346.0,0.07326
1347.0,0.07633
1348.0,0.007574
1349.0,0.02389
1350.0,0.02266
1351.0,0.008006
1352.0,0.003132
1353.0,0.0002546
1354.0,0.0006639
1355.0,1.32e-05
1356.0,0.0001297
1357.0,0.0001941
1358.0,1.508e-05
1359.0,3.632e-06
1360.0,8.701e-06
1361.0,4.04e-08
1362.0,2.152e-10
1363.0,1.351e-05
1364.0,6.127e-06
1365.0,1.564e-10
1366.0,4.934e-05
1367.0,1.903e-05
1368.0,5.29e-12
1369.0,2.417e-06
1370.0,1.561e-06
1371.0,1.288e-07
1372.0,1.058e-05
1373.0,0.0001332
1374.0,0.0004537
1375.0,0.0008075
1376.0,0.0005892
1377.0,0.0002918
1378.0,0.002388
1379.0,0.0001257
1380.0,0.0002143
1381.0,7.07e-06
1382.0,1.028e-05
1383.0,2.102e-07
1384.0,3.019e-06
1385.0,7.281e-06
1386.0,1.096e-05
1387.0,0.0005456
1388.0,1.195e-05
1389.0,0.00135
1390.0,0.001152
1391.0,0.0008374
1392.0,6.325e-05
1393.0,0.0002793
1394.0,0.0002291
1395.0,2.58e-06
1396.0,4.851e-08
1397.0,0.0001268
1398.0,0.002737
1399.0,0.001746
1400.0,2.987e-08
1401.0,7.622e-08
1402.0,0.00329
1403.0,0.004419
1404.0,0.001394
1405.0,1.591e-06
1406.0,0.004041
1407.0,0.0003469
1408.0,0.003255
1409.0,0.001369
1410.0,0.0009834
1411.0,0.003843
1412.0,0.004658
1413.0,0.0337
1414.0,0.0007587
1415.0,0.0004087
1416.0,0.04658
1417.0,0.01745
1418.0,0.0199
1419.0,0.003279
1420.0,0.01234
1421.0,0.01369
1422.0,0.05968
1423.0,0.01255
1424.0,0.02271
1425.0,0.03437
1426.0,0.03622
1427.0,0.05998
1428.0,0.007323
1429.0,0.04765
1430.0,0.07439
1431.0,0.08
1432.0,0.005875
1433.0,0.0534
1434.0,0.02845
1435.0,0.03275
1436.0,0.05618
1437.0,0.04318
1438.0,0.02023
1439.0,0.07326
1440.0,0.05538
1441.0,0.04543
1442.0,0.04951
1443.0,0.0573
1444.0,0.07749
1445.0,0.06442
1446.0,0.03018
1447.0,0.04758
1448.0,0.1327
1449.0,0.1191
1450.0,0.0352
1451.0,0.01521
1452.0,0.0753
1453.0,0.09652
1454.0,0.1526
1455.0,0.07689
1456.0,0.1054
1457.0,0.1334
1458.0,0.1499
1459.0,0.1783
1460.0,0.097
1461.0,0.1044
1462.0,0.1468
1463.0,0.05198
1464.0,0.1678
1465.0,0.1024
1466.0,0.07882
1467.0,0.04531
1468.0,0.09076
