interpolation:linear
wavelength,value
280.0,2.141e-25
280.5,8.782e-24
281.0,5.2e-23
281.5,2.055e-21
282.0,1.888e-20
282.5,7.981000000000001e-20
283.0,3.915e-19
283.5,7.782e-19
284.0,2.521e-17
284.5,9.646e-17
285.0,2.528e-16
285.5,2.216e-15
286.0,1.096e-14
286.5,7.012e-14
287.0,2.555e-13
287.5,1.3e-12
288.0,6.673e-12
288.5,2.839e-11
289.0,1.021e-10
289.5,4.099e-10
290.0,1.415e-09
290.5,3.446e-09
291.0,9.002e-09
291.5,3.244e-08
292.0,8.857e-08
292.5,1.39e-07
293.0,3.398e-07
293.5,9.737e-07
294.0,1.717e-06
294.5,3.141e-06
295.0,5.801e-06
295.5,1.489e-05
296.0,2.788e-05
296.5,3.773e-05
297.0,4.962e-05
297.5,0.0001265
298.0,0.0001905
298.5,0.0001847
299.0,0.0003922
299.5,0.0006028
300.0,0.000636
300.5,0.0008799
301.0,0.001466
301.5,0.002163
302.0,0.001784
302.5,0.003409
303.0,0.005929
303.5,0.007306
304.0,0.006734
304.5,0.009438
305.0,0.01306
305.5,0.01415
306.0,0.01346
306.5,0.01621
307.0,0.02215
307.5,0.02722
308.0,0.02855
308.5,0.03255
309.0,0.02902
309.5,0.0324
310.0,0.03223
310.5,0.0521
311.0,0.06483
311.5,0.06255
312.0,0.0607
312.5,0.07243
313.0,0.07795
313.5,0.07717
314.0,0.09394
314.5,0.08004
315.0,0.1049
315.5,0.09032
316.0,0.07634
316.5,0.1065
317.0,0.1331
317.5,0.1406
318.0,0.1077
318.5,0.1281
319.0,0.1491
319.5,0.1272
320.0,0.1554
320.5,0.186
321.0,0.1589
321.5,0.1525
322.0,0.1717
322.5,0.1497
323.0,0.1451
323.5,0.1694
324.0,0.1976
324.5,0.2046
325.0,0.1852
325.5,0.233
326.0,0.2769
326.5,0.2731
327.0,0.2756
327.5,0.2699
328.0,0.2478
328.5,0.2537
329.0,0.2975
329.5,0.3366
330.0,0.3433
330.5,0.2815
331.0,0.2901
331.5,0.2919
332.0,0.3101
332.5,0.3051
333.0,0.3073
333.5,0.2839
334.0,0.2928
334.5,0.3333
335.0,0.3113
335.5,0.3543
336.0,0.2461
336.5,0.2999
337.0,0.2489
337.5,0.3118
338.0,0.3012
338.5,0.3408
339.0,0.3406
339.5,0.3276
340.0,0.3951
340.5,0.357
341.0,0.3433
341.5,0.3193
342.0,0.3837
342.5,0.361
343.0,0.3968
343.5,0.3738
344.0,0.2809
344.5,0.2788
345.0,0.3744
345.5,0.3849
346.0,0.3289
346.5,0.3742
347.0,0.4018
347.5,0.3256
348.0,0.374
348.5,0.3759
349.0,0.3501
349.5,0.3477
350.0,0.4315
350.5,0.4567
351.0,0.4087
351.5,0.3966
352.0,0.4287
352.5,0.3364
353.0,0.4255
353.5,0.4567
354.0,0.4759
354.5,0.4842
355.0,0.4839
355.5,0.4386
356.0,0.4604
356.5,0.3944
357.0,0.3269
357.5,0.4015
358.0,0.3192
358.5,0.2736
359.0,0.3838
359.5,0.4903
360.0,0.5214
360.5,0.4181
361.0,0.3823
361.5,0.4413
362.0,0.3826
362.5,0.5308
363.0,0.478
363.5,0.4414
364.0,0.5412
364.5,0.4638
365.0,0.4737
365.5,0.5961
366.0,0.6331
366.5,0.5964
367.0,0.5823
367.5,0.6059
368.0,0.5315
368.5,0.5377
369.0,0.5821
369.5,0.622
370.0,0.6647
370.5,0.5172
371.0,0.5539
371.5,0.6948
372.0,0.4623
372.5,0.5556
373.0,0.5664
373.5,0.3694
374.0,0.538
374.5,0.4466
375.0,0.4351
375.5,0.6512
376.0,0.5411
376.5,0.5621
377.0,0.5964
377.5,0.6993
378.0,0.7598
378.5,0.72
379.0,0.5957
379.5,0.5455
380.0,0.5685
380.5,0.6901
381.0,0.693
381.5,0.5505
382.0,0.4899
382.5,0.4185
383.0,0.3883
383.5,0.3747
384.0,0.4142
384.5,0.6105
385.0,0.6066
385.5,0.5661
386.0,0.4858
386.5,0.6394
387.0,0.5324
387.5,0.5993
388.0,0.5544
388.5,0.5491
389.0,0.5939
389.5,0.7208
390.0,0.7248
390.5,0.6683
391.0,0.7882
391.5,0.8055
392.0,0.6798
392.5,0.6097
393.0,0.3399
393.5,0.2475
394.0,0.5045
394.5,0.6425
395.0,0.7855
395.5,0.7994
396.0,0.6943
396.5,0.4066
397.0,0.3057
397.5,0.6227
398.0,0.8737
398.5,0.9046
399.0,0.981
399.5,0.9794
400.0,1.019
401.0,1.05
402.0,1.111
403.0,1.058
404.0,1.045
405.0,1.048
406.0,1.034
407.0,1.02
408.0,1.064
409.0,1.141
410.0,0.9999
411.0,1.086
412.0,1.169
413.0,1.143
414.0,1.16
415.0,1.166
416.0,1.19
417.0,1.164
418.0,1.145
419.0,1.163
420.0,1.161
421.0,1.217
422.0,1.16
423.0,1.136
424.0,1.204
425.0,1.205
426.0,1.176
427.0,1.156
428.0,1.129
429.0,1.071
430.0,0.9395
431.0,0.9336
432.0,1.208
433.0,1.217
434.0,1.133
435.0,1.185
436.0,1.338
437.0,1.322
438.0,1.206
439.0,1.25
440.0,1.292
441.0,1.341
442.0,1.441
443.0,1.407
444.0,1.44
445.0,1.411
446.0,1.349
447.0,1.46
448.0,1.486
449.0,1.494
450.0,1.538
451.0,1.598
452.0,1.542
453.0,1.453
454.0,1.518
455.0,1.53
456.0,1.569
457.0,1.598
458.0,1.547
459.0,1.541
460.0,1.548
461.0,1.586
462.0,1.6
463.0,1.591
464.0,1.566
465.0,1.548
466.0,1.565
467.0,1.539
468.0,1.559
469.0,1.57
470.0,1.522
471.0,1.522
472.0,1.606
473.0,1.588
474.0,1.593
475.0,1.609
476.0,1.564
477.0,1.572
478.0,1.617
479.0,1.609
480.0,1.614
481.0,1.645
482.0,1.655
483.0,1.636
484.0,1.604
485.0,1.53
486.0,1.338
487.0,1.404
488.0,1.542
489.0,1.549
490.0,1.631
491.0,1.604
492.0,1.517
493.0,1.568
494.0,1.585
495.0,1.6
496.0,1.612
497.0,1.639
498.0,1.564
499.0,1.586
500.0,1.542
501.0,1.516
502.0,1.497
503.0,1.561
504.0,1.527
505.0,1.58
506.0,1.633
507.0,1.555
508.0,1.507
509.0,1.55
510.0,1.542
511.0,1.584
512.0,1.603
513.0,1.518
514.0,1.509
515.0,1.495
516.0,1.493
517.0,1.327
518.0,1.397
519.0,1.466
520.0,1.521
521.0,1.537
522.0,1.54
523.0,1.514
524.0,1.57
525.0,1.59
526.0,1.521
527.0,1.435
528.0,1.519
529.0,1.603
530.0,1.582
531.0,1.607
532.0,1.553
533.0,1.508
534.0,1.554
535.0,1.588
536.0,1.604
537.0,1.541
538.0,1.569
539.0,1.557
540.0,1.494
541.0,1.506
542.0,1.555
543.0,1.539
544.0,1.567
545.0,1.563
546.0,1.572
547.0,1.571
548.0,1.553
549.0,1.559
550.0,1.578
551.0,1.56
552.0,1.572
553.0,1.545
554.0,1.583
555.0,1.587
556.0,1.568
557.0,1.52
558.0,1.51
559.0,1.483
560.0,1.503
561.0,1.524
562.0,1.515
563.0,1.558
564.0,1.517
565.0,1.505
566.0,1.484
567.0,1.514
568.0,1.503
569.0,1.471
570.0,1.471
571.0,1.462
572.0,1.501
573.0,1.518
574.0,1.514
575.0,1.487
576.0,1.474
577.0,1.491
578.0,1.468
579.0,1.473
580.0,1.499
581.0,1.506
582.0,1.534
583.0,1.537
584.0,1.55
585.0,1.512
586.0,1.482
587.0,1.516
588.0,1.484
589.0,1.324
590.0,1.384
591.0,1.46
592.0,1.446
593.0,1.464
594.0,1.456
595.0,1.424
596.0,1.473
597.0,1.46
598.0,1.455
599.0,1.456
600.0,1.456
601.0,1.444
602.0,1.434
603.0,1.458
604.0,1.483
605.0,1.475
606.0,1.469
607.0,1.483
608.0,1.467
609.0,1.469
610.0,1.458
611.0,1.466
612.0,1.462
613.0,1.444
614.0,1.424
615.0,1.455
616.0,1.407
617.0,1.404
618.0,1.458
619.0,1.444
620.0,1.454
621.0,1.456
622.0,1.44
623.0,1.419
624.0,1.395
625.0,1.392
626.0,1.413
627.0,1.431
628.0,1.355
629.0,1.404
630.0,1.373
631.0,1.398
632.0,1.381
633.0,1.421
634.0,1.405
635.0,1.427
636.0,1.407
637.0,1.43
638.0,1.443
639.0,1.426
640.0,1.412
641.0,1.411
642.0,1.404
643.0,1.423
644.0,1.418
645.0,1.421
646.0,1.391
647.0,1.38
648.0,1.382
649.0,1.356
650.0,1.356
651.0,1.414
652.0,1.363
653.0,1.396
654.0,1.38
655.0,1.333
656.0,1.179
657.0,1.211
658.0,1.355
659.0,1.364
660.0,1.37
661.0,1.38
662.0,1.384
663.0,1.357
664.0,1.371
665.0,1.371
666.0,1.372
667.0,1.371
668.0,1.371
669.0,1.392
670.0,1.386
671.0,1.386
672.0,1.374
673.0,1.395
674.0,1.389
675.0,1.377
676.0,1.386
677.0,1.373
678.0,1.377
679.0,1.354
680.0,1.365
681.0,1.357
682.0,1.355
683.0,1.353
684.0,1.346
685.0,1.358
686.0,1.35
687.0,0.9761
688.0,1.106
689.0,1.109
690.0,1.15
691.0,1.197
692.0,1.229
693.0,1.221
694.0,1.211
695.0,1.252
696.0,1.254
697.0,1.319
698.0,1.299
699.0,1.276
700.0,1.261
701.0,1.251
702.0,1.257
703.0,1.259
704.0,1.295
705.0,1.297
706.0,1.294
707.0,1.295
708.0,1.298
709.0,1.297
710.0,1.299
711.0,1.296
712.0,1.291
713.0,1.28
714.0,1.284
715.0,1.247
716.0,1.249
717.0,1.113
718.0,1.027
719.0,0.9448
720.0,0.9916
721.0,1.076
722.0,1.212
723.0,1.139
724.0,1.038
725.0,1.026
726.0,1.071
727.0,1.08
728.0,1.025
729.0,1.053
730.0,1.114
731.0,1.069
732.0,1.133
733.0,1.188
734.0,1.214
735.0,1.19
736.0,1.189
737.0,1.194
738.0,1.206
739.0,1.182
740.0,1.211
741.0,1.198
742.0,1.198
743.0,1.228
744.0,1.224
745.0,1.224
746.0,1.23
747.0,1.233
748.0,1.23
749.0,1.216
750.0,1.216
751.0,1.204
752.0,1.209
753.0,1.215
754.0,1.218
755.0,1.211
756.0,1.211
757.0,1.213
758.0,1.198
759.0,1.178
760.0,0.278
761.0,0.1649
762.0,0.684
763.0,0.3917
764.0,0.5443
765.0,0.6847
766.0,0.8017
767.0,0.9736
768.0,1.094
769.0,1.11
770.0,1.141
771.0,1.147
772.0,1.149
773.0,1.157
774.0,1.151
775.0,1.142
776.0,1.156
777.0,1.141
778.0,1.134
779.0,1.135
780.0,1.129
781.0,1.13
782.0,1.137
783.0,1.118
784.0,1.123
785.0,1.115
786.0,1.128
787.0,1.111
788.0,1.099
789.0,1.099
790.0,1.075
791.0,1.08
792.0,1.071
793.0,1.055
794.0,1.068
795.0,1.087
796.0,1.06
797.0,1.062
798.0,1.087
799.0,1.081
800.0,1.064
801.0,1.062
802.0,1.059
803.0,1.052
804.0,1.053
805.0,1.048
806.0,1.075
807.0,1.063
808.0,1.063
809.0,1.046
810.0,1.039
811.0,1.043
812.0,1.018
813.0,0.9993
814.0,0.8938
815.0,0.888
816.0,0.8288
817.0,0.8422
818.0,0.8141
819.0,0.8974
820.0,0.8503
821.0,0.9765
822.0,0.9516
823.0,0.6753
824.0,0.93
825.0,0.9608
826.0,0.9297
827.0,0.9755
828.0,0.8429
829.0,0.9232
830.0,0.9129
831.0,0.9156
832.0,0.8904
833.0,0.9392
834.0,0.9113
835.0,0.9901
836.0,0.9546
837.0,0.9926
838.0,0.9648
839.0,0.9771
840.0,0.9978
841.0,0.985
842.0,0.9852
843.0,0.9827
844.0,0.9702
845.0,1.002
846.0,0.9969
847.0,0.9778
848.0,0.9727
849.0,0.9452
850.0,0.9055
851.0,0.9598
852.0,0.9527
853.0,0.9163
854.0,0.7919
855.0,0.8692
856.0,0.9503
857.0,0.971
858.0,0.9641
859.0,0.9647
860.0,0.9662
861.0,0.9611
862.0,0.9761
863.0,0.9992
864.0,0.9493
865.0,0.941
866.0,0.8462
867.0,0.8831
868.0,0.961
869.0,0.9411
870.0,0.968
871.0,0.9549
872.0,0.9515
873.0,0.9497
874.0,0.9384
875.0,0.9195
876.0,0.9292
877.0,0.9386
878.0,0.949
879.0,0.9345
880.0,0.9145
881.0,0.9013
882.0,0.921
883.0,0.9235
884.0,0.9195
885.0,0.9265
886.0,0.8846
887.0,0.8929
888.0,0.9068
889.0,0.9159
890.0,0.9099
891.0,0.9076
892.0,0.8834
893.0,0.8584
894.0,0.8331
895.0,0.7933
896.0,0.7503
897.0,0.653
898.0,0.7077
899.0,0.5488
900.0,0.7196
901.0,0.5748
902.0,0.6609
903.0,0.6718
904.0,0.8273
905.0,0.8016
906.0,0.7525
907.0,0.6239
908.0,0.6346
909.0,0.6814
910.0,0.6133
911.0,0.6473
912.0,0.6743
913.0,0.623
914.0,0.6159
915.0,0.6666
916.0,0.5676
917.0,0.7085
918.0,0.5823
919.0,0.7187
920.0,0.7207
921.0,0.7483
922.0,0.6766
923.0,0.7225
924.0,0.694
925.0,0.6792
926.0,0.6866
927.0,0.7614
928.0,0.5794
929.0,0.5345
930.0,0.4289
931.0,0.405
932.0,0.3006
933.0,0.2492
934.0,0.147
935.0,0.2511
936.0,0.1632
937.0,0.1663
938.0,0.2019
939.0,0.3926
940.0,0.466
941.0,0.3602
942.0,0.4117
943.0,0.2774
944.0,0.2864
945.0,0.37
946.0,0.1973
947.0,0.3739
948.0,0.2762
949.0,0.4916
950.0,0.1506
951.0,0.4826
952.0,0.2711
953.0,0.3424
954.0,0.4114
955.0,0.3454
956.0,0.3313
957.0,0.2727
958.0,0.4573
959.0,0.3725
960.0,0.4172
961.0,0.4613
962.0,0.4374
963.0,0.4981
964.0,0.4585
965.0,0.4956
966.0,0.4972
967.0,0.4957
968.0,0.6436
969.0,0.6738
970.0,0.6218
971.0,0.7026
972.0,0.6739
973.0,0.596
974.0,0.5671
975.0,0.585
976.0,0.5603
977.0,0.6281
978.0,0.6008
979.0,0.6262
980.0,0.5908
981.0,0.6984
982.0,0.6711
983.0,0.6463
984.0,0.7161
985.0,0.6686
986.0,0.7265
987.0,0.7147
988.0,0.7134
989.0,0.723
990.0,0.709
991.0,0.7255
992.0,0.7295
993.0,0.7156
994.0,0.7291
995.0,0.7279
996.0,0.725
997.0,0.7259
998.0,0.7227
999.0,0.72
1000.0,0.7155
1001.0,0.7238
1002.0,0.7062
1003.0,0.7112
1004.0,0.6944
1005.0,0.6682
1006.0,0.6948
1007.0,0.7093
1008.0,0.7059
1009.0,0.7026
1010.0,0.6999
1011.0,0.7058
1012.0,0.7001
1013.0,0.704
1014.0,0.6991
1015.0,0.6945
1016.0,0.6915
1017.0,0.6933
1018.0,0.6905
1019.0,0.6766
1020.0,0.687
1021.0,0.686
1022.0,0.681
1023.0,0.6883
1024.0,0.6802
1025.0,0.6876
1026.0,0.6849
1027.0,0.6833
1028.0,0.6819
1029.0,0.674
1030.0,0.6783
1031.0,0.6757
1032.0,0.6737
1033.0,0.6636
1034.0,0.6636
1035.0,0.6657
1036.0,0.6693
1037.0,0.6584
1038.0,0.6613
1039.0,0.661
1040.0,0.6584
1041.0,0.6611
1042.0,0.6565
1043.0,0.6545
1044.0,0.6569
1045.0,0.6481
1046.0,0.641
1047.0,0.6468
1048.0,0.6505
1049.0,0.6482
1050.0,0.6453
1051.0,0.6445
1052.0,0.642
1053.0,0.637
1054.0,0.6385
1055.0,0.639
1056.0,0.6369
1057.0,0.6351
1058.0,0.6196
1059.0,0.6204
1060.0,0.6196
1061.0,0.6189
1062.0,0.6223
1063.0,0.6163
1064.0,0.6236
1065.0,0.6194
1066.0,0.607
1067.0,0.6149
1068.0,0.6017
1069.0,0.583
1070.0,0.603
1071.0,0.6116
1072.0,0.6052
1073.0,0.5964
1074.0,0.6109
1075.0,0.5827
1076.0,0.6106
1077.0,0.601
1078.0,0.5902
1079.0,0.6005
1080.0,0.5919
1081.0,0.574
1082.0,0.5812
1083.0,0.5825
1084.0,0.5733
1085.0,0.593
1086.0,0.545
1087.0,0.5597
1088.0,0.5824
1089.0,0.5668
1090.0,0.556
1091.0,0.5812
1092.0,0.5792
1093.0,0.4981
1094.0,0.5308
1095.0,0.5179
1096.0,0.498
1097.0,0.5658
1098.0,0.491
1099.0,0.5111
1100.0,0.4783
1101.0,0.4833
1102.0,0.4635
1103.0,0.4604
1104.0,0.4608
1105.0,0.5001
1106.0,0.3945
1107.0,0.4773
1108.0,0.4118
1109.0,0.4112
1110.0,0.4741
1111.0,0.3313
1112.0,0.4075
1113.0,0.2695
1114.0,0.3001
1115.0,0.2491
1116.0,0.2051
1117.0,0.08236
1118.0,0.2209
1119.0,0.1151
1120.0,0.1451
1121.0,0.189
1122.0,0.08437
1123.0,0.1309
1124.0,0.1106
1125.0,0.1429
1126.0,0.05454
1127.0,0.1608
1128.0,0.1013
1129.0,0.1067
1130.0,0.07248
1131.0,0.2928
1132.0,0.232
1133.0,0.1535
1134.0,0.04325
1135.0,0.01602
1136.0,0.1304
1137.0,0.2895
1138.0,0.2055
1139.0,0.2943
1140.0,0.2505
1141.0,0.1952
1142.0,0.222
1143.0,0.3102
1144.0,0.1146
1145.0,0.1479
1146.0,0.1596
1147.0,0.06116
1148.0,0.2687
1149.0,0.2183
1150.0,0.1229
1151.0,0.204
1152.0,0.2467
1153.0,0.2371
1154.0,0.1443
1155.0,0.3072
1156.0,0.279
1157.0,0.3095
1158.0,0.3061
1159.0,0.327
1160.0,0.2832
1161.0,0.3418
1162.0,0.344
1163.0,0.4522
1164.0,0.3925
1165.0,0.3746
1166.0,0.369
1167.0,0.3996
1168.0,0.4049
1169.0,0.4129
1170.0,0.4451
1171.0,0.4346
1172.0,0.4403
1173.0,0.4441
1174.0,0.3274
1175.0,0.4323
1176.0,0.4702
1177.0,0.4546
1178.0,0.3493
1179.0,0.4738
1180.0,0.4285
1181.0,0.4417
1182.0,0.3134
1183.0,0.4337
1184.0,0.4093
1185.0,0.3975
1186.0,0.4628
1187.0,0.4434
1188.0,0.3195
1189.0,0.4137
1190.0,0.4523
1191.0,0.4339
1192.0,0.4581
1193.0,0.4406
1194.0,0.453
1195.0,0.4316
1196.0,0.4177
1197.0,0.4515
1198.0,0.4156
1199.0,0.3607
1200.0,0.4354
1201.0,0.4224
1202.0,0.4184
1203.0,0.4151
1204.0,0.3671
1205.0,0.426
1206.0,0.4666
1207.0,0.4181
1208.0,0.4094
1209.0,0.4172
1210.0,0.433
1211.0,0.4152
1212.0,0.4134
1213.0,0.4528
1214.0,0.4217
1215.0,0.4145
1216.0,0.4512
1217.0,0.4408
1218.0,0.4477
1219.0,0.4429
1220.0,0.448
1221.0,0.4517
1222.0,0.4408
1223.0,0.4373
1224.0,0.4356
1225.0,0.4489
1226.0,0.451
1227.0,0.4198
1228.0,0.4525
1229.0,0.4511
1230.0,0.4441
1231.0,0.4544
1232.0,0.4518
1233.0,0.4392
1234.0,0.4534
1235.0,0.451
1236.0,0.4539
1237.0,0.4488
1238.0,0.4524
1239.0,0.4466
1240.0,0.4482
1241.0,0.4468
1242.0,0.4452
1243.0,0.4415
1244.0,0.4449
1245.0,0.4467
1246.0,0.444
1247.0,0.4425
1248.0,0.4426
1249.0,0.4436
1250.0,0.4412
1251.0,0.436
1252.0,0.4355
1253.0,0.433
1254.0,0.4294
1255.0,0.4353
1256.0,0.425
1257.0,0.423
1258.0,0.4295
1259.0,0.4168
1260.0,0.4186
1261.0,0.3988
1262.0,0.3888
1263.0,0.3897
1264.0,0.3642
1265.0,0.3871
1266.0,0.3752
1267.0,0.3799
1268.0,0.3633
1269.0,0.2457
1270.0,0.3793
1271.0,0.3971
1272.0,0.398
1273.0,0.3942
1274.0,0.3949
1275.0,0.3999
1276.0,0.4031
1277.0,0.4049
1278.0,0.4112
1279.0,0.4076
1280.0,0.4024
1281.0,0.3833
1282.0,0.3682
1283.0,0.3967
1284.0,0.4065
1285.0,0.409
1286.0,0.4139
1287.0,0.4087
1288.0,0.4082
1289.0,0.3976
1290.0,0.4045
1291.0,0.4097
1292.0,0.3893
1293.0,0.4028
1294.0,0.4002
1295.0,0.3994
1296.0,0.3841
1297.0,0.3656
1298.0,0.3891
1299.0,0.4029
1300.0,0.3487
1301.0,0.3579
1302.0,0.3877
1303.0,0.3433
1304.0,0.3
1305.0,0.3803
1306.0,0.3808
1307.0,0.3039
1308.0,0.3427
1309.0,0.3784
1310.0,0.2985
1311.0,0.3302
1312.0,0.3224
1313.0,0.3173
1314.0,0.2866
1315.0,0.2845
1316.0,0.3262
1317.0,0.3098
1318.0,0.3338
1319.0,0.2694
1320.0,0.2591
1321.0,0.2989
1322.0,0.3032
1323.0,0.2351
1324.0,0.2641
1325.0,0.3219
1326.0,0.2808
1327.0,0.2689
1328.0,0.2341
1329.0,0.1817
1330.0,0.2335
1331.0,0.1481
1332.0,0.1504
1333.0,0.2076
1334.0,0.1728
1335.0,0.2342
1336.0,0.1888
1337.0,0.169
1338.0,0.1827
1339.0,0.1809
1340.0,0.1742
1341.0,0.1742
1342.0,0.1827
1343.0,0.1325
1344.0,0.07903
1345.0,0.1131
1346.0,0.0621
1347.0,0.06415
1348.0,0.005372
1349.0,0.01789
1350.0,0.01761
1351.0,0.005374
1352.0,0.001836
1353.0,0.0001237
1354.0,0.0003588
1355.0,5.032e-06
1356.0,6.184e-05
1357.0,9.335e-05
1358.0,5.829e-06
1359.0,1.103e-06
1360.0,3.083e-06
1361.0,8.295e-09
1362.0,3.373e-11
1363.0,4.624e-06
1364.0,1.997e-06
1365.0,1.881e-11
1366.0,1.81e-05
1367.0,7.038e-06
1368.0,3.672e-13
1369.0,7.683e-07
1370.0,4.492e-07
1371.0,3.192e-08
1372.0,3.885e-06
1373.0,5.893e-05
1374.0,0.0002263
1375.0,0.0004099
1376.0,0.0003199
1377.0,0.0001534
1378.0,0.00136
1379.0,6.523e-05
1380.0,0.0001049
1381.0,3.126e-06
1382.0,3.674e-06
1383.0,6.575e-08
1384.0,9.275e-07
1385.0,2.885e-06
1386.0,3.675e-06
1387.0,0.00026
1388.0,5.336e-06
1389.0,0.0007214
1390.0,0.0006197
1391.0,0.0004337
1392.0,3.056e-05
1393.0,0.0001455
1394.0,0.000101
1395.0,9.486e-07
1396.0,1.065e-08
1397.0,6.27e-05
1398.0,0.001553
1399.0,0.0009852
1400.0,5.759e-09
1401.0,1.763e-08
1402.0,0.002141
1403.0,0.002812
1404.0,0.0008753
1405.0,5.353e-07
1406.0,0.002451
1407.0,0.0002091
1408.0,0.001982
1409.0,0.0007657
1410.0,0.0005673
1411.0,0.002454
1412.0,0.003098
1413.0,0.02597
1414.0,0.0004408
1415.0,0.0002268
1416.0,0.03838
1417.0,0.01308
1418.0,0.01501
1419.0,0.002404
1420.0,0.009246
1421.0,0.01008
1422.0,0.04967
1423.0,0.01003
1424.0,0.01844
1425.0,0.02763
1426.0,0.03005
1427.0,0.05222
1428.0,0.005142
1429.0,0.04039
1430.0,0.06556
1431.0,0.07119
1432.0,0.004089
1433.0,0.04643
1434.0,0.0242
1435.0,0.02615
1436.0,0.04735
1437.0,0.0363
1438.0,0.0162
1439.0,0.06302
1440.0,0.04737
1441.0,0.03757
1442.0,0.04137
1443.0,0.04973
1444.0,0.06791
1445.0,0.05492
1446.0,0.02526
1447.0,0.03972
1448.0,0.1217
1449.0,0.1074
1450.0,0.02939
1451.0,0.01224
1452.0,0.06633
1453.0,0.08609
1454.0,0.1418
1455.0,0.0691
1456.0,0.09377
1457.0,0.1223
1458.0,0.1408
1459.0,0.1671
1460.0,0.08878
1461.0,0.09418
1462.0,0.1353
1463.0,0.04563
1464.0,0.1576
1465.0,0.09548
1466.0,0.06951
