interpolation:linear
wavelength,value
280.0,7.226e-19
280.5,1.14e-17
281.0,4.761e-17
281.5,7.463e-16
282.0,3.912e-15
282.5,1.132e-14
283.0,3.662e-14
283.5,5.916e-14
284.0,7.304e-13
284.5,1.801e-12
285.0,2.935e-12
285.5,1.47e-11
286.0,5.797e-11
286.5,2.327e-10
287.0,6.016e-10
287.5,1.951e-09
288.0,5.679e-09
288.5,1.787e-08
289.0,4.709e-08
289.5,1.344e-07
290.0,3.507e-07
290.5,6.756e-07
291.0,1.331e-06
291.5,3.352e-06
292.0,6.833e-06
292.5,9.095e-06
293.0,1.801e-05
293.5,3.873e-05
294.0,5.623e-05
294.5,8.886e-05
295.0,0.0001365
295.5,0.000279
296.0,0.0004471
296.5,0.0005217
297.0,0.0006101
297.5,0.00132
298.0,0.001741
298.5,0.00153
299.0,0.002962
299.5,0.00393
300.0,0.003839
300.5,0.004925
301.0,0.007361
301.5,0.009939
302.0,0.007854
302.5,0.01391
303.0,0.02205
303.5,0.02577
304.0,0.02314
304.5,0.0305
305.0,0.03897
305.5,0.04022
306.0,0.03751
306.5,0.04383
307.0,0.05641
307.5,0.06568
308.0,0.06812
308.5,0.07564
309.0,0.06603
309.5,0.06974
310.0,0.06759
310.5,0.1077
311.0,0.1313
311.5,0.1253
312.0,0.1168
312.5,0.1358
313.0,0.144
313.5,0.1437
314.0,0.1698
314.5,0.1395
315.0,0.1814
315.5,0.1582
316.0,0.1299
316.5,0.1769
317.0,0.2206
317.5,0.234
318.0,0.1762
318.5,0.2039
319.0,0.2338
319.5,0.2028
320.0,0.2479
320.5,0.2888
321.0,0.2413
321.5,0.2305
322.0,0.2646
322.5,0.2299
323.0,0.2191
323.5,0.2495
324.0,0.2894
324.5,0.3015
325.0,0.2765
325.5,0.3434
326.0,0.4011
326.5,0.3914
327.0,0.3952
327.5,0.3879
328.0,0.3602
328.5,0.3621
329.0,0.4194
329.5,0.4723
330.0,0.4818
330.5,0.3973
331.0,0.4096
331.5,0.4088
332.0,0.43
332.5,0.421
333.0,0.424
333.5,0.3931
334.0,0.4051
334.5,0.4572
335.0,0.4249
335.5,0.4819
336.0,0.3341
336.5,0.4076
337.0,0.3385
337.5,0.4235
338.0,0.4065
338.5,0.4584
339.0,0.4569
339.5,0.4388
340.0,0.5294
340.5,0.4774
341.0,0.4574
341.5,0.4242
342.0,0.5089
342.5,0.4779
343.0,0.5246
343.5,0.4936
344.0,0.3713
344.5,0.3672
345.0,0.4916
345.5,0.5043
346.0,0.4302
346.5,0.4885
347.0,0.5239
347.5,0.4239
348.0,0.486
348.5,0.4877
349.0,0.4534
349.5,0.4495
350.0,0.557
350.5,0.5886
351.0,0.5261
351.5,0.5101
352.0,0.5504
352.5,0.431
353.0,0.5443
353.5,0.5834
354.0,0.6071
354.5,0.617
355.0,0.6158
355.5,0.5572
356.0,0.5841
356.5,0.4997
357.0,0.4138
357.5,0.5076
358.0,0.4031
358.5,0.3451
359.0,0.4836
359.5,0.6172
360.0,0.6555
360.5,0.525
361.0,0.4793
361.5,0.5524
362.0,0.478
362.5,0.6622
363.0,0.5953
363.5,0.5489
364.0,0.6721
364.5,0.5753
365.0,0.5868
365.5,0.7376
366.0,0.7824
366.5,0.7359
367.0,0.7178
367.5,0.746
368.0,0.6537
368.5,0.6604
369.0,0.7142
369.5,0.7623
370.0,0.8137
370.5,0.6323
371.0,0.6765
371.5,0.8476
372.0,0.5634
372.5,0.6765
373.0,0.6888
373.5,0.4487
374.0,0.6528
374.5,0.5412
375.0,0.5269
375.5,0.7878
376.0,0.654
376.5,0.6788
377.0,0.7194
377.5,0.8427
378.0,0.9149
378.5,0.8662
379.0,0.716
379.5,0.6553
380.0,0.6823
380.5,0.8273
381.0,0.8298
381.5,0.6584
382.0,0.5853
382.5,0.4993
383.0,0.4628
383.5,0.4462
384.0,0.4927
384.5,0.7255
385.0,0.7203
385.5,0.6714
386.0,0.5757
386.5,0.7569
387.0,0.6298
387.5,0.7082
388.0,0.6547
388.5,0.6478
389.0,0.7001
389.5,0.8488
390.0,0.8528
390.5,0.7857
391.0,0.9258
391.5,0.9454
392.0,0.7973
392.5,0.7144
393.0,0.3979
393.5,0.2894
394.0,0.5896
394.5,0.7503
395.0,0.9165
395.5,0.9321
396.0,0.809
396.5,0.4732
397.0,0.3555
397.5,0.7237
398.0,1.015
398.5,1.05
399.0,1.137
399.5,1.135
400.0,1.18
401.0,1.214
402.0,1.282
403.0,1.22
404.0,1.203
405.0,1.205
406.0,1.187
407.0,1.169
408.0,1.217
409.0,1.305
410.0,1.142
411.0,1.238
412.0,1.331
413.0,1.3
414.0,1.318
415.0,1.323
416.0,1.347
417.0,1.316
418.0,1.294
419.0,1.313
420.0,1.309
421.0,1.371
422.0,1.305
423.0,1.276
424.0,1.352
425.0,1.351
426.0,1.317
427.0,1.294
428.0,1.262
429.0,1.196
430.0,1.047
431.0,1.04
432.0,1.344
433.0,1.353
434.0,1.258
435.0,1.316
436.0,1.483
437.0,1.463
438.0,1.333
439.0,1.382
440.0,1.427
441.0,1.48
442.0,1.589
443.0,1.55
444.0,1.585
445.0,1.553
446.0,1.482
447.0,1.603
448.0,1.631
449.0,1.637
450.0,1.684
451.0,1.748
452.0,1.686
453.0,1.587
454.0,1.657
455.0,1.669
456.0,1.71
457.0,1.741
458.0,1.684
459.0,1.676
460.0,1.683
461.0,1.723
462.0,1.737
463.0,1.727
464.0,1.698
465.0,1.677
466.0,1.693
467.0,1.665
468.0,1.686
469.0,1.697
470.0,1.645
471.0,1.644
472.0,1.734
473.0,1.713
474.0,1.719
475.0,1.737
476.0,1.689
477.0,1.696
478.0,1.744
479.0,1.734
480.0,1.737
481.0,1.769
482.0,1.778
483.0,1.756
484.0,1.72
485.0,1.639
486.0,1.433
487.0,1.502
488.0,1.65
489.0,1.657
490.0,1.743
491.0,1.714
492.0,1.619
493.0,1.673
494.0,1.691
495.0,1.707
496.0,1.718
497.0,1.746
498.0,1.666
499.0,1.689
500.0,1.642
501.0,1.614
502.0,1.595
503.0,1.664
504.0,1.63
505.0,1.683
506.0,1.739
507.0,1.656
508.0,1.603
509.0,1.647
510.0,1.638
511.0,1.682
512.0,1.7
513.0,1.61
514.0,1.599
515.0,1.584
516.0,1.581
517.0,1.406
518.0,1.479
519.0,1.552
520.0,1.61
521.0,1.626
522.0,1.629
523.0,1.601
524.0,1.661
525.0,1.683
526.0,1.609
527.0,1.518
528.0,1.608
529.0,1.697
530.0,1.674
531.0,1.7
532.0,1.643
533.0,1.595
534.0,1.643
535.0,1.679
536.0,1.694
537.0,1.627
538.0,1.657
539.0,1.644
540.0,1.577
541.0,1.59
542.0,1.642
543.0,1.624
544.0,1.654
545.0,1.649
546.0,1.659
547.0,1.658
548.0,1.638
549.0,1.643
550.0,1.663
551.0,1.643
552.0,1.656
553.0,1.627
554.0,1.667
555.0,1.671
556.0,1.651
557.0,1.601
558.0,1.59
559.0,1.563
560.0,1.584
561.0,1.606
562.0,1.596
563.0,1.642
564.0,1.599
565.0,1.587
566.0,1.565
567.0,1.597
568.0,1.587
569.0,1.558
570.0,1.557
571.0,1.546
572.0,1.589
573.0,1.607
574.0,1.604
575.0,1.576
576.0,1.562
577.0,1.579
578.0,1.554
579.0,1.557
580.0,1.582
581.0,1.587
582.0,1.614
583.0,1.615
584.0,1.628
585.0,1.588
586.0,1.556
587.0,1.593
588.0,1.564
589.0,1.405
590.0,1.468
591.0,1.543
592.0,1.531
593.0,1.546
594.0,1.539
595.0,1.508
596.0,1.552
597.0,1.539
598.0,1.531
599.0,1.531
600.0,1.53
601.0,1.515
602.0,1.505
603.0,1.528
604.0,1.554
605.0,1.545
606.0,1.538
607.0,1.552
608.0,1.534
609.0,1.536
610.0,1.524
611.0,1.531
612.0,1.526
613.0,1.507
614.0,1.485
615.0,1.517
616.0,1.466
617.0,1.463
618.0,1.519
619.0,1.504
620.0,1.514
621.0,1.517
622.0,1.501
623.0,1.48
624.0,1.453
625.0,1.45
626.0,1.473
627.0,1.493
628.0,1.434
629.0,1.472
630.0,1.44
631.0,1.459
632.0,1.44
633.0,1.478
634.0,1.46
635.0,1.481
636.0,1.459
637.0,1.482
638.0,1.493
639.0,1.475
640.0,1.46
641.0,1.458
642.0,1.45
643.0,1.47
644.0,1.464
645.0,1.467
646.0,1.438
647.0,1.432
648.0,1.436
649.0,1.409
650.0,1.402
651.0,1.46
652.0,1.415
653.0,1.441
654.0,1.424
655.0,1.379
656.0,1.217
657.0,1.249
658.0,1.396
659.0,1.404
660.0,1.41
661.0,1.42
662.0,1.425
663.0,1.396
664.0,1.409
665.0,1.408
666.0,1.408
667.0,1.405
668.0,1.405
669.0,1.426
670.0,1.419
671.0,1.419
672.0,1.406
673.0,1.427
674.0,1.421
675.0,1.408
676.0,1.417
677.0,1.403
678.0,1.407
679.0,1.384
680.0,1.395
681.0,1.386
682.0,1.384
683.0,1.382
684.0,1.375
685.0,1.387
686.0,1.379
687.0,1.095
688.0,1.194
689.0,1.196
690.0,1.226
691.0,1.258
692.0,1.28
693.0,1.273
694.0,1.264
695.0,1.295
696.0,1.298
697.0,1.349
698.0,1.329
699.0,1.315
700.0,1.3
701.0,1.292
702.0,1.294
703.0,1.297
704.0,1.328
705.0,1.33
706.0,1.325
707.0,1.325
708.0,1.328
709.0,1.324
710.0,1.327
711.0,1.323
712.0,1.317
713.0,1.306
714.0,1.311
715.0,1.276
716.0,1.279
717.0,1.176
718.0,1.095
719.0,1.012
720.0,1.063
721.0,1.131
722.0,1.246
723.0,1.186
724.0,1.096
725.0,1.088
726.0,1.132
727.0,1.135
728.0,1.088
729.0,1.105
730.0,1.166
731.0,1.125
732.0,1.178
733.0,1.222
734.0,1.244
735.0,1.222
736.0,1.22
737.0,1.226
738.0,1.23
739.0,1.206
740.0,1.233
741.0,1.218
742.0,1.216
743.0,1.247
744.0,1.242
745.0,1.241
746.0,1.247
747.0,1.249
748.0,1.247
749.0,1.232
750.0,1.232
751.0,1.219
752.0,1.224
753.0,1.231
754.0,1.234
755.0,1.227
756.0,1.226
757.0,1.228
758.0,1.213
759.0,1.197
760.0,0.422
761.0,0.2891
762.0,0.804
763.0,0.5402
764.0,0.6841
765.0,0.8051
766.0,0.8918
767.0,1.036
768.0,1.128
769.0,1.137
770.0,1.16
771.0,1.162
772.0,1.162
773.0,1.17
774.0,1.164
775.0,1.155
776.0,1.169
777.0,1.154
778.0,1.147
779.0,1.148
780.0,1.141
781.0,1.142
782.0,1.15
783.0,1.129
784.0,1.135
785.0,1.127
786.0,1.14
787.0,1.127
788.0,1.116
789.0,1.117
790.0,1.098
791.0,1.098
792.0,1.088
793.0,1.072
794.0,1.08
795.0,1.101
796.0,1.081
797.0,1.082
798.0,1.101
799.0,1.097
800.0,1.081
801.0,1.081
802.0,1.077
803.0,1.071
804.0,1.071
805.0,1.064
806.0,1.088
807.0,1.076
808.0,1.076
809.0,1.061
810.0,1.056
811.0,1.063
812.0,1.043
813.0,1.028
814.0,0.9399
815.0,0.9334
816.0,0.8754
817.0,0.8864
818.0,0.8611
819.0,0.9311
820.0,0.8897
821.0,0.9977
822.0,0.9765
823.0,0.7344
824.0,0.9618
825.0,0.9836
826.0,0.9587
827.0,0.9981
828.0,0.8842
829.0,0.9505
830.0,0.9424
831.0,0.944
832.0,0.9222
833.0,0.9605
834.0,0.9391
835.0,1.005
836.0,0.9784
837.0,1.007
838.0,0.9826
839.0,0.9907
840.0,1.011
841.0,0.9995
842.0,0.9971
843.0,0.9919
844.0,0.9808
845.0,1.01
846.0,1.005
847.0,0.9852
848.0,0.9812
849.0,0.9535
850.0,0.9132
851.0,0.9692
852.0,0.9614
853.0,0.9237
854.0,0.7991
855.0,0.8759
856.0,0.9582
857.0,0.9782
858.0,0.9716
859.0,0.9716
860.0,0.9728
861.0,0.9678
862.0,0.9827
863.0,1.006
864.0,0.9556
865.0,0.9472
866.0,0.8517
867.0,0.8888
868.0,0.9672
869.0,0.9471
870.0,0.9741
871.0,0.9609
872.0,0.9574
873.0,0.9555
874.0,0.9442
875.0,0.9252
876.0,0.935
877.0,0.9444
878.0,0.955
879.0,0.9403
880.0,0.9202
881.0,0.9074
882.0,0.9274
883.0,0.9295
884.0,0.9256
885.0,0.9327
886.0,0.8925
887.0,0.8993
888.0,0.9145
889.0,0.9216
890.0,0.9178
891.0,0.9143
892.0,0.8927
893.0,0.8715
894.0,0.8527
895.0,0.8211
896.0,0.7824
897.0,0.6952
898.0,0.7446
899.0,0.5963
900.0,0.7491
901.0,0.6225
902.0,0.6929
903.0,0.7112
904.0,0.8467
905.0,0.8249
906.0,0.7783
907.0,0.6658
908.0,0.6749
909.0,0.714
910.0,0.6607
911.0,0.6875
912.0,0.7108
913.0,0.6718
914.0,0.6615
915.0,0.7116
916.0,0.6145
917.0,0.7441
918.0,0.6301
919.0,0.7513
920.0,0.746
921.0,0.7706
922.0,0.71
923.0,0.7438
924.0,0.7277
925.0,0.7133
926.0,0.7201
927.0,0.7862
928.0,0.6344
929.0,0.595
930.0,0.495
931.0,0.4638
932.0,0.3612
933.0,0.3102
934.0,0.2054
935.0,0.3037
936.0,0.2114
937.0,0.2183
938.0,0.259
939.0,0.4496
940.0,0.5221
941.0,0.4201
942.0,0.4684
943.0,0.3295
944.0,0.3296
945.0,0.4291
946.0,0.2477
947.0,0.4378
948.0,0.328
949.0,0.5562
950.0,0.2038
951.0,0.5431
952.0,0.3317
953.0,0.4023
954.0,0.4653
955.0,0.4035
956.0,0.3831
957.0,0.3363
958.0,0.5001
959.0,0.4261
960.0,0.4757
961.0,0.5126
962.0,0.4886
963.0,0.544
964.0,0.5055
965.0,0.5392
966.0,0.5444
967.0,0.5435
968.0,0.6672
969.0,0.6992
970.0,0.6521
971.0,0.7197
972.0,0.6936
973.0,0.6304
974.0,0.6033
975.0,0.6152
976.0,0.5977
977.0,0.6534
978.0,0.6319
979.0,0.6527
980.0,0.6203
981.0,0.7144
982.0,0.6924
983.0,0.6706
984.0,0.726
985.0,0.6894
986.0,0.7328
987.0,0.7244
988.0,0.7234
989.0,0.727
990.0,0.7182
991.0,0.73
992.0,0.7335
993.0,0.7233
994.0,0.7327
995.0,0.7309
996.0,0.7287
997.0,0.7293
998.0,0.7262
999.0,0.7233
1000.0,0.7198
1001.0,0.7271
1002.0,0.7132
1003.0,0.7147
1004.0,0.6988
1005.0,0.671
1006.0,0.6984
1007.0,0.7126
1008.0,0.7099
1009.0,0.7073
1010.0,0.705
1011.0,0.7089
1012.0,0.704
1013.0,0.7069
1014.0,0.702
1015.0,0.6975
1016.0,0.6945
1017.0,0.6965
1018.0,0.6932
1019.0,0.6807
1020.0,0.69
1021.0,0.6886
1022.0,0.6841
1023.0,0.6916
1024.0,0.685
1025.0,0.6903
1026.0,0.688
1027.0,0.6863
1028.0,0.6851
1029.0,0.6772
1030.0,0.681
1031.0,0.6787
1032.0,0.6764
1033.0,0.6663
1034.0,0.6663
1035.0,0.6684
1036.0,0.6721
1037.0,0.6611
1038.0,0.6641
1039.0,0.6639
1040.0,0.6613
1041.0,0.6642
1042.0,0.6596
1043.0,0.6576
1044.0,0.6601
1045.0,0.6513
1046.0,0.6442
1047.0,0.6502
1048.0,0.6539
1049.0,0.6518
1050.0,0.649
1051.0,0.6483
1052.0,0.6459
1053.0,0.6411
1054.0,0.6428
1055.0,0.6435
1056.0,0.6416
1057.0,0.64
1058.0,0.6246
1059.0,0.6256
1060.0,0.6249
1061.0,0.6243
1062.0,0.628
1063.0,0.6221
1064.0,0.6294
1065.0,0.6257
1066.0,0.6127
1067.0,0.6209
1068.0,0.6079
1069.0,0.5887
1070.0,0.6094
1071.0,0.6167
1072.0,0.6113
1073.0,0.6021
1074.0,0.6153
1075.0,0.5911
1076.0,0.6152
1077.0,0.608
1078.0,0.5978
1079.0,0.6044
1080.0,0.5989
1081.0,0.5825
1082.0,0.5864
1083.0,0.5869
1084.0,0.5833
1085.0,0.5995
1086.0,0.5584
1087.0,0.5676
1088.0,0.5876
1089.0,0.5757
1090.0,0.568
1091.0,0.5875
1092.0,0.5845
1093.0,0.5158
1094.0,0.5372
1095.0,0.5337
1096.0,0.5173
1097.0,0.5707
1098.0,0.511
1099.0,0.5298
1100.0,0.5024
1101.0,0.5057
1102.0,0.4884
1103.0,0.4878
1104.0,0.488
1105.0,0.5198
1106.0,0.4333
1107.0,0.5007
1108.0,0.4463
1109.0,0.443
1110.0,0.4986
1111.0,0.3688
1112.0,0.4379
1113.0,0.3117
1114.0,0.3434
1115.0,0.2858
1116.0,0.2495
1117.0,0.1181
1118.0,0.2624
1119.0,0.1502
1120.0,0.1883
1121.0,0.2366
1122.0,0.1173
1123.0,0.1698
1124.0,0.1436
1125.0,0.1825
1126.0,0.08171
1127.0,0.2043
1128.0,0.1414
1129.0,0.1464
1130.0,0.1068
1131.0,0.3436
1132.0,0.278
1133.0,0.1988
1134.0,0.06764
1135.0,0.02491
1136.0,0.174
1137.0,0.3428
1138.0,0.248
1139.0,0.3297
1140.0,0.2909
1141.0,0.2358
1142.0,0.2621
1143.0,0.3553
1144.0,0.1467
1145.0,0.1908
1146.0,0.206
1147.0,0.09217
1148.0,0.3079
1149.0,0.259
1150.0,0.1579
1151.0,0.2465
1152.0,0.2882
1153.0,0.2701
1154.0,0.1906
1155.0,0.3445
1156.0,0.3177
1157.0,0.3467
1158.0,0.342
1159.0,0.3585
1160.0,0.32
1161.0,0.3713
1162.0,0.3746
1163.0,0.4692
1164.0,0.4163
1165.0,0.4044
1166.0,0.3942
1167.0,0.4223
1168.0,0.429
1169.0,0.4343
1170.0,0.462
1171.0,0.4525
1172.0,0.4552
1173.0,0.461
1174.0,0.359
1175.0,0.4467
1176.0,0.4779
1177.0,0.4669
1178.0,0.3735
1179.0,0.4811
1180.0,0.4443
1181.0,0.4565
1182.0,0.3397
1183.0,0.4461
1184.0,0.4262
1185.0,0.4179
1186.0,0.4728
1187.0,0.4572
1188.0,0.3467
1189.0,0.4279
1190.0,0.4623
1191.0,0.4499
1192.0,0.4674
1193.0,0.4522
1194.0,0.4631
1195.0,0.4457
1196.0,0.4345
1197.0,0.4587
1198.0,0.4267
1199.0,0.3814
1200.0,0.4472
1201.0,0.4374
1202.0,0.4318
1203.0,0.4277
1204.0,0.3855
1205.0,0.4364
1206.0,0.4713
1207.0,0.4322
1208.0,0.42
1209.0,0.4272
1210.0,0.4409
1211.0,0.427
1212.0,0.4289
1213.0,0.4594
1214.0,0.4354
1215.0,0.4292
1216.0,0.4577
1217.0,0.4492
1218.0,0.4544
1219.0,0.4503
1220.0,0.4544
1221.0,0.457
1222.0,0.4474
1223.0,0.4446
1224.0,0.4441
1225.0,0.4541
1226.0,0.4551
1227.0,0.4288
1228.0,0.4557
1229.0,0.4551
1230.0,0.449
1231.0,0.4564
1232.0,0.4539
1233.0,0.445
1234.0,0.4546
1235.0,0.4527
1236.0,0.4552
1237.0,0.4515
1238.0,0.4537
1239.0,0.4479
1240.0,0.4493
1241.0,0.4488
1242.0,0.4464
1243.0,0.4426
1244.0,0.4463
1245.0,0.4479
1246.0,0.4452
1247.0,0.444
1248.0,0.4445
1249.0,0.4451
1250.0,0.4429
1251.0,0.4383
1252.0,0.4371
1253.0,0.4359
1254.0,0.4333
1255.0,0.4373
1256.0,0.4293
1257.0,0.4278
1258.0,0.4324
1259.0,0.4234
1260.0,0.4248
1261.0,0.4096
1262.0,0.4018
1263.0,0.4029
1264.0,0.3827
1265.0,0.4001
1266.0,0.3914
1267.0,0.3938
1268.0,0.3805
1269.0,0.2877
1270.0,0.3941
1271.0,0.4071
1272.0,0.4075
1273.0,0.4041
1274.0,0.4042
1275.0,0.4084
1276.0,0.4107
1277.0,0.4115
1278.0,0.4158
1279.0,0.4124
1280.0,0.407
1281.0,0.3868
1282.0,0.3701
1283.0,0.3991
1284.0,0.4092
1285.0,0.4115
1286.0,0.4156
1287.0,0.4119
1288.0,0.4111
1289.0,0.4033
1290.0,0.4071
1291.0,0.4118
1292.0,0.3969
1293.0,0.4064
1294.0,0.4041
1295.0,0.4044
1296.0,0.3928
1297.0,0.3771
1298.0,0.3952
1299.0,0.4059
1300.0,0.3626
1301.0,0.3696
1302.0,0.3935
1303.0,0.3558
1304.0,0.3217
1305.0,0.3871
1306.0,0.388
1307.0,0.3225
1308.0,0.3537
1309.0,0.3861
1310.0,0.3171
1311.0,0.3431
1312.0,0.3367
1313.0,0.3329
1314.0,0.3049
1315.0,0.3048
1316.0,0.3405
1317.0,0.3247
1318.0,0.3454
1319.0,0.2923
1320.0,0.2784
1321.0,0.3164
1322.0,0.3224
1323.0,0.2617
1324.0,0.2867
1325.0,0.3365
1326.0,0.3009
1327.0,0.29
1328.0,0.2563
1329.0,0.2088
1330.0,0.2628
1331.0,0.1803
1332.0,0.1786
1333.0,0.2416
1334.0,0.1981
1335.0,0.2601
1336.0,0.2159
1337.0,0.1983
1338.0,0.2127
1339.0,0.2094
1340.0,0.1987
1341.0,0.2052
1342.0,0.2149
1343.0,0.1726
1344.0,0.1041
1345.0,0.1447
1346.0,0.09266
1347.0,0.09741
1348.0,0.01249
1349.0,0.03609
1350.0,0.0323
1351.0,0.01415
1352.0,0.006603
1353.0,0.0007182
1354.0,0.00161
1355.0,5.317e-05
1356.0,0.0003789
1357.0,0.0005569
1358.0,5.957e-05
1359.0,1.995e-05
1360.0,3.872e-05
1361.0,3.928e-07
1362.0,3.201e-09
1363.0,6.072e-05
1364.0,3.049e-05
1365.0,3.288e-09
1366.0,0.0002003
1367.0,7.918e-05
1368.0,2.355e-10
1369.0,1.26e-05
1370.0,9.3e-06
1371.0,9.672e-07
1372.0,4.488e-05
1373.0,0.0004276
1374.0,0.001225
1375.0,0.002081
1376.0,0.001422
1377.0,0.0007419
1378.0,0.005275
1379.0,0.0003287
1380.0,0.0006
1381.0,2.361e-05
1382.0,4.51e-05
1383.0,1.156e-06
1384.0,1.638e-05
1385.0,2.81e-05
1386.0,5.201e-05
1387.0,0.001535
1388.0,3.914e-05
1389.0,0.003275
1390.0,0.002743
1391.0,0.002131
1392.0,0.0001831
1393.0,0.0007189
1394.0,0.0007306
1395.0,1.113e-05
1396.0,4.312e-07
1397.0,0.0003529
1398.0,0.006023
1399.0,0.003915
1400.0,3.156e-07
1401.0,6.295e-07
1402.0,0.006129
1403.0,0.008428
1404.0,0.002722
1405.0,7.753e-06
1406.0,0.008121
1407.0,0.0007344
1408.0,0.006539
1409.0,0.003079
1410.0,0.002178
1411.0,0.007313
1412.0,0.008389
1413.0,0.0484
1414.0,0.001671
1415.0,0.0009638
1416.0,0.06156
1417.0,0.02665
1418.0,0.02961
1419.0,0.005132
1420.0,0.01859
1421.0,0.02148
1422.0,0.07724
1423.0,0.01757
1424.0,0.03087
1425.0,0.04705
1426.0,0.04758
1427.0,0.07315
1428.0,0.01222
1429.0,0.06041
1430.0,0.08927
1431.0,0.09459
1432.0,0.009945
1433.0,0.06556
1434.0,0.03619
1435.0,0.04529
1436.0,0.07186
1437.0,0.05578
1438.0,0.02805
1439.0,0.09075
1440.0,0.06948
1441.0,0.05973
1442.0,0.0637
1443.0,0.0699
1444.0,0.09375
1445.0,0.08072
1446.0,0.03873
1447.0,0.06175
1448.0,0.1499
1449.0,0.1382
1450.0,0.04585
1451.0,0.02099
1452.0,0.09041
1453.0,0.1136
1454.0,0.1695
1455.0,0.08973
1456.0,0.1246
1457.0,0.1511
1458.0,0.1639
1459.0,0.1958
1460.0,0.1105
1461.0,0.121
1462.0,0.1651
1463.0,0.06315
1464.0,0.1838
1465.0,0.1133
1466.0,0.09437
1467.0,0.05812
1468.0,0.1069
1469.0,0.1264
1470.0,0.07532
1471.0,0.03089
