interpolation:linear
wavelength,value
280.0,1.112e-18
280.5,1.707e-17
281.0,7.055e-17
281.5,1.077e-15
282.0,5.555e-15
282.5,1.59e-14
283.0,5.084e-14
283.5,8.164e-14
284.0,9.805e-13
284.5,2.387e-12
285.0,3.837e-12
285.5,1.891e-11
286.0,7.411e-11
286.5,2.936e-10
287.0,7.515e-10
287.5,2.406e-09
288.0,6.89e-09
288.5,2.15e-08
289.0,5.613e-08
289.5,1.586e-07
290.0,4.107e-07
290.5,7.859e-07
291.0,1.536e-06
291.5,3.828e-06
292.0,7.739e-06
292.5,1.025e-05
293.0,2.018e-05
293.5,4.304e-05
294.0,6.214e-05
294.5,9.78e-05
295.0,0.0001494
295.5,0.0003034
296.0,0.0004841
296.5,0.0005625
297.0,0.0006556
297.5,0.001412
298.0,0.001855
298.5,0.001625
299.0,0.003138
299.5,0.004146
300.0,0.004042
300.5,0.005174
301.0,0.007709
301.5,0.01038
302.0,0.008195
302.5,0.01448
303.0,0.0229
303.5,0.02672
304.0,0.02397
304.5,0.03154
305.0,0.04021
305.5,0.04145
306.0,0.03863
306.5,0.0451
307.0,0.05794
307.5,0.06736
308.0,0.06983
308.5,0.07749
309.0,0.0676
309.5,0.07128
310.0,0.06904
310.5,0.11
311.0,0.1339
311.5,0.1278
312.0,0.119
312.5,0.1382
313.0,0.1465
313.5,0.1463
314.0,0.1727
314.5,0.1418
315.0,0.1842
315.5,0.1607
316.0,0.1319
316.5,0.1795
317.0,0.2238
317.5,0.2374
318.0,0.1787
318.5,0.2066
319.0,0.2369
319.5,0.2055
320.0,0.2513
320.5,0.2925
321.0,0.2442
321.5,0.2332
322.0,0.2679
322.5,0.2327
323.0,0.2217
323.5,0.2523
324.0,0.2926
324.5,0.3049
325.0,0.2797
325.5,0.3472
326.0,0.4054
326.5,0.3954
327.0,0.3993
327.5,0.392
328.0,0.3641
328.5,0.3658
329.0,0.4235
329.5,0.4769
330.0,0.4865
330.5,0.4012
331.0,0.4137
331.5,0.4128
332.0,0.434
332.5,0.4249
333.0,0.428
333.5,0.3968
334.0,0.4089
334.5,0.4614
335.0,0.4287
335.5,0.4862
336.0,0.337
336.5,0.4112
337.0,0.3415
337.5,0.4273
338.0,0.41
338.5,0.4623
339.0,0.4608
339.5,0.4425
340.0,0.5339
340.5,0.4814
341.0,0.4612
341.5,0.4277
342.0,0.5131
342.5,0.4817
343.0,0.5288
343.5,0.4976
344.0,0.3742
344.5,0.3701
345.0,0.4955
345.5,0.5083
346.0,0.4335
346.5,0.4923
347.0,0.5279
347.5,0.4271
348.0,0.4896
348.5,0.4913
349.0,0.4568
349.5,0.4528
350.0,0.5611
350.5,0.5929
351.0,0.53
351.5,0.5137
352.0,0.5543
352.5,0.4341
353.0,0.5481
353.5,0.5875
354.0,0.6113
354.5,0.6213
355.0,0.6201
355.5,0.561
356.0,0.5881
356.5,0.5031
357.0,0.4166
357.5,0.511
358.0,0.4058
358.5,0.3474
359.0,0.4868
359.5,0.6212
360.0,0.6598
360.5,0.5284
361.0,0.4824
361.5,0.5559
362.0,0.4811
362.5,0.6664
363.0,0.599
363.5,0.5523
364.0,0.6763
364.5,0.5789
365.0,0.5905
365.5,0.7421
366.0,0.7871
366.5,0.7404
367.0,0.7221
367.5,0.7505
368.0,0.6576
368.5,0.6643
369.0,0.7184
369.5,0.7667
370.0,0.8184
370.5,0.636
371.0,0.6804
371.5,0.8525
372.0,0.5666
372.5,0.6803
373.0,0.6927
373.5,0.4512
374.0,0.6564
374.5,0.5442
375.0,0.5298
375.5,0.7921
376.0,0.6576
376.5,0.6825
377.0,0.7233
377.5,0.8472
378.0,0.9198
378.5,0.8707
379.0,0.7198
379.5,0.6587
380.0,0.6859
380.5,0.8316
381.0,0.8341
381.5,0.6618
382.0,0.5883
382.5,0.5019
383.0,0.4651
383.5,0.4484
384.0,0.4952
384.5,0.7291
385.0,0.7238
385.5,0.6747
386.0,0.5785
386.5,0.7606
387.0,0.6328
387.5,0.7116
388.0,0.6578
388.5,0.6508
389.0,0.7034
389.5,0.8528
390.0,0.8568
390.5,0.7893
391.0,0.9301
391.5,0.9498
392.0,0.8009
392.5,0.7176
393.0,0.3997
393.5,0.2907
394.0,0.5922
394.5,0.7536
395.0,0.9205
395.5,0.9362
396.0,0.8125
396.5,0.4753
397.0,0.357
397.5,0.7268
398.0,1.019
398.5,1.054
399.0,1.142
399.5,1.14
400.0,1.185
401.0,1.219
402.0,1.287
403.0,1.225
404.0,1.208
405.0,1.21
406.0,1.192
407.0,1.174
408.0,1.222
409.0,1.31
410.0,1.146
411.0,1.243
412.0,1.336
413.0,1.305
414.0,1.323
415.0,1.328
416.0,1.352
417.0,1.321
418.0,1.298
419.0,1.317
420.0,1.313
421.0,1.376
422.0,1.309
423.0,1.28
424.0,1.356
425.0,1.355
426.0,1.321
427.0,1.298
428.0,1.266
429.0,1.199
430.0,1.051
431.0,1.043
432.0,1.348
433.0,1.357
434.0,1.262
435.0,1.32
436.0,1.487
437.0,1.468
438.0,1.337
439.0,1.386
440.0,1.431
441.0,1.484
442.0,1.593
443.0,1.555
444.0,1.589
445.0,1.557
446.0,1.486
447.0,1.607
448.0,1.636
449.0,1.642
450.0,1.689
451.0,1.753
452.0,1.69
453.0,1.591
454.0,1.661
455.0,1.673
456.0,1.714
457.0,1.745
458.0,1.688
459.0,1.68
460.0,1.687
461.0,1.727
462.0,1.741
463.0,1.731
464.0,1.702
465.0,1.681
466.0,1.697
467.0,1.669
468.0,1.69
469.0,1.701
470.0,1.648
471.0,1.647
472.0,1.737
473.0,1.717
474.0,1.723
475.0,1.741
476.0,1.692
477.0,1.7
478.0,1.748
479.0,1.737
480.0,1.741
481.0,1.773
482.0,1.781
483.0,1.759
484.0,1.724
485.0,1.643
486.0,1.436
487.0,1.505
488.0,1.653
489.0,1.66
490.0,1.747
491.0,1.717
492.0,1.622
493.0,1.677
494.0,1.694
495.0,1.71
496.0,1.722
497.0,1.75
498.0,1.669
499.0,1.692
500.0,1.645
501.0,1.617
502.0,1.598
503.0,1.667
504.0,1.634
505.0,1.686
506.0,1.742
507.0,1.659
508.0,1.606
509.0,1.65
510.0,1.641
511.0,1.684
512.0,1.703
513.0,1.613
514.0,1.602
515.0,1.587
516.0,1.584
517.0,1.408
518.0,1.481
519.0,1.555
520.0,1.612
521.0,1.629
522.0,1.632
523.0,1.604
524.0,1.663
525.0,1.686
526.0,1.612
527.0,1.521
528.0,1.611
529.0,1.7
530.0,1.676
531.0,1.703
532.0,1.645
533.0,1.598
534.0,1.645
535.0,1.681
536.0,1.697
537.0,1.63
538.0,1.659
539.0,1.646
540.0,1.579
541.0,1.593
542.0,1.645
543.0,1.626
544.0,1.657
545.0,1.652
546.0,1.662
547.0,1.66
548.0,1.64
549.0,1.645
550.0,1.666
551.0,1.646
552.0,1.658
553.0,1.629
554.0,1.669
555.0,1.674
556.0,1.653
557.0,1.603
558.0,1.593
559.0,1.565
560.0,1.586
561.0,1.608
562.0,1.598
563.0,1.644
564.0,1.601
565.0,1.589
566.0,1.568
567.0,1.6
568.0,1.59
569.0,1.56
570.0,1.559
571.0,1.548
572.0,1.591
573.0,1.61
574.0,1.606
575.0,1.579
576.0,1.565
577.0,1.582
578.0,1.556
579.0,1.56
580.0,1.584
581.0,1.589
582.0,1.616
583.0,1.618
584.0,1.63
585.0,1.59
586.0,1.558
587.0,1.595
588.0,1.567
589.0,1.408
590.0,1.471
591.0,1.546
592.0,1.533
593.0,1.548
594.0,1.541
595.0,1.51
596.0,1.555
597.0,1.542
598.0,1.534
599.0,1.533
600.0,1.532
601.0,1.517
602.0,1.507
603.0,1.531
604.0,1.556
605.0,1.547
606.0,1.54
607.0,1.554
608.0,1.536
609.0,1.538
610.0,1.525
611.0,1.533
612.0,1.528
613.0,1.509
614.0,1.487
615.0,1.519
616.0,1.468
617.0,1.465
618.0,1.521
619.0,1.505
620.0,1.515
621.0,1.519
622.0,1.503
623.0,1.481
624.0,1.455
625.0,1.452
626.0,1.474
627.0,1.494
628.0,1.437
629.0,1.474
630.0,1.442
631.0,1.461
632.0,1.441
633.0,1.48
634.0,1.461
635.0,1.483
636.0,1.461
637.0,1.483
638.0,1.495
639.0,1.477
640.0,1.461
641.0,1.459
642.0,1.451
643.0,1.471
644.0,1.465
645.0,1.469
646.0,1.44
647.0,1.434
648.0,1.437
649.0,1.41
650.0,1.403
651.0,1.461
652.0,1.417
653.0,1.442
654.0,1.425
655.0,1.38
656.0,1.218
657.0,1.25
658.0,1.397
659.0,1.405
660.0,1.411
661.0,1.421
662.0,1.426
663.0,1.397
664.0,1.41
665.0,1.409
666.0,1.409
667.0,1.406
668.0,1.406
669.0,1.427
670.0,1.42
671.0,1.42
672.0,1.407
673.0,1.428
674.0,1.422
675.0,1.409
676.0,1.418
677.0,1.404
678.0,1.408
679.0,1.385
680.0,1.396
681.0,1.387
682.0,1.385
683.0,1.383
684.0,1.376
685.0,1.387
686.0,1.38
687.0,1.098
688.0,1.197
689.0,1.198
690.0,1.228
691.0,1.26
692.0,1.281
693.0,1.274
694.0,1.265
695.0,1.296
696.0,1.299
697.0,1.35
698.0,1.33
699.0,1.316
700.0,1.301
701.0,1.293
702.0,1.295
703.0,1.298
704.0,1.329
705.0,1.331
706.0,1.326
707.0,1.326
708.0,1.329
709.0,1.325
710.0,1.328
711.0,1.324
712.0,1.317
713.0,1.307
714.0,1.312
715.0,1.277
716.0,1.28
717.0,1.177
718.0,1.097
719.0,1.014
720.0,1.066
721.0,1.132
722.0,1.247
723.0,1.187
724.0,1.098
725.0,1.09
726.0,1.134
727.0,1.136
728.0,1.09
729.0,1.106
730.0,1.167
731.0,1.127
732.0,1.179
733.0,1.223
734.0,1.245
735.0,1.223
736.0,1.221
737.0,1.227
738.0,1.231
739.0,1.207
740.0,1.233
741.0,1.219
742.0,1.217
743.0,1.247
744.0,1.242
745.0,1.241
746.0,1.247
747.0,1.25
748.0,1.247
749.0,1.233
750.0,1.232
751.0,1.22
752.0,1.225
753.0,1.231
754.0,1.234
755.0,1.227
756.0,1.227
757.0,1.229
758.0,1.214
759.0,1.198
760.0,0.427
761.0,0.2938
762.0,0.8077
763.0,0.5452
764.0,0.6886
765.0,0.8088
766.0,0.8946
767.0,1.038
768.0,1.129
769.0,1.138
770.0,1.16
771.0,1.162
772.0,1.163
773.0,1.17
774.0,1.164
775.0,1.155
776.0,1.169
777.0,1.154
778.0,1.147
779.0,1.148
780.0,1.142
781.0,1.143
782.0,1.15
783.0,1.13
784.0,1.135
785.0,1.127
786.0,1.14
787.0,1.127
788.0,1.117
789.0,1.118
790.0,1.098
791.0,1.098
792.0,1.089
793.0,1.073
794.0,1.08
795.0,1.101
796.0,1.081
797.0,1.083
798.0,1.101
799.0,1.097
800.0,1.082
801.0,1.081
802.0,1.078
803.0,1.071
804.0,1.072
805.0,1.064
806.0,1.088
807.0,1.076
808.0,1.077
809.0,1.061
810.0,1.057
811.0,1.064
812.0,1.044
813.0,1.029
814.0,0.9413
815.0,0.9349
816.0,0.8769
817.0,0.8878
818.0,0.8626
819.0,0.9321
820.0,0.8909
821.0,0.9984
822.0,0.9773
823.0,0.7364
824.0,0.9627
825.0,0.9843
826.0,0.9596
827.0,0.9988
828.0,0.8855
829.0,0.9514
830.0,0.9433
831.0,0.9449
832.0,0.9232
833.0,0.9611
834.0,0.9399
835.0,1.006
836.0,0.9791
837.0,1.008
838.0,0.9831
839.0,0.9911
840.0,1.011
841.0,0.9999
842.0,0.9974
843.0,0.9922
844.0,0.9811
845.0,1.011
846.0,1.006
847.0,0.9854
848.0,0.9814
849.0,0.9537
850.0,0.9134
851.0,0.9694
852.0,0.9617
853.0,0.924
854.0,0.7993
855.0,0.8761
856.0,0.9584
857.0,0.9784
858.0,0.9718
859.0,0.9718
860.0,0.973
861.0,0.968
862.0,0.9829
863.0,1.006
864.0,0.9558
865.0,0.9473
866.0,0.8518
867.0,0.8889
868.0,0.9673
869.0,0.9472
870.0,0.9742
871.0,0.961
872.0,0.9576
873.0,0.9557
874.0,0.9444
875.0,0.9254
876.0,0.9352
877.0,0.9445
878.0,0.9552
879.0,0.9405
880.0,0.9203
881.0,0.9076
882.0,0.9276
883.0,0.9296
884.0,0.9258
885.0,0.9328
886.0,0.8927
887.0,0.8995
888.0,0.9147
889.0,0.9218
890.0,0.918
891.0,0.9145
892.0,0.8929
893.0,0.8719
894.0,0.8532
895.0,0.8219
896.0,0.7834
897.0,0.6965
898.0,0.7458
899.0,0.5978
900.0,0.7501
901.0,0.624
902.0,0.6939
903.0,0.7125
904.0,0.8473
905.0,0.8257
906.0,0.7791
907.0,0.6672
908.0,0.6762
909.0,0.715
910.0,0.6622
911.0,0.6888
912.0,0.7119
913.0,0.6734
914.0,0.6629
915.0,0.713
916.0,0.616
917.0,0.7452
918.0,0.6317
919.0,0.7523
920.0,0.7468
921.0,0.7713
922.0,0.711
923.0,0.7444
924.0,0.7287
925.0,0.7143
926.0,0.7211
927.0,0.7869
928.0,0.6362
929.0,0.5969
930.0,0.4971
931.0,0.4657
932.0,0.3632
933.0,0.3123
934.0,0.2075
935.0,0.3055
936.0,0.2131
937.0,0.2202
938.0,0.261
939.0,0.4514
940.0,0.5239
941.0,0.4221
942.0,0.4703
943.0,0.3312
944.0,0.3311
945.0,0.4311
946.0,0.2494
947.0,0.44
948.0,0.3298
949.0,0.5583
950.0,0.2057
951.0,0.545
952.0,0.3337
953.0,0.4043
954.0,0.467
955.0,0.4055
956.0,0.3849
957.0,0.3385
958.0,0.5015
959.0,0.4279
960.0,0.4776
961.0,0.5142
962.0,0.4903
963.0,0.5455
964.0,0.507
965.0,0.5407
966.0,0.5459
967.0,0.545
968.0,0.6679
969.0,0.7
970.0,0.6531
971.0,0.7202
972.0,0.6942
973.0,0.6315
974.0,0.6044
975.0,0.6162
976.0,0.5989
977.0,0.6542
978.0,0.6329
979.0,0.6535
980.0,0.6212
981.0,0.7148
982.0,0.693
983.0,0.6714
984.0,0.7263
985.0,0.69
986.0,0.733
987.0,0.7247
988.0,0.7237
989.0,0.7271
990.0,0.7185
991.0,0.7301
992.0,0.7337
993.0,0.7235
994.0,0.7328
995.0,0.731
996.0,0.7288
997.0,0.7294
998.0,0.7263
999.0,0.7234
1000.0,0.7199
1001.0,0.7272
1002.0,0.7134
1003.0,0.7148
1004.0,0.6989
1005.0,0.6711
1006.0,0.6985
1007.0,0.7127
1008.0,0.71
1009.0,0.7075
1010.0,0.7052
1011.0,0.709
1012.0,0.7041
1013.0,0.707
1014.0,0.702
1015.0,0.6976
1016.0,0.6946
1017.0,0.6966
1018.0,0.6933
1019.0,0.6808
1020.0,0.69
1021.0,0.6887
1022.0,0.6842
1023.0,0.6917
1024.0,0.6852
1025.0,0.6904
1026.0,0.6881
1027.0,0.6864
1028.0,0.6852
1029.0,0.6773
1030.0,0.6811
1031.0,0.6787
1032.0,0.6765
1033.0,0.6664
1034.0,0.6663
1035.0,0.6684
1036.0,0.6722
1037.0,0.6612
1038.0,0.6642
1039.0,0.664
1040.0,0.6614
1041.0,0.6642
1042.0,0.6596
1043.0,0.6577
1044.0,0.6601
1045.0,0.6513
1046.0,0.6443
1047.0,0.6503
1048.0,0.654
1049.0,0.6519
1050.0,0.6491
1051.0,0.6485
1052.0,0.646
1053.0,0.6412
1054.0,0.6429
1055.0,0.6436
1056.0,0.6418
1057.0,0.6401
1058.0,0.6247
1059.0,0.6258
1060.0,0.625
1061.0,0.6245
1062.0,0.6282
1063.0,0.6223
1064.0,0.6295
1065.0,0.6259
1066.0,0.6128
1067.0,0.6211
1068.0,0.6081
1069.0,0.5889
1070.0,0.6095
1071.0,0.6169
1072.0,0.6114
1073.0,0.6023
1074.0,0.6154
1075.0,0.5913
1076.0,0.6154
1077.0,0.6082
1078.0,0.598
1079.0,0.6045
1080.0,0.5991
1081.0,0.5828
1082.0,0.5866
1083.0,0.587
1084.0,0.5836
1085.0,0.5997
1086.0,0.5588
1087.0,0.5678
1088.0,0.5877
1089.0,0.576
1090.0,0.5683
1091.0,0.5877
1092.0,0.5847
1093.0,0.5163
1094.0,0.5374
1095.0,0.5342
1096.0,0.5179
1097.0,0.5708
1098.0,0.5116
1099.0,0.5304
1100.0,0.5032
1101.0,0.5064
1102.0,0.4892
1103.0,0.4887
1104.0,0.4888
1105.0,0.5204
1106.0,0.4345
1107.0,0.5014
1108.0,0.4473
1109.0,0.4441
1110.0,0.4994
1111.0,0.37
1112.0,0.4389
1113.0,0.3131
1114.0,0.3448
1115.0,0.287
1116.0,0.2511
1117.0,0.1194
1118.0,0.2637
1119.0,0.1514
1120.0,0.1898
1121.0,0.2381
1122.0,0.1185
1123.0,0.1711
1124.0,0.1447
1125.0,0.1839
1126.0,0.08269
1127.0,0.2057
1128.0,0.1428
1129.0,0.1478
1130.0,0.1081
1131.0,0.3452
1132.0,0.2795
1133.0,0.2003
1134.0,0.06857
1135.0,0.02526
1136.0,0.1755
1137.0,0.3444
1138.0,0.2495
1139.0,0.3308
1140.0,0.2922
1141.0,0.2371
1142.0,0.2634
1143.0,0.3567
1144.0,0.1478
1145.0,0.1923
1146.0,0.2076
1147.0,0.0933
1148.0,0.3091
1149.0,0.2603
1150.0,0.1591
1151.0,0.2479
1152.0,0.2896
1153.0,0.2711
1154.0,0.1922
1155.0,0.3456
1156.0,0.319
1157.0,0.3479
1158.0,0.3431
1159.0,0.3594
1160.0,0.3212
1161.0,0.3722
1162.0,0.3756
1163.0,0.4697
1164.0,0.417
1165.0,0.4054
1166.0,0.395
1167.0,0.423
1168.0,0.4298
1169.0,0.4349
1170.0,0.4625
1171.0,0.453
1172.0,0.4557
1173.0,0.4615
1174.0,0.36
1175.0,0.4471
1176.0,0.4782
1177.0,0.4673
1178.0,0.3743
1179.0,0.4814
1180.0,0.4448
1181.0,0.457
1182.0,0.3405
1183.0,0.4465
1184.0,0.4268
1185.0,0.4185
1186.0,0.4731
1187.0,0.4576
1188.0,0.3475
1189.0,0.4283
1190.0,0.4627
1191.0,0.4504
1192.0,0.4677
1193.0,0.4526
1194.0,0.4634
1195.0,0.4461
1196.0,0.435
1197.0,0.4589
1198.0,0.427
1199.0,0.3821
1200.0,0.4475
1201.0,0.4379
1202.0,0.4322
1203.0,0.4281
1204.0,0.3861
1205.0,0.4367
1206.0,0.4714
1207.0,0.4326
1208.0,0.4203
1209.0,0.4275
1210.0,0.4411
1211.0,0.4274
1212.0,0.4294
1213.0,0.4596
1214.0,0.4358
1215.0,0.4296
1216.0,0.4579
1217.0,0.4494
1218.0,0.4546
1219.0,0.4505
1220.0,0.4546
1221.0,0.4571
1222.0,0.4476
1223.0,0.4448
1224.0,0.4444
1225.0,0.4543
1226.0,0.4552
1227.0,0.429
1228.0,0.4557
1229.0,0.4552
1230.0,0.4492
1231.0,0.4564
1232.0,0.4539
1233.0,0.4451
1234.0,0.4546
1235.0,0.4527
1236.0,0.4552
1237.0,0.4515
1238.0,0.4537
1239.0,0.4479
1240.0,0.4493
1241.0,0.4489
1242.0,0.4464
1243.0,0.4427
1244.0,0.4464
1245.0,0.4479
1246.0,0.4453
1247.0,0.444
1248.0,0.4446
1249.0,0.4452
1250.0,0.443
1251.0,0.4384
1252.0,0.4371
1253.0,0.436
1254.0,0.4334
1255.0,0.4373
1256.0,0.4294
1257.0,0.428
1258.0,0.4325
1259.0,0.4236
1260.0,0.425
1261.0,0.4099
1262.0,0.4022
1263.0,0.4033
1264.0,0.3832
1265.0,0.4005
1266.0,0.3918
1267.0,0.3942
1268.0,0.3811
1269.0,0.289
1270.0,0.3945
1271.0,0.4074
1272.0,0.4077
1273.0,0.4044
1274.0,0.4045
1275.0,0.4086
1276.0,0.4109
1277.0,0.4117
1278.0,0.416
1279.0,0.4125
1280.0,0.4071
1281.0,0.3869
1282.0,0.3701
1283.0,0.3992
1284.0,0.4093
1285.0,0.4116
1286.0,0.4156
1287.0,0.412
1288.0,0.4112
1289.0,0.4035
1290.0,0.4072
1291.0,0.4119
1292.0,0.3972
1293.0,0.4065
1294.0,0.4042
1295.0,0.4045
1296.0,0.393
1297.0,0.3775
1298.0,0.3954
1299.0,0.406
1300.0,0.363
1301.0,0.37
1302.0,0.3937
1303.0,0.3562
1304.0,0.3223
1305.0,0.3873
1306.0,0.3882
1307.0,0.3231
1308.0,0.354
1309.0,0.3863
1310.0,0.3177
1311.0,0.3435
1312.0,0.3372
1313.0,0.3334
1314.0,0.3054
1315.0,0.3054
1316.0,0.341
1317.0,0.3252
1318.0,0.3457
1319.0,0.293
1320.0,0.2791
1321.0,0.317
1322.0,0.323
1323.0,0.2626
1324.0,0.2874
1325.0,0.3369
1326.0,0.3015
1327.0,0.2907
1328.0,0.257
1329.0,0.2097
1330.0,0.2637
1331.0,0.1814
1332.0,0.1795
1333.0,0.2427
1334.0,0.1989
1335.0,0.2609
1336.0,0.2167
1337.0,0.1993
1338.0,0.2136
1339.0,0.2103
1340.0,0.1995
1341.0,0.2062
1342.0,0.216
1343.0,0.1739
1344.0,0.105
1345.0,0.1458
1346.0,0.09376
1347.0,0.0986
1348.0,0.01281
1349.0,0.03684
1350.0,0.03288
1351.0,0.01456
1352.0,0.006852
1353.0,0.0007569
1354.0,0.001684
1355.0,5.707e-05
1356.0,0.0004001
1357.0,0.0005874
1358.0,6.387e-05
1359.0,2.173e-05
1360.0,4.176e-05
1361.0,4.408e-07
1362.0,3.674e-09
1363.0,6.544e-05
1364.0,3.306e-05
1365.0,3.836e-09
1366.0,0.0002148
1367.0,8.51e-05
1368.0,2.851e-10
1369.0,1.371e-05
1370.0,1.018e-05
1371.0,1.071e-06
1372.0,4.829e-05
1373.0,0.0004535
1374.0,0.001288
1375.0,0.002181
1376.0,0.001487
1377.0,0.000778
1378.0,0.005488
1379.0,0.0003453
1380.0,0.0006321
1381.0,2.513e-05
1382.0,4.86e-05
1383.0,1.262e-06
1384.0,1.784e-05
1385.0,3.011e-05
1386.0,5.626e-05
1387.0,0.001616
1388.0,4.16e-05
1389.0,0.003423
1390.0,0.002865
1391.0,0.002234
1392.0,0.0001934
1393.0,0.0007544
1394.0,0.0007743
1395.0,1.2e-05
1396.0,4.817e-07
1397.0,0.0003718
1398.0,0.006263
1399.0,0.004076
1400.0,3.556e-07
1401.0,7.007e-07
1402.0,0.006326
1403.0,0.008707
1404.0,0.002816
1405.0,8.405e-06
1406.0,0.008408
1407.0,0.0007634
1408.0,0.006771
1409.0,0.003205
1410.0,0.002267
1411.0,0.007554
1412.0,0.008644
1413.0,0.04928
1414.0,0.001739
1415.0,0.001007
1416.0,0.06244
1417.0,0.02723
1418.0,0.0302
1419.0,0.00525
1420.0,0.01897
1421.0,0.02199
1422.0,0.07824
1423.0,0.01788
1424.0,0.03136
1425.0,0.0478
1426.0,0.04825
1427.0,0.07389
1428.0,0.01254
1429.0,0.06114
1430.0,0.0901
1431.0,0.0954
1432.0,0.01022
1433.0,0.06625
1434.0,0.03664
1435.0,0.04604
1436.0,0.07277
1437.0,0.05652
1438.0,0.02852
1439.0,0.09174
1440.0,0.07028
1441.0,0.06056
1442.0,0.0645
1443.0,0.0706
1444.0,0.09467
1445.0,0.08164
1446.0,0.03921
1447.0,0.06257
1448.0,0.1508
1449.0,0.1392
1450.0,0.04648
1451.0,0.02134
1452.0,0.09125
1453.0,0.1145
1454.0,0.1704
1455.0,0.09044
1456.0,0.1257
1457.0,0.1521
1458.0,0.1647
1459.0,0.1967
1460.0,0.1112
1461.0,0.1219
1462.0,0.1661
1463.0,0.06379
1464.0,0.1847
1465.0,0.1138
1466.0,0.09524
1467.0,0.05886
1468.0,0.1078
1469.0,0.1274
1470.0,0.07613
1471.0,0.03134
1472.0,0.07339
