interpolation:linear
wavelength,value
280.0,1.896e-19
280.5,3.257e-18
281.0,1.403e-17
281.5,2.387e-16
282.0,1.316e-15
282.5,3.938e-15
283.0,1.322e-14
283.5,2.175e-14
284.0,2.927e-13
284.5,7.504e-13
285.0,1.276e-12
285.5,6.715e-12
286.0,2.702e-11
286.5,1.131e-10
287.0,3.014e-10
287.5,1.017e-09
288.0,3.115e-09
288.5,1.007e-08
289.0,2.727e-08
289.5,8.023e-08
290.0,2.147e-07
290.5,4.223e-07
291.0,8.533e-07
291.5,2.218e-06
292.0,4.641e-06
292.5,6.269e-06
293.0,1.265e-05
293.5,2.79e-05
294.0,4.122e-05
294.5,6.6e-05
295.0,0.000103
295.5,0.000215
296.0,0.0003492
296.5,0.0004129
297.0,0.000488
297.5,0.001071
298.0,0.001429
298.5,0.001267
299.0,0.002474
299.5,0.003326
300.0,0.003271
300.5,0.004225
301.0,0.006376
301.5,0.008678
302.0,0.006884
302.5,0.01228
303.0,0.01962
303.5,0.02304
304.0,0.02073
304.5,0.02748
305.0,0.03535
305.5,0.03665
306.0,0.03424
306.5,0.04012
307.0,0.0519
307.5,0.06073
308.0,0.06304
308.5,0.07017
309.0,0.06137
309.5,0.06514
310.0,0.06328
310.5,0.101
311.0,0.1233
311.5,0.1178
312.0,0.1102
312.5,0.1284
313.0,0.1363
313.5,0.136
314.0,0.1611
314.5,0.1328
315.0,0.1727
315.5,0.1505
316.0,0.1239
316.5,0.1691
317.0,0.2109
317.5,0.2236
318.0,0.1686
318.5,0.1956
319.0,0.2247
319.5,0.1945
320.0,0.2378
320.5,0.2777
321.0,0.2325
321.5,0.2221
322.0,0.2546
322.5,0.2213
323.0,0.2112
323.5,0.2411
324.0,0.2798
324.5,0.2913
325.0,0.2668
325.5,0.3317
326.0,0.3881
326.5,0.379
327.0,0.3827
327.5,0.3756
328.0,0.3484
328.5,0.3508
329.0,0.4068
329.5,0.4583
330.0,0.4675
330.5,0.3853
331.0,0.3973
331.5,0.3968
332.0,0.4177
332.5,0.4091
333.0,0.4121
333.5,0.3819
334.0,0.3936
334.5,0.4446
335.0,0.4133
335.5,0.4689
336.0,0.3251
336.5,0.3966
337.0,0.3294
337.5,0.4122
338.0,0.3958
338.5,0.4465
339.0,0.4451
339.5,0.4275
340.0,0.5158
340.5,0.4652
341.0,0.4459
341.5,0.4136
342.0,0.4963
342.5,0.4661
343.0,0.5118
343.5,0.4816
344.0,0.3622
344.5,0.3583
345.0,0.4799
345.5,0.4924
346.0,0.4201
346.5,0.4771
347.0,0.5117
347.5,0.4141
348.0,0.4748
348.5,0.4765
349.0,0.4431
349.5,0.4393
350.0,0.5445
350.5,0.5755
351.0,0.5145
351.5,0.4988
352.0,0.5383
352.5,0.4216
353.0,0.5325
353.5,0.5708
354.0,0.5941
354.5,0.6038
355.0,0.6028
355.5,0.5455
356.0,0.5719
356.5,0.4893
357.0,0.4052
357.5,0.4972
358.0,0.3948
358.5,0.3381
359.0,0.4738
359.5,0.6047
360.0,0.6423
360.5,0.5145
361.0,0.4698
361.5,0.5415
362.0,0.4687
362.5,0.6493
363.0,0.5838
363.5,0.5384
364.0,0.6593
364.5,0.5644
365.0,0.5758
365.5,0.7238
366.0,0.7678
366.5,0.7223
367.0,0.7046
367.5,0.7324
368.0,0.6418
368.5,0.6485
369.0,0.7013
369.5,0.7486
370.0,0.7992
370.5,0.6211
371.0,0.6646
371.5,0.8328
372.0,0.5536
372.5,0.6647
373.0,0.677
373.5,0.441
374.0,0.6417
374.5,0.5321
375.0,0.518
375.5,0.7746
376.0,0.6431
376.5,0.6675
377.0,0.7075
377.5,0.8288
378.0,0.8999
378.5,0.852
379.0,0.7044
379.5,0.6447
380.0,0.6713
380.5,0.814
381.0,0.8166
381.5,0.648
382.0,0.5761
382.5,0.4916
383.0,0.4556
383.5,0.4393
384.0,0.4852
384.5,0.7145
385.0,0.7094
385.5,0.6613
386.0,0.5671
386.5,0.7456
387.0,0.6204
387.5,0.6978
388.0,0.6451
388.5,0.6383
389.0,0.6899
389.5,0.8366
390.0,0.8405
390.5,0.7745
391.0,0.9126
391.5,0.9321
392.0,0.786
392.5,0.7044
393.0,0.3923
393.5,0.2854
394.0,0.5815
394.5,0.74
395.0,0.904
395.5,0.9195
396.0,0.7981
396.5,0.4669
397.0,0.3507
397.5,0.7141
398.0,1.001
398.5,1.036
399.0,1.123
399.5,1.12
400.0,1.165
401.0,1.198
402.0,1.266
403.0,1.204
404.0,1.188
405.0,1.19
406.0,1.172
407.0,1.155
408.0,1.203
409.0,1.289
410.0,1.128
411.0,1.224
412.0,1.316
413.0,1.286
414.0,1.303
415.0,1.308
416.0,1.332
417.0,1.302
418.0,1.28
419.0,1.298
420.0,1.295
421.0,1.356
422.0,1.291
423.0,1.263
424.0,1.338
425.0,1.337
426.0,1.303
427.0,1.281
428.0,1.249
429.0,1.184
430.0,1.037
431.0,1.03
432.0,1.331
433.0,1.34
434.0,1.246
435.0,1.304
436.0,1.469
437.0,1.45
438.0,1.322
439.0,1.37
440.0,1.415
441.0,1.467
442.0,1.575
443.0,1.537
444.0,1.571
445.0,1.54
446.0,1.47
447.0,1.59
448.0,1.618
449.0,1.624
450.0,1.671
451.0,1.734
452.0,1.673
453.0,1.574
454.0,1.644
455.0,1.656
456.0,1.697
457.0,1.727
458.0,1.671
459.0,1.664
460.0,1.671
461.0,1.711
462.0,1.724
463.0,1.715
464.0,1.686
465.0,1.665
466.0,1.682
467.0,1.653
468.0,1.675
469.0,1.685
470.0,1.633
471.0,1.632
472.0,1.722
473.0,1.702
474.0,1.707
475.0,1.725
476.0,1.677
477.0,1.685
478.0,1.732
479.0,1.722
480.0,1.726
481.0,1.758
482.0,1.767
483.0,1.745
484.0,1.71
485.0,1.629
486.0,1.425
487.0,1.493
488.0,1.64
489.0,1.647
490.0,1.733
491.0,1.704
492.0,1.61
493.0,1.664
494.0,1.682
495.0,1.697
496.0,1.709
497.0,1.736
498.0,1.656
499.0,1.68
500.0,1.633
501.0,1.605
502.0,1.586
503.0,1.654
504.0,1.621
505.0,1.674
506.0,1.729
507.0,1.647
508.0,1.594
509.0,1.638
510.0,1.629
511.0,1.673
512.0,1.691
513.0,1.602
514.0,1.591
515.0,1.576
516.0,1.573
517.0,1.398
518.0,1.471
519.0,1.544
520.0,1.602
521.0,1.618
522.0,1.621
523.0,1.593
524.0,1.652
525.0,1.674
526.0,1.601
527.0,1.511
528.0,1.6
529.0,1.688
530.0,1.665
531.0,1.692
532.0,1.635
533.0,1.587
534.0,1.635
535.0,1.67
536.0,1.686
537.0,1.62
538.0,1.649
539.0,1.636
540.0,1.569
541.0,1.583
542.0,1.634
543.0,1.616
544.0,1.646
545.0,1.642
546.0,1.651
547.0,1.65
548.0,1.63
549.0,1.635
550.0,1.655
551.0,1.636
552.0,1.648
553.0,1.619
554.0,1.659
555.0,1.664
556.0,1.643
557.0,1.593
558.0,1.583
559.0,1.555
560.0,1.576
561.0,1.598
562.0,1.589
563.0,1.634
564.0,1.592
565.0,1.579
566.0,1.558
567.0,1.59
568.0,1.58
569.0,1.55
570.0,1.549
571.0,1.538
572.0,1.581
573.0,1.599
574.0,1.596
575.0,1.568
576.0,1.554
577.0,1.571
578.0,1.546
579.0,1.549
580.0,1.574
581.0,1.579
582.0,1.607
583.0,1.608
584.0,1.621
585.0,1.581
586.0,1.549
587.0,1.586
588.0,1.557
589.0,1.398
590.0,1.461
591.0,1.536
592.0,1.523
593.0,1.538
594.0,1.531
595.0,1.5
596.0,1.545
597.0,1.532
598.0,1.524
599.0,1.524
600.0,1.523
601.0,1.508
602.0,1.498
603.0,1.522
604.0,1.547
605.0,1.539
606.0,1.532
607.0,1.546
608.0,1.528
609.0,1.53
610.0,1.518
611.0,1.525
612.0,1.52
613.0,1.501
614.0,1.48
615.0,1.511
616.0,1.461
617.0,1.458
618.0,1.514
619.0,1.498
620.0,1.508
621.0,1.511
622.0,1.495
623.0,1.474
624.0,1.448
625.0,1.445
626.0,1.467
627.0,1.487
628.0,1.427
629.0,1.466
630.0,1.434
631.0,1.454
632.0,1.434
633.0,1.473
634.0,1.455
635.0,1.476
636.0,1.454
637.0,1.477
638.0,1.489
639.0,1.471
640.0,1.455
641.0,1.454
642.0,1.446
643.0,1.466
644.0,1.46
645.0,1.463
646.0,1.434
647.0,1.427
648.0,1.431
649.0,1.404
650.0,1.398
651.0,1.456
652.0,1.411
653.0,1.437
654.0,1.42
655.0,1.375
656.0,1.213
657.0,1.246
658.0,1.392
659.0,1.401
660.0,1.406
661.0,1.416
662.0,1.422
663.0,1.393
664.0,1.406
665.0,1.405
666.0,1.405
667.0,1.402
668.0,1.402
669.0,1.423
670.0,1.416
671.0,1.416
672.0,1.403
673.0,1.424
674.0,1.418
675.0,1.405
676.0,1.415
677.0,1.4
678.0,1.404
679.0,1.381
680.0,1.392
681.0,1.383
682.0,1.382
683.0,1.379
684.0,1.373
685.0,1.384
686.0,1.377
687.0,1.084
688.0,1.186
689.0,1.188
690.0,1.219
691.0,1.253
692.0,1.275
693.0,1.268
694.0,1.259
695.0,1.291
696.0,1.294
697.0,1.346
698.0,1.326
699.0,1.311
700.0,1.296
701.0,1.288
702.0,1.291
703.0,1.294
704.0,1.325
705.0,1.327
706.0,1.322
707.0,1.322
708.0,1.325
709.0,1.322
710.0,1.325
711.0,1.321
712.0,1.314
713.0,1.304
714.0,1.308
715.0,1.273
716.0,1.276
717.0,1.17
718.0,1.088
719.0,1.006
720.0,1.056
721.0,1.126
722.0,1.243
723.0,1.181
724.0,1.091
725.0,1.082
726.0,1.126
727.0,1.129
728.0,1.082
729.0,1.1
730.0,1.161
731.0,1.12
732.0,1.173
733.0,1.219
734.0,1.242
735.0,1.219
736.0,1.217
737.0,1.223
738.0,1.228
739.0,1.204
740.0,1.231
741.0,1.216
742.0,1.215
743.0,1.245
744.0,1.24
745.0,1.239
746.0,1.245
747.0,1.248
748.0,1.245
749.0,1.231
750.0,1.23
751.0,1.218
752.0,1.223
753.0,1.229
754.0,1.232
755.0,1.225
756.0,1.225
757.0,1.227
758.0,1.212
759.0,1.196
760.0,0.4066
761.0,0.275
762.0,0.7925
763.0,0.525
764.0,0.6703
765.0,0.7935
766.0,0.8834
767.0,1.03
768.0,1.125
769.0,1.135
770.0,1.158
771.0,1.161
772.0,1.161
773.0,1.169
774.0,1.163
775.0,1.154
776.0,1.168
777.0,1.152
778.0,1.146
779.0,1.147
780.0,1.14
781.0,1.141
782.0,1.149
783.0,1.128
784.0,1.134
785.0,1.126
786.0,1.139
787.0,1.126
788.0,1.115
789.0,1.115
790.0,1.096
791.0,1.096
792.0,1.087
793.0,1.07
794.0,1.079
795.0,1.1
796.0,1.079
797.0,1.08
798.0,1.1
799.0,1.095
800.0,1.08
801.0,1.079
802.0,1.076
803.0,1.069
804.0,1.069
805.0,1.062
806.0,1.086
807.0,1.075
808.0,1.075
809.0,1.06
810.0,1.054
811.0,1.061
812.0,1.041
813.0,1.026
814.0,0.9355
815.0,0.9291
816.0,0.8709
817.0,0.8821
818.0,0.8565
819.0,0.9279
820.0,0.8859
821.0,0.9958
822.0,0.9742
823.0,0.7285
824.0,0.9588
825.0,0.9814
826.0,0.9559
827.0,0.996
828.0,0.8802
829.0,0.9479
830.0,0.9395
831.0,0.9413
832.0,0.9192
833.0,0.9585
834.0,0.9365
835.0,1.004
836.0,0.9763
837.0,1.006
838.0,0.981
839.0,0.9895
840.0,1.009
841.0,0.9982
842.0,0.996
843.0,0.9911
844.0,0.9799
845.0,1.01
846.0,1.005
847.0,0.9845
848.0,0.9804
849.0,0.9527
850.0,0.9125
851.0,0.9683
852.0,0.9607
853.0,0.9231
854.0,0.7985
855.0,0.8753
856.0,0.9575
857.0,0.9775
858.0,0.971
859.0,0.971
860.0,0.9722
861.0,0.9672
862.0,0.9821
863.0,1.005
864.0,0.9551
865.0,0.9466
866.0,0.8512
867.0,0.8883
868.0,0.9666
869.0,0.9465
870.0,0.9735
871.0,0.9603
872.0,0.9569
873.0,0.955
874.0,0.9437
875.0,0.9247
876.0,0.9345
877.0,0.9438
878.0,0.9545
879.0,0.9398
880.0,0.9197
881.0,0.9069
882.0,0.9268
883.0,0.9289
884.0,0.9251
885.0,0.9321
886.0,0.8918
887.0,0.8987
888.0,0.9138
889.0,0.9211
890.0,0.9171
891.0,0.9137
892.0,0.8918
893.0,0.8703
894.0,0.8508
895.0,0.8185
896.0,0.7793
897.0,0.691
898.0,0.741
899.0,0.5915
900.0,0.7463
901.0,0.6177
902.0,0.6898
903.0,0.7074
904.0,0.8449
905.0,0.8227
906.0,0.7758
907.0,0.6617
908.0,0.671
909.0,0.7108
910.0,0.6561
911.0,0.6836
912.0,0.7073
913.0,0.667
914.0,0.657
915.0,0.7074
916.0,0.6098
917.0,0.7408
918.0,0.6254
919.0,0.7482
920.0,0.7436
921.0,0.7685
922.0,0.7068
923.0,0.7418
924.0,0.7245
925.0,0.71
926.0,0.717
927.0,0.7839
928.0,0.6291
929.0,0.5891
930.0,0.4883
931.0,0.4579
932.0,0.355
933.0,0.3039
934.0,0.1991
935.0,0.2984
936.0,0.2063
937.0,0.2127
938.0,0.253
939.0,0.4439
940.0,0.5165
941.0,0.4141
942.0,0.4628
943.0,0.3242
944.0,0.3252
945.0,0.4231
946.0,0.2424
947.0,0.4314
948.0,0.3226
949.0,0.5499
950.0,0.198
951.0,0.5372
952.0,0.3254
953.0,0.3962
954.0,0.4599
955.0,0.3976
956.0,0.3776
957.0,0.3296
958.0,0.4959
959.0,0.4207
960.0,0.4698
961.0,0.5074
962.0,0.4835
963.0,0.5395
964.0,0.5007
965.0,0.5349
966.0,0.5397
967.0,0.5387
968.0,0.6649
969.0,0.6969
970.0,0.6492
971.0,0.7181
972.0,0.6917
973.0,0.6271
974.0,0.5997
975.0,0.6123
976.0,0.5941
977.0,0.651
978.0,0.6289
979.0,0.6502
980.0,0.6174
981.0,0.7129
982.0,0.6904
983.0,0.6684
984.0,0.7251
985.0,0.6875
986.0,0.7323
987.0,0.7236
988.0,0.7225
989.0,0.7267
990.0,0.7174
991.0,0.7296
992.0,0.7332
993.0,0.7226
994.0,0.7324
995.0,0.7307
996.0,0.7284
997.0,0.729
998.0,0.7259
999.0,0.723
1000.0,0.7194
1001.0,0.7268
1002.0,0.7126
1003.0,0.7144
1004.0,0.6984
1005.0,0.6708
1006.0,0.6981
1007.0,0.7123
1008.0,0.7095
1009.0,0.7069
1010.0,0.7046
1011.0,0.7086
1012.0,0.7036
1013.0,0.7066
1014.0,0.7017
1015.0,0.6973
1016.0,0.6943
1017.0,0.6963
1018.0,0.693
1019.0,0.6804
1020.0,0.6897
1021.0,0.6884
1022.0,0.6839
1023.0,0.6913
1024.0,0.6846
1025.0,0.6901
1026.0,0.6877
1027.0,0.686
1028.0,0.6848
1029.0,0.6769
1030.0,0.6808
1031.0,0.6784
1032.0,0.6762
1033.0,0.6661
1034.0,0.666
1035.0,0.6681
1036.0,0.6719
1037.0,0.6609
1038.0,0.6639
1039.0,0.6637
1040.0,0.661
1041.0,0.6639
1042.0,0.6593
1043.0,0.6573
1044.0,0.6598
1045.0,0.651
1046.0,0.6439
1047.0,0.6499
1048.0,0.6536
1049.0,0.6515
1050.0,0.6487
1051.0,0.648
1052.0,0.6456
1053.0,0.6407
1054.0,0.6424
1055.0,0.6431
1056.0,0.6412
1057.0,0.6395
1058.0,0.6241
1059.0,0.6252
1060.0,0.6244
1061.0,0.6239
1062.0,0.6275
1063.0,0.6216
1064.0,0.6288
1065.0,0.6251
1066.0,0.6122
1067.0,0.6203
1068.0,0.6074
1069.0,0.5882
1070.0,0.6088
1071.0,0.6163
1072.0,0.6107
1073.0,0.6016
1074.0,0.6149
1075.0,0.5903
1076.0,0.6148
1077.0,0.6074
1078.0,0.5971
1079.0,0.604
1080.0,0.5982
1081.0,0.5818
1082.0,0.5859
1083.0,0.5865
1084.0,0.5823
1085.0,0.5989
1086.0,0.5571
1087.0,0.5669
1088.0,0.5871
1089.0,0.5749
1090.0,0.5668
1091.0,0.5869
1092.0,0.584
1093.0,0.5141
1094.0,0.5366
1095.0,0.5323
1096.0,0.5155
1097.0,0.5702
1098.0,0.5092
1099.0,0.5281
1100.0,0.5001
1101.0,0.5036
1102.0,0.4861
1103.0,0.4852
1104.0,0.4854
1105.0,0.518
1106.0,0.4296
1107.0,0.4985
1108.0,0.4429
1109.0,0.4399
1110.0,0.4963
1111.0,0.3651
1112.0,0.435
1113.0,0.3074
1114.0,0.339
1115.0,0.2821
1116.0,0.2449
1117.0,0.1142
1118.0,0.2582
1119.0,0.1465
1120.0,0.1838
1121.0,0.2318
1122.0,0.1138
1123.0,0.1657
1124.0,0.1401
1125.0,0.1784
1126.0,0.07874
1127.0,0.1998
1128.0,0.1371
1129.0,0.1422
1130.0,0.103
1131.0,0.3386
1132.0,0.2734
1133.0,0.1941
1134.0,0.06487
1135.0,0.02387
1136.0,0.1694
1137.0,0.3376
1138.0,0.2437
1139.0,0.3263
1140.0,0.2869
1141.0,0.2316
1142.0,0.2581
1143.0,0.3509
1144.0,0.1433
1145.0,0.1864
1146.0,0.2012
1147.0,0.08878
1148.0,0.3041
1149.0,0.2549
1150.0,0.1541
1151.0,0.2422
1152.0,0.2841
1153.0,0.2669
1154.0,0.1857
1155.0,0.3409
1156.0,0.3139
1157.0,0.343
1158.0,0.3385
1159.0,0.3554
1160.0,0.3163
1161.0,0.3684
1162.0,0.3716
1163.0,0.4677
1164.0,0.414
1165.0,0.4016
1166.0,0.3918
1167.0,0.4201
1168.0,0.4267
1169.0,0.4323
1170.0,0.4604
1171.0,0.4508
1172.0,0.4538
1173.0,0.4594
1174.0,0.3559
1175.0,0.4453
1176.0,0.4772
1177.0,0.4658
1178.0,0.371
1179.0,0.4804
1180.0,0.4428
1181.0,0.4551
1182.0,0.337
1183.0,0.445
1184.0,0.4246
1185.0,0.4159
1186.0,0.4719
1187.0,0.4559
1188.0,0.344
1189.0,0.4265
1190.0,0.4614
1191.0,0.4484
1192.0,0.4666
1193.0,0.4511
1194.0,0.4622
1195.0,0.4444
1196.0,0.433
1197.0,0.4581
1198.0,0.4256
1199.0,0.3794
1200.0,0.4461
1201.0,0.436
1202.0,0.4305
1203.0,0.4265
1204.0,0.3837
1205.0,0.4354
1206.0,0.4708
1207.0,0.4308
1208.0,0.419
1209.0,0.4263
1210.0,0.4401
1211.0,0.4259
1212.0,0.4275
1213.0,0.4588
1214.0,0.4341
1215.0,0.4278
1216.0,0.4571
1217.0,0.4484
1218.0,0.4538
1219.0,0.4496
1220.0,0.4538
1221.0,0.4565
1222.0,0.4468
1223.0,0.4439
1224.0,0.4434
1225.0,0.4537
1226.0,0.4547
1227.0,0.4279
1228.0,0.4554
1229.0,0.4547
1230.0,0.4486
1231.0,0.4562
1232.0,0.4537
1233.0,0.4445
1234.0,0.4545
1235.0,0.4525
1236.0,0.4551
1237.0,0.4512
1238.0,0.4535
1239.0,0.4478
1240.0,0.4492
1241.0,0.4486
1242.0,0.4463
1243.0,0.4425
1244.0,0.4462
1245.0,0.4478
1246.0,0.4451
1247.0,0.4438
1248.0,0.4443
1249.0,0.445
1250.0,0.4428
1251.0,0.4381
1252.0,0.4369
1253.0,0.4356
1254.0,0.433
1255.0,0.4371
1256.0,0.4289
1257.0,0.4274
1258.0,0.4321
1259.0,0.4228
1260.0,0.4243
1261.0,0.4086
1262.0,0.4007
1263.0,0.4017
1264.0,0.381
1265.0,0.3989
1266.0,0.3899
1267.0,0.3926
1268.0,0.379
1269.0,0.2837
1270.0,0.3928
1271.0,0.4062
1272.0,0.4066
1273.0,0.4032
1274.0,0.4033
1275.0,0.4076
1276.0,0.41
1277.0,0.4109
1278.0,0.4154
1279.0,0.412
1280.0,0.4066
1281.0,0.3865
1282.0,0.3699
1283.0,0.3989
1284.0,0.409
1285.0,0.4113
1286.0,0.4154
1287.0,0.4116
1288.0,0.4109
1289.0,0.4028
1290.0,0.4069
1291.0,0.4116
1292.0,0.3963
1293.0,0.4061
1294.0,0.4037
1295.0,0.4039
1296.0,0.392
1297.0,0.3761
1298.0,0.3946
1299.0,0.4057
1300.0,0.3612
1301.0,0.3685
1302.0,0.393
1303.0,0.3546
1304.0,0.3196
1305.0,0.3865
1306.0,0.3873
1307.0,0.3207
1308.0,0.3526
1309.0,0.3854
1310.0,0.3153
1311.0,0.3419
1312.0,0.3353
1313.0,0.3314
1314.0,0.3031
1315.0,0.3028
1316.0,0.3391
1317.0,0.3233
1318.0,0.3443
1319.0,0.2901
1320.0,0.2765
1321.0,0.3147
1322.0,0.3206
1323.0,0.2591
1324.0,0.2844
1325.0,0.3351
1326.0,0.2989
1327.0,0.2879
1328.0,0.2541
1329.0,0.2061
1330.0,0.2599
1331.0,0.177
1332.0,0.1757
1333.0,0.2383
1334.0,0.1955
1335.0,0.2575
1336.0,0.2132
1337.0,0.1953
1338.0,0.2097
1339.0,0.2065
1340.0,0.1962
1341.0,0.2021
1342.0,0.2117
1343.0,0.1684
1344.0,0.1014
1345.0,0.1415
1346.0,0.08933
1347.0,0.09381
1348.0,0.01154
1349.0,0.03384
1350.0,0.03058
1351.0,0.01295
1352.0,0.005886
1353.0,0.0006107
1354.0,0.001401
1355.0,4.274e-05
1356.0,0.0003202
1357.0,0.0004722
1358.0,4.802e-05
1359.0,1.529e-05
1360.0,3.065e-05
1361.0,2.753e-07
1362.0,2.092e-09
1363.0,4.814e-05
1364.0,2.374e-05
1365.0,2.042e-09
1366.0,0.0001614
1367.0,6.338e-05
1368.0,1.305e-10
1369.0,9.731e-06
1370.0,7.038e-06
1371.0,7.05e-07
1372.0,3.579e-05
1373.0,0.0003565
1374.0,0.001049
1375.0,0.001798
1376.0,0.001238
1377.0,0.0006407
1378.0,0.004666
1379.0,0.0002824
1380.0,0.0005106
1381.0,1.95e-05
1382.0,3.579e-05
1383.0,8.831e-07
1384.0,1.258e-05
1385.0,2.271e-05
1386.0,4.081e-05
1387.0,0.001309
1388.0,3.243e-05
1389.0,0.002854
1390.0,0.002399
1391.0,0.001843
1392.0,0.0001549
1393.0,0.0006197
1394.0,0.0006104
1395.0,8.84e-06
1396.0,3.062e-07
1397.0,0.0003004
1398.0,0.005335
1399.0,0.003455
1400.0,2.184e-07
1401.0,4.522e-07
1402.0,0.005558
1403.0,0.007621
1404.0,0.002451
1405.0,6.042e-06
1406.0,0.007293
1407.0,0.0006519
1408.0,0.00587
1409.0,0.002718
1410.0,0.001922
1411.0,0.006614
1412.0,0.00765
1413.0,0.04578
1414.0,0.001476
1415.0,0.0008421
1416.0,0.05893
1417.0,0.02492
1418.0,0.02784
1419.0,0.004783
1420.0,0.01744
1421.0,0.02001
1422.0,0.07423
1423.0,0.01665
1424.0,0.0294
1425.0,0.04479
1426.0,0.04558
1427.0,0.07091
1428.0,0.01127
1429.0,0.05821
1430.0,0.08675
1431.0,0.09214
1432.0,0.009155
1433.0,0.06346
1434.0,0.03482
1435.0,0.04305
1436.0,0.06915
1437.0,0.05356
1438.0,0.02663
1439.0,0.08778
1440.0,0.06704
1441.0,0.05722
1442.0,0.06127
1443.0,0.06779
1444.0,0.09099
1445.0,0.07795
1446.0,0.03726
1447.0,0.05928
1448.0,0.1471
1449.0,0.135
1450.0,0.04398
1451.0,0.01994
1452.0,0.08785
1453.0,0.1107
1454.0,0.1668
1455.0,0.08758
1456.0,0.1214
1457.0,0.1482
1458.0,0.1616
1459.0,0.193
1460.0,0.1082
1461.0,0.1182
1462.0,0.1621
1463.0,0.06121
1464.0,0.1812
1465.0,0.1115
1466.0,0.09175
1467.0,0.05589
1468.0,0.1042
1469.0,0.1235
1470.0,0.07286
