interpolation:linear
wavelength,value
280.0,4.371e-21
280.5,9.542000000000001e-20
281.0,4.486e-19
281.5,9.628e-18
282.0,6.108e-17
282.5,2.01e-16
283.0,7.492e-16
283.5,1.299e-15
284.0,2.225e-14
284.5,6.371e-14
285.0,1.22e-13
285.5,7.391e-13
286.0,3.148e-12
286.5,1.481e-11
287.0,4.301e-11
287.5,1.625e-10
288.0,5.737e-10
288.5,2.001e-09
289.0,5.857e-09
289.5,1.877e-08
290.0,5.388e-08
290.5,1.124e-07
291.0,2.438e-07
291.5,6.933e-07
292.0,1.561e-06
292.5,2.197e-06
293.0,4.674e-06
293.5,1.108e-05
294.0,1.718e-05
294.5,2.854e-05
295.0,4.668e-05
295.5,0.0001031
296.0,0.0001742
296.5,0.0002137
297.0,0.0002601
297.5,0.000595
298.0,0.0008208
298.5,0.0007459
299.0,0.00149
299.5,0.002079
300.0,0.002084
300.5,0.002744
301.0,0.004255
301.5,0.00592
302.0,0.004747
302.5,0.008628
303.0,0.01411
303.5,0.0168
304.0,0.01521
304.5,0.02048
305.0,0.02688
305.5,0.02821
306.0,0.02648
306.5,0.03126
307.0,0.04106
307.5,0.0487
308.0,0.0507
308.5,0.0568
309.0,0.04994
309.5,0.05375
310.0,0.05256
310.5,0.08418
311.0,0.1033
311.5,0.09896
312.0,0.09352
312.5,0.1097
313.0,0.1169
313.5,0.1164
314.0,0.1389
314.5,0.1155
315.0,0.1506
315.5,0.1308
316.0,0.1085
316.5,0.1489
317.0,0.1858
317.5,0.1968
318.0,0.1491
318.5,0.1741
319.0,0.2007
319.5,0.1731
320.0,0.2116
320.5,0.2487
321.0,0.2094
321.5,0.2003
322.0,0.2284
322.5,0.1988
323.0,0.1905
323.5,0.2188
324.0,0.2543
324.5,0.2644
325.0,0.2413
325.5,0.301
326.0,0.3537
326.5,0.3464
327.0,0.3497
327.5,0.343
328.0,0.3172
328.5,0.3209
329.0,0.3732
329.5,0.421
330.0,0.4294
330.5,0.3535
331.0,0.3644
331.5,0.3646
332.0,0.3848
332.5,0.3774
333.0,0.3801
333.5,0.352
334.0,0.3628
334.5,0.4107
335.0,0.3823
335.5,0.4341
336.0,0.3012
336.5,0.3673
337.0,0.305
337.5,0.3817
338.0,0.3672
338.5,0.4145
339.0,0.4135
339.5,0.3974
340.0,0.4794
340.5,0.4326
341.0,0.415
341.5,0.3852
342.0,0.4624
342.5,0.4345
343.0,0.4772
343.5,0.4491
344.0,0.3377
344.5,0.3344
345.0,0.4482
345.5,0.4601
346.0,0.3927
346.5,0.4463
347.0,0.4788
347.5,0.3876
348.0,0.4446
348.5,0.4464
349.0,0.4153
349.5,0.4119
350.0,0.5108
350.5,0.54
351.0,0.4829
351.5,0.4683
352.0,0.5056
352.5,0.3962
353.0,0.5006
353.5,0.5369
354.0,0.5589
354.5,0.5682
355.0,0.5674
355.5,0.5137
356.0,0.5388
356.5,0.4611
357.0,0.382
357.5,0.4688
358.0,0.3724
358.5,0.319
359.0,0.4471
359.5,0.5708
360.0,0.6065
360.5,0.486
361.0,0.4439
361.5,0.5119
362.0,0.4432
362.5,0.6143
363.0,0.5526
363.5,0.5098
364.0,0.6245
364.5,0.5348
365.0,0.5457
365.5,0.6861
366.0,0.7281
366.5,0.6852
367.0,0.6686
367.5,0.6952
368.0,0.6094
368.5,0.6159
369.0,0.6663
369.5,0.7115
370.0,0.7597
370.5,0.5906
371.0,0.6321
371.5,0.7923
372.0,0.5268
372.5,0.6328
373.0,0.6446
373.5,0.42
374.0,0.6113
374.5,0.5071
375.0,0.4937
375.5,0.7385
376.0,0.6133
376.5,0.6367
377.0,0.6751
377.5,0.791
378.0,0.859
378.5,0.8135
379.0,0.6727
379.5,0.6157
380.0,0.6413
380.5,0.7779
381.0,0.7806
381.5,0.6196
382.0,0.551
382.5,0.4703
383.0,0.436
383.5,0.4205
384.0,0.4646
384.5,0.6843
385.0,0.6795
385.5,0.6336
386.0,0.5435
386.5,0.7148
387.0,0.5949
387.5,0.6692
388.0,0.6188
388.5,0.6124
389.0,0.6621
389.5,0.803
390.0,0.807
390.5,0.7437
391.0,0.8766
391.5,0.8954
392.0,0.7553
392.5,0.677
393.0,0.3771
393.5,0.2745
394.0,0.5592
394.5,0.7118
395.0,0.8697
395.5,0.8848
396.0,0.7681
396.5,0.4495
397.0,0.3377
397.5,0.6877
398.0,0.9645
398.5,0.9982
399.0,1.082
399.5,1.079
400.0,1.123
401.0,1.155
402.0,1.221
403.0,1.162
404.0,1.147
405.0,1.149
406.0,1.133
407.0,1.116
408.0,1.163
409.0,1.247
410.0,1.091
411.0,1.184
412.0,1.274
413.0,1.245
414.0,1.262
415.0,1.267
416.0,1.292
417.0,1.262
418.0,1.241
419.0,1.26
420.0,1.257
421.0,1.317
422.0,1.254
423.0,1.227
424.0,1.3
425.0,1.3
426.0,1.267
427.0,1.245
428.0,1.215
429.0,1.152
430.0,1.01
431.0,1.003
432.0,1.296
433.0,1.305
434.0,1.214
435.0,1.27
436.0,1.432
437.0,1.414
438.0,1.289
439.0,1.336
440.0,1.38
441.0,1.431
442.0,1.537
443.0,1.5
444.0,1.534
445.0,1.503
446.0,1.435
447.0,1.553
448.0,1.581
449.0,1.587
450.0,1.633
451.0,1.696
452.0,1.636
453.0,1.54
454.0,1.609
455.0,1.621
456.0,1.661
457.0,1.691
458.0,1.636
459.0,1.629
460.0,1.636
461.0,1.675
462.0,1.689
463.0,1.68
464.0,1.652
465.0,1.632
466.0,1.649
467.0,1.621
468.0,1.642
469.0,1.653
470.0,1.602
471.0,1.601
472.0,1.689
473.0,1.669
474.0,1.675
475.0,1.692
476.0,1.645
477.0,1.653
478.0,1.7
479.0,1.69
480.0,1.694
481.0,1.726
482.0,1.735
483.0,1.714
484.0,1.68
485.0,1.601
486.0,1.4
487.0,1.468
488.0,1.612
489.0,1.62
490.0,1.704
491.0,1.676
492.0,1.584
493.0,1.637
494.0,1.655
495.0,1.67
496.0,1.682
497.0,1.709
498.0,1.63
499.0,1.653
500.0,1.607
501.0,1.58
502.0,1.561
503.0,1.628
504.0,1.595
505.0,1.648
506.0,1.702
507.0,1.621
508.0,1.57
509.0,1.613
510.0,1.605
511.0,1.648
512.0,1.666
513.0,1.578
514.0,1.568
515.0,1.553
516.0,1.551
517.0,1.379
518.0,1.45
519.0,1.522
520.0,1.579
521.0,1.595
522.0,1.598
523.0,1.571
524.0,1.629
525.0,1.651
526.0,1.578
527.0,1.49
528.0,1.577
529.0,1.664
530.0,1.642
531.0,1.668
532.0,1.612
533.0,1.565
534.0,1.612
535.0,1.647
536.0,1.663
537.0,1.598
538.0,1.627
539.0,1.614
540.0,1.548
541.0,1.561
542.0,1.612
543.0,1.594
544.0,1.624
545.0,1.62
546.0,1.629
547.0,1.628
548.0,1.609
549.0,1.614
550.0,1.634
551.0,1.615
552.0,1.627
553.0,1.599
554.0,1.638
555.0,1.642
556.0,1.622
557.0,1.573
558.0,1.563
559.0,1.535
560.0,1.556
561.0,1.578
562.0,1.568
563.0,1.613
564.0,1.571
565.0,1.559
566.0,1.537
567.0,1.568
568.0,1.558
569.0,1.528
570.0,1.527
571.0,1.517
572.0,1.558
573.0,1.576
574.0,1.573
575.0,1.545
576.0,1.532
577.0,1.549
578.0,1.524
579.0,1.528
580.0,1.553
581.0,1.559
582.0,1.586
583.0,1.588
584.0,1.601
585.0,1.562
586.0,1.53
587.0,1.566
588.0,1.537
589.0,1.377
590.0,1.439
591.0,1.514
592.0,1.501
593.0,1.517
594.0,1.51
595.0,1.478
596.0,1.525
597.0,1.512
598.0,1.505
599.0,1.505
600.0,1.504
601.0,1.49
602.0,1.48
603.0,1.504
604.0,1.529
605.0,1.521
606.0,1.514
607.0,1.528
608.0,1.511
609.0,1.513
610.0,1.501
611.0,1.509
612.0,1.504
613.0,1.485
614.0,1.464
615.0,1.496
616.0,1.446
617.0,1.443
618.0,1.498
619.0,1.483
620.0,1.493
621.0,1.496
622.0,1.48
623.0,1.459
624.0,1.433
625.0,1.43
626.0,1.452
627.0,1.471
628.0,1.407
629.0,1.449
630.0,1.417
631.0,1.438
632.0,1.419
633.0,1.458
634.0,1.441
635.0,1.462
636.0,1.441
637.0,1.464
638.0,1.476
639.0,1.459
640.0,1.443
641.0,1.442
642.0,1.434
643.0,1.454
644.0,1.448
645.0,1.452
646.0,1.422
647.0,1.414
648.0,1.417
649.0,1.39
650.0,1.386
651.0,1.444
652.0,1.397
653.0,1.426
654.0,1.409
655.0,1.363
656.0,1.204
657.0,1.236
658.0,1.382
659.0,1.391
660.0,1.396
661.0,1.406
662.0,1.411
663.0,1.383
664.0,1.396
665.0,1.395
666.0,1.396
667.0,1.393
668.0,1.393
669.0,1.414
670.0,1.408
671.0,1.407
672.0,1.395
673.0,1.416
674.0,1.41
675.0,1.397
676.0,1.407
677.0,1.393
678.0,1.397
679.0,1.374
680.0,1.385
681.0,1.376
682.0,1.374
683.0,1.372
684.0,1.365
685.0,1.377
686.0,1.369
687.0,1.053
688.0,1.163
689.0,1.165
690.0,1.2
691.0,1.237
692.0,1.262
693.0,1.255
694.0,1.245
695.0,1.28
696.0,1.282
697.0,1.339
698.0,1.318
699.0,1.301
700.0,1.286
701.0,1.278
702.0,1.281
703.0,1.284
704.0,1.317
705.0,1.319
706.0,1.315
707.0,1.314
708.0,1.318
709.0,1.315
710.0,1.317
711.0,1.314
712.0,1.308
713.0,1.297
714.0,1.302
715.0,1.266
716.0,1.269
717.0,1.153
718.0,1.071
719.0,0.9877
720.0,1.038
721.0,1.111
722.0,1.234
723.0,1.169
724.0,1.076
725.0,1.066
726.0,1.111
727.0,1.115
728.0,1.066
729.0,1.086
730.0,1.148
731.0,1.105
732.0,1.162
733.0,1.21
734.0,1.234
735.0,1.211
736.0,1.209
737.0,1.215
738.0,1.222
739.0,1.198
740.0,1.225
741.0,1.211
742.0,1.21
743.0,1.241
744.0,1.236
745.0,1.235
746.0,1.241
747.0,1.244
748.0,1.241
749.0,1.227
750.0,1.226
751.0,1.214
752.0,1.219
753.0,1.225
754.0,1.228
755.0,1.221
756.0,1.221
757.0,1.223
758.0,1.208
759.0,1.191
760.0,0.3662
761.0,0.2389
762.0,0.7611
763.0,0.4844
764.0,0.633
765.0,0.762
766.0,0.8601
767.0,1.014
768.0,1.116
769.0,1.128
770.0,1.153
771.0,1.157
772.0,1.158
773.0,1.165
774.0,1.16
775.0,1.151
776.0,1.165
777.0,1.149
778.0,1.142
779.0,1.144
780.0,1.137
781.0,1.138
782.0,1.145
783.0,1.125
784.0,1.131
785.0,1.123
786.0,1.136
787.0,1.122
788.0,1.11
789.0,1.111
790.0,1.09
791.0,1.091
792.0,1.083
793.0,1.066
794.0,1.076
795.0,1.096
796.0,1.074
797.0,1.075
798.0,1.096
799.0,1.092
800.0,1.075
801.0,1.074
802.0,1.071
803.0,1.064
804.0,1.065
805.0,1.058
806.0,1.083
807.0,1.071
808.0,1.072
809.0,1.056
810.0,1.05
811.0,1.056
812.0,1.034
813.0,1.018
814.0,0.9235
815.0,0.9172
816.0,0.8585
817.0,0.8704
818.0,0.8441
819.0,0.9191
820.0,0.8755
821.0,0.9903
822.0,0.9677
823.0,0.7126
824.0,0.9505
825.0,0.9755
826.0,0.9483
827.0,0.9902
828.0,0.8693
829.0,0.9408
830.0,0.9318
831.0,0.9339
832.0,0.9108
833.0,0.9531
834.0,0.9293
835.0,1.0
836.0,0.9702
837.0,1.002
838.0,0.9765
839.0,0.9861
840.0,1.006
841.0,0.9945
842.0,0.993
843.0,0.9888
844.0,0.9772
845.0,1.007
846.0,1.002
847.0,0.9827
848.0,0.9783
849.0,0.9506
850.0,0.9106
851.0,0.966
852.0,0.9584
853.0,0.9212
854.0,0.7967
855.0,0.8736
856.0,0.9555
857.0,0.9757
858.0,0.9691
859.0,0.9693
860.0,0.9706
861.0,0.9655
862.0,0.9805
863.0,1.004
864.0,0.9535
865.0,0.9451
866.0,0.8498
867.0,0.8868
868.0,0.9651
869.0,0.945
870.0,0.972
871.0,0.9588
872.0,0.9554
873.0,0.9535
874.0,0.9422
875.0,0.9233
876.0,0.933
877.0,0.9424
878.0,0.953
879.0,0.9383
880.0,0.9182
881.0,0.9053
882.0,0.9252
883.0,0.9274
884.0,0.9235
885.0,0.9306
886.0,0.8898
887.0,0.8971
888.0,0.9119
889.0,0.9197
890.0,0.9151
891.0,0.912
892.0,0.8895
893.0,0.8669
894.0,0.8458
895.0,0.8114
896.0,0.7708
897.0,0.6798
898.0,0.7313
899.0,0.5786
900.0,0.7385
901.0,0.605
902.0,0.6814
903.0,0.697
904.0,0.8399
905.0,0.8167
906.0,0.7691
907.0,0.6506
908.0,0.6602
909.0,0.7023
910.0,0.6435
911.0,0.6728
912.0,0.6976
913.0,0.6541
914.0,0.6448
915.0,0.6956
916.0,0.5972
917.0,0.7315
918.0,0.6126
919.0,0.7397
920.0,0.7369
921.0,0.7628
922.0,0.698
923.0,0.7363
924.0,0.7158
925.0,0.7011
926.0,0.7083
927.0,0.7777
928.0,0.6146
929.0,0.573
930.0,0.4705
931.0,0.4421
932.0,0.3386
933.0,0.2871
934.0,0.1827
935.0,0.284
936.0,0.193
937.0,0.1982
938.0,0.2371
939.0,0.4286
940.0,0.5016
941.0,0.3979
942.0,0.4477
943.0,0.3101
944.0,0.3134
945.0,0.4071
946.0,0.2284
947.0,0.4141
948.0,0.3084
949.0,0.5328
950.0,0.1829
951.0,0.5211
952.0,0.3087
953.0,0.3799
954.0,0.4455
955.0,0.3819
956.0,0.3632
957.0,0.3121
958.0,0.4844
959.0,0.4061
960.0,0.4541
961.0,0.4937
962.0,0.4696
963.0,0.5272
964.0,0.4881
965.0,0.5233
966.0,0.5271
967.0,0.526
968.0,0.6587
969.0,0.6904
970.0,0.6412
971.0,0.7137
972.0,0.6866
973.0,0.6181
974.0,0.5902
975.0,0.6043
976.0,0.5843
977.0,0.6443
978.0,0.6207
979.0,0.6433
980.0,0.6096
981.0,0.7088
982.0,0.6849
983.0,0.662
984.0,0.7226
985.0,0.6821
986.0,0.7307
987.0,0.7212
988.0,0.72
989.0,0.7257
990.0,0.7151
991.0,0.7284
992.0,0.7322
993.0,0.7207
994.0,0.7315
995.0,0.7299
996.0,0.7274
997.0,0.7281
998.0,0.725
999.0,0.7222
1000.0,0.7183
1001.0,0.726
1002.0,0.7108
1003.0,0.7135
1004.0,0.6973
1005.0,0.6701
1006.0,0.6972
1007.0,0.7115
1008.0,0.7085
1009.0,0.7057
1010.0,0.7033
1011.0,0.7078
1012.0,0.7027
1013.0,0.7059
1014.0,0.701
1015.0,0.6965
1016.0,0.6935
1017.0,0.6955
1018.0,0.6923
1019.0,0.6793
1020.0,0.689
1021.0,0.6877
1022.0,0.6831
1023.0,0.6905
1024.0,0.6834
1025.0,0.6894
1026.0,0.6869
1027.0,0.6853
1028.0,0.684
1029.0,0.6761
1030.0,0.6801
1031.0,0.6777
1032.0,0.6755
1033.0,0.6654
1034.0,0.6654
1035.0,0.6675
1036.0,0.6711
1037.0,0.6602
1038.0,0.6632
1039.0,0.6629
1040.0,0.6603
1041.0,0.6631
1042.0,0.6585
1043.0,0.6566
1044.0,0.659
1045.0,0.6502
1046.0,0.6431
1047.0,0.649
1048.0,0.6528
1049.0,0.6506
1050.0,0.6477
1051.0,0.647
1052.0,0.6446
1053.0,0.6397
1054.0,0.6413
1055.0,0.642
1056.0,0.64
1057.0,0.6383
1058.0,0.6229
1059.0,0.6239
1060.0,0.6231
1061.0,0.6225
1062.0,0.6261
1063.0,0.6201
1064.0,0.6274
1065.0,0.6236
1066.0,0.6107
1067.0,0.6188
1068.0,0.6058
1069.0,0.5867
1070.0,0.6072
1071.0,0.615
1072.0,0.6092
1073.0,0.6001
1074.0,0.6138
1075.0,0.5882
1076.0,0.6136
1077.0,0.6056
1078.0,0.5952
1079.0,0.6031
1080.0,0.5964
1081.0,0.5796
1082.0,0.5846
1083.0,0.5854
1084.0,0.5798
1085.0,0.5973
1086.0,0.5536
1087.0,0.5649
1088.0,0.5858
1089.0,0.5726
1090.0,0.5637
1091.0,0.5853
1092.0,0.5827
1093.0,0.5095
1094.0,0.535
1095.0,0.5282
1096.0,0.5105
1097.0,0.569
1098.0,0.504
1099.0,0.5233
1100.0,0.4938
1101.0,0.4978
1102.0,0.4796
1103.0,0.4781
1104.0,0.4783
1105.0,0.5129
1106.0,0.4193
1107.0,0.4924
1108.0,0.4339
1109.0,0.4315
1110.0,0.49
1111.0,0.355
1112.0,0.4269
1113.0,0.2959
1114.0,0.3274
1115.0,0.2722
1116.0,0.2328
1117.0,0.104
1118.0,0.2469
1119.0,0.1367
1120.0,0.1719
1121.0,0.2189
1122.0,0.1046
1123.0,0.155
1124.0,0.131
1125.0,0.1675
1126.0,0.07105
1127.0,0.1878
1128.0,0.1259
1129.0,0.1312
1130.0,0.09319
1131.0,0.3251
1132.0,0.261
1133.0,0.1817
1134.0,0.0578
1135.0,0.02126
1136.0,0.1574
1137.0,0.3235
1138.0,0.2322
1139.0,0.3169
1140.0,0.2761
1141.0,0.2207
1142.0,0.2474
1143.0,0.339
1144.0,0.1344
1145.0,0.1746
1146.0,0.1885
1147.0,0.07997
1148.0,0.2937
1149.0,0.2439
1150.0,0.1442
1151.0,0.2307
1152.0,0.273
1153.0,0.2581
1154.0,0.1728
1155.0,0.331
1156.0,0.3037
1157.0,0.3331
1158.0,0.3289
1159.0,0.3472
1160.0,0.3064
1161.0,0.3605
1162.0,0.3635
1163.0,0.4633
1164.0,0.4077
1165.0,0.3937
1166.0,0.385
1167.0,0.4141
1168.0,0.4204
1169.0,0.4267
1170.0,0.4561
1171.0,0.4461
1172.0,0.4499
1173.0,0.4551
1174.0,0.3474
1175.0,0.4416
1176.0,0.4752
1177.0,0.4626
1178.0,0.3645
1179.0,0.4786
1180.0,0.4387
1181.0,0.4513
1182.0,0.3299
1183.0,0.4418
1184.0,0.4202
1185.0,0.4105
1186.0,0.4694
1187.0,0.4523
1188.0,0.3368
1189.0,0.4228
1190.0,0.4588
1191.0,0.4443
1192.0,0.4641
1193.0,0.4481
1194.0,0.4596
1195.0,0.4408
1196.0,0.4286
1197.0,0.4563
1198.0,0.4227
1199.0,0.374
1200.0,0.443
1201.0,0.4321
1202.0,0.427
1203.0,0.4233
1204.0,0.3788
1205.0,0.4326
1206.0,0.4696
1207.0,0.4272
1208.0,0.4162
1209.0,0.4237
1210.0,0.4381
1211.0,0.4228
1212.0,0.4235
1213.0,0.4572
1214.0,0.4306
1215.0,0.424
1216.0,0.4555
1217.0,0.4462
1218.0,0.4521
1219.0,0.4477
1220.0,0.4522
1221.0,0.4552
1222.0,0.4451
1223.0,0.442
1224.0,0.4412
1225.0,0.4523
1226.0,0.4537
1227.0,0.4256
1228.0,0.4546
1229.0,0.4537
1230.0,0.4473
1231.0,0.4557
1232.0,0.4531
1233.0,0.443
1234.0,0.4542
1235.0,0.4521
1236.0,0.4548
1237.0,0.4506
1238.0,0.4532
1239.0,0.4475
1240.0,0.4489
1241.0,0.4481
1242.0,0.446
1243.0,0.4423
1244.0,0.4458
1245.0,0.4475
1246.0,0.4448
1247.0,0.4435
1248.0,0.4439
1249.0,0.4446
1250.0,0.4423
1251.0,0.4375
1252.0,0.4365
1253.0,0.4349
1254.0,0.432
1255.0,0.4366
1256.0,0.4278
1257.0,0.4262
1258.0,0.4314
1259.0,0.4212
1260.0,0.4227
1261.0,0.4059
1262.0,0.3974
1263.0,0.3983
1264.0,0.3763
1265.0,0.3956
1266.0,0.3858
1267.0,0.3891
1268.0,0.3746
1269.0,0.2727
1270.0,0.389
1271.0,0.4037
1272.0,0.4042
1273.0,0.4007
1274.0,0.401
1275.0,0.4055
1276.0,0.4081
1277.0,0.4093
1278.0,0.4142
1279.0,0.4108
1280.0,0.4054
1281.0,0.3856
1282.0,0.3694
1283.0,0.3983
1284.0,0.4083
1285.0,0.4107
1286.0,0.415
1287.0,0.4108
1288.0,0.4101
1289.0,0.4014
1290.0,0.4062
1291.0,0.4111
1292.0,0.3943
1293.0,0.4052
1294.0,0.4028
1295.0,0.4027
1296.0,0.3898
1297.0,0.3731
1298.0,0.3931
1299.0,0.4049
1300.0,0.3576
1301.0,0.3655
1302.0,0.3915
1303.0,0.3513
1304.0,0.3139
1305.0,0.3847
1306.0,0.3855
1307.0,0.3158
1308.0,0.3497
1309.0,0.3835
1310.0,0.3104
1311.0,0.3385
1312.0,0.3316
1313.0,0.3273
1314.0,0.2982
1315.0,0.2975
1316.0,0.3354
1317.0,0.3194
1318.0,0.3412
1319.0,0.284
1320.0,0.2714
1321.0,0.3101
1322.0,0.3155
1323.0,0.252
1324.0,0.2784
1325.0,0.3313
1326.0,0.2936
1327.0,0.2823
1328.0,0.2482
1329.0,0.1988
1330.0,0.2521
1331.0,0.1682
1332.0,0.1681
1333.0,0.2292
1334.0,0.1885
1335.0,0.2507
1336.0,0.2059
1337.0,0.1873
1338.0,0.2016
1339.0,0.1988
1340.0,0.1896
1341.0,0.1938
1342.0,0.203
1343.0,0.1575
1344.0,0.09436
1345.0,0.1328
1346.0,0.08069
1347.0,0.08442
1348.0,0.009286
1349.0,0.0283
1350.0,0.02622
1351.0,0.01011
1352.0,0.004264
1353.0,0.0003893
1354.0,0.0009539
1355.0,2.333e-05
1356.0,0.000201
1357.0,0.0002987
1358.0,2.644e-05
1359.0,7.305e-06
1360.0,1.603e-05
1361.0,1.025e-07
1362.0,6.464e-10
1363.0,2.513e-05
1364.0,1.183e-05
1365.0,5.441e-10
1366.0,8.808e-05
1367.0,3.414e-05
1368.0,2.517e-11
1369.0,4.749e-06
1370.0,3.243e-06
1371.0,2.936e-07
1372.0,1.911e-05
1373.0,0.000215
1374.0,0.000682
1375.0,0.001195
1376.0,0.0008446
1377.0,0.000427
1378.0,0.003311
1379.0,0.0001858
1380.0,0.0003265
1381.0,1.152e-05
1382.0,1.883e-05
1383.0,4.202e-07
1384.0,6.037e-06
1385.0,1.262e-05
1386.0,2.077e-05
1387.0,0.0008371
1388.0,1.934e-05
1389.0,0.001945
1390.0,0.001648
1391.0,0.00123
1392.0,9.748e-05
1393.0,0.0004108
1394.0,0.0003694
1395.0,4.678e-06
1396.0,1.185e-07
1397.0,0.0001925
1398.0,0.003795
1399.0,0.002436
1400.0,7.851e-08
1401.0,1.807e-07
1402.0,0.004241
1403.0,0.00576
1404.0,0.001833
1405.0,3.034e-06
1406.0,0.005393
1407.0,0.00047
1408.0,0.00434
1409.0,0.001915
1410.0,0.001361
1411.0,0.005002
1412.0,0.005925
1413.0,0.03915
1414.0,0.001047
1415.0,0.0005798
1416.0,0.05221
1417.0,0.02073
1418.0,0.02345
1419.0,0.003937
1420.0,0.0146
1421.0,0.01644
1422.0,0.06639
1423.0,0.01437
1424.0,0.02572
1425.0,0.03908
1426.0,0.04047
1427.0,0.06506
1428.0,0.009025
1429.0,0.05251
1430.0,0.08015
1431.0,0.08568
1432.0,0.007282
1433.0,0.05804
1434.0,0.03135
1435.0,0.0374
1436.0,0.06213
1437.0,0.0479
1438.0,0.0231
1439.0,0.08
1440.0,0.06075
1441.0,0.05081
1442.0,0.05494
1443.0,0.0622
1444.0,0.08376
1445.0,0.07069
1446.0,0.03345
1447.0,0.05293
1448.0,0.1395
1449.0,0.1265
1450.0,0.03919
1451.0,0.01733
1452.0,0.08114
1453.0,0.1032
1454.0,0.1593
1455.0,0.08189
1456.0,0.1129
1457.0,0.1404
1458.0,0.1555
1459.0,0.1853
1460.0,0.1023
1461.0,0.1109
1462.0,0.154
1463.0,0.05623
1464.0,0.1742
1465.0,0.1067
1466.0,0.08486
1467.0,0.05015
1468.0,0.09703
1469.0,0.1158
1470.0,0.06639
