interpolation:linear
wavelength,value
280.0,2.525e-27
280.5,1.374e-25
281.0,9.018e-25
281.5,4.6809999999999996e-23
282.0,5.079e-22
282.5,2.4e-21
283.0,1.332e-20
283.5,2.814e-20
284.0,1.212e-18
284.5,5.281e-18
285.0,1.593e-17
285.5,1.647e-16
286.0,8.713e-16
286.5,6.393e-15
287.0,2.578e-14
287.5,1.498e-13
288.0,9.095e-13
288.5,4.23e-12
289.0,1.667e-11
289.5,7.406e-11
290.0,2.777e-10
290.5,7.246e-10
291.0,2.057e-09
291.5,8.243e-09
292.0,2.453e-08
292.5,4.04e-08
293.0,1.051e-07
293.5,3.28e-07
294.0,6.123e-07
294.5,1.17e-06
295.0,2.281e-06
295.5,6.264e-06
296.0,1.228e-05
296.5,1.736e-05
297.0,2.364e-05
297.5,6.326e-05
298.0,9.904e-05
298.5,9.89e-05
299.0,0.0002158
299.5,0.0003463
300.0,0.0003738
300.5,0.0005288
301.0,0.00091
301.5,0.001378
302.0,0.001151
302.5,0.002249
303.0,0.00402
303.5,0.005033
304.0,0.004675
304.5,0.006672
305.0,0.00945
305.5,0.01038
306.0,0.009937
306.5,0.01207
307.0,0.0168
307.5,0.02098
308.0,0.02207
308.5,0.02536
309.0,0.02275
309.5,0.02583
310.0,0.02589
310.5,0.04202
311.0,0.05262
311.5,0.05093
312.0,0.05001
312.5,0.06014
313.0,0.06501
313.5,0.0642
314.0,0.07884
314.5,0.06789
315.0,0.08922
315.5,0.07652
316.0,0.06523
316.5,0.09163
317.0,0.1146
317.5,0.121
318.0,0.09308
318.5,0.1117
319.0,0.1306
319.5,0.1107
320.0,0.1353
320.5,0.1633
321.0,0.1404
321.5,0.1349
322.0,0.1511
322.5,0.1319
323.0,0.1284
323.5,0.151
324.0,0.1764
324.5,0.1824
325.0,0.1645
325.5,0.2077
326.0,0.2481
326.5,0.2455
327.0,0.2477
327.5,0.2424
328.0,0.2218
328.5,0.2283
329.0,0.2687
329.5,0.3045
330.0,0.3106
330.5,0.2542
331.0,0.2619
331.5,0.2642
332.0,0.2814
332.5,0.2773
333.0,0.2794
333.5,0.2578
334.0,0.266
334.5,0.3035
335.0,0.2839
335.5,0.3234
336.0,0.2248
336.5,0.2738
337.0,0.2273
337.5,0.2847
338.0,0.2756
338.5,0.3121
339.0,0.3122
339.5,0.3004
340.0,0.3623
340.5,0.3276
341.0,0.3154
341.5,0.2935
342.0,0.353
342.5,0.3323
343.0,0.3653
343.5,0.3442
344.0,0.2586
344.5,0.2569
345.0,0.3453
345.5,0.3553
346.0,0.3038
346.5,0.3458
347.0,0.3715
347.5,0.3011
348.0,0.3461
348.5,0.348
349.0,0.3243
349.5,0.3222
350.0,0.4001
350.5,0.4236
351.0,0.3793
351.5,0.3681
352.0,0.3982
352.5,0.3126
353.0,0.3955
353.5,0.4248
354.0,0.4427
354.5,0.4506
355.0,0.4506
355.5,0.4085
356.0,0.429
356.5,0.3676
357.0,0.3048
357.5,0.3745
358.0,0.2979
358.5,0.2554
359.0,0.3584
359.5,0.458
360.0,0.4873
360.5,0.3908
361.0,0.3575
361.5,0.4129
362.0,0.3582
362.5,0.4972
363.0,0.4479
363.5,0.4138
364.0,0.5076
364.5,0.4351
365.0,0.4445
365.5,0.5596
366.0,0.5946
366.5,0.5603
367.0,0.5473
367.5,0.5696
368.0,0.4999
368.5,0.5059
369.0,0.5479
369.5,0.5856
370.0,0.6261
370.5,0.4873
371.0,0.5221
371.5,0.655
372.0,0.4359
372.5,0.5241
373.0,0.5345
373.5,0.3487
374.0,0.508
374.5,0.4218
375.0,0.4112
375.5,0.6155
376.0,0.5116
376.5,0.5315
377.0,0.5642
377.5,0.6617
378.0,0.7192
378.5,0.6816
379.0,0.564
379.5,0.5166
380.0,0.5386
380.5,0.654
381.0,0.657
381.5,0.5221
382.0,0.4648
382.5,0.3972
383.0,0.3686
383.5,0.3559
384.0,0.3935
384.5,0.5801
385.0,0.5766
385.5,0.5382
386.0,0.462
386.5,0.6082
387.0,0.5066
387.5,0.5703
388.0,0.5278
388.5,0.5229
389.0,0.5657
389.5,0.6867
390.0,0.6907
390.5,0.637
391.0,0.7515
391.5,0.7682
392.0,0.6485
392.5,0.5818
393.0,0.3244
393.5,0.2363
394.0,0.4817
394.5,0.6137
395.0,0.7504
395.5,0.7638
396.0,0.6636
396.5,0.3887
397.0,0.2923
397.5,0.5956
398.0,0.8358
398.5,0.8656
399.0,0.9389
399.5,0.9376
400.0,0.9755
401.0,1.005
402.0,1.065
403.0,1.015
404.0,1.003
405.0,1.006
406.0,0.9928
407.0,0.9801
408.0,1.022
409.0,1.097
410.0,0.9614
411.0,1.045
412.0,1.125
413.0,1.101
414.0,1.117
415.0,1.124
416.0,1.147
417.0,1.122
418.0,1.104
419.0,1.122
420.0,1.12
421.0,1.175
422.0,1.12
423.0,1.097
424.0,1.164
425.0,1.165
426.0,1.137
427.0,1.119
428.0,1.093
429.0,1.037
430.0,0.9098
431.0,0.9042
432.0,1.17
433.0,1.179
434.0,1.098
435.0,1.149
436.0,1.297
437.0,1.282
438.0,1.17
439.0,1.213
440.0,1.255
441.0,1.303
442.0,1.4
443.0,1.367
444.0,1.399
445.0,1.372
446.0,1.311
447.0,1.42
448.0,1.446
449.0,1.454
450.0,1.497
451.0,1.556
452.0,1.502
453.0,1.415
454.0,1.48
455.0,1.492
456.0,1.53
457.0,1.558
458.0,1.508
459.0,1.503
460.0,1.51
461.0,1.547
462.0,1.561
463.0,1.553
464.0,1.529
465.0,1.512
466.0,1.528
467.0,1.503
468.0,1.524
469.0,1.534
470.0,1.488
471.0,1.488
472.0,1.57
473.0,1.552
474.0,1.557
475.0,1.573
476.0,1.529
477.0,1.537
478.0,1.582
479.0,1.574
480.0,1.579
481.0,1.61
482.0,1.62
483.0,1.602
484.0,1.571
485.0,1.499
486.0,1.311
487.0,1.376
488.0,1.511
489.0,1.518
490.0,1.599
491.0,1.573
492.0,1.487
493.0,1.538
494.0,1.555
495.0,1.57
496.0,1.582
497.0,1.608
498.0,1.535
499.0,1.557
500.0,1.514
501.0,1.488
502.0,1.47
503.0,1.532
504.0,1.498
505.0,1.551
506.0,1.603
507.0,1.526
508.0,1.48
509.0,1.522
510.0,1.515
511.0,1.557
512.0,1.575
513.0,1.492
514.0,1.483
515.0,1.47
516.0,1.468
517.0,1.305
518.0,1.373
519.0,1.442
520.0,1.496
521.0,1.512
522.0,1.515
523.0,1.489
524.0,1.544
525.0,1.564
526.0,1.496
527.0,1.411
528.0,1.494
529.0,1.577
530.0,1.555
531.0,1.58
532.0,1.527
533.0,1.483
534.0,1.528
535.0,1.563
536.0,1.578
537.0,1.517
538.0,1.544
539.0,1.533
540.0,1.471
541.0,1.482
542.0,1.53
543.0,1.515
544.0,1.542
545.0,1.538
546.0,1.547
547.0,1.547
548.0,1.529
549.0,1.535
550.0,1.554
551.0,1.536
552.0,1.548
553.0,1.521
554.0,1.559
555.0,1.563
556.0,1.544
557.0,1.497
558.0,1.487
559.0,1.461
560.0,1.48
561.0,1.501
562.0,1.491
563.0,1.534
564.0,1.493
565.0,1.481
566.0,1.461
567.0,1.49
568.0,1.479
569.0,1.447
570.0,1.447
571.0,1.438
572.0,1.475
573.0,1.492
574.0,1.488
575.0,1.462
576.0,1.449
577.0,1.466
578.0,1.444
579.0,1.449
580.0,1.476
581.0,1.483
582.0,1.511
583.0,1.514
584.0,1.527
585.0,1.49
586.0,1.46
587.0,1.494
588.0,1.461
589.0,1.301
590.0,1.361
591.0,1.437
592.0,1.421
593.0,1.441
594.0,1.433
595.0,1.4
596.0,1.451
597.0,1.437
598.0,1.433
599.0,1.434
600.0,1.436
601.0,1.424
602.0,1.414
603.0,1.438
604.0,1.462
605.0,1.455
606.0,1.449
607.0,1.463
608.0,1.447
609.0,1.45
610.0,1.44
611.0,1.447
612.0,1.443
613.0,1.426
614.0,1.406
615.0,1.437
616.0,1.39
617.0,1.387
618.0,1.441
619.0,1.427
620.0,1.436
621.0,1.439
622.0,1.423
623.0,1.402
624.0,1.378
625.0,1.375
626.0,1.396
627.0,1.413
628.0,1.332
629.0,1.385
630.0,1.354
631.0,1.381
632.0,1.364
633.0,1.404
634.0,1.39
635.0,1.411
636.0,1.392
637.0,1.415
638.0,1.428
639.0,1.412
640.0,1.398
641.0,1.397
642.0,1.391
643.0,1.41
644.0,1.405
645.0,1.408
646.0,1.377
647.0,1.364
648.0,1.367
649.0,1.341
650.0,1.343
651.0,1.401
652.0,1.348
653.0,1.383
654.0,1.368
655.0,1.319
656.0,1.168
657.0,1.2
658.0,1.343
659.0,1.353
660.0,1.359
661.0,1.368
662.0,1.372
663.0,1.345
664.0,1.36
665.0,1.361
666.0,1.362
667.0,1.361
668.0,1.361
669.0,1.382
670.0,1.376
671.0,1.376
672.0,1.364
673.0,1.385
674.0,1.38
675.0,1.368
676.0,1.377
677.0,1.364
678.0,1.368
679.0,1.346
680.0,1.357
681.0,1.348
682.0,1.347
683.0,1.344
684.0,1.338
685.0,1.35
686.0,1.342
687.0,0.9435
688.0,1.081
689.0,1.084
690.0,1.129
691.0,1.179
692.0,1.215
693.0,1.206
694.0,1.196
695.0,1.24
696.0,1.242
697.0,1.31
698.0,1.29
699.0,1.265
700.0,1.25
701.0,1.239
702.0,1.246
703.0,1.248
704.0,1.285
705.0,1.287
706.0,1.285
707.0,1.286
708.0,1.289
709.0,1.289
710.0,1.291
711.0,1.288
712.0,1.284
713.0,1.272
714.0,1.277
715.0,1.239
716.0,1.24
717.0,1.095
718.0,1.009
719.0,0.9271
720.0,0.9726
721.0,1.062
722.0,1.202
723.0,1.126
724.0,1.022
725.0,1.009
726.0,1.055
727.0,1.066
728.0,1.008
729.0,1.039
730.0,1.099
731.0,1.054
732.0,1.12
733.0,1.179
734.0,1.205
735.0,1.181
736.0,1.18
737.0,1.185
738.0,1.199
739.0,1.176
740.0,1.205
741.0,1.192
742.0,1.193
743.0,1.223
744.0,1.219
745.0,1.219
746.0,1.225
747.0,1.228
748.0,1.225
749.0,1.212
750.0,1.211
751.0,1.199
752.0,1.204
753.0,1.21
754.0,1.213
755.0,1.207
756.0,1.206
757.0,1.208
758.0,1.194
759.0,1.172
760.0,0.2456
761.0,0.1396
762.0,0.6521
763.0,0.3561
764.0,0.5086
765.0,0.6526
766.0,0.7767
767.0,0.9559
768.0,1.084
769.0,1.103
770.0,1.136
771.0,1.143
772.0,1.145
773.0,1.153
774.0,1.147
775.0,1.138
776.0,1.152
777.0,1.137
778.0,1.131
779.0,1.132
780.0,1.125
781.0,1.127
782.0,1.134
783.0,1.114
784.0,1.12
785.0,1.112
786.0,1.124
787.0,1.107
788.0,1.094
789.0,1.094
790.0,1.068
791.0,1.075
792.0,1.066
793.0,1.05
794.0,1.065
795.0,1.084
796.0,1.054
797.0,1.056
798.0,1.083
799.0,1.077
800.0,1.059
801.0,1.057
802.0,1.054
803.0,1.047
804.0,1.048
805.0,1.043
806.0,1.071
807.0,1.059
808.0,1.06
809.0,1.041
810.0,1.034
811.0,1.037
812.0,1.01
813.0,0.9912
814.0,0.8814
815.0,0.8758
816.0,0.8167
817.0,0.8306
818.0,0.8017
819.0,0.8882
820.0,0.8397
821.0,0.9705
822.0,0.9447
823.0,0.6604
824.0,0.9212
825.0,0.9545
826.0,0.9218
827.0,0.9693
828.0,0.8319
829.0,0.9158
830.0,0.9049
831.0,0.9078
832.0,0.8819
833.0,0.9332
834.0,0.9035
835.0,0.9856
836.0,0.9479
837.0,0.9883
838.0,0.9595
839.0,0.9731
840.0,0.994
841.0,0.9808
842.0,0.9818
843.0,0.98
844.0,0.9672
845.0,0.9989
846.0,0.9944
847.0,0.9756
848.0,0.9702
849.0,0.9428
850.0,0.9032
851.0,0.957
852.0,0.9501
853.0,0.9141
854.0,0.7898
855.0,0.8672
856.0,0.948
857.0,0.9688
858.0,0.9619
859.0,0.9626
860.0,0.9642
861.0,0.9591
862.0,0.9742
863.0,0.9973
864.0,0.9474
865.0,0.9392
866.0,0.8445
867.0,0.8814
868.0,0.9592
869.0,0.9393
870.0,0.9662
871.0,0.9531
872.0,0.9498
873.0,0.948
874.0,0.9367
875.0,0.9179
876.0,0.9275
877.0,0.9369
878.0,0.9473
879.0,0.9327
880.0,0.9128
881.0,0.8994
882.0,0.919
883.0,0.9218
884.0,0.9177
885.0,0.9247
886.0,0.8823
887.0,0.891
888.0,0.9046
889.0,0.9142
890.0,0.9075
891.0,0.9056
892.0,0.8807
893.0,0.8547
894.0,0.8275
895.0,0.7856
896.0,0.7417
897.0,0.6421
898.0,0.6979
899.0,0.5369
900.0,0.7117
901.0,0.5625
902.0,0.6524
903.0,0.6614
904.0,0.8218
905.0,0.7952
906.0,0.7455
907.0,0.613
908.0,0.6242
909.0,0.6727
910.0,0.6011
911.0,0.637
912.0,0.6646
913.0,0.6104
914.0,0.6041
915.0,0.6544
916.0,0.5558
917.0,0.6987
918.0,0.5701
919.0,0.7099
920.0,0.7141
921.0,0.742
922.0,0.6677
923.0,0.7166
924.0,0.6847
925.0,0.67
926.0,0.6773
927.0,0.7542
928.0,0.5649
929.0,0.5187
930.0,0.4124
931.0,0.39
932.0,0.2856
933.0,0.2346
934.0,0.1338
935.0,0.2381
936.0,0.1519
937.0,0.1544
938.0,0.1886
939.0,0.3781
940.0,0.4516
941.0,0.3452
942.0,0.397
943.0,0.2645
944.0,0.2756
945.0,0.3552
946.0,0.1853
947.0,0.358
948.0,0.2638
949.0,0.4748
950.0,0.1388
951.0,0.4668
952.0,0.2567
953.0,0.3277
954.0,0.3976
955.0,0.331
956.0,0.3192
957.0,0.2577
958.0,0.4464
959.0,0.3592
960.0,0.4025
961.0,0.4483
962.0,0.4246
963.0,0.4864
964.0,0.4467
965.0,0.4843
966.0,0.4851
967.0,0.4834
968.0,0.6374
969.0,0.6666
970.0,0.6137
971.0,0.6979
972.0,0.6685
973.0,0.5868
974.0,0.5576
975.0,0.577
976.0,0.5504
977.0,0.6215
978.0,0.5925
979.0,0.6191
980.0,0.583
981.0,0.6939
982.0,0.6652
983.0,0.6397
984.0,0.7132
985.0,0.6628
986.0,0.7246
987.0,0.7118
988.0,0.7105
989.0,0.7218
990.0,0.7062
991.0,0.7242
992.0,0.7283
993.0,0.7133
994.0,0.728
995.0,0.727
996.0,0.724
997.0,0.725
998.0,0.7216
999.0,0.719
1000.0,0.7142
1001.0,0.7229
1002.0,0.7041
1003.0,0.7102
1004.0,0.6932
1005.0,0.6674
1006.0,0.6937
1007.0,0.7083
1008.0,0.7047
1009.0,0.7012
1010.0,0.6984
1011.0,0.7048
1012.0,0.699
1013.0,0.7031
1014.0,0.6982
1015.0,0.6937
1016.0,0.6906
1017.0,0.6924
1018.0,0.6897
1019.0,0.6754
1020.0,0.6862
1021.0,0.6852
1022.0,0.68
1023.0,0.6873
1024.0,0.6788
1025.0,0.6867
1026.0,0.6839
1027.0,0.6824
1028.0,0.681
1029.0,0.673
1030.0,0.6775
1031.0,0.6749
1032.0,0.6729
1033.0,0.6628
1034.0,0.6628
1035.0,0.6649
1036.0,0.6684
1037.0,0.6576
1038.0,0.6605
1039.0,0.6602
1040.0,0.6576
1041.0,0.6602
1042.0,0.6557
1043.0,0.6536
1044.0,0.656
1045.0,0.6471
1046.0,0.64
1047.0,0.6458
1048.0,0.6494
1049.0,0.6471
1050.0,0.6442
1051.0,0.6434
1052.0,0.6408
1053.0,0.6358
1054.0,0.6372
1055.0,0.6377
1056.0,0.6355
1057.0,0.6336
1058.0,0.6182
1059.0,0.6189
1060.0,0.618
1061.0,0.6173
1062.0,0.6207
1063.0,0.6146
1064.0,0.6219
1065.0,0.6176
1066.0,0.6053
1067.0,0.6132
1068.0,0.5999
1069.0,0.5813
1070.0,0.6012
1071.0,0.6101
1072.0,0.6034
1073.0,0.5947
1074.0,0.6096
1075.0,0.5803
1076.0,0.6092
1077.0,0.599
1078.0,0.588
1079.0,0.5994
1080.0,0.5899
1081.0,0.5715
1082.0,0.5797
1083.0,0.5813
1084.0,0.5705
1085.0,0.5912
1086.0,0.5413
1087.0,0.5574
1088.0,0.581
1089.0,0.5643
1090.0,0.5526
1091.0,0.5794
1092.0,0.5777
1093.0,0.4933
1094.0,0.529
1095.0,0.5135
1096.0,0.4927
1097.0,0.5643
1098.0,0.4854
1099.0,0.5058
1100.0,0.4718
1101.0,0.4772
1102.0,0.4567
1103.0,0.453
1104.0,0.4535
1105.0,0.4946
1106.0,0.3842
1107.0,0.4709
1108.0,0.4028
1109.0,0.4028
1110.0,0.4673
1111.0,0.3217
1112.0,0.3995
1113.0,0.2592
1114.0,0.2891
1115.0,0.2399
1116.0,0.1944
1117.0,0.07456
1118.0,0.2105
1119.0,0.107
1120.0,0.1347
1121.0,0.1773
1122.0,0.07676
1123.0,0.1217
1124.0,0.1028
1125.0,0.1334
1126.0,0.04856
1127.0,0.1503
1128.0,0.09222
1129.0,0.09752
1130.0,0.0651
1131.0,0.2797
1132.0,0.2204
1133.0,0.1426
1134.0,0.03816
1135.0,0.01422
1136.0,0.12
1137.0,0.2756
1138.0,0.1948
1139.0,0.2849
1140.0,0.2402
1141.0,0.1851
1142.0,0.2118
1143.0,0.2984
1144.0,0.1071
1145.0,0.1375
1146.0,0.1483
1147.0,0.05436
1148.0,0.2584
1149.0,0.208
1150.0,0.1149
1151.0,0.1934
1152.0,0.236
1153.0,0.2285
1154.0,0.1337
1155.0,0.2974
1156.0,0.2689
1157.0,0.3
1158.0,0.2967
1159.0,0.3186
1160.0,0.274
1161.0,0.3341
1162.0,0.336
1163.0,0.4474
1164.0,0.3862
1165.0,0.3666
1166.0,0.3624
1167.0,0.3935
1168.0,0.3984
1169.0,0.407
1170.0,0.4404
1171.0,0.4297
1172.0,0.4363
1173.0,0.4395
1174.0,0.3194
1175.0,0.4284
1176.0,0.4681
1177.0,0.4512
1178.0,0.3433
1179.0,0.4718
1180.0,0.4243
1181.0,0.4376
1182.0,0.3068
1183.0,0.4302
1184.0,0.4048
1185.0,0.392
1186.0,0.4599
1187.0,0.4396
1188.0,0.3125
1189.0,0.4099
1190.0,0.4495
1191.0,0.4295
1192.0,0.4555
1193.0,0.4374
1194.0,0.4502
1195.0,0.4277
1196.0,0.4131
1197.0,0.4495
1198.0,0.4126
1199.0,0.3553
1200.0,0.4321
1201.0,0.4183
1202.0,0.4149
1203.0,0.4116
1204.0,0.3623
1205.0,0.4233
1206.0,0.4652
1207.0,0.4143
1208.0,0.4065
1209.0,0.4146
1210.0,0.4309
1211.0,0.412
1212.0,0.409
1213.0,0.4509
1214.0,0.4179
1215.0,0.4104
1216.0,0.4494
1217.0,0.4384
1218.0,0.4459
1219.0,0.4408
1220.0,0.4462
1221.0,0.4502
1222.0,0.439
1223.0,0.4353
1224.0,0.4332
1225.0,0.4474
1226.0,0.4498
1227.0,0.4172
1228.0,0.4516
1229.0,0.4499
1230.0,0.4426
1231.0,0.4538
1232.0,0.4511
1233.0,0.4375
1234.0,0.453
1235.0,0.4504
1236.0,0.4535
1237.0,0.4479
1238.0,0.452
1239.0,0.4462
1240.0,0.4478
1241.0,0.4462
1242.0,0.4448
1243.0,0.4412
1244.0,0.4445
1245.0,0.4463
1246.0,0.4437
1247.0,0.4421
1248.0,0.442
1249.0,0.4432
1250.0,0.4406
1251.0,0.4353
1252.0,0.435
1253.0,0.4321
1254.0,0.4283
1255.0,0.4347
1256.0,0.4237
1257.0,0.4216
1258.0,0.4286
1259.0,0.4149
1260.0,0.4168
1261.0,0.3957
1262.0,0.385
1263.0,0.3858
1264.0,0.3589
1265.0,0.3833
1266.0,0.3705
1267.0,0.3759
1268.0,0.3583
1269.0,0.2344
1270.0,0.375
1271.0,0.3942
1272.0,0.3952
1273.0,0.3913
1274.0,0.3922
1275.0,0.3974
1276.0,0.4008
1277.0,0.403
1278.0,0.4098
1279.0,0.4062
1280.0,0.401
1281.0,0.3822
1282.0,0.3676
1283.0,0.396
1284.0,0.4057
1285.0,0.4082
1286.0,0.4133
1287.0,0.4077
1288.0,0.4074
1289.0,0.3959
1290.0,0.4037
1291.0,0.4091
1292.0,0.387
1293.0,0.4018
1294.0,0.3991
1295.0,0.3979
1296.0,0.3816
1297.0,0.3623
1298.0,0.3873
1299.0,0.4021
1300.0,0.345
1301.0,0.3547
1302.0,0.386
1303.0,0.34
1304.0,0.2942
1305.0,0.3784
1306.0,0.3787
1307.0,0.2991
1308.0,0.3398
1309.0,0.3762
1310.0,0.2936
1311.0,0.3268
1312.0,0.3186
1313.0,0.3131
1314.0,0.2818
1315.0,0.2791
1316.0,0.3223
1317.0,0.3058
1318.0,0.3306
1319.0,0.2634
1320.0,0.2541
1321.0,0.2943
1322.0,0.298
1323.0,0.2283
1324.0,0.2583
1325.0,0.318
1326.0,0.2755
1327.0,0.2634
1328.0,0.2284
1329.0,0.1748
1330.0,0.2259
1331.0,0.1402
1332.0,0.1435
1333.0,0.1988
1334.0,0.1666
1335.0,0.2274
1336.0,0.1818
1337.0,0.1618
1338.0,0.1751
1339.0,0.1738
1340.0,0.168
1341.0,0.1663
1342.0,0.1746
1343.0,0.1228
1344.0,0.07334
1345.0,0.1054
1346.0,0.05536
1347.0,0.0568
1348.0,0.004247
1349.0,0.01464
1350.0,0.01477
1351.0,0.004078
1352.0,0.001262
1353.0,7.517e-05
1354.0,0.0002349
1355.0,2.594e-06
1356.0,3.717e-05
1357.0,5.639e-05
1358.0,3.033e-06
1359.0,4.833e-07
1360.0,1.509e-06
1361.0,2.784e-09
1362.0,9.502e-12
1363.0,2.181e-06
1364.0,9.202e-07
1365.0,4.367e-12
1366.0,8.957e-06
1367.0,3.54e-06
1368.0,5.77e-14
1369.0,3.491e-07
1370.0,1.9e-07
1371.0,1.224e-08
1372.0,1.949e-06
1373.0,3.352e-05
1374.0,0.0001398
1375.0,0.0002546
1376.0,0.0002102
1377.0,9.876e-05
1378.0,0.0009183
1379.0,4.172e-05
1380.0,6.413e-05
1381.0,1.798e-06
1382.0,1.808e-06
1383.0,2.982e-08
1384.0,4.105e-07
1385.0,1.533e-06
1386.0,1.724e-06
1387.0,0.0001544
1388.0,3.087e-06
1389.0,0.0004662
1390.0,0.0004014
1391.0,0.0002746
1392.0,1.861e-05
1393.0,9.301e-05
1394.0,5.707e-05
1395.0,4.792e-07
1396.0,3.754e-09
1397.0,3.872e-05
1398.0,0.001043
1399.0,0.0006605
1400.0,1.847e-09
1401.0,6.442e-09
1402.0,0.001594
1403.0,0.002057
1404.0,0.0006344
1405.0,2.54e-07
1406.0,0.001725
1407.0,0.0001484
1408.0,0.001401
1409.0,0.0005091
1410.0,0.0003887
1411.0,0.0018
1412.0,0.002341
1413.0,0.02161
1414.0,0.0003039
1415.0,0.0001516
1416.0,0.03358
1417.0,0.01076
1418.0,0.01232
1419.0,0.00194
1420.0,0.007562
1421.0,0.008194
1422.0,0.04368
1423.0,0.008619
1424.0,0.01601
1425.0,0.02378
1426.0,0.02646
1427.0,0.04745
1428.0,0.004034
1429.0,0.03602
1430.0,0.06008
1431.0,0.06567
1432.0,0.003191
1433.0,0.0422
1434.0,0.02168
1435.0,0.02239
1436.0,0.0421
1437.0,0.03225
1438.0,0.01393
1439.0,0.05676
1440.0,0.04256
1441.0,0.03296
1442.0,0.03647
1443.0,0.04502
1444.0,0.06202
1445.0,0.04914
1446.0,0.02229
1447.0,0.03508
1448.0,0.1146
1449.0,0.1001
1450.0,0.02599
1451.0,0.01057
1452.0,0.06077
1453.0,0.07951
1454.0,0.1348
1455.0,0.06419
1456.0,0.08653
1457.0,0.1152
1458.0,0.1349
1459.0,0.1597
1460.0,0.08359
1461.0,0.08768
1462.0,0.1279
1463.0,0.04179
1464.0,0.1509
1465.0,0.09103
1466.0,0.06371
