interpolation:linear
wavelength,value
280.0,7.050000000000001e-26
280.5,3.103e-24
281.0,1.886e-23
281.5,7.976999999999999e-22
282.0,7.643e-21
282.5,3.3220000000000005e-20
283.0,1.68e-19
283.5,3.392e-19
284.0,1.18e-17
284.5,4.664e-17
285.0,1.266e-16
285.5,1.157e-15
286.0,5.819e-15
286.5,3.852e-14
287.0,1.44e-13
287.5,7.571e-13
288.0,4.053e-12
288.5,1.764e-11
289.0,6.486e-11
289.5,2.672e-10
290.0,9.417e-10
290.5,2.333e-09
291.0,6.223e-09
291.5,2.303e-08
292.0,6.424e-08
292.5,1.02e-07
293.0,2.534e-07
293.5,7.417e-07
294.0,1.327e-06
294.5,2.454e-06
295.0,4.593e-06
295.5,1.199e-05
296.0,2.271e-05
296.5,3.107e-05
297.0,4.122e-05
297.5,0.0001064
298.0,0.0001617
298.5,0.000158
299.0,0.0003378
299.5,0.0005248
300.0,0.0005568
300.5,0.0007747
301.0,0.001301
301.5,0.001932
302.0,0.001599
302.5,0.003072
303.0,0.00538
303.5,0.006656
304.0,0.006146
304.5,0.008654
305.0,0.01204
305.5,0.01309
306.0,0.01247
306.5,0.01506
307.0,0.02067
307.5,0.0255
308.0,0.02677
308.5,0.03058
309.0,0.02731
309.5,0.03061
310.0,0.03051
310.5,0.04937
311.0,0.06153
311.5,0.05942
312.0,0.05783
312.5,0.06914
313.0,0.07449
313.5,0.0737
314.0,0.08991
314.5,0.07681
315.0,0.1008
315.5,0.08666
316.0,0.0734
316.5,0.1026
317.0,0.1282
317.5,0.1354
318.0,0.1038
318.5,0.1238
319.0,0.1443
319.5,0.1228
320.0,0.1501
320.5,0.18
321.0,0.1541
321.5,0.1479
322.0,0.1663
322.5,0.1451
323.0,0.1407
323.5,0.1646
324.0,0.1921
324.5,0.1988
325.0,0.1798
325.5,0.2264
326.0,0.2694
326.5,0.266
327.0,0.2683
327.5,0.2628
328.0,0.241
328.5,0.2471
329.0,0.29
329.5,0.3283
330.0,0.3348
330.5,0.2745
331.0,0.2827
331.5,0.2847
332.0,0.3026
332.5,0.2979
333.0,0.3001
333.5,0.2771
334.0,0.2859
334.5,0.3256
335.0,0.3042
335.5,0.3463
336.0,0.2406
336.5,0.2932
337.0,0.2433
337.5,0.3048
338.0,0.2946
338.5,0.3334
339.0,0.3332
339.5,0.3206
340.0,0.3866
340.5,0.3494
341.0,0.3361
341.5,0.3126
342.0,0.3758
342.5,0.3536
343.0,0.3887
343.5,0.3661
344.0,0.2752
344.5,0.2731
345.0,0.3669
345.5,0.3773
346.0,0.3225
346.5,0.3669
347.0,0.394
347.5,0.3193
348.0,0.3668
348.5,0.3687
349.0,0.3435
349.5,0.3411
350.0,0.4234
350.5,0.4482
351.0,0.4012
351.5,0.3893
352.0,0.4209
352.5,0.3303
353.0,0.4178
353.5,0.4485
354.0,0.4674
354.5,0.4756
355.0,0.4753
355.5,0.4309
356.0,0.4523
356.5,0.3875
357.0,0.3212
357.5,0.3946
358.0,0.3137
358.5,0.269
359.0,0.3773
359.5,0.482
360.0,0.5127
360.5,0.4111
361.0,0.3759
361.5,0.434
362.0,0.3763
362.5,0.5222
363.0,0.4703
363.5,0.4343
364.0,0.5326
364.5,0.4565
365.0,0.4662
365.5,0.5867
366.0,0.6233
366.5,0.5871
367.0,0.5733
367.5,0.5966
368.0,0.5234
368.5,0.5295
369.0,0.5733
369.5,0.6127
370.0,0.6548
370.5,0.5095
371.0,0.5458
371.5,0.6846
372.0,0.4555
372.5,0.5476
373.0,0.5583
373.5,0.3641
374.0,0.5304
374.5,0.4403
375.0,0.429
375.5,0.6421
376.0,0.5336
376.5,0.5543
377.0,0.5882
377.5,0.6897
378.0,0.7494
378.5,0.7102
379.0,0.5876
379.5,0.5381
380.0,0.5609
380.5,0.6809
381.0,0.6838
381.5,0.5433
382.0,0.4835
382.5,0.4131
383.0,0.3833
383.5,0.3699
384.0,0.4089
384.5,0.6028
385.0,0.599
385.5,0.559
386.0,0.4797
386.5,0.6315
387.0,0.5259
387.5,0.5919
388.0,0.5476
388.5,0.5424
389.0,0.5868
389.5,0.7121
390.0,0.7161
390.5,0.6604
391.0,0.7788
391.5,0.796
392.0,0.6718
392.5,0.6026
393.0,0.3359
393.5,0.2446
394.0,0.4987
394.5,0.6352
395.0,0.7766
395.5,0.7904
396.0,0.6865
396.5,0.402
397.0,0.3023
397.5,0.6158
398.0,0.8641
398.5,0.8947
399.0,0.9703
399.5,0.9688
400.0,1.008
401.0,1.038
402.0,1.099
403.0,1.047
404.0,1.034
405.0,1.038
406.0,1.024
407.0,1.01
408.0,1.053
409.0,1.13
410.0,0.9901
411.0,1.075
412.0,1.158
413.0,1.133
414.0,1.149
415.0,1.155
416.0,1.179
417.0,1.153
418.0,1.135
419.0,1.153
420.0,1.151
421.0,1.207
422.0,1.15
423.0,1.126
424.0,1.194
425.0,1.195
426.0,1.166
427.0,1.147
428.0,1.12
429.0,1.063
430.0,0.932
431.0,0.9262
432.0,1.198
433.0,1.207
434.0,1.124
435.0,1.176
436.0,1.328
437.0,1.312
438.0,1.197
439.0,1.241
440.0,1.283
441.0,1.331
442.0,1.431
443.0,1.397
444.0,1.429
445.0,1.401
446.0,1.339
447.0,1.45
448.0,1.476
449.0,1.484
450.0,1.528
451.0,1.587
452.0,1.532
453.0,1.443
454.0,1.509
455.0,1.521
456.0,1.559
457.0,1.588
458.0,1.537
459.0,1.531
460.0,1.538
461.0,1.576
462.0,1.59
463.0,1.582
464.0,1.557
465.0,1.539
466.0,1.555
467.0,1.53
468.0,1.55
469.0,1.561
470.0,1.513
471.0,1.513
472.0,1.597
473.0,1.579
474.0,1.584
475.0,1.6
476.0,1.556
477.0,1.563
478.0,1.608
479.0,1.6
480.0,1.605
481.0,1.636
482.0,1.646
483.0,1.628
484.0,1.596
485.0,1.522
486.0,1.332
487.0,1.397
488.0,1.534
489.0,1.541
490.0,1.623
491.0,1.596
492.0,1.509
493.0,1.56
494.0,1.578
495.0,1.593
496.0,1.604
497.0,1.631
498.0,1.557
499.0,1.579
500.0,1.535
501.0,1.509
502.0,1.49
503.0,1.554
504.0,1.52
505.0,1.573
506.0,1.625
507.0,1.548
508.0,1.5
509.0,1.543
510.0,1.535
511.0,1.577
512.0,1.596
513.0,1.512
514.0,1.502
515.0,1.489
516.0,1.487
517.0,1.322
518.0,1.391
519.0,1.46
520.0,1.515
521.0,1.531
522.0,1.534
523.0,1.508
524.0,1.563
525.0,1.584
526.0,1.514
527.0,1.429
528.0,1.513
529.0,1.597
530.0,1.575
531.0,1.6
532.0,1.546
533.0,1.502
534.0,1.547
535.0,1.582
536.0,1.597
537.0,1.535
538.0,1.563
539.0,1.551
540.0,1.488
541.0,1.5
542.0,1.549
543.0,1.533
544.0,1.561
545.0,1.557
546.0,1.566
547.0,1.565
548.0,1.547
549.0,1.553
550.0,1.572
551.0,1.554
552.0,1.566
553.0,1.539
554.0,1.577
555.0,1.581
556.0,1.562
557.0,1.514
558.0,1.504
559.0,1.478
560.0,1.497
561.0,1.518
562.0,1.509
563.0,1.552
564.0,1.511
565.0,1.499
566.0,1.478
567.0,1.508
568.0,1.497
569.0,1.465
570.0,1.465
571.0,1.456
572.0,1.494
573.0,1.511
574.0,1.508
575.0,1.481
576.0,1.468
577.0,1.484
578.0,1.462
579.0,1.467
580.0,1.493
581.0,1.5
582.0,1.528
583.0,1.531
584.0,1.544
585.0,1.507
586.0,1.476
587.0,1.51
588.0,1.478
589.0,1.318
590.0,1.378
591.0,1.455
592.0,1.44
593.0,1.458
594.0,1.45
595.0,1.418
596.0,1.468
597.0,1.454
598.0,1.449
599.0,1.45
600.0,1.451
601.0,1.439
602.0,1.429
603.0,1.453
604.0,1.477
605.0,1.47
606.0,1.464
607.0,1.478
608.0,1.462
609.0,1.464
610.0,1.454
611.0,1.461
612.0,1.457
613.0,1.439
614.0,1.42
615.0,1.45
616.0,1.403
617.0,1.4
618.0,1.454
619.0,1.44
620.0,1.449
621.0,1.452
622.0,1.436
623.0,1.415
624.0,1.391
625.0,1.388
626.0,1.409
627.0,1.426
628.0,1.349
629.0,1.399
630.0,1.368
631.0,1.394
632.0,1.377
633.0,1.417
634.0,1.401
635.0,1.423
636.0,1.403
637.0,1.426
638.0,1.439
639.0,1.423
640.0,1.408
641.0,1.407
642.0,1.401
643.0,1.42
644.0,1.415
645.0,1.418
646.0,1.387
647.0,1.376
648.0,1.378
649.0,1.352
650.0,1.353
651.0,1.411
652.0,1.359
653.0,1.393
654.0,1.377
655.0,1.329
656.0,1.176
657.0,1.208
658.0,1.352
659.0,1.362
660.0,1.367
661.0,1.377
662.0,1.381
663.0,1.354
664.0,1.369
665.0,1.369
666.0,1.37
667.0,1.368
668.0,1.368
669.0,1.39
670.0,1.384
671.0,1.383
672.0,1.372
673.0,1.392
674.0,1.387
675.0,1.375
676.0,1.384
677.0,1.37
678.0,1.374
679.0,1.352
680.0,1.363
681.0,1.355
682.0,1.353
683.0,1.351
684.0,1.344
685.0,1.356
686.0,1.348
687.0,0.9679
688.0,1.099
689.0,1.103
690.0,1.145
691.0,1.192
692.0,1.226
693.0,1.217
694.0,1.207
695.0,1.249
696.0,1.251
697.0,1.316
698.0,1.296
699.0,1.273
700.0,1.258
701.0,1.248
702.0,1.254
703.0,1.256
704.0,1.292
705.0,1.295
706.0,1.292
707.0,1.293
708.0,1.296
709.0,1.295
710.0,1.297
711.0,1.294
712.0,1.289
713.0,1.278
714.0,1.283
715.0,1.245
716.0,1.247
717.0,1.108
718.0,1.023
719.0,0.9403
720.0,0.9868
721.0,1.073
722.0,1.209
723.0,1.135
724.0,1.034
725.0,1.021
726.0,1.067
727.0,1.076
728.0,1.02
729.0,1.049
730.0,1.11
731.0,1.065
732.0,1.129
733.0,1.186
734.0,1.212
735.0,1.188
736.0,1.187
737.0,1.192
738.0,1.204
739.0,1.181
740.0,1.21
741.0,1.197
742.0,1.197
743.0,1.227
744.0,1.223
745.0,1.223
746.0,1.229
747.0,1.231
748.0,1.229
749.0,1.215
750.0,1.215
751.0,1.202
752.0,1.208
753.0,1.214
754.0,1.217
755.0,1.21
756.0,1.21
757.0,1.212
758.0,1.197
759.0,1.176
760.0,0.2695
761.0,0.1581
762.0,0.6759
763.0,0.3825
764.0,0.5351
765.0,0.6765
766.0,0.7953
767.0,0.9691
768.0,1.091
769.0,1.109
770.0,1.14
771.0,1.146
772.0,1.148
773.0,1.156
774.0,1.15
775.0,1.141
776.0,1.155
777.0,1.14
778.0,1.133
779.0,1.134
780.0,1.128
781.0,1.129
782.0,1.137
783.0,1.117
784.0,1.122
785.0,1.114
786.0,1.127
787.0,1.11
788.0,1.098
789.0,1.098
790.0,1.073
791.0,1.078
792.0,1.07
793.0,1.053
794.0,1.067
795.0,1.086
796.0,1.059
797.0,1.06
798.0,1.086
799.0,1.08
800.0,1.063
801.0,1.061
802.0,1.058
803.0,1.051
804.0,1.052
805.0,1.047
806.0,1.074
807.0,1.062
808.0,1.062
809.0,1.045
810.0,1.038
811.0,1.042
812.0,1.016
813.0,0.9973
814.0,0.8907
815.0,0.8849
816.0,0.8258
817.0,0.8393
818.0,0.8109
819.0,0.895
820.0,0.8476
821.0,0.975
822.0,0.9498
823.0,0.6715
824.0,0.9277
825.0,0.9592
826.0,0.9277
827.0,0.9739
828.0,0.8401
829.0,0.9213
830.0,0.9108
831.0,0.9136
832.0,0.8883
833.0,0.9377
834.0,0.9093
835.0,0.9889
836.0,0.9529
837.0,0.9915
838.0,0.9635
839.0,0.9761
840.0,0.9968
841.0,0.984
842.0,0.9843
843.0,0.982
844.0,0.9695
845.0,1.001
846.0,0.9963
847.0,0.9772
848.0,0.9721
849.0,0.9446
850.0,0.9049
851.0,0.9591
852.0,0.952
853.0,0.9158
854.0,0.7913
855.0,0.8687
856.0,0.9497
857.0,0.9704
858.0,0.9636
859.0,0.9642
860.0,0.9657
861.0,0.9606
862.0,0.9756
863.0,0.9987
864.0,0.9488
865.0,0.9406
866.0,0.8458
867.0,0.8827
868.0,0.9606
869.0,0.9407
870.0,0.9675
871.0,0.9544
872.0,0.9511
873.0,0.9492
874.0,0.938
875.0,0.9191
876.0,0.9288
877.0,0.9382
878.0,0.9486
879.0,0.934
880.0,0.9141
881.0,0.9008
882.0,0.9205
883.0,0.9231
884.0,0.919
885.0,0.9261
886.0,0.884
887.0,0.8924
888.0,0.9063
889.0,0.9155
890.0,0.9093
891.0,0.9071
892.0,0.8827
893.0,0.8575
894.0,0.8317
895.0,0.7914
896.0,0.7481
897.0,0.6502
898.0,0.7052
899.0,0.5457
900.0,0.7176
901.0,0.5716
902.0,0.6587
903.0,0.6692
904.0,0.8259
905.0,0.8
906.0,0.7507
907.0,0.6212
908.0,0.6319
909.0,0.6792
910.0,0.6102
911.0,0.6447
912.0,0.6718
913.0,0.6198
914.0,0.6129
915.0,0.6635
916.0,0.5646
917.0,0.706
918.0,0.5792
919.0,0.7165
920.0,0.719
921.0,0.7467
922.0,0.6744
923.0,0.721
924.0,0.6917
925.0,0.6768
926.0,0.6843
927.0,0.7596
928.0,0.5757
929.0,0.5304
930.0,0.4247
931.0,0.4011
932.0,0.2968
933.0,0.2455
934.0,0.1436
935.0,0.2477
936.0,0.1603
937.0,0.1632
938.0,0.1985
939.0,0.3889
940.0,0.4623
941.0,0.3563
942.0,0.4079
943.0,0.2741
944.0,0.2836
945.0,0.3662
946.0,0.1942
947.0,0.3698
948.0,0.273
949.0,0.4873
950.0,0.1475
951.0,0.4786
952.0,0.2674
953.0,0.3386
954.0,0.4078
955.0,0.3417
956.0,0.3282
957.0,0.2688
958.0,0.4545
959.0,0.3691
960.0,0.4134
961.0,0.458
962.0,0.4341
963.0,0.4951
964.0,0.4554
965.0,0.4927
966.0,0.4941
967.0,0.4925
968.0,0.6421
969.0,0.672
970.0,0.6198
971.0,0.7014
972.0,0.6725
973.0,0.5936
974.0,0.5647
975.0,0.583
976.0,0.5578
977.0,0.6264
978.0,0.5987
979.0,0.6244
980.0,0.5888
981.0,0.6973
982.0,0.6697
983.0,0.6447
984.0,0.7154
985.0,0.6671
986.0,0.726
987.0,0.714
988.0,0.7127
989.0,0.7227
990.0,0.7083
991.0,0.7252
992.0,0.7292
993.0,0.7151
994.0,0.7288
995.0,0.7276
996.0,0.7248
997.0,0.7257
998.0,0.7224
999.0,0.7197
1000.0,0.7152
1001.0,0.7236
1002.0,0.7057
1003.0,0.711
1004.0,0.6941
1005.0,0.668
1006.0,0.6945
1007.0,0.7091
1008.0,0.7056
1009.0,0.7022
1010.0,0.6995
1011.0,0.7055
1012.0,0.6998
1013.0,0.7037
1014.0,0.6988
1015.0,0.6943
1016.0,0.6913
1017.0,0.6931
1018.0,0.6903
1019.0,0.6763
1020.0,0.6868
1021.0,0.6858
1022.0,0.6807
1023.0,0.688
1024.0,0.6799
1025.0,0.6873
1026.0,0.6846
1027.0,0.683
1028.0,0.6817
1029.0,0.6737
1030.0,0.6781
1031.0,0.6755
1032.0,0.6735
1033.0,0.6634
1034.0,0.6634
1035.0,0.6655
1036.0,0.6691
1037.0,0.6582
1038.0,0.6611
1039.0,0.6608
1040.0,0.6582
1041.0,0.6609
1042.0,0.6563
1043.0,0.6543
1044.0,0.6567
1045.0,0.6478
1046.0,0.6407
1047.0,0.6466
1048.0,0.6502
1049.0,0.6479
1050.0,0.645
1051.0,0.6442
1052.0,0.6417
1053.0,0.6367
1054.0,0.6382
1055.0,0.6387
1056.0,0.6366
1057.0,0.6347
1058.0,0.6192
1059.0,0.6201
1060.0,0.6192
1061.0,0.6185
1062.0,0.6219
1063.0,0.6159
1064.0,0.6232
1065.0,0.619
1066.0,0.6065
1067.0,0.6145
1068.0,0.6013
1069.0,0.5826
1070.0,0.6026
1071.0,0.6113
1072.0,0.6047
1073.0,0.5959
1074.0,0.6106
1075.0,0.5821
1076.0,0.6103
1077.0,0.6005
1078.0,0.5896
1079.0,0.6002
1080.0,0.5914
1081.0,0.5734
1082.0,0.5809
1083.0,0.5822
1084.0,0.5726
1085.0,0.5926
1086.0,0.5441
1087.0,0.5591
1088.0,0.5821
1089.0,0.5662
1090.0,0.5551
1091.0,0.5807
1092.0,0.5789
1093.0,0.4969
1094.0,0.5304
1095.0,0.5168
1096.0,0.4967
1097.0,0.5654
1098.0,0.4896
1099.0,0.5097
1100.0,0.4766
1101.0,0.4818
1102.0,0.4618
1103.0,0.4585
1104.0,0.459
1105.0,0.4987
1106.0,0.3919
1107.0,0.4757
1108.0,0.4095
1109.0,0.409
1110.0,0.4724
1111.0,0.3289
1112.0,0.4054
1113.0,0.2669
1114.0,0.2973
1115.0,0.2468
1116.0,0.2024
1117.0,0.08031
1118.0,0.2182
1119.0,0.113
1120.0,0.1424
1121.0,0.186
1122.0,0.08239
1123.0,0.1285
1124.0,0.1086
1125.0,0.1405
1126.0,0.05298
1127.0,0.1581
1128.0,0.09897
1129.0,0.1043
1130.0,0.07054
1131.0,0.2894
1132.0,0.229
1133.0,0.1507
1134.0,0.0419
1135.0,0.01554
1136.0,0.1277
1137.0,0.286
1138.0,0.2027
1139.0,0.2919
1140.0,0.2479
1141.0,0.1926
1142.0,0.2194
1143.0,0.3072
1144.0,0.1126
1145.0,0.1452
1146.0,0.1567
1147.0,0.05938
1148.0,0.2661
1149.0,0.2157
1150.0,0.1208
1151.0,0.2013
1152.0,0.2439
1153.0,0.2349
1154.0,0.1416
1155.0,0.3047
1156.0,0.2765
1157.0,0.3071
1158.0,0.3037
1159.0,0.3248
1160.0,0.2809
1161.0,0.3398
1162.0,0.342
1163.0,0.451
1164.0,0.3909
1165.0,0.3725
1166.0,0.3673
1167.0,0.398
1168.0,0.4032
1169.0,0.4114
1170.0,0.4439
1171.0,0.4333
1172.0,0.4393
1173.0,0.443
1174.0,0.3254
1175.0,0.4313
1176.0,0.4697
1177.0,0.4538
1178.0,0.3478
1179.0,0.4733
1180.0,0.4275
1181.0,0.4406
1182.0,0.3117
1183.0,0.4328
1184.0,0.4082
1185.0,0.3961
1186.0,0.4621
1187.0,0.4425
1188.0,0.3177
1189.0,0.4128
1190.0,0.4516
1191.0,0.4328
1192.0,0.4574
1193.0,0.4398
1194.0,0.4523
1195.0,0.4306
1196.0,0.4166
1197.0,0.451
1198.0,0.4148
1199.0,0.3593
1200.0,0.4345
1201.0,0.4213
1202.0,0.4176
1203.0,0.4142
1204.0,0.3659
1205.0,0.4253
1206.0,0.4662
1207.0,0.4172
1208.0,0.4087
1209.0,0.4166
1210.0,0.4325
1211.0,0.4144
1212.0,0.4123
1213.0,0.4524
1214.0,0.4208
1215.0,0.4135
1216.0,0.4508
1217.0,0.4402
1218.0,0.4473
1219.0,0.4424
1220.0,0.4476
1221.0,0.4513
1222.0,0.4404
1223.0,0.4368
1224.0,0.435
1225.0,0.4485
1226.0,0.4507
1227.0,0.4191
1228.0,0.4523
1229.0,0.4508
1230.0,0.4437
1231.0,0.4542
1232.0,0.4516
1233.0,0.4388
1234.0,0.4533
1235.0,0.4508
1236.0,0.4538
1237.0,0.4486
1238.0,0.4523
1239.0,0.4465
1240.0,0.4481
1241.0,0.4466
1242.0,0.4451
1243.0,0.4414
1244.0,0.4448
1245.0,0.4466
1246.0,0.4439
1247.0,0.4424
1248.0,0.4424
1249.0,0.4435
1250.0,0.441
1251.0,0.4358
1252.0,0.4354
1253.0,0.4328
1254.0,0.4292
1255.0,0.4352
1256.0,0.4247
1257.0,0.4227
1258.0,0.4292
1259.0,0.4163
1260.0,0.4182
1261.0,0.3981
1262.0,0.3879
1263.0,0.3887
1264.0,0.3629
1265.0,0.3862
1266.0,0.374
1267.0,0.3789
1268.0,0.362
1269.0,0.2428
1270.0,0.3782
1271.0,0.3964
1272.0,0.3973
1273.0,0.3934
1274.0,0.3942
1275.0,0.3993
1276.0,0.4025
1277.0,0.4044
1278.0,0.4108
1279.0,0.4073
1280.0,0.402
1281.0,0.383
1282.0,0.368
1283.0,0.3966
1284.0,0.4063
1285.0,0.4088
1286.0,0.4137
1287.0,0.4084
1288.0,0.408
1289.0,0.3972
1290.0,0.4043
1291.0,0.4096
1292.0,0.3887
1293.0,0.4026
1294.0,0.4
1295.0,0.399
1296.0,0.3835
1297.0,0.3647
1298.0,0.3886
1299.0,0.4027
1300.0,0.3478
1301.0,0.3571
1302.0,0.3872
1303.0,0.3425
1304.0,0.2985
1305.0,0.3798
1306.0,0.3802
1307.0,0.3027
1308.0,0.342
1309.0,0.3779
1310.0,0.2972
1311.0,0.3293
1312.0,0.3214
1313.0,0.3162
1314.0,0.2854
1315.0,0.2831
1316.0,0.3252
1317.0,0.3088
1318.0,0.333
1319.0,0.2678
1320.0,0.2579
1321.0,0.2978
1322.0,0.3019
1323.0,0.2333
1324.0,0.2626
1325.0,0.3209
1326.0,0.2794
1327.0,0.2675
1328.0,0.2326
1329.0,0.1799
1330.0,0.2316
1331.0,0.146
1332.0,0.1487
1333.0,0.2053
1334.0,0.1712
1335.0,0.2325
1336.0,0.187
1337.0,0.1672
1338.0,0.1807
1339.0,0.1791
1340.0,0.1726
1341.0,0.1722
1342.0,0.1806
1343.0,0.13
1344.0,0.07755
1345.0,0.1111
1346.0,0.06034
1347.0,0.06222
1348.0,0.005063
1349.0,0.01701
1350.0,0.01685
1351.0,0.005014
1352.0,0.001672
1353.0,0.0001091
1354.0,0.0003225
1355.0,4.258e-06
1356.0,5.439e-05
1357.0,8.222e-05
1358.0,4.945e-06
1359.0,8.961e-07
1360.0,2.576e-06
1361.0,6.302e-09
1362.0,2.45e-11
1363.0,3.83e-06
1364.0,1.643e-06
1365.0,1.302e-11
1366.0,1.518e-05
1367.0,5.92e-06
1368.0,2.306e-13
1369.0,6.299e-07
1370.0,3.618e-07
1371.0,2.507e-08
1372.0,3.265e-06
1373.0,5.114e-05
1374.0,0.0002005
1375.0,0.0003638
1376.0,0.0002878
1377.0,0.0001373
1378.0,0.001233
1379.0,5.827e-05
1380.0,9.265e-05
1381.0,2.717e-06
1382.0,3.073e-06
1383.0,5.384e-08
1384.0,7.555e-07
1385.0,2.46e-06
1386.0,3.038e-06
1387.0,0.0002282
1388.0,4.647e-06
1389.0,0.0006465
1390.0,0.0005559
1391.0,0.0003867
1392.0,2.696e-05
1393.0,0.00013
1394.0,8.749e-05
1395.0,7.984e-07
1396.0,8.193e-09
1397.0,5.552e-05
1398.0,0.001406
1399.0,0.0008912
1400.0,4.326e-09
1401.0,1.368e-08
1402.0,0.001988
1403.0,0.0026
1404.0,0.0008072
1405.0,4.435e-07
1406.0,0.002245
1407.0,0.0001917
1408.0,0.001817
1409.0,0.0006913
1410.0,0.0005157
1411.0,0.00227
1412.0,0.002887
1413.0,0.0248
1414.0,0.0004013
1415.0,0.0002048
1416.0,0.03711
1417.0,0.01245
1418.0,0.01429
1419.0,0.002278
1420.0,0.008791
1421.0,0.009567
1422.0,0.0481
1423.0,0.009652
1424.0,0.0178
1425.0,0.02661
1426.0,0.0291
1427.0,0.05098
1428.0,0.004837
1429.0,0.03924
1430.0,0.06413
1431.0,0.06976
1432.0,0.003841
1433.0,0.04533
1434.0,0.02353
1435.0,0.02515
1436.0,0.04597
1437.0,0.03523
1438.0,0.01559
1439.0,0.06139
1440.0,0.04611
1441.0,0.03635
1442.0,0.04008
1443.0,0.0485
1444.0,0.06638
1445.0,0.05341
1446.0,0.02448
1447.0,0.0385
1448.0,0.1199
1449.0,0.1055
1450.0,0.02849
1451.0,0.0118
1452.0,0.06488
1453.0,0.08439
1454.0,0.14
1455.0,0.06783
1456.0,0.09189
1457.0,0.1205
1458.0,0.1393
1459.0,0.1652
1460.0,0.08744
1461.0,0.09251
1462.0,0.1334
1463.0,0.04462
1464.0,0.1558
1465.0,0.09434
