interpolation:linear
wavelength,value
280.0,5.9860000000000004e-21
280.5,1.281e-19
281.0,5.979e-19
281.5,1.259e-17
282.0,7.891e-17
282.5,2.577e-16
283.0,9.52e-16
283.5,1.643e-15
284.0,2.759e-14
284.5,7.826e-14
285.0,1.484e-13
285.5,8.885e-13
286.0,3.767e-12
286.5,1.754e-11
287.0,5.06e-11
287.5,1.894e-10
288.0,6.607e-10
288.5,2.289e-09
289.0,6.659e-09
289.5,2.119e-08
290.0,6.047e-08
290.5,1.255e-07
291.0,2.706e-07
291.5,7.639e-07
292.0,1.709e-06
292.5,2.398e-06
293.0,5.079e-06
293.5,1.197e-05
294.0,1.849e-05
294.5,3.061e-05
295.0,4.987e-05
295.5,0.0001096
296.0,0.0001846
296.5,0.0002258
297.0,0.0002741
297.5,0.000625
298.0,0.0008597
298.5,0.0007797
299.0,0.001555
299.5,0.002162
300.0,0.002164
300.5,0.002844
301.0,0.004401
301.5,0.006112
302.0,0.004897
302.5,0.008886
303.0,0.01451
303.5,0.01724
304.0,0.01561
304.5,0.02099
305.0,0.0275
305.5,0.02883
306.0,0.02706
306.5,0.03192
307.0,0.04187
307.5,0.0496
308.0,0.05163
308.5,0.05781
309.0,0.05081
309.5,0.05462
310.0,0.05338
310.5,0.08547
311.0,0.1048
311.5,0.1004
312.0,0.0948
312.5,0.1111
313.0,0.1184
313.5,0.1179
314.0,0.1406
314.5,0.1169
315.0,0.1523
315.5,0.1323
316.0,0.1097
316.5,0.1505
317.0,0.1878
317.5,0.1989
318.0,0.1506
318.5,0.1758
319.0,0.2026
319.5,0.1748
320.0,0.2136
320.5,0.251
321.0,0.2113
321.5,0.202
322.0,0.2305
322.5,0.2005
323.0,0.1922
323.5,0.2205
324.0,0.2563
324.5,0.2665
325.0,0.2434
325.5,0.3035
326.0,0.3565
326.5,0.349
327.0,0.3523
327.5,0.3456
328.0,0.3197
328.5,0.3233
329.0,0.3759
329.5,0.424
330.0,0.4325
330.5,0.356
331.0,0.367
331.5,0.3672
332.0,0.3875
332.5,0.3799
333.0,0.3827
333.5,0.3544
334.0,0.3653
334.5,0.4134
335.0,0.3848
335.5,0.4369
336.0,0.3031
336.5,0.3696
337.0,0.307
337.5,0.3842
338.0,0.3695
338.5,0.4171
339.0,0.4161
339.5,0.3998
340.0,0.4823
340.5,0.4352
341.0,0.4175
341.5,0.3875
342.0,0.4652
342.5,0.437
343.0,0.48
343.5,0.4518
344.0,0.3397
344.5,0.3364
345.0,0.4507
345.5,0.4627
346.0,0.395
346.5,0.4488
347.0,0.4815
347.5,0.3897
348.0,0.4471
348.5,0.4489
349.0,0.4176
349.5,0.4142
350.0,0.5135
350.5,0.5429
351.0,0.4855
351.5,0.4708
352.0,0.5083
352.5,0.3983
353.0,0.5032
353.5,0.5396
354.0,0.5618
354.5,0.5711
355.0,0.5703
355.5,0.5163
356.0,0.5414
356.5,0.4634
357.0,0.3839
357.5,0.4711
358.0,0.3742
358.5,0.3205
359.0,0.4493
359.5,0.5735
360.0,0.6094
360.5,0.4883
361.0,0.446
361.5,0.5143
362.0,0.4453
362.5,0.6171
363.0,0.5551
363.5,0.5121
364.0,0.6273
364.5,0.5372
365.0,0.5481
365.5,0.6892
366.0,0.7314
366.5,0.6883
367.0,0.6715
367.5,0.6982
368.0,0.612
368.5,0.6186
369.0,0.6692
369.5,0.7145
370.0,0.7629
370.5,0.5931
371.0,0.6348
371.5,0.7956
372.0,0.529
372.5,0.6354
373.0,0.6472
373.5,0.4217
374.0,0.6138
374.5,0.5091
375.0,0.4957
375.5,0.7415
376.0,0.6157
376.5,0.6392
377.0,0.6777
377.5,0.7941
378.0,0.8623
378.5,0.8166
379.0,0.6753
379.5,0.6181
380.0,0.6438
380.5,0.7808
381.0,0.7835
381.5,0.6219
382.0,0.553
382.5,0.472
383.0,0.4376
383.5,0.4221
384.0,0.4662
384.5,0.6867
385.0,0.6819
385.5,0.6359
386.0,0.5454
386.5,0.7173
387.0,0.597
387.5,0.6715
388.0,0.6209
388.5,0.6146
389.0,0.6644
389.5,0.8058
390.0,0.8097
390.5,0.7462
391.0,0.8795
391.5,0.8984
392.0,0.7578
392.5,0.6792
393.0,0.3784
393.5,0.2754
394.0,0.561
394.5,0.7141
395.0,0.8725
395.5,0.8876
396.0,0.7705
396.5,0.4509
397.0,0.3388
397.5,0.6899
398.0,0.9676
398.5,1.001
399.0,1.085
399.5,1.083
400.0,1.126
401.0,1.159
402.0,1.225
403.0,1.166
404.0,1.15
405.0,1.153
406.0,1.136
407.0,1.12
408.0,1.166
409.0,1.25
410.0,1.094
411.0,1.187
412.0,1.277
413.0,1.248
414.0,1.266
415.0,1.271
416.0,1.295
417.0,1.266
418.0,1.244
419.0,1.263
420.0,1.26
421.0,1.32
422.0,1.257
423.0,1.23
424.0,1.303
425.0,1.303
426.0,1.27
427.0,1.248
428.0,1.218
429.0,1.155
430.0,1.012
431.0,1.005
432.0,1.299
433.0,1.308
434.0,1.217
435.0,1.273
436.0,1.435
437.0,1.417
438.0,1.291
439.0,1.339
440.0,1.383
441.0,1.434
442.0,1.54
443.0,1.503
444.0,1.537
445.0,1.506
446.0,1.438
447.0,1.556
448.0,1.584
449.0,1.59
450.0,1.636
451.0,1.699
452.0,1.639
453.0,1.543
454.0,1.612
455.0,1.624
456.0,1.664
457.0,1.694
458.0,1.639
459.0,1.632
460.0,1.639
461.0,1.678
462.0,1.692
463.0,1.683
464.0,1.655
465.0,1.634
466.0,1.651
467.0,1.624
468.0,1.645
469.0,1.655
470.0,1.605
471.0,1.604
472.0,1.692
473.0,1.672
474.0,1.678
475.0,1.695
476.0,1.648
477.0,1.656
478.0,1.703
479.0,1.693
480.0,1.697
481.0,1.729
482.0,1.738
483.0,1.717
484.0,1.682
485.0,1.604
486.0,1.402
487.0,1.47
488.0,1.615
489.0,1.622
490.0,1.707
491.0,1.678
492.0,1.586
493.0,1.639
494.0,1.657
495.0,1.672
496.0,1.684
497.0,1.711
498.0,1.633
499.0,1.655
500.0,1.609
501.0,1.582
502.0,1.563
503.0,1.63
504.0,1.597
505.0,1.65
506.0,1.705
507.0,1.623
508.0,1.572
509.0,1.616
510.0,1.607
511.0,1.65
512.0,1.668
513.0,1.58
514.0,1.57
515.0,1.555
516.0,1.553
517.0,1.38
518.0,1.452
519.0,1.524
520.0,1.581
521.0,1.597
522.0,1.6
523.0,1.573
524.0,1.631
525.0,1.653
526.0,1.58
527.0,1.491
528.0,1.579
529.0,1.666
530.0,1.644
531.0,1.67
532.0,1.614
533.0,1.567
534.0,1.614
535.0,1.649
536.0,1.665
537.0,1.599
538.0,1.628
539.0,1.616
540.0,1.55
541.0,1.563
542.0,1.614
543.0,1.596
544.0,1.626
545.0,1.621
546.0,1.631
547.0,1.63
548.0,1.61
549.0,1.616
550.0,1.636
551.0,1.616
552.0,1.628
553.0,1.6
554.0,1.64
555.0,1.644
556.0,1.624
557.0,1.575
558.0,1.564
559.0,1.537
560.0,1.557
561.0,1.579
562.0,1.57
563.0,1.615
564.0,1.572
565.0,1.56
566.0,1.539
567.0,1.57
568.0,1.56
569.0,1.53
570.0,1.529
571.0,1.519
572.0,1.56
573.0,1.578
574.0,1.575
575.0,1.547
576.0,1.534
577.0,1.55
578.0,1.526
579.0,1.53
580.0,1.555
581.0,1.561
582.0,1.588
583.0,1.59
584.0,1.603
585.0,1.563
586.0,1.532
587.0,1.568
588.0,1.538
589.0,1.379
590.0,1.441
591.0,1.516
592.0,1.503
593.0,1.519
594.0,1.512
595.0,1.48
596.0,1.527
597.0,1.513
598.0,1.506
599.0,1.507
600.0,1.506
601.0,1.492
602.0,1.482
603.0,1.506
604.0,1.531
605.0,1.523
606.0,1.515
607.0,1.53
608.0,1.512
609.0,1.514
610.0,1.502
611.0,1.51
612.0,1.505
613.0,1.486
614.0,1.466
615.0,1.497
616.0,1.447
617.0,1.444
618.0,1.5
619.0,1.484
620.0,1.494
621.0,1.497
622.0,1.481
623.0,1.46
624.0,1.435
625.0,1.432
626.0,1.453
627.0,1.473
628.0,1.409
629.0,1.45
630.0,1.418
631.0,1.439
632.0,1.421
633.0,1.46
634.0,1.442
635.0,1.463
636.0,1.442
637.0,1.465
638.0,1.477
639.0,1.46
640.0,1.444
641.0,1.443
642.0,1.435
643.0,1.455
644.0,1.449
645.0,1.453
646.0,1.423
647.0,1.415
648.0,1.418
649.0,1.392
650.0,1.387
651.0,1.445
652.0,1.398
653.0,1.427
654.0,1.41
655.0,1.364
656.0,1.205
657.0,1.237
658.0,1.383
659.0,1.391
660.0,1.397
661.0,1.407
662.0,1.412
663.0,1.384
664.0,1.397
665.0,1.396
666.0,1.396
667.0,1.394
668.0,1.394
669.0,1.415
670.0,1.409
671.0,1.408
672.0,1.396
673.0,1.417
674.0,1.411
675.0,1.398
676.0,1.407
677.0,1.393
678.0,1.397
679.0,1.374
680.0,1.385
681.0,1.376
682.0,1.375
683.0,1.372
684.0,1.366
685.0,1.377
686.0,1.37
687.0,1.055
688.0,1.165
689.0,1.167
690.0,1.201
691.0,1.238
692.0,1.263
693.0,1.256
694.0,1.247
695.0,1.281
696.0,1.283
697.0,1.339
698.0,1.319
699.0,1.302
700.0,1.287
701.0,1.278
702.0,1.282
703.0,1.285
704.0,1.317
705.0,1.32
706.0,1.315
707.0,1.315
708.0,1.318
709.0,1.315
710.0,1.318
711.0,1.315
712.0,1.309
713.0,1.298
714.0,1.302
715.0,1.267
716.0,1.269
717.0,1.155
718.0,1.072
719.0,0.9892
720.0,1.039
721.0,1.113
722.0,1.235
723.0,1.17
724.0,1.077
725.0,1.067
726.0,1.112
727.0,1.116
728.0,1.067
729.0,1.087
730.0,1.149
731.0,1.106
732.0,1.163
733.0,1.211
734.0,1.235
735.0,1.212
736.0,1.21
737.0,1.216
738.0,1.222
739.0,1.199
740.0,1.226
741.0,1.212
742.0,1.211
743.0,1.241
744.0,1.236
745.0,1.235
746.0,1.241
747.0,1.244
748.0,1.241
749.0,1.227
750.0,1.227
751.0,1.214
752.0,1.219
753.0,1.226
754.0,1.229
755.0,1.222
756.0,1.221
757.0,1.223
758.0,1.208
759.0,1.191
760.0,0.3694
761.0,0.2417
762.0,0.7636
763.0,0.4877
764.0,0.636
765.0,0.7646
766.0,0.8621
767.0,1.016
768.0,1.117
769.0,1.129
770.0,1.154
771.0,1.157
772.0,1.158
773.0,1.166
774.0,1.16
775.0,1.151
776.0,1.165
777.0,1.15
778.0,1.143
779.0,1.144
780.0,1.137
781.0,1.139
782.0,1.146
783.0,1.126
784.0,1.131
785.0,1.123
786.0,1.136
787.0,1.122
788.0,1.111
789.0,1.111
790.0,1.09
791.0,1.092
792.0,1.083
793.0,1.066
794.0,1.076
795.0,1.096
796.0,1.074
797.0,1.076
798.0,1.097
799.0,1.092
800.0,1.076
801.0,1.075
802.0,1.072
803.0,1.065
804.0,1.065
805.0,1.059
806.0,1.083
807.0,1.072
808.0,1.072
809.0,1.056
810.0,1.051
811.0,1.057
812.0,1.035
813.0,1.019
814.0,0.9245
815.0,0.9182
816.0,0.8595
817.0,0.8714
818.0,0.8451
819.0,0.9198
820.0,0.8764
821.0,0.9908
822.0,0.9682
823.0,0.7139
824.0,0.9512
825.0,0.976
826.0,0.949
827.0,0.9907
828.0,0.8702
829.0,0.9414
830.0,0.9324
831.0,0.9345
832.0,0.9115
833.0,0.9536
834.0,0.9299
835.0,1.0
836.0,0.9707
837.0,1.002
838.0,0.9769
839.0,0.9863
840.0,1.007
841.0,0.9948
842.0,0.9933
843.0,0.9889
844.0,0.9774
845.0,1.008
846.0,1.003
847.0,0.9828
848.0,0.9785
849.0,0.9508
850.0,0.9107
851.0,0.9662
852.0,0.9586
853.0,0.9214
854.0,0.7968
855.0,0.8738
856.0,0.9556
857.0,0.9759
858.0,0.9692
859.0,0.9694
860.0,0.9707
861.0,0.9656
862.0,0.9806
863.0,1.004
864.0,0.9536
865.0,0.9452
866.0,0.8499
867.0,0.887
868.0,0.9652
869.0,0.9452
870.0,0.9721
871.0,0.959
872.0,0.9555
873.0,0.9537
874.0,0.9424
875.0,0.9234
876.0,0.9332
877.0,0.9425
878.0,0.9531
879.0,0.9384
880.0,0.9184
881.0,0.9054
882.0,0.9254
883.0,0.9276
884.0,0.9236
885.0,0.9307
886.0,0.89
887.0,0.8972
888.0,0.912
889.0,0.9198
890.0,0.9152
891.0,0.9121
892.0,0.8897
893.0,0.8672
894.0,0.8462
895.0,0.812
896.0,0.7715
897.0,0.6807
898.0,0.7321
899.0,0.5797
900.0,0.7391
901.0,0.606
902.0,0.6821
903.0,0.6978
904.0,0.8403
905.0,0.8172
906.0,0.7696
907.0,0.6515
908.0,0.6611
909.0,0.703
910.0,0.6445
911.0,0.6737
912.0,0.6984
913.0,0.6551
914.0,0.6458
915.0,0.6966
916.0,0.5982
917.0,0.7323
918.0,0.6137
919.0,0.7404
920.0,0.7374
921.0,0.7633
922.0,0.6988
923.0,0.7368
924.0,0.7165
925.0,0.7018
926.0,0.7091
927.0,0.7782
928.0,0.6158
929.0,0.5743
930.0,0.4719
931.0,0.4434
932.0,0.3399
933.0,0.2885
934.0,0.184
935.0,0.2852
936.0,0.194
937.0,0.1993
938.0,0.2384
939.0,0.4298
940.0,0.5028
941.0,0.3992
942.0,0.449
943.0,0.3112
944.0,0.3144
945.0,0.4084
946.0,0.2296
947.0,0.4155
948.0,0.3095
949.0,0.5342
950.0,0.1841
951.0,0.5225
952.0,0.31
953.0,0.3812
954.0,0.4467
955.0,0.3832
956.0,0.3644
957.0,0.3135
958.0,0.4853
959.0,0.4073
960.0,0.4553
961.0,0.4948
962.0,0.4708
963.0,0.5282
964.0,0.4891
965.0,0.5243
966.0,0.5281
967.0,0.527
968.0,0.6592
969.0,0.6909
970.0,0.6419
971.0,0.7141
972.0,0.687
973.0,0.6188
974.0,0.5909
975.0,0.6049
976.0,0.5851
977.0,0.6448
978.0,0.6214
979.0,0.6438
980.0,0.6102
981.0,0.7092
982.0,0.6854
983.0,0.6626
984.0,0.7228
985.0,0.6826
986.0,0.7308
987.0,0.7214
988.0,0.7202
989.0,0.7257
990.0,0.7153
991.0,0.7285
992.0,0.7322
993.0,0.7208
994.0,0.7315
995.0,0.73
996.0,0.7275
997.0,0.7282
998.0,0.7251
999.0,0.7223
1000.0,0.7184
1001.0,0.726
1002.0,0.7109
1003.0,0.7136
1004.0,0.6974
1005.0,0.6701
1006.0,0.6972
1007.0,0.7115
1008.0,0.7086
1009.0,0.7058
1010.0,0.7034
1011.0,0.7079
1012.0,0.7027
1013.0,0.706
1014.0,0.701
1015.0,0.6966
1016.0,0.6936
1017.0,0.6955
1018.0,0.6923
1019.0,0.6794
1020.0,0.689
1021.0,0.6878
1022.0,0.6831
1023.0,0.6905
1024.0,0.6835
1025.0,0.6894
1026.0,0.687
1027.0,0.6853
1028.0,0.6841
1029.0,0.6762
1030.0,0.6801
1031.0,0.6777
1032.0,0.6756
1033.0,0.6654
1034.0,0.6654
1035.0,0.6675
1036.0,0.6712
1037.0,0.6602
1038.0,0.6632
1039.0,0.663
1040.0,0.6604
1041.0,0.6632
1042.0,0.6586
1043.0,0.6566
1044.0,0.659
1045.0,0.6502
1046.0,0.6432
1047.0,0.6491
1048.0,0.6528
1049.0,0.6506
1050.0,0.6478
1051.0,0.6471
1052.0,0.6447
1053.0,0.6398
1054.0,0.6414
1055.0,0.6421
1056.0,0.6401
1057.0,0.6384
1058.0,0.623
1059.0,0.624
1060.0,0.6232
1061.0,0.6226
1062.0,0.6262
1063.0,0.6203
1064.0,0.6275
1065.0,0.6237
1066.0,0.6109
1067.0,0.619
1068.0,0.6059
1069.0,0.5869
1070.0,0.6073
1071.0,0.6151
1072.0,0.6093
1073.0,0.6003
1074.0,0.6139
1075.0,0.5884
1076.0,0.6137
1077.0,0.6058
1078.0,0.5954
1079.0,0.6032
1080.0,0.5966
1081.0,0.5798
1082.0,0.5847
1083.0,0.5855
1084.0,0.58
1085.0,0.5974
1086.0,0.5539
1087.0,0.5651
1088.0,0.5859
1089.0,0.5728
1090.0,0.564
1091.0,0.5854
1092.0,0.5828
1093.0,0.5099
1094.0,0.5351
1095.0,0.5285
1096.0,0.5109
1097.0,0.5691
1098.0,0.5044
1099.0,0.5237
1100.0,0.4943
1101.0,0.4983
1102.0,0.4801
1103.0,0.4786
1104.0,0.4789
1105.0,0.5133
1106.0,0.4202
1107.0,0.4929
1108.0,0.4346
1109.0,0.4322
1110.0,0.4905
1111.0,0.3559
1112.0,0.4276
1113.0,0.2969
1114.0,0.3283
1115.0,0.273
1116.0,0.2337
1117.0,0.1048
1118.0,0.2478
1119.0,0.1375
1120.0,0.1729
1121.0,0.2199
1122.0,0.1054
1123.0,0.1559
1124.0,0.1318
1125.0,0.1684
1126.0,0.07165
1127.0,0.1888
1128.0,0.1268
1129.0,0.1321
1130.0,0.09396
1131.0,0.3262
1132.0,0.262
1133.0,0.1827
1134.0,0.05835
1135.0,0.02146
1136.0,0.1584
1137.0,0.3247
1138.0,0.2332
1139.0,0.3177
1140.0,0.2769
1141.0,0.2216
1142.0,0.2482
1143.0,0.34
1144.0,0.1351
1145.0,0.1756
1146.0,0.1896
1147.0,0.08067
1148.0,0.2945
1149.0,0.2448
1150.0,0.145
1151.0,0.2317
1152.0,0.2739
1153.0,0.2588
1154.0,0.1738
1155.0,0.3318
1156.0,0.3045
1157.0,0.3339
1158.0,0.3297
1159.0,0.3478
1160.0,0.3072
1161.0,0.3612
1162.0,0.3641
1163.0,0.4637
1164.0,0.4082
1165.0,0.3944
1166.0,0.3856
1167.0,0.4146
1168.0,0.4209
1169.0,0.4272
1170.0,0.4564
1171.0,0.4465
1172.0,0.4502
1173.0,0.4554
1174.0,0.3481
1175.0,0.4419
1176.0,0.4754
1177.0,0.4629
1178.0,0.3651
1179.0,0.4787
1180.0,0.439
1181.0,0.4516
1182.0,0.3305
1183.0,0.4421
1184.0,0.4205
1185.0,0.411
1186.0,0.4696
1187.0,0.4526
1188.0,0.3373
1189.0,0.4231
1190.0,0.459
1191.0,0.4447
1192.0,0.4643
1193.0,0.4483
1194.0,0.4598
1195.0,0.4411
1196.0,0.429
1197.0,0.4564
1198.0,0.4229
1199.0,0.3744
1200.0,0.4433
1201.0,0.4324
1202.0,0.4273
1203.0,0.4236
1204.0,0.3792
1205.0,0.4329
1206.0,0.4697
1207.0,0.4275
1208.0,0.4164
1209.0,0.4239
1210.0,0.4382
1211.0,0.4231
1212.0,0.4238
1213.0,0.4573
1214.0,0.4309
1215.0,0.4243
1216.0,0.4556
1217.0,0.4464
1218.0,0.4522
1219.0,0.4479
1220.0,0.4523
1221.0,0.4553
1222.0,0.4452
1223.0,0.4422
1224.0,0.4414
1225.0,0.4525
1226.0,0.4538
1227.0,0.4258
1228.0,0.4546
1229.0,0.4538
1230.0,0.4474
1231.0,0.4557
1232.0,0.4532
1233.0,0.4431
1234.0,0.4542
1235.0,0.4521
1236.0,0.4548
1237.0,0.4506
1238.0,0.4532
1239.0,0.4475
1240.0,0.4489
1241.0,0.4482
1242.0,0.446
1243.0,0.4423
1244.0,0.4459
1245.0,0.4475
1246.0,0.4448
1247.0,0.4435
1248.0,0.4439
1249.0,0.4447
1250.0,0.4424
1251.0,0.4376
1252.0,0.4366
1253.0,0.435
1254.0,0.4321
1255.0,0.4366
1256.0,0.4279
1257.0,0.4263
1258.0,0.4314
1259.0,0.4213
1260.0,0.4228
1261.0,0.4061
1262.0,0.3976
1263.0,0.3986
1264.0,0.3767
1265.0,0.3959
1266.0,0.3861
1267.0,0.3893
1268.0,0.375
1269.0,0.2736
1270.0,0.3893
1271.0,0.4039
1272.0,0.4044
1273.0,0.4009
1274.0,0.4012
1275.0,0.4057
1276.0,0.4082
1277.0,0.4094
1278.0,0.4143
1279.0,0.4109
1280.0,0.4055
1281.0,0.3857
1282.0,0.3695
1283.0,0.3984
1284.0,0.4083
1285.0,0.4107
1286.0,0.415
1287.0,0.4109
1288.0,0.4102
1289.0,0.4015
1290.0,0.4063
1291.0,0.4112
1292.0,0.3945
1293.0,0.4052
1294.0,0.4028
1295.0,0.4028
1296.0,0.39
1297.0,0.3733
1298.0,0.3932
1299.0,0.405
1300.0,0.3579
1301.0,0.3657
1302.0,0.3916
1303.0,0.3516
1304.0,0.3143
1305.0,0.3849
1306.0,0.3856
1307.0,0.3162
1308.0,0.3499
1309.0,0.3837
1310.0,0.3108
1311.0,0.3387
1312.0,0.3319
1313.0,0.3276
1314.0,0.2986
1315.0,0.2979
1316.0,0.3357
1317.0,0.3197
1318.0,0.3415
1319.0,0.2845
1320.0,0.2718
1321.0,0.3105
1322.0,0.3159
1323.0,0.2526
1324.0,0.2789
1325.0,0.3316
1326.0,0.294
1327.0,0.2828
1328.0,0.2486
1329.0,0.1994
1330.0,0.2528
1331.0,0.1689
1332.0,0.1687
1333.0,0.2299
1334.0,0.1891
1335.0,0.2512
1336.0,0.2065
1337.0,0.188
1338.0,0.2023
1339.0,0.1995
1340.0,0.1901
1341.0,0.1945
1342.0,0.2037
1343.0,0.1584
1344.0,0.09492
1345.0,0.1335
1346.0,0.08137
1347.0,0.08516
1348.0,0.009454
1349.0,0.02872
1350.0,0.02656
1351.0,0.01032
1352.0,0.00438
1353.0,0.000404
1354.0,0.0009848
1355.0,2.452e-05
1356.0,0.0002089
1357.0,0.0003103
1358.0,2.777e-05
1359.0,7.766e-06
1360.0,1.691e-05
1361.0,1.113e-07
1362.0,7.121e-10
1363.0,2.652e-05
1364.0,1.253e-05
1365.0,6.07e-10
1366.0,9.263e-05
1367.0,3.593e-05
1368.0,2.885e-11
1369.0,5.039e-06
1370.0,3.458e-06
1371.0,3.156e-07
1372.0,2.012e-05
1373.0,0.0002241
1374.0,0.0007068
1375.0,0.001236
1376.0,0.0008717
1377.0,0.0004415
1378.0,0.003406
1379.0,0.0001923
1380.0,0.0003388
1381.0,1.203e-05
1382.0,1.986e-05
1383.0,4.466e-07
1384.0,6.415e-06
1385.0,1.324e-05
1386.0,2.196e-05
1387.0,0.0008689
1388.0,2.018e-05
1389.0,0.002008
1390.0,0.001701
1391.0,0.001272
1392.0,0.0001013
1393.0,0.000425
1394.0,0.0003851
1395.0,4.93e-06
1396.0,1.282e-07
1397.0,0.0001996
1398.0,0.003904
1399.0,0.002507
1400.0,8.545e-08
1401.0,1.949e-07
1402.0,0.004337
1403.0,0.005895
1404.0,0.001877
1405.0,3.211e-06
1406.0,0.005531
1407.0,0.0004828
1408.0,0.004451
1409.0,0.001971
1410.0,0.0014
1411.0,0.005119
1412.0,0.006051
1413.0,0.03967
1414.0,0.001077
1415.0,0.0005979
1416.0,0.05273
1417.0,0.02104
1418.0,0.02378
1419.0,0.004001
1420.0,0.01482
1421.0,0.01671
1422.0,0.06701
1423.0,0.01455
1424.0,0.02601
1425.0,0.03952
1426.0,0.04087
1427.0,0.06552
1428.0,0.009192
1429.0,0.05296
1430.0,0.08067
1431.0,0.08619
1432.0,0.007421
1433.0,0.05846
1434.0,0.03162
1435.0,0.03784
1436.0,0.06268
1437.0,0.04835
1438.0,0.02337
1439.0,0.08062
1440.0,0.06124
1441.0,0.05131
1442.0,0.05544
1443.0,0.06265
1444.0,0.08433
1445.0,0.07126
1446.0,0.03376
1447.0,0.05342
1448.0,0.1401
1449.0,0.1272
1450.0,0.03957
1451.0,0.01753
1452.0,0.08168
1453.0,0.1038
1454.0,0.1599
1455.0,0.08235
1456.0,0.1135
1457.0,0.141
1458.0,0.156
1459.0,0.1859
1460.0,0.1027
1461.0,0.1115
1462.0,0.1547
1463.0,0.05662
1464.0,0.1748
1465.0,0.107
1466.0,0.08541
1467.0,0.0506
1468.0,0.0976
1469.0,0.1164
