interpolation:linear
wavelength,value
280.0,8.406e-27
280.5,4.236e-25
281.0,2.704e-24
281.5,1.3039999999999998e-22
282.0,1.352e-21
282.5,6.201e-21
283.0,3.327e-20
283.5,6.916e-20
284.0,2.757e-18
284.5,1.16e-17
285.0,3.368e-17
285.5,3.331e-16
286.0,1.73e-15
286.5,1.223e-14
287.0,4.799e-14
287.5,2.69e-13
288.0,1.56e-12
288.5,7.085e-12
289.0,2.723e-11
289.5,1.177e-10
290.0,4.317e-10
290.5,1.105e-09
291.0,3.069e-09
291.5,1.195e-08
292.0,3.473e-08
292.5,5.645e-08
293.0,1.445e-07
293.5,4.404e-07
294.0,8.096e-07
294.5,1.529e-06
295.0,2.938e-06
295.5,7.92e-06
296.0,1.534e-05
296.5,2.142e-05
297.0,2.889e-05
297.5,7.632e-05
298.0,0.0001182
298.5,0.0001171
299.0,0.0002537
299.5,0.0004024
300.0,0.0004317
300.5,0.000607
301.0,0.001036
301.5,0.001557
302.0,0.001296
302.5,0.002518
303.0,0.004466
303.5,0.005567
304.0,0.005161
304.5,0.00733
305.0,0.01031
305.5,0.01129
306.0,0.01079
306.5,0.01308
307.0,0.0181
307.5,0.02251
308.0,0.02366
308.5,0.02713
309.0,0.0243
309.5,0.02746
310.0,0.02747
310.5,0.04454
311.0,0.05568
311.5,0.05385
312.0,0.0527
312.5,0.06325
313.0,0.06829
313.5,0.06748
314.0,0.08267
314.5,0.07099
315.0,0.09323
315.5,0.08004
316.0,0.06807
316.5,0.09543
317.0,0.1193
317.5,0.126
318.0,0.09683
318.5,0.1159
319.0,0.1354
319.5,0.115
320.0,0.1405
320.5,0.1691
321.0,0.1452
321.5,0.1394
322.0,0.1564
322.5,0.1365
323.0,0.1328
323.5,0.1558
324.0,0.1819
324.5,0.1882
325.0,0.1699
325.5,0.2143
326.0,0.2555
326.5,0.2527
327.0,0.2549
327.5,0.2496
328.0,0.2285
328.5,0.2349
329.0,0.2762
329.5,0.3129
330.0,0.3191
330.5,0.2614
331.0,0.2692
331.5,0.2714
332.0,0.2889
332.5,0.2846
333.0,0.2867
333.5,0.2646
334.0,0.273
334.5,0.3113
335.0,0.291
335.5,0.3315
336.0,0.2304
336.5,0.2807
337.0,0.233
337.5,0.2918
338.0,0.2823
338.5,0.3197
339.0,0.3196
339.5,0.3075
340.0,0.3709
340.5,0.3353
341.0,0.3227
341.5,0.3002
342.0,0.361
342.5,0.3398
343.0,0.3736
343.5,0.352
344.0,0.2645
344.5,0.2627
345.0,0.353
345.5,0.3631
346.0,0.3104
346.5,0.3533
347.0,0.3795
347.5,0.3076
348.0,0.3535
348.5,0.3554
349.0,0.3311
349.5,0.3289
350.0,0.4084
350.5,0.4323
351.0,0.387
351.5,0.3756
352.0,0.4062
352.5,0.3188
353.0,0.4034
353.5,0.4332
354.0,0.4515
354.5,0.4595
355.0,0.4594
355.5,0.4165
356.0,0.4373
356.5,0.3747
357.0,0.3107
357.5,0.3817
358.0,0.3035
358.5,0.2602
359.0,0.3652
359.5,0.4666
360.0,0.4963
360.5,0.3981
361.0,0.3641
361.5,0.4204
362.0,0.3646
362.5,0.5061
363.0,0.4558
363.5,0.4211
364.0,0.5165
364.5,0.4427
365.0,0.4522
365.5,0.5692
366.0,0.6048
366.5,0.5699
367.0,0.5566
367.5,0.5792
368.0,0.5083
368.5,0.5143
369.0,0.5569
369.5,0.5953
370.0,0.6363
370.5,0.4952
371.0,0.5305
371.5,0.6655
372.0,0.4429
372.5,0.5325
373.0,0.543
373.5,0.3542
374.0,0.516
374.5,0.4284
375.0,0.4175
375.5,0.625
376.0,0.5194
376.5,0.5396
377.0,0.5727
377.5,0.6717
378.0,0.73
378.5,0.6918
379.0,0.5724
379.5,0.5243
380.0,0.5465
380.5,0.6636
381.0,0.6666
381.5,0.5296
382.0,0.4715
382.5,0.4029
383.0,0.3738
383.5,0.3609
384.0,0.399
384.5,0.5882
385.0,0.5846
385.5,0.5456
386.0,0.4683
386.5,0.6165
387.0,0.5135
387.5,0.578
388.0,0.5349
388.5,0.5299
389.0,0.5732
389.5,0.6958
390.0,0.6998
390.5,0.6454
391.0,0.7613
391.5,0.7781
392.0,0.6568
392.5,0.5892
393.0,0.3285
393.5,0.2393
394.0,0.4878
394.5,0.6214
395.0,0.7597
395.5,0.7733
396.0,0.6718
396.5,0.3935
397.0,0.2958
397.5,0.6028
398.0,0.8459
398.5,0.876
399.0,0.9501
399.5,0.9488
400.0,0.9871
401.0,1.017
402.0,1.077
403.0,1.026
404.0,1.014
405.0,1.017
406.0,1.004
407.0,0.9909
408.0,1.033
409.0,1.109
410.0,0.9717
411.0,1.056
412.0,1.137
413.0,1.112
414.0,1.129
415.0,1.135
416.0,1.158
417.0,1.133
418.0,1.115
419.0,1.133
420.0,1.131
421.0,1.186
422.0,1.131
423.0,1.108
424.0,1.175
425.0,1.176
426.0,1.148
427.0,1.129
428.0,1.102
429.0,1.046
430.0,0.9177
431.0,0.9121
432.0,1.18
433.0,1.189
434.0,1.107
435.0,1.159
436.0,1.308
437.0,1.293
438.0,1.18
439.0,1.223
440.0,1.265
441.0,1.313
442.0,1.411
443.0,1.378
444.0,1.41
445.0,1.382
446.0,1.321
447.0,1.431
448.0,1.457
449.0,1.465
450.0,1.508
451.0,1.567
452.0,1.513
453.0,1.425
454.0,1.49
455.0,1.502
456.0,1.54
457.0,1.569
458.0,1.518
459.0,1.513
460.0,1.52
461.0,1.558
462.0,1.572
463.0,1.563
464.0,1.539
465.0,1.521
466.0,1.538
467.0,1.513
468.0,1.533
469.0,1.544
470.0,1.497
471.0,1.497
472.0,1.58
473.0,1.562
474.0,1.567
475.0,1.583
476.0,1.539
477.0,1.546
478.0,1.591
479.0,1.583
480.0,1.588
481.0,1.62
482.0,1.63
483.0,1.611
484.0,1.58
485.0,1.507
486.0,1.319
487.0,1.383
488.0,1.52
489.0,1.527
490.0,1.608
491.0,1.582
492.0,1.495
493.0,1.546
494.0,1.563
495.0,1.578
496.0,1.59
497.0,1.616
498.0,1.543
499.0,1.565
500.0,1.521
501.0,1.496
502.0,1.477
503.0,1.54
504.0,1.506
505.0,1.559
506.0,1.611
507.0,1.534
508.0,1.487
509.0,1.53
510.0,1.522
511.0,1.564
512.0,1.582
513.0,1.499
514.0,1.49
515.0,1.477
516.0,1.474
517.0,1.311
518.0,1.38
519.0,1.449
520.0,1.503
521.0,1.519
522.0,1.522
523.0,1.496
524.0,1.551
525.0,1.571
526.0,1.502
527.0,1.418
528.0,1.501
529.0,1.584
530.0,1.563
531.0,1.587
532.0,1.534
533.0,1.49
534.0,1.535
535.0,1.569
536.0,1.585
537.0,1.523
538.0,1.551
539.0,1.539
540.0,1.477
541.0,1.489
542.0,1.537
543.0,1.521
544.0,1.549
545.0,1.545
546.0,1.554
547.0,1.553
548.0,1.536
549.0,1.541
550.0,1.56
551.0,1.542
552.0,1.554
553.0,1.528
554.0,1.565
555.0,1.569
556.0,1.55
557.0,1.503
558.0,1.493
559.0,1.467
560.0,1.486
561.0,1.507
562.0,1.498
563.0,1.54
564.0,1.499
565.0,1.488
566.0,1.467
567.0,1.496
568.0,1.485
569.0,1.453
570.0,1.453
571.0,1.445
572.0,1.482
573.0,1.499
574.0,1.495
575.0,1.469
576.0,1.456
577.0,1.472
578.0,1.45
579.0,1.456
580.0,1.482
581.0,1.489
582.0,1.517
583.0,1.52
584.0,1.533
585.0,1.496
586.0,1.466
587.0,1.5
588.0,1.467
589.0,1.307
590.0,1.367
591.0,1.443
592.0,1.428
593.0,1.447
594.0,1.439
595.0,1.406
596.0,1.457
597.0,1.443
598.0,1.439
599.0,1.44
600.0,1.441
601.0,1.429
602.0,1.42
603.0,1.443
604.0,1.468
605.0,1.46
606.0,1.454
607.0,1.469
608.0,1.453
609.0,1.455
610.0,1.445
611.0,1.453
612.0,1.448
613.0,1.431
614.0,1.411
615.0,1.442
616.0,1.395
617.0,1.392
618.0,1.446
619.0,1.431
620.0,1.441
621.0,1.443
622.0,1.427
623.0,1.407
624.0,1.383
625.0,1.38
626.0,1.401
627.0,1.418
628.0,1.338
629.0,1.39
630.0,1.359
631.0,1.386
632.0,1.369
633.0,1.409
634.0,1.394
635.0,1.415
636.0,1.396
637.0,1.419
638.0,1.432
639.0,1.416
640.0,1.402
641.0,1.401
642.0,1.394
643.0,1.413
644.0,1.409
645.0,1.412
646.0,1.381
647.0,1.369
648.0,1.371
649.0,1.345
650.0,1.347
651.0,1.405
652.0,1.352
653.0,1.387
654.0,1.371
655.0,1.323
656.0,1.171
657.0,1.203
658.0,1.347
659.0,1.356
660.0,1.362
661.0,1.372
662.0,1.376
663.0,1.348
664.0,1.363
665.0,1.364
666.0,1.365
667.0,1.363
668.0,1.364
669.0,1.385
670.0,1.379
671.0,1.379
672.0,1.367
673.0,1.388
674.0,1.383
675.0,1.37
676.0,1.38
677.0,1.366
678.0,1.37
679.0,1.348
680.0,1.359
681.0,1.35
682.0,1.349
683.0,1.347
684.0,1.34
685.0,1.352
686.0,1.344
687.0,0.9522
688.0,1.088
689.0,1.091
690.0,1.135
691.0,1.184
692.0,1.219
693.0,1.21
694.0,1.2
695.0,1.243
696.0,1.245
697.0,1.312
698.0,1.292
699.0,1.268
700.0,1.253
701.0,1.242
702.0,1.249
703.0,1.251
704.0,1.288
705.0,1.29
706.0,1.288
707.0,1.288
708.0,1.292
709.0,1.292
710.0,1.293
711.0,1.29
712.0,1.286
713.0,1.274
714.0,1.279
715.0,1.241
716.0,1.243
717.0,1.1
718.0,1.014
719.0,0.9318
720.0,0.9777
721.0,1.066
722.0,1.204
723.0,1.129
724.0,1.027
725.0,1.013
726.0,1.059
727.0,1.069
728.0,1.012
729.0,1.042
730.0,1.103
731.0,1.058
732.0,1.123
733.0,1.181
734.0,1.207
735.0,1.184
736.0,1.182
737.0,1.187
738.0,1.201
739.0,1.177
740.0,1.207
741.0,1.194
742.0,1.194
743.0,1.225
744.0,1.221
745.0,1.221
746.0,1.226
747.0,1.229
748.0,1.227
749.0,1.213
750.0,1.212
751.0,1.2
752.0,1.205
753.0,1.212
754.0,1.215
755.0,1.208
756.0,1.208
757.0,1.209
758.0,1.195
759.0,1.174
760.0,0.254
761.0,0.146
762.0,0.6606
763.0,0.3654
764.0,0.5181
765.0,0.6611
766.0,0.7834
767.0,0.9606
768.0,1.087
769.0,1.105
770.0,1.137
771.0,1.144
772.0,1.146
773.0,1.154
774.0,1.148
775.0,1.139
776.0,1.153
777.0,1.138
778.0,1.132
779.0,1.133
780.0,1.126
781.0,1.128
782.0,1.135
783.0,1.115
784.0,1.121
785.0,1.113
786.0,1.125
787.0,1.108
788.0,1.095
789.0,1.095
790.0,1.07
791.0,1.076
792.0,1.068
793.0,1.051
794.0,1.066
795.0,1.085
796.0,1.056
797.0,1.058
798.0,1.084
799.0,1.078
800.0,1.061
801.0,1.059
802.0,1.056
803.0,1.048
804.0,1.049
805.0,1.045
806.0,1.072
807.0,1.06
808.0,1.061
809.0,1.042
810.0,1.035
811.0,1.039
812.0,1.012
813.0,0.9934
814.0,0.8848
815.0,0.8791
816.0,0.8199
817.0,0.8337
818.0,0.805
819.0,0.8906
820.0,0.8425
821.0,0.9721
822.0,0.9465
823.0,0.6643
824.0,0.9235
825.0,0.9562
826.0,0.9239
827.0,0.9709
828.0,0.8348
829.0,0.9178
830.0,0.907
831.0,0.9099
832.0,0.8842
833.0,0.9348
834.0,0.9056
835.0,0.9868
836.0,0.9497
837.0,0.9894
838.0,0.961
839.0,0.9742
840.0,0.995
841.0,0.982
842.0,0.9827
843.0,0.9807
844.0,0.968
845.0,0.9996
846.0,0.9951
847.0,0.9762
848.0,0.9709
849.0,0.9434
850.0,0.9038
851.0,0.9578
852.0,0.9508
853.0,0.9147
854.0,0.7903
855.0,0.8677
856.0,0.9486
857.0,0.9694
858.0,0.9625
859.0,0.9632
860.0,0.9648
861.0,0.9596
862.0,0.9747
863.0,0.9978
864.0,0.9479
865.0,0.9397
866.0,0.845
867.0,0.8819
868.0,0.9597
869.0,0.9398
870.0,0.9667
871.0,0.9536
872.0,0.9503
873.0,0.9484
874.0,0.9372
875.0,0.9183
876.0,0.928
877.0,0.9374
878.0,0.9477
879.0,0.9332
880.0,0.9133
881.0,0.8999
882.0,0.9196
883.0,0.9222
884.0,0.9182
885.0,0.9252
886.0,0.8829
887.0,0.8915
888.0,0.9052
889.0,0.9147
890.0,0.9082
891.0,0.9061
892.0,0.8814
893.0,0.8557
894.0,0.829
895.0,0.7877
896.0,0.744
897.0,0.645
898.0,0.7005
899.0,0.54
900.0,0.7138
901.0,0.5658
902.0,0.6547
903.0,0.6641
904.0,0.8233
905.0,0.7969
906.0,0.7474
907.0,0.6159
908.0,0.6269
909.0,0.6751
910.0,0.6043
911.0,0.6397
912.0,0.6672
913.0,0.6137
914.0,0.6073
915.0,0.6576
916.0,0.5589
917.0,0.7013
918.0,0.5733
919.0,0.7122
920.0,0.7158
921.0,0.7437
922.0,0.6701
923.0,0.7182
924.0,0.6872
925.0,0.6724
926.0,0.6798
927.0,0.7561
928.0,0.5687
929.0,0.5229
930.0,0.4167
931.0,0.394
932.0,0.2896
933.0,0.2385
934.0,0.1372
935.0,0.2415
936.0,0.1549
937.0,0.1575
938.0,0.1921
939.0,0.3819
940.0,0.4554
941.0,0.3492
942.0,0.4009
943.0,0.2679
944.0,0.2785
945.0,0.3591
946.0,0.1885
947.0,0.3622
948.0,0.267
949.0,0.4792
950.0,0.1418
951.0,0.471
952.0,0.2605
953.0,0.3316
954.0,0.4012
955.0,0.3348
956.0,0.3224
957.0,0.2616
958.0,0.4493
959.0,0.3627
960.0,0.4064
961.0,0.4517
962.0,0.428
963.0,0.4895
964.0,0.4498
965.0,0.4873
966.0,0.4883
967.0,0.4866
968.0,0.6391
969.0,0.6686
970.0,0.6159
971.0,0.6991
972.0,0.67
973.0,0.5892
974.0,0.5601
975.0,0.5792
976.0,0.5531
977.0,0.6233
978.0,0.5947
979.0,0.621
980.0,0.5851
981.0,0.6951
982.0,0.6668
983.0,0.6415
984.0,0.714
985.0,0.6643
986.0,0.7251
987.0,0.7126
988.0,0.7113
989.0,0.7222
990.0,0.707
991.0,0.7246
992.0,0.7286
993.0,0.714
994.0,0.7283
995.0,0.7272
996.0,0.7242
997.0,0.7252
998.0,0.7219
999.0,0.7193
1000.0,0.7146
1001.0,0.7231
1002.0,0.7047
1003.0,0.7105
1004.0,0.6935
1005.0,0.6676
1006.0,0.694
1007.0,0.7086
1008.0,0.705
1009.0,0.7016
1010.0,0.6988
1011.0,0.7051
1012.0,0.6993
1013.0,0.7033
1014.0,0.6984
1015.0,0.6939
1016.0,0.6908
1017.0,0.6927
1018.0,0.6899
1019.0,0.6758
1020.0,0.6864
1021.0,0.6854
1022.0,0.6803
1023.0,0.6876
1024.0,0.6792
1025.0,0.687
1026.0,0.6842
1027.0,0.6826
1028.0,0.6812
1029.0,0.6733
1030.0,0.6777
1031.0,0.6751
1032.0,0.6731
1033.0,0.663
1034.0,0.663
1035.0,0.6651
1036.0,0.6687
1037.0,0.6578
1038.0,0.6607
1039.0,0.6604
1040.0,0.6578
1041.0,0.6605
1042.0,0.6559
1043.0,0.6539
1044.0,0.6562
1045.0,0.6474
1046.0,0.6403
1047.0,0.6461
1048.0,0.6497
1049.0,0.6474
1050.0,0.6445
1051.0,0.6437
1052.0,0.6411
1053.0,0.6361
1054.0,0.6376
1055.0,0.6381
1056.0,0.6359
1057.0,0.634
1058.0,0.6185
1059.0,0.6193
1060.0,0.6184
1061.0,0.6178
1062.0,0.6211
1063.0,0.6151
1064.0,0.6223
1065.0,0.6181
1066.0,0.6057
1067.0,0.6136
1068.0,0.6004
1069.0,0.5817
1070.0,0.6017
1071.0,0.6105
1072.0,0.6039
1073.0,0.5951
1074.0,0.61
1075.0,0.581
1076.0,0.6096
1077.0,0.5996
1078.0,0.5886
1079.0,0.5997
1080.0,0.5904
1081.0,0.5722
1082.0,0.5801
1083.0,0.5816
1084.0,0.5712
1085.0,0.5917
1086.0,0.5423
1087.0,0.558
1088.0,0.5814
1089.0,0.565
1090.0,0.5535
1091.0,0.5799
1092.0,0.5781
1093.0,0.4946
1094.0,0.5295
1095.0,0.5147
1096.0,0.4941
1097.0,0.5647
1098.0,0.4869
1099.0,0.5072
1100.0,0.4735
1101.0,0.4788
1102.0,0.4585
1103.0,0.455
1104.0,0.4554
1105.0,0.4961
1106.0,0.387
1107.0,0.4727
1108.0,0.4052
1109.0,0.405
1110.0,0.4691
1111.0,0.3243
1112.0,0.4016
1113.0,0.2619
1114.0,0.292
1115.0,0.2423
1116.0,0.1972
1117.0,0.07658
1118.0,0.2132
1119.0,0.1091
1120.0,0.1375
1121.0,0.1804
1122.0,0.07874
1123.0,0.1241
1124.0,0.1048
1125.0,0.1359
1126.0,0.05011
1127.0,0.1531
1128.0,0.09459
1129.0,0.09993
1130.0,0.067
1131.0,0.2831
1132.0,0.2235
1133.0,0.1455
1134.0,0.03947
1135.0,0.01468
1136.0,0.1227
1137.0,0.2793
1138.0,0.1976
1139.0,0.2874
1140.0,0.243
1141.0,0.1878
1142.0,0.2145
1143.0,0.3015
1144.0,0.109
1145.0,0.1402
1146.0,0.1513
1147.0,0.05612
1148.0,0.2611
1149.0,0.2107
1150.0,0.117
1151.0,0.1962
1152.0,0.2388
1153.0,0.2308
1154.0,0.1364
1155.0,0.3
1156.0,0.2716
1157.0,0.3025
1158.0,0.2992
1159.0,0.3208
1160.0,0.2765
1161.0,0.3361
1162.0,0.3381
1163.0,0.4487
1164.0,0.3879
1165.0,0.3687
1166.0,0.3642
1167.0,0.3952
1168.0,0.4001
1169.0,0.4086
1170.0,0.4416
1171.0,0.431
1172.0,0.4373
1173.0,0.4407
1174.0,0.3216
1175.0,0.4294
1176.0,0.4687
1177.0,0.4521
1178.0,0.3449
1179.0,0.4723
1180.0,0.4254
1181.0,0.4387
1182.0,0.3085
1183.0,0.4311
1184.0,0.406
1185.0,0.3935
1186.0,0.4607
1187.0,0.4406
1188.0,0.3143
1189.0,0.4109
1190.0,0.4502
1191.0,0.4307
1192.0,0.4562
1193.0,0.4383
1194.0,0.451
1195.0,0.4288
1196.0,0.4143
1197.0,0.45
1198.0,0.4134
1199.0,0.3567
1200.0,0.433
1201.0,0.4194
1202.0,0.4159
1203.0,0.4125
1204.0,0.3636
1205.0,0.424
1206.0,0.4656
1207.0,0.4153
1208.0,0.4073
1209.0,0.4153
1210.0,0.4315
1211.0,0.4129
1212.0,0.4102
1213.0,0.4514
1214.0,0.4189
1215.0,0.4115
1216.0,0.4499
1217.0,0.439
1218.0,0.4464
1219.0,0.4414
1220.0,0.4467
1221.0,0.4506
1222.0,0.4395
1223.0,0.4358
1224.0,0.4339
1225.0,0.4478
1226.0,0.4501
1227.0,0.4179
1228.0,0.4518
1229.0,0.4502
1230.0,0.443
1231.0,0.4539
1232.0,0.4513
1233.0,0.438
1234.0,0.4531
1235.0,0.4506
1236.0,0.4536
1237.0,0.4482
1238.0,0.4521
1239.0,0.4463
1240.0,0.4479
1241.0,0.4463
1242.0,0.4449
1243.0,0.4413
1244.0,0.4446
1245.0,0.4464
1246.0,0.4438
1247.0,0.4422
1248.0,0.4422
1249.0,0.4433
1250.0,0.4408
1251.0,0.4355
1252.0,0.4351
1253.0,0.4324
1254.0,0.4286
1255.0,0.4349
1256.0,0.4241
1257.0,0.422
1258.0,0.4288
1259.0,0.4154
1260.0,0.4173
1261.0,0.3966
1262.0,0.3861
1263.0,0.3869
1264.0,0.3604
1265.0,0.3843
1266.0,0.3718
1267.0,0.377
1268.0,0.3596
1269.0,0.2374
1270.0,0.3761
1271.0,0.395
1272.0,0.3959
1273.0,0.392
1274.0,0.3929
1275.0,0.3981
1276.0,0.4014
1277.0,0.4035
1278.0,0.4102
1279.0,0.4066
1280.0,0.4014
1281.0,0.3825
1282.0,0.3677
1283.0,0.3962
1284.0,0.4059
1285.0,0.4084
1286.0,0.4135
1287.0,0.408
1288.0,0.4076
1289.0,0.3964
1290.0,0.4039
1291.0,0.4093
1292.0,0.3876
1293.0,0.4021
1294.0,0.3994
1295.0,0.3983
1296.0,0.3823
1297.0,0.3632
1298.0,0.3878
1299.0,0.4023
1300.0,0.346
1301.0,0.3555
1302.0,0.3864
1303.0,0.3409
1304.0,0.2958
1305.0,0.3789
1306.0,0.3792
1307.0,0.3004
1308.0,0.3406
1309.0,0.3768
1310.0,0.2949
1311.0,0.3277
1312.0,0.3196
1313.0,0.3142
1314.0,0.2831
1315.0,0.2805
1316.0,0.3233
1317.0,0.3069
1318.0,0.3315
1319.0,0.265
1320.0,0.2555
1321.0,0.2956
1322.0,0.2994
1323.0,0.2301
1324.0,0.2599
1325.0,0.3191
1326.0,0.2769
1327.0,0.2649
1328.0,0.2299
1329.0,0.1766
1330.0,0.2279
1331.0,0.1423
1332.0,0.1453
1333.0,0.2011
1334.0,0.1683
1335.0,0.2292
1336.0,0.1837
1337.0,0.1637
1338.0,0.1771
1339.0,0.1757
1340.0,0.1697
1341.0,0.1684
1342.0,0.1767
1343.0,0.1253
1344.0,0.07482
1345.0,0.1074
1346.0,0.0571
1347.0,0.0587
1348.0,0.004524
1349.0,0.01546
1350.0,0.01549
1351.0,0.004393
1352.0,0.001397
1353.0,8.596e-05
1354.0,0.0002633
1355.0,3.1e-06
1356.0,4.263e-05
1357.0,6.458e-05
1358.0,3.616e-06
1359.0,6.036e-07
1360.0,1.829e-06
1361.0,3.735e-09
1362.0,1.335e-11
1363.0,2.673e-06
1364.0,1.134e-06
1365.0,6.47e-12
1366.0,1.084e-05
1367.0,4.26e-06
1368.0,9.504e-14
1369.0,4.317e-07
1370.0,2.396e-07
1371.0,1.584e-08
1372.0,2.347e-06
1373.0,3.902e-05
1374.0,0.0001592
1375.0,0.0002896
1376.0,0.0002354
1377.0,0.0001112
1378.0,0.001021
1379.0,4.704e-05
1380.0,7.32e-05
1381.0,2.085e-06
1382.0,2.188e-06
1383.0,3.686e-08
1384.0,5.113e-07
1385.0,1.817e-06
1386.0,2.114e-06
1387.0,0.0001778
1388.0,3.575e-06
1389.0,0.0005245
1390.0,0.0004515
1391.0,0.0003106
1392.0,2.126e-05
1393.0,0.0001049
1394.0,6.657e-05
1395.0,5.756e-07
1396.0,4.971e-09
1397.0,4.408e-05
1398.0,0.001161
1399.0,0.0007359
1400.0,2.509e-09
1401.0,8.446e-09
1402.0,0.001726
1403.0,0.002238
1404.0,0.0006919
1405.0,3.103e-07
1406.0,0.001897
1407.0,0.0001627
1408.0,0.001539
1409.0,0.0005686
1410.0,0.0004303
1411.0,0.001957
1412.0,0.002524
1413.0,0.02271
1414.0,0.0003359
1415.0,0.0001689
1416.0,0.03481
1417.0,0.01134
1418.0,0.013
1419.0,0.002056
1420.0,0.007984
1421.0,0.008662
1422.0,0.04523
1423.0,0.008976
1424.0,0.01663
1425.0,0.02476
1426.0,0.02738
1427.0,0.04869
1428.0,0.004306
1429.0,0.03715
1430.0,0.06151
1431.0,0.06712
1432.0,0.003411
1433.0,0.0433
1434.0,0.02233
1435.0,0.02335
1436.0,0.04345
1437.0,0.03329
1438.0,0.0145
1439.0,0.05839
1440.0,0.0438
1441.0,0.03414
1442.0,0.03774
1443.0,0.04625
1444.0,0.06355
1445.0,0.05064
1446.0,0.02306
1447.0,0.03627
1448.0,0.1165
1449.0,0.102
1450.0,0.02686
1451.0,0.011
1452.0,0.06222
1453.0,0.08123
1454.0,0.1367
1455.0,0.06548
1456.0,0.08842
1457.0,0.117
1458.0,0.1365
1459.0,0.1616
1460.0,0.08495
1461.0,0.08939
1462.0,0.1298
1463.0,0.04278
1464.0,0.1526
1465.0,0.09221
1466.0,0.06523
