interpolation:linear
wavelength,value
280.0,1.487e-18
280.5,2.241e-17
281.0,9.202e-17
281.5,1.38e-15
282.0,7.04e-15
282.5,2.001e-14
283.0,6.345e-14
283.5,1.015e-13
284.0,1.196e-12
284.5,2.888e-12
285.0,4.599e-12
285.5,2.243e-11
286.0,8.748e-11
286.5,3.435e-10
287.0,8.734e-10
287.5,2.771e-09
288.0,7.85e-09
288.5,2.435e-08
289.0,6.321e-08
289.5,1.774e-07
290.0,4.569e-07
290.5,8.704e-07
291.0,1.692e-06
291.5,4.187e-06
292.0,8.418e-06
292.5,1.112e-05
293.0,2.18e-05
293.5,4.622e-05
294.0,6.648e-05
294.5,0.0001043
295.0,0.0001588
295.5,0.0003211
296.0,0.0005108
296.5,0.0005918
297.0,0.0006882
297.5,0.001477
298.0,0.001936
298.5,0.001693
299.0,0.003264
299.5,0.0043
300.0,0.004185
300.5,0.00535
301.0,0.007953
301.5,0.01069
302.0,0.008433
302.5,0.01488
303.0,0.02349
303.5,0.02738
304.0,0.02455
304.5,0.03226
305.0,0.04106
305.5,0.04229
306.0,0.0394
306.5,0.04598
307.0,0.05899
307.5,0.06852
308.0,0.07102
308.5,0.07876
309.0,0.06868
309.5,0.07235
310.0,0.07003
310.5,0.1116
311.0,0.1358
311.5,0.1295
312.0,0.1205
312.5,0.1399
313.0,0.1483
313.5,0.1481
314.0,0.1747
314.5,0.1433
315.0,0.1862
315.5,0.1625
316.0,0.1333
316.5,0.1813
317.0,0.226
317.5,0.2398
318.0,0.1804
318.5,0.2084
319.0,0.2389
319.5,0.2074
320.0,0.2536
320.5,0.295
321.0,0.2462
321.5,0.2351
322.0,0.2701
322.5,0.2347
323.0,0.2235
323.5,0.2542
324.0,0.2948
324.5,0.3072
325.0,0.2819
325.5,0.3498
326.0,0.4083
326.5,0.3982
327.0,0.4021
327.5,0.3947
328.0,0.3667
328.5,0.3683
329.0,0.4263
329.5,0.48
330.0,0.4896
330.5,0.4039
331.0,0.4165
331.5,0.4155
332.0,0.4368
332.5,0.4275
333.0,0.4306
333.5,0.3993
334.0,0.4114
334.5,0.4642
335.0,0.4312
335.5,0.4891
336.0,0.339
336.5,0.4136
337.0,0.3436
337.5,0.4298
338.0,0.4124
338.5,0.4649
339.0,0.4634
339.5,0.445
340.0,0.5369
340.5,0.4841
341.0,0.4637
341.5,0.43
342.0,0.5159
342.5,0.4843
343.0,0.5317
343.5,0.5002
344.0,0.3763
344.5,0.3721
345.0,0.4981
345.5,0.5109
346.0,0.4358
346.5,0.4948
347.0,0.5306
347.5,0.4293
348.0,0.4921
348.5,0.4938
349.0,0.4591
349.5,0.455
350.0,0.5638
350.5,0.5958
351.0,0.5325
351.5,0.5162
352.0,0.557
352.5,0.4362
353.0,0.5507
353.5,0.5903
354.0,0.6142
354.5,0.6242
355.0,0.623
355.5,0.5636
356.0,0.5908
356.5,0.5054
357.0,0.4185
357.5,0.5134
358.0,0.4076
358.5,0.349
359.0,0.489
359.5,0.624
360.0,0.6628
360.5,0.5307
361.0,0.4846
361.5,0.5583
362.0,0.4832
362.5,0.6692
363.0,0.6016
363.5,0.5547
364.0,0.6791
364.5,0.5813
365.0,0.5929
365.5,0.7452
366.0,0.7904
366.5,0.7434
367.0,0.725
367.5,0.7535
368.0,0.6602
368.5,0.667
369.0,0.7212
369.5,0.7698
370.0,0.8216
370.5,0.6384
371.0,0.683
371.5,0.8558
372.0,0.5688
372.5,0.6829
373.0,0.6953
373.5,0.4529
374.0,0.6589
374.5,0.5463
375.0,0.5317
375.5,0.795
376.0,0.66
376.5,0.6849
377.0,0.7259
377.5,0.8503
378.0,0.9231
378.5,0.8739
379.0,0.7224
379.5,0.661
380.0,0.6883
380.5,0.8345
381.0,0.837
381.5,0.6641
382.0,0.5903
382.5,0.5036
383.0,0.4667
383.5,0.4499
384.0,0.4969
384.5,0.7316
385.0,0.7262
385.5,0.677
386.0,0.5804
386.5,0.763
387.0,0.6349
387.5,0.7139
388.0,0.6599
388.5,0.6529
389.0,0.7056
389.5,0.8555
390.0,0.8595
390.5,0.7918
391.0,0.9329
391.5,0.9527
392.0,0.8034
392.5,0.7198
393.0,0.4009
393.5,0.2916
394.0,0.594
394.5,0.7559
395.0,0.9233
395.5,0.939
396.0,0.8149
396.5,0.4767
397.0,0.358
397.5,0.7289
398.0,1.022
398.5,1.058
399.0,1.145
399.5,1.143
400.0,1.188
401.0,1.222
402.0,1.291
403.0,1.228
404.0,1.211
405.0,1.213
406.0,1.195
407.0,1.177
408.0,1.225
409.0,1.313
410.0,1.149
411.0,1.246
412.0,1.339
413.0,1.308
414.0,1.326
415.0,1.331
416.0,1.355
417.0,1.324
418.0,1.301
419.0,1.32
420.0,1.316
421.0,1.379
422.0,1.312
423.0,1.283
424.0,1.359
425.0,1.358
426.0,1.324
427.0,1.301
428.0,1.269
429.0,1.202
430.0,1.053
431.0,1.046
432.0,1.351
433.0,1.36
434.0,1.264
435.0,1.322
436.0,1.49
437.0,1.471
438.0,1.34
439.0,1.389
440.0,1.434
441.0,1.487
442.0,1.596
443.0,1.558
444.0,1.592
445.0,1.56
446.0,1.489
447.0,1.61
448.0,1.639
449.0,1.645
450.0,1.692
451.0,1.756
452.0,1.693
453.0,1.594
454.0,1.664
455.0,1.676
456.0,1.717
457.0,1.748
458.0,1.691
459.0,1.683
460.0,1.69
461.0,1.73
462.0,1.744
463.0,1.734
464.0,1.705
465.0,1.683
466.0,1.7
467.0,1.671
468.0,1.693
469.0,1.703
470.0,1.651
471.0,1.65
472.0,1.74
473.0,1.719
474.0,1.725
475.0,1.743
476.0,1.695
477.0,1.702
478.0,1.75
479.0,1.74
480.0,1.743
481.0,1.775
482.0,1.784
483.0,1.762
484.0,1.726
485.0,1.645
486.0,1.438
487.0,1.507
488.0,1.655
489.0,1.662
490.0,1.749
491.0,1.719
492.0,1.624
493.0,1.679
494.0,1.697
495.0,1.712
496.0,1.724
497.0,1.752
498.0,1.671
499.0,1.694
500.0,1.647
501.0,1.619
502.0,1.6
503.0,1.669
504.0,1.636
505.0,1.688
506.0,1.744
507.0,1.661
508.0,1.608
509.0,1.652
510.0,1.643
511.0,1.686
512.0,1.705
513.0,1.614
514.0,1.604
515.0,1.588
516.0,1.586
517.0,1.409
518.0,1.483
519.0,1.556
520.0,1.614
521.0,1.631
522.0,1.634
523.0,1.606
524.0,1.665
525.0,1.687
526.0,1.613
527.0,1.523
528.0,1.612
529.0,1.701
530.0,1.678
531.0,1.705
532.0,1.647
533.0,1.6
534.0,1.647
535.0,1.683
536.0,1.699
537.0,1.632
538.0,1.661
539.0,1.648
540.0,1.581
541.0,1.595
542.0,1.646
543.0,1.628
544.0,1.659
545.0,1.654
546.0,1.664
547.0,1.662
548.0,1.642
549.0,1.647
550.0,1.667
551.0,1.647
552.0,1.66
553.0,1.631
554.0,1.671
555.0,1.675
556.0,1.655
557.0,1.605
558.0,1.594
559.0,1.567
560.0,1.587
561.0,1.61
562.0,1.6
563.0,1.646
564.0,1.603
565.0,1.591
566.0,1.569
567.0,1.601
568.0,1.592
569.0,1.562
570.0,1.561
571.0,1.55
572.0,1.593
573.0,1.612
574.0,1.608
575.0,1.58
576.0,1.567
577.0,1.583
578.0,1.558
579.0,1.561
580.0,1.586
581.0,1.591
582.0,1.618
583.0,1.619
584.0,1.632
585.0,1.591
586.0,1.559
587.0,1.596
588.0,1.568
589.0,1.409
590.0,1.473
591.0,1.547
592.0,1.535
593.0,1.55
594.0,1.543
595.0,1.512
596.0,1.556
597.0,1.543
598.0,1.535
599.0,1.535
600.0,1.533
601.0,1.518
602.0,1.508
603.0,1.532
604.0,1.557
605.0,1.549
606.0,1.541
607.0,1.555
608.0,1.537
609.0,1.539
610.0,1.527
611.0,1.534
612.0,1.529
613.0,1.51
614.0,1.488
615.0,1.52
616.0,1.469
617.0,1.466
618.0,1.522
619.0,1.507
620.0,1.517
621.0,1.52
622.0,1.504
623.0,1.483
624.0,1.456
625.0,1.453
626.0,1.475
627.0,1.496
628.0,1.438
629.0,1.475
630.0,1.443
631.0,1.462
632.0,1.443
633.0,1.481
634.0,1.463
635.0,1.484
636.0,1.462
637.0,1.484
638.0,1.496
639.0,1.478
640.0,1.462
641.0,1.46
642.0,1.452
643.0,1.472
644.0,1.466
645.0,1.47
646.0,1.441
647.0,1.435
648.0,1.438
649.0,1.411
650.0,1.404
651.0,1.462
652.0,1.418
653.0,1.443
654.0,1.426
655.0,1.381
656.0,1.219
657.0,1.251
658.0,1.398
659.0,1.406
660.0,1.412
661.0,1.421
662.0,1.427
663.0,1.398
664.0,1.411
665.0,1.41
666.0,1.41
667.0,1.407
668.0,1.406
669.0,1.428
670.0,1.421
671.0,1.42
672.0,1.408
673.0,1.429
674.0,1.423
675.0,1.41
676.0,1.419
677.0,1.405
678.0,1.408
679.0,1.385
680.0,1.396
681.0,1.387
682.0,1.386
683.0,1.383
684.0,1.377
685.0,1.388
686.0,1.381
687.0,1.101
688.0,1.198
689.0,1.2
690.0,1.229
691.0,1.261
692.0,1.282
693.0,1.275
694.0,1.266
695.0,1.297
696.0,1.3
697.0,1.35
698.0,1.33
699.0,1.317
700.0,1.302
701.0,1.294
702.0,1.296
703.0,1.299
704.0,1.33
705.0,1.332
706.0,1.327
707.0,1.326
708.0,1.33
709.0,1.325
710.0,1.328
711.0,1.325
712.0,1.318
713.0,1.307
714.0,1.312
715.0,1.278
716.0,1.28
717.0,1.179
718.0,1.098
719.0,1.016
720.0,1.067
721.0,1.133
722.0,1.248
723.0,1.188
724.0,1.099
725.0,1.092
726.0,1.135
727.0,1.137
728.0,1.092
729.0,1.107
730.0,1.168
731.0,1.128
732.0,1.18
733.0,1.223
734.0,1.246
735.0,1.224
736.0,1.222
737.0,1.228
738.0,1.231
739.0,1.207
740.0,1.234
741.0,1.219
742.0,1.217
743.0,1.248
744.0,1.243
745.0,1.242
746.0,1.247
747.0,1.25
748.0,1.247
749.0,1.233
750.0,1.232
751.0,1.22
752.0,1.225
753.0,1.231
754.0,1.234
755.0,1.227
756.0,1.227
757.0,1.229
758.0,1.214
759.0,1.198
760.0,0.4305
761.0,0.297
762.0,0.8102
763.0,0.5486
764.0,0.6916
765.0,0.8113
766.0,0.8964
767.0,1.039
768.0,1.13
769.0,1.138
770.0,1.161
771.0,1.163
772.0,1.163
773.0,1.171
774.0,1.165
775.0,1.156
776.0,1.169
777.0,1.154
778.0,1.147
779.0,1.148
780.0,1.142
781.0,1.143
782.0,1.15
783.0,1.13
784.0,1.135
785.0,1.128
786.0,1.141
787.0,1.128
788.0,1.117
789.0,1.118
790.0,1.099
791.0,1.098
792.0,1.089
793.0,1.073
794.0,1.08
795.0,1.101
796.0,1.082
797.0,1.083
798.0,1.102
799.0,1.098
800.0,1.082
801.0,1.082
802.0,1.078
803.0,1.072
804.0,1.072
805.0,1.065
806.0,1.088
807.0,1.077
808.0,1.077
809.0,1.062
810.0,1.057
811.0,1.064
812.0,1.044
813.0,1.03
814.0,0.9423
815.0,0.9358
816.0,0.8779
817.0,0.8887
818.0,0.8636
819.0,0.9328
820.0,0.8918
821.0,0.9988
822.0,0.9778
823.0,0.7377
824.0,0.9634
825.0,0.9847
826.0,0.9602
827.0,0.9993
828.0,0.8864
829.0,0.952
830.0,0.9439
831.0,0.9455
832.0,0.9239
833.0,0.9615
834.0,0.9405
835.0,1.006
836.0,0.9796
837.0,1.008
838.0,0.9834
839.0,0.9914
840.0,1.011
841.0,1.0
842.0,0.9976
843.0,0.9924
844.0,0.9813
845.0,1.011
846.0,1.006
847.0,0.9855
848.0,0.9816
849.0,0.9539
850.0,0.9136
851.0,0.9696
852.0,0.9619
853.0,0.9241
854.0,0.7995
855.0,0.8762
856.0,0.9585
857.0,0.9785
858.0,0.972
859.0,0.972
860.0,0.9731
861.0,0.9681
862.0,0.983
863.0,1.006
864.0,0.9559
865.0,0.9474
866.0,0.8519
867.0,0.8891
868.0,0.9675
869.0,0.9473
870.0,0.9743
871.0,0.9612
872.0,0.9577
873.0,0.9558
874.0,0.9445
875.0,0.9255
876.0,0.9353
877.0,0.9446
878.0,0.9553
879.0,0.9406
880.0,0.9204
881.0,0.9077
882.0,0.9277
883.0,0.9297
884.0,0.9259
885.0,0.9329
886.0,0.8928
887.0,0.8996
888.0,0.9149
889.0,0.9219
890.0,0.9182
891.0,0.9146
892.0,0.8931
893.0,0.8721
894.0,0.8536
895.0,0.8225
896.0,0.7841
897.0,0.6975
898.0,0.7466
899.0,0.5989
900.0,0.7507
901.0,0.6251
902.0,0.6946
903.0,0.7133
904.0,0.8477
905.0,0.8261
906.0,0.7796
907.0,0.6681
908.0,0.6771
909.0,0.7157
910.0,0.6633
911.0,0.6897
912.0,0.7127
913.0,0.6744
914.0,0.6639
915.0,0.714
916.0,0.6171
917.0,0.746
918.0,0.6327
919.0,0.753
920.0,0.7474
921.0,0.7717
922.0,0.7117
923.0,0.7449
924.0,0.7294
925.0,0.715
926.0,0.7218
927.0,0.7874
928.0,0.6374
929.0,0.5982
930.0,0.4986
931.0,0.467
932.0,0.3646
933.0,0.3138
934.0,0.2089
935.0,0.3067
936.0,0.2143
937.0,0.2214
938.0,0.2624
939.0,0.4527
940.0,0.5251
941.0,0.4234
942.0,0.4715
943.0,0.3324
944.0,0.332
945.0,0.4324
946.0,0.2506
947.0,0.4414
948.0,0.331
949.0,0.5597
950.0,0.207
951.0,0.5463
952.0,0.3352
953.0,0.4057
954.0,0.4682
955.0,0.4068
956.0,0.3861
957.0,0.34
958.0,0.5025
959.0,0.4291
960.0,0.4789
961.0,0.5154
962.0,0.4915
963.0,0.5465
964.0,0.5081
965.0,0.5416
966.0,0.5469
967.0,0.5461
968.0,0.6684
969.0,0.7005
970.0,0.6537
971.0,0.7205
972.0,0.6946
973.0,0.6323
974.0,0.6052
975.0,0.6168
976.0,0.5997
977.0,0.6548
978.0,0.6336
979.0,0.654
980.0,0.6218
981.0,0.7152
982.0,0.6934
983.0,0.6719
984.0,0.7265
985.0,0.6904
986.0,0.7331
987.0,0.7249
988.0,0.7238
989.0,0.7272
990.0,0.7186
991.0,0.7302
992.0,0.7337
993.0,0.7236
994.0,0.7329
995.0,0.7311
996.0,0.7289
997.0,0.7294
998.0,0.7264
999.0,0.7235
1000.0,0.72
1001.0,0.7272
1002.0,0.7135
1003.0,0.7148
1004.0,0.699
1005.0,0.6712
1006.0,0.6986
1007.0,0.7127
1008.0,0.7101
1009.0,0.7076
1010.0,0.7053
1011.0,0.7091
1012.0,0.7042
1013.0,0.707
1014.0,0.7021
1015.0,0.6977
1016.0,0.6947
1017.0,0.6967
1018.0,0.6933
1019.0,0.6809
1020.0,0.6901
1021.0,0.6887
1022.0,0.6843
1023.0,0.6917
1024.0,0.6852
1025.0,0.6904
1026.0,0.6881
1027.0,0.6864
1028.0,0.6852
1029.0,0.6774
1030.0,0.6811
1031.0,0.6788
1032.0,0.6766
1033.0,0.6664
1034.0,0.6664
1035.0,0.6685
1036.0,0.6723
1037.0,0.6612
1038.0,0.6643
1039.0,0.6641
1040.0,0.6614
1041.0,0.6643
1042.0,0.6597
1043.0,0.6577
1044.0,0.6602
1045.0,0.6514
1046.0,0.6444
1047.0,0.6504
1048.0,0.6541
1049.0,0.652
1050.0,0.6492
1051.0,0.6485
1052.0,0.6461
1053.0,0.6413
1054.0,0.643
1055.0,0.6437
1056.0,0.6419
1057.0,0.6402
1058.0,0.6248
1059.0,0.6259
1060.0,0.6251
1061.0,0.6246
1062.0,0.6283
1063.0,0.6224
1064.0,0.6296
1065.0,0.626
1066.0,0.613
1067.0,0.6212
1068.0,0.6082
1069.0,0.589
1070.0,0.6097
1071.0,0.617
1072.0,0.6116
1073.0,0.6024
1074.0,0.6155
1075.0,0.5915
1076.0,0.6154
1077.0,0.6083
1078.0,0.5981
1079.0,0.6046
1080.0,0.5992
1081.0,0.5829
1082.0,0.5867
1083.0,0.5871
1084.0,0.5838
1085.0,0.5998
1086.0,0.5591
1087.0,0.568
1088.0,0.5878
1089.0,0.5761
1090.0,0.5686
1091.0,0.5878
1092.0,0.5848
1093.0,0.5167
1094.0,0.5375
1095.0,0.5345
1096.0,0.5183
1097.0,0.5709
1098.0,0.5121
1099.0,0.5308
1100.0,0.5037
1101.0,0.5069
1102.0,0.4897
1103.0,0.4893
1104.0,0.4894
1105.0,0.5208
1106.0,0.4354
1107.0,0.5019
1108.0,0.4481
1109.0,0.4447
1110.0,0.4999
1111.0,0.3709
1112.0,0.4395
1113.0,0.314
1114.0,0.3457
1115.0,0.2878
1116.0,0.2521
1117.0,0.1203
1118.0,0.2647
1119.0,0.1523
1120.0,0.1908
1121.0,0.2392
1122.0,0.1193
1123.0,0.1721
1124.0,0.1455
1125.0,0.1848
1126.0,0.08337
1127.0,0.2068
1128.0,0.1438
1129.0,0.1487
1130.0,0.109
1131.0,0.3463
1132.0,0.2805
1133.0,0.2014
1134.0,0.0692
1135.0,0.02549
1136.0,0.1765
1137.0,0.3456
1138.0,0.2504
1139.0,0.3316
1140.0,0.2931
1141.0,0.238
1142.0,0.2643
1143.0,0.3577
1144.0,0.1486
1145.0,0.1933
1146.0,0.2087
1147.0,0.09407
1148.0,0.31
1149.0,0.2612
1150.0,0.16
1151.0,0.2489
1152.0,0.2905
1153.0,0.2719
1154.0,0.1933
1155.0,0.3464
1156.0,0.3198
1157.0,0.3487
1158.0,0.3439
1159.0,0.3601
1160.0,0.3221
1161.0,0.3729
1162.0,0.3763
1163.0,0.4701
1164.0,0.4175
1165.0,0.406
1166.0,0.3956
1167.0,0.4235
1168.0,0.4303
1169.0,0.4354
1170.0,0.4628
1171.0,0.4534
1172.0,0.456
1173.0,0.4618
1174.0,0.3607
1175.0,0.4474
1176.0,0.4783
1177.0,0.4676
1178.0,0.3748
1179.0,0.4815
1180.0,0.4452
1181.0,0.4573
1182.0,0.3411
1183.0,0.4468
1184.0,0.4271
1185.0,0.419
1186.0,0.4733
1187.0,0.4579
1188.0,0.3481
1189.0,0.4286
1190.0,0.4629
1191.0,0.4507
1192.0,0.4679
1193.0,0.4528
1194.0,0.4636
1195.0,0.4464
1196.0,0.4354
1197.0,0.4591
1198.0,0.4273
1199.0,0.3825
1200.0,0.4478
1201.0,0.4382
1202.0,0.4325
1203.0,0.4283
1204.0,0.3865
1205.0,0.4369
1206.0,0.4715
1207.0,0.4329
1208.0,0.4205
1209.0,0.4277
1210.0,0.4413
1211.0,0.4277
1212.0,0.4297
1213.0,0.4598
1214.0,0.436
1215.0,0.4299
1216.0,0.4581
1217.0,0.4496
1218.0,0.4547
1219.0,0.4507
1220.0,0.4547
1221.0,0.4572
1222.0,0.4478
1223.0,0.445
1224.0,0.4446
1225.0,0.4544
1226.0,0.4553
1227.0,0.4292
1228.0,0.4558
1229.0,0.4552
1230.0,0.4493
1231.0,0.4565
1232.0,0.454
1233.0,0.4453
1234.0,0.4546
1235.0,0.4528
1236.0,0.4553
1237.0,0.4516
1238.0,0.4537
1239.0,0.448
1240.0,0.4493
1241.0,0.4489
1242.0,0.4464
1243.0,0.4427
1244.0,0.4464
1245.0,0.448
1246.0,0.4453
1247.0,0.444
1248.0,0.4446
1249.0,0.4452
1250.0,0.443
1251.0,0.4384
1252.0,0.4372
1253.0,0.436
1254.0,0.4335
1255.0,0.4374
1256.0,0.4295
1257.0,0.428
1258.0,0.4325
1259.0,0.4237
1260.0,0.4251
1261.0,0.4101
1262.0,0.4025
1263.0,0.4035
1264.0,0.3836
1265.0,0.4007
1266.0,0.3921
1267.0,0.3945
1268.0,0.3814
1269.0,0.2899
1270.0,0.3948
1271.0,0.4076
1272.0,0.4079
1273.0,0.4046
1274.0,0.4046
1275.0,0.4088
1276.0,0.411
1277.0,0.4119
1278.0,0.416
1279.0,0.4126
1280.0,0.4072
1281.0,0.387
1282.0,0.3702
1283.0,0.3992
1284.0,0.4094
1285.0,0.4116
1286.0,0.4157
1287.0,0.4121
1288.0,0.4113
1289.0,0.4036
1290.0,0.4072
1291.0,0.4119
1292.0,0.3973
1293.0,0.4065
1294.0,0.4043
1295.0,0.4046
1296.0,0.3932
1297.0,0.3777
1298.0,0.3955
1299.0,0.4061
1300.0,0.3633
1301.0,0.3702
1302.0,0.3938
1303.0,0.3564
1304.0,0.3228
1305.0,0.3875
1306.0,0.3883
1307.0,0.3235
1308.0,0.3543
1309.0,0.3865
1310.0,0.3181
1311.0,0.3438
1312.0,0.3375
1313.0,0.3337
1314.0,0.3058
1315.0,0.3058
1316.0,0.3413
1317.0,0.3255
1318.0,0.346
1319.0,0.2935
1320.0,0.2795
1321.0,0.3174
1322.0,0.3234
1323.0,0.2632
1324.0,0.2879
1325.0,0.3372
1326.0,0.3019
1327.0,0.2911
1328.0,0.2575
1329.0,0.2103
1330.0,0.2644
1331.0,0.1821
1332.0,0.1802
1333.0,0.2435
1334.0,0.1995
1335.0,0.2615
1336.0,0.2173
1337.0,0.2
1338.0,0.2143
1339.0,0.2109
1340.0,0.2001
1341.0,0.2069
1342.0,0.2167
1343.0,0.1748
1344.0,0.1057
1345.0,0.1465
1346.0,0.09451
1347.0,0.09942
1348.0,0.01303
1349.0,0.03737
1350.0,0.03328
1351.0,0.01485
1352.0,0.007025
1353.0,0.0007843
1354.0,0.001736
1355.0,5.988e-05
1356.0,0.0004151
1357.0,0.0006091
1358.0,6.696e-05
1359.0,2.304e-05
1360.0,4.396e-05
1361.0,4.765e-07
1362.0,4.034e-09
1363.0,6.883e-05
1364.0,3.493e-05
1365.0,4.258e-09
1366.0,0.0002252
1367.0,8.935e-05
1368.0,3.244e-10
1369.0,1.45e-05
1370.0,1.082e-05
1371.0,1.148e-06
1372.0,5.075e-05
1373.0,0.0004719
1374.0,0.001332
1375.0,0.002251
1376.0,0.001532
1377.0,0.0008035
1378.0,0.005637
1379.0,0.000357
1380.0,0.0006549
1381.0,2.621e-05
1382.0,5.113e-05
1383.0,1.339e-06
1384.0,1.89e-05
1385.0,3.156e-05
1386.0,5.932e-05
1387.0,0.001674
1388.0,4.336e-05
1389.0,0.003527
1390.0,0.00295
1391.0,0.002306
1392.0,0.0002007
1393.0,0.0007794
1394.0,0.0008053
1395.0,1.262e-05
1396.0,5.193e-07
1397.0,0.0003852
1398.0,0.006431
1399.0,0.004189
1400.0,3.854e-07
1401.0,7.534e-07
1402.0,0.006463
1403.0,0.008901
1404.0,0.002881
1405.0,8.878e-06
1406.0,0.008607
1407.0,0.0007837
1408.0,0.006932
1409.0,0.003293
1410.0,0.00233
1411.0,0.007723
1412.0,0.00882
1413.0,0.04988
1414.0,0.001787
1415.0,0.001037
1416.0,0.06304
1417.0,0.02764
1418.0,0.03061
1419.0,0.005332
1420.0,0.01924
1421.0,0.02234
1422.0,0.07893
1423.0,0.01809
1424.0,0.0317
1425.0,0.04832
1426.0,0.04871
1427.0,0.0744
1428.0,0.01276
1429.0,0.06164
1430.0,0.09066
1431.0,0.09595
1432.0,0.0104
1433.0,0.06673
1434.0,0.03695
1435.0,0.04656
1436.0,0.07338
1437.0,0.05702
1438.0,0.02885
1439.0,0.09241
1440.0,0.07084
1441.0,0.06113
1442.0,0.06505
1443.0,0.07107
1444.0,0.09529
1445.0,0.08227
1446.0,0.03954
1447.0,0.06314
1448.0,0.1515
1449.0,0.1399
1450.0,0.04691
1451.0,0.02159
1452.0,0.09183
1453.0,0.1151
1454.0,0.171
1455.0,0.09092
1456.0,0.1264
1457.0,0.1527
1458.0,0.1652
1459.0,0.1973
1460.0,0.1117
1461.0,0.1225
1462.0,0.1667
1463.0,0.06423
1464.0,0.1852
1465.0,0.1142
1466.0,0.09583
1467.0,0.05937
1468.0,0.1084
1469.0,0.128
1470.0,0.07669
1471.0,0.03165
1472.0,0.07393
