interpolation:linear
wavelength,value
280.0,1.711e-24
280.5,6.148e-23
281.0,3.4689999999999995e-22
281.5,1.206e-20
282.0,1.026e-19
282.5,4.114e-19
283.0,1.906e-18
283.5,3.681e-18
284.0,1.043e-16
284.5,3.757e-16
285.0,9.221e-16
285.5,7.482e-15
286.0,3.587e-14
286.5,2.151e-13
287.0,7.475e-13
287.5,3.573e-12
288.0,1.696e-11
288.5,6.922e-11
289.0,2.383e-10
289.5,9.131e-10
290.0,3.033e-09
290.5,7.149e-09
291.0,1.796e-08
291.5,6.161e-08
292.0,1.615e-07
292.5,2.477e-07
293.0,5.884e-07
293.5,1.62e-06
294.0,2.781e-06
294.5,4.987e-06
295.0,8.978e-06
295.5,2.233e-05
296.0,4.093e-05
296.5,5.425e-05
297.0,7.02e-05
297.5,0.000175
298.0,0.0002586
298.5,0.0002475
299.0,0.0005188
299.5,0.0007812
300.0,0.0008155
300.5,0.001117
301.0,0.001833
301.5,0.002671
302.0,0.00219
302.5,0.004141
303.0,0.00711
303.5,0.008698
304.0,0.007987
304.5,0.0111
305.0,0.01519
305.5,0.01635
306.0,0.01551
306.5,0.0186
307.0,0.0252
307.5,0.03075
308.0,0.0322
308.5,0.03657
309.0,0.03251
309.5,0.03603
310.0,0.03571
310.5,0.05761
311.0,0.07148
311.5,0.06886
312.0,0.06645
312.5,0.07901
313.0,0.08486
313.5,0.08411
314.0,0.102
314.5,0.08644
315.0,0.1132
315.5,0.09761
316.0,0.08217
316.5,0.1142
317.0,0.1427
317.5,0.1509
318.0,0.1153
318.5,0.1367
319.0,0.1587
319.5,0.1356
320.0,0.1658
320.5,0.1977
321.0,0.1684
321.5,0.1614
322.0,0.1823
322.5,0.1589
323.0,0.1536
323.5,0.1787
324.0,0.2083
324.5,0.2159
325.0,0.1958
325.5,0.2459
326.0,0.2914
326.5,0.2871
327.0,0.2897
327.5,0.2838
328.0,0.2609
328.5,0.2665
329.0,0.312
329.5,0.3528
330.0,0.3598
330.5,0.2953
331.0,0.3043
331.5,0.3058
332.0,0.3244
332.5,0.319
333.0,0.3213
333.5,0.297
334.0,0.3063
334.5,0.3482
335.0,0.325
335.5,0.3697
336.0,0.2567
336.5,0.3129
337.0,0.2598
337.5,0.3253
338.0,0.314
338.5,0.3551
339.0,0.3547
339.5,0.3411
340.0,0.4114
340.5,0.3717
341.0,0.3573
341.5,0.3321
342.0,0.399
342.5,0.3753
343.0,0.4125
343.5,0.3884
344.0,0.292
344.5,0.2896
345.0,0.3887
345.5,0.3996
346.0,0.3414
346.5,0.3883
347.0,0.4169
347.5,0.3377
348.0,0.3878
348.5,0.3897
349.0,0.3629
349.5,0.3602
350.0,0.4471
350.5,0.473
351.0,0.4233
351.5,0.4106
352.0,0.4438
352.5,0.3481
353.0,0.4402
353.5,0.4724
354.0,0.4922
354.5,0.5007
355.0,0.5003
355.5,0.4534
356.0,0.4758
356.5,0.4075
357.0,0.3377
357.5,0.4147
358.0,0.3297
358.5,0.2826
359.0,0.3963
359.5,0.5062
360.0,0.5382
360.5,0.4315
361.0,0.3945
361.5,0.4553
362.0,0.3946
362.5,0.5473
363.0,0.4927
363.5,0.4549
364.0,0.5577
364.5,0.4779
365.0,0.4879
365.5,0.6139
366.0,0.652
366.5,0.614
367.0,0.5994
367.5,0.6236
368.0,0.547
368.5,0.5532
369.0,0.5988
369.5,0.6398
370.0,0.6836
370.5,0.5318
371.0,0.5695
371.5,0.7142
372.0,0.4751
372.5,0.571
373.0,0.582
373.5,0.3795
374.0,0.5526
374.5,0.4586
375.0,0.4468
375.5,0.6686
376.0,0.5555
376.5,0.577
377.0,0.6121
377.5,0.7176
378.0,0.7796
378.5,0.7386
379.0,0.611
379.5,0.5595
380.0,0.583
380.5,0.7076
381.0,0.7105
381.5,0.5643
382.0,0.5021
382.5,0.4289
383.0,0.3978
383.5,0.3839
384.0,0.4243
384.5,0.6253
385.0,0.6212
385.5,0.5796
386.0,0.4974
386.5,0.6545
387.0,0.545
387.5,0.6133
388.0,0.5673
388.5,0.5618
389.0,0.6076
389.5,0.7373
390.0,0.7413
390.5,0.6835
391.0,0.8059
391.5,0.8236
392.0,0.695
392.5,0.6232
393.0,0.3474
393.5,0.2529
394.0,0.5155
394.5,0.6565
395.0,0.8024
395.5,0.8166
396.0,0.7092
396.5,0.4152
397.0,0.3121
397.5,0.6358
398.0,0.892
398.5,0.9235
399.0,1.001
399.5,0.9996
400.0,1.04
401.0,1.071
402.0,1.133
403.0,1.079
404.0,1.066
405.0,1.069
406.0,1.054
407.0,1.04
408.0,1.084
409.0,1.163
410.0,1.018
411.0,1.106
412.0,1.19
413.0,1.164
414.0,1.181
415.0,1.187
416.0,1.21
417.0,1.184
418.0,1.165
419.0,1.183
420.0,1.18
421.0,1.238
422.0,1.179
423.0,1.154
424.0,1.224
425.0,1.224
426.0,1.194
427.0,1.175
428.0,1.147
429.0,1.088
430.0,0.9538
431.0,0.9477
432.0,1.226
433.0,1.235
434.0,1.149
435.0,1.203
436.0,1.357
437.0,1.34
438.0,1.223
439.0,1.268
440.0,1.31
441.0,1.36
442.0,1.461
443.0,1.426
444.0,1.459
445.0,1.43
446.0,1.366
447.0,1.479
448.0,1.506
449.0,1.513
450.0,1.558
451.0,1.618
452.0,1.561
453.0,1.47
454.0,1.537
455.0,1.549
456.0,1.588
457.0,1.617
458.0,1.565
459.0,1.559
460.0,1.566
461.0,1.604
462.0,1.618
463.0,1.609
464.0,1.584
465.0,1.565
466.0,1.582
467.0,1.556
468.0,1.576
469.0,1.587
470.0,1.539
471.0,1.538
472.0,1.623
473.0,1.604
474.0,1.61
475.0,1.626
476.0,1.581
477.0,1.588
478.0,1.634
479.0,1.626
480.0,1.63
481.0,1.662
482.0,1.672
483.0,1.652
484.0,1.62
485.0,1.544
486.0,1.351
487.0,1.417
488.0,1.556
489.0,1.564
490.0,1.646
491.0,1.619
492.0,1.53
493.0,1.582
494.0,1.6
495.0,1.615
496.0,1.626
497.0,1.653
498.0,1.578
499.0,1.6
500.0,1.555
501.0,1.529
502.0,1.511
503.0,1.575
504.0,1.541
505.0,1.594
506.0,1.647
507.0,1.569
508.0,1.52
509.0,1.563
510.0,1.555
511.0,1.597
512.0,1.616
513.0,1.531
514.0,1.521
515.0,1.507
516.0,1.505
517.0,1.338
518.0,1.408
519.0,1.478
520.0,1.533
521.0,1.549
522.0,1.552
523.0,1.526
524.0,1.582
525.0,1.603
526.0,1.533
527.0,1.446
528.0,1.531
529.0,1.616
530.0,1.594
531.0,1.619
532.0,1.565
533.0,1.52
534.0,1.566
535.0,1.601
536.0,1.616
537.0,1.553
538.0,1.581
539.0,1.569
540.0,1.505
541.0,1.518
542.0,1.567
543.0,1.55
544.0,1.579
545.0,1.575
546.0,1.584
547.0,1.583
548.0,1.565
549.0,1.57
550.0,1.59
551.0,1.571
552.0,1.583
553.0,1.556
554.0,1.594
555.0,1.598
556.0,1.579
557.0,1.531
558.0,1.521
559.0,1.494
560.0,1.514
561.0,1.535
562.0,1.526
563.0,1.569
564.0,1.528
565.0,1.516
566.0,1.495
567.0,1.525
568.0,1.514
569.0,1.483
570.0,1.483
571.0,1.474
572.0,1.512
573.0,1.53
574.0,1.526
575.0,1.499
576.0,1.486
577.0,1.503
578.0,1.48
579.0,1.484
580.0,1.511
581.0,1.517
582.0,1.544
583.0,1.547
584.0,1.56
585.0,1.522
586.0,1.492
587.0,1.526
588.0,1.495
589.0,1.335
590.0,1.396
591.0,1.472
592.0,1.457
593.0,1.475
594.0,1.467
595.0,1.435
596.0,1.484
597.0,1.47
598.0,1.465
599.0,1.466
600.0,1.466
601.0,1.453
602.0,1.444
603.0,1.468
604.0,1.492
605.0,1.485
606.0,1.478
607.0,1.492
608.0,1.476
609.0,1.478
610.0,1.467
611.0,1.475
612.0,1.471
613.0,1.452
614.0,1.432
615.0,1.463
616.0,1.415
617.0,1.412
618.0,1.467
619.0,1.452
620.0,1.462
621.0,1.464
622.0,1.448
623.0,1.427
624.0,1.403
625.0,1.4
626.0,1.421
627.0,1.439
628.0,1.366
629.0,1.413
630.0,1.382
631.0,1.407
632.0,1.389
633.0,1.429
634.0,1.413
635.0,1.434
636.0,1.414
637.0,1.437
638.0,1.449
639.0,1.433
640.0,1.418
641.0,1.417
642.0,1.41
643.0,1.43
644.0,1.425
645.0,1.428
646.0,1.397
647.0,1.387
648.0,1.389
649.0,1.363
650.0,1.363
651.0,1.421
652.0,1.37
653.0,1.402
654.0,1.386
655.0,1.339
656.0,1.184
657.0,1.216
658.0,1.361
659.0,1.37
660.0,1.375
661.0,1.385
662.0,1.39
663.0,1.362
664.0,1.377
665.0,1.376
666.0,1.377
667.0,1.375
668.0,1.376
669.0,1.397
670.0,1.391
671.0,1.39
672.0,1.378
673.0,1.399
674.0,1.394
675.0,1.381
676.0,1.391
677.0,1.377
678.0,1.381
679.0,1.358
680.0,1.369
681.0,1.361
682.0,1.359
683.0,1.357
684.0,1.35
685.0,1.362
686.0,1.354
687.0,0.9917
688.0,1.118
689.0,1.12
690.0,1.161
691.0,1.205
692.0,1.236
693.0,1.228
694.0,1.218
695.0,1.258
696.0,1.26
697.0,1.323
698.0,1.303
699.0,1.281
700.0,1.266
701.0,1.256
702.0,1.262
703.0,1.264
704.0,1.299
705.0,1.302
706.0,1.298
707.0,1.299
708.0,1.302
709.0,1.301
710.0,1.303
711.0,1.3
712.0,1.295
713.0,1.283
714.0,1.288
715.0,1.251
716.0,1.253
717.0,1.121
718.0,1.036
719.0,0.9533
720.0,1.001
721.0,1.084
722.0,1.216
723.0,1.145
724.0,1.046
725.0,1.034
726.0,1.079
727.0,1.087
728.0,1.033
729.0,1.059
730.0,1.121
731.0,1.076
732.0,1.139
733.0,1.193
734.0,1.218
735.0,1.195
736.0,1.193
737.0,1.198
738.0,1.209
739.0,1.186
740.0,1.214
741.0,1.201
742.0,1.201
743.0,1.231
744.0,1.227
745.0,1.226
746.0,1.232
747.0,1.235
748.0,1.232
749.0,1.219
750.0,1.218
751.0,1.206
752.0,1.211
753.0,1.217
754.0,1.22
755.0,1.213
756.0,1.213
757.0,1.215
758.0,1.2
759.0,1.181
760.0,0.2945
761.0,0.1782
762.0,0.6995
763.0,0.4095
764.0,0.5618
765.0,0.7002
766.0,0.8136
767.0,0.982
768.0,1.099
769.0,1.114
770.0,1.144
771.0,1.149
772.0,1.151
773.0,1.158
774.0,1.153
775.0,1.144
776.0,1.158
777.0,1.143
778.0,1.136
779.0,1.137
780.0,1.131
781.0,1.132
782.0,1.139
783.0,1.119
784.0,1.125
785.0,1.117
786.0,1.13
787.0,1.113
788.0,1.101
789.0,1.102
790.0,1.078
791.0,1.082
792.0,1.074
793.0,1.057
794.0,1.07
795.0,1.089
796.0,1.063
797.0,1.065
798.0,1.089
799.0,1.084
800.0,1.067
801.0,1.065
802.0,1.062
803.0,1.055
804.0,1.055
805.0,1.05
806.0,1.077
807.0,1.064
808.0,1.065
809.0,1.048
810.0,1.041
811.0,1.046
812.0,1.021
813.0,1.003
814.0,0.8998
815.0,0.8939
816.0,0.8348
817.0,0.8479
818.0,0.8201
819.0,0.9018
820.0,0.8553
821.0,0.9793
822.0,0.9549
823.0,0.6826
824.0,0.9341
825.0,0.9638
826.0,0.9334
827.0,0.9785
828.0,0.8482
829.0,0.9267
830.0,0.9167
831.0,0.9193
832.0,0.8946
833.0,0.9421
834.0,0.915
835.0,0.9921
836.0,0.9578
837.0,0.9946
838.0,0.9672
839.0,0.9789
840.0,0.9995
841.0,0.987
842.0,0.9868
843.0,0.984
844.0,0.9717
845.0,1.003
846.0,0.998
847.0,0.9788
848.0,0.9739
849.0,0.9463
850.0,0.9066
851.0,0.9611
852.0,0.9539
853.0,0.9174
854.0,0.7929
855.0,0.8701
856.0,0.9514
857.0,0.972
858.0,0.9652
859.0,0.9656
860.0,0.9671
861.0,0.962
862.0,0.977
863.0,1.0
864.0,0.9502
865.0,0.9419
866.0,0.8469
867.0,0.8839
868.0,0.9619
869.0,0.9419
870.0,0.9688
871.0,0.9557
872.0,0.9523
873.0,0.9505
874.0,0.9392
875.0,0.9203
876.0,0.93
877.0,0.9394
878.0,0.9499
879.0,0.9353
880.0,0.9153
881.0,0.9021
882.0,0.9218
883.0,0.9243
884.0,0.9203
885.0,0.9274
886.0,0.8857
887.0,0.8938
888.0,0.9079
889.0,0.9167
890.0,0.9109
891.0,0.9085
892.0,0.8847
893.0,0.8602
894.0,0.8357
895.0,0.797
896.0,0.7544
897.0,0.6583
898.0,0.7124
899.0,0.5546
900.0,0.7234
901.0,0.5807
902.0,0.665
903.0,0.6769
904.0,0.8299
905.0,0.8047
906.0,0.7558
907.0,0.6292
908.0,0.6397
909.0,0.6856
910.0,0.6193
911.0,0.6524
912.0,0.679
913.0,0.6292
914.0,0.6216
915.0,0.6724
916.0,0.5735
917.0,0.7132
918.0,0.5883
919.0,0.723
920.0,0.7239
921.0,0.7513
922.0,0.6809
923.0,0.7253
924.0,0.6984
925.0,0.6836
926.0,0.6911
927.0,0.7648
928.0,0.5864
929.0,0.5421
930.0,0.4371
931.0,0.4123
932.0,0.308
933.0,0.2565
934.0,0.1537
935.0,0.2575
936.0,0.1689
937.0,0.1723
938.0,0.2086
939.0,0.3997
940.0,0.4731
941.0,0.3676
942.0,0.4188
943.0,0.2838
944.0,0.2916
945.0,0.3772
946.0,0.2032
947.0,0.3818
948.0,0.2824
949.0,0.4998
950.0,0.1566
951.0,0.4903
952.0,0.2783
953.0,0.3497
954.0,0.4181
955.0,0.3525
956.0,0.3374
957.0,0.2803
958.0,0.4627
959.0,0.379
960.0,0.4244
961.0,0.4677
962.0,0.4437
963.0,0.5039
964.0,0.4643
965.0,0.5011
966.0,0.5031
967.0,0.5017
968.0,0.6466
969.0,0.6772
970.0,0.6257
971.0,0.7049
972.0,0.6765
973.0,0.6004
974.0,0.5717
975.0,0.5889
976.0,0.5651
977.0,0.6314
978.0,0.6048
979.0,0.6297
980.0,0.5945
981.0,0.7006
982.0,0.674
983.0,0.6495
984.0,0.7174
985.0,0.6714
986.0,0.7274
987.0,0.7161
988.0,0.7148
989.0,0.7236
990.0,0.7103
991.0,0.7261
992.0,0.73
993.0,0.7167
994.0,0.7296
995.0,0.7283
996.0,0.7255
997.0,0.7264
998.0,0.7232
999.0,0.7204
1000.0,0.7161
1001.0,0.7243
1002.0,0.7071
1003.0,0.7117
1004.0,0.695
1005.0,0.6686
1006.0,0.6953
1007.0,0.7098
1008.0,0.7064
1009.0,0.7032
1010.0,0.7006
1011.0,0.7062
1012.0,0.7006
1013.0,0.7044
1014.0,0.6995
1015.0,0.6949
1016.0,0.6919
1017.0,0.6938
1018.0,0.6909
1019.0,0.6772
1020.0,0.6874
1021.0,0.6863
1022.0,0.6814
1023.0,0.6887
1024.0,0.6809
1025.0,0.6879
1026.0,0.6853
1027.0,0.6837
1028.0,0.6823
1029.0,0.6744
1030.0,0.6787
1031.0,0.6761
1032.0,0.6741
1033.0,0.664
1034.0,0.664
1035.0,0.6661
1036.0,0.6697
1037.0,0.6588
1038.0,0.6617
1039.0,0.6614
1040.0,0.6588
1041.0,0.6615
1042.0,0.657
1043.0,0.655
1044.0,0.6573
1045.0,0.6485
1046.0,0.6414
1047.0,0.6473
1048.0,0.6509
1049.0,0.6487
1050.0,0.6458
1051.0,0.645
1052.0,0.6425
1053.0,0.6376
1054.0,0.6391
1055.0,0.6396
1056.0,0.6376
1057.0,0.6358
1058.0,0.6203
1059.0,0.6211
1060.0,0.6203
1061.0,0.6197
1062.0,0.6231
1063.0,0.6171
1064.0,0.6244
1065.0,0.6203
1066.0,0.6077
1067.0,0.6157
1068.0,0.6026
1069.0,0.5838
1070.0,0.6039
1071.0,0.6123
1072.0,0.606
1073.0,0.5971
1074.0,0.6115
1075.0,0.5839
1076.0,0.6112
1077.0,0.602
1078.0,0.5912
1079.0,0.601
1080.0,0.5928
1081.0,0.5752
1082.0,0.5819
1083.0,0.5831
1084.0,0.5746
1085.0,0.5939
1086.0,0.5467
1087.0,0.5608
1088.0,0.5831
1089.0,0.568
1090.0,0.5575
1091.0,0.582
1092.0,0.5799
1093.0,0.5004
1094.0,0.5317
1095.0,0.52
1096.0,0.5006
1097.0,0.5664
1098.0,0.4936
1099.0,0.5136
1100.0,0.4814
1101.0,0.4862
1102.0,0.4667
1103.0,0.464
1104.0,0.4644
1105.0,0.5027
1106.0,0.3995
1107.0,0.4804
1108.0,0.4162
1109.0,0.4152
1110.0,0.4773
1111.0,0.336
1112.0,0.4114
1113.0,0.2747
1114.0,0.3054
1115.0,0.2537
1116.0,0.2105
1117.0,0.08636
1118.0,0.226
1119.0,0.1192
1120.0,0.1502
1121.0,0.1949
1122.0,0.08821
1123.0,0.1355
1124.0,0.1145
1125.0,0.1477
1126.0,0.05761
1127.0,0.166
1128.0,0.106
1129.0,0.1114
1130.0,0.0763
1131.0,0.2992
1132.0,0.2377
1133.0,0.1589
1134.0,0.04589
1135.0,0.01696
1136.0,0.1355
1137.0,0.2963
1138.0,0.2107
1139.0,0.2988
1140.0,0.2556
1141.0,0.2002
1142.0,0.227
1143.0,0.3159
1144.0,0.1184
1145.0,0.153
1146.0,0.1652
1147.0,0.06465
1148.0,0.2737
1149.0,0.2233
1150.0,0.1269
1151.0,0.2092
1152.0,0.2519
1153.0,0.2413
1154.0,0.1497
1155.0,0.312
1156.0,0.2839
1157.0,0.3142
1158.0,0.3106
1159.0,0.331
1160.0,0.2878
1161.0,0.3455
1162.0,0.3479
1163.0,0.4545
1164.0,0.3956
1165.0,0.3784
1166.0,0.3722
1167.0,0.4025
1168.0,0.408
1169.0,0.4157
1170.0,0.4473
1171.0,0.4369
1172.0,0.4422
1173.0,0.4464
1174.0,0.3314
1175.0,0.4342
1176.0,0.4712
1177.0,0.4563
1178.0,0.3523
1179.0,0.4748
1180.0,0.4306
1181.0,0.4436
1182.0,0.3166
1183.0,0.4353
1184.0,0.4115
1185.0,0.4001
1186.0,0.4642
1187.0,0.4453
1188.0,0.3229
1189.0,0.4156
1190.0,0.4536
1191.0,0.4361
1192.0,0.4593
1193.0,0.4421
1194.0,0.4543
1195.0,0.4335
1196.0,0.4199
1197.0,0.4525
1198.0,0.417
1199.0,0.3634
1200.0,0.4369
1201.0,0.4243
1202.0,0.4202
1203.0,0.4168
1204.0,0.3694
1205.0,0.4274
1206.0,0.4672
1207.0,0.4199
1208.0,0.4108
1209.0,0.4185
1210.0,0.434
1211.0,0.4167
1212.0,0.4154
1213.0,0.4537
1214.0,0.4236
1215.0,0.4164
1216.0,0.4521
1217.0,0.4419
1218.0,0.4486
1219.0,0.4439
1220.0,0.4489
1221.0,0.4524
1222.0,0.4417
1223.0,0.4383
1224.0,0.4368
1225.0,0.4496
1226.0,0.4516
1227.0,0.421
1228.0,0.4529
1229.0,0.4516
1230.0,0.4447
1231.0,0.4547
1232.0,0.4521
1233.0,0.44
1234.0,0.4536
1235.0,0.4512
1236.0,0.4541
1237.0,0.4491
1238.0,0.4525
1239.0,0.4468
1240.0,0.4483
1241.0,0.447
1242.0,0.4453
1243.0,0.4417
1244.0,0.4451
1245.0,0.4468
1246.0,0.4442
1247.0,0.4427
1248.0,0.4428
1249.0,0.4438
1250.0,0.4414
1251.0,0.4363
1252.0,0.4357
1253.0,0.4334
1254.0,0.43
1255.0,0.4356
1256.0,0.4256
1257.0,0.4237
1258.0,0.4299
1259.0,0.4177
1260.0,0.4195
1261.0,0.4003
1262.0,0.3906
1263.0,0.3915
1264.0,0.3667
1265.0,0.3889
1266.0,0.3774
1267.0,0.3818
1268.0,0.3656
1269.0,0.2511
1270.0,0.3813
1271.0,0.3985
1272.0,0.3993
1273.0,0.3955
1274.0,0.3962
1275.0,0.4011
1276.0,0.4041
1277.0,0.4058
1278.0,0.4118
1279.0,0.4083
1280.0,0.403
1281.0,0.3837
1282.0,0.3684
1283.0,0.3971
1284.0,0.4068
1285.0,0.4093
1286.0,0.4141
1287.0,0.4091
1288.0,0.4086
1289.0,0.3984
1290.0,0.4049
1291.0,0.41
1292.0,0.3903
1293.0,0.4033
1294.0,0.4008
1295.0,0.4001
1296.0,0.3853
1297.0,0.3671
1298.0,0.3899
1299.0,0.4034
1300.0,0.3505
1301.0,0.3594
1302.0,0.3885
1303.0,0.3449
1304.0,0.3027
1305.0,0.3812
1306.0,0.3817
1307.0,0.3063
1308.0,0.3441
1309.0,0.3795
1310.0,0.3009
1311.0,0.3318
1312.0,0.3242
1313.0,0.3193
1314.0,0.2889
1315.0,0.2871
1316.0,0.328
1317.0,0.3117
1318.0,0.3353
1319.0,0.2723
1320.0,0.2616
1321.0,0.3012
1322.0,0.3057
1323.0,0.2384
1324.0,0.267
1325.0,0.3238
1326.0,0.2833
1327.0,0.2716
1328.0,0.2369
1329.0,0.185
1330.0,0.2372
1331.0,0.152
1332.0,0.1539
1333.0,0.2118
1334.0,0.1758
1335.0,0.2375
1336.0,0.1922
1337.0,0.1726
1338.0,0.1864
1339.0,0.1845
1340.0,0.1772
1341.0,0.178
1342.0,0.1867
1343.0,0.1373
1344.0,0.08191
1345.0,0.1169
1346.0,0.06556
1347.0,0.06792
1348.0,0.006008
1349.0,0.01967
1350.0,0.01913
1351.0,0.006123
1352.0,0.002189
1353.0,0.0001566
1354.0,0.0004387
1355.0,6.894e-06
1356.0,7.875e-05
1357.0,0.0001186
1358.0,7.95e-06
1359.0,1.629e-06
1360.0,4.327e-06
1361.0,1.392e-08
1362.0,6.169e-11
1363.0,6.579e-06
1364.0,2.882e-06
1365.0,3.758e-11
1366.0,2.518e-05
1367.0,9.744e-06
1368.0,8.801e-13
1369.0,1.117e-06
1370.0,6.751e-07
1371.0,5.033e-08
1372.0,5.389e-06
1373.0,7.697e-05
1374.0,0.0002842
1375.0,0.0005125
1376.0,0.0003905
1377.0,0.0001892
1378.0,0.001637
1379.0,8.075e-05
1380.0,0.0001324
1381.0,4.074e-06
1382.0,5.143e-06
1383.0,9.593e-08
1384.0,1.365e-06
1385.0,3.9e-06
1386.0,5.255e-06
1387.0,0.0003319
1388.0,6.933e-06
1389.0,0.0008862
1390.0,0.0007599
1391.0,0.0005381
1392.0,3.872e-05
1393.0,0.00018
1394.0,0.0001321
1395.0,1.314e-06
1396.0,1.748e-08
1397.0,7.888e-05
1398.0,0.001872
1399.0,0.001189
1400.0,9.868e-09
1401.0,2.844e-08
1402.0,0.002463
1403.0,0.003261
1404.0,0.001019
1405.0,7.634e-07
1406.0,0.00289
1407.0,0.0002464
1408.0,0.002333
1409.0,0.0009272
1410.0,0.0006789
1411.0,0.002842
1412.0,0.00354
1413.0,0.0283
1414.0,0.0005261
1415.0,0.0002747
1416.0,0.04089
1417.0,0.01437
1418.0,0.01647
1419.0,0.002661
1420.0,0.01016
1421.0,0.01114
1422.0,0.05276
1423.0,0.01079
1424.0,0.01973
1425.0,0.02967
1426.0,0.03194
1427.0,0.05465
1428.0,0.005771
1429.0,0.04264
1430.0,0.06832
1431.0,0.07396
1432.0,0.004602
1433.0,0.0486
1434.0,0.0255
1435.0,0.02815
1436.0,0.05007
1437.0,0.0384
1438.0,0.01741
1439.0,0.06621
1440.0,0.04984
1441.0,0.03997
1442.0,0.04389
1443.0,0.0521
1444.0,0.0709
1445.0,0.05787
1446.0,0.02678
1447.0,0.04213
1448.0,0.1252
1449.0,0.1111
1450.0,0.03116
1451.0,0.01313
1452.0,0.06914
1453.0,0.08938
1454.0,0.1453
1455.0,0.07155
1456.0,0.09741
1457.0,0.1258
1458.0,0.1437
1459.0,0.1707
1460.0,0.09138
1461.0,0.09742
1462.0,0.1389
1463.0,0.0476
1464.0,0.1608
1465.0,0.09767
1466.0,0.07243
1467.0,0.04037
