interpolation:linear
wavelength,value
280.0,7.661000000000001e-28
280.5,4.4950000000000005e-26
281.0,3.034e-25
281.5,1.695e-23
282.0,1.923e-22
282.5,9.364999999999998e-22
283.0,5.37e-21
283.5,1.154e-20
284.0,5.363e-19
284.5,2.42e-18
285.0,7.578e-18
285.5,8.194e-17
286.0,4.413e-16
286.5,3.36e-15
287.0,1.392e-14
287.5,8.384e-14
288.0,5.324e-13
288.5,2.537e-12
289.0,1.024e-11
289.5,4.676e-11
290.0,1.793e-10
290.5,4.766e-10
291.0,1.384e-09
291.5,5.704e-09
292.0,1.737e-08
292.5,2.899e-08
293.0,7.672e-08
293.5,2.448e-07
294.0,4.642e-07
294.5,8.972e-07
295.0,1.775e-06
295.5,4.964e-06
296.0,9.854e-06
296.5,1.409e-05
297.0,1.937e-05
297.5,5.251e-05
298.0,8.308e-05
298.5,8.362e-05
299.0,0.0001838
299.5,0.0002984
300.0,0.0003241
300.5,0.0004612
301.0,0.0008006
301.5,0.001221
302.0,0.001023
302.5,0.002012
303.0,0.003622
303.5,0.004553
304.0,0.004238
304.5,0.006079
305.0,0.008663
305.5,0.009557
306.0,0.009159
306.5,0.01116
307.0,0.01559
307.5,0.01956
308.0,0.0206
308.5,0.02372
309.0,0.02131
309.5,0.0243
310.0,0.02441
310.5,0.03966
311.0,0.04975
311.5,0.04819
312.0,0.04747
312.5,0.05721
313.0,0.06191
313.5,0.0611
314.0,0.07521
314.5,0.06496
315.0,0.08542
315.5,0.07318
316.0,0.06253
316.5,0.088
317.0,0.11
317.5,0.1162
318.0,0.0895
318.5,0.1076
319.0,0.126
319.5,0.1067
320.0,0.1303
320.5,0.1576
321.0,0.1359
321.5,0.1305
322.0,0.1459
322.5,0.1274
323.0,0.1243
323.5,0.1464
324.0,0.1712
324.5,0.1769
325.0,0.1593
325.5,0.2014
326.0,0.2408
326.5,0.2386
327.0,0.2406
327.5,0.2355
328.0,0.2153
328.5,0.2219
329.0,0.2615
329.5,0.2964
330.0,0.3023
330.5,0.2474
331.0,0.2548
331.5,0.2572
332.0,0.2742
332.5,0.2703
333.0,0.2723
333.5,0.2512
334.0,0.2592
334.5,0.296
335.0,0.2769
335.5,0.3156
336.0,0.2194
336.5,0.2672
337.0,0.2218
337.5,0.2778
338.0,0.2691
338.5,0.3049
339.0,0.3049
339.5,0.2935
340.0,0.3539
340.5,0.3201
341.0,0.3082
341.5,0.2869
342.0,0.3451
342.5,0.3249
343.0,0.3573
343.5,0.3366
344.0,0.2529
344.5,0.2513
345.0,0.3379
345.5,0.3477
346.0,0.2974
346.5,0.3385
347.0,0.3637
347.5,0.2949
348.0,0.339
348.5,0.3409
349.0,0.3177
349.5,0.3157
350.0,0.3921
350.5,0.4151
351.0,0.3717
351.5,0.3608
352.0,0.3903
352.5,0.3064
353.0,0.3878
353.5,0.4165
354.0,0.4342
354.5,0.442
355.0,0.442
355.5,0.4008
356.0,0.421
356.5,0.3608
357.0,0.2992
357.5,0.3676
358.0,0.2924
358.5,0.2508
359.0,0.3519
359.5,0.4497
360.0,0.4785
360.5,0.3838
361.0,0.3511
361.5,0.4056
362.0,0.3519
362.5,0.4885
363.0,0.4401
363.5,0.4066
364.0,0.4989
364.5,0.4277
365.0,0.437
365.5,0.5502
366.0,0.5847
366.5,0.551
367.0,0.5383
367.5,0.5603
368.0,0.4917
368.5,0.4976
369.0,0.539
369.5,0.5762
370.0,0.616
370.5,0.4795
371.0,0.5138
371.5,0.6447
372.0,0.4291
372.5,0.516
373.0,0.5263
373.5,0.3434
374.0,0.5003
374.5,0.4154
375.0,0.4049
375.5,0.6062
376.0,0.5039
376.5,0.5236
377.0,0.5558
377.5,0.652
378.0,0.7086
378.5,0.6716
379.0,0.5558
379.5,0.5091
380.0,0.5308
380.5,0.6446
381.0,0.6476
381.5,0.5147
382.0,0.4583
382.5,0.3916
383.0,0.3635
383.5,0.3509
384.0,0.3881
384.5,0.5721
385.0,0.5687
385.5,0.5309
386.0,0.4558
386.5,0.6001
387.0,0.4999
387.5,0.5628
388.0,0.5208
388.5,0.516
389.0,0.5583
389.5,0.6778
390.0,0.6818
390.5,0.6289
391.0,0.7419
391.5,0.7585
392.0,0.6403
392.5,0.5745
393.0,0.3203
393.5,0.2333
394.0,0.4758
394.5,0.6062
395.0,0.7412
395.5,0.7546
396.0,0.6556
396.5,0.384
397.0,0.2888
397.5,0.5885
398.0,0.8259
398.5,0.8554
399.0,0.9279
399.5,0.9267
400.0,0.9642
401.0,0.9939
402.0,1.052
403.0,1.003
404.0,0.9915
405.0,0.9948
406.0,0.982
407.0,0.9695
408.0,1.011
409.0,1.085
410.0,0.9513
411.0,1.034
412.0,1.114
413.0,1.089
414.0,1.106
415.0,1.112
416.0,1.135
417.0,1.111
418.0,1.094
419.0,1.111
420.0,1.11
421.0,1.164
422.0,1.11
423.0,1.087
424.0,1.153
425.0,1.154
426.0,1.127
427.0,1.109
428.0,1.083
429.0,1.028
430.0,0.9019
431.0,0.8964
432.0,1.16
433.0,1.17
434.0,1.089
435.0,1.14
436.0,1.287
437.0,1.272
438.0,1.161
439.0,1.204
440.0,1.245
441.0,1.292
442.0,1.389
443.0,1.356
444.0,1.388
445.0,1.361
446.0,1.302
447.0,1.41
448.0,1.435
449.0,1.443
450.0,1.487
451.0,1.545
452.0,1.491
453.0,1.405
454.0,1.469
455.0,1.481
456.0,1.519
457.0,1.548
458.0,1.498
459.0,1.493
460.0,1.5
461.0,1.537
462.0,1.551
463.0,1.543
464.0,1.519
465.0,1.502
466.0,1.519
467.0,1.494
468.0,1.514
469.0,1.525
470.0,1.479
471.0,1.479
472.0,1.56
473.0,1.543
474.0,1.548
475.0,1.564
476.0,1.52
477.0,1.527
478.0,1.572
479.0,1.565
480.0,1.57
481.0,1.601
482.0,1.611
483.0,1.593
484.0,1.563
485.0,1.49
486.0,1.304
487.0,1.368
488.0,1.503
489.0,1.51
490.0,1.591
491.0,1.565
492.0,1.48
493.0,1.53
494.0,1.547
495.0,1.562
496.0,1.574
497.0,1.6
498.0,1.527
499.0,1.549
500.0,1.506
501.0,1.481
502.0,1.462
503.0,1.525
504.0,1.49
505.0,1.543
506.0,1.595
507.0,1.519
508.0,1.472
509.0,1.515
510.0,1.508
511.0,1.549
512.0,1.568
513.0,1.485
514.0,1.476
515.0,1.463
516.0,1.461
517.0,1.299
518.0,1.367
519.0,1.436
520.0,1.489
521.0,1.505
522.0,1.508
523.0,1.482
524.0,1.537
525.0,1.557
526.0,1.489
527.0,1.405
528.0,1.488
529.0,1.57
530.0,1.548
531.0,1.573
532.0,1.52
533.0,1.477
534.0,1.522
535.0,1.556
536.0,1.571
537.0,1.51
538.0,1.538
539.0,1.526
540.0,1.464
541.0,1.476
542.0,1.523
543.0,1.508
544.0,1.536
545.0,1.532
546.0,1.54
547.0,1.54
548.0,1.523
549.0,1.528
550.0,1.547
551.0,1.53
552.0,1.541
553.0,1.515
554.0,1.552
555.0,1.557
556.0,1.537
557.0,1.491
558.0,1.481
559.0,1.455
560.0,1.474
561.0,1.495
562.0,1.485
563.0,1.527
564.0,1.487
565.0,1.475
566.0,1.455
567.0,1.484
568.0,1.472
569.0,1.44
570.0,1.44
571.0,1.432
572.0,1.469
573.0,1.485
574.0,1.482
575.0,1.455
576.0,1.443
577.0,1.459
578.0,1.437
579.0,1.443
580.0,1.469
581.0,1.477
582.0,1.504
583.0,1.508
584.0,1.521
585.0,1.485
586.0,1.455
587.0,1.488
588.0,1.455
589.0,1.295
590.0,1.354
591.0,1.431
592.0,1.415
593.0,1.435
594.0,1.426
595.0,1.393
596.0,1.445
597.0,1.431
598.0,1.427
599.0,1.428
600.0,1.43
601.0,1.418
602.0,1.409
603.0,1.433
604.0,1.457
605.0,1.45
606.0,1.444
607.0,1.458
608.0,1.442
609.0,1.445
610.0,1.435
611.0,1.442
612.0,1.439
613.0,1.421
614.0,1.402
615.0,1.432
616.0,1.385
617.0,1.383
618.0,1.436
619.0,1.422
620.0,1.432
621.0,1.434
622.0,1.418
623.0,1.397
624.0,1.373
625.0,1.371
626.0,1.392
627.0,1.408
628.0,1.326
629.0,1.38
630.0,1.349
631.0,1.376
632.0,1.359
633.0,1.4
634.0,1.385
635.0,1.407
636.0,1.388
637.0,1.411
638.0,1.424
639.0,1.408
640.0,1.394
641.0,1.394
642.0,1.387
643.0,1.406
644.0,1.402
645.0,1.405
646.0,1.374
647.0,1.36
648.0,1.362
649.0,1.337
650.0,1.34
651.0,1.398
652.0,1.344
653.0,1.38
654.0,1.364
655.0,1.316
656.0,1.165
657.0,1.197
658.0,1.34
659.0,1.35
660.0,1.356
661.0,1.365
662.0,1.369
663.0,1.342
664.0,1.357
665.0,1.358
666.0,1.359
667.0,1.358
668.0,1.358
669.0,1.379
670.0,1.374
671.0,1.374
672.0,1.362
673.0,1.383
674.0,1.378
675.0,1.365
676.0,1.375
677.0,1.361
678.0,1.365
679.0,1.343
680.0,1.354
681.0,1.346
682.0,1.344
683.0,1.342
684.0,1.336
685.0,1.347
686.0,1.34
687.0,0.9349
688.0,1.074
689.0,1.078
690.0,1.123
691.0,1.174
692.0,1.211
693.0,1.202
694.0,1.192
695.0,1.236
696.0,1.238
697.0,1.307
698.0,1.288
699.0,1.262
700.0,1.247
701.0,1.236
702.0,1.243
703.0,1.245
704.0,1.283
705.0,1.285
706.0,1.283
707.0,1.284
708.0,1.287
709.0,1.287
710.0,1.288
711.0,1.286
712.0,1.282
713.0,1.27
714.0,1.275
715.0,1.236
716.0,1.238
717.0,1.091
718.0,1.005
719.0,0.9225
720.0,0.9676
721.0,1.058
722.0,1.199
723.0,1.122
724.0,1.018
725.0,1.004
726.0,1.05
727.0,1.062
728.0,1.003
729.0,1.035
730.0,1.095
731.0,1.05
732.0,1.117
733.0,1.176
734.0,1.203
735.0,1.179
736.0,1.177
737.0,1.183
738.0,1.197
739.0,1.174
740.0,1.203
741.0,1.191
742.0,1.191
743.0,1.222
744.0,1.218
745.0,1.218
746.0,1.224
747.0,1.227
748.0,1.224
749.0,1.21
750.0,1.21
751.0,1.198
752.0,1.203
753.0,1.209
754.0,1.212
755.0,1.206
756.0,1.205
757.0,1.207
758.0,1.192
759.0,1.171
760.0,0.2376
761.0,0.1335
762.0,0.6437
763.0,0.3471
764.0,0.4994
765.0,0.6442
766.0,0.7702
767.0,0.9512
768.0,1.081
769.0,1.101
770.0,1.134
771.0,1.142
772.0,1.144
773.0,1.152
774.0,1.146
775.0,1.137
776.0,1.151
777.0,1.136
778.0,1.13
779.0,1.131
780.0,1.124
781.0,1.126
782.0,1.133
783.0,1.113
784.0,1.119
785.0,1.111
786.0,1.123
787.0,1.106
788.0,1.093
789.0,1.093
790.0,1.066
791.0,1.073
792.0,1.065
793.0,1.048
794.0,1.064
795.0,1.082
796.0,1.053
797.0,1.054
798.0,1.082
799.0,1.076
800.0,1.058
801.0,1.056
802.0,1.053
803.0,1.045
804.0,1.046
805.0,1.042
806.0,1.07
807.0,1.058
808.0,1.059
809.0,1.04
810.0,1.033
811.0,1.036
812.0,1.008
813.0,0.989
814.0,0.8782
815.0,0.8726
816.0,0.8135
817.0,0.8275
818.0,0.7984
819.0,0.8857
820.0,0.837
821.0,0.9689
822.0,0.9428
823.0,0.6565
824.0,0.9189
825.0,0.9529
826.0,0.9197
827.0,0.9676
828.0,0.829
829.0,0.9138
830.0,0.9028
831.0,0.9058
832.0,0.8797
833.0,0.9315
834.0,0.9015
835.0,0.9844
836.0,0.9461
837.0,0.9871
838.0,0.9581
839.0,0.972
840.0,0.993
841.0,0.9797
842.0,0.9808
843.0,0.9793
844.0,0.9663
845.0,0.9982
846.0,0.9938
847.0,0.975
848.0,0.9695
849.0,0.9421
850.0,0.9026
851.0,0.9563
852.0,0.9494
853.0,0.9136
854.0,0.7892
855.0,0.8667
856.0,0.9474
857.0,0.9683
858.0,0.9613
859.0,0.9621
860.0,0.9637
861.0,0.9586
862.0,0.9736
863.0,0.9967
864.0,0.9469
865.0,0.9387
866.0,0.8441
867.0,0.8809
868.0,0.9587
869.0,0.9389
870.0,0.9657
871.0,0.9526
872.0,0.9493
873.0,0.9475
874.0,0.9363
875.0,0.9174
876.0,0.9271
877.0,0.9365
878.0,0.9468
879.0,0.9323
880.0,0.9124
881.0,0.899
882.0,0.9185
883.0,0.9213
884.0,0.9172
885.0,0.9242
886.0,0.8817
887.0,0.8905
888.0,0.904
889.0,0.9138
890.0,0.9069
891.0,0.9051
892.0,0.88
893.0,0.8537
894.0,0.8261
895.0,0.7836
896.0,0.7395
897.0,0.6393
898.0,0.6954
899.0,0.5338
900.0,0.7097
901.0,0.5593
902.0,0.6501
903.0,0.6586
904.0,0.8204
905.0,0.7935
906.0,0.7437
907.0,0.6102
908.0,0.6215
909.0,0.6705
910.0,0.5979
911.0,0.6343
912.0,0.6621
913.0,0.6071
914.0,0.6011
915.0,0.6512
916.0,0.5527
917.0,0.6961
918.0,0.5669
919.0,0.7076
920.0,0.7123
921.0,0.7403
922.0,0.6654
923.0,0.715
924.0,0.6823
925.0,0.6675
926.0,0.6749
927.0,0.7523
928.0,0.5611
929.0,0.5146
930.0,0.4081
931.0,0.3862
932.0,0.2818
933.0,0.2309
934.0,0.1305
935.0,0.2348
936.0,0.1491
937.0,0.1514
938.0,0.1852
939.0,0.3743
940.0,0.4478
941.0,0.3413
942.0,0.3932
943.0,0.2612
944.0,0.2729
945.0,0.3514
946.0,0.1823
947.0,0.3539
948.0,0.2606
949.0,0.4704
950.0,0.1358
951.0,0.4626
952.0,0.253
953.0,0.3239
954.0,0.394
955.0,0.3273
956.0,0.3161
957.0,0.2538
958.0,0.4435
959.0,0.3558
960.0,0.3987
961.0,0.4449
962.0,0.4213
963.0,0.4834
964.0,0.4436
965.0,0.4814
966.0,0.482
967.0,0.4802
968.0,0.6358
969.0,0.6647
970.0,0.6116
971.0,0.6966
972.0,0.6671
973.0,0.5844
974.0,0.5552
975.0,0.575
976.0,0.5478
977.0,0.6197
978.0,0.5903
979.0,0.6172
980.0,0.581
981.0,0.6927
982.0,0.6637
983.0,0.6379
984.0,0.7125
985.0,0.6612
986.0,0.7242
987.0,0.711
988.0,0.7097
989.0,0.7215
990.0,0.7055
991.0,0.7238
992.0,0.728
993.0,0.7127
994.0,0.7277
995.0,0.7267
996.0,0.7237
997.0,0.7247
998.0,0.7214
999.0,0.7187
1000.0,0.7139
1001.0,0.7226
1002.0,0.7036
1003.0,0.7099
1004.0,0.6928
1005.0,0.6672
1006.0,0.6934
1007.0,0.7081
1008.0,0.7044
1009.0,0.7008
1010.0,0.698
1011.0,0.7046
1012.0,0.6987
1013.0,0.7029
1014.0,0.698
1015.0,0.6934
1016.0,0.6903
1017.0,0.6921
1018.0,0.6895
1019.0,0.6751
1020.0,0.6859
1021.0,0.685
1022.0,0.6798
1023.0,0.687
1024.0,0.6785
1025.0,0.6865
1026.0,0.6837
1027.0,0.6821
1028.0,0.6807
1029.0,0.6728
1030.0,0.6773
1031.0,0.6746
1032.0,0.6727
1033.0,0.6626
1034.0,0.6626
1035.0,0.6647
1036.0,0.6682
1037.0,0.6574
1038.0,0.6603
1039.0,0.66
1040.0,0.6573
1041.0,0.66
1042.0,0.6554
1043.0,0.6534
1044.0,0.6557
1045.0,0.6469
1046.0,0.6398
1047.0,0.6456
1048.0,0.6491
1049.0,0.6468
1050.0,0.6439
1051.0,0.6431
1052.0,0.6405
1053.0,0.6355
1054.0,0.6369
1055.0,0.6373
1056.0,0.6352
1057.0,0.6333
1058.0,0.6178
1059.0,0.6185
1060.0,0.6176
1061.0,0.6169
1062.0,0.6202
1063.0,0.6142
1064.0,0.6214
1065.0,0.6171
1066.0,0.6048
1067.0,0.6127
1068.0,0.5994
1069.0,0.5808
1070.0,0.6007
1071.0,0.6097
1072.0,0.6029
1073.0,0.5942
1074.0,0.6093
1075.0,0.5797
1076.0,0.6089
1077.0,0.5985
1078.0,0.5874
1079.0,0.5991
1080.0,0.5893
1081.0,0.5709
1082.0,0.5793
1083.0,0.5809
1084.0,0.5697
1085.0,0.5907
1086.0,0.5404
1087.0,0.5568
1088.0,0.5806
1089.0,0.5636
1090.0,0.5518
1091.0,0.5789
1092.0,0.5773
1093.0,0.492
1094.0,0.5285
1095.0,0.5123
1096.0,0.4913
1097.0,0.564
1098.0,0.4839
1099.0,0.5044
1100.0,0.47
1101.0,0.4756
1102.0,0.4549
1103.0,0.451
1104.0,0.4516
1105.0,0.4932
1106.0,0.3816
1107.0,0.4693
1108.0,0.4004
1109.0,0.4006
1110.0,0.4655
1111.0,0.3193
1112.0,0.3974
1113.0,0.2565
1114.0,0.2863
1115.0,0.2375
1116.0,0.1917
1117.0,0.07263
1118.0,0.2078
1119.0,0.1049
1120.0,0.1321
1121.0,0.1743
1122.0,0.07485
1123.0,0.1194
1124.0,0.1008
1125.0,0.131
1126.0,0.04708
1127.0,0.1477
1128.0,0.08993
1129.0,0.0952
1130.0,0.06327
1131.0,0.2762
1132.0,0.2174
1133.0,0.1398
1134.0,0.03692
1135.0,0.01378
1136.0,0.1174
1137.0,0.272
1138.0,0.1921
1139.0,0.2825
1140.0,0.2376
1141.0,0.1825
1142.0,0.2092
1143.0,0.2953
1144.0,0.1052
1145.0,0.1349
1146.0,0.1455
1147.0,0.05268
1148.0,0.2557
1149.0,0.2054
1150.0,0.1129
1151.0,0.1907
1152.0,0.2333
1153.0,0.2263
1154.0,0.131
1155.0,0.2948
1156.0,0.2663
1157.0,0.2975
1158.0,0.2943
1159.0,0.3164
1160.0,0.2717
1161.0,0.3321
1162.0,0.334
1163.0,0.4462
1164.0,0.3845
1165.0,0.3645
1166.0,0.3607
1167.0,0.392
1168.0,0.3967
1169.0,0.4055
1170.0,0.4391
1171.0,0.4284
1172.0,0.4352
1173.0,0.4382
1174.0,0.3174
1175.0,0.4274
1176.0,0.4675
1177.0,0.4503
1178.0,0.3417
1179.0,0.4712
1180.0,0.4232
1181.0,0.4365
1182.0,0.3051
1183.0,0.4293
1184.0,0.4036
1185.0,0.3906
1186.0,0.4592
1187.0,0.4386
1188.0,0.3106
1189.0,0.4089
1190.0,0.4488
1191.0,0.4283
1192.0,0.4548
1193.0,0.4366
1194.0,0.4495
1195.0,0.4267
1196.0,0.4119
1197.0,0.4489
1198.0,0.4119
1199.0,0.3538
1200.0,0.4313
1201.0,0.4172
1202.0,0.414
1203.0,0.4107
1204.0,0.3611
1205.0,0.4226
1206.0,0.4649
1207.0,0.4133
1208.0,0.4058
1209.0,0.4139
1210.0,0.4303
1211.0,0.4112
1212.0,0.4079
1213.0,0.4504
1214.0,0.4169
1215.0,0.4094
1216.0,0.4489
1217.0,0.4378
1218.0,0.4454
1219.0,0.4402
1220.0,0.4457
1221.0,0.4498
1222.0,0.4385
1223.0,0.4347
1224.0,0.4326
1225.0,0.447
1226.0,0.4495
1227.0,0.4165
1228.0,0.4514
1229.0,0.4496
1230.0,0.4423
1231.0,0.4536
1232.0,0.451
1233.0,0.437
1234.0,0.4529
1235.0,0.4503
1236.0,0.4534
1237.0,0.4477
1238.0,0.4519
1239.0,0.4461
1240.0,0.4477
1241.0,0.446
1242.0,0.4447
1243.0,0.4411
1244.0,0.4444
1245.0,0.4462
1246.0,0.4436
1247.0,0.442
1248.0,0.4419
1249.0,0.4431
1250.0,0.4405
1251.0,0.4351
1252.0,0.4349
1253.0,0.4319
1254.0,0.428
1255.0,0.4346
1256.0,0.4234
1257.0,0.4213
1258.0,0.4284
1259.0,0.4144
1260.0,0.4163
1261.0,0.3949
1262.0,0.384
1263.0,0.3848
1264.0,0.3575
1265.0,0.3823
1266.0,0.3693
1267.0,0.3748
1268.0,0.357
1269.0,0.2315
1270.0,0.3738
1271.0,0.3934
1272.0,0.3944
1273.0,0.3905
1274.0,0.3915
1275.0,0.3968
1276.0,0.4002
1277.0,0.4025
1278.0,0.4094
1279.0,0.4058
1280.0,0.4006
1281.0,0.3819
1282.0,0.3674
1283.0,0.3959
1284.0,0.4054
1285.0,0.408
1286.0,0.4132
1287.0,0.4075
1288.0,0.4072
1289.0,0.3955
1290.0,0.4035
1291.0,0.409
1292.0,0.3864
1293.0,0.4016
1294.0,0.3989
1295.0,0.3975
1296.0,0.3809
1297.0,0.3614
1298.0,0.3868
1299.0,0.4019
1300.0,0.344
1301.0,0.3538
1302.0,0.3855
1303.0,0.3391
1304.0,0.2927
1305.0,0.3779
1306.0,0.3781
1307.0,0.2978
1308.0,0.3391
1309.0,0.3756
1310.0,0.2923
1311.0,0.3259
1312.0,0.3176
1313.0,0.312
1314.0,0.2805
1315.0,0.2777
1316.0,0.3213
1317.0,0.3048
1318.0,0.3298
1319.0,0.2618
1320.0,0.2529
1321.0,0.2931
1322.0,0.2967
1323.0,0.2265
1324.0,0.2568
1325.0,0.317
1326.0,0.2741
1327.0,0.262
1328.0,0.2269
1329.0,0.1731
1330.0,0.224
1331.0,0.1382
1332.0,0.1417
1333.0,0.1965
1334.0,0.1651
1335.0,0.2257
1336.0,0.18
1337.0,0.16
1338.0,0.1731
1339.0,0.1719
1340.0,0.1665
1341.0,0.1643
1342.0,0.1725
1343.0,0.1204
1344.0,0.07191
1345.0,0.1035
1346.0,0.05369
1347.0,0.05498
1348.0,0.003991
1349.0,0.01388
1350.0,0.01409
1351.0,0.003789
1352.0,0.001142
1353.0,6.585e-05
1354.0,0.0002099
1355.0,2.175e-06
1356.0,3.248e-05
1357.0,4.932e-05
1358.0,2.55e-06
1359.0,3.88e-07
1360.0,1.248e-06
1361.0,2.083e-09
1362.0,6.794e-12
1363.0,1.783e-06
1364.0,7.487e-07
1365.0,2.963e-12
1366.0,7.417e-06
1367.0,2.949e-06
1368.0,3.522e-14
1369.0,2.831e-07
1370.0,1.512e-07
1371.0,9.487e-09
1372.0,1.623e-06
1373.0,2.884e-05
1374.0,0.000123
1375.0,0.0002241
1376.0,0.000188
1377.0,8.787e-05
1378.0,0.0008266
1379.0,3.707e-05
1380.0,5.628e-05
1381.0,1.554e-06
1382.0,1.497e-06
1383.0,2.42e-08
1384.0,3.304e-07
1385.0,1.297e-06
1386.0,1.409e-06
1387.0,0.0001343
1388.0,2.672e-06
1389.0,0.0004149
1390.0,0.0003573
1391.0,0.0002431
1392.0,1.632e-05
1393.0,8.261e-05
1394.0,4.9e-05
1395.0,4e-07
1396.0,2.846e-09
1397.0,3.408e-05
1398.0,0.0009368
1399.0,0.0005935
1400.0,1.365e-09
1401.0,4.93e-09
1402.0,0.001474
1403.0,0.001892
1404.0,0.0005823
1405.0,2.085e-07
1406.0,0.00157
1407.0,0.0001356
1408.0,0.001277
1409.0,0.0004563
1410.0,0.0003516
1411.0,0.001658
1412.0,0.002173
1413.0,0.02057
1414.0,0.0002754
1415.0,0.0001362
1416.0,0.03241
1417.0,0.01021
1418.0,0.01169
1419.0,0.001833
1420.0,0.007167
1421.0,0.007757
1422.0,0.04221
1423.0,0.008282
1424.0,0.01543
1425.0,0.02285
1426.0,0.02558
1427.0,0.04625
1428.0,0.003782
1429.0,0.03493
1430.0,0.0587
1431.0,0.06428
1432.0,0.002987
1433.0,0.04115
1434.0,0.02106
1435.0,0.02149
1436.0,0.0408
1437.0,0.03126
1438.0,0.01338
1439.0,0.0552
1440.0,0.04137
1441.0,0.03183
1442.0,0.03526
1443.0,0.04384
1444.0,0.06054
1445.0,0.04771
1446.0,0.02156
1447.0,0.03395
1448.0,0.1128
1449.0,0.09823
1450.0,0.02516
1451.0,0.01017
1452.0,0.05937
1453.0,0.07784
1454.0,0.133
1455.0,0.06295
1456.0,0.0847
1457.0,0.1133
1458.0,0.1333
1459.0,0.1577
1460.0,0.08226
1461.0,0.08602
1462.0,0.126
1463.0,0.04083
1464.0,0.1491
