interpolation:linear
wavelength,value
280.0,3.715e-25
280.5,1.472e-23
281.0,8.603e-23
281.5,3.286e-21
282.0,2.959e-20
282.5,1.233e-19
283.0,5.957e-19
283.5,1.175e-18
284.0,3.674e-17
284.5,1.384e-16
285.0,3.564e-16
285.5,3.061e-15
286.0,1.501e-14
286.5,9.44e-14
287.0,3.397e-13
287.5,1.7e-12
288.0,8.546e-12
288.5,3.597e-11
289.0,1.278e-10
289.5,5.07e-10
290.0,1.732e-09
290.5,4.182e-09
291.0,1.081e-08
291.5,3.846e-08
292.0,1.039e-07
292.5,1.62e-07
293.0,3.931e-07
293.5,1.115e-06
294.0,1.951e-06
294.5,3.551e-06
295.0,6.513e-06
295.5,1.658e-05
296.0,3.087e-05
296.5,4.154e-05
297.0,5.44e-05
297.5,0.0001379
298.0,0.0002066
298.5,0.0001996
299.0,0.0004224
299.5,0.0006457
300.0,0.0006793
300.5,0.0009373
301.0,0.001556
301.5,0.002287
302.0,0.001883
302.5,0.00359
303.0,0.006221
303.5,0.007652
304.0,0.007046
304.5,0.009854
305.0,0.01359
305.5,0.0147
306.0,0.01397
306.5,0.01681
307.0,0.02292
307.5,0.02811
308.0,0.02947
308.5,0.03357
309.0,0.02991
309.5,0.03333
310.0,0.03312
310.5,0.05351
311.0,0.06653
311.5,0.06417
312.0,0.06217
312.5,0.07412
313.0,0.07973
313.5,0.07895
314.0,0.09601
314.5,0.08169
315.0,0.107
315.5,0.0922
316.0,0.07785
316.5,0.1085
317.0,0.1356
317.5,0.1433
318.0,0.1096
318.5,0.1304
319.0,0.1516
319.5,0.1294
320.0,0.1581
320.5,0.189
321.0,0.1614
321.5,0.1548
322.0,0.1744
322.5,0.1521
323.0,0.1473
323.5,0.1718
324.0,0.2004
324.5,0.2076
325.0,0.188
325.5,0.2364
326.0,0.2807
326.5,0.2768
327.0,0.2792
327.5,0.2736
328.0,0.2512
328.5,0.257
329.0,0.3013
329.5,0.3408
330.0,0.3476
330.5,0.2851
331.0,0.2938
331.5,0.2955
332.0,0.3138
332.5,0.3087
333.0,0.311
333.5,0.2873
334.0,0.2963
334.5,0.3372
335.0,0.3149
335.5,0.3583
336.0,0.2489
336.5,0.3033
337.0,0.2518
337.5,0.3153
338.0,0.3045
338.5,0.3445
339.0,0.3443
339.5,0.3311
340.0,0.3994
340.5,0.3609
341.0,0.347
341.5,0.3226
342.0,0.3877
342.5,0.3648
343.0,0.4009
343.5,0.3776
344.0,0.2838
344.5,0.2816
345.0,0.3781
345.5,0.3887
346.0,0.3322
346.5,0.3779
347.0,0.4058
347.5,0.3288
348.0,0.3776
348.5,0.3795
349.0,0.3535
349.5,0.351
350.0,0.4356
350.5,0.461
351.0,0.4125
351.5,0.4003
352.0,0.4327
352.5,0.3395
353.0,0.4293
353.5,0.4608
354.0,0.4801
354.5,0.4885
355.0,0.4882
355.5,0.4424
356.0,0.4644
356.5,0.3978
357.0,0.3297
357.5,0.405
358.0,0.3219
358.5,0.276
359.0,0.3871
359.5,0.4945
360.0,0.5258
360.5,0.4216
361.0,0.3855
361.5,0.445
362.0,0.3857
362.5,0.5351
363.0,0.4818
363.5,0.4449
364.0,0.5455
364.5,0.4675
365.0,0.4774
365.5,0.6007
366.0,0.6381
366.5,0.601
367.0,0.5868
367.5,0.6105
368.0,0.5356
368.5,0.5417
369.0,0.5865
369.5,0.6267
370.0,0.6697
370.5,0.521
371.0,0.558
371.5,0.6998
372.0,0.4656
372.5,0.5596
373.0,0.5705
373.5,0.372
374.0,0.5418
374.5,0.4497
375.0,0.4382
375.5,0.6558
376.0,0.5449
376.5,0.566
377.0,0.6005
377.5,0.7041
378.0,0.765
378.5,0.7249
379.0,0.5997
379.5,0.5492
380.0,0.5723
380.5,0.6947
381.0,0.6976
381.5,0.5541
382.0,0.4931
382.5,0.4212
383.0,0.3908
383.5,0.3772
384.0,0.4169
384.5,0.6144
385.0,0.6105
385.5,0.5696
386.0,0.4889
386.5,0.6434
387.0,0.5357
387.5,0.603
388.0,0.5578
388.5,0.5525
389.0,0.5975
389.5,0.7251
390.0,0.7291
390.5,0.6723
391.0,0.7929
391.5,0.8103
392.0,0.6838
392.5,0.6133
393.0,0.3419
393.5,0.2489
394.0,0.5074
394.5,0.6462
395.0,0.7899
395.5,0.8039
396.0,0.6983
396.5,0.4088
397.0,0.3074
397.5,0.6262
398.0,0.8785
398.5,0.9096
399.0,0.9863
399.5,0.9847
400.0,1.024
401.0,1.055
402.0,1.117
403.0,1.064
404.0,1.051
405.0,1.054
406.0,1.039
407.0,1.026
408.0,1.069
409.0,1.147
410.0,1.005
411.0,1.091
412.0,1.175
413.0,1.149
414.0,1.166
415.0,1.172
416.0,1.195
417.0,1.169
418.0,1.15
419.0,1.168
420.0,1.166
421.0,1.223
422.0,1.165
423.0,1.141
424.0,1.21
425.0,1.21
426.0,1.181
427.0,1.161
428.0,1.134
429.0,1.076
430.0,0.9433
431.0,0.9373
432.0,1.212
433.0,1.222
434.0,1.137
435.0,1.19
436.0,1.343
437.0,1.327
438.0,1.21
439.0,1.255
440.0,1.297
441.0,1.346
442.0,1.446
443.0,1.412
444.0,1.445
445.0,1.416
446.0,1.353
447.0,1.465
448.0,1.491
449.0,1.499
450.0,1.543
451.0,1.603
452.0,1.547
453.0,1.457
454.0,1.523
455.0,1.535
456.0,1.574
457.0,1.603
458.0,1.551
459.0,1.546
460.0,1.553
461.0,1.591
462.0,1.605
463.0,1.596
464.0,1.571
465.0,1.552
466.0,1.569
467.0,1.543
468.0,1.564
469.0,1.574
470.0,1.526
471.0,1.526
472.0,1.611
473.0,1.592
474.0,1.597
475.0,1.614
476.0,1.569
477.0,1.576
478.0,1.622
479.0,1.613
480.0,1.618
481.0,1.65
482.0,1.659
483.0,1.64
484.0,1.608
485.0,1.534
486.0,1.342
487.0,1.407
488.0,1.546
489.0,1.553
490.0,1.635
491.0,1.608
492.0,1.52
493.0,1.572
494.0,1.589
495.0,1.604
496.0,1.616
497.0,1.643
498.0,1.567
499.0,1.59
500.0,1.546
501.0,1.519
502.0,1.501
503.0,1.565
504.0,1.531
505.0,1.584
506.0,1.637
507.0,1.559
508.0,1.51
509.0,1.553
510.0,1.546
511.0,1.588
512.0,1.606
513.0,1.521
514.0,1.512
515.0,1.498
516.0,1.496
517.0,1.33
518.0,1.4
519.0,1.47
520.0,1.524
521.0,1.54
522.0,1.543
523.0,1.517
524.0,1.573
525.0,1.594
526.0,1.524
527.0,1.438
528.0,1.523
529.0,1.607
530.0,1.585
531.0,1.61
532.0,1.556
533.0,1.511
534.0,1.557
535.0,1.592
536.0,1.607
537.0,1.544
538.0,1.573
539.0,1.56
540.0,1.497
541.0,1.509
542.0,1.558
543.0,1.542
544.0,1.57
545.0,1.566
546.0,1.575
547.0,1.575
548.0,1.556
549.0,1.562
550.0,1.581
551.0,1.563
552.0,1.575
553.0,1.548
554.0,1.586
555.0,1.59
556.0,1.571
557.0,1.523
558.0,1.513
559.0,1.486
560.0,1.506
561.0,1.527
562.0,1.518
563.0,1.561
564.0,1.52
565.0,1.508
566.0,1.487
567.0,1.517
568.0,1.506
569.0,1.475
570.0,1.474
571.0,1.465
572.0,1.504
573.0,1.521
574.0,1.517
575.0,1.49
576.0,1.477
577.0,1.494
578.0,1.471
579.0,1.476
580.0,1.502
581.0,1.509
582.0,1.536
583.0,1.539
584.0,1.553
585.0,1.515
586.0,1.484
587.0,1.519
588.0,1.487
589.0,1.327
590.0,1.387
591.0,1.463
592.0,1.449
593.0,1.467
594.0,1.459
595.0,1.427
596.0,1.476
597.0,1.463
598.0,1.457
599.0,1.458
600.0,1.459
601.0,1.446
602.0,1.437
603.0,1.461
604.0,1.485
605.0,1.478
606.0,1.471
607.0,1.486
608.0,1.469
609.0,1.472
610.0,1.461
611.0,1.468
612.0,1.464
613.0,1.446
614.0,1.426
615.0,1.457
616.0,1.409
617.0,1.406
618.0,1.461
619.0,1.446
620.0,1.456
621.0,1.458
622.0,1.442
623.0,1.421
624.0,1.397
625.0,1.394
626.0,1.415
627.0,1.433
628.0,1.358
629.0,1.407
630.0,1.375
631.0,1.4
632.0,1.383
633.0,1.423
634.0,1.407
635.0,1.429
636.0,1.409
637.0,1.432
638.0,1.444
639.0,1.428
640.0,1.414
641.0,1.413
642.0,1.406
643.0,1.425
644.0,1.42
645.0,1.423
646.0,1.393
647.0,1.382
648.0,1.384
649.0,1.358
650.0,1.358
651.0,1.416
652.0,1.365
653.0,1.398
654.0,1.382
655.0,1.334
656.0,1.18
657.0,1.212
658.0,1.357
659.0,1.366
660.0,1.372
661.0,1.381
662.0,1.386
663.0,1.358
664.0,1.373
665.0,1.373
666.0,1.374
667.0,1.372
668.0,1.372
669.0,1.393
670.0,1.387
671.0,1.387
672.0,1.375
673.0,1.396
674.0,1.391
675.0,1.378
676.0,1.387
677.0,1.374
678.0,1.378
679.0,1.356
680.0,1.366
681.0,1.358
682.0,1.356
683.0,1.354
684.0,1.347
685.0,1.359
686.0,1.352
687.0,0.9802
688.0,1.109
689.0,1.112
690.0,1.153
691.0,1.199
692.0,1.231
693.0,1.223
694.0,1.213
695.0,1.253
696.0,1.256
697.0,1.32
698.0,1.3
699.0,1.277
700.0,1.262
701.0,1.252
702.0,1.258
703.0,1.26
704.0,1.296
705.0,1.298
706.0,1.295
707.0,1.296
708.0,1.299
709.0,1.298
710.0,1.3
711.0,1.297
712.0,1.292
713.0,1.281
714.0,1.285
715.0,1.248
716.0,1.25
717.0,1.115
718.0,1.03
719.0,0.947
720.0,0.9941
721.0,1.078
722.0,1.213
723.0,1.14
724.0,1.04
725.0,1.028
726.0,1.073
727.0,1.082
728.0,1.027
729.0,1.054
730.0,1.115
731.0,1.071
732.0,1.134
733.0,1.19
734.0,1.215
735.0,1.192
736.0,1.19
737.0,1.195
738.0,1.207
739.0,1.183
740.0,1.212
741.0,1.199
742.0,1.199
743.0,1.229
744.0,1.225
745.0,1.225
746.0,1.231
747.0,1.233
748.0,1.231
749.0,1.217
750.0,1.216
751.0,1.204
752.0,1.209
753.0,1.216
754.0,1.219
755.0,1.212
756.0,1.211
757.0,1.213
758.0,1.199
759.0,1.179
760.0,0.2822
761.0,0.1683
762.0,0.6881
763.0,0.3963
764.0,0.5489
765.0,0.6888
766.0,0.8048
767.0,0.9758
768.0,1.095
769.0,1.111
770.0,1.142
771.0,1.148
772.0,1.149
773.0,1.157
774.0,1.151
775.0,1.143
776.0,1.157
777.0,1.141
778.0,1.135
779.0,1.136
780.0,1.13
781.0,1.131
782.0,1.138
783.0,1.118
784.0,1.124
785.0,1.116
786.0,1.128
787.0,1.112
788.0,1.1
789.0,1.1
790.0,1.075
791.0,1.08
792.0,1.072
793.0,1.055
794.0,1.068
795.0,1.088
796.0,1.061
797.0,1.063
798.0,1.088
799.0,1.082
800.0,1.065
801.0,1.063
802.0,1.06
803.0,1.053
804.0,1.054
805.0,1.049
806.0,1.075
807.0,1.063
808.0,1.064
809.0,1.046
810.0,1.039
811.0,1.044
812.0,1.019
813.0,1.0
814.0,0.8954
815.0,0.8896
816.0,0.8304
817.0,0.8437
818.0,0.8157
819.0,0.8985
820.0,0.8516
821.0,0.9772
822.0,0.9524
823.0,0.6772
824.0,0.9311
825.0,0.9616
826.0,0.9307
827.0,0.9763
828.0,0.8443
829.0,0.9241
830.0,0.9139
831.0,0.9165
832.0,0.8915
833.0,0.94
834.0,0.9122
835.0,0.9906
836.0,0.9555
837.0,0.9931
838.0,0.9654
839.0,0.9776
840.0,0.9982
841.0,0.9856
842.0,0.9856
843.0,0.983
844.0,0.9706
845.0,1.002
846.0,0.9972
847.0,0.9781
848.0,0.973
849.0,0.9455
850.0,0.9058
851.0,0.9601
852.0,0.953
853.0,0.9166
854.0,0.7921
855.0,0.8694
856.0,0.9506
857.0,0.9712
858.0,0.9644
859.0,0.9649
860.0,0.9664
861.0,0.9613
862.0,0.9764
863.0,0.9995
864.0,0.9495
865.0,0.9412
866.0,0.8464
867.0,0.8833
868.0,0.9612
869.0,0.9413
870.0,0.9682
871.0,0.9551
872.0,0.9517
873.0,0.9499
874.0,0.9387
875.0,0.9197
876.0,0.9294
877.0,0.9388
878.0,0.9492
879.0,0.9347
880.0,0.9147
881.0,0.9015
882.0,0.9212
883.0,0.9237
884.0,0.9197
885.0,0.9267
886.0,0.8849
887.0,0.8931
888.0,0.9071
889.0,0.9161
890.0,0.9101
891.0,0.9078
892.0,0.8838
893.0,0.8589
894.0,0.8337
895.0,0.7943
896.0,0.7514
897.0,0.6544
898.0,0.7089
899.0,0.5503
900.0,0.7206
901.0,0.5763
902.0,0.662
903.0,0.6731
904.0,0.828
905.0,0.8024
906.0,0.7533
907.0,0.6253
908.0,0.6359
909.0,0.6825
910.0,0.6149
911.0,0.6487
912.0,0.6755
913.0,0.6246
914.0,0.6174
915.0,0.6681
916.0,0.5692
917.0,0.7097
918.0,0.5839
919.0,0.7198
920.0,0.7216
921.0,0.7491
922.0,0.6778
923.0,0.7233
924.0,0.6952
925.0,0.6803
926.0,0.6878
927.0,0.7623
928.0,0.5812
929.0,0.5365
930.0,0.4311
931.0,0.4069
932.0,0.3026
933.0,0.2512
934.0,0.1488
935.0,0.2527
936.0,0.1647
937.0,0.1679
938.0,0.2037
939.0,0.3944
940.0,0.4679
941.0,0.3621
942.0,0.4136
943.0,0.2791
944.0,0.2877
945.0,0.3719
946.0,0.1988
947.0,0.376
948.0,0.2779
949.0,0.4938
950.0,0.1522
951.0,0.4846
952.0,0.273
953.0,0.3443
954.0,0.4131
955.0,0.3473
956.0,0.3329
957.0,0.2747
958.0,0.4587
959.0,0.3742
960.0,0.4191
961.0,0.463
962.0,0.4391
963.0,0.4996
964.0,0.46
965.0,0.4971
966.0,0.4988
967.0,0.4973
968.0,0.6444
969.0,0.6747
970.0,0.6228
971.0,0.7032
972.0,0.6746
973.0,0.5971
974.0,0.5683
975.0,0.586
976.0,0.5616
977.0,0.629
978.0,0.6018
979.0,0.6271
980.0,0.5918
981.0,0.699
982.0,0.6719
983.0,0.6472
984.0,0.7164
985.0,0.6693
986.0,0.7267
987.0,0.7151
988.0,0.7138
989.0,0.7232
990.0,0.7094
991.0,0.7257
992.0,0.7296
993.0,0.7159
994.0,0.7292
995.0,0.728
996.0,0.7252
997.0,0.7261
998.0,0.7228
999.0,0.7201
1000.0,0.7156
1001.0,0.7239
1002.0,0.7064
1003.0,0.7114
1004.0,0.6946
1005.0,0.6683
1006.0,0.6949
1007.0,0.7094
1008.0,0.706
1009.0,0.7028
1010.0,0.7001
1011.0,0.7059
1012.0,0.7002
1013.0,0.7041
1014.0,0.6992
1015.0,0.6946
1016.0,0.6916
1017.0,0.6935
1018.0,0.6906
1019.0,0.6768
1020.0,0.6871
1021.0,0.6861
1022.0,0.6811
1023.0,0.6884
1024.0,0.6804
1025.0,0.6877
1026.0,0.685
1027.0,0.6834
1028.0,0.682
1029.0,0.6741
1030.0,0.6784
1031.0,0.6758
1032.0,0.6738
1033.0,0.6637
1034.0,0.6637
1035.0,0.6658
1036.0,0.6694
1037.0,0.6585
1038.0,0.6614
1039.0,0.6611
1040.0,0.6585
1041.0,0.6612
1042.0,0.6567
1043.0,0.6546
1044.0,0.657
1045.0,0.6482
1046.0,0.6411
1047.0,0.6469
1048.0,0.6506
1049.0,0.6483
1050.0,0.6454
1051.0,0.6447
1052.0,0.6421
1053.0,0.6372
1054.0,0.6387
1055.0,0.6392
1056.0,0.6371
1057.0,0.6353
1058.0,0.6198
1059.0,0.6206
1060.0,0.6198
1061.0,0.6191
1062.0,0.6225
1063.0,0.6165
1064.0,0.6238
1065.0,0.6197
1066.0,0.6072
1067.0,0.6151
1068.0,0.6019
1069.0,0.5832
1070.0,0.6033
1071.0,0.6118
1072.0,0.6054
1073.0,0.5966
1074.0,0.6111
1075.0,0.583
1076.0,0.6108
1077.0,0.6013
1078.0,0.5905
1079.0,0.6006
1080.0,0.5921
1081.0,0.5743
1082.0,0.5814
1083.0,0.5827
1084.0,0.5736
1085.0,0.5933
1086.0,0.5454
1087.0,0.56
1088.0,0.5826
1089.0,0.5671
1090.0,0.5564
1091.0,0.5814
1092.0,0.5794
1093.0,0.4987
1094.0,0.5311
1095.0,0.5185
1096.0,0.4987
1097.0,0.566
1098.0,0.4917
1099.0,0.5117
1100.0,0.4791
1101.0,0.4841
1102.0,0.4644
1103.0,0.4613
1104.0,0.4618
1105.0,0.5008
1106.0,0.3958
1107.0,0.4781
1108.0,0.413
1109.0,0.4122
1110.0,0.4749
1111.0,0.3326
1112.0,0.4085
1113.0,0.2709
1114.0,0.3015
1115.0,0.2503
1116.0,0.2065
1117.0,0.0834
1118.0,0.2222
1119.0,0.1162
1120.0,0.1464
1121.0,0.1906
1122.0,0.08537
1123.0,0.1321
1124.0,0.1116
1125.0,0.1442
1126.0,0.05534
1127.0,0.1621
1128.0,0.1025
1129.0,0.1079
1130.0,0.07347
1131.0,0.2945
1132.0,0.2335
1133.0,0.1549
1134.0,0.04393
1135.0,0.01626
1136.0,0.1317
1137.0,0.2913
1138.0,0.2068
1139.0,0.2955
1140.0,0.2518
1141.0,0.1965
1142.0,0.2233
1143.0,0.3117
1144.0,0.1156
1145.0,0.1492
1146.0,0.161
1147.0,0.06206
1148.0,0.27
1149.0,0.2196
1150.0,0.1239
1151.0,0.2054
1152.0,0.248
1153.0,0.2382
1154.0,0.1458
1155.0,0.3085
1156.0,0.2803
1157.0,0.3108
1158.0,0.3073
1159.0,0.328
1160.0,0.2844
1161.0,0.3427
1162.0,0.345
1163.0,0.4528
1164.0,0.3933
1165.0,0.3756
1166.0,0.3698
1167.0,0.4003
1168.0,0.4057
1169.0,0.4136
1170.0,0.4457
1171.0,0.4352
1172.0,0.4408
1173.0,0.4447
1174.0,0.3285
1175.0,0.4328
1176.0,0.4705
1177.0,0.4551
1178.0,0.3501
1179.0,0.4741
1180.0,0.4291
1181.0,0.4422
1182.0,0.3142
1183.0,0.4341
1184.0,0.4099
1185.0,0.3981
1186.0,0.4632
1187.0,0.4439
1188.0,0.3204
1189.0,0.4142
1190.0,0.4526
1191.0,0.4345
1192.0,0.4584
1193.0,0.441
1194.0,0.4534
1195.0,0.4321
1196.0,0.4183
1197.0,0.4518
1198.0,0.4159
1199.0,0.3614
1200.0,0.4358
1201.0,0.4229
1202.0,0.4189
1203.0,0.4156
1204.0,0.3677
1205.0,0.4264
1206.0,0.4667
1207.0,0.4186
1208.0,0.4097
1209.0,0.4176
1210.0,0.4333
1211.0,0.4156
1212.0,0.4139
1213.0,0.4531
1214.0,0.4222
1215.0,0.415
1216.0,0.4515
1217.0,0.4411
1218.0,0.448
1219.0,0.4432
1220.0,0.4482
1221.0,0.4519
1222.0,0.441
1223.0,0.4375
1224.0,0.4359
1225.0,0.4491
1226.0,0.4512
1227.0,0.4201
1228.0,0.4526
1229.0,0.4512
1230.0,0.4443
1231.0,0.4544
1232.0,0.4518
1233.0,0.4394
1234.0,0.4534
1235.0,0.451
1236.0,0.4539
1237.0,0.4489
1238.0,0.4524
1239.0,0.4466
1240.0,0.4482
1241.0,0.4468
1242.0,0.4452
1243.0,0.4416
1244.0,0.4449
1245.0,0.4467
1246.0,0.4441
1247.0,0.4426
1248.0,0.4426
1249.0,0.4437
1250.0,0.4412
1251.0,0.4361
1252.0,0.4355
1253.0,0.4331
1254.0,0.4296
1255.0,0.4354
1256.0,0.4251
1257.0,0.4232
1258.0,0.4296
1259.0,0.4171
1260.0,0.4189
1261.0,0.3992
1262.0,0.3893
1263.0,0.3901
1264.0,0.3649
1265.0,0.3876
1266.0,0.3758
1267.0,0.3804
1268.0,0.3639
1269.0,0.2471
1270.0,0.3798
1271.0,0.3975
1272.0,0.3983
1273.0,0.3945
1274.0,0.3952
1275.0,0.4002
1276.0,0.4033
1277.0,0.4052
1278.0,0.4113
1279.0,0.4078
1280.0,0.4025
1281.0,0.3834
1282.0,0.3682
1283.0,0.3968
1284.0,0.4066
1285.0,0.4091
1286.0,0.4139
1287.0,0.4088
1288.0,0.4084
1289.0,0.3978
1290.0,0.4046
1291.0,0.4098
1292.0,0.3895
1293.0,0.403
1294.0,0.4004
1295.0,0.3996
1296.0,0.3844
1297.0,0.366
1298.0,0.3893
1299.0,0.4031
1300.0,0.3492
1301.0,0.3583
1302.0,0.3879
1303.0,0.3437
1304.0,0.3007
1305.0,0.3805
1306.0,0.381
1307.0,0.3045
1308.0,0.3431
1309.0,0.3787
1310.0,0.2991
1311.0,0.3306
1312.0,0.3229
1313.0,0.3178
1314.0,0.2872
1315.0,0.2851
1316.0,0.3267
1317.0,0.3103
1318.0,0.3342
1319.0,0.2701
1320.0,0.2598
1321.0,0.2995
1322.0,0.3038
1323.0,0.236
1324.0,0.2649
1325.0,0.3224
1326.0,0.2814
1327.0,0.2696
1328.0,0.2348
1329.0,0.1826
1330.0,0.2345
1331.0,0.1491
1332.0,0.1513
1333.0,0.2087
1334.0,0.1736
1335.0,0.2351
1336.0,0.1897
1337.0,0.17
1338.0,0.1837
1339.0,0.1819
1340.0,0.175
1341.0,0.1752
1342.0,0.1837
1343.0,0.1337
1344.0,0.07978
1345.0,0.1141
1346.0,0.063
1347.0,0.06513
1348.0,0.005533
1349.0,0.01834
1350.0,0.018
1351.0,0.005563
1352.0,0.001924
1353.0,0.0001316
1354.0,0.0003784
1355.0,5.469e-06
1356.0,6.592e-05
1357.0,9.944e-05
1358.0,6.328e-06
1359.0,1.223e-06
1360.0,3.372e-06
1361.0,9.511e-09
1362.0,3.956e-11
1363.0,5.077e-06
1364.0,2.201e-06
1365.0,2.259e-11
1366.0,1.976e-05
1367.0,7.67e-06
1368.0,4.628e-13
1369.0,8.482e-07
1370.0,5.003e-07
1371.0,3.6e-08
1372.0,4.236e-06
1373.0,6.325e-05
1374.0,0.0002404
1375.0,0.0004349
1376.0,0.0003372
1377.0,0.0001622
1378.0,0.001429
1379.0,6.901e-05
1380.0,0.0001115
1381.0,3.352e-06
1382.0,4.016e-06
1383.0,7.264e-08
1384.0,1.027e-06
1385.0,3.124e-06
1386.0,4.04e-06
1387.0,0.0002774
1388.0,5.718e-06
1389.0,0.0007618
1390.0,0.0006542
1391.0,0.0004592
1392.0,3.253e-05
1393.0,0.0001539
1394.0,0.0001084
1395.0,1.034e-06
1396.0,1.214e-08
1397.0,6.662e-05
1398.0,0.001632
1399.0,0.001036
1400.0,6.641e-09
1401.0,2.001e-08
1402.0,0.002222
1403.0,0.002925
1404.0,0.0009113
1405.0,5.879e-07
1406.0,0.002561
1407.0,0.0002183
1408.0,0.00207
1409.0,0.0008056
1410.0,0.0005949
1411.0,0.002551
1412.0,0.003209
1413.0,0.02656
1414.0,0.0004619
1415.0,0.0002386
1416.0,0.03903
1417.0,0.01341
1418.0,0.01538
1419.0,0.00247
1420.0,0.009481
1421.0,0.01035
1422.0,0.05047
1423.0,0.01022
1424.0,0.01878
1425.0,0.02816
1426.0,0.03054
1427.0,0.05285
1428.0,0.005301
1429.0,0.04097
1430.0,0.06628
1431.0,0.07192
1432.0,0.004219
1433.0,0.047
1434.0,0.02453
1435.0,0.02666
1436.0,0.04806
1437.0,0.03684
1438.0,0.01651
1439.0,0.06385
1440.0,0.04801
1441.0,0.03819
1442.0,0.04202
1443.0,0.05035
1444.0,0.06869
1445.0,0.05569
1446.0,0.02565
1447.0,0.04034
1448.0,0.1226
1449.0,0.1084
1450.0,0.02985
1451.0,0.01247
1452.0,0.06706
1453.0,0.08695
1454.0,0.1427
1455.0,0.06974
1456.0,0.09472
1457.0,0.1232
1458.0,0.1416
1459.0,0.168
1460.0,0.08946
1461.0,0.09503
1462.0,0.1362
1463.0,0.04614
1464.0,0.1584
1465.0,0.09605
1466.0,0.07027
