interpolation:linear
wavelength,value
280.0,1.394e-18
280.5,2.109e-17
281.0,8.674e-17
281.5,1.306e-15
282.0,6.679e-15
282.5,1.901e-14
283.0,6.04e-14
283.5,9.668e-14
284.0,1.144e-12
284.5,2.768e-12
285.0,4.418e-12
285.5,2.159e-11
286.0,8.431e-11
286.5,3.317e-10
287.0,8.447e-10
287.5,2.685e-09
288.0,7.626e-09
288.5,2.369e-08
289.0,6.156e-08
289.5,1.731e-07
290.0,4.462e-07
290.5,8.508e-07
291.0,1.656e-06
291.5,4.105e-06
292.0,8.262e-06
292.5,1.092e-05
293.0,2.143e-05
293.5,4.549e-05
294.0,6.549e-05
294.5,0.0001028
295.0,0.0001567
295.5,0.0003171
296.0,0.0005047
296.5,0.0005851
297.0,0.0006808
297.5,0.001462
298.0,0.001917
298.5,0.001678
299.0,0.003235
299.5,0.004265
300.0,0.004152
300.5,0.00531
301.0,0.007898
301.5,0.01062
302.0,0.00838
302.5,0.01479
303.0,0.02336
303.5,0.02723
304.0,0.02442
304.5,0.0321
305.0,0.04087
305.5,0.0421
306.0,0.03923
306.5,0.04578
307.0,0.05876
307.5,0.06826
308.0,0.07075
308.5,0.07848
309.0,0.06844
309.5,0.07211
310.0,0.06981
310.5,0.1112
311.0,0.1354
311.5,0.1291
312.0,0.1202
312.5,0.1395
313.0,0.1479
313.5,0.1477
314.0,0.1743
314.5,0.143
315.0,0.1858
315.5,0.1621
316.0,0.133
316.5,0.1809
317.0,0.2256
317.5,0.2392
318.0,0.18
318.5,0.208
319.0,0.2385
319.5,0.207
320.0,0.253
320.5,0.2944
321.0,0.2458
321.5,0.2346
322.0,0.2696
322.5,0.2342
323.0,0.2231
323.5,0.2538
324.0,0.2943
324.5,0.3067
325.0,0.2814
325.5,0.3492
326.0,0.4077
326.5,0.3975
327.0,0.4015
327.5,0.3941
328.0,0.3661
328.5,0.3677
329.0,0.4257
329.5,0.4793
330.0,0.4889
330.5,0.4033
331.0,0.4159
331.5,0.4149
332.0,0.4362
332.5,0.4269
333.0,0.43
333.5,0.3988
334.0,0.4109
334.5,0.4636
335.0,0.4307
335.5,0.4884
336.0,0.3386
336.5,0.4131
337.0,0.3431
337.5,0.4292
338.0,0.4119
338.5,0.4644
339.0,0.4628
339.5,0.4444
340.0,0.5362
340.5,0.4835
341.0,0.4632
341.5,0.4295
342.0,0.5152
342.5,0.4838
343.0,0.5311
343.5,0.4996
344.0,0.3758
344.5,0.3717
345.0,0.4975
345.5,0.5103
346.0,0.4353
346.5,0.4942
347.0,0.53
347.5,0.4288
348.0,0.4916
348.5,0.4932
349.0,0.4585
349.5,0.4545
350.0,0.5632
350.5,0.5951
351.0,0.532
351.5,0.5157
352.0,0.5564
352.5,0.4357
353.0,0.5501
353.5,0.5896
354.0,0.6136
354.5,0.6235
355.0,0.6223
355.5,0.5631
356.0,0.5902
356.5,0.5049
357.0,0.4181
357.5,0.5129
358.0,0.4072
358.5,0.3486
359.0,0.4885
359.5,0.6234
360.0,0.6621
360.5,0.5302
361.0,0.4841
361.5,0.5578
362.0,0.4827
362.5,0.6686
363.0,0.601
363.5,0.5542
364.0,0.6785
364.5,0.5808
365.0,0.5924
365.5,0.7445
366.0,0.7896
366.5,0.7427
367.0,0.7244
367.5,0.7528
368.0,0.6596
368.5,0.6664
369.0,0.7206
369.5,0.7691
370.0,0.8209
370.5,0.6379
371.0,0.6824
371.5,0.855
372.0,0.5683
372.5,0.6823
373.0,0.6947
373.5,0.4525
374.0,0.6584
374.5,0.5458
375.0,0.5313
375.5,0.7944
376.0,0.6594
376.5,0.6844
377.0,0.7253
377.5,0.8496
378.0,0.9223
378.5,0.8732
379.0,0.7218
379.5,0.6605
380.0,0.6877
380.5,0.8338
381.0,0.8364
381.5,0.6636
382.0,0.5898
382.5,0.5032
383.0,0.4663
383.5,0.4496
384.0,0.4965
384.5,0.731
385.0,0.7257
385.5,0.6765
386.0,0.58
386.5,0.7625
387.0,0.6344
387.5,0.7134
388.0,0.6594
388.5,0.6525
389.0,0.7051
389.5,0.8549
390.0,0.8589
390.5,0.7913
391.0,0.9323
391.5,0.9521
392.0,0.8028
392.5,0.7193
393.0,0.4006
393.5,0.2914
394.0,0.5936
394.5,0.7554
395.0,0.9227
395.5,0.9384
396.0,0.8144
396.5,0.4764
397.0,0.3578
397.5,0.7284
398.0,1.021
398.5,1.057
399.0,1.145
399.5,1.142
400.0,1.187
401.0,1.221
402.0,1.29
403.0,1.227
404.0,1.21
405.0,1.212
406.0,1.194
407.0,1.176
408.0,1.225
409.0,1.313
410.0,1.148
411.0,1.245
412.0,1.338
413.0,1.308
414.0,1.325
415.0,1.33
416.0,1.355
417.0,1.323
418.0,1.301
419.0,1.319
420.0,1.316
421.0,1.378
422.0,1.312
423.0,1.283
424.0,1.359
425.0,1.358
426.0,1.323
427.0,1.3
428.0,1.268
429.0,1.201
430.0,1.052
431.0,1.045
432.0,1.35
433.0,1.359
434.0,1.264
435.0,1.322
436.0,1.49
437.0,1.47
438.0,1.339
439.0,1.389
440.0,1.434
441.0,1.486
442.0,1.596
443.0,1.557
444.0,1.592
445.0,1.56
446.0,1.488
447.0,1.609
448.0,1.638
449.0,1.644
450.0,1.691
451.0,1.755
452.0,1.693
453.0,1.593
454.0,1.663
455.0,1.676
456.0,1.717
457.0,1.747
458.0,1.69
459.0,1.683
460.0,1.689
461.0,1.73
462.0,1.743
463.0,1.733
464.0,1.704
465.0,1.683
466.0,1.699
467.0,1.671
468.0,1.692
469.0,1.703
470.0,1.65
471.0,1.649
472.0,1.739
473.0,1.719
474.0,1.725
475.0,1.743
476.0,1.694
477.0,1.702
478.0,1.75
479.0,1.739
480.0,1.742
481.0,1.775
482.0,1.783
483.0,1.761
484.0,1.726
485.0,1.644
486.0,1.438
487.0,1.507
488.0,1.655
489.0,1.662
490.0,1.748
491.0,1.719
492.0,1.624
493.0,1.678
494.0,1.696
495.0,1.711
496.0,1.723
497.0,1.751
498.0,1.67
499.0,1.694
500.0,1.646
501.0,1.619
502.0,1.599
503.0,1.668
504.0,1.635
505.0,1.688
506.0,1.744
507.0,1.66
508.0,1.607
509.0,1.652
510.0,1.642
511.0,1.686
512.0,1.704
513.0,1.614
514.0,1.603
515.0,1.588
516.0,1.585
517.0,1.409
518.0,1.482
519.0,1.556
520.0,1.614
521.0,1.63
522.0,1.633
523.0,1.605
524.0,1.665
525.0,1.687
526.0,1.613
527.0,1.522
528.0,1.612
529.0,1.701
530.0,1.678
531.0,1.704
532.0,1.647
533.0,1.599
534.0,1.647
535.0,1.683
536.0,1.698
537.0,1.631
538.0,1.661
539.0,1.647
540.0,1.581
541.0,1.594
542.0,1.646
543.0,1.627
544.0,1.658
545.0,1.653
546.0,1.663
547.0,1.662
548.0,1.642
549.0,1.647
550.0,1.667
551.0,1.647
552.0,1.659
553.0,1.631
554.0,1.671
555.0,1.675
556.0,1.654
557.0,1.604
558.0,1.594
559.0,1.566
560.0,1.587
561.0,1.609
562.0,1.6
563.0,1.646
564.0,1.603
565.0,1.591
566.0,1.569
567.0,1.601
568.0,1.591
569.0,1.562
570.0,1.561
571.0,1.55
572.0,1.593
573.0,1.611
574.0,1.608
575.0,1.58
576.0,1.566
577.0,1.583
578.0,1.558
579.0,1.561
580.0,1.586
581.0,1.59
582.0,1.617
583.0,1.619
584.0,1.632
585.0,1.591
586.0,1.559
587.0,1.596
588.0,1.568
589.0,1.409
590.0,1.472
591.0,1.547
592.0,1.535
593.0,1.549
594.0,1.543
595.0,1.511
596.0,1.556
597.0,1.543
598.0,1.535
599.0,1.534
600.0,1.533
601.0,1.518
602.0,1.508
603.0,1.532
604.0,1.557
605.0,1.548
606.0,1.541
607.0,1.555
608.0,1.537
609.0,1.539
610.0,1.526
611.0,1.534
612.0,1.529
613.0,1.51
614.0,1.488
615.0,1.52
616.0,1.469
617.0,1.466
618.0,1.522
619.0,1.506
620.0,1.516
621.0,1.519
622.0,1.503
623.0,1.482
624.0,1.456
625.0,1.453
626.0,1.475
627.0,1.495
628.0,1.438
629.0,1.475
630.0,1.443
631.0,1.462
632.0,1.442
633.0,1.481
634.0,1.462
635.0,1.483
636.0,1.461
637.0,1.484
638.0,1.496
639.0,1.478
640.0,1.462
641.0,1.46
642.0,1.452
643.0,1.472
644.0,1.466
645.0,1.469
646.0,1.44
647.0,1.435
648.0,1.438
649.0,1.411
650.0,1.404
651.0,1.462
652.0,1.418
653.0,1.443
654.0,1.426
655.0,1.381
656.0,1.218
657.0,1.251
658.0,1.398
659.0,1.406
660.0,1.411
661.0,1.421
662.0,1.427
663.0,1.398
664.0,1.411
665.0,1.409
666.0,1.409
667.0,1.407
668.0,1.406
669.0,1.427
670.0,1.421
671.0,1.42
672.0,1.408
673.0,1.428
674.0,1.423
675.0,1.41
676.0,1.419
677.0,1.405
678.0,1.408
679.0,1.385
680.0,1.396
681.0,1.387
682.0,1.386
683.0,1.383
684.0,1.376
685.0,1.388
686.0,1.38
687.0,1.1
688.0,1.198
689.0,1.2
690.0,1.229
691.0,1.261
692.0,1.282
693.0,1.275
694.0,1.266
695.0,1.297
696.0,1.3
697.0,1.35
698.0,1.33
699.0,1.317
700.0,1.301
701.0,1.294
702.0,1.296
703.0,1.299
704.0,1.33
705.0,1.332
706.0,1.326
707.0,1.326
708.0,1.33
709.0,1.325
710.0,1.328
711.0,1.325
712.0,1.318
713.0,1.307
714.0,1.312
715.0,1.277
716.0,1.28
717.0,1.178
718.0,1.098
719.0,1.015
720.0,1.067
721.0,1.133
722.0,1.248
723.0,1.188
724.0,1.099
725.0,1.091
726.0,1.135
727.0,1.137
728.0,1.091
729.0,1.107
730.0,1.168
731.0,1.128
732.0,1.18
733.0,1.223
734.0,1.246
735.0,1.224
736.0,1.221
737.0,1.227
738.0,1.231
739.0,1.207
740.0,1.234
741.0,1.219
742.0,1.217
743.0,1.248
744.0,1.242
745.0,1.241
746.0,1.247
747.0,1.25
748.0,1.247
749.0,1.233
750.0,1.232
751.0,1.22
752.0,1.225
753.0,1.231
754.0,1.234
755.0,1.227
756.0,1.227
757.0,1.229
758.0,1.214
759.0,1.198
760.0,0.4297
761.0,0.2963
762.0,0.8097
763.0,0.5479
764.0,0.6909
765.0,0.8108
766.0,0.896
767.0,1.039
768.0,1.13
769.0,1.138
770.0,1.161
771.0,1.163
772.0,1.163
773.0,1.171
774.0,1.165
775.0,1.155
776.0,1.169
777.0,1.154
778.0,1.147
779.0,1.148
780.0,1.142
781.0,1.143
782.0,1.15
783.0,1.13
784.0,1.135
785.0,1.128
786.0,1.141
787.0,1.128
788.0,1.117
789.0,1.118
790.0,1.099
791.0,1.098
792.0,1.089
793.0,1.073
794.0,1.08
795.0,1.101
796.0,1.082
797.0,1.083
798.0,1.102
799.0,1.097
800.0,1.082
801.0,1.082
802.0,1.078
803.0,1.072
804.0,1.072
805.0,1.065
806.0,1.088
807.0,1.077
808.0,1.077
809.0,1.062
810.0,1.057
811.0,1.064
812.0,1.044
813.0,1.03
814.0,0.9421
815.0,0.9356
816.0,0.8777
817.0,0.8885
818.0,0.8634
819.0,0.9327
820.0,0.8916
821.0,0.9987
822.0,0.9777
823.0,0.7374
824.0,0.9632
825.0,0.9846
826.0,0.9601
827.0,0.9992
828.0,0.8862
829.0,0.9518
830.0,0.9438
831.0,0.9453
832.0,0.9237
833.0,0.9614
834.0,0.9404
835.0,1.006
836.0,0.9795
837.0,1.008
838.0,0.9833
839.0,0.9913
840.0,1.011
841.0,1.0
842.0,0.9976
843.0,0.9923
844.0,0.9813
845.0,1.011
846.0,1.006
847.0,0.9855
848.0,0.9816
849.0,0.9538
850.0,0.9135
851.0,0.9696
852.0,0.9618
853.0,0.9241
854.0,0.7994
855.0,0.8762
856.0,0.9585
857.0,0.9785
858.0,0.972
859.0,0.9719
860.0,0.9731
861.0,0.9681
862.0,0.983
863.0,1.006
864.0,0.9559
865.0,0.9474
866.0,0.8519
867.0,0.889
868.0,0.9674
869.0,0.9473
870.0,0.9743
871.0,0.9611
872.0,0.9577
873.0,0.9558
874.0,0.9444
875.0,0.9255
876.0,0.9353
877.0,0.9446
878.0,0.9553
879.0,0.9405
880.0,0.9204
881.0,0.9077
882.0,0.9277
883.0,0.9297
884.0,0.9259
885.0,0.9329
886.0,0.8928
887.0,0.8996
888.0,0.9149
889.0,0.9218
890.0,0.9181
891.0,0.9146
892.0,0.8931
893.0,0.8721
894.0,0.8536
895.0,0.8223
896.0,0.784
897.0,0.6973
898.0,0.7464
899.0,0.5987
900.0,0.7506
901.0,0.6248
902.0,0.6945
903.0,0.7131
904.0,0.8476
905.0,0.826
906.0,0.7795
907.0,0.6679
908.0,0.6769
909.0,0.7155
910.0,0.663
911.0,0.6895
912.0,0.7126
913.0,0.6742
914.0,0.6637
915.0,0.7138
916.0,0.6168
917.0,0.7458
918.0,0.6325
919.0,0.7528
920.0,0.7473
921.0,0.7716
922.0,0.7116
923.0,0.7448
924.0,0.7293
925.0,0.7149
926.0,0.7216
927.0,0.7873
928.0,0.6371
929.0,0.5979
930.0,0.4983
931.0,0.4667
932.0,0.3643
933.0,0.3134
934.0,0.2086
935.0,0.3065
936.0,0.214
937.0,0.2211
938.0,0.2621
939.0,0.4524
940.0,0.5248
941.0,0.4231
942.0,0.4712
943.0,0.3321
944.0,0.3318
945.0,0.4321
946.0,0.2503
947.0,0.4411
948.0,0.3307
949.0,0.5593
950.0,0.2067
951.0,0.546
952.0,0.3348
953.0,0.4054
954.0,0.468
955.0,0.4065
956.0,0.3859
957.0,0.3396
958.0,0.5023
959.0,0.4289
960.0,0.4786
961.0,0.5151
962.0,0.4912
963.0,0.5463
964.0,0.5079
965.0,0.5414
966.0,0.5467
967.0,0.5458
968.0,0.6683
969.0,0.7004
970.0,0.6536
971.0,0.7205
972.0,0.6945
973.0,0.6321
974.0,0.605
975.0,0.6167
976.0,0.5995
977.0,0.6546
978.0,0.6334
979.0,0.6539
980.0,0.6217
981.0,0.7151
982.0,0.6933
983.0,0.6718
984.0,0.7264
985.0,0.6903
986.0,0.7331
987.0,0.7248
988.0,0.7238
989.0,0.7272
990.0,0.7186
991.0,0.7302
992.0,0.7337
993.0,0.7236
994.0,0.7329
995.0,0.7311
996.0,0.7289
997.0,0.7294
998.0,0.7264
999.0,0.7235
1000.0,0.72
1001.0,0.7272
1002.0,0.7135
1003.0,0.7148
1004.0,0.699
1005.0,0.6711
1006.0,0.6986
1007.0,0.7127
1008.0,0.7101
1009.0,0.7075
1010.0,0.7052
1011.0,0.709
1012.0,0.7042
1013.0,0.707
1014.0,0.7021
1015.0,0.6977
1016.0,0.6947
1017.0,0.6967
1018.0,0.6933
1019.0,0.6809
1020.0,0.6901
1021.0,0.6887
1022.0,0.6843
1023.0,0.6917
1024.0,0.6852
1025.0,0.6904
1026.0,0.6881
1027.0,0.6864
1028.0,0.6852
1029.0,0.6774
1030.0,0.6811
1031.0,0.6788
1032.0,0.6766
1033.0,0.6664
1034.0,0.6664
1035.0,0.6685
1036.0,0.6722
1037.0,0.6612
1038.0,0.6643
1039.0,0.664
1040.0,0.6614
1041.0,0.6643
1042.0,0.6597
1043.0,0.6577
1044.0,0.6602
1045.0,0.6514
1046.0,0.6444
1047.0,0.6503
1048.0,0.6541
1049.0,0.6519
1050.0,0.6492
1051.0,0.6485
1052.0,0.6461
1053.0,0.6413
1054.0,0.643
1055.0,0.6437
1056.0,0.6419
1057.0,0.6402
1058.0,0.6248
1059.0,0.6258
1060.0,0.6251
1061.0,0.6246
1062.0,0.6283
1063.0,0.6224
1064.0,0.6296
1065.0,0.626
1066.0,0.6129
1067.0,0.6211
1068.0,0.6082
1069.0,0.5889
1070.0,0.6096
1071.0,0.6169
1072.0,0.6115
1073.0,0.6024
1074.0,0.6155
1075.0,0.5914
1076.0,0.6154
1077.0,0.6083
1078.0,0.5981
1079.0,0.6046
1080.0,0.5992
1081.0,0.5829
1082.0,0.5866
1083.0,0.5871
1084.0,0.5837
1085.0,0.5998
1086.0,0.559
1087.0,0.568
1088.0,0.5878
1089.0,0.5761
1090.0,0.5685
1091.0,0.5878
1092.0,0.5847
1093.0,0.5166
1094.0,0.5375
1095.0,0.5344
1096.0,0.5182
1097.0,0.5709
1098.0,0.512
1099.0,0.5307
1100.0,0.5036
1101.0,0.5068
1102.0,0.4896
1103.0,0.4891
1104.0,0.4893
1105.0,0.5207
1106.0,0.4352
1107.0,0.5018
1108.0,0.4479
1109.0,0.4446
1110.0,0.4998
1111.0,0.3707
1112.0,0.4394
1113.0,0.3138
1114.0,0.3455
1115.0,0.2877
1116.0,0.2519
1117.0,0.1201
1118.0,0.2645
1119.0,0.1521
1120.0,0.1906
1121.0,0.239
1122.0,0.1191
1123.0,0.1719
1124.0,0.1453
1125.0,0.1846
1126.0,0.08322
1127.0,0.2065
1128.0,0.1435
1129.0,0.1485
1130.0,0.1088
1131.0,0.346
1132.0,0.2803
1133.0,0.2011
1134.0,0.06906
1135.0,0.02544
1136.0,0.1763
1137.0,0.3453
1138.0,0.2502
1139.0,0.3314
1140.0,0.2929
1141.0,0.2378
1142.0,0.2641
1143.0,0.3575
1144.0,0.1484
1145.0,0.193
1146.0,0.2084
1147.0,0.0939
1148.0,0.3098
1149.0,0.261
1150.0,0.1598
1151.0,0.2487
1152.0,0.2903
1153.0,0.2717
1154.0,0.193
1155.0,0.3463
1156.0,0.3196
1157.0,0.3485
1158.0,0.3437
1159.0,0.36
1160.0,0.3219
1161.0,0.3727
1162.0,0.3761
1163.0,0.47
1164.0,0.4174
1165.0,0.4059
1166.0,0.3955
1167.0,0.4234
1168.0,0.4302
1169.0,0.4353
1170.0,0.4627
1171.0,0.4533
1172.0,0.4559
1173.0,0.4618
1174.0,0.3606
1175.0,0.4473
1176.0,0.4783
1177.0,0.4675
1178.0,0.3747
1179.0,0.4815
1180.0,0.4451
1181.0,0.4572
1182.0,0.341
1183.0,0.4467
1184.0,0.427
1185.0,0.4189
1186.0,0.4733
1187.0,0.4578
1188.0,0.348
1189.0,0.4285
1190.0,0.4628
1191.0,0.4507
1192.0,0.4679
1193.0,0.4528
1194.0,0.4636
1195.0,0.4464
1196.0,0.4353
1197.0,0.4591
1198.0,0.4272
1199.0,0.3824
1200.0,0.4477
1201.0,0.4381
1202.0,0.4325
1203.0,0.4283
1204.0,0.3864
1205.0,0.4369
1206.0,0.4715
1207.0,0.4328
1208.0,0.4205
1209.0,0.4277
1210.0,0.4412
1211.0,0.4276
1212.0,0.4296
1213.0,0.4597
1214.0,0.436
1215.0,0.4299
1216.0,0.458
1217.0,0.4496
1218.0,0.4547
1219.0,0.4506
1220.0,0.4547
1221.0,0.4572
1222.0,0.4477
1223.0,0.4449
1224.0,0.4445
1225.0,0.4544
1226.0,0.4553
1227.0,0.4292
1228.0,0.4558
1229.0,0.4552
1230.0,0.4492
1231.0,0.4565
1232.0,0.4539
1233.0,0.4452
1234.0,0.4546
1235.0,0.4528
1236.0,0.4553
1237.0,0.4516
1238.0,0.4537
1239.0,0.448
1240.0,0.4493
1241.0,0.4489
1242.0,0.4464
1243.0,0.4427
1244.0,0.4464
1245.0,0.448
1246.0,0.4453
1247.0,0.444
1248.0,0.4446
1249.0,0.4452
1250.0,0.443
1251.0,0.4384
1252.0,0.4372
1253.0,0.436
1254.0,0.4335
1255.0,0.4373
1256.0,0.4295
1257.0,0.428
1258.0,0.4325
1259.0,0.4237
1260.0,0.4251
1261.0,0.41
1262.0,0.4024
1263.0,0.4035
1264.0,0.3835
1265.0,0.4007
1266.0,0.3921
1267.0,0.3945
1268.0,0.3813
1269.0,0.2897
1270.0,0.3948
1271.0,0.4076
1272.0,0.4079
1273.0,0.4046
1274.0,0.4046
1275.0,0.4088
1276.0,0.411
1277.0,0.4118
1278.0,0.416
1279.0,0.4126
1280.0,0.4072
1281.0,0.387
1282.0,0.3702
1283.0,0.3992
1284.0,0.4094
1285.0,0.4116
1286.0,0.4157
1287.0,0.4121
1288.0,0.4113
1289.0,0.4036
1290.0,0.4072
1291.0,0.4119
1292.0,0.3973
1293.0,0.4065
1294.0,0.4043
1295.0,0.4046
1296.0,0.3932
1297.0,0.3777
1298.0,0.3955
1299.0,0.4061
1300.0,0.3632
1301.0,0.3702
1302.0,0.3938
1303.0,0.3564
1304.0,0.3227
1305.0,0.3874
1306.0,0.3883
1307.0,0.3234
1308.0,0.3542
1309.0,0.3864
1310.0,0.318
1311.0,0.3437
1312.0,0.3374
1313.0,0.3336
1314.0,0.3057
1315.0,0.3057
1316.0,0.3412
1317.0,0.3255
1318.0,0.3459
1319.0,0.2934
1320.0,0.2794
1321.0,0.3173
1322.0,0.3233
1323.0,0.263
1324.0,0.2878
1325.0,0.3372
1326.0,0.3018
1327.0,0.291
1328.0,0.2574
1329.0,0.2102
1330.0,0.2642
1331.0,0.182
1332.0,0.18
1333.0,0.2433
1334.0,0.1994
1335.0,0.2613
1336.0,0.2172
1337.0,0.1998
1338.0,0.2141
1339.0,0.2108
1340.0,0.2
1341.0,0.2068
1342.0,0.2165
1343.0,0.1746
1344.0,0.1055
1345.0,0.1463
1346.0,0.09434
1347.0,0.09924
1348.0,0.01298
1349.0,0.03725
1350.0,0.03319
1351.0,0.01478
1352.0,0.006986
1353.0,0.0007781
1354.0,0.001724
1355.0,5.924e-05
1356.0,0.0004117
1357.0,0.0006042
1358.0,6.626e-05
1359.0,2.274e-05
1360.0,4.346e-05
1361.0,4.683e-07
1362.0,3.951e-09
1363.0,6.806e-05
1364.0,3.45e-05
1365.0,4.16e-09
1366.0,0.0002228
1367.0,8.838e-05
1368.0,3.152e-10
1369.0,1.432e-05
1370.0,1.067e-05
1371.0,1.131e-06
1372.0,5.019e-05
1373.0,0.0004677
1374.0,0.001322
1375.0,0.002235
1376.0,0.001522
1377.0,0.0007977
1378.0,0.005604
1379.0,0.0003544
1380.0,0.0006497
1381.0,2.596e-05
1382.0,5.056e-05
1383.0,1.322e-06
1384.0,1.866e-05
1385.0,3.123e-05
1386.0,5.863e-05
1387.0,0.001661
1388.0,4.296e-05
1389.0,0.003504
1390.0,0.002931
1391.0,0.002289
1392.0,0.000199
1393.0,0.0007738
1394.0,0.0007983
1395.0,1.248e-05
1396.0,5.107e-07
1397.0,0.0003822
1398.0,0.006393
1399.0,0.004164
1400.0,3.785e-07
1401.0,7.413e-07
1402.0,0.006432
1403.0,0.008857
1404.0,0.002866
1405.0,8.77e-06
1406.0,0.008562
1407.0,0.0007792
1408.0,0.006896
1409.0,0.003273
1410.0,0.002316
1411.0,0.007685
1412.0,0.00878
1413.0,0.04975
1414.0,0.001777
1415.0,0.001031
1416.0,0.06291
1417.0,0.02755
1418.0,0.03052
1419.0,0.005314
1420.0,0.01918
1421.0,0.02226
1422.0,0.07877
1423.0,0.01804
1424.0,0.03162
1425.0,0.04821
1426.0,0.0486
1427.0,0.07428
1428.0,0.01271
1429.0,0.06153
1430.0,0.09054
1431.0,0.09583
1432.0,0.01036
1433.0,0.06662
1434.0,0.03688
1435.0,0.04644
1436.0,0.07325
1437.0,0.05691
1438.0,0.02877
1439.0,0.09226
1440.0,0.07071
1441.0,0.06101
1442.0,0.06493
1443.0,0.07097
1444.0,0.09515
1445.0,0.08213
1446.0,0.03947
1447.0,0.06301
1448.0,0.1513
1449.0,0.1398
1450.0,0.04681
1451.0,0.02153
1452.0,0.0917
1453.0,0.115
1454.0,0.1709
1455.0,0.09081
1456.0,0.1262
1457.0,0.1526
1458.0,0.1651
1459.0,0.1972
1460.0,0.1116
1461.0,0.1223
1462.0,0.1666
1463.0,0.06413
1464.0,0.1851
1465.0,0.1142
1466.0,0.0957
1467.0,0.05926
1468.0,0.1082
1469.0,0.1279
1470.0,0.07656
1471.0,0.03158
