interpolation:linear
wavelength,value
280.0,1.909e-21
280.5,4.3930000000000004e-20
281.0,2.106e-19
281.5,4.755e-18
282.0,3.112e-17
282.5,1.046e-16
283.0,3.988e-16
283.5,6.991e-16
284.0,1.263e-14
284.5,3.706e-14
285.0,7.285e-14
285.5,4.551e-13
286.0,1.963e-12
286.5,9.472e-12
287.0,2.804e-11
287.5,1.086e-10
288.0,3.956e-10
288.5,1.403e-09
289.0,4.178e-09
289.5,1.364e-08
290.0,3.977e-08
290.5,8.404e-08
291.0,1.851e-07
291.5,5.37e-07
292.0,1.229e-06
292.5,1.745e-06
293.0,3.756e-06
293.5,9.045e-06
294.0,1.418e-05
294.5,2.374e-05
295.0,3.922e-05
295.5,8.772e-05
296.0,0.0001495
296.5,0.0001849
297.0,0.0002265
297.5,0.0005229
298.0,0.0007266
298.5,0.0006639
299.0,0.001333
299.5,0.001875
300.0,0.001888
300.5,0.002495
301.0,0.003893
301.5,0.005443
302.0,0.004375
302.5,0.007985
303.0,0.01313
303.5,0.01567
304.0,0.01421
304.5,0.0192
305.0,0.02531
305.5,0.02663
306.0,0.02503
306.5,0.0296
307.0,0.039
307.5,0.04639
308.0,0.04832
308.5,0.05422
309.0,0.04773
309.5,0.05153
310.0,0.05046
310.5,0.08088
311.0,0.09936
311.5,0.09524
312.0,0.0902
312.5,0.1059
313.0,0.113
313.5,0.1124
314.0,0.1344
314.5,0.1121
315.0,0.1461
315.5,0.1268
316.0,0.1053
316.5,0.1448
317.0,0.1807
317.5,0.1914
318.0,0.1451
318.5,0.1697
319.0,0.1958
319.5,0.1687
320.0,0.2062
320.5,0.2428
321.0,0.2047
321.5,0.1958
322.0,0.2231
322.5,0.1941
323.0,0.1862
323.5,0.2142
324.0,0.249
324.5,0.2588
325.0,0.2361
325.5,0.2947
326.0,0.3465
326.5,0.3396
327.0,0.3428
327.5,0.3362
328.0,0.3108
328.5,0.3146
329.0,0.3662
329.5,0.4132
330.0,0.4215
330.5,0.3468
331.0,0.3575
331.5,0.3579
332.0,0.378
332.5,0.3707
333.0,0.3735
333.5,0.3457
334.0,0.3564
334.5,0.4036
335.0,0.3758
335.5,0.4268
336.0,0.2961
336.5,0.3611
337.0,0.2999
337.5,0.3753
338.0,0.3612
338.5,0.4078
339.0,0.4069
339.5,0.391
340.0,0.4717
340.5,0.4257
341.0,0.4085
341.5,0.3792
342.0,0.4553
342.5,0.4278
343.0,0.4699
343.5,0.4423
344.0,0.3326
344.5,0.3294
345.0,0.4415
345.5,0.4533
346.0,0.387
346.5,0.4398
347.0,0.4719
347.5,0.382
348.0,0.4383
348.5,0.4401
349.0,0.4094
349.5,0.4062
350.0,0.5036
350.5,0.5325
351.0,0.4763
351.5,0.4619
352.0,0.4987
352.5,0.3909
353.0,0.4939
353.5,0.5297
354.0,0.5515
354.5,0.5607
355.0,0.5599
355.5,0.507
356.0,0.5317
356.5,0.4552
357.0,0.377
357.5,0.4628
358.0,0.3676
358.5,0.3149
359.0,0.4415
359.5,0.5636
360.0,0.5989
360.5,0.4799
361.0,0.4384
361.5,0.5056
362.0,0.4378
362.5,0.6069
363.0,0.5459
363.5,0.5037
364.0,0.6171
364.5,0.5285
365.0,0.5393
365.5,0.6781
366.0,0.7197
366.5,0.6774
367.0,0.6609
367.5,0.6872
368.0,0.6025
368.5,0.609
369.0,0.6588
369.5,0.7035
370.0,0.7513
370.5,0.5841
371.0,0.6252
371.5,0.7837
372.0,0.5211
372.5,0.6259
373.0,0.6377
373.5,0.4156
374.0,0.6049
374.5,0.5017
375.0,0.4886
375.5,0.7308
376.0,0.6069
376.5,0.6301
377.0,0.6681
377.5,0.7829
378.0,0.8503
378.5,0.8052
379.0,0.6659
379.5,0.6095
380.0,0.6349
380.5,0.7702
381.0,0.7729
381.5,0.6135
382.0,0.5456
382.5,0.4657
383.0,0.4318
383.5,0.4165
384.0,0.4601
384.5,0.6778
385.0,0.6731
385.5,0.6277
386.0,0.5384
386.5,0.7082
387.0,0.5894
387.5,0.6631
388.0,0.6131
388.5,0.6069
389.0,0.6561
389.5,0.7958
390.0,0.7998
390.5,0.7371
391.0,0.8688
391.5,0.8876
392.0,0.7487
392.5,0.6711
393.0,0.3739
393.5,0.2721
394.0,0.5544
394.5,0.7058
395.0,0.8624
395.5,0.8773
396.0,0.7617
396.5,0.4457
397.0,0.3349
397.5,0.682
398.0,0.9566
398.5,0.9901
399.0,1.073
399.5,1.071
400.0,1.114
401.0,1.146
402.0,1.212
403.0,1.153
404.0,1.138
405.0,1.141
406.0,1.124
407.0,1.108
408.0,1.154
409.0,1.238
410.0,1.083
411.0,1.176
412.0,1.265
413.0,1.236
414.0,1.253
415.0,1.259
416.0,1.283
417.0,1.254
418.0,1.233
419.0,1.251
420.0,1.248
421.0,1.308
422.0,1.246
423.0,1.219
424.0,1.292
425.0,1.291
426.0,1.259
427.0,1.238
428.0,1.208
429.0,1.145
430.0,1.003
431.0,0.9968
432.0,1.288
433.0,1.297
434.0,1.207
435.0,1.263
436.0,1.424
437.0,1.406
438.0,1.281
439.0,1.329
440.0,1.372
441.0,1.423
442.0,1.529
443.0,1.492
444.0,1.526
445.0,1.496
446.0,1.428
447.0,1.545
448.0,1.572
449.0,1.579
450.0,1.625
451.0,1.687
452.0,1.628
453.0,1.532
454.0,1.601
455.0,1.613
456.0,1.653
457.0,1.683
458.0,1.628
459.0,1.622
460.0,1.628
461.0,1.668
462.0,1.681
463.0,1.672
464.0,1.645
465.0,1.625
466.0,1.641
467.0,1.614
468.0,1.635
469.0,1.646
470.0,1.595
471.0,1.595
472.0,1.682
473.0,1.662
474.0,1.668
475.0,1.685
476.0,1.638
477.0,1.646
478.0,1.693
479.0,1.683
480.0,1.687
481.0,1.719
482.0,1.728
483.0,1.708
484.0,1.674
485.0,1.595
486.0,1.395
487.0,1.463
488.0,1.606
489.0,1.614
490.0,1.698
491.0,1.67
492.0,1.578
493.0,1.631
494.0,1.649
495.0,1.664
496.0,1.676
497.0,1.703
498.0,1.625
499.0,1.648
500.0,1.602
501.0,1.575
502.0,1.556
503.0,1.623
504.0,1.589
505.0,1.642
506.0,1.696
507.0,1.615
508.0,1.564
509.0,1.608
510.0,1.6
511.0,1.642
512.0,1.661
513.0,1.573
514.0,1.563
515.0,1.548
516.0,1.546
517.0,1.374
518.0,1.446
519.0,1.518
520.0,1.574
521.0,1.591
522.0,1.594
523.0,1.566
524.0,1.624
525.0,1.646
526.0,1.574
527.0,1.485
528.0,1.572
529.0,1.659
530.0,1.637
531.0,1.663
532.0,1.607
533.0,1.56
534.0,1.607
535.0,1.642
536.0,1.658
537.0,1.593
538.0,1.622
539.0,1.609
540.0,1.544
541.0,1.557
542.0,1.607
543.0,1.59
544.0,1.619
545.0,1.615
546.0,1.624
547.0,1.623
548.0,1.604
549.0,1.609
550.0,1.629
551.0,1.61
552.0,1.622
553.0,1.594
554.0,1.633
555.0,1.638
556.0,1.617
557.0,1.568
558.0,1.558
559.0,1.531
560.0,1.551
561.0,1.573
562.0,1.563
563.0,1.608
564.0,1.566
565.0,1.554
566.0,1.533
567.0,1.564
568.0,1.553
569.0,1.523
570.0,1.523
571.0,1.512
572.0,1.553
573.0,1.571
574.0,1.568
575.0,1.54
576.0,1.527
577.0,1.544
578.0,1.519
579.0,1.523
580.0,1.549
581.0,1.554
582.0,1.582
583.0,1.584
584.0,1.597
585.0,1.557
586.0,1.526
587.0,1.562
588.0,1.532
589.0,1.373
590.0,1.435
591.0,1.51
592.0,1.496
593.0,1.513
594.0,1.506
595.0,1.474
596.0,1.521
597.0,1.507
598.0,1.501
599.0,1.501
600.0,1.5
601.0,1.486
602.0,1.476
603.0,1.5
604.0,1.525
605.0,1.517
606.0,1.51
607.0,1.524
608.0,1.507
609.0,1.509
610.0,1.497
611.0,1.505
612.0,1.501
613.0,1.482
614.0,1.461
615.0,1.492
616.0,1.443
617.0,1.44
618.0,1.495
619.0,1.48
620.0,1.49
621.0,1.493
622.0,1.477
623.0,1.455
624.0,1.43
625.0,1.427
626.0,1.449
627.0,1.468
628.0,1.403
629.0,1.445
630.0,1.413
631.0,1.435
632.0,1.416
633.0,1.455
634.0,1.438
635.0,1.459
636.0,1.438
637.0,1.461
638.0,1.473
639.0,1.456
640.0,1.441
641.0,1.439
642.0,1.432
643.0,1.451
644.0,1.446
645.0,1.449
646.0,1.419
647.0,1.411
648.0,1.414
649.0,1.387
650.0,1.384
651.0,1.442
652.0,1.394
653.0,1.423
654.0,1.406
655.0,1.36
656.0,1.202
657.0,1.234
658.0,1.38
659.0,1.388
660.0,1.394
661.0,1.404
662.0,1.409
663.0,1.381
664.0,1.394
665.0,1.393
666.0,1.394
667.0,1.392
668.0,1.391
669.0,1.412
670.0,1.406
671.0,1.406
672.0,1.393
673.0,1.414
674.0,1.409
675.0,1.396
676.0,1.405
677.0,1.391
678.0,1.395
679.0,1.372
680.0,1.383
681.0,1.374
682.0,1.373
683.0,1.37
684.0,1.364
685.0,1.375
686.0,1.368
687.0,1.046
688.0,1.158
689.0,1.161
690.0,1.195
691.0,1.234
692.0,1.26
693.0,1.252
694.0,1.243
695.0,1.278
696.0,1.28
697.0,1.337
698.0,1.317
699.0,1.299
700.0,1.284
701.0,1.275
702.0,1.279
703.0,1.282
704.0,1.315
705.0,1.317
706.0,1.313
707.0,1.313
708.0,1.316
709.0,1.313
710.0,1.316
711.0,1.313
712.0,1.307
713.0,1.296
714.0,1.3
715.0,1.265
716.0,1.267
717.0,1.15
718.0,1.067
719.0,0.9839
720.0,1.034
721.0,1.108
722.0,1.232
723.0,1.166
724.0,1.072
725.0,1.062
726.0,1.107
727.0,1.112
728.0,1.062
729.0,1.083
730.0,1.145
731.0,1.102
732.0,1.159
733.0,1.208
734.0,1.232
735.0,1.209
736.0,1.208
737.0,1.213
738.0,1.22
739.0,1.197
740.0,1.224
741.0,1.21
742.0,1.209
743.0,1.24
744.0,1.235
745.0,1.234
746.0,1.24
747.0,1.243
748.0,1.24
749.0,1.226
750.0,1.225
751.0,1.213
752.0,1.218
753.0,1.224
754.0,1.227
755.0,1.221
756.0,1.22
757.0,1.222
758.0,1.207
759.0,1.19
760.0,0.3579
761.0,0.2316
762.0,0.7543
763.0,0.4759
764.0,0.6251
765.0,0.7552
766.0,0.8551
767.0,1.011
768.0,1.114
769.0,1.127
770.0,1.152
771.0,1.156
772.0,1.157
773.0,1.165
774.0,1.159
775.0,1.15
776.0,1.164
777.0,1.149
778.0,1.142
779.0,1.143
780.0,1.136
781.0,1.138
782.0,1.145
783.0,1.125
784.0,1.13
785.0,1.122
786.0,1.135
787.0,1.121
788.0,1.109
789.0,1.11
790.0,1.088
791.0,1.09
792.0,1.082
793.0,1.065
794.0,1.075
795.0,1.095
796.0,1.073
797.0,1.074
798.0,1.096
799.0,1.091
800.0,1.074
801.0,1.073
802.0,1.07
803.0,1.063
804.0,1.064
805.0,1.058
806.0,1.082
807.0,1.071
808.0,1.071
809.0,1.055
810.0,1.049
811.0,1.055
812.0,1.033
813.0,1.017
814.0,0.9209
815.0,0.9146
816.0,0.8559
817.0,0.8679
818.0,0.8415
819.0,0.9172
820.0,0.8733
821.0,0.9892
822.0,0.9663
823.0,0.7092
824.0,0.9488
825.0,0.9742
826.0,0.9467
827.0,0.9889
828.0,0.867
829.0,0.9393
830.0,0.9302
831.0,0.9323
832.0,0.9091
833.0,0.9519
834.0,0.9278
835.0,0.9992
836.0,0.9689
837.0,1.001
838.0,0.9755
839.0,0.9853
840.0,1.006
841.0,0.9937
842.0,0.9924
843.0,0.9882
844.0,0.9766
845.0,1.007
846.0,1.002
847.0,0.9823
848.0,0.9778
849.0,0.9502
850.0,0.9102
851.0,0.9654
852.0,0.958
853.0,0.9208
854.0,0.7963
855.0,0.8732
856.0,0.955
857.0,0.9753
858.0,0.9687
859.0,0.9689
860.0,0.9702
861.0,0.9651
862.0,0.9801
863.0,1.003
864.0,0.9531
865.0,0.9447
866.0,0.8495
867.0,0.8865
868.0,0.9647
869.0,0.9447
870.0,0.9716
871.0,0.9585
872.0,0.9551
873.0,0.9532
874.0,0.9419
875.0,0.923
876.0,0.9327
877.0,0.9421
878.0,0.9527
879.0,0.938
880.0,0.9179
881.0,0.905
882.0,0.9249
883.0,0.9271
884.0,0.9232
885.0,0.9302
886.0,0.8894
887.0,0.8967
888.0,0.9115
889.0,0.9193
890.0,0.9146
891.0,0.9116
892.0,0.889
893.0,0.8662
894.0,0.8447
895.0,0.8098
896.0,0.769
897.0,0.6774
898.0,0.7292
899.0,0.5759
900.0,0.7368
901.0,0.6023
902.0,0.6796
903.0,0.6948
904.0,0.8388
905.0,0.8154
906.0,0.7676
907.0,0.6482
908.0,0.6579
909.0,0.7005
910.0,0.6408
911.0,0.6706
912.0,0.6956
913.0,0.6513
914.0,0.6422
915.0,0.6931
916.0,0.5945
917.0,0.7295
918.0,0.6099
919.0,0.7379
920.0,0.7354
921.0,0.7616
922.0,0.6962
923.0,0.7351
924.0,0.7139
925.0,0.6992
926.0,0.7065
927.0,0.7763
928.0,0.6115
929.0,0.5696
930.0,0.4668
931.0,0.4388
932.0,0.3352
933.0,0.2837
934.0,0.1793
935.0,0.281
936.0,0.1902
937.0,0.1952
938.0,0.2339
939.0,0.4253
940.0,0.4984
941.0,0.3945
942.0,0.4445
943.0,0.3071
944.0,0.311
945.0,0.4038
946.0,0.2256
947.0,0.4104
948.0,0.3054
949.0,0.5292
950.0,0.1798
951.0,0.5177
952.0,0.3052
953.0,0.3765
954.0,0.4424
955.0,0.3786
956.0,0.3603
957.0,0.3085
958.0,0.482
959.0,0.403
960.0,0.4507
961.0,0.4908
962.0,0.4667
963.0,0.5246
964.0,0.4854
965.0,0.5209
966.0,0.5244
967.0,0.5233
968.0,0.6573
969.0,0.689
970.0,0.6395
971.0,0.7128
972.0,0.6855
973.0,0.6161
974.0,0.5881
975.0,0.6026
976.0,0.5822
977.0,0.6429
978.0,0.619
979.0,0.6418
980.0,0.6079
981.0,0.7079
982.0,0.6837
983.0,0.6607
984.0,0.722
985.0,0.681
986.0,0.7303
987.0,0.7206
988.0,0.7194
989.0,0.7254
990.0,0.7146
991.0,0.7282
992.0,0.7319
993.0,0.7203
994.0,0.7313
995.0,0.7297
996.0,0.7272
997.0,0.728
998.0,0.7248
999.0,0.722
1000.0,0.7181
1001.0,0.7258
1002.0,0.7104
1003.0,0.7133
1004.0,0.6971
1005.0,0.6699
1006.0,0.697
1007.0,0.7113
1008.0,0.7083
1009.0,0.7054
1010.0,0.703
1011.0,0.7077
1012.0,0.7024
1013.0,0.7057
1014.0,0.7008
1015.0,0.6963
1016.0,0.6933
1017.0,0.6953
1018.0,0.6921
1019.0,0.6791
1020.0,0.6888
1021.0,0.6876
1022.0,0.6829
1023.0,0.6903
1024.0,0.6831
1025.0,0.6892
1026.0,0.6867
1027.0,0.6851
1028.0,0.6838
1029.0,0.6759
1030.0,0.6799
1031.0,0.6775
1032.0,0.6754
1033.0,0.6652
1034.0,0.6652
1035.0,0.6673
1036.0,0.671
1037.0,0.66
1038.0,0.663
1039.0,0.6628
1040.0,0.6601
1041.0,0.663
1042.0,0.6584
1043.0,0.6564
1044.0,0.6588
1045.0,0.65
1046.0,0.6429
1047.0,0.6489
1048.0,0.6526
1049.0,0.6504
1050.0,0.6475
1051.0,0.6468
1052.0,0.6444
1053.0,0.6395
1054.0,0.6411
1055.0,0.6417
1056.0,0.6398
1057.0,0.638
1058.0,0.6226
1059.0,0.6236
1060.0,0.6228
1061.0,0.6222
1062.0,0.6258
1063.0,0.6198
1064.0,0.6271
1065.0,0.6232
1066.0,0.6104
1067.0,0.6185
1068.0,0.6055
1069.0,0.5864
1070.0,0.6068
1071.0,0.6147
1072.0,0.6088
1073.0,0.5998
1074.0,0.6136
1075.0,0.5878
1076.0,0.6134
1077.0,0.6052
1078.0,0.5948
1079.0,0.6029
1080.0,0.596
1081.0,0.5791
1082.0,0.5844
1083.0,0.5852
1084.0,0.5792
1085.0,0.5969
1086.0,0.5529
1087.0,0.5645
1088.0,0.5855
1089.0,0.5722
1090.0,0.5631
1091.0,0.585
1092.0,0.5824
1093.0,0.5085
1094.0,0.5347
1095.0,0.5273
1096.0,0.5094
1097.0,0.5687
1098.0,0.5029
1099.0,0.5222
1100.0,0.4925
1101.0,0.4965
1102.0,0.4782
1103.0,0.4765
1104.0,0.4768
1105.0,0.5118
1106.0,0.4172
1107.0,0.4911
1108.0,0.4319
1109.0,0.4297
1110.0,0.4886
1111.0,0.3529
1112.0,0.4252
1113.0,0.2935
1114.0,0.3249
1115.0,0.2702
1116.0,0.2302
1117.0,0.1019
1118.0,0.2446
1119.0,0.1347
1120.0,0.1694
1121.0,0.2162
1122.0,0.1027
1123.0,0.1528
1124.0,0.1291
1125.0,0.1653
1126.0,0.06947
1127.0,0.1853
1128.0,0.1236
1129.0,0.1289
1130.0,0.09119
1131.0,0.3223
1132.0,0.2584
1133.0,0.1791
1134.0,0.05638
1135.0,0.02074
1136.0,0.1549
1137.0,0.3205
1138.0,0.2298
1139.0,0.3149
1140.0,0.2738
1141.0,0.2184
1142.0,0.2451
1143.0,0.3364
1144.0,0.1325
1145.0,0.1722
1146.0,0.1859
1147.0,0.07817
1148.0,0.2915
1149.0,0.2416
1150.0,0.1422
1151.0,0.2283
1152.0,0.2707
1153.0,0.2563
1154.0,0.1701
1155.0,0.3289
1156.0,0.3015
1157.0,0.331
1158.0,0.3269
1159.0,0.3454
1160.0,0.3043
1161.0,0.3589
1162.0,0.3618
1163.0,0.4624
1164.0,0.4064
1165.0,0.392
1166.0,0.3836
1167.0,0.4128
1168.0,0.4191
1169.0,0.4255
1170.0,0.4551
1171.0,0.4451
1172.0,0.449
1173.0,0.4541
1174.0,0.3456
1175.0,0.4407
1176.0,0.4748
1177.0,0.4619
1178.0,0.3632
1179.0,0.4782
1180.0,0.4378
1181.0,0.4505
1182.0,0.3284
1183.0,0.4411
1184.0,0.4192
1185.0,0.4094
1186.0,0.4688
1187.0,0.4516
1188.0,0.3352
1189.0,0.422
1190.0,0.4582
1191.0,0.4434
1192.0,0.4636
1193.0,0.4474
1194.0,0.459
1195.0,0.44
1196.0,0.4277
1197.0,0.4559
1198.0,0.4221
1199.0,0.3728
1200.0,0.4423
1201.0,0.4312
1202.0,0.4262
1203.0,0.4226
1204.0,0.3777
1205.0,0.432
1206.0,0.4694
1207.0,0.4264
1208.0,0.4156
1209.0,0.4231
1210.0,0.4376
1211.0,0.4221
1212.0,0.4226
1213.0,0.4568
1214.0,0.4299
1215.0,0.4232
1216.0,0.4551
1217.0,0.4458
1218.0,0.4517
1219.0,0.4473
1220.0,0.4518
1221.0,0.4549
1222.0,0.4447
1223.0,0.4416
1224.0,0.4407
1225.0,0.4521
1226.0,0.4535
1227.0,0.4251
1228.0,0.4544
1229.0,0.4535
1230.0,0.447
1231.0,0.4556
1232.0,0.453
1233.0,0.4427
1234.0,0.4541
1235.0,0.452
1236.0,0.4547
1237.0,0.4504
1238.0,0.4531
1239.0,0.4474
1240.0,0.4488
1241.0,0.448
1242.0,0.4459
1243.0,0.4422
1244.0,0.4458
1245.0,0.4474
1246.0,0.4448
1247.0,0.4434
1248.0,0.4437
1249.0,0.4445
1250.0,0.4422
1251.0,0.4374
1252.0,0.4365
1253.0,0.4347
1254.0,0.4318
1255.0,0.4365
1256.0,0.4276
1257.0,0.4259
1258.0,0.4312
1259.0,0.4208
1260.0,0.4224
1261.0,0.4053
1262.0,0.3967
1263.0,0.3976
1264.0,0.3753
1265.0,0.3949
1266.0,0.3849
1267.0,0.3883
1268.0,0.3736
1269.0,0.2703
1270.0,0.3882
1271.0,0.4032
1272.0,0.4037
1273.0,0.4002
1274.0,0.4005
1275.0,0.405
1276.0,0.4076
1277.0,0.4089
1278.0,0.414
1279.0,0.4105
1280.0,0.4051
1281.0,0.3854
1282.0,0.3693
1283.0,0.3982
1284.0,0.4081
1285.0,0.4105
1286.0,0.4149
1287.0,0.4106
1288.0,0.41
1289.0,0.4011
1290.0,0.4061
1291.0,0.411
1292.0,0.3939
1293.0,0.405
1294.0,0.4025
1295.0,0.4024
1296.0,0.3893
1297.0,0.3725
1298.0,0.3927
1299.0,0.4047
1300.0,0.3569
1301.0,0.3648
1302.0,0.3912
1303.0,0.3506
1304.0,0.3126
1305.0,0.3843
1306.0,0.3851
1307.0,0.3147
1308.0,0.3491
1309.0,0.3831
1310.0,0.3093
1311.0,0.3377
1312.0,0.3308
1313.0,0.3264
1314.0,0.2972
1315.0,0.2963
1316.0,0.3346
1317.0,0.3185
1318.0,0.3406
1319.0,0.2827
1320.0,0.2703
1321.0,0.3091
1322.0,0.3145
1323.0,0.2505
1324.0,0.2772
1325.0,0.3305
1326.0,0.2924
1327.0,0.2811
1328.0,0.2469
1329.0,0.1972
1330.0,0.2505
1331.0,0.1663
1332.0,0.1665
1333.0,0.2273
1334.0,0.1871
1335.0,0.2492
1336.0,0.2044
1337.0,0.1857
1338.0,0.1999
1339.0,0.1972
1340.0,0.1882
1341.0,0.192
1342.0,0.2012
1343.0,0.1552
1344.0,0.09291
1345.0,0.131
1346.0,0.07892
1347.0,0.08249
1348.0,0.008859
1349.0,0.02722
1350.0,0.02536
1351.0,0.009584
1352.0,0.003973
1353.0,0.000353
1354.0,0.0008776
1355.0,2.046e-05
1356.0,0.0001817
1357.0,0.0002705
1358.0,2.323e-05
1359.0,6.221e-06
1360.0,1.392e-05
1361.0,8.275e-08
1362.0,5.015e-10
1363.0,2.18e-05
1364.0,1.017e-05
1365.0,4.084e-10
1366.0,7.713e-05
1367.0,2.984e-05
1368.0,1.759e-11
1369.0,4.065e-06
1370.0,2.741e-06
1371.0,2.428e-07
1372.0,1.668e-05
1373.0,0.0001926
1374.0,0.000621
1375.0,0.001092
1376.0,0.0007773
1377.0,0.0003911
1378.0,0.003072
1379.0,0.0001698
1380.0,0.0002963
1381.0,1.029e-05
1382.0,1.638e-05
1383.0,3.58e-07
1384.0,5.148e-06
1385.0,1.111e-05
1386.0,1.793e-05
1387.0,0.000759
1388.0,1.73e-05
1389.0,0.001788
1390.0,0.001518
1391.0,0.001126
1392.0,8.822e-05
1393.0,0.0003759
1394.0,0.000331
1395.0,4.078e-06
1396.0,9.649e-08
1397.0,0.0001748
1398.0,0.003522
1399.0,0.002257
1400.0,6.286e-08
1401.0,1.481e-07
1402.0,0.004
1403.0,0.00542
1404.0,0.001721
1405.0,2.614e-06
1406.0,0.005048
1407.0,0.0004381
1408.0,0.004063
1409.0,0.001773
1410.0,0.001263
1411.0,0.004708
1412.0,0.005606
1413.0,0.03783
1414.0,0.0009719
1415.0,0.0005349
1416.0,0.05086
1417.0,0.01992
1418.0,0.02258
1419.0,0.003775
1420.0,0.01405
1421.0,0.01576
1422.0,0.06479
1423.0,0.01393
1424.0,0.02499
1425.0,0.03794
1426.0,0.03945
1427.0,0.06385
1428.0,0.008601
1429.0,0.05135
1430.0,0.07878
1431.0,0.08434
1432.0,0.00693
1433.0,0.05693
1434.0,0.03065
1435.0,0.03627
1436.0,0.06071
1437.0,0.04677
1438.0,0.0224
1439.0,0.0784
1440.0,0.05946
1441.0,0.04952
1442.0,0.05365
1443.0,0.06104
1444.0,0.08227
1445.0,0.0692
1446.0,0.03267
1447.0,0.05164
1448.0,0.1379
1449.0,0.1248
1450.0,0.03823
1451.0,0.01681
1452.0,0.07976
1453.0,0.1016
1454.0,0.1578
1455.0,0.08071
1456.0,0.1111
1457.0,0.1388
1458.0,0.1542
1459.0,0.1837
1460.0,0.101
1461.0,0.1094
1462.0,0.1523
1463.0,0.05521
1464.0,0.1727
1465.0,0.1056
1466.0,0.08343
1467.0,0.04899
