interpolation:linear
wavelength,value
280.0,6.223e-24
280.5,2.06e-22
281.0,1.1280000000000001e-21
281.5,3.623e-20
282.0,2.936e-19
282.5,1.14e-18
283.0,5.094e-18
283.5,9.666e-18
284.0,2.522e-16
284.5,8.746e-16
285.0,2.061e-15
285.5,1.593e-14
286.0,7.492e-14
286.5,4.317e-13
287.0,1.457e-12
287.5,6.697e-12
288.0,3.028e-11
288.5,1.204e-10
289.0,4.037e-10
289.5,1.502e-09
290.0,4.87e-09
290.5,1.125e-08
291.0,2.759e-08
291.5,9.176e-08
292.0,2.346e-07
292.5,3.548e-07
293.0,8.276e-07
293.5,2.224e-06
294.0,3.753e-06
294.5,6.646e-06
295.0,1.178e-05
295.5,2.873e-05
296.0,5.195e-05
296.5,6.799e-05
297.0,8.709e-05
297.5,0.000214
298.0,0.0003128
298.5,0.0002967
299.0,0.0006172
299.5,0.0009178
300.0,0.0009517
300.5,0.001295
301.0,0.002105
301.5,0.003045
302.0,0.002487
302.5,0.004673
303.0,0.00796
303.5,0.009693
304.0,0.008881
304.5,0.01228
305.0,0.01669
305.5,0.01788
306.0,0.01694
306.5,0.02026
307.0,0.02731
307.5,0.03317
308.0,0.0347
308.5,0.03932
309.0,0.0349
309.5,0.03848
310.0,0.03806
310.5,0.06133
311.0,0.07594
311.5,0.0731
312.0,0.0703
312.5,0.0834
313.0,0.08946
313.5,0.08872
314.0,0.1073
314.5,0.09067
315.0,0.1186
315.5,0.1024
316.0,0.08602
316.5,0.1193
317.0,0.1491
317.5,0.1577
318.0,0.1203
318.5,0.1422
319.0,0.165
319.5,0.1412
320.0,0.1726
320.5,0.2053
321.0,0.1746
321.5,0.1673
322.0,0.1892
322.5,0.1649
323.0,0.1592
323.5,0.1848
324.0,0.2152
324.5,0.2232
325.0,0.2026
325.5,0.2542
326.0,0.3009
326.5,0.2961
327.0,0.2988
327.5,0.2928
328.0,0.2695
328.5,0.2747
329.0,0.3213
329.5,0.3632
330.0,0.3705
330.5,0.3042
331.0,0.3134
331.5,0.3148
332.0,0.3337
332.5,0.3279
333.0,0.3304
333.5,0.3054
334.0,0.315
334.5,0.3578
335.0,0.3338
335.5,0.3796
336.0,0.2636
336.5,0.3213
337.0,0.2667
337.5,0.334
338.0,0.3222
338.5,0.3642
339.0,0.3638
339.5,0.3498
340.0,0.4219
340.5,0.3811
341.0,0.3662
341.5,0.3403
342.0,0.4089
342.5,0.3845
343.0,0.4225
343.5,0.3978
344.0,0.2991
344.5,0.2966
345.0,0.398
345.5,0.409
346.0,0.3494
346.5,0.3973
347.0,0.4265
347.5,0.3455
348.0,0.3967
348.5,0.3985
349.0,0.371
349.5,0.3683
350.0,0.457
350.5,0.4834
351.0,0.4326
351.5,0.4196
352.0,0.4535
352.5,0.3556
353.0,0.4496
353.5,0.4825
354.0,0.5026
354.5,0.5113
355.0,0.5108
355.5,0.4628
356.0,0.4857
356.5,0.4159
357.0,0.3447
357.5,0.4232
358.0,0.3364
358.5,0.2883
359.0,0.4043
359.5,0.5163
360.0,0.5489
360.5,0.44
361.0,0.4022
361.5,0.4641
362.0,0.4022
362.5,0.5578
363.0,0.5021
363.5,0.4635
364.0,0.5682
364.5,0.4868
365.0,0.497
365.5,0.6253
366.0,0.6639
366.5,0.6252
367.0,0.6103
367.5,0.6348
368.0,0.5568
368.5,0.5631
369.0,0.6094
369.5,0.6511
370.0,0.6956
370.5,0.541
371.0,0.5793
371.5,0.7265
372.0,0.4833
372.5,0.5807
373.0,0.5919
373.5,0.3859
374.0,0.5619
374.5,0.4663
375.0,0.4542
375.5,0.6797
376.0,0.5646
376.5,0.5864
377.0,0.6221
377.5,0.7292
378.0,0.7922
378.5,0.7505
379.0,0.6208
379.5,0.5684
380.0,0.5923
380.5,0.7187
381.0,0.7216
381.5,0.5731
382.0,0.5099
382.5,0.4354
383.0,0.4039
383.5,0.3897
384.0,0.4307
384.5,0.6346
385.0,0.6305
385.5,0.5882
386.0,0.5047
386.5,0.6641
387.0,0.5529
387.5,0.6222
388.0,0.5755
388.5,0.5699
389.0,0.6163
389.5,0.7477
390.0,0.7517
390.5,0.693
391.0,0.8172
391.5,0.835
392.0,0.7046
392.5,0.6318
393.0,0.3521
393.5,0.2563
394.0,0.5225
394.5,0.6653
395.0,0.8132
395.5,0.8275
396.0,0.7186
396.5,0.4207
397.0,0.3162
397.5,0.6441
398.0,0.9036
398.5,0.9354
399.0,1.014
399.5,1.012
400.0,1.053
401.0,1.084
402.0,1.147
403.0,1.093
404.0,1.079
405.0,1.082
406.0,1.067
407.0,1.052
408.0,1.096
409.0,1.176
410.0,1.03
411.0,1.118
412.0,1.204
413.0,1.177
414.0,1.194
415.0,1.2
416.0,1.223
417.0,1.196
418.0,1.177
419.0,1.195
420.0,1.192
421.0,1.25
422.0,1.191
423.0,1.166
424.0,1.236
425.0,1.236
426.0,1.206
427.0,1.186
428.0,1.158
429.0,1.098
430.0,0.9628
431.0,0.9565
432.0,1.237
433.0,1.246
434.0,1.16
435.0,1.213
436.0,1.369
437.0,1.352
438.0,1.233
439.0,1.279
440.0,1.321
441.0,1.371
442.0,1.473
443.0,1.438
444.0,1.471
445.0,1.442
446.0,1.378
447.0,1.491
448.0,1.518
449.0,1.525
450.0,1.57
451.0,1.631
452.0,1.573
453.0,1.482
454.0,1.548
455.0,1.561
456.0,1.6
457.0,1.629
458.0,1.576
459.0,1.57
460.0,1.577
461.0,1.616
462.0,1.63
463.0,1.621
464.0,1.595
465.0,1.576
466.0,1.593
467.0,1.566
468.0,1.587
469.0,1.598
470.0,1.549
471.0,1.549
472.0,1.634
473.0,1.615
474.0,1.62
475.0,1.637
476.0,1.591
477.0,1.599
478.0,1.645
479.0,1.636
480.0,1.641
481.0,1.672
482.0,1.682
483.0,1.662
484.0,1.63
485.0,1.554
486.0,1.359
487.0,1.425
488.0,1.566
489.0,1.573
490.0,1.656
491.0,1.628
492.0,1.539
493.0,1.591
494.0,1.609
495.0,1.624
496.0,1.635
497.0,1.662
498.0,1.586
499.0,1.609
500.0,1.564
501.0,1.537
502.0,1.519
503.0,1.584
504.0,1.55
505.0,1.603
506.0,1.656
507.0,1.577
508.0,1.528
509.0,1.571
510.0,1.563
511.0,1.606
512.0,1.624
513.0,1.538
514.0,1.529
515.0,1.515
516.0,1.512
517.0,1.345
518.0,1.415
519.0,1.485
520.0,1.541
521.0,1.557
522.0,1.56
523.0,1.533
524.0,1.59
525.0,1.611
526.0,1.54
527.0,1.453
528.0,1.539
529.0,1.624
530.0,1.602
531.0,1.627
532.0,1.573
533.0,1.527
534.0,1.573
535.0,1.608
536.0,1.624
537.0,1.56
538.0,1.589
539.0,1.576
540.0,1.512
541.0,1.525
542.0,1.574
543.0,1.557
544.0,1.586
545.0,1.582
546.0,1.591
547.0,1.59
548.0,1.572
549.0,1.577
550.0,1.597
551.0,1.578
552.0,1.59
553.0,1.563
554.0,1.601
555.0,1.606
556.0,1.586
557.0,1.538
558.0,1.528
559.0,1.501
560.0,1.521
561.0,1.542
562.0,1.533
563.0,1.576
564.0,1.535
565.0,1.523
566.0,1.502
567.0,1.532
568.0,1.521
569.0,1.49
570.0,1.49
571.0,1.481
572.0,1.52
573.0,1.537
574.0,1.534
575.0,1.507
576.0,1.494
577.0,1.51
578.0,1.487
579.0,1.492
580.0,1.517
581.0,1.524
582.0,1.551
583.0,1.554
584.0,1.567
585.0,1.529
586.0,1.498
587.0,1.533
588.0,1.502
589.0,1.342
590.0,1.403
591.0,1.479
592.0,1.464
593.0,1.482
594.0,1.474
595.0,1.442
596.0,1.491
597.0,1.477
598.0,1.471
599.0,1.472
600.0,1.473
601.0,1.459
602.0,1.45
603.0,1.474
604.0,1.498
605.0,1.491
606.0,1.484
607.0,1.498
608.0,1.481
609.0,1.484
610.0,1.473
611.0,1.48
612.0,1.476
613.0,1.458
614.0,1.438
615.0,1.469
616.0,1.42
617.0,1.417
618.0,1.472
619.0,1.457
620.0,1.467
621.0,1.469
622.0,1.453
623.0,1.433
624.0,1.408
625.0,1.405
626.0,1.426
627.0,1.445
628.0,1.372
629.0,1.419
630.0,1.388
631.0,1.412
632.0,1.394
633.0,1.433
634.0,1.417
635.0,1.439
636.0,1.419
637.0,1.441
638.0,1.454
639.0,1.437
640.0,1.422
641.0,1.421
642.0,1.414
643.0,1.434
644.0,1.428
645.0,1.432
646.0,1.401
647.0,1.391
648.0,1.394
649.0,1.367
650.0,1.366
651.0,1.424
652.0,1.374
653.0,1.406
654.0,1.39
655.0,1.343
656.0,1.187
657.0,1.219
658.0,1.364
659.0,1.373
660.0,1.379
661.0,1.389
662.0,1.393
663.0,1.365
664.0,1.38
665.0,1.38
666.0,1.38
667.0,1.378
668.0,1.378
669.0,1.4
670.0,1.393
671.0,1.393
672.0,1.381
673.0,1.402
674.0,1.397
675.0,1.384
676.0,1.393
677.0,1.379
678.0,1.383
679.0,1.361
680.0,1.372
681.0,1.363
682.0,1.362
683.0,1.359
684.0,1.353
685.0,1.364
686.0,1.357
687.0,1.002
688.0,1.125
689.0,1.128
690.0,1.167
691.0,1.21
692.0,1.24
693.0,1.232
694.0,1.223
695.0,1.261
696.0,1.263
697.0,1.325
698.0,1.305
699.0,1.284
700.0,1.269
701.0,1.26
702.0,1.265
703.0,1.267
704.0,1.302
705.0,1.304
706.0,1.301
707.0,1.301
708.0,1.305
709.0,1.303
710.0,1.305
711.0,1.302
712.0,1.297
713.0,1.286
714.0,1.29
715.0,1.254
716.0,1.256
717.0,1.126
718.0,1.042
719.0,0.9588
720.0,1.007
721.0,1.088
722.0,1.219
723.0,1.149
724.0,1.05
725.0,1.039
726.0,1.084
727.0,1.092
728.0,1.038
729.0,1.064
730.0,1.125
731.0,1.081
732.0,1.142
733.0,1.196
734.0,1.221
735.0,1.197
736.0,1.196
737.0,1.201
738.0,1.211
739.0,1.188
740.0,1.216
741.0,1.202
742.0,1.202
743.0,1.233
744.0,1.228
745.0,1.228
746.0,1.234
747.0,1.236
748.0,1.234
749.0,1.22
750.0,1.219
751.0,1.207
752.0,1.212
753.0,1.219
754.0,1.221
755.0,1.215
756.0,1.214
757.0,1.216
758.0,1.201
759.0,1.182
760.0,0.3053
761.0,0.187
762.0,0.7093
763.0,0.421
764.0,0.5729
765.0,0.71
766.0,0.8211
767.0,0.9872
768.0,1.101
769.0,1.116
770.0,1.145
771.0,1.15
772.0,1.152
773.0,1.16
774.0,1.154
775.0,1.145
776.0,1.159
777.0,1.144
778.0,1.137
779.0,1.138
780.0,1.132
781.0,1.133
782.0,1.14
783.0,1.12
784.0,1.126
785.0,1.118
786.0,1.131
787.0,1.115
788.0,1.103
789.0,1.103
790.0,1.08
791.0,1.084
792.0,1.075
793.0,1.058
794.0,1.071
795.0,1.09
796.0,1.065
797.0,1.066
798.0,1.09
799.0,1.085
800.0,1.068
801.0,1.066
802.0,1.063
803.0,1.056
804.0,1.057
805.0,1.052
806.0,1.078
807.0,1.066
808.0,1.066
809.0,1.049
810.0,1.043
811.0,1.048
812.0,1.023
813.0,1.006
814.0,0.9036
815.0,0.8976
816.0,0.8385
817.0,0.8515
818.0,0.8239
819.0,0.9046
820.0,0.8585
821.0,0.9811
822.0,0.9569
823.0,0.6873
824.0,0.9368
825.0,0.9656
826.0,0.9358
827.0,0.9804
828.0,0.8516
829.0,0.929
830.0,0.9191
831.0,0.9216
832.0,0.8972
833.0,0.9439
834.0,0.9173
835.0,0.9935
836.0,0.9599
837.0,0.9958
838.0,0.9688
839.0,0.9801
840.0,1.001
841.0,0.9882
842.0,0.9879
843.0,0.9847
844.0,0.9726
845.0,1.003
846.0,0.9988
847.0,0.9794
848.0,0.9746
849.0,0.947
850.0,0.9072
851.0,0.9619
852.0,0.9546
853.0,0.918
854.0,0.7935
855.0,0.8707
856.0,0.9521
857.0,0.9726
858.0,0.9658
859.0,0.9662
860.0,0.9677
861.0,0.9626
862.0,0.9776
863.0,1.001
864.0,0.9507
865.0,0.9424
866.0,0.8474
867.0,0.8844
868.0,0.9624
869.0,0.9424
870.0,0.9693
871.0,0.9562
872.0,0.9528
873.0,0.951
874.0,0.9397
875.0,0.9208
876.0,0.9305
877.0,0.9399
878.0,0.9504
879.0,0.9358
880.0,0.9158
881.0,0.9026
882.0,0.9224
883.0,0.9248
884.0,0.9209
885.0,0.9279
886.0,0.8864
887.0,0.8943
888.0,0.9085
889.0,0.9172
890.0,0.9116
891.0,0.9091
892.0,0.8855
893.0,0.8613
894.0,0.8373
895.0,0.7993
896.0,0.757
897.0,0.6617
898.0,0.7154
899.0,0.5584
900.0,0.7258
901.0,0.5845
902.0,0.6676
903.0,0.68
904.0,0.8315
905.0,0.8066
906.0,0.7579
907.0,0.6326
908.0,0.6429
909.0,0.6883
910.0,0.6231
911.0,0.6556
912.0,0.6819
913.0,0.6331
914.0,0.6253
915.0,0.6761
916.0,0.5772
917.0,0.7161
918.0,0.5921
919.0,0.7256
920.0,0.726
921.0,0.7531
922.0,0.6837
923.0,0.7271
924.0,0.7012
925.0,0.6864
926.0,0.6938
927.0,0.7669
928.0,0.5908
929.0,0.547
930.0,0.4423
931.0,0.4169
932.0,0.3128
933.0,0.2612
934.0,0.1581
935.0,0.2616
936.0,0.1726
937.0,0.1762
938.0,0.213
939.0,0.4042
940.0,0.4776
941.0,0.3723
942.0,0.4234
943.0,0.2879
944.0,0.295
945.0,0.3819
946.0,0.2071
947.0,0.3868
948.0,0.2864
949.0,0.505
950.0,0.1606
951.0,0.4951
952.0,0.283
953.0,0.3544
954.0,0.4224
955.0,0.3571
956.0,0.3413
957.0,0.2852
958.0,0.4661
959.0,0.3832
960.0,0.429
961.0,0.4717
962.0,0.4478
963.0,0.5075
964.0,0.468
965.0,0.5046
966.0,0.5069
967.0,0.5055
968.0,0.6485
969.0,0.6793
970.0,0.6282
971.0,0.7063
972.0,0.6781
973.0,0.6032
974.0,0.5746
975.0,0.5913
976.0,0.5682
977.0,0.6334
978.0,0.6073
979.0,0.6319
980.0,0.5969
981.0,0.7019
982.0,0.6757
983.0,0.6515
984.0,0.7183
985.0,0.6731
986.0,0.7279
987.0,0.7169
988.0,0.7156
989.0,0.7239
990.0,0.7111
991.0,0.7265
992.0,0.7304
993.0,0.7174
994.0,0.7299
995.0,0.7286
996.0,0.7258
997.0,0.7267
998.0,0.7235
999.0,0.7207
1000.0,0.7164
1001.0,0.7246
1002.0,0.7077
1003.0,0.712
1004.0,0.6954
1005.0,0.6689
1006.0,0.6956
1007.0,0.71
1008.0,0.7068
1009.0,0.7036
1010.0,0.701
1011.0,0.7065
1012.0,0.701
1013.0,0.7046
1014.0,0.6997
1015.0,0.6952
1016.0,0.6922
1017.0,0.6941
1018.0,0.6911
1019.0,0.6775
1020.0,0.6877
1021.0,0.6866
1022.0,0.6817
1023.0,0.689
1024.0,0.6813
1025.0,0.6882
1026.0,0.6856
1027.0,0.6839
1028.0,0.6826
1029.0,0.6747
1030.0,0.6789
1031.0,0.6764
1032.0,0.6743
1033.0,0.6642
1034.0,0.6642
1035.0,0.6663
1036.0,0.6699
1037.0,0.659
1038.0,0.662
1039.0,0.6617
1040.0,0.6591
1041.0,0.6618
1042.0,0.6572
1043.0,0.6552
1044.0,0.6576
1045.0,0.6488
1046.0,0.6417
1047.0,0.6476
1048.0,0.6512
1049.0,0.649
1050.0,0.6461
1051.0,0.6454
1052.0,0.6429
1053.0,0.6379
1054.0,0.6395
1055.0,0.64
1056.0,0.638
1057.0,0.6362
1058.0,0.6207
1059.0,0.6216
1060.0,0.6208
1061.0,0.6201
1062.0,0.6236
1063.0,0.6176
1064.0,0.6249
1065.0,0.6208
1066.0,0.6082
1067.0,0.6162
1068.0,0.6031
1069.0,0.5842
1070.0,0.6044
1071.0,0.6128
1072.0,0.6065
1073.0,0.5976
1074.0,0.6119
1075.0,0.5846
1076.0,0.6116
1077.0,0.6026
1078.0,0.5919
1079.0,0.6014
1080.0,0.5934
1081.0,0.5759
1082.0,0.5824
1083.0,0.5835
1084.0,0.5755
1085.0,0.5945
1086.0,0.5478
1087.0,0.5615
1088.0,0.5836
1089.0,0.5688
1090.0,0.5585
1091.0,0.5826
1092.0,0.5804
1093.0,0.5018
1094.0,0.5322
1095.0,0.5214
1096.0,0.5022
1097.0,0.5669
1098.0,0.4953
1099.0,0.5151
1100.0,0.4834
1101.0,0.4881
1102.0,0.4688
1103.0,0.4662
1104.0,0.4666
1105.0,0.5043
1106.0,0.4026
1107.0,0.4823
1108.0,0.419
1109.0,0.4178
1110.0,0.4794
1111.0,0.339
1112.0,0.4138
1113.0,0.278
1114.0,0.3089
1115.0,0.2566
1116.0,0.2139
1117.0,0.08898
1118.0,0.2292
1119.0,0.1219
1120.0,0.1535
1121.0,0.1986
1122.0,0.0907
1123.0,0.1385
1124.0,0.117
1125.0,0.1507
1126.0,0.05961
1127.0,0.1693
1128.0,0.109
1129.0,0.1144
1130.0,0.07879
1131.0,0.3033
1132.0,0.2413
1133.0,0.1624
1134.0,0.04763
1135.0,0.01758
1136.0,0.1389
1137.0,0.3006
1138.0,0.214
1139.0,0.3017
1140.0,0.2588
1141.0,0.2034
1142.0,0.2302
1143.0,0.3196
1144.0,0.1208
1145.0,0.1564
1146.0,0.1688
1147.0,0.06693
1148.0,0.2768
1149.0,0.2265
1150.0,0.1295
1151.0,0.2126
1152.0,0.2552
1153.0,0.2439
1154.0,0.1532
1155.0,0.315
1156.0,0.2871
1157.0,0.3172
1158.0,0.3135
1159.0,0.3336
1160.0,0.2907
1161.0,0.3479
1162.0,0.3503
1163.0,0.4559
1164.0,0.3975
1165.0,0.3808
1166.0,0.3742
1167.0,0.4043
1168.0,0.41
1169.0,0.4175
1170.0,0.4487
1171.0,0.4384
1172.0,0.4434
1173.0,0.4478
1174.0,0.3339
1175.0,0.4353
1176.0,0.4719
1177.0,0.4573
1178.0,0.3542
1179.0,0.4754
1180.0,0.4319
1181.0,0.4449
1182.0,0.3187
1183.0,0.4364
1184.0,0.4129
1185.0,0.4017
1186.0,0.465
1187.0,0.4464
1188.0,0.3251
1189.0,0.4167
1190.0,0.4544
1191.0,0.4374
1192.0,0.4601
1193.0,0.4431
1194.0,0.4552
1195.0,0.4347
1196.0,0.4213
1197.0,0.4531
1198.0,0.4179
1199.0,0.365
1200.0,0.4379
1201.0,0.4256
1202.0,0.4212
1203.0,0.4179
1204.0,0.3709
1205.0,0.4282
1206.0,0.4676
1207.0,0.4211
1208.0,0.4116
1209.0,0.4194
1210.0,0.4347
1211.0,0.4177
1212.0,0.4167
1213.0,0.4543
1214.0,0.4247
1215.0,0.4177
1216.0,0.4527
1217.0,0.4426
1218.0,0.4492
1219.0,0.4445
1220.0,0.4494
1221.0,0.4529
1222.0,0.4422
1223.0,0.4389
1224.0,0.4375
1225.0,0.4501
1226.0,0.4519
1227.0,0.4217
1228.0,0.4532
1229.0,0.452
1230.0,0.4452
1231.0,0.4548
1232.0,0.4522
1233.0,0.4405
1234.0,0.4537
1235.0,0.4513
1236.0,0.4542
1237.0,0.4494
1238.0,0.4527
1239.0,0.4469
1240.0,0.4484
1241.0,0.4472
1242.0,0.4454
1243.0,0.4418
1244.0,0.4452
1245.0,0.4469
1246.0,0.4443
1247.0,0.4428
1248.0,0.443
1249.0,0.444
1250.0,0.4416
1251.0,0.4365
1252.0,0.4358
1253.0,0.4336
1254.0,0.4303
1255.0,0.4357
1256.0,0.4259
1257.0,0.4241
1258.0,0.4301
1259.0,0.4183
1260.0,0.42
1261.0,0.4012
1262.0,0.3917
1263.0,0.3926
1264.0,0.3683
1265.0,0.39
1266.0,0.3787
1267.0,0.383
1268.0,0.3671
1269.0,0.2545
1270.0,0.3826
1271.0,0.3993
1272.0,0.4001
1273.0,0.3964
1274.0,0.397
1275.0,0.4018
1276.0,0.4048
1277.0,0.4064
1278.0,0.4122
1279.0,0.4087
1280.0,0.4034
1281.0,0.3841
1282.0,0.3686
1283.0,0.3973
1284.0,0.4071
1285.0,0.4095
1286.0,0.4142
1287.0,0.4094
1288.0,0.4089
1289.0,0.3989
1290.0,0.4051
1291.0,0.4102
1292.0,0.3909
1293.0,0.4036
1294.0,0.4011
1295.0,0.4005
1296.0,0.386
1297.0,0.3681
1298.0,0.3904
1299.0,0.4036
1300.0,0.3516
1301.0,0.3604
1302.0,0.389
1303.0,0.3459
1304.0,0.3045
1305.0,0.3818
1306.0,0.3823
1307.0,0.3078
1308.0,0.345
1309.0,0.3801
1310.0,0.3024
1311.0,0.3329
1312.0,0.3254
1313.0,0.3206
1314.0,0.2904
1315.0,0.2887
1316.0,0.3292
1317.0,0.3129
1318.0,0.3362
1319.0,0.2741
1320.0,0.2631
1321.0,0.3026
1322.0,0.3072
1323.0,0.2406
1324.0,0.2688
1325.0,0.325
1326.0,0.2849
1327.0,0.2733
1328.0,0.2387
1329.0,0.1872
1330.0,0.2395
1331.0,0.1545
1332.0,0.1561
1333.0,0.2146
1334.0,0.1778
1335.0,0.2396
1336.0,0.1943
1337.0,0.1749
1338.0,0.1888
1339.0,0.1867
1340.0,0.1791
1341.0,0.1805
1342.0,0.1892
1343.0,0.1404
1344.0,0.08378
1345.0,0.1193
1346.0,0.06782
1347.0,0.07038
1348.0,0.006445
1349.0,0.02087
1350.0,0.02014
1351.0,0.006643
1352.0,0.002442
1353.0,0.0001815
1354.0,0.0004976
1355.0,8.397e-06
1356.0,9.163e-05
1357.0,0.0001377
1358.0,9.656e-06
1359.0,2.079e-06
1360.0,5.35e-06
1361.0,1.924e-08
1362.0,9.01e-11
1363.0,8.195e-06
1364.0,3.625e-06
1365.0,5.796e-11
1366.0,3.093e-05
1367.0,1.194e-05
1368.0,1.519e-12
1369.0,1.412e-06
1370.0,8.71e-07
1371.0,6.694e-08
1372.0,6.615e-06
1373.0,9.095e-05
1374.0,0.0003277
1375.0,0.0005889
1376.0,0.0004425
1377.0,0.0002158
1378.0,0.001837
1379.0,9.233e-05
1380.0,0.0001533
1381.0,4.812e-06
1382.0,6.347e-06
1383.0,1.216e-07
1384.0,1.737e-06
1385.0,4.712e-06
1386.0,6.572e-06
1387.0,0.0003863
1388.0,8.174e-06
1389.0,0.001007
1390.0,0.0008627
1391.0,0.0006157
1392.0,4.493e-05
1393.0,0.0002056
1394.0,0.0001563
1395.0,1.612e-06
1396.0,2.383e-08
1397.0,9.109e-05
1398.0,0.002103
1399.0,0.001337
1400.0,1.382e-08
1401.0,3.837e-08
1402.0,0.002689
1403.0,0.003577
1404.0,0.001121
1405.0,9.538e-07
1406.0,0.003202
1407.0,0.0002732
1408.0,0.002583
1409.0,0.001044
1410.0,0.0007597
1411.0,0.003115
1412.0,0.003848
1413.0,0.02985
1414.0,0.0005879
1415.0,0.0003099
1416.0,0.04254
1417.0,0.01524
1418.0,0.01745
1419.0,0.002836
1420.0,0.01078
1421.0,0.01185
1422.0,0.05478
1423.0,0.01129
1424.0,0.02059
1425.0,0.03103
1426.0,0.03318
1427.0,0.05622
1428.0,0.006204
1429.0,0.0441
1430.0,0.07011
1431.0,0.07575
1432.0,0.004956
1433.0,0.05
1434.0,0.02636
1435.0,0.02947
1436.0,0.05185
1437.0,0.03979
1438.0,0.01822
1439.0,0.06828
1440.0,0.05146
1441.0,0.04156
1442.0,0.04554
1443.0,0.05364
1444.0,0.07284
1445.0,0.05979
1446.0,0.02778
1447.0,0.04371
1448.0,0.1274
1449.0,0.1135
1450.0,0.03233
1451.0,0.01373
1452.0,0.07096
1453.0,0.0915
1454.0,0.1475
1455.0,0.07313
1456.0,0.09976
1457.0,0.1281
1458.0,0.1456
1459.0,0.173
1460.0,0.09304
1461.0,0.0995
1462.0,0.1413
1463.0,0.04888
1464.0,0.1629
1465.0,0.09907
1466.0,0.07432
1467.0,0.04181
