interpolation:linear
wavelength,value
280.0,5.686e-25
280.5,2.192e-23
281.0,1.269e-22
281.5,4.721e-21
282.0,4.1840000000000006e-20
282.5,1.725e-19
283.0,8.237e-19
283.5,1.615e-18
284.0,4.914e-17
284.5,1.828e-16
285.0,4.645e-16
285.5,3.926e-15
286.0,1.914e-14
286.5,1.188e-13
287.0,4.232e-13
287.5,2.091e-12
288.0,1.035e-11
288.5,4.316e-11
289.0,1.521e-10
289.5,5.973e-10
290.0,2.025e-09
290.5,4.856e-09
291.0,1.246e-08
291.5,4.386e-08
292.0,1.175e-07
292.5,1.824e-07
293.0,4.399e-07
293.5,1.237e-06
294.0,2.154e-06
294.5,3.903e-06
295.0,7.123e-06
295.5,1.802e-05
296.0,3.34e-05
296.5,4.475e-05
297.0,5.841e-05
297.5,0.0001473
298.0,0.0002199
298.5,0.0002119
299.0,0.0004473
299.5,0.0006809
300.0,0.0007148
300.5,0.0009841
301.0,0.001628
301.5,0.002388
302.0,0.001964
302.5,0.003735
303.0,0.006457
303.5,0.00793
304.0,0.007296
304.5,0.01019
305.0,0.01402
305.5,0.01514
306.0,0.01438
306.5,0.01729
307.0,0.02353
307.5,0.02882
308.0,0.03021
308.5,0.03438
309.0,0.03061
309.5,0.03406
310.0,0.03382
310.5,0.05462
311.0,0.06787
311.5,0.06544
312.0,0.06334
312.5,0.07545
313.0,0.08113
313.5,0.08036
314.0,0.09763
314.5,0.08298
315.0,0.1087
315.5,0.09368
316.0,0.07903
316.5,0.1101
317.0,0.1375
317.5,0.1454
318.0,0.1112
318.5,0.1321
319.0,0.1536
319.5,0.1311
320.0,0.1602
320.5,0.1914
321.0,0.1633
321.5,0.1566
322.0,0.1766
322.5,0.154
323.0,0.149
323.5,0.1737
324.0,0.2025
324.5,0.2099
325.0,0.1901
325.5,0.239
326.0,0.2836
326.5,0.2796
327.0,0.2821
327.5,0.2764
328.0,0.2539
328.5,0.2596
329.0,0.3042
329.5,0.3441
330.0,0.351
330.5,0.2879
331.0,0.2967
331.5,0.2984
332.0,0.3167
332.5,0.3115
333.0,0.3138
333.5,0.29
334.0,0.2991
334.5,0.3402
335.0,0.3176
335.5,0.3615
336.0,0.251
336.5,0.3059
337.0,0.254
337.5,0.318
338.0,0.3071
338.5,0.3474
339.0,0.3471
339.5,0.3339
340.0,0.4027
340.5,0.3638
341.0,0.3498
341.5,0.3252
342.0,0.3909
342.5,0.3677
343.0,0.4041
343.5,0.3806
344.0,0.2861
344.5,0.2838
345.0,0.3811
345.5,0.3917
346.0,0.3347
346.5,0.3808
347.0,0.4088
347.5,0.3312
348.0,0.3804
348.5,0.3823
349.0,0.3561
349.5,0.3535
350.0,0.4388
350.5,0.4643
351.0,0.4155
351.5,0.4031
352.0,0.4358
352.5,0.3419
353.0,0.4323
353.5,0.464
354.0,0.4835
354.5,0.4919
355.0,0.4916
355.5,0.4455
356.0,0.4676
356.5,0.4005
357.0,0.3319
357.5,0.4077
358.0,0.3241
358.5,0.2778
359.0,0.3897
359.5,0.4977
360.0,0.5293
360.5,0.4244
361.0,0.388
361.5,0.4478
362.0,0.3882
362.5,0.5385
363.0,0.4848
363.5,0.4477
364.0,0.5489
364.5,0.4704
365.0,0.4803
365.5,0.6044
366.0,0.6419
366.5,0.6046
367.0,0.5903
367.5,0.6141
368.0,0.5387
368.5,0.5449
369.0,0.5899
369.5,0.6303
370.0,0.6735
370.5,0.524
371.0,0.5612
371.5,0.7038
372.0,0.4683
372.5,0.5628
373.0,0.5737
373.5,0.3741
374.0,0.5448
374.5,0.4522
375.0,0.4406
375.5,0.6593
376.0,0.5478
376.5,0.569
377.0,0.6037
377.5,0.7079
378.0,0.7691
378.5,0.7287
379.0,0.6028
379.5,0.552
380.0,0.5753
380.5,0.6983
381.0,0.7012
381.5,0.557
382.0,0.4956
382.5,0.4233
383.0,0.3927
383.5,0.379
384.0,0.4189
384.5,0.6174
385.0,0.6135
385.5,0.5724
386.0,0.4912
386.5,0.6465
387.0,0.5383
387.5,0.6058
388.0,0.5605
388.5,0.555
389.0,0.6003
389.5,0.7285
390.0,0.7325
390.5,0.6754
391.0,0.7965
391.5,0.814
392.0,0.6869
392.5,0.616
393.0,0.3434
393.5,0.25
394.0,0.5097
394.5,0.6491
395.0,0.7934
395.5,0.8074
396.0,0.7013
396.5,0.4106
397.0,0.3087
397.5,0.6288
398.0,0.8823
398.5,0.9135
399.0,0.9905
399.5,0.9888
400.0,1.029
401.0,1.06
402.0,1.121
403.0,1.068
404.0,1.055
405.0,1.058
406.0,1.044
407.0,1.03
408.0,1.073
409.0,1.151
410.0,1.009
411.0,1.095
412.0,1.179
413.0,1.153
414.0,1.17
415.0,1.176
416.0,1.199
417.0,1.173
418.0,1.154
419.0,1.172
420.0,1.17
421.0,1.227
422.0,1.169
423.0,1.144
424.0,1.213
425.0,1.214
426.0,1.185
427.0,1.165
428.0,1.137
429.0,1.079
430.0,0.9462
431.0,0.9402
432.0,1.216
433.0,1.225
434.0,1.14
435.0,1.193
436.0,1.347
437.0,1.33
438.0,1.214
439.0,1.258
440.0,1.3
441.0,1.35
442.0,1.45
443.0,1.416
444.0,1.449
445.0,1.42
446.0,1.357
447.0,1.469
448.0,1.495
449.0,1.503
450.0,1.547
451.0,1.607
452.0,1.551
453.0,1.461
454.0,1.527
455.0,1.539
456.0,1.578
457.0,1.607
458.0,1.555
459.0,1.549
460.0,1.556
461.0,1.594
462.0,1.608
463.0,1.6
464.0,1.574
465.0,1.556
466.0,1.573
467.0,1.547
468.0,1.567
469.0,1.578
470.0,1.53
471.0,1.53
472.0,1.614
473.0,1.595
474.0,1.601
475.0,1.617
476.0,1.572
477.0,1.58
478.0,1.625
479.0,1.617
480.0,1.621
481.0,1.653
482.0,1.663
483.0,1.644
484.0,1.611
485.0,1.537
486.0,1.344
487.0,1.41
488.0,1.549
489.0,1.556
490.0,1.638
491.0,1.611
492.0,1.523
493.0,1.575
494.0,1.592
495.0,1.607
496.0,1.619
497.0,1.646
498.0,1.57
499.0,1.592
500.0,1.548
501.0,1.522
502.0,1.504
503.0,1.568
504.0,1.533
505.0,1.587
506.0,1.64
507.0,1.561
508.0,1.513
509.0,1.556
510.0,1.548
511.0,1.59
512.0,1.609
513.0,1.524
514.0,1.515
515.0,1.501
516.0,1.498
517.0,1.332
518.0,1.402
519.0,1.472
520.0,1.527
521.0,1.543
522.0,1.546
523.0,1.519
524.0,1.576
525.0,1.596
526.0,1.526
527.0,1.44
528.0,1.525
529.0,1.609
530.0,1.588
531.0,1.613
532.0,1.558
533.0,1.514
534.0,1.559
535.0,1.594
536.0,1.609
537.0,1.547
538.0,1.575
539.0,1.563
540.0,1.499
541.0,1.512
542.0,1.56
543.0,1.544
544.0,1.573
545.0,1.569
546.0,1.577
547.0,1.577
548.0,1.559
549.0,1.564
550.0,1.584
551.0,1.565
552.0,1.577
553.0,1.55
554.0,1.588
555.0,1.592
556.0,1.573
557.0,1.525
558.0,1.515
559.0,1.488
560.0,1.508
561.0,1.529
562.0,1.52
563.0,1.563
564.0,1.522
565.0,1.51
566.0,1.489
567.0,1.519
568.0,1.508
569.0,1.477
570.0,1.477
571.0,1.468
572.0,1.506
573.0,1.523
574.0,1.52
575.0,1.493
576.0,1.48
577.0,1.496
578.0,1.474
579.0,1.478
580.0,1.505
581.0,1.511
582.0,1.539
583.0,1.542
584.0,1.555
585.0,1.517
586.0,1.486
587.0,1.521
588.0,1.489
589.0,1.329
590.0,1.39
591.0,1.466
592.0,1.451
593.0,1.469
594.0,1.461
595.0,1.429
596.0,1.478
597.0,1.465
598.0,1.459
599.0,1.46
600.0,1.461
601.0,1.448
602.0,1.439
603.0,1.463
604.0,1.487
605.0,1.48
606.0,1.473
607.0,1.488
608.0,1.471
609.0,1.473
610.0,1.463
611.0,1.47
612.0,1.466
613.0,1.448
614.0,1.428
615.0,1.459
616.0,1.411
617.0,1.408
618.0,1.462
619.0,1.448
620.0,1.457
621.0,1.46
622.0,1.444
623.0,1.423
624.0,1.399
625.0,1.396
626.0,1.417
627.0,1.435
628.0,1.36
629.0,1.409
630.0,1.377
631.0,1.402
632.0,1.385
633.0,1.424
634.0,1.409
635.0,1.43
636.0,1.41
637.0,1.433
638.0,1.446
639.0,1.429
640.0,1.415
641.0,1.414
642.0,1.407
643.0,1.426
644.0,1.421
645.0,1.424
646.0,1.394
647.0,1.383
648.0,1.385
649.0,1.359
650.0,1.359
651.0,1.417
652.0,1.366
653.0,1.399
654.0,1.383
655.0,1.336
656.0,1.181
657.0,1.213
658.0,1.358
659.0,1.367
660.0,1.373
661.0,1.382
662.0,1.387
663.0,1.359
664.0,1.374
665.0,1.374
666.0,1.375
667.0,1.373
668.0,1.373
669.0,1.394
670.0,1.388
671.0,1.388
672.0,1.376
673.0,1.397
674.0,1.391
675.0,1.379
676.0,1.388
677.0,1.375
678.0,1.379
679.0,1.356
680.0,1.367
681.0,1.358
682.0,1.357
683.0,1.355
684.0,1.348
685.0,1.36
686.0,1.352
687.0,0.9834
688.0,1.111
689.0,1.114
690.0,1.155
691.0,1.201
692.0,1.233
693.0,1.224
694.0,1.214
695.0,1.255
696.0,1.257
697.0,1.321
698.0,1.301
699.0,1.278
700.0,1.263
701.0,1.253
702.0,1.259
703.0,1.261
704.0,1.297
705.0,1.299
706.0,1.296
707.0,1.297
708.0,1.3
709.0,1.299
710.0,1.301
711.0,1.298
712.0,1.293
713.0,1.281
714.0,1.286
715.0,1.249
716.0,1.251
717.0,1.116
718.0,1.032
719.0,0.9488
720.0,0.996
721.0,1.08
722.0,1.214
723.0,1.142
724.0,1.042
725.0,1.029
726.0,1.075
727.0,1.084
728.0,1.029
729.0,1.056
730.0,1.117
731.0,1.073
732.0,1.135
733.0,1.19
734.0,1.216
735.0,1.192
736.0,1.191
737.0,1.196
738.0,1.207
739.0,1.184
740.0,1.213
741.0,1.199
742.0,1.199
743.0,1.23
744.0,1.225
745.0,1.225
746.0,1.231
747.0,1.234
748.0,1.231
749.0,1.217
750.0,1.217
751.0,1.205
752.0,1.21
753.0,1.216
754.0,1.219
755.0,1.212
756.0,1.212
757.0,1.214
758.0,1.199
759.0,1.179
760.0,0.2856
761.0,0.171
762.0,0.6913
763.0,0.4
764.0,0.5524
765.0,0.6919
766.0,0.8072
767.0,0.9775
768.0,1.096
769.0,1.112
770.0,1.142
771.0,1.148
772.0,1.15
773.0,1.157
774.0,1.152
775.0,1.143
776.0,1.157
777.0,1.142
778.0,1.135
779.0,1.136
780.0,1.13
781.0,1.131
782.0,1.138
783.0,1.118
784.0,1.124
785.0,1.116
786.0,1.129
787.0,1.112
788.0,1.1
789.0,1.1
790.0,1.076
791.0,1.081
792.0,1.072
793.0,1.056
794.0,1.069
795.0,1.088
796.0,1.062
797.0,1.063
798.0,1.088
799.0,1.082
800.0,1.065
801.0,1.064
802.0,1.061
803.0,1.053
804.0,1.054
805.0,1.049
806.0,1.076
807.0,1.063
808.0,1.064
809.0,1.047
810.0,1.04
811.0,1.044
812.0,1.019
813.0,1.001
814.0,0.8966
815.0,0.8908
816.0,0.8316
817.0,0.8449
818.0,0.8169
819.0,0.8994
820.0,0.8526
821.0,0.9778
822.0,0.9531
823.0,0.6787
824.0,0.9319
825.0,0.9622
826.0,0.9314
827.0,0.9769
828.0,0.8454
829.0,0.9248
830.0,0.9146
831.0,0.9173
832.0,0.8924
833.0,0.9406
834.0,0.913
835.0,0.991
836.0,0.9561
837.0,0.9935
838.0,0.9659
839.0,0.978
840.0,0.9986
841.0,0.986
842.0,0.986
843.0,0.9833
844.0,0.9709
845.0,1.002
846.0,0.9974
847.0,0.9783
848.0,0.9733
849.0,0.9457
850.0,0.906
851.0,0.9604
852.0,0.9532
853.0,0.9168
854.0,0.7923
855.0,0.8696
856.0,0.9508
857.0,0.9714
858.0,0.9646
859.0,0.9651
860.0,0.9666
861.0,0.9615
862.0,0.9765
863.0,0.9997
864.0,0.9497
865.0,0.9414
866.0,0.8465
867.0,0.8835
868.0,0.9614
869.0,0.9415
870.0,0.9684
871.0,0.9553
872.0,0.9519
873.0,0.9501
874.0,0.9388
875.0,0.9199
876.0,0.9296
877.0,0.939
878.0,0.9494
879.0,0.9348
880.0,0.9149
881.0,0.9017
882.0,0.9214
883.0,0.9239
884.0,0.9199
885.0,0.9269
886.0,0.8851
887.0,0.8933
888.0,0.9073
889.0,0.9163
890.0,0.9104
891.0,0.908
892.0,0.884
893.0,0.8592
894.0,0.8343
895.0,0.7951
896.0,0.7522
897.0,0.6555
898.0,0.7099
899.0,0.5515
900.0,0.7214
901.0,0.5775
902.0,0.6628
903.0,0.6742
904.0,0.8285
905.0,0.803
906.0,0.754
907.0,0.6264
908.0,0.637
909.0,0.6834
910.0,0.6161
911.0,0.6497
912.0,0.6765
913.0,0.6259
914.0,0.6186
915.0,0.6693
916.0,0.5704
917.0,0.7107
918.0,0.5851
919.0,0.7207
920.0,0.7222
921.0,0.7497
922.0,0.6786
923.0,0.7238
924.0,0.6961
925.0,0.6812
926.0,0.6887
927.0,0.763
928.0,0.5826
929.0,0.538
930.0,0.4327
931.0,0.4084
932.0,0.3041
933.0,0.2526
934.0,0.1501
935.0,0.254
936.0,0.1659
937.0,0.1691
938.0,0.205
939.0,0.3959
940.0,0.4693
941.0,0.3636
942.0,0.415
943.0,0.2804
944.0,0.2888
945.0,0.3734
946.0,0.2
947.0,0.3776
948.0,0.2791
949.0,0.4955
950.0,0.1534
951.0,0.4862
952.0,0.2745
953.0,0.3458
954.0,0.4145
955.0,0.3487
956.0,0.3341
957.0,0.2762
958.0,0.4598
959.0,0.3755
960.0,0.4206
961.0,0.4643
962.0,0.4404
963.0,0.5008
964.0,0.4612
965.0,0.4982
966.0,0.5
967.0,0.4985
968.0,0.645
969.0,0.6754
970.0,0.6236
971.0,0.7037
972.0,0.6751
973.0,0.598
974.0,0.5692
975.0,0.5868
976.0,0.5626
977.0,0.6297
978.0,0.6026
979.0,0.6279
980.0,0.5925
981.0,0.6994
982.0,0.6725
983.0,0.6478
984.0,0.7167
985.0,0.6699
986.0,0.7269
987.0,0.7154
988.0,0.7141
989.0,0.7233
990.0,0.7096
991.0,0.7258
992.0,0.7298
993.0,0.7161
994.0,0.7293
995.0,0.7281
996.0,0.7253
997.0,0.7262
998.0,0.7229
999.0,0.7202
1000.0,0.7158
1001.0,0.724
1002.0,0.7066
1003.0,0.7114
1004.0,0.6947
1005.0,0.6684
1006.0,0.695
1007.0,0.7095
1008.0,0.7062
1009.0,0.7029
1010.0,0.7002
1011.0,0.706
1012.0,0.7004
1013.0,0.7042
1014.0,0.6992
1015.0,0.6947
1016.0,0.6917
1017.0,0.6936
1018.0,0.6907
1019.0,0.6769
1020.0,0.6872
1021.0,0.6861
1022.0,0.6812
1023.0,0.6885
1024.0,0.6805
1025.0,0.6877
1026.0,0.6851
1027.0,0.6835
1028.0,0.6821
1029.0,0.6742
1030.0,0.6785
1031.0,0.6759
1032.0,0.6739
1033.0,0.6638
1034.0,0.6638
1035.0,0.6659
1036.0,0.6695
1037.0,0.6586
1038.0,0.6615
1039.0,0.6612
1040.0,0.6586
1041.0,0.6613
1042.0,0.6567
1043.0,0.6547
1044.0,0.6571
1045.0,0.6483
1046.0,0.6412
1047.0,0.647
1048.0,0.6507
1049.0,0.6484
1050.0,0.6455
1051.0,0.6448
1052.0,0.6422
1053.0,0.6373
1054.0,0.6388
1055.0,0.6393
1056.0,0.6372
1057.0,0.6354
1058.0,0.6199
1059.0,0.6208
1060.0,0.6199
1061.0,0.6193
1062.0,0.6227
1063.0,0.6167
1064.0,0.624
1065.0,0.6198
1066.0,0.6073
1067.0,0.6153
1068.0,0.6021
1069.0,0.5833
1070.0,0.6034
1071.0,0.612
1072.0,0.6056
1073.0,0.5967
1074.0,0.6112
1075.0,0.5833
1076.0,0.6109
1077.0,0.6015
1078.0,0.5907
1079.0,0.6008
1080.0,0.5923
1081.0,0.5746
1082.0,0.5816
1083.0,0.5828
1084.0,0.5739
1085.0,0.5934
1086.0,0.5458
1087.0,0.5602
1088.0,0.5828
1089.0,0.5674
1090.0,0.5567
1091.0,0.5816
1092.0,0.5796
1093.0,0.4992
1094.0,0.5312
1095.0,0.5189
1096.0,0.4992
1097.0,0.5661
1098.0,0.4922
1099.0,0.5122
1100.0,0.4797
1101.0,0.4847
1102.0,0.465
1103.0,0.4621
1104.0,0.4625
1105.0,0.5013
1106.0,0.3968
1107.0,0.4788
1108.0,0.4139
1109.0,0.4131
1110.0,0.4756
1111.0,0.3335
1112.0,0.4093
1113.0,0.2719
1114.0,0.3026
1115.0,0.2513
1116.0,0.2076
1117.0,0.08421
1118.0,0.2232
1119.0,0.117
1120.0,0.1475
1121.0,0.1918
1122.0,0.08615
1123.0,0.1331
1124.0,0.1124
1125.0,0.1451
1126.0,0.05596
1127.0,0.1632
1128.0,0.1035
1129.0,0.1089
1130.0,0.07425
1131.0,0.2958
1132.0,0.2347
1133.0,0.156
1134.0,0.04447
1135.0,0.01645
1136.0,0.1328
1137.0,0.2927
1138.0,0.2079
1139.0,0.2964
1140.0,0.2529
1141.0,0.1975
1142.0,0.2243
1143.0,0.3129
1144.0,0.1163
1145.0,0.1503
1146.0,0.1622
1147.0,0.06277
1148.0,0.271
1149.0,0.2206
1150.0,0.1247
1151.0,0.2064
1152.0,0.2491
1153.0,0.2391
1154.0,0.1469
1155.0,0.3094
1156.0,0.2813
1157.0,0.3117
1158.0,0.3082
1159.0,0.3289
1160.0,0.2854
1161.0,0.3435
1162.0,0.3458
1163.0,0.4533
1164.0,0.3939
1165.0,0.3764
1166.0,0.3705
1167.0,0.4009
1168.0,0.4064
1169.0,0.4142
1170.0,0.4461
1171.0,0.4357
1172.0,0.4412
1173.0,0.4452
1174.0,0.3293
1175.0,0.4332
1176.0,0.4707
1177.0,0.4554
1178.0,0.3507
1179.0,0.4743
1180.0,0.4295
1181.0,0.4426
1182.0,0.3149
1183.0,0.4345
1184.0,0.4103
1185.0,0.3987
1186.0,0.4634
1187.0,0.4443
1188.0,0.3211
1189.0,0.4146
1190.0,0.4529
1191.0,0.4349
1192.0,0.4587
1193.0,0.4413
1194.0,0.4536
1195.0,0.4325
1196.0,0.4188
1197.0,0.452
1198.0,0.4162
1199.0,0.362
1200.0,0.4361
1201.0,0.4233
1202.0,0.4192
1203.0,0.4159
1204.0,0.3682
1205.0,0.4267
1206.0,0.4669
1207.0,0.419
1208.0,0.41
1209.0,0.4179
1210.0,0.4335
1211.0,0.4159
1212.0,0.4143
1213.0,0.4533
1214.0,0.4226
1215.0,0.4154
1216.0,0.4517
1217.0,0.4413
1218.0,0.4482
1219.0,0.4434
1220.0,0.4484
1221.0,0.452
1222.0,0.4412
1223.0,0.4377
1224.0,0.4362
1225.0,0.4492
1226.0,0.4513
1227.0,0.4203
1228.0,0.4527
1229.0,0.4513
1230.0,0.4444
1231.0,0.4545
1232.0,0.4519
1233.0,0.4396
1234.0,0.4535
1235.0,0.4511
1236.0,0.454
1237.0,0.4489
1238.0,0.4525
1239.0,0.4467
1240.0,0.4482
1241.0,0.4469
1242.0,0.4452
1243.0,0.4416
1244.0,0.445
1245.0,0.4467
1246.0,0.4441
1247.0,0.4426
1248.0,0.4427
1249.0,0.4437
1250.0,0.4413
1251.0,0.4361
1252.0,0.4356
1253.0,0.4332
1254.0,0.4297
1255.0,0.4354
1256.0,0.4253
1257.0,0.4233
1258.0,0.4296
1259.0,0.4172
1260.0,0.419
1261.0,0.3995
1262.0,0.3897
1263.0,0.3905
1264.0,0.3654
1265.0,0.3879
1266.0,0.3762
1267.0,0.3808
1268.0,0.3644
1269.0,0.2482
1270.0,0.3802
1271.0,0.3977
1272.0,0.3986
1273.0,0.3948
1274.0,0.3955
1275.0,0.4005
1276.0,0.4035
1277.0,0.4053
1278.0,0.4115
1279.0,0.4079
1280.0,0.4027
1281.0,0.3835
1282.0,0.3683
1283.0,0.3969
1284.0,0.4066
1285.0,0.4091
1286.0,0.414
1287.0,0.4089
1288.0,0.4084
1289.0,0.398
1290.0,0.4047
1291.0,0.4099
1292.0,0.3897
1293.0,0.4031
1294.0,0.4005
1295.0,0.3997
1296.0,0.3846
1297.0,0.3663
1298.0,0.3894
1299.0,0.4031
1300.0,0.3496
1301.0,0.3586
1302.0,0.388
1303.0,0.3441
1304.0,0.3013
1305.0,0.3807
1306.0,0.3812
1307.0,0.305
1308.0,0.3434
1309.0,0.3789
1310.0,0.2996
1311.0,0.331
1312.0,0.3233
1313.0,0.3183
1314.0,0.2877
1315.0,0.2857
1316.0,0.327
1317.0,0.3107
1318.0,0.3345
1319.0,0.2707
1320.0,0.2603
1321.0,0.3
1322.0,0.3043
1323.0,0.2367
1324.0,0.2655
1325.0,0.3228
1326.0,0.2819
1327.0,0.2701
1328.0,0.2354
1329.0,0.1832
1330.0,0.2352
1331.0,0.1499
1332.0,0.152
1333.0,0.2096
1334.0,0.1742
1335.0,0.2357
1336.0,0.1904
1337.0,0.1707
1338.0,0.1844
1339.0,0.1826
1340.0,0.1756
1341.0,0.176
1342.0,0.1845
1343.0,0.1347
1344.0,0.08036
1345.0,0.1149
1346.0,0.0637
1347.0,0.06589
1348.0,0.005661
1349.0,0.0187
1350.0,0.01831
1351.0,0.005713
1352.0,0.001994
1353.0,0.0001382
1354.0,0.0003943
1355.0,5.833e-06
1356.0,6.926e-05
1357.0,0.0001044
1358.0,6.742e-06
1359.0,1.324e-06
1360.0,3.615e-06
1361.0,1.057e-08
1362.0,4.476e-11
1363.0,5.457e-06
1364.0,2.372e-06
1365.0,2.602e-11
1366.0,2.114e-05
1367.0,8.198e-06
1368.0,5.534e-13
1369.0,9.157e-07
1370.0,5.438e-07
1371.0,3.951e-08
1372.0,4.529e-06
1373.0,6.68e-05
1374.0,0.0002518
1375.0,0.0004553
1376.0,0.0003513
1377.0,0.0001693
1378.0,0.001484
1379.0,7.209e-05
1380.0,0.000117
1381.0,3.538e-06
1382.0,4.302e-06
1383.0,7.848e-08
1384.0,1.112e-06
1385.0,3.323e-06
1386.0,4.346e-06
1387.0,0.0002916
1388.0,6.032e-06
1389.0,0.0007945
1390.0,0.000682
1391.0,0.0004799
1392.0,3.415e-05
1393.0,0.0001607
1394.0,0.0001146
1395.0,1.105e-06
1396.0,1.344e-08
1397.0,6.982e-05
1398.0,0.001696
1399.0,0.001076
1400.0,7.414e-09
1401.0,2.206e-08
1402.0,0.002286
1403.0,0.003015
1404.0,0.0009401
1405.0,6.322e-07
1406.0,0.002648
1407.0,0.0002258
1408.0,0.00214
1409.0,0.0008378
1410.0,0.0006171
1411.0,0.002629
1412.0,0.003298
1413.0,0.02704
1414.0,0.0004789
1415.0,0.0002481
1416.0,0.03954
1417.0,0.01367
1418.0,0.01568
1419.0,0.002522
1420.0,0.009667
1421.0,0.01056
1422.0,0.0511
1423.0,0.01038
1424.0,0.01904
1425.0,0.02857
1426.0,0.03092
1427.0,0.05335
1428.0,0.005428
1429.0,0.04143
1430.0,0.06684
1431.0,0.07248
1432.0,0.004322
1433.0,0.04743
1434.0,0.0248
1435.0,0.02707
1436.0,0.04861
1437.0,0.03727
1438.0,0.01676
1439.0,0.0645
1440.0,0.04851
1441.0,0.03868
1442.0,0.04253
1443.0,0.05083
1444.0,0.0693
1445.0,0.05629
1446.0,0.02596
1447.0,0.04083
1448.0,0.1234
1449.0,0.1091
1450.0,0.03021
1451.0,0.01265
1452.0,0.06763
1453.0,0.08762
1454.0,0.1434
1455.0,0.07024
1456.0,0.09546
1457.0,0.1239
1458.0,0.1422
1459.0,0.1687
1460.0,0.08999
1461.0,0.09569
1462.0,0.137
1463.0,0.04654
1464.0,0.1591
1465.0,0.0965
1466.0,0.07086
