interpolation:linear
wavelength,value
280.0,6.157e-29
280.5,4.24e-27
281.0,3.035e-26
281.5,1.98e-24
282.0,2.468e-23
282.5,1.281e-22
283.0,7.872999999999999e-22
283.5,1.751e-21
284.0,9.571e-20
284.5,4.649e-19
285.0,1.577e-18
285.5,1.873e-17
286.0,1.047e-16
286.5,8.623e-16
287.0,3.786e-15
287.5,2.458e-14
288.0,1.717e-13
288.5,8.604e-13
289.0,3.66e-12
289.5,1.77e-11
290.0,7.111e-11
290.5,1.966e-10
291.0,5.984e-10
291.5,2.62e-09
292.0,8.379e-09
292.5,1.437e-08
293.0,3.94e-08
293.5,1.32e-07
294.0,2.585e-07
294.5,5.12e-07
295.0,1.045e-06
295.5,3.035e-06
296.0,6.185e-06
296.5,9.067e-06
297.0,1.271e-05
297.5,3.542e-05
298.0,5.73e-05
298.5,5.864e-05
299.0,0.0001309
299.5,0.0002178
300.0,0.0002396
300.5,0.0003454
301.0,0.0006105
301.5,0.0009448
302.0,0.0007975
302.5,0.001588
303.0,0.002905
303.5,0.003684
304.0,0.003444
304.5,0.004991
305.0,0.007209
305.5,0.008017
306.0,0.00771
306.5,0.009438
307.0,0.01333
307.5,0.01686
308.0,0.01779
308.5,0.02058
309.0,0.01856
309.5,0.02136
310.0,0.02155
310.5,0.0351
311.0,0.04418
311.5,0.04288
312.0,0.04252
312.5,0.05147
313.0,0.05584
313.5,0.05503
314.0,0.06808
314.5,0.05916
315.0,0.0779
315.5,0.0666
316.0,0.05717
316.5,0.08079
317.0,0.1011
317.5,0.1066
318.0,0.08238
318.5,0.09954
319.0,0.1168
319.5,0.09864
320.0,0.1205
320.5,0.1464
321.0,0.1266
321.5,0.1218
322.0,0.1357
322.5,0.1186
323.0,0.116
323.5,0.1372
324.0,0.1605
324.5,0.1657
325.0,0.1489
325.5,0.1887
326.0,0.2262
326.5,0.2246
327.0,0.2265
327.5,0.2216
328.0,0.2021
328.5,0.209
329.0,0.2468
329.5,0.28
330.0,0.2855
330.5,0.2334
331.0,0.2404
331.5,0.243
332.0,0.2595
332.5,0.256
333.0,0.2579
333.5,0.2378
334.0,0.2454
334.5,0.2806
335.0,0.2628
335.5,0.2997
336.0,0.2084
336.5,0.2538
337.0,0.2106
337.5,0.2639
338.0,0.2558
338.5,0.29
339.0,0.2902
339.5,0.2794
340.0,0.3369
340.5,0.3048
341.0,0.2937
341.5,0.2735
342.0,0.3291
342.5,0.3099
343.0,0.3408
343.5,0.3212
344.0,0.2413
344.5,0.2399
345.0,0.3227
345.5,0.3322
346.0,0.2842
346.5,0.3237
347.0,0.3478
347.5,0.282
348.0,0.3243
348.5,0.3262
349.0,0.3041
349.5,0.3023
350.0,0.3755
350.5,0.3978
351.0,0.3562
351.5,0.3458
352.0,0.3742
352.5,0.2939
353.0,0.3721
353.5,0.3997
354.0,0.4168
354.5,0.4243
355.0,0.4244
355.5,0.385
356.0,0.4044
356.5,0.3467
357.0,0.2875
357.5,0.3533
358.0,0.2811
358.5,0.2411
359.0,0.3385
359.5,0.4326
360.0,0.4603
360.5,0.3694
361.0,0.338
361.5,0.3905
362.0,0.3389
362.5,0.4706
363.0,0.4241
363.5,0.392
364.0,0.481
364.5,0.4125
365.0,0.4215
365.5,0.5308
366.0,0.5642
366.5,0.5318
367.0,0.5196
367.5,0.541
368.0,0.4749
368.5,0.4807
369.0,0.5207
369.5,0.5568
370.0,0.5954
370.5,0.4635
371.0,0.4968
371.5,0.6234
372.0,0.415
372.5,0.4991
373.0,0.5092
373.5,0.3323
374.0,0.4842
374.5,0.4022
375.0,0.3921
375.5,0.5871
376.0,0.4881
376.5,0.5072
377.0,0.5385
377.5,0.6318
378.0,0.6868
378.5,0.651
379.0,0.5388
379.5,0.4937
380.0,0.5147
380.5,0.6252
381.0,0.6283
381.5,0.4994
382.0,0.4447
382.5,0.3801
383.0,0.3529
383.5,0.3408
384.0,0.3769
384.5,0.5557
385.0,0.5525
385.5,0.5158
386.0,0.4429
386.5,0.5833
387.0,0.4859
387.5,0.5472
388.0,0.5065
388.5,0.5019
389.0,0.5431
389.5,0.6594
390.0,0.6634
390.5,0.612
391.0,0.7221
391.5,0.7383
392.0,0.6233
392.5,0.5593
393.0,0.3119
393.5,0.2273
394.0,0.4635
394.5,0.5906
395.0,0.7222
395.5,0.7353
396.0,0.6389
396.5,0.3743
397.0,0.2815
397.5,0.5738
398.0,0.8053
398.5,0.8342
399.0,0.9051
399.5,0.904
400.0,0.9406
401.0,0.9699
402.0,1.027
403.0,0.9797
404.0,0.9682
405.0,0.9717
406.0,0.9595
407.0,0.9475
408.0,0.9882
409.0,1.061
410.0,0.9303
411.0,1.011
412.0,1.09
413.0,1.066
414.0,1.083
415.0,1.089
416.0,1.112
417.0,1.088
418.0,1.071
419.0,1.089
420.0,1.087
421.0,1.141
422.0,1.088
423.0,1.066
424.0,1.131
425.0,1.132
426.0,1.106
427.0,1.088
428.0,1.063
429.0,1.009
430.0,0.8855
431.0,0.8802
432.0,1.14
433.0,1.149
434.0,1.07
435.0,1.12
436.0,1.265
437.0,1.25
438.0,1.141
439.0,1.183
440.0,1.224
441.0,1.271
442.0,1.367
443.0,1.334
444.0,1.366
445.0,1.34
446.0,1.281
447.0,1.388
448.0,1.413
449.0,1.421
450.0,1.464
451.0,1.522
452.0,1.469
453.0,1.384
454.0,1.448
455.0,1.46
456.0,1.497
457.0,1.525
458.0,1.477
459.0,1.472
460.0,1.479
461.0,1.516
462.0,1.53
463.0,1.522
464.0,1.499
465.0,1.482
466.0,1.499
467.0,1.474
468.0,1.494
469.0,1.505
470.0,1.459
471.0,1.46
472.0,1.541
473.0,1.523
474.0,1.528
475.0,1.544
476.0,1.501
477.0,1.508
478.0,1.552
479.0,1.545
480.0,1.55
481.0,1.582
482.0,1.592
483.0,1.575
484.0,1.544
485.0,1.473
486.0,1.289
487.0,1.353
488.0,1.486
489.0,1.493
490.0,1.573
491.0,1.548
492.0,1.463
493.0,1.513
494.0,1.53
495.0,1.545
496.0,1.557
497.0,1.583
498.0,1.511
499.0,1.533
500.0,1.49
501.0,1.465
502.0,1.447
503.0,1.508
504.0,1.473
505.0,1.527
506.0,1.578
507.0,1.503
508.0,1.457
509.0,1.499
510.0,1.493
511.0,1.534
512.0,1.552
513.0,1.471
514.0,1.462
515.0,1.449
516.0,1.447
517.0,1.287
518.0,1.354
519.0,1.422
520.0,1.475
521.0,1.491
522.0,1.494
523.0,1.468
524.0,1.523
525.0,1.542
526.0,1.475
527.0,1.391
528.0,1.473
529.0,1.555
530.0,1.534
531.0,1.558
532.0,1.506
533.0,1.463
534.0,1.507
535.0,1.541
536.0,1.557
537.0,1.496
538.0,1.524
539.0,1.512
540.0,1.451
541.0,1.462
542.0,1.51
543.0,1.495
544.0,1.522
545.0,1.518
546.0,1.526
547.0,1.526
548.0,1.509
549.0,1.515
550.0,1.534
551.0,1.516
552.0,1.528
553.0,1.502
554.0,1.539
555.0,1.543
556.0,1.524
557.0,1.478
558.0,1.468
559.0,1.442
560.0,1.461
561.0,1.482
562.0,1.472
563.0,1.514
564.0,1.474
565.0,1.462
566.0,1.442
567.0,1.47
568.0,1.459
569.0,1.426
570.0,1.427
571.0,1.419
572.0,1.455
573.0,1.471
574.0,1.467
575.0,1.441
576.0,1.429
577.0,1.445
578.0,1.424
579.0,1.429
580.0,1.456
581.0,1.464
582.0,1.492
583.0,1.495
584.0,1.509
585.0,1.472
586.0,1.443
587.0,1.476
588.0,1.442
589.0,1.282
590.0,1.341
591.0,1.418
592.0,1.402
593.0,1.422
594.0,1.413
595.0,1.38
596.0,1.432
597.0,1.418
598.0,1.415
599.0,1.416
600.0,1.418
601.0,1.407
602.0,1.398
603.0,1.421
604.0,1.445
605.0,1.438
606.0,1.433
607.0,1.447
608.0,1.431
609.0,1.434
610.0,1.424
611.0,1.432
612.0,1.428
613.0,1.411
614.0,1.392
615.0,1.422
616.0,1.376
617.0,1.373
618.0,1.427
619.0,1.412
620.0,1.422
621.0,1.424
622.0,1.408
623.0,1.387
624.0,1.364
625.0,1.361
626.0,1.382
627.0,1.399
628.0,1.314
629.0,1.369
630.0,1.338
631.0,1.366
632.0,1.35
633.0,1.39
634.0,1.377
635.0,1.398
636.0,1.38
637.0,1.402
638.0,1.416
639.0,1.4
640.0,1.387
641.0,1.386
642.0,1.38
643.0,1.399
644.0,1.394
645.0,1.397
646.0,1.366
647.0,1.352
648.0,1.354
649.0,1.328
650.0,1.332
651.0,1.39
652.0,1.335
653.0,1.372
654.0,1.357
655.0,1.309
656.0,1.159
657.0,1.19
658.0,1.334
659.0,1.343
660.0,1.349
661.0,1.359
662.0,1.363
663.0,1.336
664.0,1.351
665.0,1.352
666.0,1.353
667.0,1.352
668.0,1.353
669.0,1.374
670.0,1.368
671.0,1.368
672.0,1.357
673.0,1.377
674.0,1.372
675.0,1.36
676.0,1.37
677.0,1.356
678.0,1.36
679.0,1.339
680.0,1.35
681.0,1.341
682.0,1.34
683.0,1.337
684.0,1.331
685.0,1.343
686.0,1.335
687.0,0.9171
688.0,1.06
689.0,1.064
690.0,1.111
691.0,1.165
692.0,1.203
693.0,1.194
694.0,1.184
695.0,1.23
696.0,1.232
697.0,1.302
698.0,1.283
699.0,1.255
700.0,1.24
701.0,1.229
702.0,1.237
703.0,1.239
704.0,1.277
705.0,1.28
706.0,1.278
707.0,1.279
708.0,1.282
709.0,1.283
710.0,1.284
711.0,1.282
712.0,1.278
713.0,1.265
714.0,1.27
715.0,1.232
716.0,1.233
717.0,1.081
718.0,0.995
719.0,0.913
720.0,0.9572
721.0,1.05
722.0,1.194
723.0,1.115
724.0,1.01
725.0,0.9952
726.0,1.041
727.0,1.054
728.0,0.9937
729.0,1.027
730.0,1.087
731.0,1.041
732.0,1.11
733.0,1.171
734.0,1.198
735.0,1.174
736.0,1.172
737.0,1.177
738.0,1.193
739.0,1.17
740.0,1.2
741.0,1.187
742.0,1.188
743.0,1.219
744.0,1.215
745.0,1.215
746.0,1.221
747.0,1.224
748.0,1.221
749.0,1.208
750.0,1.207
751.0,1.195
752.0,1.2
753.0,1.207
754.0,1.21
755.0,1.203
756.0,1.203
757.0,1.205
758.0,1.19
759.0,1.167
760.0,0.2214
761.0,0.1214
762.0,0.6264
763.0,0.3288
764.0,0.4806
765.0,0.6269
766.0,0.7564
767.0,0.9413
768.0,1.076
769.0,1.096
770.0,1.131
771.0,1.139
772.0,1.141
773.0,1.149
774.0,1.144
775.0,1.135
776.0,1.149
777.0,1.134
778.0,1.128
779.0,1.129
780.0,1.122
781.0,1.124
782.0,1.131
783.0,1.111
784.0,1.117
785.0,1.109
786.0,1.121
787.0,1.103
788.0,1.09
789.0,1.09
790.0,1.063
791.0,1.07
792.0,1.062
793.0,1.045
794.0,1.062
795.0,1.08
796.0,1.049
797.0,1.051
798.0,1.08
799.0,1.073
800.0,1.055
801.0,1.053
802.0,1.05
803.0,1.042
804.0,1.043
805.0,1.04
806.0,1.068
807.0,1.055
808.0,1.056
809.0,1.037
810.0,1.03
811.0,1.032
812.0,1.004
813.0,0.9845
814.0,0.8714
815.0,0.866
816.0,0.807
817.0,0.8212
818.0,0.7917
819.0,0.8807
820.0,0.8313
821.0,0.9655
822.0,0.939
823.0,0.6485
824.0,0.914
825.0,0.9495
826.0,0.9154
827.0,0.9641
828.0,0.823
829.0,0.9098
830.0,0.8985
831.0,0.9016
832.0,0.875
833.0,0.9282
834.0,0.8972
835.0,0.9819
836.0,0.9423
837.0,0.9847
838.0,0.9552
839.0,0.9698
840.0,0.9908
841.0,0.9773
842.0,0.9789
843.0,0.9777
844.0,0.9646
845.0,0.9967
846.0,0.9924
847.0,0.9738
848.0,0.9681
849.0,0.9407
850.0,0.9013
851.0,0.9547
852.0,0.948
853.0,0.9123
854.0,0.788
855.0,0.8655
856.0,0.9461
857.0,0.9671
858.0,0.9601
859.0,0.9609
860.0,0.9626
861.0,0.9575
862.0,0.9725
863.0,0.9956
864.0,0.9459
865.0,0.9377
866.0,0.8432
867.0,0.88
868.0,0.9577
869.0,0.9379
870.0,0.9647
871.0,0.9516
872.0,0.9483
873.0,0.9465
874.0,0.9353
875.0,0.9165
876.0,0.9261
877.0,0.9355
878.0,0.9458
879.0,0.9313
880.0,0.9114
881.0,0.8979
882.0,0.9174
883.0,0.9203
884.0,0.9162
885.0,0.9232
886.0,0.8804
887.0,0.8894
888.0,0.9028
889.0,0.9128
890.0,0.9056
891.0,0.904
892.0,0.8784
893.0,0.8516
894.0,0.823
895.0,0.7793
896.0,0.7349
897.0,0.6334
898.0,0.69
899.0,0.5275
900.0,0.7054
901.0,0.5528
902.0,0.6455
903.0,0.653
904.0,0.8174
905.0,0.79
906.0,0.7399
907.0,0.6043
908.0,0.6158
909.0,0.6657
910.0,0.5913
911.0,0.6287
912.0,0.6568
913.0,0.6003
914.0,0.5948
915.0,0.6446
916.0,0.5464
917.0,0.6907
918.0,0.5603
919.0,0.7027
920.0,0.7087
921.0,0.7369
922.0,0.6605
923.0,0.7118
924.0,0.6771
925.0,0.6625
926.0,0.6698
927.0,0.7483
928.0,0.5533
929.0,0.5062
930.0,0.3993
931.0,0.3782
932.0,0.2738
933.0,0.2233
934.0,0.1238
935.0,0.228
936.0,0.1432
937.0,0.1453
938.0,0.1783
939.0,0.3666
940.0,0.44
941.0,0.3334
942.0,0.3853
943.0,0.2544
944.0,0.2672
945.0,0.3436
946.0,0.1761
947.0,0.3455
948.0,0.2541
949.0,0.4613
950.0,0.1299
951.0,0.4541
952.0,0.2455
953.0,0.3161
954.0,0.3866
955.0,0.3197
956.0,0.3098
957.0,0.246
958.0,0.4376
959.0,0.3488
960.0,0.3909
961.0,0.4379
962.0,0.4144
963.0,0.4771
964.0,0.4373
965.0,0.4753
966.0,0.4755
967.0,0.4736
968.0,0.6324
969.0,0.6608
970.0,0.6072
971.0,0.694
972.0,0.6641
973.0,0.5794
974.0,0.5501
975.0,0.5706
976.0,0.5424
977.0,0.6161
978.0,0.5858
979.0,0.6133
980.0,0.5768
981.0,0.6902
982.0,0.6604
983.0,0.6343
984.0,0.7108
985.0,0.658
986.0,0.7231
987.0,0.7093
988.0,0.708
989.0,0.7209
990.0,0.7038
991.0,0.7231
992.0,0.7273
993.0,0.7114
994.0,0.7271
995.0,0.7262
996.0,0.7231
997.0,0.7241
998.0,0.7208
999.0,0.7182
1000.0,0.7132
1001.0,0.7221
1002.0,0.7024
1003.0,0.7094
1004.0,0.6921
1005.0,0.6667
1006.0,0.6928
1007.0,0.7075
1008.0,0.7038
1009.0,0.7001
1010.0,0.6971
1011.0,0.704
1012.0,0.698
1013.0,0.7024
1014.0,0.6975
1015.0,0.6929
1016.0,0.6898
1017.0,0.6916
1018.0,0.689
1019.0,0.6744
1020.0,0.6855
1021.0,0.6845
1022.0,0.6793
1023.0,0.6865
1024.0,0.6777
1025.0,0.6861
1026.0,0.6832
1027.0,0.6816
1028.0,0.6802
1029.0,0.6722
1030.0,0.6768
1031.0,0.6741
1032.0,0.6722
1033.0,0.6621
1034.0,0.6622
1035.0,0.6643
1036.0,0.6677
1037.0,0.6569
1038.0,0.6598
1039.0,0.6595
1040.0,0.6568
1041.0,0.6595
1042.0,0.6549
1043.0,0.6529
1044.0,0.6552
1045.0,0.6463
1046.0,0.6392
1047.0,0.645
1048.0,0.6486
1049.0,0.6462
1050.0,0.6433
1051.0,0.6424
1052.0,0.6398
1053.0,0.6348
1054.0,0.6362
1055.0,0.6366
1056.0,0.6344
1057.0,0.6324
1058.0,0.6169
1059.0,0.6176
1060.0,0.6167
1061.0,0.616
1062.0,0.6193
1063.0,0.6132
1064.0,0.6205
1065.0,0.616
1066.0,0.6039
1067.0,0.6117
1068.0,0.5984
1069.0,0.5799
1070.0,0.5996
1071.0,0.6089
1072.0,0.6019
1073.0,0.5933
1074.0,0.6085
1075.0,0.5783
1076.0,0.6081
1077.0,0.5974
1078.0,0.5861
1079.0,0.5984
1080.0,0.5882
1081.0,0.5695
1082.0,0.5785
1083.0,0.5802
1084.0,0.5682
1085.0,0.5896
1086.0,0.5384
1087.0,0.5555
1088.0,0.5797
1089.0,0.5622
1090.0,0.55
1091.0,0.5779
1092.0,0.5765
1093.0,0.4894
1094.0,0.5275
1095.0,0.5098
1096.0,0.4884
1097.0,0.5632
1098.0,0.4808
1099.0,0.5015
1100.0,0.4665
1101.0,0.4723
1102.0,0.4512
1103.0,0.447
1104.0,0.4476
1105.0,0.4902
1106.0,0.376
1107.0,0.4658
1108.0,0.3955
1109.0,0.3961
1110.0,0.4618
1111.0,0.3141
1112.0,0.393
1113.0,0.251
1114.0,0.2805
1115.0,0.2326
1116.0,0.1861
1117.0,0.06874
1118.0,0.2024
1119.0,0.1007
1120.0,0.1268
1121.0,0.1681
1122.0,0.07098
1123.0,0.1146
1124.0,0.09673
1125.0,0.1261
1126.0,0.0441
1127.0,0.1422
1128.0,0.08531
1129.0,0.0905
1130.0,0.05962
1131.0,0.2692
1132.0,0.2113
1133.0,0.1342
1134.0,0.03443
1135.0,0.0129
1136.0,0.112
1137.0,0.2645
1138.0,0.1864
1139.0,0.2775
1140.0,0.2321
1141.0,0.1772
1142.0,0.2037
1143.0,0.289
1144.0,0.1013
1145.0,0.1295
1146.0,0.1396
1147.0,0.0493
1148.0,0.2502
1149.0,0.2
1150.0,0.1089
1151.0,0.185
1152.0,0.2276
1153.0,0.2216
1154.0,0.1255
1155.0,0.2895
1156.0,0.2609
1157.0,0.2924
1158.0,0.2893
1159.0,0.3118
1160.0,0.2668
1161.0,0.3279
1162.0,0.3297
1163.0,0.4435
1164.0,0.3811
1165.0,0.3602
1166.0,0.3572
1167.0,0.3887
1168.0,0.3931
1169.0,0.4022
1170.0,0.4365
1171.0,0.4257
1172.0,0.433
1173.0,0.4356
1174.0,0.3131
1175.0,0.4252
1176.0,0.4664
1177.0,0.4484
1178.0,0.3385
1179.0,0.4701
1180.0,0.4209
1181.0,0.4342
1182.0,0.3015
1183.0,0.4273
1184.0,0.4011
1185.0,0.3876
1186.0,0.4576
1187.0,0.4365
1188.0,0.3069
1189.0,0.4068
1190.0,0.4472
1191.0,0.4258
1192.0,0.4534
1193.0,0.4349
1194.0,0.4479
1195.0,0.4245
1196.0,0.4093
1197.0,0.4477
1198.0,0.4103
1199.0,0.3509
1200.0,0.4295
1201.0,0.4149
1202.0,0.4121
1203.0,0.4087
1204.0,0.3585
1205.0,0.4211
1206.0,0.4641
1207.0,0.4113
1208.0,0.4042
1209.0,0.4124
1210.0,0.4292
1211.0,0.4095
1212.0,0.4055
1213.0,0.4493
1214.0,0.4148
1215.0,0.4071
1216.0,0.4479
1217.0,0.4365
1218.0,0.4443
1219.0,0.439
1220.0,0.4447
1221.0,0.4489
1222.0,0.4375
1223.0,0.4336
1224.0,0.4312
1225.0,0.4461
1226.0,0.4488
1227.0,0.4151
1228.0,0.4508
1229.0,0.4489
1230.0,0.4415
1231.0,0.4533
1232.0,0.4506
1233.0,0.4361
1234.0,0.4527
1235.0,0.45
1236.0,0.4532
1237.0,0.4472
1238.0,0.4517
1239.0,0.4459
1240.0,0.4476
1241.0,0.4457
1242.0,0.4445
1243.0,0.4409
1244.0,0.4441
1245.0,0.446
1246.0,0.4434
1247.0,0.4417
1248.0,0.4415
1249.0,0.4428
1250.0,0.4402
1251.0,0.4347
1252.0,0.4346
1253.0,0.4314
1254.0,0.4274
1255.0,0.4343
1256.0,0.4227
1257.0,0.4205
1258.0,0.4279
1259.0,0.4133
1260.0,0.4153
1261.0,0.3931
1262.0,0.3819
1263.0,0.3827
1264.0,0.3546
1265.0,0.3802
1266.0,0.3666
1267.0,0.3725
1268.0,0.3542
1269.0,0.2254
1270.0,0.3714
1271.0,0.3917
1272.0,0.3929
1273.0,0.3888
1274.0,0.3899
1275.0,0.3954
1276.0,0.399
1277.0,0.4014
1278.0,0.4087
1279.0,0.405
1280.0,0.3999
1281.0,0.3814
1282.0,0.3671
1283.0,0.3955
1284.0,0.405
1285.0,0.4076
1286.0,0.4129
1287.0,0.4069
1288.0,0.4067
1289.0,0.3946
1290.0,0.4031
1291.0,0.4086
1292.0,0.3852
1293.0,0.401
1294.0,0.3982
1295.0,0.3966
1296.0,0.3795
1297.0,0.3596
1298.0,0.3858
1299.0,0.4014
1300.0,0.342
1301.0,0.352
1302.0,0.3846
1303.0,0.3373
1304.0,0.2896
1305.0,0.3768
1306.0,0.377
1307.0,0.2952
1308.0,0.3375
1309.0,0.3743
1310.0,0.2897
1311.0,0.324
1312.0,0.3155
1313.0,0.3098
1314.0,0.278
1315.0,0.2748
1316.0,0.3192
1317.0,0.3026
1318.0,0.3281
1319.0,0.2586
1320.0,0.2502
1321.0,0.2906
1322.0,0.2938
1323.0,0.2228
1324.0,0.2537
1325.0,0.3148
1326.0,0.2713
1327.0,0.259
1328.0,0.2239
1329.0,0.1694
1330.0,0.2199
1331.0,0.1341
1332.0,0.1381
1333.0,0.1918
1334.0,0.1618
1335.0,0.222
1336.0,0.1763
1337.0,0.1562
1338.0,0.1691
1339.0,0.1681
1340.0,0.1632
1341.0,0.1601
1342.0,0.1681
1343.0,0.1154
1344.0,0.06902
1345.0,0.09945
1346.0,0.05033
1347.0,0.05133
1348.0,0.003503
1349.0,0.01241
1350.0,0.01276
1351.0,0.003247
1352.0,0.0009231
1353.0,4.987e-05
1354.0,0.0001657
1355.0,1.504e-06
1356.0,2.447e-05
1357.0,3.723e-05
1358.0,1.773e-06
1359.0,2.445e-07
1360.0,8.376e-07
1361.0,1.132e-09
1362.0,3.365e-12
1363.0,1.166e-06
1364.0,4.853e-07
1365.0,1.311e-12
1366.0,4.979e-06
1367.0,2.008e-06
1368.0,1.247e-14
1369.0,1.824e-07
1370.0,9.345e-08
1371.0,5.562e-09
1372.0,1.105e-06
1373.0,2.103e-05
1374.0,9.391e-05
1375.0,0.0001711
1376.0,0.0001488
1377.0,6.879e-05
1378.0,0.0006621
1379.0,2.896e-05
1380.0,4.278e-05
1381.0,1.146e-06
1382.0,1.007e-06
1383.0,1.563e-08
1384.0,2.095e-07
1385.0,9.139e-07
1386.0,9.219e-07
1387.0,9.992e-05
1388.0,1.976e-06
1389.0,0.0003245
1390.0,0.0002794
1391.0,0.000188
1392.0,1.24e-05
1393.0,6.442e-05
1394.0,3.554e-05
1395.0,2.741e-07
1396.0,1.591e-09
1397.0,2.608e-05
1398.0,0.0007472
1399.0,0.0004736
1400.0,7.226e-10
1401.0,2.812e-09
1402.0,0.001251
1403.0,0.001588
1404.0,0.0004862
1405.0,1.378e-07
1406.0,0.001286
1407.0,0.0001123
1408.0,0.001049
1409.0,0.000362
1410.0,0.0002849
1411.0,0.001394
1412.0,0.001858
1413.0,0.01854
1414.0,0.0002241
1415.0,0.0001089
1416.0,0.03008
1417.0,0.009168
1418.0,0.01045
1419.0,0.001625
1420.0,0.006399
1421.0,0.00692
1422.0,0.03925
1423.0,0.007619
1424.0,0.01427
1425.0,0.02102
1426.0,0.02384
1427.0,0.04383
1428.0,0.003304
1429.0,0.03276
1430.0,0.0559
1431.0,0.06143
1432.0,0.002603
1433.0,0.03902
1434.0,0.01982
1435.0,0.01971
1436.0,0.03821
1437.0,0.02928
1438.0,0.01231
1439.0,0.05205
1440.0,0.03898
1441.0,0.02959
1442.0,0.03284
1443.0,0.04144
1444.0,0.05755
1445.0,0.04481
1446.0,0.02008
1447.0,0.03168
1448.0,0.1091
1449.0,0.09444
1450.0,0.02351
1451.0,0.009384
1452.0,0.05653
1453.0,0.07443
1454.0,0.1293
1455.0,0.06041
1456.0,0.08099
1457.0,0.1096
1458.0,0.1302
1459.0,0.1538
1460.0,0.07956
1461.0,0.08263
1462.0,0.1221
1463.0,0.0389
1464.0,0.1456
1465.0,0.08752
