interpolation:linear
wavelength,value
280.0,1.1190000000000001e-28
280.5,7.419e-27
281.0,5.237000000000001e-26
281.5,3.292e-24
282.0,4.014e-23
282.5,2.0519999999999999e-22
283.0,1.2410000000000001e-21
283.5,2.7370000000000002e-21
284.0,1.44e-19
284.5,6.872e-19
285.0,2.287e-18
285.5,2.657e-17
286.0,1.473e-16
286.5,1.19e-15
287.0,5.154e-15
287.5,3.288e-14
288.0,2.245e-13
288.5,1.112e-12
289.0,4.671e-12
289.5,2.228e-11
290.0,8.853e-11
290.5,2.425e-10
291.0,7.299e-10
291.5,3.15e-09
292.0,9.96e-09
292.5,1.697e-08
293.0,4.614e-08
293.5,1.528e-07
294.0,2.969e-07
294.5,5.848e-07
295.0,1.185e-06
295.5,3.41e-06
296.0,6.907e-06
296.5,1.007e-05
297.0,1.404e-05
297.5,3.889e-05
298.0,6.257e-05
298.5,6.378e-05
299.0,0.0001418
299.5,0.0002347
300.0,0.0002574
300.5,0.0003699
301.0,0.000651
301.5,0.001004
302.0,0.000846
302.5,0.00168
303.0,0.003061
303.5,0.003874
304.0,0.003618
304.5,0.00523
305.0,0.00753
305.5,0.008358
306.0,0.008031
306.5,0.00982
307.0,0.01383
307.5,0.01747
308.0,0.01842
308.5,0.02128
309.0,0.01918
309.5,0.02202
310.0,0.0222
310.5,0.03613
311.0,0.04544
311.5,0.04408
312.0,0.04365
312.5,0.05278
313.0,0.05722
313.5,0.05641
314.0,0.06971
314.5,0.06048
315.0,0.07962
315.5,0.0681
316.0,0.0584
316.5,0.08244
317.0,0.1031
317.5,0.1088
318.0,0.08402
318.5,0.1014
319.0,0.1189
319.5,0.1005
320.0,0.1228
320.5,0.149
321.0,0.1288
321.5,0.1238
322.0,0.1381
322.5,0.1206
323.0,0.1179
323.5,0.1393
324.0,0.163
324.5,0.1683
325.0,0.1513
325.5,0.1916
326.0,0.2296
326.5,0.2278
327.0,0.2297
327.5,0.2248
328.0,0.2052
328.5,0.212
329.0,0.2502
329.5,0.2838
330.0,0.2894
330.5,0.2367
331.0,0.2437
331.5,0.2463
332.0,0.2629
332.5,0.2593
333.0,0.2613
333.5,0.2409
334.0,0.2486
334.5,0.2842
335.0,0.2661
335.5,0.3034
336.0,0.2109
336.5,0.2569
337.0,0.2132
337.5,0.2671
338.0,0.2589
338.5,0.2935
339.0,0.2936
339.5,0.2827
340.0,0.3408
340.5,0.3083
341.0,0.2971
341.5,0.2766
342.0,0.3328
342.5,0.3134
343.0,0.3447
343.5,0.3248
344.0,0.244
344.5,0.2426
345.0,0.3263
345.5,0.3358
346.0,0.2873
346.5,0.3271
347.0,0.3515
347.5,0.285
348.0,0.3277
348.5,0.3296
349.0,0.3073
349.5,0.3054
350.0,0.3794
350.5,0.4018
351.0,0.3598
351.5,0.3493
352.0,0.378
352.5,0.2968
353.0,0.3758
353.5,0.4036
354.0,0.4209
354.5,0.4285
355.0,0.4285
355.5,0.3887
356.0,0.4083
356.5,0.35
357.0,0.2902
357.5,0.3567
358.0,0.2837
358.5,0.2434
359.0,0.3416
359.5,0.4366
360.0,0.4646
360.5,0.3728
361.0,0.3411
361.5,0.3941
362.0,0.3419
362.5,0.4748
363.0,0.4279
363.5,0.3954
364.0,0.4852
364.5,0.4161
365.0,0.4251
365.5,0.5353
366.0,0.569
366.5,0.5363
367.0,0.524
367.5,0.5455
368.0,0.4788
368.5,0.4847
369.0,0.525
369.5,0.5613
370.0,0.6002
370.5,0.4673
371.0,0.5008
371.5,0.6284
372.0,0.4183
372.5,0.5031
373.0,0.5132
373.5,0.3349
374.0,0.488
374.5,0.4053
375.0,0.3951
375.5,0.5916
376.0,0.4918
376.5,0.5111
377.0,0.5426
377.5,0.6365
378.0,0.6919
378.5,0.6559
379.0,0.5428
379.5,0.4973
380.0,0.5185
380.5,0.6297
381.0,0.6328
381.5,0.503
382.0,0.4479
382.5,0.3828
383.0,0.3554
383.5,0.3432
384.0,0.3795
384.5,0.5596
385.0,0.5563
385.5,0.5194
386.0,0.4459
386.5,0.5872
387.0,0.4892
387.5,0.5508
388.0,0.5098
388.5,0.5052
389.0,0.5467
389.5,0.6637
390.0,0.6677
390.5,0.6159
391.0,0.7267
391.5,0.743
392.0,0.6273
392.5,0.5629
393.0,0.3139
393.5,0.2287
394.0,0.4664
394.5,0.5942
395.0,0.7267
395.5,0.7398
396.0,0.6428
396.5,0.3766
397.0,0.2832
397.5,0.5773
398.0,0.8102
398.5,0.8391
399.0,0.9104
399.5,0.9093
400.0,0.9462
401.0,0.9755
402.0,1.033
403.0,0.9852
404.0,0.9737
405.0,0.9771
406.0,0.9648
407.0,0.9527
408.0,0.9935
409.0,1.067
410.0,0.9353
411.0,1.016
412.0,1.095
413.0,1.072
414.0,1.088
415.0,1.094
416.0,1.117
417.0,1.093
418.0,1.077
419.0,1.094
420.0,1.093
421.0,1.147
422.0,1.093
423.0,1.071
424.0,1.136
425.0,1.137
426.0,1.111
427.0,1.093
428.0,1.068
429.0,1.014
430.0,0.8894
431.0,0.884
432.0,1.144
433.0,1.154
434.0,1.074
435.0,1.125
436.0,1.27
437.0,1.255
438.0,1.146
439.0,1.188
440.0,1.229
441.0,1.276
442.0,1.372
443.0,1.34
444.0,1.371
445.0,1.345
446.0,1.286
447.0,1.393
448.0,1.418
449.0,1.426
450.0,1.469
451.0,1.527
452.0,1.474
453.0,1.389
454.0,1.453
455.0,1.465
456.0,1.503
457.0,1.531
458.0,1.482
459.0,1.477
460.0,1.484
461.0,1.521
462.0,1.535
463.0,1.527
464.0,1.503
465.0,1.487
466.0,1.503
467.0,1.479
468.0,1.499
469.0,1.51
470.0,1.464
471.0,1.464
472.0,1.545
473.0,1.528
474.0,1.533
475.0,1.549
476.0,1.505
477.0,1.512
478.0,1.557
479.0,1.55
480.0,1.555
481.0,1.586
482.0,1.596
483.0,1.579
484.0,1.549
485.0,1.477
486.0,1.293
487.0,1.357
488.0,1.49
489.0,1.497
490.0,1.577
491.0,1.552
492.0,1.467
493.0,1.517
494.0,1.534
495.0,1.549
496.0,1.561
497.0,1.587
498.0,1.515
499.0,1.536
500.0,1.494
501.0,1.469
502.0,1.451
503.0,1.512
504.0,1.477
505.0,1.531
506.0,1.582
507.0,1.507
508.0,1.461
509.0,1.503
510.0,1.496
511.0,1.537
512.0,1.556
513.0,1.474
514.0,1.465
515.0,1.452
516.0,1.45
517.0,1.29
518.0,1.357
519.0,1.425
520.0,1.479
521.0,1.494
522.0,1.497
523.0,1.472
524.0,1.526
525.0,1.546
526.0,1.478
527.0,1.395
528.0,1.477
529.0,1.558
530.0,1.537
531.0,1.562
532.0,1.509
533.0,1.466
534.0,1.511
535.0,1.545
536.0,1.56
537.0,1.5
538.0,1.527
539.0,1.515
540.0,1.454
541.0,1.465
542.0,1.513
543.0,1.498
544.0,1.525
545.0,1.521
546.0,1.53
547.0,1.53
548.0,1.512
549.0,1.518
550.0,1.537
551.0,1.519
552.0,1.531
553.0,1.505
554.0,1.542
555.0,1.546
556.0,1.527
557.0,1.481
558.0,1.471
559.0,1.445
560.0,1.464
561.0,1.485
562.0,1.475
563.0,1.517
564.0,1.477
565.0,1.465
566.0,1.445
567.0,1.473
568.0,1.462
569.0,1.43
570.0,1.43
571.0,1.422
572.0,1.458
573.0,1.474
574.0,1.471
575.0,1.444
576.0,1.432
577.0,1.448
578.0,1.427
579.0,1.432
580.0,1.459
581.0,1.467
582.0,1.495
583.0,1.498
584.0,1.512
585.0,1.475
586.0,1.446
587.0,1.479
588.0,1.445
589.0,1.285
590.0,1.344
591.0,1.421
592.0,1.405
593.0,1.425
594.0,1.416
595.0,1.383
596.0,1.435
597.0,1.421
598.0,1.417
599.0,1.419
600.0,1.421
601.0,1.409
602.0,1.4
603.0,1.424
604.0,1.448
605.0,1.441
606.0,1.435
607.0,1.45
608.0,1.434
609.0,1.437
610.0,1.427
611.0,1.434
612.0,1.431
613.0,1.413
614.0,1.394
615.0,1.425
616.0,1.378
617.0,1.376
618.0,1.429
619.0,1.415
620.0,1.424
621.0,1.426
622.0,1.41
623.0,1.39
624.0,1.366
625.0,1.364
626.0,1.384
627.0,1.401
628.0,1.317
629.0,1.371
630.0,1.341
631.0,1.369
632.0,1.352
633.0,1.393
634.0,1.379
635.0,1.4
636.0,1.382
637.0,1.404
638.0,1.418
639.0,1.402
640.0,1.388
641.0,1.388
642.0,1.381
643.0,1.4
644.0,1.396
645.0,1.399
646.0,1.368
647.0,1.354
648.0,1.356
649.0,1.33
650.0,1.334
651.0,1.392
652.0,1.337
653.0,1.374
654.0,1.359
655.0,1.31
656.0,1.161
657.0,1.192
658.0,1.335
659.0,1.345
660.0,1.351
661.0,1.36
662.0,1.364
663.0,1.337
664.0,1.353
665.0,1.354
666.0,1.355
667.0,1.353
668.0,1.354
669.0,1.375
670.0,1.37
671.0,1.369
672.0,1.358
673.0,1.378
674.0,1.374
675.0,1.361
676.0,1.371
677.0,1.357
678.0,1.362
679.0,1.34
680.0,1.351
681.0,1.342
682.0,1.341
683.0,1.338
684.0,1.332
685.0,1.344
686.0,1.336
687.0,0.9213
688.0,1.064
689.0,1.067
690.0,1.114
691.0,1.167
692.0,1.205
693.0,1.196
694.0,1.186
695.0,1.231
696.0,1.233
697.0,1.304
698.0,1.284
699.0,1.257
700.0,1.242
701.0,1.231
702.0,1.238
703.0,1.241
704.0,1.279
705.0,1.281
706.0,1.279
707.0,1.28
708.0,1.283
709.0,1.284
710.0,1.285
711.0,1.283
712.0,1.279
713.0,1.266
714.0,1.271
715.0,1.233
716.0,1.234
717.0,1.083
718.0,0.9973
719.0,0.9152
720.0,0.9596
721.0,1.052
722.0,1.195
723.0,1.117
724.0,1.012
725.0,0.9974
726.0,1.043
727.0,1.056
728.0,0.9959
729.0,1.029
730.0,1.089
731.0,1.043
732.0,1.111
733.0,1.172
734.0,1.199
735.0,1.175
736.0,1.174
737.0,1.179
738.0,1.194
739.0,1.171
740.0,1.2
741.0,1.188
742.0,1.189
743.0,1.219
744.0,1.216
745.0,1.216
746.0,1.222
747.0,1.224
748.0,1.222
749.0,1.208
750.0,1.208
751.0,1.196
752.0,1.201
753.0,1.207
754.0,1.21
755.0,1.204
756.0,1.203
757.0,1.205
758.0,1.19
759.0,1.168
760.0,0.2252
761.0,0.1242
762.0,0.6305
763.0,0.333
764.0,0.485
765.0,0.6309
766.0,0.7597
767.0,0.9436
768.0,1.077
769.0,1.097
770.0,1.132
771.0,1.14
772.0,1.142
773.0,1.15
774.0,1.144
775.0,1.136
776.0,1.15
777.0,1.135
778.0,1.128
779.0,1.129
780.0,1.123
781.0,1.124
782.0,1.131
783.0,1.112
784.0,1.117
785.0,1.109
786.0,1.122
787.0,1.104
788.0,1.091
789.0,1.09
790.0,1.063
791.0,1.071
792.0,1.063
793.0,1.046
794.0,1.062
795.0,1.081
796.0,1.05
797.0,1.052
798.0,1.08
799.0,1.074
800.0,1.056
801.0,1.053
802.0,1.05
803.0,1.043
804.0,1.044
805.0,1.04
806.0,1.068
807.0,1.056
808.0,1.057
809.0,1.038
810.0,1.03
811.0,1.033
812.0,1.005
813.0,0.9856
814.0,0.873
815.0,0.8676
816.0,0.8085
817.0,0.8227
818.0,0.7933
819.0,0.8819
820.0,0.8326
821.0,0.9663
822.0,0.9399
823.0,0.6504
824.0,0.9152
825.0,0.9503
826.0,0.9164
827.0,0.9649
828.0,0.8245
829.0,0.9107
830.0,0.8995
831.0,0.9026
832.0,0.8761
833.0,0.929
834.0,0.8982
835.0,0.9825
836.0,0.9432
837.0,0.9852
838.0,0.9559
839.0,0.9703
840.0,0.9914
841.0,0.9779
842.0,0.9793
843.0,0.9781
844.0,0.965
845.0,0.9971
846.0,0.9927
847.0,0.9741
848.0,0.9685
849.0,0.9411
850.0,0.9016
851.0,0.9551
852.0,0.9483
853.0,0.9126
854.0,0.7883
855.0,0.8658
856.0,0.9464
857.0,0.9673
858.0,0.9604
859.0,0.9612
860.0,0.9629
861.0,0.9577
862.0,0.9728
863.0,0.9959
864.0,0.9461
865.0,0.9379
866.0,0.8434
867.0,0.8802
868.0,0.9579
869.0,0.9381
870.0,0.9649
871.0,0.9519
872.0,0.9486
873.0,0.9467
874.0,0.9356
875.0,0.9167
876.0,0.9263
877.0,0.9357
878.0,0.946
879.0,0.9315
880.0,0.9116
881.0,0.8982
882.0,0.9177
883.0,0.9205
884.0,0.9164
885.0,0.9234
886.0,0.8807
887.0,0.8897
888.0,0.9031
889.0,0.913
890.0,0.9059
891.0,0.9042
892.0,0.8788
893.0,0.8521
894.0,0.8237
895.0,0.7803
896.0,0.736
897.0,0.6348
898.0,0.6913
899.0,0.529
900.0,0.7064
901.0,0.5543
902.0,0.6466
903.0,0.6543
904.0,0.8181
905.0,0.7908
906.0,0.7408
907.0,0.6057
908.0,0.6172
909.0,0.6669
910.0,0.5928
911.0,0.63
912.0,0.658
913.0,0.6019
914.0,0.5963
915.0,0.6461
916.0,0.5479
917.0,0.692
918.0,0.5619
919.0,0.7039
920.0,0.7096
921.0,0.7377
922.0,0.6617
923.0,0.7126
924.0,0.6784
925.0,0.6637
926.0,0.671
927.0,0.7492
928.0,0.5551
929.0,0.5081
930.0,0.4014
931.0,0.3801
932.0,0.2757
933.0,0.225
934.0,0.1254
935.0,0.2296
936.0,0.1446
937.0,0.1467
938.0,0.1799
939.0,0.3684
940.0,0.4418
941.0,0.3352
942.0,0.3872
943.0,0.256
944.0,0.2685
945.0,0.3455
946.0,0.1775
947.0,0.3475
948.0,0.2556
949.0,0.4634
950.0,0.1312
951.0,0.4561
952.0,0.2472
953.0,0.3179
954.0,0.3883
955.0,0.3214
956.0,0.3113
957.0,0.2478
958.0,0.439
959.0,0.3504
960.0,0.3927
961.0,0.4396
962.0,0.416
963.0,0.4785
964.0,0.4388
965.0,0.4767
966.0,0.477
967.0,0.4751
968.0,0.6332
969.0,0.6617
970.0,0.6083
971.0,0.6946
972.0,0.6648
973.0,0.5805
974.0,0.5513
975.0,0.5716
976.0,0.5437
977.0,0.617
978.0,0.5869
979.0,0.6142
980.0,0.5778
981.0,0.6908
982.0,0.6612
983.0,0.6351
984.0,0.7112
985.0,0.6588
986.0,0.7234
987.0,0.7097
988.0,0.7084
989.0,0.721
990.0,0.7042
991.0,0.7233
992.0,0.7275
993.0,0.7117
994.0,0.7273
995.0,0.7263
996.0,0.7232
997.0,0.7243
998.0,0.7209
999.0,0.7183
1000.0,0.7133
1001.0,0.7222
1002.0,0.7027
1003.0,0.7095
1004.0,0.6923
1005.0,0.6668
1006.0,0.693
1007.0,0.7077
1008.0,0.7039
1009.0,0.7002
1010.0,0.6973
1011.0,0.7042
1012.0,0.6982
1013.0,0.7025
1014.0,0.6976
1015.0,0.693
1016.0,0.6899
1017.0,0.6917
1018.0,0.6891
1019.0,0.6746
1020.0,0.6856
1021.0,0.6846
1022.0,0.6794
1023.0,0.6866
1024.0,0.6779
1025.0,0.6862
1026.0,0.6833
1027.0,0.6817
1028.0,0.6803
1029.0,0.6723
1030.0,0.6769
1031.0,0.6743
1032.0,0.6723
1033.0,0.6622
1034.0,0.6623
1035.0,0.6644
1036.0,0.6678
1037.0,0.657
1038.0,0.6599
1039.0,0.6596
1040.0,0.657
1041.0,0.6596
1042.0,0.655
1043.0,0.653
1044.0,0.6553
1045.0,0.6465
1046.0,0.6393
1047.0,0.6451
1048.0,0.6487
1049.0,0.6464
1050.0,0.6435
1051.0,0.6426
1052.0,0.64
1053.0,0.635
1054.0,0.6364
1055.0,0.6368
1056.0,0.6346
1057.0,0.6326
1058.0,0.6171
1059.0,0.6178
1060.0,0.6169
1061.0,0.6162
1062.0,0.6195
1063.0,0.6134
1064.0,0.6207
1065.0,0.6163
1066.0,0.6041
1067.0,0.6119
1068.0,0.5986
1069.0,0.5801
1070.0,0.5999
1071.0,0.6091
1072.0,0.6022
1073.0,0.5935
1074.0,0.6087
1075.0,0.5786
1076.0,0.6083
1077.0,0.5976
1078.0,0.5864
1079.0,0.5986
1080.0,0.5885
1081.0,0.5698
1082.0,0.5787
1083.0,0.5804
1084.0,0.5685
1085.0,0.5899
1086.0,0.5389
1087.0,0.5558
1088.0,0.5799
1089.0,0.5625
1090.0,0.5504
1091.0,0.5782
1092.0,0.5767
1093.0,0.49
1094.0,0.5278
1095.0,0.5104
1096.0,0.4891
1097.0,0.5633
1098.0,0.4816
1099.0,0.5022
1100.0,0.4673
1101.0,0.473
1102.0,0.4521
1103.0,0.4479
1104.0,0.4485
1105.0,0.4909
1106.0,0.3773
1107.0,0.4666
1108.0,0.3966
1109.0,0.3972
1110.0,0.4627
1111.0,0.3153
1112.0,0.3941
1113.0,0.2523
1114.0,0.2818
1115.0,0.2337
1116.0,0.1874
1117.0,0.06964
1118.0,0.2036
1119.0,0.1017
1120.0,0.128
1121.0,0.1695
1122.0,0.07187
1123.0,0.1157
1124.0,0.09767
1125.0,0.1273
1126.0,0.04478
1127.0,0.1435
1128.0,0.08638
1129.0,0.09159
1130.0,0.06046
1131.0,0.2708
1132.0,0.2127
1133.0,0.1355
1134.0,0.035
1135.0,0.0131
1136.0,0.1133
1137.0,0.2663
1138.0,0.1878
1139.0,0.2786
1140.0,0.2334
1141.0,0.1784
1142.0,0.205
1143.0,0.2905
1144.0,0.1022
1145.0,0.1307
1146.0,0.141
1147.0,0.05008
1148.0,0.2515
1149.0,0.2012
1150.0,0.1098
1151.0,0.1864
1152.0,0.2289
1153.0,0.2227
1154.0,0.1268
1155.0,0.2908
1156.0,0.2621
1157.0,0.2936
1158.0,0.2905
1159.0,0.3129
1160.0,0.2679
1161.0,0.3289
1162.0,0.3307
1163.0,0.4441
1164.0,0.3819
1165.0,0.3612
1166.0,0.358
1167.0,0.3895
1168.0,0.394
1169.0,0.403
1170.0,0.4371
1171.0,0.4264
1172.0,0.4336
1173.0,0.4362
1174.0,0.3141
1175.0,0.4257
1176.0,0.4666
1177.0,0.4489
1178.0,0.3392
1179.0,0.4704
1180.0,0.4214
1181.0,0.4348
1182.0,0.3024
1183.0,0.4278
1184.0,0.4017
1185.0,0.3883
1186.0,0.458
1187.0,0.437
1188.0,0.3077
1189.0,0.4073
1190.0,0.4476
1191.0,0.4264
1192.0,0.4537
1193.0,0.4353
1194.0,0.4483
1195.0,0.425
1196.0,0.4099
1197.0,0.448
1198.0,0.4106
1199.0,0.3516
1200.0,0.4299
1201.0,0.4155
1202.0,0.4126
1203.0,0.4092
1204.0,0.3591
1205.0,0.4215
1206.0,0.4643
1207.0,0.4118
1208.0,0.4046
1209.0,0.4127
1210.0,0.4294
1211.0,0.4099
1212.0,0.4061
1213.0,0.4496
1214.0,0.4153
1215.0,0.4077
1216.0,0.4481
1217.0,0.4368
1218.0,0.4446
1219.0,0.4393
1220.0,0.4449
1221.0,0.4491
1222.0,0.4377
1223.0,0.4339
1224.0,0.4316
1225.0,0.4463
1226.0,0.449
1227.0,0.4155
1228.0,0.451
1229.0,0.4491
1230.0,0.4416
1231.0,0.4534
1232.0,0.4507
1233.0,0.4363
1234.0,0.4528
1235.0,0.4501
1236.0,0.4532
1237.0,0.4474
1238.0,0.4517
1239.0,0.446
1240.0,0.4476
1241.0,0.4457
1242.0,0.4446
1243.0,0.4409
1244.0,0.4442
1245.0,0.446
1246.0,0.4434
1247.0,0.4418
1248.0,0.4416
1249.0,0.4429
1250.0,0.4403
1251.0,0.4348
1252.0,0.4347
1253.0,0.4316
1254.0,0.4275
1255.0,0.4343
1256.0,0.4228
1257.0,0.4206
1258.0,0.428
1259.0,0.4135
1260.0,0.4156
1261.0,0.3935
1262.0,0.3824
1263.0,0.3832
1264.0,0.3553
1265.0,0.3807
1266.0,0.3673
1267.0,0.3731
1268.0,0.3548
1269.0,0.2268
1270.0,0.372
1271.0,0.3921
1272.0,0.3932
1273.0,0.3892
1274.0,0.3903
1275.0,0.3957
1276.0,0.3993
1277.0,0.4017
1278.0,0.4088
1279.0,0.4052
1280.0,0.4001
1281.0,0.3815
1282.0,0.3672
1283.0,0.3956
1284.0,0.4051
1285.0,0.4077
1286.0,0.413
1287.0,0.407
1288.0,0.4068
1289.0,0.3948
1290.0,0.4032
1291.0,0.4087
1292.0,0.3855
1293.0,0.4011
1294.0,0.3984
1295.0,0.3968
1296.0,0.3799
1297.0,0.3601
1298.0,0.3861
1299.0,0.4015
1300.0,0.3424
1301.0,0.3525
1302.0,0.3848
1303.0,0.3377
1304.0,0.2904
1305.0,0.3771
1306.0,0.3773
1307.0,0.2958
1308.0,0.3378
1309.0,0.3746
1310.0,0.2903
1311.0,0.3245
1312.0,0.316
1313.0,0.3103
1314.0,0.2786
1315.0,0.2754
1316.0,0.3197
1317.0,0.3031
1318.0,0.3285
1319.0,0.2594
1320.0,0.2508
1321.0,0.2912
1322.0,0.2945
1323.0,0.2237
1324.0,0.2544
1325.0,0.3153
1326.0,0.2719
1327.0,0.2597
1328.0,0.2246
1329.0,0.1703
1330.0,0.2209
1331.0,0.1351
1332.0,0.1389
1333.0,0.1929
1334.0,0.1626
1335.0,0.2229
1336.0,0.1772
1337.0,0.1571
1338.0,0.17
1339.0,0.169
1340.0,0.164
1341.0,0.1611
1342.0,0.1692
1343.0,0.1165
1344.0,0.06969
1345.0,0.1004
1346.0,0.0511
1347.0,0.05217
1348.0,0.003613
1349.0,0.01274
1350.0,0.01306
1351.0,0.003368
1352.0,0.0009707
1353.0,5.325e-05
1354.0,0.0001752
1355.0,1.641e-06
1356.0,2.616e-05
1357.0,3.978e-05
1358.0,1.932e-06
1359.0,2.727e-07
1360.0,9.202e-07
1361.0,1.307e-09
1362.0,3.971e-12
1363.0,1.289e-06
1364.0,5.377e-07
1365.0,1.59e-12
1366.0,5.472e-06
1367.0,2.199e-06
1368.0,1.594e-14
1369.0,2.023e-07
1370.0,1.047e-07
1371.0,6.309e-09
1372.0,1.21e-06
1373.0,2.266e-05
1374.0,0.0001001
1375.0,0.0001824
1376.0,0.0001572
1377.0,7.288e-05
1378.0,0.0006978
1379.0,3.069e-05
1380.0,4.564e-05
1381.0,1.231e-06
1382.0,1.106e-06
1383.0,1.733e-08
1384.0,2.333e-07
1385.0,9.926e-07
1386.0,1.019e-06
1387.0,0.0001072
1388.0,2.121e-06
1389.0,0.0003439
1390.0,0.0002962
1391.0,0.0001998
1392.0,1.323e-05
1393.0,6.831e-05
1394.0,3.835e-05
1395.0,2.996e-07
1396.0,1.825e-09
1397.0,2.778e-05
1398.0,0.0007883
1399.0,0.0004996
1400.0,8.397e-10
1401.0,3.211e-09
1402.0,0.001301
1403.0,0.001655
1404.0,0.0005074
1405.0,1.52e-07
1406.0,0.001348
1407.0,0.0001174
1408.0,0.001099
1409.0,0.0003824
1410.0,0.0002994
1411.0,0.001452
1412.0,0.001928
1413.0,0.019
1414.0,0.0002352
1415.0,0.0001148
1416.0,0.03061
1417.0,0.009404
1418.0,0.01073
1419.0,0.001672
1420.0,0.006573
1421.0,0.007109
1422.0,0.03993
1423.0,0.00777
1424.0,0.01454
1425.0,0.02144
1426.0,0.02424
1427.0,0.04439
1428.0,0.003411
1429.0,0.03326
1430.0,0.05655
1431.0,0.0621
1432.0,0.002689
1433.0,0.03952
1434.0,0.02011
1435.0,0.02011
1436.0,0.03881
1437.0,0.02974
1438.0,0.01256
1439.0,0.05278
1440.0,0.03953
1441.0,0.0301
1442.0,0.0334
1443.0,0.042
1444.0,0.05824
1445.0,0.04548
1446.0,0.02042
1447.0,0.0322
1448.0,0.11
1449.0,0.09532
1450.0,0.02389
1451.0,0.009564
1452.0,0.05719
1453.0,0.07522
1454.0,0.1302
1455.0,0.061
1456.0,0.08185
1457.0,0.1105
1458.0,0.1309
1459.0,0.1547
1460.0,0.08019
1461.0,0.08342
