interpolation:linear
wavelength,value
280.0,1.478e-24
280.5,5.363e-23
281.0,3.036e-22
281.5,1.0650000000000001e-20
282.0,9.109000000000001e-20
282.5,3.667e-19
283.0,1.705e-18
283.5,3.3e-18
284.0,9.442e-17
284.5,3.415e-16
285.0,8.42e-16
285.5,6.869e-15
286.0,3.3e-14
286.5,1.988e-13
287.0,6.932e-13
287.5,3.328e-12
288.0,1.588e-11
288.5,6.502e-11
289.0,2.246e-10
289.5,8.632e-10
290.0,2.875e-09
290.5,6.792e-09
291.0,1.711e-08
291.5,5.889e-08
292.0,1.549e-07
292.5,2.379e-07
293.0,5.661e-07
293.5,1.563e-06
294.0,2.689e-06
294.5,4.827e-06
295.0,8.707e-06
295.5,2.17e-05
296.0,3.984e-05
296.5,5.288e-05
297.0,6.851e-05
297.5,0.000171
298.0,0.0002531
298.5,0.0002424
299.0,0.0005087
299.5,0.0007671
300.0,0.0008014
300.5,0.001098
301.0,0.001804
301.5,0.002631
302.0,0.002158
302.5,0.004085
303.0,0.00702
303.5,0.008592
304.0,0.007892
304.5,0.01098
305.0,0.01503
305.5,0.01618
306.0,0.01535
306.5,0.01842
307.0,0.02498
307.5,0.03049
308.0,0.03192
308.5,0.03628
309.0,0.03226
309.5,0.03576
310.0,0.03545
310.5,0.05721
311.0,0.07099
311.5,0.0684
312.0,0.06603
312.5,0.07853
313.0,0.08436
313.5,0.0836
314.0,0.1014
314.5,0.08597
315.0,0.1126
315.5,0.09708
316.0,0.08175
316.5,0.1137
317.0,0.142
317.5,0.1502
318.0,0.1147
318.5,0.136
319.0,0.158
319.5,0.135
320.0,0.165
320.5,0.1968
321.0,0.1677
321.5,0.1608
322.0,0.1815
322.5,0.1582
323.0,0.153
323.5,0.1781
324.0,0.2075
324.5,0.2151
325.0,0.195
325.5,0.2449
326.0,0.2904
326.5,0.2861
327.0,0.2887
327.5,0.2828
328.0,0.26
328.5,0.2655
329.0,0.3109
329.5,0.3516
330.0,0.3587
330.5,0.2943
331.0,0.3032
331.5,0.3048
332.0,0.3234
332.5,0.318
333.0,0.3203
333.5,0.296
334.0,0.3053
334.5,0.3472
335.0,0.324
335.5,0.3686
336.0,0.256
336.5,0.312
337.0,0.259
337.5,0.3243
338.0,0.313
338.5,0.3541
339.0,0.3537
339.5,0.3401
340.0,0.4103
340.5,0.3706
341.0,0.3563
341.5,0.3312
342.0,0.398
342.5,0.3743
343.0,0.4113
343.5,0.3874
344.0,0.2912
344.5,0.2888
345.0,0.3877
345.5,0.3985
346.0,0.3405
346.5,0.3873
347.0,0.4158
347.5,0.3369
348.0,0.3868
348.5,0.3887
349.0,0.362
349.5,0.3593
350.0,0.4459
350.5,0.4718
351.0,0.4222
351.5,0.4096
352.0,0.4428
352.5,0.3473
353.0,0.4392
353.5,0.4713
354.0,0.491
354.5,0.4995
355.0,0.4992
355.5,0.4523
356.0,0.4747
356.5,0.4066
357.0,0.337
357.5,0.4138
358.0,0.3289
358.5,0.2819
359.0,0.3954
359.5,0.5051
360.0,0.537
360.5,0.4306
361.0,0.3936
361.5,0.4543
362.0,0.3937
362.5,0.5461
363.0,0.4917
363.5,0.4539
364.0,0.5565
364.5,0.4769
365.0,0.4869
365.5,0.6126
366.0,0.6506
366.5,0.6127
367.0,0.5982
367.5,0.6223
368.0,0.5459
368.5,0.5521
369.0,0.5976
369.5,0.6385
370.0,0.6822
370.5,0.5307
371.0,0.5684
371.5,0.7128
372.0,0.4742
372.5,0.5699
373.0,0.5809
373.5,0.3788
374.0,0.5516
374.5,0.4578
375.0,0.446
375.5,0.6674
376.0,0.5545
376.5,0.5759
377.0,0.611
377.5,0.7163
378.0,0.7782
378.5,0.7373
379.0,0.6099
379.5,0.5585
380.0,0.582
380.5,0.7064
381.0,0.7093
381.5,0.5633
382.0,0.5013
382.5,0.4281
383.0,0.3972
383.5,0.3833
384.0,0.4236
384.5,0.6242
385.0,0.6202
385.5,0.5787
386.0,0.4965
386.5,0.6534
387.0,0.5441
387.5,0.6123
388.0,0.5664
388.5,0.5609
389.0,0.6067
389.5,0.7361
390.0,0.7401
390.5,0.6824
391.0,0.8047
391.5,0.8223
392.0,0.6939
392.5,0.6223
393.0,0.3468
393.5,0.2525
394.0,0.5147
394.5,0.6555
395.0,0.8012
395.5,0.8154
396.0,0.7081
396.5,0.4146
397.0,0.3117
397.5,0.6349
398.0,0.8907
398.5,0.9222
399.0,0.9998
399.5,0.9981
400.0,1.038
401.0,1.069
402.0,1.131
403.0,1.078
404.0,1.064
405.0,1.067
406.0,1.053
407.0,1.038
408.0,1.082
409.0,1.161
410.0,1.017
411.0,1.104
412.0,1.189
413.0,1.163
414.0,1.18
415.0,1.185
416.0,1.209
417.0,1.182
418.0,1.163
419.0,1.181
420.0,1.179
421.0,1.236
422.0,1.178
423.0,1.153
424.0,1.222
425.0,1.223
426.0,1.193
427.0,1.173
428.0,1.145
429.0,1.087
430.0,0.9528
431.0,0.9467
432.0,1.224
433.0,1.234
434.0,1.148
435.0,1.201
436.0,1.356
437.0,1.339
438.0,1.221
439.0,1.266
440.0,1.309
441.0,1.358
442.0,1.459
443.0,1.425
444.0,1.458
445.0,1.429
446.0,1.365
447.0,1.478
448.0,1.504
449.0,1.512
450.0,1.556
451.0,1.617
452.0,1.56
453.0,1.469
454.0,1.536
455.0,1.548
456.0,1.587
457.0,1.616
458.0,1.564
459.0,1.558
460.0,1.565
461.0,1.603
462.0,1.617
463.0,1.608
464.0,1.583
465.0,1.564
466.0,1.581
467.0,1.555
468.0,1.575
469.0,1.586
470.0,1.537
471.0,1.537
472.0,1.622
473.0,1.603
474.0,1.608
475.0,1.625
476.0,1.58
477.0,1.587
478.0,1.633
479.0,1.625
480.0,1.629
481.0,1.661
482.0,1.67
483.0,1.651
484.0,1.619
485.0,1.543
486.0,1.35
487.0,1.416
488.0,1.555
489.0,1.563
490.0,1.645
491.0,1.618
492.0,1.529
493.0,1.581
494.0,1.599
495.0,1.614
496.0,1.625
497.0,1.652
498.0,1.577
499.0,1.599
500.0,1.555
501.0,1.528
502.0,1.51
503.0,1.574
504.0,1.54
505.0,1.593
506.0,1.646
507.0,1.568
508.0,1.519
509.0,1.562
510.0,1.554
511.0,1.597
512.0,1.615
513.0,1.53
514.0,1.52
515.0,1.506
516.0,1.504
517.0,1.337
518.0,1.407
519.0,1.477
520.0,1.532
521.0,1.548
522.0,1.551
523.0,1.525
524.0,1.581
525.0,1.602
526.0,1.532
527.0,1.445
528.0,1.531
529.0,1.615
530.0,1.593
531.0,1.618
532.0,1.564
533.0,1.519
534.0,1.565
535.0,1.6
536.0,1.615
537.0,1.552
538.0,1.58
539.0,1.568
540.0,1.505
541.0,1.517
542.0,1.566
543.0,1.549
544.0,1.578
545.0,1.574
546.0,1.583
547.0,1.582
548.0,1.564
549.0,1.569
550.0,1.589
551.0,1.57
552.0,1.582
553.0,1.555
554.0,1.593
555.0,1.598
556.0,1.578
557.0,1.53
558.0,1.52
559.0,1.493
560.0,1.513
561.0,1.534
562.0,1.525
563.0,1.568
564.0,1.527
565.0,1.515
566.0,1.494
567.0,1.524
568.0,1.513
569.0,1.482
570.0,1.482
571.0,1.473
572.0,1.512
573.0,1.529
574.0,1.525
575.0,1.498
576.0,1.485
577.0,1.502
578.0,1.479
579.0,1.484
580.0,1.51
581.0,1.516
582.0,1.544
583.0,1.547
584.0,1.56
585.0,1.522
586.0,1.491
587.0,1.526
588.0,1.494
589.0,1.334
590.0,1.395
591.0,1.471
592.0,1.456
593.0,1.474
594.0,1.466
595.0,1.434
596.0,1.483
597.0,1.47
598.0,1.464
599.0,1.465
600.0,1.466
601.0,1.453
602.0,1.443
603.0,1.467
604.0,1.491
605.0,1.484
606.0,1.477
607.0,1.492
608.0,1.475
609.0,1.478
610.0,1.467
611.0,1.474
612.0,1.47
613.0,1.452
614.0,1.432
615.0,1.463
616.0,1.415
617.0,1.412
618.0,1.466
619.0,1.452
620.0,1.461
621.0,1.464
622.0,1.448
623.0,1.427
624.0,1.402
625.0,1.399
626.0,1.421
627.0,1.439
628.0,1.365
629.0,1.413
630.0,1.381
631.0,1.406
632.0,1.388
633.0,1.428
634.0,1.412
635.0,1.434
636.0,1.414
637.0,1.436
638.0,1.449
639.0,1.432
640.0,1.418
641.0,1.417
642.0,1.41
643.0,1.429
644.0,1.424
645.0,1.427
646.0,1.397
647.0,1.386
648.0,1.389
649.0,1.362
650.0,1.362
651.0,1.42
652.0,1.369
653.0,1.402
654.0,1.386
655.0,1.339
656.0,1.184
657.0,1.216
658.0,1.36
659.0,1.369
660.0,1.375
661.0,1.385
662.0,1.389
663.0,1.362
664.0,1.376
665.0,1.376
666.0,1.377
667.0,1.375
668.0,1.375
669.0,1.396
670.0,1.39
671.0,1.39
672.0,1.378
673.0,1.399
674.0,1.393
675.0,1.381
676.0,1.39
677.0,1.377
678.0,1.38
679.0,1.358
680.0,1.369
681.0,1.36
682.0,1.359
683.0,1.356
684.0,1.35
685.0,1.362
686.0,1.354
687.0,0.9906
688.0,1.117
689.0,1.12
690.0,1.16
691.0,1.205
692.0,1.236
693.0,1.227
694.0,1.218
695.0,1.257
696.0,1.259
697.0,1.322
698.0,1.302
699.0,1.281
700.0,1.266
701.0,1.256
702.0,1.261
703.0,1.264
704.0,1.299
705.0,1.301
706.0,1.298
707.0,1.299
708.0,1.302
709.0,1.301
710.0,1.302
711.0,1.3
712.0,1.294
713.0,1.283
714.0,1.288
715.0,1.251
716.0,1.253
717.0,1.12
718.0,1.036
719.0,0.9527
720.0,1.0
721.0,1.083
722.0,1.216
723.0,1.144
724.0,1.045
725.0,1.033
726.0,1.079
727.0,1.087
728.0,1.032
729.0,1.059
730.0,1.12
731.0,1.076
732.0,1.138
733.0,1.193
734.0,1.218
735.0,1.194
736.0,1.193
737.0,1.198
738.0,1.209
739.0,1.185
740.0,1.214
741.0,1.201
742.0,1.2
743.0,1.231
744.0,1.227
745.0,1.226
746.0,1.232
747.0,1.235
748.0,1.232
749.0,1.218
750.0,1.218
751.0,1.206
752.0,1.211
753.0,1.217
754.0,1.22
755.0,1.213
756.0,1.213
757.0,1.215
758.0,1.2
759.0,1.18
760.0,0.2933
761.0,0.1772
762.0,0.6984
763.0,0.4082
764.0,0.5605
765.0,0.6991
766.0,0.8127
767.0,0.9814
768.0,1.098
769.0,1.114
770.0,1.143
771.0,1.149
772.0,1.15
773.0,1.158
774.0,1.153
775.0,1.144
776.0,1.158
777.0,1.143
778.0,1.136
779.0,1.137
780.0,1.131
781.0,1.132
782.0,1.139
783.0,1.119
784.0,1.125
785.0,1.117
786.0,1.129
787.0,1.113
788.0,1.101
789.0,1.101
790.0,1.078
791.0,1.082
792.0,1.073
793.0,1.057
794.0,1.07
795.0,1.089
796.0,1.063
797.0,1.064
798.0,1.089
799.0,1.083
800.0,1.066
801.0,1.065
802.0,1.062
803.0,1.055
804.0,1.055
805.0,1.05
806.0,1.076
807.0,1.064
808.0,1.065
809.0,1.048
810.0,1.041
811.0,1.046
812.0,1.021
813.0,1.003
814.0,0.8994
815.0,0.8935
816.0,0.8343
817.0,0.8475
818.0,0.8197
819.0,0.9015
820.0,0.855
821.0,0.9791
822.0,0.9546
823.0,0.6821
824.0,0.9339
825.0,0.9636
826.0,0.9332
827.0,0.9783
828.0,0.8478
829.0,0.9265
830.0,0.9164
831.0,0.919
832.0,0.8943
833.0,0.9419
834.0,0.9147
835.0,0.992
836.0,0.9576
837.0,0.9944
838.0,0.9671
839.0,0.9788
840.0,0.9994
841.0,0.9869
842.0,0.9867
843.0,0.9839
844.0,0.9716
845.0,1.003
846.0,0.998
847.0,0.9787
848.0,0.9738
849.0,0.9462
850.0,0.9065
851.0,0.961
852.0,0.9538
853.0,0.9173
854.0,0.7928
855.0,0.87
856.0,0.9513
857.0,0.9719
858.0,0.9651
859.0,0.9656
860.0,0.967
861.0,0.9619
862.0,0.977
863.0,1.0
864.0,0.9501
865.0,0.9418
866.0,0.8469
867.0,0.8838
868.0,0.9618
869.0,0.9419
870.0,0.9688
871.0,0.9556
872.0,0.9523
873.0,0.9504
874.0,0.9392
875.0,0.9203
876.0,0.93
877.0,0.9394
878.0,0.9498
879.0,0.9352
880.0,0.9152
881.0,0.902
882.0,0.9218
883.0,0.9243
884.0,0.9203
885.0,0.9273
886.0,0.8856
887.0,0.8937
888.0,0.9078
889.0,0.9166
890.0,0.9109
891.0,0.9084
892.0,0.8846
893.0,0.86
894.0,0.8355
895.0,0.7968
896.0,0.7541
897.0,0.6579
898.0,0.7121
899.0,0.5542
900.0,0.7231
901.0,0.5803
902.0,0.6647
903.0,0.6765
904.0,0.8297
905.0,0.8045
906.0,0.7556
907.0,0.6289
908.0,0.6393
909.0,0.6853
910.0,0.6189
911.0,0.652
912.0,0.6786
913.0,0.6287
914.0,0.6212
915.0,0.672
916.0,0.573
917.0,0.7128
918.0,0.5879
919.0,0.7227
920.0,0.7237
921.0,0.7511
922.0,0.6806
923.0,0.7251
924.0,0.6981
925.0,0.6833
926.0,0.6907
927.0,0.7645
928.0,0.5859
929.0,0.5416
930.0,0.4365
931.0,0.4118
932.0,0.3075
933.0,0.256
934.0,0.1532
935.0,0.257
936.0,0.1685
937.0,0.1719
938.0,0.2082
939.0,0.3992
940.0,0.4726
941.0,0.367
942.0,0.4183
943.0,0.2834
944.0,0.2913
945.0,0.3767
946.0,0.2028
947.0,0.3812
948.0,0.282
949.0,0.4993
950.0,0.1562
951.0,0.4897
952.0,0.2778
953.0,0.3492
954.0,0.4176
955.0,0.352
956.0,0.337
957.0,0.2797
958.0,0.4623
959.0,0.3786
960.0,0.4239
961.0,0.4672
962.0,0.4433
963.0,0.5035
964.0,0.4639
965.0,0.5007
966.0,0.5027
967.0,0.5013
968.0,0.6464
969.0,0.677
970.0,0.6254
971.0,0.7047
972.0,0.6763
973.0,0.6001
974.0,0.5714
975.0,0.5886
976.0,0.5648
977.0,0.6311
978.0,0.6045
979.0,0.6294
980.0,0.5943
981.0,0.7004
982.0,0.6738
983.0,0.6493
984.0,0.7173
985.0,0.6712
986.0,0.7273
987.0,0.716
988.0,0.7147
989.0,0.7235
990.0,0.7102
991.0,0.7261
992.0,0.73
993.0,0.7166
994.0,0.7295
995.0,0.7283
996.0,0.7255
997.0,0.7264
998.0,0.7231
999.0,0.7204
1000.0,0.716
1001.0,0.7242
1002.0,0.7071
1003.0,0.7117
1004.0,0.695
1005.0,0.6686
1006.0,0.6952
1007.0,0.7097
1008.0,0.7064
1009.0,0.7032
1010.0,0.7005
1011.0,0.7062
1012.0,0.7006
1013.0,0.7043
1014.0,0.6994
1015.0,0.6949
1016.0,0.6919
1017.0,0.6938
1018.0,0.6908
1019.0,0.6772
1020.0,0.6874
1021.0,0.6863
1022.0,0.6814
1023.0,0.6887
1024.0,0.6808
1025.0,0.6879
1026.0,0.6853
1027.0,0.6836
1028.0,0.6823
1029.0,0.6744
1030.0,0.6786
1031.0,0.6761
1032.0,0.674
1033.0,0.6639
1034.0,0.6639
1035.0,0.666
1036.0,0.6696
1037.0,0.6587
1038.0,0.6617
1039.0,0.6614
1040.0,0.6588
1041.0,0.6615
1042.0,0.6569
1043.0,0.6549
1044.0,0.6573
1045.0,0.6485
1046.0,0.6414
1047.0,0.6473
1048.0,0.6509
1049.0,0.6487
1050.0,0.6458
1051.0,0.645
1052.0,0.6425
1053.0,0.6375
1054.0,0.6391
1055.0,0.6396
1056.0,0.6375
1057.0,0.6357
1058.0,0.6202
1059.0,0.6211
1060.0,0.6202
1061.0,0.6196
1062.0,0.6231
1063.0,0.6171
1064.0,0.6243
1065.0,0.6202
1066.0,0.6077
1067.0,0.6157
1068.0,0.6025
1069.0,0.5837
1070.0,0.6038
1071.0,0.6123
1072.0,0.606
1073.0,0.5971
1074.0,0.6115
1075.0,0.5838
1076.0,0.6112
1077.0,0.6019
1078.0,0.5912
1079.0,0.601
1080.0,0.5927
1081.0,0.5751
1082.0,0.5819
1083.0,0.5831
1084.0,0.5745
1085.0,0.5938
1086.0,0.5466
1087.0,0.5607
1088.0,0.5831
1089.0,0.5679
1090.0,0.5574
1091.0,0.582
1092.0,0.5799
1093.0,0.5002
1094.0,0.5316
1095.0,0.5199
1096.0,0.5004
1097.0,0.5664
1098.0,0.4935
1099.0,0.5134
1100.0,0.4812
1101.0,0.486
1102.0,0.4665
1103.0,0.4637
1104.0,0.4641
1105.0,0.5025
1106.0,0.3991
1107.0,0.4802
1108.0,0.4159
1109.0,0.415
1110.0,0.4771
1111.0,0.3357
1112.0,0.4111
1113.0,0.2743
1114.0,0.3051
1115.0,0.2534
1116.0,0.2101
1117.0,0.08607
1118.0,0.2256
1119.0,0.1189
1120.0,0.1499
1121.0,0.1945
1122.0,0.08793
1123.0,0.1352
1124.0,0.1142
1125.0,0.1473
1126.0,0.05739
1127.0,0.1656
1128.0,0.1056
1129.0,0.111
1130.0,0.07602
1131.0,0.2988
1132.0,0.2373
1133.0,0.1585
1134.0,0.0457
1135.0,0.01689
1136.0,0.1352
1137.0,0.2958
1138.0,0.2103
1139.0,0.2985
1140.0,0.2552
1141.0,0.1998
1142.0,0.2267
1143.0,0.3155
1144.0,0.1181
1145.0,0.1527
1146.0,0.1648
1147.0,0.0644
1148.0,0.2733
1149.0,0.223
1150.0,0.1266
1151.0,0.2088
1152.0,0.2515
1153.0,0.241
1154.0,0.1494
1155.0,0.3116
1156.0,0.2836
1157.0,0.3139
1158.0,0.3103
1159.0,0.3307
1160.0,0.2874
1161.0,0.3452
1162.0,0.3476
1163.0,0.4544
1164.0,0.3954
1165.0,0.3781
1166.0,0.372
1167.0,0.4023
1168.0,0.4078
1169.0,0.4155
1170.0,0.4472
1171.0,0.4367
1172.0,0.4421
1173.0,0.4462
1174.0,0.3311
1175.0,0.434
1176.0,0.4712
1177.0,0.4562
1178.0,0.3521
1179.0,0.4747
1180.0,0.4304
1181.0,0.4435
1182.0,0.3164
1183.0,0.4352
1184.0,0.4113
1185.0,0.3999
1186.0,0.4641
1187.0,0.4451
1188.0,0.3227
1189.0,0.4154
1190.0,0.4535
1191.0,0.4359
1192.0,0.4592
1193.0,0.442
1194.0,0.4543
1195.0,0.4334
1196.0,0.4198
1197.0,0.4524
1198.0,0.4169
1199.0,0.3632
1200.0,0.4368
1201.0,0.4242
1202.0,0.42
1203.0,0.4167
1204.0,0.3692
1205.0,0.4273
1206.0,0.4672
1207.0,0.4198
1208.0,0.4107
1209.0,0.4184
1210.0,0.434
1211.0,0.4166
1212.0,0.4153
1213.0,0.4537
1214.0,0.4234
1215.0,0.4163
1216.0,0.4521
1217.0,0.4418
1218.0,0.4486
1219.0,0.4438
1220.0,0.4488
1221.0,0.4524
1222.0,0.4416
1223.0,0.4382
1224.0,0.4367
1225.0,0.4496
1226.0,0.4515
1227.0,0.4209
1228.0,0.4529
1229.0,0.4516
1230.0,0.4447
1231.0,0.4546
1232.0,0.452
1233.0,0.4399
1234.0,0.4535
1235.0,0.4512
1236.0,0.4541
1237.0,0.4491
1238.0,0.4525
1239.0,0.4468
1240.0,0.4483
1241.0,0.447
1242.0,0.4453
1243.0,0.4417
1244.0,0.4451
1245.0,0.4468
1246.0,0.4442
1247.0,0.4427
1248.0,0.4428
1249.0,0.4438
1250.0,0.4414
1251.0,0.4363
1252.0,0.4357
1253.0,0.4334
1254.0,0.4299
1255.0,0.4356
1256.0,0.4255
1257.0,0.4237
1258.0,0.4298
1259.0,0.4177
1260.0,0.4194
1261.0,0.4002
1262.0,0.3905
1263.0,0.3913
1264.0,0.3666
1265.0,0.3887
1266.0,0.3772
1267.0,0.3817
1268.0,0.3654
1269.0,0.2507
1270.0,0.3811
1271.0,0.3984
1272.0,0.3992
1273.0,0.3954
1274.0,0.3961
1275.0,0.401
1276.0,0.404
1277.0,0.4058
1278.0,0.4118
1279.0,0.4082
1280.0,0.4029
1281.0,0.3837
1282.0,0.3684
1283.0,0.397
1284.0,0.4068
1285.0,0.4093
1286.0,0.4141
1287.0,0.4091
1288.0,0.4086
1289.0,0.3983
1290.0,0.4048
1291.0,0.41
1292.0,0.3902
1293.0,0.4033
1294.0,0.4007
1295.0,0.4
1296.0,0.3852
1297.0,0.367
1298.0,0.3898
1299.0,0.4033
1300.0,0.3504
1301.0,0.3593
1302.0,0.3884
1303.0,0.3448
1304.0,0.3026
1305.0,0.3811
1306.0,0.3817
1307.0,0.3061
1308.0,0.344
1309.0,0.3794
1310.0,0.3007
1311.0,0.3317
1312.0,0.3241
1313.0,0.3192
1314.0,0.2887
1315.0,0.2869
1316.0,0.3279
1317.0,0.3116
1318.0,0.3352
1319.0,0.272
1320.0,0.2614
1321.0,0.301
1322.0,0.3055
1323.0,0.2382
1324.0,0.2668
1325.0,0.3237
1326.0,0.2831
1327.0,0.2714
1328.0,0.2367
1329.0,0.1848
1330.0,0.2369
1331.0,0.1517
1332.0,0.1536
1333.0,0.2115
1334.0,0.1756
1335.0,0.2372
1336.0,0.1919
1337.0,0.1723
1338.0,0.1861
1339.0,0.1842
1340.0,0.177
1341.0,0.1778
1342.0,0.1864
1343.0,0.1369
1344.0,0.0817
1345.0,0.1166
1346.0,0.06531
1347.0,0.06765
1348.0,0.005961
1349.0,0.01954
1350.0,0.01902
1351.0,0.006067
1352.0,0.002162
1353.0,0.000154
1354.0,0.0004326
1355.0,6.743e-06
1356.0,7.742e-05
1357.0,0.0001166
1358.0,7.778e-06
1359.0,1.585e-06
1360.0,4.225e-06
1361.0,1.342e-08
1362.0,5.911e-11
1363.0,6.418e-06
1364.0,2.808e-06
1365.0,3.579e-11
1366.0,2.461e-05
1367.0,9.523e-06
1368.0,8.276e-13
1369.0,1.088e-06
1370.0,6.559e-07
1371.0,4.874e-08
1372.0,5.266e-06
1373.0,7.553e-05
1374.0,0.0002797
1375.0,0.0005045
1376.0,0.0003851
1377.0,0.0001864
1378.0,0.001616
1379.0,7.954e-05
1380.0,0.0001303
1381.0,3.998e-06
1382.0,5.022e-06
1383.0,9.34e-08
1384.0,1.328e-06
1385.0,3.818e-06
1386.0,5.125e-06
1387.0,0.0003262
1388.0,6.806e-06
1389.0,0.0008734
1390.0,0.0007491
1391.0,0.00053
1392.0,3.808e-05
1393.0,0.0001773
1394.0,0.0001296
1395.0,1.284e-06
1396.0,1.688e-08
1397.0,7.761e-05
1398.0,0.001848
1399.0,0.001173
1400.0,9.5e-09
1401.0,2.75e-08
1402.0,0.002439
1403.0,0.003227
1404.0,0.001008
1405.0,7.445e-07
1406.0,0.002857
1407.0,0.0002436
1408.0,0.002307
1409.0,0.0009148
1410.0,0.0006703
1411.0,0.002812
1412.0,0.003507
1413.0,0.02813
1414.0,0.0005196
1415.0,0.000271
1416.0,0.04071
1417.0,0.01427
1418.0,0.01636
1419.0,0.002642
1420.0,0.0101
1421.0,0.01106
1422.0,0.05254
1423.0,0.01073
1424.0,0.01964
1425.0,0.02952
1426.0,0.0318
1427.0,0.05447
1428.0,0.005724
1429.0,0.04247
1430.0,0.06812
1431.0,0.07376
1432.0,0.004564
1433.0,0.04844
1434.0,0.02541
1435.0,0.028
1436.0,0.04988
1437.0,0.03825
1438.0,0.01732
1439.0,0.06598
1440.0,0.04966
1441.0,0.0398
1442.0,0.04371
1443.0,0.05193
1444.0,0.07069
1445.0,0.05766
1446.0,0.02667
1447.0,0.04196
1448.0,0.125
1449.0,0.1108
1450.0,0.03104
1451.0,0.01307
1452.0,0.06894
1453.0,0.08915
1454.0,0.145
1455.0,0.07138
1456.0,0.09715
1457.0,0.1256
1458.0,0.1435
1459.0,0.1704
1460.0,0.09119
1461.0,0.09719
1462.0,0.1387
1463.0,0.04746
1464.0,0.1606
1465.0,0.09751
1466.0,0.07222
1467.0,0.04021
