interpolation:linear
wavelength,value
280.0,2.071e-22
280.5,5.488e-21
281.0,2.7700000000000005e-20
281.5,7.171e-19
282.0,5.098e-18
282.5,1.812e-17
283.0,7.348e-17
283.5,1.328e-16
284.0,2.768e-15
284.5,8.664e-15
285.0,1.827e-14
285.5,1.24e-13
286.0,5.53e-13
286.5,2.859e-12
287.0,8.903e-12
287.5,3.686e-11
288.0,1.46e-10
288.5,5.412e-10
289.0,1.688e-09
289.5,5.797e-09
290.0,1.761e-08
290.5,3.853e-08
291.0,8.847e-08
291.5,2.706e-07
292.0,6.464e-07
292.5,9.407e-07
293.0,2.089e-06
293.5,5.249e-06
294.0,8.468e-06
294.5,1.449e-05
295.0,2.46e-05
295.5,5.689e-05
296.0,9.921e-05
296.5,0.0001254
297.0,0.0001564
297.5,0.0003698
298.0,0.000524
298.5,0.0004858
299.0,0.000989
299.5,0.001421
300.0,0.001447
300.5,0.001935
301.0,0.003067
301.5,0.004345
302.0,0.003514
302.5,0.006487
303.0,0.01081
303.5,0.01301
304.0,0.01184
304.5,0.01614
305.0,0.02153
305.5,0.02282
306.0,0.02151
306.5,0.02555
307.0,0.03397
307.5,0.04073
308.0,0.0425
308.5,0.04787
309.0,0.04227
309.5,0.04601
310.0,0.04523
310.5,0.07265
311.0,0.08953
311.5,0.08596
312.0,0.08189
312.5,0.09656
313.0,0.1032
313.5,0.1026
314.0,0.1232
314.5,0.1032
315.0,0.1348
315.5,0.1167
316.0,0.09737
316.5,0.1343
317.0,0.1677
317.5,0.1775
318.0,0.1349
318.5,0.1585
319.0,0.1832
319.5,0.1574
320.0,0.1924
320.5,0.2275
321.0,0.1924
321.5,0.1842
322.0,0.2093
322.5,0.1822
323.0,0.1752
323.5,0.2022
324.0,0.2353
324.5,0.2444
325.0,0.2225
325.5,0.2783
326.0,0.3281
326.5,0.322
327.0,0.325
327.5,0.3187
328.0,0.2941
328.5,0.2985
329.0,0.3481
329.5,0.3931
330.0,0.4009
330.5,0.3296
331.0,0.3397
331.5,0.3406
332.0,0.3601
332.5,0.3535
333.0,0.3561
333.5,0.3295
334.0,0.3397
334.5,0.3852
335.0,0.3589
335.5,0.4079
336.0,0.2831
336.5,0.3451
337.0,0.2866
337.5,0.3587
338.0,0.3455
338.5,0.3903
339.0,0.3896
339.5,0.3745
340.0,0.4517
340.5,0.4078
341.0,0.3915
341.5,0.3636
342.0,0.4367
342.5,0.4105
343.0,0.4509
343.5,0.4245
344.0,0.3192
344.5,0.3162
345.0,0.4241
345.5,0.4356
346.0,0.3719
346.5,0.4228
347.0,0.4537
347.5,0.3674
348.0,0.4217
348.5,0.4235
349.0,0.3941
349.5,0.391
350.0,0.485
350.5,0.5129
351.0,0.4588
351.5,0.445
352.0,0.4807
352.5,0.3768
353.0,0.4762
353.5,0.5109
354.0,0.532
354.5,0.541
355.0,0.5404
355.5,0.4894
356.0,0.5134
356.5,0.4395
357.0,0.3641
357.5,0.447
358.0,0.3552
358.5,0.3043
359.0,0.4267
359.5,0.5448
360.0,0.579
360.5,0.464
361.0,0.424
361.5,0.4891
362.0,0.4237
362.5,0.5874
363.0,0.5285
363.5,0.4877
364.0,0.5976
364.5,0.5119
365.0,0.5225
365.5,0.6571
366.0,0.6975
366.5,0.6566
367.0,0.6408
367.5,0.6664
368.0,0.5843
368.5,0.5907
369.0,0.6392
369.5,0.6827
370.0,0.7292
370.5,0.567
371.0,0.607
371.5,0.761
372.0,0.5061
372.5,0.608
373.0,0.6195
373.5,0.4038
374.0,0.5878
374.5,0.4877
375.0,0.475
375.5,0.7105
376.0,0.5902
376.5,0.6128
377.0,0.6499
377.5,0.7616
378.0,0.8272
378.5,0.7835
379.0,0.648
379.5,0.5932
380.0,0.618
380.5,0.7498
381.0,0.7526
381.5,0.5975
382.0,0.5315
382.5,0.4537
383.0,0.4208
383.5,0.4059
384.0,0.4485
384.5,0.6607
385.0,0.6563
385.5,0.6121
386.0,0.5251
386.5,0.6907
387.0,0.575
387.5,0.6469
388.0,0.5983
388.5,0.5923
389.0,0.6404
389.5,0.7768
390.0,0.7808
390.5,0.7197
391.0,0.8484
391.5,0.8668
392.0,0.7313
392.5,0.6556
393.0,0.3653
393.5,0.2659
394.0,0.5418
394.5,0.6898
395.0,0.8429
395.5,0.8576
396.0,0.7447
396.5,0.4358
397.0,0.3275
397.5,0.6671
398.0,0.9357
398.5,0.9685
399.0,1.05
399.5,1.048
400.0,1.09
401.0,1.122
402.0,1.186
403.0,1.129
404.0,1.115
405.0,1.117
406.0,1.101
407.0,1.086
408.0,1.131
409.0,1.214
410.0,1.062
411.0,1.153
412.0,1.241
413.0,1.213
414.0,1.23
415.0,1.235
416.0,1.259
417.0,1.231
418.0,1.211
419.0,1.229
420.0,1.226
421.0,1.285
422.0,1.224
423.0,1.198
424.0,1.27
425.0,1.27
426.0,1.238
427.0,1.217
428.0,1.188
429.0,1.127
430.0,0.9875
431.0,0.981
432.0,1.268
433.0,1.277
434.0,1.188
435.0,1.243
436.0,1.402
437.0,1.385
438.0,1.263
439.0,1.309
440.0,1.352
441.0,1.403
442.0,1.507
443.0,1.471
444.0,1.504
445.0,1.475
446.0,1.408
447.0,1.524
448.0,1.551
449.0,1.558
450.0,1.603
451.0,1.665
452.0,1.606
453.0,1.513
454.0,1.58
455.0,1.592
456.0,1.632
457.0,1.662
458.0,1.608
459.0,1.602
460.0,1.608
461.0,1.647
462.0,1.661
463.0,1.652
464.0,1.625
465.0,1.606
466.0,1.622
467.0,1.595
468.0,1.616
469.0,1.627
470.0,1.577
471.0,1.577
472.0,1.663
473.0,1.644
474.0,1.649
475.0,1.667
476.0,1.62
477.0,1.628
478.0,1.674
479.0,1.665
480.0,1.669
481.0,1.701
482.0,1.71
483.0,1.69
484.0,1.656
485.0,1.579
486.0,1.381
487.0,1.448
488.0,1.59
489.0,1.598
490.0,1.682
491.0,1.653
492.0,1.563
493.0,1.615
494.0,1.633
495.0,1.648
496.0,1.66
497.0,1.687
498.0,1.61
499.0,1.632
500.0,1.587
501.0,1.56
502.0,1.541
503.0,1.607
504.0,1.574
505.0,1.627
506.0,1.681
507.0,1.6
508.0,1.55
509.0,1.594
510.0,1.585
511.0,1.628
512.0,1.647
513.0,1.559
514.0,1.55
515.0,1.535
516.0,1.533
517.0,1.363
518.0,1.434
519.0,1.505
520.0,1.561
521.0,1.577
522.0,1.58
523.0,1.553
524.0,1.611
525.0,1.632
526.0,1.561
527.0,1.473
528.0,1.559
529.0,1.645
530.0,1.623
531.0,1.649
532.0,1.593
533.0,1.548
534.0,1.594
535.0,1.629
536.0,1.645
537.0,1.58
538.0,1.609
539.0,1.596
540.0,1.531
541.0,1.544
542.0,1.594
543.0,1.577
544.0,1.607
545.0,1.602
546.0,1.611
547.0,1.61
548.0,1.591
549.0,1.597
550.0,1.616
551.0,1.598
552.0,1.61
553.0,1.582
554.0,1.621
555.0,1.625
556.0,1.605
557.0,1.557
558.0,1.546
559.0,1.519
560.0,1.539
561.0,1.561
562.0,1.551
563.0,1.596
564.0,1.554
565.0,1.542
566.0,1.521
567.0,1.551
568.0,1.541
569.0,1.51
570.0,1.51
571.0,1.5
572.0,1.54
573.0,1.558
574.0,1.554
575.0,1.527
576.0,1.514
577.0,1.531
578.0,1.507
579.0,1.511
580.0,1.537
581.0,1.542
582.0,1.57
583.0,1.572
584.0,1.585
585.0,1.546
586.0,1.515
587.0,1.551
588.0,1.52
589.0,1.361
590.0,1.422
591.0,1.498
592.0,1.484
593.0,1.501
594.0,1.493
595.0,1.461
596.0,1.509
597.0,1.496
598.0,1.489
599.0,1.49
600.0,1.49
601.0,1.476
602.0,1.466
603.0,1.49
604.0,1.515
605.0,1.507
606.0,1.5
607.0,1.514
608.0,1.497
609.0,1.499
610.0,1.488
611.0,1.496
612.0,1.491
613.0,1.472
614.0,1.452
615.0,1.483
616.0,1.434
617.0,1.431
618.0,1.486
619.0,1.471
620.0,1.481
621.0,1.484
622.0,1.468
623.0,1.447
624.0,1.421
625.0,1.418
626.0,1.44
627.0,1.459
628.0,1.391
629.0,1.435
630.0,1.403
631.0,1.426
632.0,1.408
633.0,1.447
634.0,1.43
635.0,1.451
636.0,1.431
637.0,1.453
638.0,1.466
639.0,1.448
640.0,1.434
641.0,1.432
642.0,1.425
643.0,1.444
644.0,1.439
645.0,1.442
646.0,1.412
647.0,1.403
648.0,1.406
649.0,1.38
650.0,1.377
651.0,1.435
652.0,1.387
653.0,1.416
654.0,1.4
655.0,1.354
656.0,1.196
657.0,1.228
658.0,1.374
659.0,1.383
660.0,1.388
661.0,1.398
662.0,1.403
663.0,1.375
664.0,1.389
665.0,1.388
666.0,1.388
667.0,1.386
668.0,1.386
669.0,1.407
670.0,1.401
671.0,1.401
672.0,1.389
673.0,1.409
674.0,1.404
675.0,1.391
676.0,1.401
677.0,1.387
678.0,1.39
679.0,1.368
680.0,1.379
681.0,1.37
682.0,1.368
683.0,1.366
684.0,1.36
685.0,1.371
686.0,1.364
687.0,1.029
688.0,1.145
689.0,1.148
690.0,1.184
691.0,1.225
692.0,1.252
693.0,1.244
694.0,1.235
695.0,1.271
696.0,1.274
697.0,1.332
698.0,1.312
699.0,1.293
700.0,1.278
701.0,1.269
702.0,1.274
703.0,1.276
704.0,1.31
705.0,1.312
706.0,1.308
707.0,1.308
708.0,1.312
709.0,1.309
710.0,1.312
711.0,1.309
712.0,1.303
713.0,1.292
714.0,1.296
715.0,1.26
716.0,1.262
717.0,1.141
718.0,1.057
719.0,0.9739
720.0,1.023
721.0,1.1
722.0,1.227
723.0,1.159
724.0,1.064
725.0,1.053
726.0,1.098
727.0,1.104
728.0,1.053
729.0,1.076
730.0,1.137
731.0,1.094
732.0,1.153
733.0,1.203
734.0,1.228
735.0,1.205
736.0,1.203
737.0,1.209
738.0,1.217
739.0,1.193
740.0,1.221
741.0,1.207
742.0,1.206
743.0,1.237
744.0,1.232
745.0,1.232
746.0,1.238
747.0,1.24
748.0,1.238
749.0,1.224
750.0,1.223
751.0,1.211
752.0,1.216
753.0,1.222
754.0,1.225
755.0,1.218
756.0,1.218
757.0,1.22
758.0,1.205
759.0,1.187
760.0,0.3365
761.0,0.2132
762.0,0.7365
763.0,0.4538
764.0,0.6043
765.0,0.7374
766.0,0.8417
767.0,1.002
768.0,1.109
769.0,1.123
770.0,1.15
771.0,1.154
772.0,1.155
773.0,1.163
774.0,1.157
775.0,1.148
776.0,1.162
777.0,1.147
778.0,1.14
779.0,1.141
780.0,1.135
781.0,1.136
782.0,1.143
783.0,1.123
784.0,1.128
785.0,1.121
786.0,1.133
787.0,1.118
788.0,1.107
789.0,1.107
790.0,1.085
791.0,1.088
792.0,1.079
793.0,1.062
794.0,1.073
795.0,1.093
796.0,1.07
797.0,1.071
798.0,1.093
799.0,1.088
800.0,1.072
801.0,1.071
802.0,1.068
803.0,1.061
804.0,1.061
805.0,1.055
806.0,1.081
807.0,1.069
808.0,1.069
809.0,1.053
810.0,1.047
811.0,1.052
812.0,1.029
813.0,1.012
814.0,0.9141
815.0,0.9079
816.0,0.849
817.0,0.8614
818.0,0.8345
819.0,0.9122
820.0,0.8675
821.0,0.986
822.0,0.9626
823.0,0.7005
824.0,0.9441
825.0,0.9708
826.0,0.9424
827.0,0.9856
828.0,0.8609
829.0,0.9352
830.0,0.9258
831.0,0.9281
832.0,0.9044
833.0,0.9488
834.0,0.9237
835.0,0.997
836.0,0.9653
837.0,0.9992
838.0,0.9729
839.0,0.9833
840.0,1.004
841.0,0.9916
842.0,0.9906
843.0,0.9869
844.0,0.975
845.0,1.006
846.0,1.001
847.0,0.9812
848.0,0.9766
849.0,0.9489
850.0,0.909
851.0,0.9641
852.0,0.9567
853.0,0.9197
854.0,0.7952
855.0,0.8722
856.0,0.9539
857.0,0.9743
858.0,0.9676
859.0,0.9679
860.0,0.9692
861.0,0.9641
862.0,0.9791
863.0,1.002
864.0,0.9522
865.0,0.9438
866.0,0.8487
867.0,0.8857
868.0,0.9638
869.0,0.9438
870.0,0.9708
871.0,0.9576
872.0,0.9542
873.0,0.9524
874.0,0.9411
875.0,0.9221
876.0,0.9319
877.0,0.9412
878.0,0.9518
879.0,0.9371
880.0,0.9171
881.0,0.9041
882.0,0.9239
883.0,0.9262
884.0,0.9223
885.0,0.9293
886.0,0.8882
887.0,0.8958
888.0,0.9103
889.0,0.9185
890.0,0.9135
891.0,0.9106
892.0,0.8876
893.0,0.8643
894.0,0.8418
895.0,0.8057
896.0,0.7643
897.0,0.6711
898.0,0.7237
899.0,0.5689
900.0,0.7325
901.0,0.5952
902.0,0.6748
903.0,0.6889
904.0,0.836
905.0,0.8119
906.0,0.7638
907.0,0.642
908.0,0.652
909.0,0.6956
910.0,0.6338
911.0,0.6646
912.0,0.6902
913.0,0.6441
914.0,0.6355
915.0,0.6864
916.0,0.5876
917.0,0.7243
918.0,0.6028
919.0,0.733
920.0,0.7317
921.0,0.7583
922.0,0.6912
923.0,0.732
924.0,0.709
925.0,0.6942
926.0,0.7015
927.0,0.7726
928.0,0.6033
929.0,0.5606
930.0,0.457
931.0,0.4301
932.0,0.3262
933.0,0.2746
934.0,0.1707
935.0,0.2732
936.0,0.1831
937.0,0.1875
938.0,0.2254
939.0,0.4169
940.0,0.4901
941.0,0.3856
942.0,0.4361
943.0,0.2994
944.0,0.3046
945.0,0.395
946.0,0.2181
947.0,0.401
948.0,0.2978
949.0,0.5196
950.0,0.172
951.0,0.5088
952.0,0.2963
953.0,0.3676
954.0,0.4345
955.0,0.37
956.0,0.3526
957.0,0.2991
958.0,0.4756
959.0,0.3951
960.0,0.4421
961.0,0.4832
962.0,0.4591
963.0,0.5178
964.0,0.4784
965.0,0.5144
966.0,0.5175
967.0,0.5162
968.0,0.6539
969.0,0.6852
970.0,0.635
971.0,0.7102
972.0,0.6826
973.0,0.611
974.0,0.5828
975.0,0.5981
976.0,0.5766
977.0,0.6391
978.0,0.6143
979.0,0.6379
980.0,0.6035
981.0,0.7056
982.0,0.6806
983.0,0.6571
984.0,0.7206
985.0,0.6779
986.0,0.7294
987.0,0.7192
988.0,0.718
989.0,0.7248
990.0,0.7133
991.0,0.7275
992.0,0.7313
993.0,0.7191
994.0,0.7307
995.0,0.7293
996.0,0.7267
997.0,0.7275
998.0,0.7243
999.0,0.7215
1000.0,0.7174
1001.0,0.7253
1002.0,0.7094
1003.0,0.7128
1004.0,0.6964
1005.0,0.6695
1006.0,0.6964
1007.0,0.7108
1008.0,0.7077
1009.0,0.7047
1010.0,0.7022
1011.0,0.7072
1012.0,0.7019
1013.0,0.7053
1014.0,0.7004
1015.0,0.6959
1016.0,0.6929
1017.0,0.6948
1018.0,0.6917
1019.0,0.6785
1020.0,0.6884
1021.0,0.6872
1022.0,0.6824
1023.0,0.6898
1024.0,0.6824
1025.0,0.6888
1026.0,0.6863
1027.0,0.6846
1028.0,0.6834
1029.0,0.6754
1030.0,0.6795
1031.0,0.6771
1032.0,0.6749
1033.0,0.6648
1034.0,0.6648
1035.0,0.6669
1036.0,0.6706
1037.0,0.6596
1038.0,0.6626
1039.0,0.6624
1040.0,0.6597
1041.0,0.6625
1042.0,0.6579
1043.0,0.6559
1044.0,0.6583
1045.0,0.6495
1046.0,0.6425
1047.0,0.6484
1048.0,0.652
1049.0,0.6498
1050.0,0.647
1051.0,0.6463
1052.0,0.6438
1053.0,0.6389
1054.0,0.6405
1055.0,0.6411
1056.0,0.6391
1057.0,0.6373
1058.0,0.6219
1059.0,0.6228
1060.0,0.622
1061.0,0.6214
1062.0,0.6249
1063.0,0.619
1064.0,0.6262
1065.0,0.6223
1066.0,0.6096
1067.0,0.6176
1068.0,0.6045
1069.0,0.5856
1070.0,0.6059
1071.0,0.614
1072.0,0.6079
1073.0,0.599
1074.0,0.6129
1075.0,0.5865
1076.0,0.6127
1077.0,0.6042
1078.0,0.5937
1079.0,0.6023
1080.0,0.595
1081.0,0.5779
1082.0,0.5836
1083.0,0.5845
1084.0,0.5778
1085.0,0.596
1086.0,0.5509
1087.0,0.5633
1088.0,0.5848
1089.0,0.5708
1090.0,0.5613
1091.0,0.584
1092.0,0.5816
1093.0,0.5059
1094.0,0.5337
1095.0,0.525
1096.0,0.5066
1097.0,0.568
1098.0,0.4999
1099.0,0.5195
1100.0,0.4889
1101.0,0.4932
1102.0,0.4745
1103.0,0.4724
1104.0,0.4728
1105.0,0.5089
1106.0,0.4114
1107.0,0.4876
1108.0,0.4268
1109.0,0.425
1110.0,0.485
1111.0,0.3474
1112.0,0.4207
1113.0,0.2873
1114.0,0.3185
1115.0,0.2647
1116.0,0.2237
1117.0,0.09662
1118.0,0.2384
1119.0,0.1295
1120.0,0.163
1121.0,0.2091
1122.0,0.09787
1123.0,0.147
1124.0,0.1242
1125.0,0.1594
1126.0,0.06545
1127.0,0.1789
1128.0,0.1176
1129.0,0.123
1130.0,0.08611
1131.0,0.3147
1132.0,0.2516
1133.0,0.1724
1134.0,0.05277
1135.0,0.01943
1136.0,0.1485
1137.0,0.3127
1138.0,0.2235
1139.0,0.3097
1140.0,0.2678
1141.0,0.2124
1142.0,0.2392
1143.0,0.3298
1144.0,0.1278
1145.0,0.1658
1146.0,0.179
1147.0,0.07358
1148.0,0.2857
1149.0,0.2356
1150.0,0.137
1151.0,0.222
1152.0,0.2645
1153.0,0.2514
1154.0,0.1633
1155.0,0.3234
1156.0,0.2958
1157.0,0.3255
1158.0,0.3216
1159.0,0.3407
1160.0,0.2989
1161.0,0.3545
1162.0,0.3572
1163.0,0.4599
1164.0,0.4029
1165.0,0.3876
1166.0,0.3799
1167.0,0.4095
1168.0,0.4155
1169.0,0.4224
1170.0,0.4526
1171.0,0.4425
1172.0,0.4468
1173.0,0.4517
1174.0,0.3409
1175.0,0.4386
1176.0,0.4736
1177.0,0.4601
1178.0,0.3596
1179.0,0.4771
1180.0,0.4354
1181.0,0.4483
1182.0,0.3246
1183.0,0.4393
1184.0,0.4167
1185.0,0.4064
1186.0,0.4673
1187.0,0.4495
1188.0,0.3312
1189.0,0.4199
1190.0,0.4567
1191.0,0.4411
1192.0,0.4622
1193.0,0.4457
1194.0,0.4575
1195.0,0.4379
1196.0,0.4252
1197.0,0.4548
1198.0,0.4204
1199.0,0.3697
1200.0,0.4406
1201.0,0.429
1202.0,0.4243
1203.0,0.4207
1204.0,0.375
1205.0,0.4305
1206.0,0.4687
1207.0,0.4243
1208.0,0.414
1209.0,0.4216
1210.0,0.4365
1211.0,0.4204
1212.0,0.4203
1213.0,0.4558
1214.0,0.4278
1215.0,0.421
1216.0,0.4542
1217.0,0.4445
1218.0,0.4507
1219.0,0.4462
1220.0,0.4509
1221.0,0.4541
1222.0,0.4437
1223.0,0.4405
1224.0,0.4395
1225.0,0.4513
1226.0,0.4529
1227.0,0.4238
1228.0,0.4539
1229.0,0.4529
1230.0,0.4463
1231.0,0.4553
1232.0,0.4527
1233.0,0.4418
1234.0,0.4539
1235.0,0.4517
1236.0,0.4545
1237.0,0.45
1238.0,0.453
1239.0,0.4472
1240.0,0.4487
1241.0,0.4477
1242.0,0.4457
1243.0,0.442
1244.0,0.4455
1245.0,0.4472
1246.0,0.4446
1247.0,0.4432
1248.0,0.4435
1249.0,0.4443
1250.0,0.442
1251.0,0.437
1252.0,0.4362
1253.0,0.4343
1254.0,0.4312
1255.0,0.4362
1256.0,0.4269
1257.0,0.4252
1258.0,0.4308
1259.0,0.4198
1260.0,0.4215
1261.0,0.4037
1262.0,0.3947
1263.0,0.3957
1264.0,0.3726
1265.0,0.393
1266.0,0.3825
1267.0,0.3862
1268.0,0.3711
1269.0,0.2641
1270.0,0.386
1271.0,0.4017
1272.0,0.4023
1273.0,0.3987
1274.0,0.3991
1275.0,0.4038
1276.0,0.4065
1277.0,0.4079
1278.0,0.4133
1279.0,0.4098
1280.0,0.4045
1281.0,0.3849
1282.0,0.369
1283.0,0.3978
1284.0,0.4077
1285.0,0.4101
1286.0,0.4147
1287.0,0.4101
1288.0,0.4096
1289.0,0.4002
1290.0,0.4057
1291.0,0.4107
1292.0,0.3927
1293.0,0.4044
1294.0,0.402
1295.0,0.4017
1296.0,0.388
1297.0,0.3707
1298.0,0.3918
1299.0,0.4043
1300.0,0.3548
1301.0,0.3631
1302.0,0.3903
1303.0,0.3488
1304.0,0.3094
1305.0,0.3833
1306.0,0.384
1307.0,0.312
1308.0,0.3475
1309.0,0.3819
1310.0,0.3066
1311.0,0.3358
1312.0,0.3286
1313.0,0.3241
1314.0,0.2945
1315.0,0.2933
1316.0,0.3325
1317.0,0.3163
1318.0,0.3389
1319.0,0.2793
1320.0,0.2674
1321.0,0.3065
1322.0,0.3116
1323.0,0.2465
1324.0,0.2738
1325.0,0.3283
1326.0,0.2895
1327.0,0.278
1328.0,0.2436
1329.0,0.1932
1330.0,0.2461
1331.0,0.1616
1332.0,0.1623
1333.0,0.2222
1334.0,0.1834
1335.0,0.2454
1336.0,0.2004
1337.0,0.1813
1338.0,0.1955
1339.0,0.193
1340.0,0.1846
1341.0,0.1874
1342.0,0.1964
1343.0,0.1492
1344.0,0.0892
1345.0,0.1263
1346.0,0.07439
1347.0,0.07755
1348.0,0.00782
1349.0,0.02453
1350.0,0.02318
1351.0,0.008306
1352.0,0.003289
1353.0,0.0002722
1354.0,0.0007029
1355.0,1.444e-05
1356.0,0.000139
1357.0,0.0002077
1358.0,1.647e-05
1359.0,4.054e-06
1360.0,9.578e-06
1361.0,4.677e-08
1362.0,2.557e-10
1363.0,1.49e-05
1364.0,6.795e-06
1365.0,1.903e-10
1366.0,5.407e-05
1367.0,2.086e-05
1368.0,6.764e-12
1369.0,2.688e-06
1370.0,1.751e-06
1371.0,1.466e-07
1372.0,1.161e-05
1373.0,0.0001437
1374.0,0.0004838
1375.0,0.0008592
1376.0,0.0006235
1377.0,0.0003098
1378.0,0.002514
1379.0,0.0001336
1380.0,0.0002289
1381.0,7.631e-06
1382.0,1.131e-05
1383.0,2.342e-07
1384.0,3.367e-06
1385.0,7.936e-06
1386.0,1.212e-05
1387.0,0.0005838
1388.0,1.288e-05
1389.0,0.00143
1390.0,0.001219
1391.0,0.0008896
1392.0,6.769e-05
1393.0,0.0002968
1394.0,0.0002471
1395.0,2.833e-06
1396.0,5.582e-08
1397.0,0.0001354
1398.0,0.002883
1399.0,0.00184
1400.0,3.477e-08
1401.0,8.73e-08
1402.0,0.003424
1403.0,0.004608
1404.0,0.001455
1405.0,1.76e-06
1406.0,0.00423
1407.0,0.0003638
1408.0,0.003406
1409.0,0.001444
1410.0,0.001035
1411.0,0.004006
1412.0,0.004838
1413.0,0.03451
1414.0,0.000798
1415.0,0.0004318
1416.0,0.04743
1417.0,0.01793
1418.0,0.02042
1419.0,0.003375
1420.0,0.01267
1421.0,0.01409
1422.0,0.06069
1423.0,0.01282
1424.0,0.02316
1425.0,0.03507
1426.0,0.03686
1427.0,0.06075
1428.0,0.007568
1429.0,0.04839
1430.0,0.07527
1431.0,0.08087
1432.0,0.006077
1433.0,0.0541
1434.0,0.02888
1435.0,0.03344
1436.0,0.05708
1437.0,0.04389
1438.0,0.02066
1439.0,0.07428
1440.0,0.05619
1441.0,0.04624
1442.0,0.05033
1443.0,0.05805
1444.0,0.07844
1445.0,0.06537
1446.0,0.03067
1447.0,0.04838
1448.0,0.1337
1449.0,0.1202
1450.0,0.0358
1451.0,0.01552
1452.0,0.07619
1453.0,0.09754
1454.0,0.1536
1455.0,0.07765
1456.0,0.1065
1457.0,0.1345
1458.0,0.1508
1459.0,0.1794
1460.0,0.0978
1461.0,0.1054
1462.0,0.1479
1463.0,0.05262
1464.0,0.1688
1465.0,0.103
1466.0,0.07974
1467.0,0.04604
1468.0,0.09172
