interpolation:linear
wavelength,value
280.0,2.067e-21
280.5,4.734e-20
281.0,2.265e-19
281.5,5.089e-18
282.0,3.32e-17
282.5,1.114e-16
283.0,4.237e-16
283.5,7.42e-16
284.0,1.334e-14
284.5,3.904e-14
285.0,7.655e-14
285.5,4.769e-13
286.0,2.054e-12
286.5,9.888e-12
287.0,2.922e-11
287.5,1.129e-10
288.0,4.1e-10
288.5,1.451e-09
289.0,4.316e-09
289.5,1.407e-08
290.0,4.095e-08
290.5,8.642e-08
291.0,1.901e-07
291.5,5.503e-07
292.0,1.257e-06
292.5,1.784e-06
293.0,3.836e-06
293.5,9.223e-06
294.0,1.444e-05
294.5,2.417e-05
295.0,3.988e-05
295.5,8.909e-05
296.0,0.0001517
296.5,0.0001875
297.0,0.0002296
297.5,0.0005295
298.0,0.0007352
298.5,0.0006714
299.0,0.001348
299.5,0.001893
300.0,0.001906
300.5,0.002518
301.0,0.003926
301.5,0.005487
302.0,0.004409
302.5,0.008045
303.0,0.01322
303.5,0.01577
304.0,0.01431
304.5,0.01932
305.0,0.02545
305.5,0.02678
306.0,0.02516
306.5,0.02975
307.0,0.03919
307.5,0.04661
308.0,0.04855
308.5,0.05447
309.0,0.04794
309.5,0.05174
310.0,0.05066
310.5,0.08119
311.0,0.09973
311.5,0.0956
312.0,0.09052
312.5,0.1063
313.0,0.1134
313.5,0.1128
314.0,0.1349
314.5,0.1124
315.0,0.1466
315.5,0.1272
316.0,0.1056
316.5,0.1452
317.0,0.1812
317.5,0.1919
318.0,0.1455
318.5,0.1702
319.0,0.1963
319.5,0.1691
320.0,0.2067
320.5,0.2434
321.0,0.2051
321.5,0.1962
322.0,0.2236
322.5,0.1946
323.0,0.1866
323.5,0.2146
324.0,0.2495
324.5,0.2593
325.0,0.2366
325.5,0.2953
326.0,0.3472
326.5,0.3402
327.0,0.3435
327.5,0.3369
328.0,0.3114
328.5,0.3152
329.0,0.3669
329.5,0.414
330.0,0.4223
330.5,0.3475
331.0,0.3581
331.5,0.3586
332.0,0.3786
332.5,0.3714
333.0,0.3741
333.5,0.3463
334.0,0.357
334.5,0.4043
335.0,0.3764
335.5,0.4275
336.0,0.2966
336.5,0.3617
337.0,0.3004
337.5,0.3759
338.0,0.3617
338.5,0.4084
339.0,0.4075
339.5,0.3916
340.0,0.4724
340.5,0.4264
341.0,0.4091
341.5,0.3798
342.0,0.456
342.5,0.4285
343.0,0.4706
343.5,0.443
344.0,0.3331
344.5,0.3299
345.0,0.4421
345.5,0.454
346.0,0.3875
346.5,0.4404
347.0,0.4725
347.5,0.3825
348.0,0.4389
348.5,0.4407
349.0,0.41
349.5,0.4067
350.0,0.5043
350.5,0.5332
351.0,0.4769
351.5,0.4625
352.0,0.4994
352.5,0.3914
353.0,0.4945
353.5,0.5304
354.0,0.5522
354.5,0.5614
355.0,0.5607
355.5,0.5076
356.0,0.5324
356.5,0.4557
357.0,0.3775
357.5,0.4633
358.0,0.3681
358.5,0.3153
359.0,0.442
359.5,0.5643
360.0,0.5997
360.5,0.4805
361.0,0.4389
361.5,0.5062
362.0,0.4383
362.5,0.6076
363.0,0.5466
363.5,0.5043
364.0,0.6178
364.5,0.5291
365.0,0.5399
365.5,0.6789
366.0,0.7205
366.5,0.6781
367.0,0.6617
367.5,0.688
368.0,0.6031
368.5,0.6096
369.0,0.6596
369.5,0.7043
370.0,0.7521
370.5,0.5847
371.0,0.6259
371.5,0.7845
372.0,0.5217
372.5,0.6266
373.0,0.6383
373.5,0.416
374.0,0.6055
374.5,0.5022
375.0,0.4891
375.5,0.7315
376.0,0.6075
376.5,0.6307
377.0,0.6688
377.5,0.7837
378.0,0.8511
378.5,0.806
379.0,0.6665
379.5,0.6101
380.0,0.6355
380.5,0.7709
381.0,0.7736
381.5,0.6141
382.0,0.5461
382.5,0.4662
383.0,0.4322
383.5,0.4169
384.0,0.4606
384.5,0.6784
385.0,0.6737
385.5,0.6283
386.0,0.5389
386.5,0.7088
387.0,0.5899
387.5,0.6637
388.0,0.6137
388.5,0.6074
389.0,0.6567
389.5,0.7965
390.0,0.8005
390.5,0.7377
391.0,0.8696
391.5,0.8883
392.0,0.7493
392.5,0.6717
393.0,0.3742
393.5,0.2723
394.0,0.5549
394.5,0.7063
395.0,0.8631
395.5,0.878
396.0,0.7623
396.5,0.4461
397.0,0.3352
397.5,0.6826
398.0,0.9574
398.5,0.9908
399.0,1.074
399.5,1.072
400.0,1.114
401.0,1.147
402.0,1.213
403.0,1.154
404.0,1.139
405.0,1.141
406.0,1.125
407.0,1.109
408.0,1.155
409.0,1.239
410.0,1.084
411.0,1.176
412.0,1.265
413.0,1.237
414.0,1.254
415.0,1.259
416.0,1.284
417.0,1.255
418.0,1.234
419.0,1.252
420.0,1.249
421.0,1.309
422.0,1.246
423.0,1.22
424.0,1.293
425.0,1.292
426.0,1.26
427.0,1.238
428.0,1.208
429.0,1.146
430.0,1.004
431.0,0.9973
432.0,1.289
433.0,1.298
434.0,1.208
435.0,1.263
436.0,1.425
437.0,1.406
438.0,1.282
439.0,1.329
440.0,1.373
441.0,1.424
442.0,1.53
443.0,1.493
444.0,1.527
445.0,1.496
446.0,1.429
447.0,1.546
448.0,1.573
449.0,1.58
450.0,1.626
451.0,1.688
452.0,1.628
453.0,1.533
454.0,1.602
455.0,1.614
456.0,1.654
457.0,1.684
458.0,1.629
459.0,1.622
460.0,1.629
461.0,1.668
462.0,1.682
463.0,1.673
464.0,1.646
465.0,1.625
466.0,1.642
467.0,1.615
468.0,1.636
469.0,1.646
470.0,1.596
471.0,1.595
472.0,1.683
473.0,1.663
474.0,1.669
475.0,1.686
476.0,1.639
477.0,1.647
478.0,1.694
479.0,1.684
480.0,1.688
481.0,1.72
482.0,1.729
483.0,1.708
484.0,1.674
485.0,1.596
486.0,1.396
487.0,1.463
488.0,1.607
489.0,1.614
490.0,1.699
491.0,1.67
492.0,1.579
493.0,1.632
494.0,1.649
495.0,1.664
496.0,1.676
497.0,1.704
498.0,1.625
499.0,1.648
500.0,1.602
501.0,1.575
502.0,1.556
503.0,1.623
504.0,1.589
505.0,1.642
506.0,1.697
507.0,1.616
508.0,1.565
509.0,1.609
510.0,1.6
511.0,1.643
512.0,1.661
513.0,1.574
514.0,1.563
515.0,1.549
516.0,1.546
517.0,1.375
518.0,1.446
519.0,1.518
520.0,1.575
521.0,1.591
522.0,1.594
523.0,1.567
524.0,1.625
525.0,1.646
526.0,1.574
527.0,1.485
528.0,1.573
529.0,1.66
530.0,1.637
531.0,1.663
532.0,1.607
533.0,1.561
534.0,1.608
535.0,1.643
536.0,1.658
537.0,1.593
538.0,1.622
539.0,1.609
540.0,1.544
541.0,1.557
542.0,1.608
543.0,1.59
544.0,1.62
545.0,1.615
546.0,1.625
547.0,1.624
548.0,1.604
549.0,1.61
550.0,1.63
551.0,1.61
552.0,1.622
553.0,1.594
554.0,1.634
555.0,1.638
556.0,1.618
557.0,1.569
558.0,1.559
559.0,1.531
560.0,1.552
561.0,1.573
562.0,1.564
563.0,1.609
564.0,1.566
565.0,1.554
566.0,1.533
567.0,1.564
568.0,1.554
569.0,1.524
570.0,1.523
571.0,1.513
572.0,1.554
573.0,1.572
574.0,1.568
575.0,1.541
576.0,1.527
577.0,1.544
578.0,1.52
579.0,1.524
580.0,1.549
581.0,1.555
582.0,1.582
583.0,1.584
584.0,1.597
585.0,1.558
586.0,1.526
587.0,1.562
588.0,1.532
589.0,1.373
590.0,1.435
591.0,1.51
592.0,1.497
593.0,1.513
594.0,1.506
595.0,1.474
596.0,1.521
597.0,1.508
598.0,1.501
599.0,1.501
600.0,1.501
601.0,1.487
602.0,1.477
603.0,1.501
604.0,1.526
605.0,1.518
606.0,1.511
607.0,1.525
608.0,1.507
609.0,1.509
610.0,1.498
611.0,1.505
612.0,1.501
613.0,1.482
614.0,1.461
615.0,1.492
616.0,1.443
617.0,1.44
618.0,1.495
619.0,1.48
620.0,1.49
621.0,1.493
622.0,1.477
623.0,1.456
624.0,1.43
625.0,1.427
626.0,1.449
627.0,1.468
628.0,1.403
629.0,1.445
630.0,1.413
631.0,1.435
632.0,1.417
633.0,1.456
634.0,1.438
635.0,1.46
636.0,1.439
637.0,1.461
638.0,1.473
639.0,1.456
640.0,1.441
641.0,1.439
642.0,1.432
643.0,1.451
644.0,1.446
645.0,1.449
646.0,1.42
647.0,1.411
648.0,1.414
649.0,1.388
650.0,1.384
651.0,1.442
652.0,1.395
653.0,1.423
654.0,1.407
655.0,1.361
656.0,1.202
657.0,1.234
658.0,1.38
659.0,1.389
660.0,1.394
661.0,1.404
662.0,1.409
663.0,1.381
664.0,1.394
665.0,1.394
666.0,1.394
667.0,1.392
668.0,1.391
669.0,1.413
670.0,1.406
671.0,1.406
672.0,1.394
673.0,1.414
674.0,1.409
675.0,1.396
676.0,1.405
677.0,1.391
678.0,1.395
679.0,1.372
680.0,1.383
681.0,1.374
682.0,1.373
683.0,1.37
684.0,1.364
685.0,1.375
686.0,1.368
687.0,1.047
688.0,1.159
689.0,1.161
690.0,1.196
691.0,1.234
692.0,1.26
693.0,1.252
694.0,1.243
695.0,1.278
696.0,1.28
697.0,1.337
698.0,1.317
699.0,1.299
700.0,1.284
701.0,1.275
702.0,1.279
703.0,1.282
704.0,1.315
705.0,1.317
706.0,1.313
707.0,1.313
708.0,1.316
709.0,1.314
710.0,1.316
711.0,1.313
712.0,1.307
713.0,1.296
714.0,1.3
715.0,1.265
716.0,1.267
717.0,1.15
718.0,1.067
719.0,0.9843
720.0,1.034
721.0,1.109
722.0,1.233
723.0,1.167
724.0,1.073
725.0,1.063
726.0,1.108
727.0,1.112
728.0,1.062
729.0,1.084
730.0,1.145
731.0,1.102
732.0,1.16
733.0,1.208
734.0,1.232
735.0,1.21
736.0,1.208
737.0,1.213
738.0,1.22
739.0,1.197
740.0,1.224
741.0,1.21
742.0,1.209
743.0,1.24
744.0,1.235
745.0,1.234
746.0,1.24
747.0,1.243
748.0,1.24
749.0,1.226
750.0,1.225
751.0,1.213
752.0,1.218
753.0,1.224
754.0,1.227
755.0,1.221
756.0,1.22
757.0,1.222
758.0,1.207
759.0,1.19
760.0,0.3587
761.0,0.2323
762.0,0.755
763.0,0.4767
764.0,0.6258
765.0,0.7559
766.0,0.8556
767.0,1.011
768.0,1.115
769.0,1.127
770.0,1.152
771.0,1.156
772.0,1.157
773.0,1.165
774.0,1.159
775.0,1.15
776.0,1.164
777.0,1.149
778.0,1.142
779.0,1.143
780.0,1.137
781.0,1.138
782.0,1.145
783.0,1.125
784.0,1.13
785.0,1.122
786.0,1.135
787.0,1.121
788.0,1.11
789.0,1.11
790.0,1.089
791.0,1.091
792.0,1.082
793.0,1.065
794.0,1.075
795.0,1.095
796.0,1.073
797.0,1.074
798.0,1.096
799.0,1.091
800.0,1.075
801.0,1.074
802.0,1.07
803.0,1.064
804.0,1.064
805.0,1.058
806.0,1.083
807.0,1.071
808.0,1.071
809.0,1.055
810.0,1.049
811.0,1.055
812.0,1.033
813.0,1.017
814.0,0.9211
815.0,0.9149
816.0,0.8561
817.0,0.8682
818.0,0.8417
819.0,0.9174
820.0,0.8735
821.0,0.9893
822.0,0.9665
823.0,0.7096
824.0,0.9489
825.0,0.9743
826.0,0.9469
827.0,0.989
828.0,0.8672
829.0,0.9394
830.0,0.9303
831.0,0.9324
832.0,0.9092
833.0,0.952
834.0,0.9279
835.0,0.9993
836.0,0.969
837.0,1.001
838.0,0.9756
839.0,0.9854
840.0,1.006
841.0,0.9938
842.0,0.9924
843.0,0.9883
844.0,0.9767
845.0,1.007
846.0,1.002
847.0,0.9823
848.0,0.9779
849.0,0.9502
850.0,0.9102
851.0,0.9655
852.0,0.958
853.0,0.9209
854.0,0.7963
855.0,0.8733
856.0,0.9551
857.0,0.9754
858.0,0.9687
859.0,0.9689
860.0,0.9702
861.0,0.9652
862.0,0.9801
863.0,1.003
864.0,0.9532
865.0,0.9448
866.0,0.8495
867.0,0.8866
868.0,0.9648
869.0,0.9447
870.0,0.9717
871.0,0.9585
872.0,0.9551
873.0,0.9533
874.0,0.942
875.0,0.923
876.0,0.9328
877.0,0.9421
878.0,0.9527
879.0,0.938
880.0,0.918
881.0,0.905
882.0,0.9249
883.0,0.9271
884.0,0.9232
885.0,0.9303
886.0,0.8894
887.0,0.8968
888.0,0.9115
889.0,0.9194
890.0,0.9147
891.0,0.9117
892.0,0.8891
893.0,0.8663
894.0,0.8448
895.0,0.81
896.0,0.7692
897.0,0.6776
898.0,0.7294
899.0,0.5762
900.0,0.737
901.0,0.6026
902.0,0.6797
903.0,0.695
904.0,0.8389
905.0,0.8155
906.0,0.7677
907.0,0.6484
908.0,0.6581
909.0,0.7006
910.0,0.641
911.0,0.6708
912.0,0.6958
913.0,0.6516
914.0,0.6425
915.0,0.6933
916.0,0.5948
917.0,0.7297
918.0,0.6102
919.0,0.738
920.0,0.7356
921.0,0.7617
922.0,0.6963
923.0,0.7352
924.0,0.7141
925.0,0.6994
926.0,0.7067
927.0,0.7764
928.0,0.6118
929.0,0.5699
930.0,0.4671
931.0,0.4391
932.0,0.3355
933.0,0.284
934.0,0.1797
935.0,0.2813
936.0,0.1905
937.0,0.1955
938.0,0.2342
939.0,0.4256
940.0,0.4987
941.0,0.3948
942.0,0.4448
943.0,0.3074
944.0,0.3112
945.0,0.4041
946.0,0.2258
947.0,0.4108
948.0,0.3057
949.0,0.5295
950.0,0.1801
951.0,0.5181
952.0,0.3056
953.0,0.3768
954.0,0.4427
955.0,0.3789
956.0,0.3606
957.0,0.3088
958.0,0.4822
959.0,0.4033
960.0,0.4511
961.0,0.4911
962.0,0.467
963.0,0.5249
964.0,0.4856
965.0,0.5211
966.0,0.5247
967.0,0.5236
968.0,0.6575
969.0,0.6891
970.0,0.6397
971.0,0.7128
972.0,0.6856
973.0,0.6163
974.0,0.5883
975.0,0.6027
976.0,0.5824
977.0,0.643
978.0,0.6191
979.0,0.6419
980.0,0.6081
981.0,0.708
982.0,0.6839
983.0,0.6608
984.0,0.7221
985.0,0.6811
986.0,0.7303
987.0,0.7207
988.0,0.7195
989.0,0.7255
990.0,0.7147
991.0,0.7282
992.0,0.732
993.0,0.7203
994.0,0.7313
995.0,0.7297
996.0,0.7273
997.0,0.728
998.0,0.7249
999.0,0.722
1000.0,0.7181
1001.0,0.7258
1002.0,0.7104
1003.0,0.7133
1004.0,0.6971
1005.0,0.6699
1006.0,0.697
1007.0,0.7113
1008.0,0.7083
1009.0,0.7055
1010.0,0.703
1011.0,0.7077
1012.0,0.7025
1013.0,0.7058
1014.0,0.7008
1015.0,0.6964
1016.0,0.6933
1017.0,0.6953
1018.0,0.6922
1019.0,0.6791
1020.0,0.6888
1021.0,0.6876
1022.0,0.6829
1023.0,0.6903
1024.0,0.6831
1025.0,0.6892
1026.0,0.6868
1027.0,0.6851
1028.0,0.6838
1029.0,0.6759
1030.0,0.68
1031.0,0.6775
1032.0,0.6754
1033.0,0.6652
1034.0,0.6652
1035.0,0.6673
1036.0,0.671
1037.0,0.66
1038.0,0.663
1039.0,0.6628
1040.0,0.6602
1041.0,0.663
1042.0,0.6584
1043.0,0.6564
1044.0,0.6588
1045.0,0.65
1046.0,0.643
1047.0,0.6489
1048.0,0.6526
1049.0,0.6504
1050.0,0.6476
1051.0,0.6469
1052.0,0.6444
1053.0,0.6395
1054.0,0.6411
1055.0,0.6418
1056.0,0.6398
1057.0,0.6381
1058.0,0.6226
1059.0,0.6236
1060.0,0.6228
1061.0,0.6222
1062.0,0.6258
1063.0,0.6198
1064.0,0.6271
1065.0,0.6232
1066.0,0.6104
1067.0,0.6185
1068.0,0.6055
1069.0,0.5865
1070.0,0.6069
1071.0,0.6147
1072.0,0.6089
1073.0,0.5999
1074.0,0.6136
1075.0,0.5878
1076.0,0.6134
1077.0,0.6053
1078.0,0.5948
1079.0,0.6029
1080.0,0.5961
1081.0,0.5792
1082.0,0.5844
1083.0,0.5852
1084.0,0.5793
1085.0,0.5969
1086.0,0.5529
1087.0,0.5645
1088.0,0.5856
1089.0,0.5722
1090.0,0.5631
1091.0,0.585
1092.0,0.5824
1093.0,0.5086
1094.0,0.5347
1095.0,0.5274
1096.0,0.5095
1097.0,0.5688
1098.0,0.503
1099.0,0.5223
1100.0,0.4926
1101.0,0.4966
1102.0,0.4783
1103.0,0.4767
1104.0,0.4769
1105.0,0.5119
1106.0,0.4174
1107.0,0.4912
1108.0,0.4321
1109.0,0.4299
1110.0,0.4887
1111.0,0.3531
1112.0,0.4254
1113.0,0.2938
1114.0,0.3252
1115.0,0.2704
1116.0,0.2305
1117.0,0.1021
1118.0,0.2448
1119.0,0.1349
1120.0,0.1697
1121.0,0.2164
1122.0,0.1029
1123.0,0.153
1124.0,0.1293
1125.0,0.1655
1126.0,0.06962
1127.0,0.1856
1128.0,0.1238
1129.0,0.1291
1130.0,0.09138
1131.0,0.3225
1132.0,0.2587
1133.0,0.1793
1134.0,0.05651
1135.0,0.02079
1136.0,0.1552
1137.0,0.3208
1138.0,0.2301
1139.0,0.3151
1140.0,0.274
1141.0,0.2186
1142.0,0.2453
1143.0,0.3367
1144.0,0.1327
1145.0,0.1724
1146.0,0.1861
1147.0,0.07835
1148.0,0.2917
1149.0,0.2419
1150.0,0.1424
1151.0,0.2285
1152.0,0.2709
1153.0,0.2564
1154.0,0.1704
1155.0,0.3291
1156.0,0.3017
1157.0,0.3312
1158.0,0.3271
1159.0,0.3456
1160.0,0.3045
1161.0,0.359
1162.0,0.3619
1163.0,0.4625
1164.0,0.4065
1165.0,0.3922
1166.0,0.3838
1167.0,0.4129
1168.0,0.4192
1169.0,0.4257
1170.0,0.4552
1171.0,0.4452
1172.0,0.4491
1173.0,0.4542
1174.0,0.3458
1175.0,0.4408
1176.0,0.4748
1177.0,0.462
1178.0,0.3633
1179.0,0.4782
1180.0,0.4379
1181.0,0.4506
1182.0,0.3286
1183.0,0.4412
1184.0,0.4193
1185.0,0.4095
1186.0,0.4689
1187.0,0.4517
1188.0,0.3354
1189.0,0.4221
1190.0,0.4583
1191.0,0.4435
1192.0,0.4637
1193.0,0.4475
1194.0,0.4591
1195.0,0.4401
1196.0,0.4278
1197.0,0.4559
1198.0,0.4221
1199.0,0.3729
1200.0,0.4424
1201.0,0.4313
1202.0,0.4263
1203.0,0.4227
1204.0,0.3778
1205.0,0.4321
1206.0,0.4694
1207.0,0.4264
1208.0,0.4157
1209.0,0.4231
1210.0,0.4377
1211.0,0.4222
1212.0,0.4227
1213.0,0.4568
1214.0,0.4299
1215.0,0.4233
1216.0,0.4552
1217.0,0.4458
1218.0,0.4517
1219.0,0.4474
1220.0,0.4519
1221.0,0.4549
1222.0,0.4448
1223.0,0.4417
1224.0,0.4408
1225.0,0.4521
1226.0,0.4535
1227.0,0.4252
1228.0,0.4544
1229.0,0.4535
1230.0,0.4471
1231.0,0.4556
1232.0,0.453
1233.0,0.4427
1234.0,0.4541
1235.0,0.452
1236.0,0.4547
1237.0,0.4504
1238.0,0.4532
1239.0,0.4474
1240.0,0.4488
1241.0,0.448
1242.0,0.4459
1243.0,0.4422
1244.0,0.4458
1245.0,0.4474
1246.0,0.4448
1247.0,0.4434
1248.0,0.4438
1249.0,0.4446
1250.0,0.4423
1251.0,0.4374
1252.0,0.4365
1253.0,0.4348
1254.0,0.4318
1255.0,0.4365
1256.0,0.4276
1257.0,0.426
1258.0,0.4312
1259.0,0.4208
1260.0,0.4224
1261.0,0.4053
1262.0,0.3967
1263.0,0.3977
1264.0,0.3754
1265.0,0.395
1266.0,0.385
1267.0,0.3884
1268.0,0.3737
1269.0,0.2706
1270.0,0.3883
1271.0,0.4032
1272.0,0.4037
1273.0,0.4002
1274.0,0.4005
1275.0,0.4051
1276.0,0.4077
1277.0,0.4089
1278.0,0.414
1279.0,0.4105
1280.0,0.4052
1281.0,0.3854
1282.0,0.3693
1283.0,0.3982
1284.0,0.4081
1285.0,0.4105
1286.0,0.4149
1287.0,0.4106
1288.0,0.41
1289.0,0.4011
1290.0,0.4061
1291.0,0.411
1292.0,0.3939
1293.0,0.405
1294.0,0.4026
1295.0,0.4024
1296.0,0.3893
1297.0,0.3725
1298.0,0.3928
1299.0,0.4047
1300.0,0.3569
1301.0,0.3649
1302.0,0.3912
1303.0,0.3507
1304.0,0.3128
1305.0,0.3844
1306.0,0.3851
1307.0,0.3148
1308.0,0.3492
1309.0,0.3831
1310.0,0.3094
1311.0,0.3378
1312.0,0.3308
1313.0,0.3265
1314.0,0.2973
1315.0,0.2964
1316.0,0.3347
1317.0,0.3186
1318.0,0.3406
1319.0,0.2828
1320.0,0.2704
1321.0,0.3092
1322.0,0.3146
1323.0,0.2506
1324.0,0.2773
1325.0,0.3306
1326.0,0.2925
1327.0,0.2813
1328.0,0.247
1329.0,0.1974
1330.0,0.2506
1331.0,0.1665
1332.0,0.1666
1333.0,0.2275
1334.0,0.1872
1335.0,0.2494
1336.0,0.2045
1337.0,0.1858
1338.0,0.2001
1339.0,0.1974
1340.0,0.1883
1341.0,0.1922
1342.0,0.2014
1343.0,0.1554
1344.0,0.09305
1345.0,0.1312
1346.0,0.07909
1347.0,0.08267
1348.0,0.008899
1349.0,0.02732
1350.0,0.02544
1351.0,0.009634
1352.0,0.004
1353.0,0.0003564
1354.0,0.0008846
1355.0,2.072e-05
1356.0,0.0001835
1357.0,0.0002731
1358.0,2.352e-05
1359.0,6.318e-06
1360.0,1.411e-05
1361.0,8.447e-08
1362.0,5.139e-10
1363.0,2.21e-05
1364.0,1.032e-05
1365.0,4.198e-10
1366.0,7.812e-05
1367.0,3.023e-05
1368.0,1.821e-11
1369.0,4.126e-06
1370.0,2.786e-06
1371.0,2.473e-07
1372.0,1.69e-05
1373.0,0.0001946
1374.0,0.0006266
1375.0,0.001102
1376.0,0.0007835
1377.0,0.0003944
1378.0,0.003094
1379.0,0.0001712
1380.0,0.0002991
1381.0,1.04e-05
1382.0,1.66e-05
1383.0,3.636e-07
1384.0,5.227e-06
1385.0,1.125e-05
1386.0,1.818e-05
1387.0,0.0007662
1388.0,1.748e-05
1389.0,0.001803
1390.0,0.00153
1391.0,0.001135
1392.0,8.907e-05
1393.0,0.0003791
1394.0,0.0003345
1395.0,4.132e-06
1396.0,9.841e-08
1397.0,0.0001764
1398.0,0.003547
1399.0,0.002273
1400.0,6.422e-08
1401.0,1.51e-07
1402.0,0.004023
1403.0,0.005451
1404.0,0.001731
1405.0,2.652e-06
1406.0,0.005081
1407.0,0.0004411
1408.0,0.004089
1409.0,0.001786
1410.0,0.001272
1411.0,0.004735
1412.0,0.005636
1413.0,0.03796
1414.0,0.0009788
1415.0,0.000539
1416.0,0.05099
1417.0,0.02
1418.0,0.02266
1419.0,0.00379
1420.0,0.0141
1421.0,0.01582
1422.0,0.06494
1423.0,0.01397
1424.0,0.02506
1425.0,0.03805
1426.0,0.03955
1427.0,0.06397
1428.0,0.008641
1429.0,0.05146
1430.0,0.07891
1431.0,0.08446
1432.0,0.006963
1433.0,0.05704
1434.0,0.03072
1435.0,0.03638
1436.0,0.06084
1437.0,0.04688
1438.0,0.02247
1439.0,0.07855
1440.0,0.05959
1441.0,0.04964
1442.0,0.05377
1443.0,0.06116
1444.0,0.08241
1445.0,0.06934
1446.0,0.03275
1447.0,0.05177
1448.0,0.1381
1449.0,0.125
1450.0,0.03832
1451.0,0.01686
1452.0,0.07989
1453.0,0.1018
1454.0,0.1579
1455.0,0.08082
1456.0,0.1113
1457.0,0.1389
1458.0,0.1543
1459.0,0.1838
1460.0,0.1011
1461.0,0.1095
1462.0,0.1525
1463.0,0.05531
1464.0,0.1728
1465.0,0.1057
1466.0,0.08357
1467.0,0.0491
1468.0,0.09569
1469.0,0.1144
