interpolation:linear
wavelength,value
280.0,7.746999999999999e-22
280.5,1.888e-20
281.0,9.240000000000001e-20
281.5,2.206e-18
282.0,1.493e-17
282.5,5.132e-17
283.0,2.007e-16
283.5,3.562e-16
284.0,6.82e-15
284.5,2.054e-14
285.0,4.154e-14
285.5,2.684e-13
286.0,1.174e-12
286.5,5.823e-12
287.0,1.76e-11
287.5,7.003e-11
288.0,2.639e-10
288.5,9.528e-10
289.0,2.891e-09
289.5,9.638e-09
290.0,2.857e-08
290.5,6.123e-08
291.0,1.372e-07
291.5,4.065e-07
292.0,9.465e-07
292.5,1.358e-06
293.0,2.96e-06
293.5,7.252e-06
294.0,1.15e-05
294.5,1.943e-05
295.0,3.245e-05
295.5,7.358e-05
296.0,0.0001266
296.5,0.000158
297.0,0.0001949
297.5,0.0004543
298.0,0.0006363
298.5,0.0005848
299.0,0.001181
299.5,0.001675
300.0,0.001695
300.5,0.00225
301.0,0.003534
301.5,0.004967
302.0,0.004003
302.5,0.007339
303.0,0.01213
303.5,0.01453
304.0,0.0132
304.5,0.01789
305.0,0.0237
305.5,0.02501
306.0,0.02353
306.5,0.02788
307.0,0.03687
307.5,0.044
308.0,0.04587
308.5,0.05155
309.0,0.04543
309.5,0.04922
310.0,0.04827
310.5,0.07743
311.0,0.09524
311.5,0.09136
312.0,0.08673
312.5,0.102
313.0,0.1089
313.5,0.1083
314.0,0.1297
314.5,0.1084
315.0,0.1414
315.5,0.1226
316.0,0.102
316.5,0.1405
317.0,0.1753
317.5,0.1856
318.0,0.1409
318.5,0.1651
319.0,0.1906
319.5,0.164
320.0,0.2005
320.5,0.2365
321.0,0.1996
321.5,0.191
322.0,0.2174
322.5,0.1892
323.0,0.1817
323.5,0.2092
324.0,0.2433
324.5,0.2528
325.0,0.2305
325.5,0.2879
326.0,0.3389
326.5,0.3323
327.0,0.3355
327.5,0.329
328.0,0.3039
328.5,0.308
329.0,0.3588
329.5,0.4049
330.0,0.413
330.5,0.3397
331.0,0.3502
331.5,0.3508
332.0,0.3706
332.5,0.3637
333.0,0.3663
333.5,0.3391
334.0,0.3495
334.5,0.396
335.0,0.3689
335.5,0.419
336.0,0.2908
336.5,0.3545
337.0,0.2944
337.5,0.3685
338.0,0.3547
338.5,0.4006
339.0,0.3998
339.5,0.3842
340.0,0.4635
340.5,0.4184
341.0,0.4015
341.5,0.3728
342.0,0.4476
342.5,0.4207
343.0,0.4621
343.5,0.435
344.0,0.3271
344.5,0.324
345.0,0.4344
345.5,0.446
346.0,0.3808
346.5,0.4328
347.0,0.4644
347.5,0.376
348.0,0.4315
348.5,0.4333
349.0,0.4031
349.5,0.3999
350.0,0.496
350.5,0.5245
351.0,0.4691
351.5,0.4549
352.0,0.4913
352.5,0.3851
353.0,0.4866
353.5,0.5219
354.0,0.5435
354.5,0.5526
355.0,0.5519
355.5,0.4998
356.0,0.5242
356.5,0.4488
357.0,0.3718
357.5,0.4563
358.0,0.3625
358.5,0.3106
359.0,0.4354
359.5,0.5559
360.0,0.5908
360.5,0.4734
361.0,0.4325
361.5,0.4988
362.0,0.432
362.5,0.5989
363.0,0.5388
363.5,0.4971
364.0,0.6091
364.5,0.5217
365.0,0.5324
365.5,0.6695
366.0,0.7106
366.5,0.6689
367.0,0.6527
367.5,0.6787
368.0,0.595
368.5,0.6015
369.0,0.6508
369.5,0.695
370.0,0.7422
370.5,0.5771
371.0,0.6177
371.5,0.7744
372.0,0.515
372.5,0.6186
373.0,0.6302
373.5,0.4107
374.0,0.5979
374.5,0.496
375.0,0.483
375.5,0.7225
376.0,0.6
376.5,0.623
377.0,0.6607
377.5,0.7742
378.0,0.8408
378.5,0.7964
379.0,0.6586
379.5,0.6029
380.0,0.628
380.5,0.7618
381.0,0.7646
381.5,0.607
382.0,0.5398
382.5,0.4608
383.0,0.4273
383.5,0.4122
384.0,0.4554
384.5,0.6708
385.0,0.6662
385.5,0.6213
386.0,0.5329
386.5,0.701
387.0,0.5835
387.5,0.6565
388.0,0.607
388.5,0.6009
389.0,0.6497
389.5,0.788
390.0,0.792
390.5,0.73
391.0,0.8605
391.5,0.8791
392.0,0.7416
392.5,0.6648
393.0,0.3704
393.5,0.2696
394.0,0.5493
394.5,0.6992
395.0,0.8544
395.5,0.8693
396.0,0.7547
396.5,0.4417
397.0,0.3319
397.5,0.6759
398.0,0.9481
398.5,0.9812
399.0,1.063
399.5,1.061
400.0,1.104
401.0,1.136
402.0,1.201
403.0,1.144
404.0,1.129
405.0,1.131
406.0,1.115
407.0,1.099
408.0,1.145
409.0,1.228
410.0,1.075
411.0,1.166
412.0,1.255
413.0,1.227
414.0,1.244
415.0,1.249
416.0,1.273
417.0,1.245
418.0,1.224
419.0,1.242
420.0,1.239
421.0,1.299
422.0,1.237
423.0,1.21
424.0,1.283
425.0,1.283
426.0,1.251
427.0,1.229
428.0,1.2
429.0,1.138
430.0,0.997
431.0,0.9903
432.0,1.28
433.0,1.289
434.0,1.199
435.0,1.255
436.0,1.415
437.0,1.397
438.0,1.274
439.0,1.321
440.0,1.364
441.0,1.415
442.0,1.52
443.0,1.483
444.0,1.517
445.0,1.487
446.0,1.42
447.0,1.536
448.0,1.564
449.0,1.571
450.0,1.616
451.0,1.678
452.0,1.619
453.0,1.524
454.0,1.593
455.0,1.605
456.0,1.645
457.0,1.674
458.0,1.62
459.0,1.613
460.0,1.62
461.0,1.659
462.0,1.673
463.0,1.664
464.0,1.637
465.0,1.617
466.0,1.634
467.0,1.606
468.0,1.627
469.0,1.638
470.0,1.588
471.0,1.587
472.0,1.674
473.0,1.655
474.0,1.66
475.0,1.678
476.0,1.631
477.0,1.638
478.0,1.685
479.0,1.676
480.0,1.68
481.0,1.712
482.0,1.721
483.0,1.7
484.0,1.667
485.0,1.589
486.0,1.389
487.0,1.457
488.0,1.6
489.0,1.607
490.0,1.691
491.0,1.663
492.0,1.572
493.0,1.625
494.0,1.642
495.0,1.657
496.0,1.669
497.0,1.697
498.0,1.619
499.0,1.641
500.0,1.596
501.0,1.569
502.0,1.55
503.0,1.616
504.0,1.583
505.0,1.636
506.0,1.69
507.0,1.609
508.0,1.559
509.0,1.602
510.0,1.594
511.0,1.637
512.0,1.655
513.0,1.568
514.0,1.557
515.0,1.543
516.0,1.541
517.0,1.37
518.0,1.441
519.0,1.513
520.0,1.569
521.0,1.585
522.0,1.588
523.0,1.561
524.0,1.619
525.0,1.64
526.0,1.568
527.0,1.48
528.0,1.567
529.0,1.654
530.0,1.631
531.0,1.657
532.0,1.601
533.0,1.555
534.0,1.602
535.0,1.637
536.0,1.652
537.0,1.588
538.0,1.616
539.0,1.604
540.0,1.539
541.0,1.552
542.0,1.602
543.0,1.585
544.0,1.614
545.0,1.61
546.0,1.619
547.0,1.618
548.0,1.599
549.0,1.604
550.0,1.624
551.0,1.605
552.0,1.617
553.0,1.589
554.0,1.628
555.0,1.632
556.0,1.612
557.0,1.564
558.0,1.553
559.0,1.526
560.0,1.547
561.0,1.568
562.0,1.559
563.0,1.603
564.0,1.561
565.0,1.549
566.0,1.528
567.0,1.559
568.0,1.548
569.0,1.518
570.0,1.517
571.0,1.507
572.0,1.548
573.0,1.566
574.0,1.562
575.0,1.535
576.0,1.522
577.0,1.538
578.0,1.514
579.0,1.518
580.0,1.544
581.0,1.55
582.0,1.577
583.0,1.579
584.0,1.592
585.0,1.553
586.0,1.522
587.0,1.557
588.0,1.527
589.0,1.368
590.0,1.43
591.0,1.505
592.0,1.491
593.0,1.508
594.0,1.501
595.0,1.469
596.0,1.516
597.0,1.503
598.0,1.496
599.0,1.496
600.0,1.496
601.0,1.482
602.0,1.472
603.0,1.496
604.0,1.521
605.0,1.513
606.0,1.506
607.0,1.52
608.0,1.503
609.0,1.505
610.0,1.494
611.0,1.501
612.0,1.497
613.0,1.478
614.0,1.457
615.0,1.488
616.0,1.439
617.0,1.436
618.0,1.491
619.0,1.476
620.0,1.486
621.0,1.489
622.0,1.473
623.0,1.452
624.0,1.427
625.0,1.424
626.0,1.445
627.0,1.464
628.0,1.398
629.0,1.441
630.0,1.409
631.0,1.431
632.0,1.413
633.0,1.452
634.0,1.435
635.0,1.456
636.0,1.435
637.0,1.458
638.0,1.47
639.0,1.453
640.0,1.438
641.0,1.436
642.0,1.429
643.0,1.448
644.0,1.443
645.0,1.446
646.0,1.417
647.0,1.408
648.0,1.411
649.0,1.384
650.0,1.381
651.0,1.439
652.0,1.391
653.0,1.42
654.0,1.404
655.0,1.358
656.0,1.199
657.0,1.232
658.0,1.377
659.0,1.386
660.0,1.391
661.0,1.401
662.0,1.406
663.0,1.378
664.0,1.392
665.0,1.391
666.0,1.392
667.0,1.389
668.0,1.389
669.0,1.41
670.0,1.404
671.0,1.404
672.0,1.391
673.0,1.412
674.0,1.407
675.0,1.394
676.0,1.403
677.0,1.389
678.0,1.393
679.0,1.37
680.0,1.381
681.0,1.372
682.0,1.371
683.0,1.369
684.0,1.362
685.0,1.373
686.0,1.366
687.0,1.039
688.0,1.153
689.0,1.155
690.0,1.191
691.0,1.23
692.0,1.257
693.0,1.249
694.0,1.239
695.0,1.275
696.0,1.277
697.0,1.335
698.0,1.315
699.0,1.297
700.0,1.282
701.0,1.273
702.0,1.277
703.0,1.28
704.0,1.313
705.0,1.315
706.0,1.311
707.0,1.311
708.0,1.314
709.0,1.312
710.0,1.314
711.0,1.311
712.0,1.305
713.0,1.294
714.0,1.299
715.0,1.263
716.0,1.265
717.0,1.146
718.0,1.063
719.0,0.9798
720.0,1.029
721.0,1.105
722.0,1.23
723.0,1.164
724.0,1.069
725.0,1.059
726.0,1.104
727.0,1.109
728.0,1.058
729.0,1.08
730.0,1.142
731.0,1.099
732.0,1.157
733.0,1.206
734.0,1.23
735.0,1.208
736.0,1.206
737.0,1.211
738.0,1.219
739.0,1.195
740.0,1.223
741.0,1.209
742.0,1.208
743.0,1.238
744.0,1.234
745.0,1.233
746.0,1.239
747.0,1.242
748.0,1.239
749.0,1.225
750.0,1.224
751.0,1.212
752.0,1.217
753.0,1.223
754.0,1.226
755.0,1.22
756.0,1.219
757.0,1.221
758.0,1.206
759.0,1.189
760.0,0.3491
761.0,0.224
762.0,0.7471
763.0,0.4668
764.0,0.6166
765.0,0.7479
766.0,0.8497
767.0,1.007
768.0,1.112
769.0,1.125
770.0,1.151
771.0,1.155
772.0,1.156
773.0,1.164
774.0,1.158
775.0,1.149
776.0,1.163
777.0,1.148
778.0,1.141
779.0,1.142
780.0,1.136
781.0,1.137
782.0,1.144
783.0,1.124
784.0,1.129
785.0,1.122
786.0,1.135
787.0,1.12
788.0,1.108
789.0,1.109
790.0,1.087
791.0,1.089
792.0,1.081
793.0,1.064
794.0,1.074
795.0,1.095
796.0,1.071
797.0,1.073
798.0,1.095
799.0,1.09
800.0,1.073
801.0,1.072
802.0,1.069
803.0,1.062
804.0,1.063
805.0,1.057
806.0,1.082
807.0,1.07
808.0,1.07
809.0,1.054
810.0,1.048
811.0,1.054
812.0,1.031
813.0,1.015
814.0,0.9181
815.0,0.9119
816.0,0.853
817.0,0.8653
818.0,0.8386
819.0,0.9152
820.0,0.8709
821.0,0.9879
822.0,0.9648
823.0,0.7056
824.0,0.9468
825.0,0.9728
826.0,0.945
827.0,0.9875
828.0,0.8645
829.0,0.9376
830.0,0.9284
831.0,0.9306
832.0,0.9071
833.0,0.9506
834.0,0.9261
835.0,0.9983
836.0,0.9674
837.0,1.0
838.0,0.9745
839.0,0.9845
840.0,1.005
841.0,0.9929
842.0,0.9917
843.0,0.9877
844.0,0.976
845.0,1.006
846.0,1.001
847.0,0.9818
848.0,0.9773
849.0,0.9497
850.0,0.9097
851.0,0.9649
852.0,0.9574
853.0,0.9204
854.0,0.7958
855.0,0.8728
856.0,0.9546
857.0,0.9749
858.0,0.9682
859.0,0.9685
860.0,0.9698
861.0,0.9647
862.0,0.9797
863.0,1.003
864.0,0.9527
865.0,0.9444
866.0,0.8492
867.0,0.8862
868.0,0.9644
869.0,0.9443
870.0,0.9713
871.0,0.9581
872.0,0.9547
873.0,0.9529
874.0,0.9416
875.0,0.9226
876.0,0.9324
877.0,0.9417
878.0,0.9523
879.0,0.9376
880.0,0.9176
881.0,0.9046
882.0,0.9245
883.0,0.9267
884.0,0.9228
885.0,0.9299
886.0,0.8889
887.0,0.8964
888.0,0.911
889.0,0.919
890.0,0.9141
891.0,0.9112
892.0,0.8885
893.0,0.8654
894.0,0.8436
895.0,0.8081
896.0,0.7671
897.0,0.6748
898.0,0.727
899.0,0.573
900.0,0.7351
901.0,0.5994
902.0,0.6776
903.0,0.6924
904.0,0.8377
905.0,0.814
906.0,0.766
907.0,0.6457
908.0,0.6555
909.0,0.6985
910.0,0.6379
911.0,0.6681
912.0,0.6934
913.0,0.6483
914.0,0.6395
915.0,0.6903
916.0,0.5917
917.0,0.7274
918.0,0.607
919.0,0.7359
920.0,0.7339
921.0,0.7602
922.0,0.6941
923.0,0.7338
924.0,0.7119
925.0,0.6971
926.0,0.7044
927.0,0.7748
928.0,0.6081
929.0,0.5659
930.0,0.4627
931.0,0.4352
932.0,0.3315
933.0,0.2799
934.0,0.1758
935.0,0.2778
936.0,0.1873
937.0,0.192
938.0,0.2304
939.0,0.4219
940.0,0.495
941.0,0.3908
942.0,0.4411
943.0,0.3039
944.0,0.3084
945.0,0.4002
946.0,0.2225
947.0,0.4065
948.0,0.3023
949.0,0.5253
950.0,0.1766
951.0,0.5141
952.0,0.3015
953.0,0.3729
954.0,0.4392
955.0,0.3751
956.0,0.3571
957.0,0.3046
958.0,0.4794
959.0,0.3998
960.0,0.4472
961.0,0.4877
962.0,0.4636
963.0,0.5218
964.0,0.4825
965.0,0.5182
966.0,0.5216
967.0,0.5204
968.0,0.6559
969.0,0.6874
970.0,0.6377
971.0,0.7117
972.0,0.6843
973.0,0.614
974.0,0.5859
975.0,0.6007
976.0,0.5799
977.0,0.6413
978.0,0.6171
979.0,0.6402
980.0,0.6061
981.0,0.707
982.0,0.6825
983.0,0.6592
984.0,0.7214
985.0,0.6797
986.0,0.7299
987.0,0.7201
988.0,0.7188
989.0,0.7252
990.0,0.7141
991.0,0.7279
992.0,0.7317
993.0,0.7198
994.0,0.7311
995.0,0.7295
996.0,0.727
997.0,0.7278
998.0,0.7246
999.0,0.7218
1000.0,0.7178
1001.0,0.7256
1002.0,0.71
1003.0,0.7131
1004.0,0.6968
1005.0,0.6698
1006.0,0.6967
1007.0,0.7111
1008.0,0.7081
1009.0,0.7052
1010.0,0.7027
1011.0,0.7075
1012.0,0.7022
1013.0,0.7056
1014.0,0.7006
1015.0,0.6962
1016.0,0.6931
1017.0,0.6951
1018.0,0.692
1019.0,0.6789
1020.0,0.6886
1021.0,0.6874
1022.0,0.6827
1023.0,0.6901
1024.0,0.6828
1025.0,0.6891
1026.0,0.6866
1027.0,0.6849
1028.0,0.6836
1029.0,0.6757
1030.0,0.6798
1031.0,0.6773
1032.0,0.6752
1033.0,0.6651
1034.0,0.6651
1035.0,0.6671
1036.0,0.6708
1037.0,0.6599
1038.0,0.6629
1039.0,0.6626
1040.0,0.66
1041.0,0.6628
1042.0,0.6582
1043.0,0.6562
1044.0,0.6586
1045.0,0.6498
1046.0,0.6427
1047.0,0.6487
1048.0,0.6524
1049.0,0.6502
1050.0,0.6473
1051.0,0.6466
1052.0,0.6441
1053.0,0.6392
1054.0,0.6408
1055.0,0.6415
1056.0,0.6395
1057.0,0.6377
1058.0,0.6223
1059.0,0.6233
1060.0,0.6224
1061.0,0.6219
1062.0,0.6254
1063.0,0.6195
1064.0,0.6267
1065.0,0.6228
1066.0,0.6101
1067.0,0.6182
1068.0,0.6051
1069.0,0.5861
1070.0,0.6065
1071.0,0.6144
1072.0,0.6085
1073.0,0.5995
1074.0,0.6133
1075.0,0.5873
1076.0,0.6131
1077.0,0.6048
1078.0,0.5943
1079.0,0.6026
1080.0,0.5956
1081.0,0.5786
1082.0,0.584
1083.0,0.5849
1084.0,0.5786
1085.0,0.5965
1086.0,0.552
1087.0,0.564
1088.0,0.5852
1089.0,0.5716
1090.0,0.5623
1091.0,0.5846
1092.0,0.5821
1093.0,0.5074
1094.0,0.5343
1095.0,0.5264
1096.0,0.5083
1097.0,0.5684
1098.0,0.5017
1099.0,0.5211
1100.0,0.491
1101.0,0.4952
1102.0,0.4767
1103.0,0.4749
1104.0,0.4751
1105.0,0.5106
1106.0,0.4148
1107.0,0.4897
1108.0,0.4298
1109.0,0.4278
1110.0,0.4871
1111.0,0.3506
1112.0,0.4234
1113.0,0.291
1114.0,0.3223
1115.0,0.2679
1116.0,0.2275
1117.0,0.09972
1118.0,0.242
1119.0,0.1325
1120.0,0.1668
1121.0,0.2133
1122.0,0.1007
1123.0,0.1504
1124.0,0.1271
1125.0,0.1628
1126.0,0.06781
1127.0,0.1827
1128.0,0.1211
1129.0,0.1265
1130.0,0.08908
1131.0,0.3192
1132.0,0.2556
1133.0,0.1763
1134.0,0.05488
1135.0,0.02019
1136.0,0.1523
1137.0,0.3173
1138.0,0.2272
1139.0,0.3128
1140.0,0.2713
1141.0,0.2159
1142.0,0.2427
1143.0,0.3337
1144.0,0.1306
1145.0,0.1696
1146.0,0.183
1147.0,0.07627
1148.0,0.2891
1149.0,0.2392
1150.0,0.1401
1151.0,0.2257
1152.0,0.2681
1153.0,0.2543
1154.0,0.1673
1155.0,0.3267
1156.0,0.2992
1157.0,0.3287
1158.0,0.3247
1159.0,0.3435
1160.0,0.3021
1161.0,0.3571
1162.0,0.3599
1163.0,0.4614
1164.0,0.405
1165.0,0.3902
1166.0,0.3821
1167.0,0.4115
1168.0,0.4176
1169.0,0.4243
1170.0,0.4541
1171.0,0.444
1172.0,0.4481
1173.0,0.4531
1174.0,0.3437
1175.0,0.4399
1176.0,0.4743
1177.0,0.4612
1178.0,0.3617
1179.0,0.4777
1180.0,0.4368
1181.0,0.4496
1182.0,0.3268
1183.0,0.4403
1184.0,0.4182
1185.0,0.4082
1186.0,0.4682
1187.0,0.4507
1188.0,0.3336
1189.0,0.4212
1190.0,0.4576
1191.0,0.4425
1192.0,0.4631
1193.0,0.4467
1194.0,0.4584
1195.0,0.4391
1196.0,0.4267
1197.0,0.4554
1198.0,0.4214
1199.0,0.3715
1200.0,0.4416
1201.0,0.4303
1202.0,0.4254
1203.0,0.4219
1204.0,0.3766
1205.0,0.4314
1206.0,0.4691
1207.0,0.4255
1208.0,0.415
1209.0,0.4225
1210.0,0.4372
1211.0,0.4214
1212.0,0.4217
1213.0,0.4564
1214.0,0.429
1215.0,0.4223
1216.0,0.4547
1217.0,0.4453
1218.0,0.4513
1219.0,0.4469
1220.0,0.4514
1221.0,0.4545
1222.0,0.4443
1223.0,0.4412
1224.0,0.4402
1225.0,0.4517
1226.0,0.4532
1227.0,0.4246
1228.0,0.4542
1229.0,0.4532
1230.0,0.4467
1231.0,0.4555
1232.0,0.4529
1233.0,0.4424
1234.0,0.454
1235.0,0.4519
1236.0,0.4546
1237.0,0.4503
1238.0,0.4531
1239.0,0.4473
1240.0,0.4488
1241.0,0.4479
1242.0,0.4458
1243.0,0.4421
1244.0,0.4457
1245.0,0.4473
1246.0,0.4447
1247.0,0.4433
1248.0,0.4436
1249.0,0.4445
1250.0,0.4421
1251.0,0.4372
1252.0,0.4364
1253.0,0.4346
1254.0,0.4316
1255.0,0.4364
1256.0,0.4273
1257.0,0.4256
1258.0,0.431
1259.0,0.4204
1260.0,0.422
1261.0,0.4046
1262.0,0.3959
1263.0,0.3968
1264.0,0.3742
1265.0,0.3941
1266.0,0.3839
1267.0,0.3874
1268.0,0.3726
1269.0,0.2678
1270.0,0.3873
1271.0,0.4025
1272.0,0.4031
1273.0,0.3996
1274.0,0.3999
1275.0,0.4045
1276.0,0.4072
1277.0,0.4085
1278.0,0.4137
1279.0,0.4102
1280.0,0.4049
1281.0,0.3852
1282.0,0.3692
1283.0,0.398
1284.0,0.408
1285.0,0.4104
1286.0,0.4148
1287.0,0.4104
1288.0,0.4098
1289.0,0.4007
1290.0,0.4059
1291.0,0.4109
1292.0,0.3934
1293.0,0.4047
1294.0,0.4023
1295.0,0.4021
1296.0,0.3888
1297.0,0.3718
1298.0,0.3924
1299.0,0.4046
1300.0,0.356
1301.0,0.3641
1302.0,0.3908
1303.0,0.3499
1304.0,0.3113
1305.0,0.3839
1306.0,0.3846
1307.0,0.3136
1308.0,0.3484
1309.0,0.3826
1310.0,0.3082
1311.0,0.3369
1312.0,0.3299
1313.0,0.3255
1314.0,0.2961
1315.0,0.2951
1316.0,0.3337
1317.0,0.3176
1318.0,0.3399
1319.0,0.2813
1320.0,0.2691
1321.0,0.3081
1322.0,0.3133
1323.0,0.2489
1324.0,0.2758
1325.0,0.3296
1326.0,0.2912
1327.0,0.2799
1328.0,0.2456
1329.0,0.1956
1330.0,0.2487
1331.0,0.1644
1332.0,0.1648
1333.0,0.2252
1334.0,0.1856
1335.0,0.2477
1336.0,0.2028
1337.0,0.1839
1338.0,0.1981
1339.0,0.1955
1340.0,0.1867
1341.0,0.1901
1342.0,0.1992
1343.0,0.1527
1344.0,0.09138
1345.0,0.1291
1346.0,0.07704
1347.0,0.08045
1348.0,0.008419
1349.0,0.02609
1350.0,0.02445
1351.0,0.009041
1352.0,0.003679
1353.0,0.0003175
1354.0,0.0008017
1355.0,1.775e-05
1356.0,0.0001629
1357.0,0.0002429
1358.0,2.019e-05
1359.0,5.226e-06
1360.0,1.196e-05
1361.0,6.559e-08
1362.0,3.811e-10
1363.0,1.867e-05
1364.0,8.629e-06
1365.0,2.992e-10
1366.0,6.676e-05
1367.0,2.579e-05
1368.0,1.192e-11
1369.0,3.434e-06
1370.0,2.284e-06
1371.0,1.977e-07
1372.0,1.439e-05
1373.0,0.0001709
1374.0,0.000561
1375.0,0.0009907
1376.0,0.0007105
1377.0,0.0003557
1378.0,0.002832
1379.0,0.000154
1380.0,0.0002667
1381.0,9.109e-06
1382.0,1.409e-05
1383.0,3.011e-07
1384.0,4.33e-06
1385.0,9.688e-06
1386.0,1.529e-05
1387.0,0.0006822
1388.0,1.534e-05
1389.0,0.001633
1390.0,0.001389
1391.0,0.001023
1392.0,7.918e-05
1393.0,0.0003414
1394.0,0.0002939
1395.0,3.515e-06
1396.0,7.72e-08
1397.0,0.0001575
1398.0,0.003246
1399.0,0.002077
1400.0,4.939e-08
1401.0,1.194e-07
1402.0,0.003754
1403.0,0.005073
1404.0,0.001607
1405.0,2.225e-06
1406.0,0.004698
1407.0,0.0004061
1408.0,0.003782
1409.0,0.001631
1410.0,0.001164
1411.0,0.004408
1412.0,0.005279
1413.0,0.03644
1414.0,0.0008968
1415.0,0.0004901
1416.0,0.04943
1417.0,0.01908
1418.0,0.02168
1419.0,0.003606
1420.0,0.01347
1421.0,0.01505
1422.0,0.06309
1423.0,0.01347
1424.0,0.02423
1425.0,0.03674
1426.0,0.03837
1427.0,0.06257
1428.0,0.008164
1429.0,0.05012
1430.0,0.07733
1431.0,0.08291
1432.0,0.006569
1433.0,0.05576
1434.0,0.02992
1435.0,0.03509
1436.0,0.0592
1437.0,0.04557
1438.0,0.02167
1439.0,0.0767
1440.0,0.05811
1441.0,0.04815
1442.0,0.05228
1443.0,0.05981
1444.0,0.08069
1445.0,0.06761
1446.0,0.03185
1447.0,0.05029
1448.0,0.1362
1449.0,0.1229
1450.0,0.03722
1451.0,0.01627
1452.0,0.07829
1453.0,0.09994
1454.0,0.1561
1455.0,0.07945
1456.0,0.1092
1457.0,0.137
1458.0,0.1528
1459.0,0.1819
1460.0,0.09969
1461.0,0.1077
1462.0,0.1505
1463.0,0.05414
1464.0,0.1711
1465.0,0.1046
1466.0,0.08191
1467.0,0.04776
