interpolation:linear
wavelength,value
280.0,1.9690000000000001e-28
280.5,1.2590000000000001e-26
281.0,8.774000000000001e-26
281.5,5.3279999999999996e-24
282.0,6.359999999999999e-23
282.5,3.2049999999999997e-22
283.0,1.908e-21
283.5,4.177e-21
284.0,2.119e-19
284.5,9.947e-19
285.0,3.252e-18
285.5,3.698e-17
286.0,2.033e-16
286.5,1.614e-15
287.0,6.902e-15
287.5,4.328e-14
288.0,2.893e-13
288.5,1.416e-12
289.0,5.883e-12
289.5,2.77e-11
290.0,1.089e-10
290.5,2.957e-10
291.0,8.808e-10
291.5,3.751e-09
292.0,1.173e-08
292.5,1.986e-08
293.0,5.357e-08
293.5,1.755e-07
294.0,3.386e-07
294.5,6.632e-07
295.0,1.334e-06
295.5,3.808e-06
296.0,7.667e-06
296.5,1.111e-05
297.0,1.543e-05
297.5,4.247e-05
298.0,6.801e-05
298.5,6.906e-05
299.0,0.0001531
299.5,0.0002519
300.0,0.0002754
300.5,0.0003946
301.0,0.0006918
301.5,0.001063
302.0,0.0008945
302.5,0.001771
303.0,0.003216
303.5,0.004062
304.0,0.00379
304.5,0.005466
305.0,0.007847
305.5,0.008694
306.0,0.008347
306.5,0.01019
307.0,0.01433
307.5,0.01806
308.0,0.01904
308.5,0.02197
309.0,0.01978
309.5,0.02267
310.0,0.02282
310.5,0.03714
311.0,0.04667
311.5,0.04525
312.0,0.04474
312.5,0.05405
313.0,0.05856
313.5,0.05775
314.0,0.07128
314.5,0.06176
315.0,0.08128
315.5,0.06956
316.0,0.05958
316.5,0.08404
317.0,0.1051
317.5,0.1109
318.0,0.08559
318.5,0.1032
319.0,0.1209
319.5,0.1023
320.0,0.1249
320.5,0.1515
321.0,0.1308
321.5,0.1257
322.0,0.1403
322.5,0.1226
323.0,0.1197
323.5,0.1414
324.0,0.1653
324.5,0.1708
325.0,0.1536
325.5,0.1945
326.0,0.2329
326.5,0.2309
327.0,0.2329
327.5,0.2279
328.0,0.2081
328.5,0.2148
329.0,0.2534
329.5,0.2874
330.0,0.2931
330.5,0.2398
331.0,0.2469
331.5,0.2494
332.0,0.2662
332.5,0.2625
333.0,0.2645
333.5,0.2439
334.0,0.2517
334.5,0.2876
335.0,0.2692
335.5,0.3069
336.0,0.2134
336.5,0.2599
337.0,0.2157
337.5,0.2702
338.0,0.2618
338.5,0.2968
339.0,0.2969
339.5,0.2858
340.0,0.3446
340.5,0.3117
341.0,0.3003
341.5,0.2796
342.0,0.3364
342.5,0.3167
343.0,0.3483
343.5,0.3282
344.0,0.2466
344.5,0.2451
345.0,0.3296
345.5,0.3393
346.0,0.2902
346.5,0.3304
347.0,0.355
347.5,0.2879
348.0,0.331
348.5,0.3329
349.0,0.3103
349.5,0.3084
350.0,0.3831
350.5,0.4057
351.0,0.3633
351.5,0.3526
352.0,0.3816
352.5,0.2996
353.0,0.3793
353.5,0.4074
354.0,0.4247
354.5,0.4324
355.0,0.4324
355.5,0.3922
356.0,0.412
356.5,0.3531
357.0,0.2928
357.5,0.3598
358.0,0.2863
358.5,0.2455
359.0,0.3446
359.5,0.4404
360.0,0.4686
360.5,0.376
361.0,0.344
361.5,0.3974
362.0,0.3448
362.5,0.4788
363.0,0.4314
363.5,0.3987
364.0,0.4891
364.5,0.4195
365.0,0.4286
365.5,0.5396
366.0,0.5736
366.5,0.5406
367.0,0.5281
367.5,0.5498
368.0,0.4826
368.5,0.4884
369.0,0.5291
369.5,0.5657
370.0,0.6048
370.5,0.4708
371.0,0.5046
371.5,0.6332
372.0,0.4215
372.5,0.5068
373.0,0.517
373.5,0.3373
374.0,0.4916
374.5,0.4082
375.0,0.398
375.5,0.5958
376.0,0.4953
376.5,0.5147
377.0,0.5464
377.5,0.641
378.0,0.6967
378.5,0.6605
379.0,0.5466
379.5,0.5007
380.0,0.5221
380.5,0.6341
381.0,0.6371
381.5,0.5064
382.0,0.4509
382.5,0.3854
383.0,0.3577
383.5,0.3454
384.0,0.382
384.5,0.5632
385.0,0.5599
385.5,0.5227
386.0,0.4488
386.5,0.591
387.0,0.4923
387.5,0.5543
388.0,0.513
388.5,0.5084
389.0,0.5501
389.5,0.6678
390.0,0.6718
390.5,0.6197
391.0,0.7312
391.5,0.7475
392.0,0.6311
392.5,0.5663
393.0,0.3158
393.5,0.23
394.0,0.4691
394.5,0.5977
395.0,0.7309
395.5,0.7441
396.0,0.6465
396.5,0.3788
397.0,0.2849
397.5,0.5806
398.0,0.8148
398.5,0.8439
399.0,0.9155
399.5,0.9144
400.0,0.9514
401.0,0.9809
402.0,1.039
403.0,0.9905
404.0,0.9789
405.0,0.9823
406.0,0.9698
407.0,0.9576
408.0,0.9986
409.0,1.072
410.0,0.94
411.0,1.021
412.0,1.101
413.0,1.077
414.0,1.093
415.0,1.1
416.0,1.122
417.0,1.098
418.0,1.082
419.0,1.099
420.0,1.098
421.0,1.152
422.0,1.098
423.0,1.076
424.0,1.141
425.0,1.142
426.0,1.116
427.0,1.098
428.0,1.072
429.0,1.018
430.0,0.8931
431.0,0.8877
432.0,1.149
433.0,1.158
434.0,1.078
435.0,1.129
436.0,1.275
437.0,1.26
438.0,1.15
439.0,1.193
440.0,1.233
441.0,1.281
442.0,1.377
443.0,1.344
444.0,1.376
445.0,1.35
446.0,1.29
447.0,1.398
448.0,1.423
449.0,1.431
450.0,1.474
451.0,1.532
452.0,1.479
453.0,1.394
454.0,1.458
455.0,1.47
456.0,1.507
457.0,1.536
458.0,1.486
459.0,1.481
460.0,1.488
461.0,1.525
462.0,1.54
463.0,1.531
464.0,1.508
465.0,1.491
466.0,1.508
467.0,1.483
468.0,1.503
469.0,1.514
470.0,1.468
471.0,1.468
472.0,1.55
473.0,1.532
474.0,1.537
475.0,1.553
476.0,1.51
477.0,1.517
478.0,1.561
479.0,1.554
480.0,1.559
481.0,1.591
482.0,1.601
483.0,1.583
484.0,1.553
485.0,1.481
486.0,1.296
487.0,1.36
488.0,1.494
489.0,1.501
490.0,1.581
491.0,1.556
492.0,1.471
493.0,1.521
494.0,1.538
495.0,1.553
496.0,1.565
497.0,1.591
498.0,1.518
499.0,1.54
500.0,1.497
501.0,1.472
502.0,1.454
503.0,1.516
504.0,1.481
505.0,1.534
506.0,1.586
507.0,1.51
508.0,1.464
509.0,1.506
510.0,1.5
511.0,1.541
512.0,1.559
513.0,1.477
514.0,1.468
515.0,1.455
516.0,1.453
517.0,1.292
518.0,1.36
519.0,1.428
520.0,1.482
521.0,1.497
522.0,1.5
523.0,1.475
524.0,1.529
525.0,1.549
526.0,1.481
527.0,1.398
528.0,1.48
529.0,1.562
530.0,1.541
531.0,1.565
532.0,1.512
533.0,1.469
534.0,1.514
535.0,1.548
536.0,1.563
537.0,1.503
538.0,1.53
539.0,1.519
540.0,1.457
541.0,1.468
542.0,1.516
543.0,1.501
544.0,1.528
545.0,1.524
546.0,1.533
547.0,1.533
548.0,1.515
549.0,1.521
550.0,1.54
551.0,1.522
552.0,1.534
553.0,1.508
554.0,1.545
555.0,1.549
556.0,1.53
557.0,1.484
558.0,1.474
559.0,1.448
560.0,1.467
561.0,1.488
562.0,1.478
563.0,1.52
564.0,1.48
565.0,1.468
566.0,1.448
567.0,1.476
568.0,1.465
569.0,1.433
570.0,1.433
571.0,1.425
572.0,1.461
573.0,1.478
574.0,1.474
575.0,1.448
576.0,1.435
577.0,1.451
578.0,1.43
579.0,1.435
580.0,1.462
581.0,1.47
582.0,1.498
583.0,1.501
584.0,1.515
585.0,1.478
586.0,1.448
587.0,1.481
588.0,1.448
589.0,1.288
590.0,1.347
591.0,1.424
592.0,1.408
593.0,1.428
594.0,1.419
595.0,1.386
596.0,1.438
597.0,1.424
598.0,1.42
599.0,1.422
600.0,1.424
601.0,1.412
602.0,1.403
603.0,1.426
604.0,1.451
605.0,1.443
606.0,1.438
607.0,1.452
608.0,1.436
609.0,1.439
610.0,1.429
611.0,1.437
612.0,1.433
613.0,1.415
614.0,1.396
615.0,1.427
616.0,1.38
617.0,1.378
618.0,1.431
619.0,1.417
620.0,1.426
621.0,1.429
622.0,1.413
623.0,1.392
624.0,1.368
625.0,1.366
626.0,1.386
627.0,1.403
628.0,1.32
629.0,1.374
630.0,1.343
631.0,1.371
632.0,1.354
633.0,1.395
634.0,1.381
635.0,1.402
636.0,1.383
637.0,1.406
638.0,1.419
639.0,1.404
640.0,1.39
641.0,1.389
642.0,1.383
643.0,1.402
644.0,1.398
645.0,1.401
646.0,1.369
647.0,1.356
648.0,1.358
649.0,1.332
650.0,1.336
651.0,1.394
652.0,1.339
653.0,1.376
654.0,1.361
655.0,1.312
656.0,1.162
657.0,1.193
658.0,1.337
659.0,1.346
660.0,1.352
661.0,1.362
662.0,1.366
663.0,1.339
664.0,1.354
665.0,1.355
666.0,1.356
667.0,1.355
668.0,1.355
669.0,1.376
670.0,1.371
671.0,1.371
672.0,1.359
673.0,1.38
674.0,1.375
675.0,1.362
676.0,1.372
677.0,1.359
678.0,1.363
679.0,1.341
680.0,1.352
681.0,1.343
682.0,1.342
683.0,1.34
684.0,1.333
685.0,1.345
686.0,1.337
687.0,0.9253
688.0,1.067
689.0,1.07
690.0,1.117
691.0,1.169
692.0,1.207
693.0,1.198
694.0,1.188
695.0,1.233
696.0,1.235
697.0,1.305
698.0,1.285
699.0,1.258
700.0,1.243
701.0,1.232
702.0,1.239
703.0,1.242
704.0,1.28
705.0,1.282
706.0,1.28
707.0,1.281
708.0,1.284
709.0,1.285
710.0,1.286
711.0,1.284
712.0,1.28
713.0,1.267
714.0,1.272
715.0,1.234
716.0,1.235
717.0,1.085
718.0,0.9995
719.0,0.9174
720.0,0.9619
721.0,1.054
722.0,1.196
723.0,1.119
724.0,1.014
725.0,0.9994
726.0,1.045
727.0,1.057
728.0,0.998
729.0,1.031
730.0,1.091
731.0,1.045
732.0,1.113
733.0,1.173
734.0,1.2
735.0,1.176
736.0,1.175
737.0,1.18
738.0,1.195
739.0,1.172
740.0,1.201
741.0,1.189
742.0,1.19
743.0,1.22
744.0,1.216
745.0,1.217
746.0,1.222
747.0,1.225
748.0,1.223
749.0,1.209
750.0,1.208
751.0,1.196
752.0,1.202
753.0,1.208
754.0,1.211
755.0,1.204
756.0,1.204
757.0,1.206
758.0,1.191
759.0,1.169
760.0,0.2287
761.0,0.1268
762.0,0.6344
763.0,0.3371
764.0,0.4892
765.0,0.6348
766.0,0.7627
767.0,0.9458
768.0,1.078
769.0,1.098
770.0,1.132
771.0,1.14
772.0,1.142
773.0,1.15
774.0,1.145
775.0,1.136
776.0,1.15
777.0,1.135
778.0,1.128
779.0,1.13
780.0,1.123
781.0,1.125
782.0,1.132
783.0,1.112
784.0,1.118
785.0,1.11
786.0,1.122
787.0,1.104
788.0,1.091
789.0,1.091
790.0,1.064
791.0,1.072
792.0,1.064
793.0,1.047
794.0,1.063
795.0,1.081
796.0,1.051
797.0,1.053
798.0,1.081
799.0,1.074
800.0,1.057
801.0,1.054
802.0,1.051
803.0,1.044
804.0,1.045
805.0,1.041
806.0,1.069
807.0,1.056
808.0,1.057
809.0,1.039
810.0,1.031
811.0,1.034
812.0,1.006
813.0,0.9866
814.0,0.8745
815.0,0.869
816.0,0.81
817.0,0.8241
818.0,0.7948
819.0,0.883
820.0,0.8339
821.0,0.9671
822.0,0.9408
823.0,0.6522
824.0,0.9162
825.0,0.951
826.0,0.9174
827.0,0.9657
828.0,0.8258
829.0,0.9116
830.0,0.9005
831.0,0.9035
832.0,0.8771
833.0,0.9297
834.0,0.8991
835.0,0.983
836.0,0.944
837.0,0.9858
838.0,0.9565
839.0,0.9708
840.0,0.9918
841.0,0.9784
842.0,0.9798
843.0,0.9784
844.0,0.9654
845.0,0.9974
846.0,0.993
847.0,0.9744
848.0,0.9688
849.0,0.9414
850.0,0.9019
851.0,0.9554
852.0,0.9486
853.0,0.9129
854.0,0.7885
855.0,0.8661
856.0,0.9467
857.0,0.9676
858.0,0.9607
859.0,0.9614
860.0,0.9631
861.0,0.958
862.0,0.9731
863.0,0.9961
864.0,0.9464
865.0,0.9381
866.0,0.8436
867.0,0.8804
868.0,0.9581
869.0,0.9383
870.0,0.9651
871.0,0.9521
872.0,0.9488
873.0,0.947
874.0,0.9358
875.0,0.9169
876.0,0.9265
877.0,0.936
878.0,0.9462
879.0,0.9318
880.0,0.9119
881.0,0.8984
882.0,0.9179
883.0,0.9208
884.0,0.9167
885.0,0.9237
886.0,0.881
887.0,0.8899
888.0,0.9034
889.0,0.9132
890.0,0.9062
891.0,0.9045
892.0,0.8791
893.0,0.8526
894.0,0.8244
895.0,0.7812
896.0,0.737
897.0,0.6361
898.0,0.6925
899.0,0.5304
900.0,0.7073
901.0,0.5558
902.0,0.6476
903.0,0.6556
904.0,0.8188
905.0,0.7916
906.0,0.7417
907.0,0.607
908.0,0.6184
909.0,0.6679
910.0,0.5943
911.0,0.6313
912.0,0.6592
913.0,0.6034
914.0,0.5977
915.0,0.6476
916.0,0.5493
917.0,0.6932
918.0,0.5633
919.0,0.705
920.0,0.7104
921.0,0.7385
922.0,0.6627
923.0,0.7133
924.0,0.6795
925.0,0.6648
926.0,0.6721
927.0,0.7501
928.0,0.5568
929.0,0.51
930.0,0.4033
931.0,0.3819
932.0,0.2774
933.0,0.2267
934.0,0.1268
935.0,0.2311
936.0,0.1459
937.0,0.148
938.0,0.1814
939.0,0.3701
940.0,0.4436
941.0,0.337
942.0,0.3889
943.0,0.2575
944.0,0.2698
945.0,0.3472
946.0,0.1789
947.0,0.3493
948.0,0.257
949.0,0.4655
950.0,0.1326
951.0,0.458
952.0,0.2489
953.0,0.3197
954.0,0.39
955.0,0.3231
956.0,0.3127
957.0,0.2496
958.0,0.4403
959.0,0.352
960.0,0.3944
961.0,0.4411
962.0,0.4176
963.0,0.4799
964.0,0.4402
965.0,0.4781
966.0,0.4785
967.0,0.4766
968.0,0.634
969.0,0.6626
970.0,0.6092
971.0,0.6952
972.0,0.6655
973.0,0.5817
974.0,0.5524
975.0,0.5726
976.0,0.5449
977.0,0.6178
978.0,0.5879
979.0,0.6151
980.0,0.5788
981.0,0.6914
982.0,0.6619
983.0,0.636
984.0,0.7116
985.0,0.6595
986.0,0.7236
987.0,0.7101
988.0,0.7088
989.0,0.7212
990.0,0.7046
991.0,0.7234
992.0,0.7276
993.0,0.712
994.0,0.7274
995.0,0.7265
996.0,0.7233
997.0,0.7244
998.0,0.721
999.0,0.7184
1000.0,0.7135
1001.0,0.7223
1002.0,0.703
1003.0,0.7096
1004.0,0.6924
1005.0,0.6669
1006.0,0.6931
1007.0,0.7078
1008.0,0.7041
1009.0,0.7004
1010.0,0.6975
1011.0,0.7043
1012.0,0.6983
1013.0,0.7026
1014.0,0.6977
1015.0,0.6931
1016.0,0.6901
1017.0,0.6919
1018.0,0.6892
1019.0,0.6747
1020.0,0.6857
1021.0,0.6847
1022.0,0.6795
1023.0,0.6868
1024.0,0.678
1025.0,0.6863
1026.0,0.6834
1027.0,0.6818
1028.0,0.6805
1029.0,0.6725
1030.0,0.677
1031.0,0.6744
1032.0,0.6724
1033.0,0.6623
1034.0,0.6624
1035.0,0.6645
1036.0,0.6679
1037.0,0.6571
1038.0,0.66
1039.0,0.6597
1040.0,0.6571
1041.0,0.6597
1042.0,0.6551
1043.0,0.6531
1044.0,0.6554
1045.0,0.6466
1046.0,0.6395
1047.0,0.6453
1048.0,0.6488
1049.0,0.6465
1050.0,0.6436
1051.0,0.6427
1052.0,0.6401
1053.0,0.6351
1054.0,0.6365
1055.0,0.6369
1056.0,0.6348
1057.0,0.6328
1058.0,0.6173
1059.0,0.618
1060.0,0.6171
1061.0,0.6164
1062.0,0.6197
1063.0,0.6136
1064.0,0.6209
1065.0,0.6165
1066.0,0.6043
1067.0,0.6121
1068.0,0.5988
1069.0,0.5803
1070.0,0.6001
1071.0,0.6093
1072.0,0.6024
1073.0,0.5937
1074.0,0.6089
1075.0,0.5789
1076.0,0.6084
1077.0,0.5979
1078.0,0.5867
1079.0,0.5987
1080.0,0.5887
1081.0,0.5701
1082.0,0.5789
1083.0,0.5805
1084.0,0.5689
1085.0,0.5901
1086.0,0.5393
1087.0,0.5561
1088.0,0.5801
1089.0,0.5628
1090.0,0.5508
1091.0,0.5784
1092.0,0.5768
1093.0,0.4906
1094.0,0.528
1095.0,0.511
1096.0,0.4897
1097.0,0.5635
1098.0,0.4823
1099.0,0.5028
1100.0,0.4681
1101.0,0.4738
1102.0,0.4529
1103.0,0.4488
1104.0,0.4494
1105.0,0.4915
1106.0,0.3786
1107.0,0.4674
1108.0,0.3977
1109.0,0.3982
1110.0,0.4635
1111.0,0.3165
1112.0,0.395
1113.0,0.2535
1114.0,0.2831
1115.0,0.2348
1116.0,0.1886
1117.0,0.0705
1118.0,0.2049
1119.0,0.1026
1120.0,0.1292
1121.0,0.1709
1122.0,0.07273
1123.0,0.1168
1124.0,0.09857
1125.0,0.1284
1126.0,0.04545
1127.0,0.1447
1128.0,0.08741
1129.0,0.09263
1130.0,0.06127
1131.0,0.2724
1132.0,0.2141
1133.0,0.1368
1134.0,0.03555
1135.0,0.0133
1136.0,0.1145
1137.0,0.2679
1138.0,0.189
1139.0,0.2798
1140.0,0.2346
1141.0,0.1796
1142.0,0.2062
1143.0,0.2919
1144.0,0.103
1145.0,0.1319
1146.0,0.1423
1147.0,0.05083
1148.0,0.2527
1149.0,0.2024
1150.0,0.1107
1151.0,0.1876
1152.0,0.2302
1153.0,0.2237
1154.0,0.128
1155.0,0.2919
1156.0,0.2634
1157.0,0.2948
1158.0,0.2916
1159.0,0.3139
1160.0,0.269
1161.0,0.3298
1162.0,0.3316
1163.0,0.4447
1164.0,0.3827
1165.0,0.3622
1166.0,0.3588
1167.0,0.3902
1168.0,0.3948
1169.0,0.4037
1170.0,0.4377
1171.0,0.427
1172.0,0.434
1173.0,0.4368
1174.0,0.3151
1175.0,0.4262
1176.0,0.4669
1177.0,0.4493
1178.0,0.3399
1179.0,0.4706
1180.0,0.4219
1181.0,0.4353
1182.0,0.3031
1183.0,0.4282
1184.0,0.4022
1185.0,0.389
1186.0,0.4583
1187.0,0.4375
1188.0,0.3086
1189.0,0.4078
1190.0,0.4479
1191.0,0.4269
1192.0,0.454
1193.0,0.4357
1194.0,0.4486
1195.0,0.4255
1196.0,0.4105
1197.0,0.4483
1198.0,0.411
1199.0,0.3522
1200.0,0.4303
1201.0,0.416
1202.0,0.413
1203.0,0.4096
1204.0,0.3597
1205.0,0.4218
1206.0,0.4644
1207.0,0.4122
1208.0,0.4049
1209.0,0.4131
1210.0,0.4297
1211.0,0.4103
1212.0,0.4066
1213.0,0.4498
1214.0,0.4158
1215.0,0.4082
1216.0,0.4483
1217.0,0.4371
1218.0,0.4448
1219.0,0.4396
1220.0,0.4452
1221.0,0.4493
1222.0,0.438
1223.0,0.4341
1224.0,0.4319
1225.0,0.4465
1226.0,0.4491
1227.0,0.4158
1228.0,0.4511
1229.0,0.4492
1230.0,0.4418
1231.0,0.4535
1232.0,0.4508
1233.0,0.4365
1234.0,0.4528
1235.0,0.4501
1236.0,0.4533
1237.0,0.4475
1238.0,0.4518
1239.0,0.446
1240.0,0.4476
1241.0,0.4458
1242.0,0.4446
1243.0,0.441
1244.0,0.4442
1245.0,0.4461
1246.0,0.4435
1247.0,0.4418
1248.0,0.4417
1249.0,0.4429
1250.0,0.4403
1251.0,0.4349
1252.0,0.4347
1253.0,0.4317
1254.0,0.4277
1255.0,0.4344
1256.0,0.423
1257.0,0.4208
1258.0,0.4281
1259.0,0.4138
1260.0,0.4158
1261.0,0.3939
1262.0,0.3829
1263.0,0.3837
1264.0,0.3559
1265.0,0.3812
1266.0,0.3678
1267.0,0.3736
1268.0,0.3555
1269.0,0.2282
1270.0,0.3725
1271.0,0.3925
1272.0,0.3936
1273.0,0.3896
1274.0,0.3906
1275.0,0.396
1276.0,0.3996
1277.0,0.4019
1278.0,0.409
1279.0,0.4054
1280.0,0.4002
1281.0,0.3816
1282.0,0.3673
1283.0,0.3956
1284.0,0.4052
1285.0,0.4078
1286.0,0.4131
1287.0,0.4072
1288.0,0.4069
1289.0,0.395
1290.0,0.4033
1291.0,0.4088
1292.0,0.3858
1293.0,0.4013
1294.0,0.3985
1295.0,0.397
1296.0,0.3802
1297.0,0.3605
1298.0,0.3863
1299.0,0.4016
1300.0,0.3429
1301.0,0.3529
1302.0,0.385
1303.0,0.3381
1304.0,0.291
1305.0,0.3773
1306.0,0.3775
1307.0,0.2964
1308.0,0.3382
1309.0,0.3749
1310.0,0.2909
1311.0,0.3249
1312.0,0.3165
1313.0,0.3108
1314.0,0.2791
1315.0,0.2761
1316.0,0.3202
1317.0,0.3036
1318.0,0.3289
1319.0,0.2601
1320.0,0.2514
1321.0,0.2918
1322.0,0.2951
1323.0,0.2245
1324.0,0.2551
1325.0,0.3158
1326.0,0.2726
1327.0,0.2604
1328.0,0.2253
1329.0,0.1711
1330.0,0.2218
1331.0,0.136
1332.0,0.1397
1333.0,0.194
1334.0,0.1633
1335.0,0.2237
1336.0,0.178
1337.0,0.158
1338.0,0.1709
1339.0,0.1699
1340.0,0.1647
1341.0,0.1621
1342.0,0.1701
1343.0,0.1177
1344.0,0.07034
1345.0,0.1013
1346.0,0.05185
1347.0,0.05298
1348.0,0.003719
1349.0,0.01307
1350.0,0.01336
1351.0,0.003486
1352.0,0.001018
1353.0,5.667e-05
1354.0,0.0001847
1355.0,1.782e-06
1356.0,2.787e-05
1357.0,4.237e-05
1358.0,2.096e-06
1359.0,3.024e-07
1360.0,1.006e-06
1361.0,1.498e-09
1362.0,4.647e-12
1363.0,1.418e-06
1364.0,5.925e-07
1365.0,1.908e-12
1366.0,5.983e-06
1367.0,2.396e-06
1368.0,2.011e-14
1369.0,2.233e-07
1370.0,1.166e-07
1371.0,7.11e-09
1372.0,1.319e-06
1373.0,2.432e-05
1374.0,0.0001063
1375.0,0.0001937
1376.0,0.0001657
1377.0,7.699e-05
1378.0,0.0007334
1379.0,3.244e-05
1380.0,4.853e-05
1381.0,1.318e-06
1382.0,1.209e-06
1383.0,1.911e-08
1384.0,2.583e-07
1385.0,1.074e-06
1386.0,1.121e-06
1387.0,0.0001145
1388.0,2.27e-06
1389.0,0.0003633
1390.0,0.000313
1391.0,0.0002116
1392.0,1.407e-05
1393.0,7.222e-05
1394.0,4.121e-05
1395.0,3.261e-07
1396.0,2.079e-09
1397.0,2.949e-05
1398.0,0.0008293
1399.0,0.0005255
1400.0,9.682e-10
1401.0,3.641e-09
1402.0,0.001349
1403.0,0.001722
1404.0,0.0005283
1405.0,1.667e-07
1406.0,0.00141
1407.0,0.0001225
1408.0,0.001149
1409.0,0.0004028
1410.0,0.0003138
1411.0,0.00151
1412.0,0.001997
1413.0,0.01945
1414.0,0.0002464
1415.0,0.0001207
1416.0,0.03113
1417.0,0.009634
1418.0,0.01101
1419.0,0.001718
1420.0,0.006742
1421.0,0.007293
1422.0,0.04059
1423.0,0.007916
1424.0,0.01479
1425.0,0.02184
1426.0,0.02462
1427.0,0.04493
1428.0,0.003516
1429.0,0.03374
1430.0,0.05717
1431.0,0.06273
1432.0,0.002773
1433.0,0.03999
1434.0,0.02038
1435.0,0.02051
1436.0,0.03938
1437.0,0.03017
1438.0,0.01279
1439.0,0.05348
1440.0,0.04006
1441.0,0.0306
1442.0,0.03393
1443.0,0.04253
1444.0,0.05891
1445.0,0.04612
1446.0,0.02075
1447.0,0.0327
1448.0,0.1108
1449.0,0.09617
1450.0,0.02425
1451.0,0.009738
1452.0,0.05782
1453.0,0.07598
1454.0,0.131
1455.0,0.06156
1456.0,0.08268
1457.0,0.1113
1458.0,0.1316
1459.0,0.1556
1460.0,0.08079
