interpolation:linear
wavelength,value
280.0,8.115e-23
280.5,2.283e-21
281.0,1.1770000000000002e-20
281.5,3.229e-19
282.0,2.377e-18
282.5,8.651e-18
283.0,3.6e-17
283.5,6.594e-17
284.0,1.459e-15
284.5,4.694e-15
285.0,1.02e-14
285.5,7.166e-14
286.0,3.241e-13
286.5,1.725e-12
287.0,5.488e-12
287.5,2.337e-11
288.0,9.588e-11
288.5,3.622e-10
289.0,1.151e-09
289.5,4.04e-09
290.0,1.249e-08
290.5,2.773e-08
291.0,6.48e-08
291.5,2.027e-07
292.0,4.93e-07
292.5,7.249e-07
293.0,1.631e-06
293.5,4.172e-06
294.0,6.813e-06
294.5,1.176e-05
295.0,2.02e-05
295.5,4.739e-05
296.0,8.345e-05
296.5,0.0001065
297.0,0.0001337
297.5,0.0003195
298.0,0.0004565
298.5,0.0004258
299.0,0.0008719
299.5,0.001264
300.0,0.001294
300.5,0.001738
301.0,0.002774
301.5,0.003951
302.0,0.003204
302.5,0.005943
303.0,0.009963
303.5,0.01202
304.0,0.01097
304.5,0.015
305.0,0.02011
305.5,0.02138
306.0,0.02018
306.5,0.02401
307.0,0.03205
307.5,0.03855
308.0,0.04025
308.5,0.04542
309.0,0.04016
309.5,0.04387
310.0,0.04319
310.5,0.06943
311.0,0.08568
311.5,0.08231
312.0,0.07862
312.5,0.09285
313.0,0.09935
313.5,0.09867
314.0,0.1187
314.5,0.0997
315.0,0.1303
315.5,0.1127
316.0,0.0942
316.5,0.1302
317.0,0.1625
317.5,0.172
318.0,0.1308
318.5,0.154
319.0,0.1782
319.5,0.1529
320.0,0.1869
320.5,0.2213
321.0,0.1875
321.5,0.1795
322.0,0.2037
322.5,0.1774
323.0,0.1708
323.5,0.1974
324.0,0.2298
324.5,0.2385
325.0,0.217
325.5,0.2716
326.0,0.3206
326.5,0.3149
327.0,0.3178
327.5,0.3116
328.0,0.2873
328.5,0.292
329.0,0.3408
329.5,0.3849
330.0,0.3926
330.5,0.3226
331.0,0.3325
331.5,0.3335
332.0,0.3529
332.5,0.3465
333.0,0.3491
333.5,0.3229
334.0,0.3329
334.5,0.3777
335.0,0.352
335.5,0.4001
336.0,0.2777
336.5,0.3386
337.0,0.2811
337.5,0.3519
338.0,0.3391
338.5,0.3832
339.0,0.3825
339.5,0.3677
340.0,0.4436
340.5,0.4005
341.0,0.3846
341.5,0.3572
342.0,0.4291
342.5,0.4034
343.0,0.4431
343.5,0.4172
344.0,0.3137
344.5,0.3109
345.0,0.4169
345.5,0.4283
346.0,0.3658
346.5,0.4158
347.0,0.4463
347.5,0.3614
348.0,0.4148
348.5,0.4167
349.0,0.3878
349.5,0.3848
350.0,0.4774
350.5,0.5049
351.0,0.4517
351.5,0.4381
352.0,0.4732
352.5,0.371
353.0,0.469
353.5,0.5031
354.0,0.524
354.5,0.5329
355.0,0.5323
355.5,0.4821
356.0,0.5058
356.5,0.4331
357.0,0.3588
357.5,0.4405
358.0,0.3501
358.5,0.2999
359.0,0.4206
359.5,0.537
360.0,0.5708
360.5,0.4575
361.0,0.4181
361.5,0.4823
362.0,0.4178
362.5,0.5793
363.0,0.5213
363.5,0.4811
364.0,0.5896
364.5,0.5051
365.0,0.5155
365.5,0.6485
366.0,0.6884
366.5,0.6481
367.0,0.6325
367.5,0.6578
368.0,0.5768
368.5,0.5832
369.0,0.6311
369.5,0.6741
370.0,0.7201
370.5,0.56
371.0,0.5995
371.5,0.7516
372.0,0.4999
372.5,0.6006
373.0,0.612
373.5,0.3989
374.0,0.5808
374.5,0.4818
375.0,0.4693
375.5,0.7021
376.0,0.5832
376.5,0.6056
377.0,0.6423
377.5,0.7528
378.0,0.8177
378.5,0.7746
379.0,0.6406
379.5,0.5865
380.0,0.611
380.5,0.7414
381.0,0.7442
381.5,0.5909
382.0,0.5256
382.5,0.4488
383.0,0.4162
383.5,0.4015
384.0,0.4437
384.5,0.6536
385.0,0.6493
385.5,0.6056
386.0,0.5195
386.5,0.6835
387.0,0.569
387.5,0.6402
388.0,0.5921
388.5,0.5862
389.0,0.6338
389.5,0.7689
390.0,0.7729
390.5,0.7125
391.0,0.84
391.5,0.8582
392.0,0.724
392.5,0.6491
393.0,0.3617
393.5,0.2633
394.0,0.5366
394.5,0.6832
395.0,0.8349
395.5,0.8495
396.0,0.7376
396.5,0.4317
397.0,0.3245
397.5,0.6608
398.0,0.927
398.5,0.9595
399.0,1.04
399.5,1.038
400.0,1.08
401.0,1.112
402.0,1.176
403.0,1.119
404.0,1.105
405.0,1.108
406.0,1.092
407.0,1.077
408.0,1.122
409.0,1.203
410.0,1.054
411.0,1.144
412.0,1.231
413.0,1.203
414.0,1.22
415.0,1.226
416.0,1.25
417.0,1.222
418.0,1.202
419.0,1.22
420.0,1.217
421.0,1.276
422.0,1.215
423.0,1.189
424.0,1.261
425.0,1.261
426.0,1.23
427.0,1.209
428.0,1.18
429.0,1.119
430.0,0.9808
431.0,0.9744
432.0,1.26
433.0,1.269
434.0,1.181
435.0,1.235
436.0,1.393
437.0,1.376
438.0,1.255
439.0,1.301
440.0,1.344
441.0,1.394
442.0,1.498
443.0,1.462
444.0,1.495
445.0,1.466
446.0,1.4
447.0,1.515
448.0,1.542
449.0,1.549
450.0,1.594
451.0,1.656
452.0,1.597
453.0,1.504
454.0,1.572
455.0,1.584
456.0,1.624
457.0,1.653
458.0,1.6
459.0,1.593
460.0,1.6
461.0,1.639
462.0,1.653
463.0,1.644
464.0,1.617
465.0,1.598
466.0,1.614
467.0,1.588
468.0,1.608
469.0,1.619
470.0,1.569
471.0,1.569
472.0,1.655
473.0,1.636
474.0,1.641
475.0,1.659
476.0,1.612
477.0,1.62
478.0,1.666
479.0,1.657
480.0,1.661
481.0,1.693
482.0,1.703
483.0,1.682
484.0,1.649
485.0,1.572
486.0,1.375
487.0,1.442
488.0,1.584
489.0,1.591
490.0,1.675
491.0,1.647
492.0,1.556
493.0,1.609
494.0,1.626
495.0,1.642
496.0,1.653
497.0,1.681
498.0,1.603
499.0,1.626
500.0,1.581
501.0,1.554
502.0,1.535
503.0,1.601
504.0,1.567
505.0,1.62
506.0,1.674
507.0,1.594
508.0,1.544
509.0,1.588
510.0,1.579
511.0,1.622
512.0,1.641
513.0,1.554
514.0,1.544
515.0,1.53
516.0,1.527
517.0,1.358
518.0,1.429
519.0,1.5
520.0,1.556
521.0,1.572
522.0,1.575
523.0,1.548
524.0,1.605
525.0,1.626
526.0,1.555
527.0,1.467
528.0,1.554
529.0,1.64
530.0,1.617
531.0,1.643
532.0,1.588
533.0,1.542
534.0,1.588
535.0,1.623
536.0,1.639
537.0,1.575
538.0,1.603
539.0,1.591
540.0,1.526
541.0,1.539
542.0,1.589
543.0,1.572
544.0,1.601
545.0,1.597
546.0,1.606
547.0,1.605
548.0,1.586
549.0,1.592
550.0,1.611
551.0,1.592
552.0,1.604
553.0,1.577
554.0,1.615
555.0,1.62
556.0,1.6
557.0,1.552
558.0,1.541
559.0,1.514
560.0,1.534
561.0,1.556
562.0,1.546
563.0,1.59
564.0,1.549
565.0,1.537
566.0,1.516
567.0,1.546
568.0,1.536
569.0,1.505
570.0,1.505
571.0,1.495
572.0,1.535
573.0,1.552
574.0,1.549
575.0,1.522
576.0,1.508
577.0,1.525
578.0,1.501
579.0,1.506
580.0,1.531
581.0,1.537
582.0,1.565
583.0,1.567
584.0,1.58
585.0,1.542
586.0,1.51
587.0,1.546
588.0,1.515
589.0,1.356
590.0,1.417
591.0,1.493
592.0,1.479
593.0,1.496
594.0,1.488
595.0,1.456
596.0,1.504
597.0,1.491
598.0,1.484
599.0,1.485
600.0,1.485
601.0,1.471
602.0,1.462
603.0,1.486
604.0,1.51
605.0,1.502
606.0,1.496
607.0,1.51
608.0,1.493
609.0,1.495
610.0,1.484
611.0,1.491
612.0,1.487
613.0,1.468
614.0,1.448
615.0,1.479
616.0,1.43
617.0,1.427
618.0,1.482
619.0,1.467
620.0,1.477
621.0,1.48
622.0,1.464
623.0,1.443
624.0,1.418
625.0,1.415
626.0,1.436
627.0,1.455
628.0,1.386
629.0,1.431
630.0,1.399
631.0,1.422
632.0,1.404
633.0,1.443
634.0,1.427
635.0,1.448
636.0,1.427
637.0,1.45
638.0,1.462
639.0,1.445
640.0,1.431
641.0,1.429
642.0,1.422
643.0,1.441
644.0,1.436
645.0,1.439
646.0,1.409
647.0,1.4
648.0,1.403
649.0,1.376
650.0,1.374
651.0,1.432
652.0,1.383
653.0,1.414
654.0,1.397
655.0,1.351
656.0,1.194
657.0,1.226
658.0,1.371
659.0,1.38
660.0,1.386
661.0,1.395
662.0,1.4
663.0,1.372
664.0,1.386
665.0,1.386
666.0,1.386
667.0,1.384
668.0,1.384
669.0,1.405
670.0,1.399
671.0,1.399
672.0,1.387
673.0,1.407
674.0,1.402
675.0,1.389
676.0,1.399
677.0,1.385
678.0,1.388
679.0,1.366
680.0,1.377
681.0,1.368
682.0,1.367
683.0,1.364
684.0,1.358
685.0,1.369
686.0,1.362
687.0,1.021
688.0,1.14
689.0,1.142
690.0,1.18
691.0,1.221
692.0,1.249
693.0,1.241
694.0,1.231
695.0,1.269
696.0,1.271
697.0,1.33
698.0,1.31
699.0,1.291
700.0,1.276
701.0,1.267
702.0,1.271
703.0,1.274
704.0,1.308
705.0,1.31
706.0,1.306
707.0,1.307
708.0,1.31
709.0,1.308
710.0,1.31
711.0,1.307
712.0,1.301
713.0,1.29
714.0,1.295
715.0,1.258
716.0,1.261
717.0,1.137
718.0,1.053
719.0,0.9698
720.0,1.019
721.0,1.097
722.0,1.225
723.0,1.157
724.0,1.06
725.0,1.049
726.0,1.095
727.0,1.101
728.0,1.049
729.0,1.072
730.0,1.134
731.0,1.09
732.0,1.15
733.0,1.201
734.0,1.226
735.0,1.203
736.0,1.201
737.0,1.207
738.0,1.215
739.0,1.192
740.0,1.22
741.0,1.206
742.0,1.205
743.0,1.236
744.0,1.231
745.0,1.231
746.0,1.237
747.0,1.239
748.0,1.237
749.0,1.223
750.0,1.222
751.0,1.21
752.0,1.215
753.0,1.221
754.0,1.224
755.0,1.217
756.0,1.217
757.0,1.219
758.0,1.204
759.0,1.186
760.0,0.3279
761.0,0.2059
762.0,0.7292
763.0,0.4448
764.0,0.5958
765.0,0.73
766.0,0.8362
767.0,0.9977
768.0,1.107
769.0,1.121
770.0,1.148
771.0,1.153
772.0,1.154
773.0,1.162
774.0,1.156
775.0,1.147
776.0,1.161
777.0,1.146
778.0,1.139
779.0,1.14
780.0,1.134
781.0,1.135
782.0,1.142
783.0,1.122
784.0,1.128
785.0,1.12
786.0,1.133
787.0,1.117
788.0,1.106
789.0,1.106
790.0,1.084
791.0,1.087
792.0,1.078
793.0,1.061
794.0,1.073
795.0,1.093
796.0,1.068
797.0,1.07
798.0,1.093
799.0,1.087
800.0,1.071
801.0,1.07
802.0,1.066
803.0,1.06
804.0,1.06
805.0,1.054
806.0,1.08
807.0,1.068
808.0,1.068
809.0,1.052
810.0,1.046
811.0,1.051
812.0,1.028
813.0,1.01
814.0,0.9112
815.0,0.9051
816.0,0.8461
817.0,0.8587
818.0,0.8316
819.0,0.9102
820.0,0.865
821.0,0.9847
822.0,0.9611
823.0,0.6969
824.0,0.9421
825.0,0.9694
826.0,0.9406
827.0,0.9842
828.0,0.8584
829.0,0.9335
830.0,0.924
831.0,0.9263
832.0,0.9024
833.0,0.9475
834.0,0.9219
835.0,0.996
836.0,0.9639
837.0,0.9983
838.0,0.9718
839.0,0.9824
840.0,1.003
841.0,0.9907
842.0,0.9899
843.0,0.9863
844.0,0.9744
845.0,1.005
846.0,1.0
847.0,0.9807
848.0,0.976
849.0,0.9484
850.0,0.9085
851.0,0.9635
852.0,0.9561
853.0,0.9193
854.0,0.7947
855.0,0.8718
856.0,0.9534
857.0,0.9738
858.0,0.9671
859.0,0.9674
860.0,0.9688
861.0,0.9637
862.0,0.9787
863.0,1.002
864.0,0.9518
865.0,0.9434
866.0,0.8483
867.0,0.8853
868.0,0.9634
869.0,0.9435
870.0,0.9704
871.0,0.9572
872.0,0.9539
873.0,0.952
874.0,0.9407
875.0,0.9218
876.0,0.9315
877.0,0.9409
878.0,0.9514
879.0,0.9368
880.0,0.9167
881.0,0.9037
882.0,0.9235
883.0,0.9259
884.0,0.9219
885.0,0.9289
886.0,0.8877
887.0,0.8954
888.0,0.9098
889.0,0.9181
890.0,0.913
891.0,0.9102
892.0,0.8871
893.0,0.8635
894.0,0.8406
895.0,0.804
896.0,0.7623
897.0,0.6686
898.0,0.7215
899.0,0.566
900.0,0.7307
901.0,0.5923
902.0,0.6729
903.0,0.6865
904.0,0.8348
905.0,0.8105
906.0,0.7622
907.0,0.6395
908.0,0.6495
909.0,0.6936
910.0,0.6309
911.0,0.6622
912.0,0.6879
913.0,0.6411
914.0,0.6327
915.0,0.6836
916.0,0.5848
917.0,0.7221
918.0,0.5999
919.0,0.731
920.0,0.7301
921.0,0.7569
922.0,0.6892
923.0,0.7307
924.0,0.7069
925.0,0.6921
926.0,0.6994
927.0,0.7711
928.0,0.5999
929.0,0.5569
930.0,0.453
931.0,0.4265
932.0,0.3225
933.0,0.2709
934.0,0.1672
935.0,0.27
936.0,0.1802
937.0,0.1844
938.0,0.222
939.0,0.4134
940.0,0.4867
941.0,0.382
942.0,0.4326
943.0,0.2963
944.0,0.302
945.0,0.3914
946.0,0.2151
947.0,0.3971
948.0,0.2947
949.0,0.5157
950.0,0.1688
951.0,0.5051
952.0,0.2926
953.0,0.364
954.0,0.4312
955.0,0.3665
956.0,0.3495
957.0,0.2952
958.0,0.473
959.0,0.3918
960.0,0.4385
961.0,0.4801
962.0,0.456
963.0,0.515
964.0,0.4756
965.0,0.5117
966.0,0.5146
967.0,0.5133
968.0,0.6524
969.0,0.6836
970.0,0.6332
971.0,0.7092
972.0,0.6814
973.0,0.6089
974.0,0.5805
975.0,0.5963
976.0,0.5743
977.0,0.6376
978.0,0.6124
979.0,0.6362
980.0,0.6017
981.0,0.7046
982.0,0.6793
983.0,0.6556
984.0,0.7199
985.0,0.6766
986.0,0.729
987.0,0.7186
988.0,0.7173
989.0,0.7246
990.0,0.7127
991.0,0.7273
992.0,0.7311
993.0,0.7187
994.0,0.7305
995.0,0.7291
996.0,0.7265
997.0,0.7273
998.0,0.7241
999.0,0.7213
1000.0,0.7172
1001.0,0.7251
1002.0,0.7089
1003.0,0.7126
1004.0,0.6962
1005.0,0.6693
1006.0,0.6962
1007.0,0.7106
1008.0,0.7075
1009.0,0.7045
1010.0,0.7019
1011.0,0.707
1012.0,0.7016
1013.0,0.7051
1014.0,0.7002
1015.0,0.6957
1016.0,0.6927
1017.0,0.6946
1018.0,0.6916
1019.0,0.6782
1020.0,0.6882
1021.0,0.687
1022.0,0.6822
1023.0,0.6896
1024.0,0.6821
1025.0,0.6886
1026.0,0.6861
1027.0,0.6845
1028.0,0.6832
1029.0,0.6752
1030.0,0.6794
1031.0,0.6769
1032.0,0.6748
1033.0,0.6647
1034.0,0.6647
1035.0,0.6667
1036.0,0.6704
1037.0,0.6595
1038.0,0.6624
1039.0,0.6622
1040.0,0.6595
1041.0,0.6623
1042.0,0.6577
1043.0,0.6557
1044.0,0.6581
1045.0,0.6493
1046.0,0.6423
1047.0,0.6482
1048.0,0.6518
1049.0,0.6496
1050.0,0.6468
1051.0,0.646
1052.0,0.6435
1053.0,0.6386
1054.0,0.6402
1055.0,0.6408
1056.0,0.6388
1057.0,0.637
1058.0,0.6216
1059.0,0.6225
1060.0,0.6217
1061.0,0.6211
1062.0,0.6246
1063.0,0.6186
1064.0,0.6259
1065.0,0.6219
1066.0,0.6092
1067.0,0.6173
1068.0,0.6042
1069.0,0.5852
1070.0,0.6055
1071.0,0.6136
1072.0,0.6076
1073.0,0.5986
1074.0,0.6127
1075.0,0.586
1076.0,0.6124
1077.0,0.6038
1078.0,0.5932
1079.0,0.602
1080.0,0.5946
1081.0,0.5774
1082.0,0.5833
1083.0,0.5842
1084.0,0.5771
1085.0,0.5956
1086.0,0.55
1087.0,0.5628
1088.0,0.5844
1089.0,0.5703
1090.0,0.5605
1091.0,0.5836
1092.0,0.5813
1093.0,0.5048
1094.0,0.5333
1095.0,0.524
1096.0,0.5054
1097.0,0.5677
1098.0,0.4987
1099.0,0.5183
1100.0,0.4874
1101.0,0.4918
1102.0,0.4729
1103.0,0.4708
1104.0,0.4711
1105.0,0.5076
1106.0,0.409
1107.0,0.4862
1108.0,0.4247
1109.0,0.4231
1110.0,0.4835
1111.0,0.3451
1112.0,0.4188
1113.0,0.2847
1114.0,0.3159
1115.0,0.2625
1116.0,0.221
1117.0,0.0945
1118.0,0.2359
1119.0,0.1274
1120.0,0.1604
1121.0,0.2063
1122.0,0.09589
1123.0,0.1447
1124.0,0.1223
1125.0,0.157
1126.0,0.06383
1127.0,0.1763
1128.0,0.1152
1129.0,0.1206
1130.0,0.08407
1131.0,0.3116
1132.0,0.2488
1133.0,0.1696
1134.0,0.05133
1135.0,0.01891
1136.0,0.1458
1137.0,0.3094
1138.0,0.2209
1139.0,0.3075
1140.0,0.2653
1141.0,0.2099
1142.0,0.2367
1143.0,0.327
1144.0,0.1259
1145.0,0.1632
1146.0,0.1762
1147.0,0.07173
1148.0,0.2833
1149.0,0.2331
1150.0,0.135
1151.0,0.2194
1152.0,0.262
1153.0,0.2494
1154.0,0.1605
1155.0,0.3211
1156.0,0.2934
1157.0,0.3232
1158.0,0.3194
1159.0,0.3388
1160.0,0.2966
1161.0,0.3527
1162.0,0.3553
1163.0,0.4588
1164.0,0.4014
1165.0,0.3858
1166.0,0.3783
1167.0,0.4081
1168.0,0.414
1169.0,0.4211
1170.0,0.4516
1171.0,0.4414
1172.0,0.4459
1173.0,0.4506
1174.0,0.339
1175.0,0.4377
1176.0,0.4731
1177.0,0.4594
1178.0,0.3581
1179.0,0.4766
1180.0,0.4345
1181.0,0.4474
1182.0,0.323
1183.0,0.4385
1184.0,0.4157
1185.0,0.4051
1186.0,0.4667
1187.0,0.4487
1188.0,0.3295
1189.0,0.4191
1190.0,0.4561
1191.0,0.4401
1192.0,0.4617
1193.0,0.445
1194.0,0.4569
1195.0,0.437
1196.0,0.4241
1197.0,0.4543
1198.0,0.4197
1199.0,0.3685
1200.0,0.4399
1201.0,0.4281
1202.0,0.4234
1203.0,0.42
1204.0,0.3739
1205.0,0.4299
1206.0,0.4684
1207.0,0.4234
1208.0,0.4134
1209.0,0.421
1210.0,0.436
1211.0,0.4197
1212.0,0.4193
1213.0,0.4554
1214.0,0.427
1215.0,0.4201
1216.0,0.4538
1217.0,0.444
1218.0,0.4503
1219.0,0.4458
1220.0,0.4505
1221.0,0.4538
1222.0,0.4433
1223.0,0.4401
1224.0,0.4389
1225.0,0.451
1226.0,0.4526
1227.0,0.4232
1228.0,0.4537
1229.0,0.4526
1230.0,0.446
1231.0,0.4552
1232.0,0.4526
1233.0,0.4415
1234.0,0.4539
1235.0,0.4516
1236.0,0.4544
1237.0,0.4499
1238.0,0.4529
1239.0,0.4471
1240.0,0.4486
1241.0,0.4476
1242.0,0.4456
1243.0,0.442
1244.0,0.4455
1245.0,0.4471
1246.0,0.4445
1247.0,0.4431
1248.0,0.4433
1249.0,0.4442
1250.0,0.4419
1251.0,0.4369
1252.0,0.4361
1253.0,0.4341
1254.0,0.431
1255.0,0.4361
1256.0,0.4267
1257.0,0.4249
1258.0,0.4306
1259.0,0.4194
1260.0,0.4211
1261.0,0.403
1262.0,0.3939
1263.0,0.3948
1264.0,0.3714
1265.0,0.3922
1266.0,0.3815
1267.0,0.3854
1268.0,0.37
1269.0,0.2615
1270.0,0.3851
1271.0,0.401
1272.0,0.4017
1273.0,0.3981
1274.0,0.3985
1275.0,0.4032
1276.0,0.406
1277.0,0.4075
1278.0,0.413
1279.0,0.4095
1280.0,0.4042
1281.0,0.3847
1282.0,0.3689
1283.0,0.3977
1284.0,0.4076
1285.0,0.41
1286.0,0.4145
1287.0,0.4099
1288.0,0.4094
1289.0,0.3999
1290.0,0.4055
1291.0,0.4106
1292.0,0.3923
1293.0,0.4042
1294.0,0.4017
1295.0,0.4014
1296.0,0.3875
1297.0,0.37
1298.0,0.3914
1299.0,0.4041
1300.0,0.3539
1301.0,0.3623
1302.0,0.3899
1303.0,0.348
1304.0,0.3081
1305.0,0.3829
1306.0,0.3836
1307.0,0.3108
1308.0,0.3468
1309.0,0.3815
1310.0,0.3054
1311.0,0.335
1312.0,0.3278
1313.0,0.3232
1314.0,0.2934
1315.0,0.2921
1316.0,0.3316
1317.0,0.3154
1318.0,0.3381
1319.0,0.2779
1320.0,0.2663
1321.0,0.3055
1322.0,0.3104
1323.0,0.2449
1324.0,0.2724
1325.0,0.3274
1326.0,0.2882
1327.0,0.2767
1328.0,0.2423
1329.0,0.1916
1330.0,0.2443
1331.0,0.1596
1332.0,0.1606
1333.0,0.2201
1334.0,0.1818
1335.0,0.2438
1336.0,0.1987
1337.0,0.1796
1338.0,0.1937
1339.0,0.1913
1340.0,0.1831
1341.0,0.1855
1342.0,0.1944
1343.0,0.1468
1344.0,0.0877
1345.0,0.1244
1346.0,0.07257
1347.0,0.07556
1348.0,0.007423
1349.0,0.02349
1350.0,0.02233
1351.0,0.007822
1352.0,0.003037
1353.0,0.0002441
1354.0,0.0006405
1355.0,1.248e-05
1356.0,0.0001242
1357.0,0.000186
1358.0,1.427e-05
1359.0,3.388e-06
1360.0,8.19e-06
1361.0,3.683e-08
1362.0,1.931e-10
1363.0,1.27e-05
1364.0,5.74e-06
1365.0,1.382e-10
1366.0,4.656e-05
1367.0,1.796e-05
1368.0,4.53e-12
1369.0,2.26e-06
1370.0,1.451e-06
1371.0,1.187e-07
1372.0,9.982e-06
1373.0,0.0001271
1374.0,0.0004357
1375.0,0.0007766
1376.0,0.0005685
1377.0,0.0002811
1378.0,0.002311
1379.0,0.000121
1380.0,0.0002055
1381.0,6.738e-06
1382.0,9.681e-06
1383.0,1.963e-07
1384.0,2.818e-06
1385.0,6.896e-06
1386.0,1.028e-05
1387.0,0.0005228
1388.0,1.139e-05
1389.0,0.001302
1390.0,0.001111
1391.0,0.000806
1392.0,6.061e-05
1393.0,0.0002689
1394.0,0.0002185
1395.0,2.433e-06
1396.0,4.44e-08
1397.0,0.0001217
1398.0,0.002649
1399.0,0.001689
1400.0,2.714e-08
1401.0,6.998e-08
1402.0,0.003208
1403.0,0.004305
1404.0,0.001357
1405.0,1.493e-06
1406.0,0.003926
1407.0,0.0003367
1408.0,0.003163
1409.0,0.001324
1410.0,0.0009523
1411.0,0.003744
1412.0,0.004549
1413.0,0.03319
1414.0,0.000735
1415.0,0.0003949
1416.0,0.04606
1417.0,0.01716
1418.0,0.01958
1419.0,0.00322
1420.0,0.01214
1421.0,0.01345
1422.0,0.05905
1423.0,0.01239
1424.0,0.02244
1425.0,0.03393
1426.0,0.03583
1427.0,0.0595
1428.0,0.007174
1429.0,0.0472
1430.0,0.07385
1431.0,0.07946
1432.0,0.005752
1433.0,0.05296
1434.0,0.02818
1435.0,0.03233
1436.0,0.05562
1437.0,0.04274
1438.0,0.01997
1439.0,0.07262
1440.0,0.05487
1441.0,0.04493
1442.0,0.049
1443.0,0.05683
1444.0,0.07689
1445.0,0.06382
1446.0,0.02987
1447.0,0.04708
1448.0,0.132
1449.0,0.1184
1450.0,0.03483
1451.0,0.01502
1452.0,0.07475
1453.0,0.09588
1454.0,0.152
1455.0,0.07641
1456.0,0.1046
1457.0,0.1327
1458.0,0.1494
1459.0,0.1777
1460.0,0.09649
1461.0,0.1038
1462.0,0.1461
1463.0,0.05158
1464.0,0.1672
1465.0,0.1019
1466.0,0.07825
1467.0,0.04486
1468.0,0.09016
1469.0,0.1084
