interpolation:linear
wavelength,value
280.0,3.8449999999999996e-29
280.5,2.728e-27
281.0,1.9740000000000003e-26
281.5,1.325e-24
282.0,1.682e-23
282.5,8.829999999999999e-23
283.0,5.500999999999999e-22
283.5,1.2320000000000001e-21
284.0,6.937e-20
284.5,3.416e-19
285.0,1.176e-18
285.5,1.421e-17
286.0,8.007e-17
286.5,6.689e-16
287.0,2.968e-15
287.5,1.955e-14
288.0,1.39e-13
288.5,7.03e-13
289.0,3.02e-12
289.5,1.476e-11
290.0,5.983e-11
290.5,1.666e-10
291.0,5.117e-10
291.5,2.265e-09
292.0,7.312e-09
292.5,1.261e-08
293.0,3.479e-08
293.5,1.176e-07
294.0,2.317e-07
294.5,4.611e-07
295.0,9.465e-07
295.5,2.769e-06
296.0,5.67e-06
296.5,8.35e-06
297.0,1.175e-05
297.5,3.291e-05
298.0,5.346e-05
298.5,5.488e-05
299.0,0.0001228
299.5,0.0002054
300.0,0.0002265
300.5,0.0003272
301.0,0.0005804
301.5,0.0009007
302.0,0.0007613
302.5,0.00152
303.0,0.002787
303.5,0.003541
304.0,0.003313
304.5,0.004811
305.0,0.006966
305.5,0.007759
306.0,0.007465
306.5,0.009148
307.0,0.01294
307.5,0.0164
308.0,0.01731
308.5,0.02004
309.0,0.01809
309.5,0.02085
310.0,0.02106
310.5,0.03431
311.0,0.04321
311.5,0.04195
312.0,0.04166
312.5,0.05047
313.0,0.05477
313.5,0.05397
314.0,0.06682
314.5,0.05813
315.0,0.07657
315.5,0.06543
316.0,0.05623
316.5,0.07951
317.0,0.09946
317.5,0.1049
318.0,0.08111
318.5,0.0981
319.0,0.1151
319.5,0.0972
320.0,0.1187
320.5,0.1444
321.0,0.125
321.5,0.1202
322.0,0.1339
322.5,0.117
323.0,0.1145
323.5,0.1355
324.0,0.1586
324.5,0.1637
325.0,0.147
325.5,0.1864
326.0,0.2236
326.5,0.222
327.0,0.2239
327.5,0.2191
328.0,0.1998
328.5,0.2067
329.0,0.2441
329.5,0.277
330.0,0.2825
330.5,0.2309
331.0,0.2378
331.5,0.2404
332.0,0.2568
332.5,0.2534
333.0,0.2553
333.5,0.2353
334.0,0.2429
334.5,0.2778
335.0,0.2602
335.5,0.2968
336.0,0.2064
336.5,0.2513
337.0,0.2086
337.5,0.2613
338.0,0.2534
338.5,0.2873
339.0,0.2875
339.5,0.2768
340.0,0.3338
340.5,0.302
341.0,0.2911
341.5,0.271
342.0,0.3261
342.5,0.3072
343.0,0.3379
343.5,0.3184
344.0,0.2392
344.5,0.2379
345.0,0.32
345.5,0.3294
346.0,0.2818
346.5,0.321
347.0,0.3449
347.5,0.2797
348.0,0.3217
348.5,0.3236
349.0,0.3017
349.5,0.2999
350.0,0.3725
350.5,0.3946
351.0,0.3534
351.5,0.3431
352.0,0.3713
352.5,0.2916
353.0,0.3692
353.5,0.3966
354.0,0.4136
354.5,0.4211
355.0,0.4212
355.5,0.3821
356.0,0.4014
356.5,0.3441
357.0,0.2854
357.5,0.3507
358.0,0.2791
358.5,0.2394
359.0,0.336
359.5,0.4295
360.0,0.457
360.5,0.3667
361.0,0.3356
361.5,0.3878
362.0,0.3365
362.5,0.4674
363.0,0.4212
363.5,0.3893
364.0,0.4777
364.5,0.4097
365.0,0.4187
365.5,0.5272
366.0,0.5604
366.5,0.5283
367.0,0.5162
367.5,0.5374
368.0,0.4718
368.5,0.4776
369.0,0.5174
369.5,0.5532
370.0,0.5916
370.5,0.4606
371.0,0.4937
371.5,0.6196
372.0,0.4125
372.5,0.4961
373.0,0.5061
373.5,0.3303
374.0,0.4813
374.5,0.3997
375.0,0.3897
375.5,0.5836
376.0,0.4852
376.5,0.5042
377.0,0.5353
377.5,0.6281
378.0,0.6828
378.5,0.6472
379.0,0.5357
379.5,0.4908
380.0,0.5118
380.5,0.6216
381.0,0.6247
381.5,0.4966
382.0,0.4422
382.5,0.378
383.0,0.351
383.5,0.3389
384.0,0.3748
384.5,0.5527
385.0,0.5495
385.5,0.5131
386.0,0.4406
386.5,0.5802
387.0,0.4834
387.5,0.5443
388.0,0.5038
388.5,0.4993
389.0,0.5403
389.5,0.656
390.0,0.66
390.5,0.6088
391.0,0.7184
391.5,0.7346
392.0,0.6202
392.5,0.5565
393.0,0.3104
393.5,0.2261
394.0,0.4612
394.5,0.5877
395.0,0.7187
395.5,0.7317
396.0,0.6358
396.5,0.3725
397.0,0.2802
397.5,0.5711
398.0,0.8015
398.5,0.8302
399.0,0.9009
399.5,0.8998
400.0,0.9363
401.0,0.9654
402.0,1.023
403.0,0.9753
404.0,0.964
405.0,0.9675
406.0,0.9553
407.0,0.9435
408.0,0.984
409.0,1.057
410.0,0.9265
411.0,1.007
412.0,1.085
413.0,1.062
414.0,1.078
415.0,1.085
416.0,1.107
417.0,1.084
418.0,1.067
419.0,1.085
420.0,1.083
421.0,1.137
422.0,1.084
423.0,1.062
424.0,1.127
425.0,1.128
426.0,1.102
427.0,1.084
428.0,1.059
429.0,1.006
430.0,0.8825
431.0,0.8772
432.0,1.136
433.0,1.145
434.0,1.066
435.0,1.116
436.0,1.261
437.0,1.246
438.0,1.138
439.0,1.18
440.0,1.22
441.0,1.267
442.0,1.362
443.0,1.33
444.0,1.362
445.0,1.336
446.0,1.277
447.0,1.384
448.0,1.409
449.0,1.417
450.0,1.46
451.0,1.517
452.0,1.465
453.0,1.38
454.0,1.444
455.0,1.456
456.0,1.493
457.0,1.521
458.0,1.473
459.0,1.468
460.0,1.475
461.0,1.512
462.0,1.526
463.0,1.518
464.0,1.495
465.0,1.478
466.0,1.495
467.0,1.47
468.0,1.491
469.0,1.501
470.0,1.456
471.0,1.456
472.0,1.537
473.0,1.519
474.0,1.524
475.0,1.54
476.0,1.497
477.0,1.504
478.0,1.548
479.0,1.541
480.0,1.547
481.0,1.578
482.0,1.588
483.0,1.571
484.0,1.541
485.0,1.47
486.0,1.287
487.0,1.35
488.0,1.483
489.0,1.49
490.0,1.57
491.0,1.544
492.0,1.46
493.0,1.51
494.0,1.527
495.0,1.542
496.0,1.554
497.0,1.58
498.0,1.508
499.0,1.53
500.0,1.487
501.0,1.462
502.0,1.444
503.0,1.505
504.0,1.47
505.0,1.524
506.0,1.575
507.0,1.5
508.0,1.454
509.0,1.496
510.0,1.49
511.0,1.531
512.0,1.549
513.0,1.468
514.0,1.459
515.0,1.446
516.0,1.444
517.0,1.284
518.0,1.352
519.0,1.419
520.0,1.473
521.0,1.488
522.0,1.491
523.0,1.466
524.0,1.52
525.0,1.54
526.0,1.472
527.0,1.389
528.0,1.471
529.0,1.552
530.0,1.531
531.0,1.555
532.0,1.503
533.0,1.46
534.0,1.505
535.0,1.539
536.0,1.554
537.0,1.494
538.0,1.521
539.0,1.51
540.0,1.449
541.0,1.46
542.0,1.507
543.0,1.492
544.0,1.519
545.0,1.516
546.0,1.524
547.0,1.524
548.0,1.507
549.0,1.512
550.0,1.531
551.0,1.514
552.0,1.525
553.0,1.499
554.0,1.536
555.0,1.541
556.0,1.522
557.0,1.476
558.0,1.466
559.0,1.44
560.0,1.459
561.0,1.479
562.0,1.47
563.0,1.511
564.0,1.471
565.0,1.46
566.0,1.439
567.0,1.468
568.0,1.456
569.0,1.424
570.0,1.424
571.0,1.416
572.0,1.452
573.0,1.468
574.0,1.465
575.0,1.438
576.0,1.426
577.0,1.442
578.0,1.421
579.0,1.427
580.0,1.454
581.0,1.461
582.0,1.489
583.0,1.493
584.0,1.506
585.0,1.47
586.0,1.441
587.0,1.473
588.0,1.44
589.0,1.28
590.0,1.338
591.0,1.415
592.0,1.399
593.0,1.419
594.0,1.411
595.0,1.378
596.0,1.43
597.0,1.416
598.0,1.412
599.0,1.414
600.0,1.416
601.0,1.405
602.0,1.396
603.0,1.419
604.0,1.443
605.0,1.436
606.0,1.431
607.0,1.445
608.0,1.429
609.0,1.432
610.0,1.422
611.0,1.43
612.0,1.426
613.0,1.409
614.0,1.39
615.0,1.42
616.0,1.374
617.0,1.372
618.0,1.425
619.0,1.411
620.0,1.42
621.0,1.422
622.0,1.406
623.0,1.386
624.0,1.362
625.0,1.36
626.0,1.38
627.0,1.397
628.0,1.311
629.0,1.367
630.0,1.336
631.0,1.365
632.0,1.348
633.0,1.389
634.0,1.375
635.0,1.396
636.0,1.378
637.0,1.401
638.0,1.414
639.0,1.398
640.0,1.385
641.0,1.384
642.0,1.378
643.0,1.397
644.0,1.393
645.0,1.396
646.0,1.364
647.0,1.35
648.0,1.352
649.0,1.327
650.0,1.331
651.0,1.389
652.0,1.334
653.0,1.371
654.0,1.356
655.0,1.307
656.0,1.158
657.0,1.189
658.0,1.332
659.0,1.342
660.0,1.348
661.0,1.358
662.0,1.361
663.0,1.334
664.0,1.35
665.0,1.351
666.0,1.352
667.0,1.351
668.0,1.352
669.0,1.373
670.0,1.367
671.0,1.367
672.0,1.356
673.0,1.376
674.0,1.371
675.0,1.359
676.0,1.369
677.0,1.355
678.0,1.359
679.0,1.338
680.0,1.349
681.0,1.34
682.0,1.339
683.0,1.336
684.0,1.33
685.0,1.342
686.0,1.334
687.0,0.9137
688.0,1.058
689.0,1.062
690.0,1.109
691.0,1.163
692.0,1.201
693.0,1.192
694.0,1.183
695.0,1.228
696.0,1.23
697.0,1.302
698.0,1.282
699.0,1.254
700.0,1.239
701.0,1.228
702.0,1.236
703.0,1.238
704.0,1.276
705.0,1.278
706.0,1.277
707.0,1.278
708.0,1.281
709.0,1.282
710.0,1.283
711.0,1.281
712.0,1.277
713.0,1.265
714.0,1.27
715.0,1.231
716.0,1.232
717.0,1.079
718.0,0.9932
719.0,0.9112
720.0,0.9553
721.0,1.048
722.0,1.192
723.0,1.114
724.0,1.008
725.0,0.9935
726.0,1.039
727.0,1.052
728.0,0.992
729.0,1.026
730.0,1.085
731.0,1.04
732.0,1.108
733.0,1.17
734.0,1.197
735.0,1.173
736.0,1.171
737.0,1.176
738.0,1.192
739.0,1.169
740.0,1.199
741.0,1.187
742.0,1.188
743.0,1.218
744.0,1.215
745.0,1.215
746.0,1.22
747.0,1.223
748.0,1.221
749.0,1.207
750.0,1.207
751.0,1.195
752.0,1.2
753.0,1.206
754.0,1.209
755.0,1.202
756.0,1.202
757.0,1.204
758.0,1.189
759.0,1.167
760.0,0.2185
761.0,0.1193
762.0,0.6233
763.0,0.3255
764.0,0.4771
765.0,0.6237
766.0,0.7539
767.0,0.9395
768.0,1.075
769.0,1.095
770.0,1.13
771.0,1.139
772.0,1.141
773.0,1.149
774.0,1.143
775.0,1.135
776.0,1.149
777.0,1.134
778.0,1.127
779.0,1.128
780.0,1.122
781.0,1.123
782.0,1.131
783.0,1.111
784.0,1.116
785.0,1.108
786.0,1.121
787.0,1.102
788.0,1.089
789.0,1.089
790.0,1.062
791.0,1.07
792.0,1.062
793.0,1.045
794.0,1.061
795.0,1.08
796.0,1.049
797.0,1.05
798.0,1.079
799.0,1.073
800.0,1.055
801.0,1.052
802.0,1.049
803.0,1.042
804.0,1.043
805.0,1.039
806.0,1.068
807.0,1.055
808.0,1.056
809.0,1.037
810.0,1.029
811.0,1.032
812.0,1.004
813.0,0.9837
814.0,0.8702
815.0,0.8648
816.0,0.8058
817.0,0.8201
818.0,0.7905
819.0,0.8797
820.0,0.8302
821.0,0.9649
822.0,0.9383
823.0,0.6471
824.0,0.9131
825.0,0.9488
826.0,0.9146
827.0,0.9635
828.0,0.8219
829.0,0.909
830.0,0.8977
831.0,0.9008
832.0,0.8741
833.0,0.9275
834.0,0.8964
835.0,0.9814
836.0,0.9416
837.0,0.9842
838.0,0.9546
839.0,0.9693
840.0,0.9904
841.0,0.9769
842.0,0.9785
843.0,0.9774
844.0,0.9643
845.0,0.9965
846.0,0.9921
847.0,0.9736
848.0,0.9679
849.0,0.9405
850.0,0.9011
851.0,0.9544
852.0,0.9477
853.0,0.9121
854.0,0.7878
855.0,0.8653
856.0,0.9458
857.0,0.9668
858.0,0.9598
859.0,0.9607
860.0,0.9624
861.0,0.9573
862.0,0.9723
863.0,0.9954
864.0,0.9457
865.0,0.9375
866.0,0.843
867.0,0.8798
868.0,0.9575
869.0,0.9377
870.0,0.9645
871.0,0.9514
872.0,0.9481
873.0,0.9463
874.0,0.9351
875.0,0.9163
876.0,0.9259
877.0,0.9353
878.0,0.9456
879.0,0.9311
880.0,0.9112
881.0,0.8977
882.0,0.9172
883.0,0.9201
884.0,0.916
885.0,0.923
886.0,0.8801
887.0,0.8892
888.0,0.9025
889.0,0.9126
890.0,0.9054
891.0,0.9037
892.0,0.8781
893.0,0.8513
894.0,0.8224
895.0,0.7785
896.0,0.734
897.0,0.6323
898.0,0.6891
899.0,0.5263
900.0,0.7046
901.0,0.5516
902.0,0.6446
903.0,0.6519
904.0,0.8168
905.0,0.7893
906.0,0.7392
907.0,0.6032
908.0,0.6148
909.0,0.6649
910.0,0.5901
911.0,0.6277
912.0,0.6558
913.0,0.599
914.0,0.5936
915.0,0.6433
916.0,0.5452
917.0,0.6897
918.0,0.5591
919.0,0.7018
920.0,0.7081
921.0,0.7362
922.0,0.6596
923.0,0.7112
924.0,0.6762
925.0,0.6616
926.0,0.6688
927.0,0.7475
928.0,0.5518
929.0,0.5046
930.0,0.3977
931.0,0.3768
932.0,0.2724
933.0,0.2219
934.0,0.1226
935.0,0.2267
936.0,0.1422
937.0,0.1442
938.0,0.1771
939.0,0.3652
940.0,0.4386
941.0,0.3319
942.0,0.3839
943.0,0.2532
944.0,0.2661
945.0,0.3422
946.0,0.175
947.0,0.344
948.0,0.2529
949.0,0.4596
950.0,0.1288
951.0,0.4526
952.0,0.2441
953.0,0.3147
954.0,0.3852
955.0,0.3183
956.0,0.3087
957.0,0.2446
958.0,0.4366
959.0,0.3475
960.0,0.3894
961.0,0.4366
962.0,0.4132
963.0,0.4759
964.0,0.4362
965.0,0.4742
966.0,0.4743
967.0,0.4724
968.0,0.6318
969.0,0.66
970.0,0.6064
971.0,0.6935
972.0,0.6636
973.0,0.5784
974.0,0.5491
975.0,0.5698
976.0,0.5414
977.0,0.6155
978.0,0.585
979.0,0.6125
980.0,0.5761
981.0,0.6898
982.0,0.6598
983.0,0.6336
984.0,0.7105
985.0,0.6574
986.0,0.7229
987.0,0.709
988.0,0.7077
989.0,0.7207
990.0,0.7035
991.0,0.723
992.0,0.7272
993.0,0.7112
994.0,0.727
995.0,0.7261
996.0,0.7229
997.0,0.724
998.0,0.7207
999.0,0.7181
1000.0,0.713
1001.0,0.722
1002.0,0.7022
1003.0,0.7093
1004.0,0.692
1005.0,0.6666
1006.0,0.6927
1007.0,0.7074
1008.0,0.7036
1009.0,0.6999
1010.0,0.697
1011.0,0.704
1012.0,0.6979
1013.0,0.7023
1014.0,0.6974
1015.0,0.6928
1016.0,0.6897
1017.0,0.6915
1018.0,0.6889
1019.0,0.6743
1020.0,0.6854
1021.0,0.6844
1022.0,0.6792
1023.0,0.6864
1024.0,0.6775
1025.0,0.686
1026.0,0.6831
1027.0,0.6815
1028.0,0.6801
1029.0,0.6721
1030.0,0.6767
1031.0,0.6741
1032.0,0.6721
1033.0,0.662
1034.0,0.6621
1035.0,0.6642
1036.0,0.6676
1037.0,0.6568
1038.0,0.6597
1039.0,0.6594
1040.0,0.6567
1041.0,0.6594
1042.0,0.6548
1043.0,0.6528
1044.0,0.6551
1045.0,0.6462
1046.0,0.6391
1047.0,0.6449
1048.0,0.6484
1049.0,0.6461
1050.0,0.6432
1051.0,0.6423
1052.0,0.6397
1053.0,0.6347
1054.0,0.6361
1055.0,0.6364
1056.0,0.6342
1057.0,0.6323
1058.0,0.6168
1059.0,0.6175
1060.0,0.6165
1061.0,0.6158
1062.0,0.6191
1063.0,0.613
1064.0,0.6203
1065.0,0.6158
1066.0,0.6037
1067.0,0.6115
1068.0,0.5982
1069.0,0.5797
1070.0,0.5994
1071.0,0.6087
1072.0,0.6017
1073.0,0.5931
1074.0,0.6084
1075.0,0.578
1076.0,0.6079
1077.0,0.5971
1078.0,0.5859
1079.0,0.5983
1080.0,0.588
1081.0,0.5692
1082.0,0.5783
1083.0,0.5801
1084.0,0.5679
1085.0,0.5894
1086.0,0.538
1087.0,0.5553
1088.0,0.5796
1089.0,0.5619
1090.0,0.5496
1091.0,0.5777
1092.0,0.5763
1093.0,0.4889
1094.0,0.5273
1095.0,0.5094
1096.0,0.4878
1097.0,0.563
1098.0,0.4803
1099.0,0.501
1100.0,0.4658
1101.0,0.4716
1102.0,0.4506
1103.0,0.4462
1104.0,0.4468
1105.0,0.4896
1106.0,0.375
1107.0,0.4651
1108.0,0.3946
1109.0,0.3953
1110.0,0.4611
1111.0,0.3132
1112.0,0.3922
1113.0,0.25
1114.0,0.2794
1115.0,0.2317
1116.0,0.1851
1117.0,0.06805
1118.0,0.2014
1119.0,0.09996
1120.0,0.1258
1121.0,0.167
1122.0,0.07028
1123.0,0.1137
1124.0,0.09599
1125.0,0.1252
1126.0,0.04356
1127.0,0.1412
1128.0,0.08447
1129.0,0.08965
1130.0,0.05896
1131.0,0.2679
1132.0,0.2102
1133.0,0.1332
1134.0,0.03399
1135.0,0.01274
1136.0,0.1111
1137.0,0.2632
1138.0,0.1854
1139.0,0.2765
1140.0,0.2311
1141.0,0.1762
1142.0,0.2027
1143.0,0.2878
1144.0,0.1006
1145.0,0.1285
1146.0,0.1386
1147.0,0.04869
1148.0,0.2492
1149.0,0.199
1150.0,0.1082
1151.0,0.184
1152.0,0.2265
1153.0,0.2208
1154.0,0.1245
1155.0,0.2885
1156.0,0.2599
1157.0,0.2915
1158.0,0.2884
1159.0,0.3109
1160.0,0.2659
1161.0,0.3272
1162.0,0.3289
1163.0,0.443
1164.0,0.3804
1165.0,0.3594
1166.0,0.3566
1167.0,0.3881
1168.0,0.3925
1169.0,0.4016
1170.0,0.436
1171.0,0.4252
1172.0,0.4326
1173.0,0.4351
1174.0,0.3123
1175.0,0.4248
1176.0,0.4661
1177.0,0.4481
1178.0,0.3379
1179.0,0.4699
1180.0,0.4205
1181.0,0.4338
1182.0,0.3009
1183.0,0.427
1184.0,0.4007
1185.0,0.3871
1186.0,0.4573
1187.0,0.4361
1188.0,0.3062
1189.0,0.4064
1190.0,0.4469
1191.0,0.4253
1192.0,0.4531
1193.0,0.4345
1194.0,0.4476
1195.0,0.4241
1196.0,0.4089
1197.0,0.4475
1198.0,0.41
1199.0,0.3503
1200.0,0.4292
1201.0,0.4145
1202.0,0.4118
1203.0,0.4083
1204.0,0.358
1205.0,0.4209
1206.0,0.464
1207.0,0.4109
1208.0,0.4039
1209.0,0.4121
1210.0,0.4289
1211.0,0.4092
1212.0,0.4051
1213.0,0.4491
1214.0,0.4144
1215.0,0.4067
1216.0,0.4477
1217.0,0.4362
1218.0,0.4441
1219.0,0.4388
1220.0,0.4445
1221.0,0.4487
1222.0,0.4373
1223.0,0.4334
1224.0,0.431
1225.0,0.4459
1226.0,0.4487
1227.0,0.4149
1228.0,0.4508
1229.0,0.4488
1230.0,0.4413
1231.0,0.4532
1232.0,0.4506
1233.0,0.4359
1234.0,0.4527
1235.0,0.45
1236.0,0.4532
1237.0,0.4472
1238.0,0.4516
1239.0,0.4459
1240.0,0.4475
1241.0,0.4456
1242.0,0.4445
1243.0,0.4409
1244.0,0.4441
1245.0,0.4459
1246.0,0.4433
1247.0,0.4417
1248.0,0.4415
1249.0,0.4428
1250.0,0.4401
1251.0,0.4346
1252.0,0.4346
1253.0,0.4313
1254.0,0.4272
1255.0,0.4342
1256.0,0.4225
1257.0,0.4203
1258.0,0.4278
1259.0,0.4131
1260.0,0.4151
1261.0,0.3928
1262.0,0.3815
1263.0,0.3823
1264.0,0.354
1265.0,0.3798
1266.0,0.3662
1267.0,0.3721
1268.0,0.3537
1269.0,0.2243
1270.0,0.371
1271.0,0.3914
1272.0,0.3926
1273.0,0.3885
1274.0,0.3896
1275.0,0.3951
1276.0,0.3987
1277.0,0.4012
1278.0,0.4085
1279.0,0.4049
1280.0,0.3997
1281.0,0.3812
1282.0,0.367
1283.0,0.3954
1284.0,0.4049
1285.0,0.4075
1286.0,0.4129
1287.0,0.4068
1288.0,0.4066
1289.0,0.3944
1290.0,0.403
1291.0,0.4086
1292.0,0.385
1293.0,0.4009
1294.0,0.3981
1295.0,0.3965
1296.0,0.3793
1297.0,0.3593
1298.0,0.3856
1299.0,0.4013
1300.0,0.3416
1301.0,0.3517
1302.0,0.3844
1303.0,0.3369
1304.0,0.289
1305.0,0.3766
1306.0,0.3768
1307.0,0.2947
1308.0,0.3372
1309.0,0.374
1310.0,0.2892
1311.0,0.3237
1312.0,0.3152
1313.0,0.3093
1314.0,0.2775
1315.0,0.2742
1316.0,0.3188
1317.0,0.3022
1318.0,0.3278
1319.0,0.258
1320.0,0.2497
1321.0,0.2902
1322.0,0.2933
1323.0,0.2221
1324.0,0.2531
1325.0,0.3144
1326.0,0.2707
1327.0,0.2585
1328.0,0.2233
1329.0,0.1688
1330.0,0.2192
1331.0,0.1334
1332.0,0.1374
1333.0,0.191
1334.0,0.1612
1335.0,0.2213
1336.0,0.1756
1337.0,0.1555
1338.0,0.1683
1339.0,0.1674
1340.0,0.1626
1341.0,0.1594
1342.0,0.1674
1343.0,0.1145
1344.0,0.0685
1345.0,0.09873
1346.0,0.04973
1347.0,0.05067
1348.0,0.003419
1349.0,0.01215
1350.0,0.01253
1351.0,0.003155
1352.0,0.0008872
1353.0,4.735e-05
1354.0,0.0001586
1355.0,1.404e-06
1356.0,2.321e-05
1357.0,3.533e-05
1358.0,1.657e-06
1359.0,2.243e-07
1360.0,7.777e-07
1361.0,1.011e-09
1362.0,2.953e-12
1363.0,1.077e-06
1364.0,4.477e-07
1365.0,1.127e-12
1366.0,4.622e-06
1367.0,1.87e-06
1368.0,1.028e-14
1369.0,1.681e-07
1370.0,8.546e-08
1371.0,5.037e-09
1372.0,1.029e-06
1373.0,1.983e-05
1374.0,8.931e-05
1375.0,0.0001627
1376.0,0.0001425
1377.0,6.574e-05
1378.0,0.0006352
1379.0,2.766e-05
1380.0,4.065e-05
1381.0,1.083e-06
1382.0,9.36e-07
1383.0,1.442e-08
1384.0,1.924e-07
1385.0,8.564e-07
1386.0,8.519e-07
1387.0,9.456e-05
1388.0,1.868e-06
1389.0,0.0003099
1390.0,0.0002669
1391.0,0.0001793
1392.0,1.178e-05
1393.0,6.151e-05
1394.0,3.348e-05
1395.0,2.555e-07
1396.0,1.428e-09
1397.0,2.482e-05
1398.0,0.0007163
1399.0,0.0004541
1400.0,6.42e-10
1401.0,2.534e-09
1402.0,0.001214
1403.0,0.001537
1404.0,0.0004701
1405.0,1.277e-07
1406.0,0.001239
1407.0,0.0001085
1408.0,0.001012
1409.0,0.0003467
1410.0,0.0002739
1411.0,0.00135
1412.0,0.001805
1413.0,0.01818
1414.0,0.0002156
1415.0,0.0001045
1416.0,0.02966
1417.0,0.008987
1418.0,0.01024
1419.0,0.001589
1420.0,0.006265
1421.0,0.006775
1422.0,0.03873
1423.0,0.007502
1424.0,0.01407
1425.0,0.02069
1426.0,0.02353
1427.0,0.04339
1428.0,0.003222
1429.0,0.03237
1430.0,0.0554
1431.0,0.06092
1432.0,0.002537
1433.0,0.03864
1434.0,0.0196
1435.0,0.01939
1436.0,0.03775
1437.0,0.02893
1438.0,0.01212
1439.0,0.05148
1440.0,0.03855
1441.0,0.02919
1442.0,0.0324
1443.0,0.04101
1444.0,0.05701
1445.0,0.04429
1446.0,0.01982
1447.0,0.03127
1448.0,0.1084
1449.0,0.09375
1450.0,0.02322
1451.0,0.009245
1452.0,0.05602
1453.0,0.07381
1454.0,0.1287
1455.0,0.05995
1456.0,0.08032
1457.0,0.1089
1458.0,0.1296
1459.0,0.1531
1460.0,0.07907
1461.0,0.08202
