interpolation:linear
wavelength,value
280.0,1.046e-25
280.5,4.489e-24
281.0,2.703e-23
281.5,1.1160000000000001e-21
282.0,1.054e-20
282.5,4.533e-20
283.0,2.269e-19
283.5,4.554e-19
284.0,1.544e-17
284.5,6.036e-17
285.0,1.618e-16
285.5,1.457e-15
286.0,7.285e-15
286.5,4.764e-14
287.0,1.765e-13
287.5,9.171e-13
288.0,4.838e-12
288.5,2.088e-11
289.0,7.618e-11
289.5,3.11e-10
290.0,1.088e-09
290.5,2.679e-09
291.0,7.094e-09
291.5,2.601e-08
292.0,7.199e-08
292.5,1.138e-07
293.0,2.812e-07
293.5,8.169e-07
294.0,1.454e-06
294.5,2.678e-06
295.0,4.99e-06
295.5,1.295e-05
296.0,2.443e-05
296.5,3.328e-05
297.0,4.402e-05
297.5,0.0001131
298.0,0.0001714
298.5,0.000167
299.0,0.0003562
299.5,0.0005512
300.0,0.0005837
300.5,0.0008105
301.0,0.001358
301.5,0.002011
302.0,0.001662
302.5,0.003188
303.0,0.005568
303.5,0.006879
304.0,0.006349
304.5,0.008925
305.0,0.01239
305.5,0.01346
306.0,0.01281
306.5,0.01545
307.0,0.02118
307.5,0.0261
308.0,0.02738
308.5,0.03126
309.0,0.0279
309.5,0.03124
310.0,0.03111
310.5,0.05033
311.0,0.06268
311.5,0.06051
312.0,0.05883
312.5,0.07029
313.0,0.0757
313.5,0.07491
314.0,0.09132
314.5,0.07794
315.0,0.1022
315.5,0.08794
316.0,0.07443
316.5,0.1039
317.0,0.1299
317.5,0.1373
318.0,0.1052
318.5,0.1253
319.0,0.146
319.5,0.1244
320.0,0.1519
320.5,0.1821
321.0,0.1558
321.5,0.1495
322.0,0.1682
322.5,0.1467
323.0,0.1423
323.5,0.1663
324.0,0.194
324.5,0.2009
325.0,0.1817
325.5,0.2287
326.0,0.272
326.5,0.2685
327.0,0.2709
327.5,0.2653
328.0,0.2434
328.5,0.2494
329.0,0.2926
329.5,0.3312
330.0,0.3378
330.5,0.277
331.0,0.2853
331.5,0.2872
332.0,0.3053
332.5,0.3004
333.0,0.3026
333.5,0.2795
334.0,0.2883
334.5,0.3283
335.0,0.3067
335.5,0.3491
336.0,0.2425
336.5,0.2955
337.0,0.2453
337.5,0.3072
338.0,0.2969
338.5,0.336
339.0,0.3358
339.5,0.323
340.0,0.3896
340.5,0.3521
341.0,0.3387
341.5,0.3149
342.0,0.3786
342.5,0.3562
343.0,0.3916
343.5,0.3688
344.0,0.2772
344.5,0.2751
345.0,0.3695
345.5,0.38
346.0,0.3248
346.5,0.3695
347.0,0.3968
347.5,0.3215
348.0,0.3694
348.5,0.3713
349.0,0.3458
349.5,0.3434
350.0,0.4263
350.5,0.4512
351.0,0.4038
351.5,0.3918
352.0,0.4237
352.5,0.3324
353.0,0.4205
353.5,0.4514
354.0,0.4704
354.5,0.4786
355.0,0.4784
355.5,0.4336
356.0,0.4552
356.5,0.3899
357.0,0.3232
357.5,0.397
358.0,0.3157
358.5,0.2706
359.0,0.3796
359.5,0.485
360.0,0.5158
360.5,0.4136
361.0,0.3782
361.5,0.4366
362.0,0.3785
362.5,0.5252
363.0,0.473
363.5,0.4368
364.0,0.5356
364.5,0.4591
365.0,0.4688
365.5,0.59
366.0,0.6267
366.5,0.5904
367.0,0.5765
367.5,0.5999
368.0,0.5263
368.5,0.5324
369.0,0.5764
369.5,0.616
370.0,0.6583
370.5,0.5122
371.0,0.5487
371.5,0.6882
372.0,0.4579
372.5,0.5504
373.0,0.5612
373.5,0.366
374.0,0.5331
374.5,0.4425
375.0,0.4312
375.5,0.6453
376.0,0.5362
376.5,0.557
377.0,0.5911
377.5,0.6931
378.0,0.7531
378.5,0.7136
379.0,0.5904
379.5,0.5407
380.0,0.5636
380.5,0.6841
381.0,0.6871
381.5,0.5458
382.0,0.4858
382.5,0.415
383.0,0.385
383.5,0.3716
384.0,0.4108
384.5,0.6055
385.0,0.6017
385.5,0.5615
386.0,0.4819
386.5,0.6343
387.0,0.5282
387.5,0.5945
388.0,0.55
388.5,0.5448
389.0,0.5893
389.5,0.7152
390.0,0.7192
390.5,0.6632
391.0,0.7821
391.5,0.7994
392.0,0.6746
392.5,0.6051
393.0,0.3373
393.5,0.2456
394.0,0.5008
394.5,0.6378
395.0,0.7797
395.5,0.7936
396.0,0.6893
396.5,0.4036
397.0,0.3035
397.5,0.6183
398.0,0.8675
398.5,0.8982
399.0,0.9741
399.5,0.9725
400.0,1.012
401.0,1.042
402.0,1.103
403.0,1.051
404.0,1.038
405.0,1.041
406.0,1.027
407.0,1.014
408.0,1.057
409.0,1.134
410.0,0.9936
411.0,1.079
412.0,1.162
413.0,1.136
414.0,1.153
415.0,1.159
416.0,1.183
417.0,1.157
418.0,1.138
419.0,1.156
420.0,1.154
421.0,1.21
422.0,1.153
423.0,1.13
424.0,1.198
425.0,1.198
426.0,1.17
427.0,1.15
428.0,1.123
429.0,1.066
430.0,0.9347
431.0,0.9288
432.0,1.202
433.0,1.211
434.0,1.127
435.0,1.179
436.0,1.331
437.0,1.315
438.0,1.2
439.0,1.244
440.0,1.286
441.0,1.335
442.0,1.434
443.0,1.4
444.0,1.433
445.0,1.405
446.0,1.343
447.0,1.454
448.0,1.48
449.0,1.487
450.0,1.532
451.0,1.591
452.0,1.536
453.0,1.446
454.0,1.512
455.0,1.524
456.0,1.563
457.0,1.592
458.0,1.54
459.0,1.535
460.0,1.542
461.0,1.579
462.0,1.594
463.0,1.585
464.0,1.56
465.0,1.542
466.0,1.559
467.0,1.533
468.0,1.554
469.0,1.564
470.0,1.517
471.0,1.516
472.0,1.6
473.0,1.582
474.0,1.587
475.0,1.604
476.0,1.559
477.0,1.566
478.0,1.611
479.0,1.603
480.0,1.608
481.0,1.64
482.0,1.649
483.0,1.631
484.0,1.599
485.0,1.525
486.0,1.334
487.0,1.399
488.0,1.537
489.0,1.544
490.0,1.626
491.0,1.599
492.0,1.512
493.0,1.563
494.0,1.58
495.0,1.595
496.0,1.607
497.0,1.634
498.0,1.559
499.0,1.581
500.0,1.537
501.0,1.511
502.0,1.493
503.0,1.557
504.0,1.522
505.0,1.575
506.0,1.628
507.0,1.55
508.0,1.503
509.0,1.545
510.0,1.538
511.0,1.58
512.0,1.598
513.0,1.514
514.0,1.505
515.0,1.491
516.0,1.489
517.0,1.324
518.0,1.393
519.0,1.462
520.0,1.517
521.0,1.533
522.0,1.536
523.0,1.51
524.0,1.566
525.0,1.586
526.0,1.517
527.0,1.431
528.0,1.515
529.0,1.599
530.0,1.577
531.0,1.602
532.0,1.549
533.0,1.504
534.0,1.55
535.0,1.584
536.0,1.6
537.0,1.537
538.0,1.565
539.0,1.553
540.0,1.49
541.0,1.502
542.0,1.551
543.0,1.535
544.0,1.563
545.0,1.559
546.0,1.568
547.0,1.567
548.0,1.549
549.0,1.555
550.0,1.574
551.0,1.556
552.0,1.568
553.0,1.541
554.0,1.579
555.0,1.583
556.0,1.564
557.0,1.516
558.0,1.506
559.0,1.48
560.0,1.5
561.0,1.52
562.0,1.511
563.0,1.554
564.0,1.513
565.0,1.501
566.0,1.48
567.0,1.51
568.0,1.499
569.0,1.467
570.0,1.467
571.0,1.458
572.0,1.496
573.0,1.514
574.0,1.51
575.0,1.483
576.0,1.47
577.0,1.487
578.0,1.464
579.0,1.469
580.0,1.495
581.0,1.502
582.0,1.53
583.0,1.533
584.0,1.546
585.0,1.509
586.0,1.478
587.0,1.512
588.0,1.48
589.0,1.32
590.0,1.381
591.0,1.457
592.0,1.442
593.0,1.46
594.0,1.452
595.0,1.42
596.0,1.47
597.0,1.456
598.0,1.451
599.0,1.452
600.0,1.453
601.0,1.441
602.0,1.431
603.0,1.455
604.0,1.479
605.0,1.472
606.0,1.466
607.0,1.48
608.0,1.463
609.0,1.466
610.0,1.455
611.0,1.463
612.0,1.459
613.0,1.441
614.0,1.421
615.0,1.452
616.0,1.404
617.0,1.402
618.0,1.456
619.0,1.441
620.0,1.451
621.0,1.453
622.0,1.437
623.0,1.416
624.0,1.392
625.0,1.389
626.0,1.41
627.0,1.428
628.0,1.351
629.0,1.401
630.0,1.37
631.0,1.395
632.0,1.378
633.0,1.418
634.0,1.403
635.0,1.424
636.0,1.405
637.0,1.427
638.0,1.44
639.0,1.424
640.0,1.41
641.0,1.409
642.0,1.402
643.0,1.421
644.0,1.416
645.0,1.419
646.0,1.389
647.0,1.377
648.0,1.379
649.0,1.353
650.0,1.354
651.0,1.412
652.0,1.36
653.0,1.394
654.0,1.378
655.0,1.331
656.0,1.177
657.0,1.209
658.0,1.353
659.0,1.363
660.0,1.368
661.0,1.378
662.0,1.382
663.0,1.355
664.0,1.37
665.0,1.37
666.0,1.371
667.0,1.369
668.0,1.369
669.0,1.39
670.0,1.384
671.0,1.384
672.0,1.372
673.0,1.393
674.0,1.388
675.0,1.375
676.0,1.385
677.0,1.371
678.0,1.375
679.0,1.353
680.0,1.364
681.0,1.355
682.0,1.354
683.0,1.351
684.0,1.345
685.0,1.357
686.0,1.349
687.0,0.9708
688.0,1.102
689.0,1.105
690.0,1.147
691.0,1.194
692.0,1.227
693.0,1.218
694.0,1.209
695.0,1.25
696.0,1.252
697.0,1.317
698.0,1.297
699.0,1.274
700.0,1.259
701.0,1.249
702.0,1.255
703.0,1.257
704.0,1.293
705.0,1.295
706.0,1.293
707.0,1.293
708.0,1.297
709.0,1.296
710.0,1.297
711.0,1.295
712.0,1.29
713.0,1.278
714.0,1.283
715.0,1.246
716.0,1.247
717.0,1.11
718.0,1.025
719.0,0.9419
720.0,0.9885
721.0,1.074
722.0,1.21
723.0,1.137
724.0,1.035
725.0,1.023
726.0,1.069
727.0,1.078
728.0,1.022
729.0,1.05
730.0,1.111
731.0,1.067
732.0,1.131
733.0,1.187
734.0,1.212
735.0,1.189
736.0,1.187
737.0,1.193
738.0,1.205
739.0,1.181
740.0,1.21
741.0,1.197
742.0,1.197
743.0,1.228
744.0,1.224
745.0,1.223
746.0,1.229
747.0,1.232
748.0,1.229
749.0,1.216
750.0,1.215
751.0,1.203
752.0,1.208
753.0,1.214
754.0,1.217
755.0,1.211
756.0,1.21
757.0,1.212
758.0,1.197
759.0,1.177
760.0,0.2725
761.0,0.1605
762.0,0.6788
763.0,0.3857
764.0,0.5384
765.0,0.6794
766.0,0.7976
767.0,0.9707
768.0,1.092
769.0,1.109
770.0,1.14
771.0,1.146
772.0,1.148
773.0,1.156
774.0,1.15
775.0,1.142
776.0,1.155
777.0,1.14
778.0,1.134
779.0,1.135
780.0,1.128
781.0,1.13
782.0,1.137
783.0,1.117
784.0,1.123
785.0,1.115
786.0,1.127
787.0,1.111
788.0,1.098
789.0,1.098
790.0,1.074
791.0,1.079
792.0,1.071
793.0,1.054
794.0,1.067
795.0,1.087
796.0,1.059
797.0,1.061
798.0,1.086
799.0,1.081
800.0,1.063
801.0,1.062
802.0,1.059
803.0,1.051
804.0,1.052
805.0,1.047
806.0,1.074
807.0,1.062
808.0,1.063
809.0,1.045
810.0,1.038
811.0,1.042
812.0,1.016
813.0,0.998
814.0,0.8918
815.0,0.886
816.0,0.8268
817.0,0.8403
818.0,0.812
819.0,0.8959
820.0,0.8485
821.0,0.9755
822.0,0.9504
823.0,0.6728
824.0,0.9285
825.0,0.9598
826.0,0.9284
827.0,0.9745
828.0,0.8411
829.0,0.922
830.0,0.9116
831.0,0.9143
832.0,0.889
833.0,0.9382
834.0,0.91
835.0,0.9893
836.0,0.9535
837.0,0.9919
838.0,0.9639
839.0,0.9764
840.0,0.9972
841.0,0.9844
842.0,0.9847
843.0,0.9822
844.0,0.9697
845.0,1.001
846.0,0.9965
847.0,0.9774
848.0,0.9723
849.0,0.9448
850.0,0.9051
851.0,0.9593
852.0,0.9523
853.0,0.916
854.0,0.7915
855.0,0.8689
856.0,0.9499
857.0,0.9706
858.0,0.9638
859.0,0.9643
860.0,0.9659
861.0,0.9608
862.0,0.9758
863.0,0.9989
864.0,0.949
865.0,0.9407
866.0,0.8459
867.0,0.8828
868.0,0.9607
869.0,0.9408
870.0,0.9677
871.0,0.9546
872.0,0.9512
873.0,0.9494
874.0,0.9382
875.0,0.9193
876.0,0.929
877.0,0.9383
878.0,0.9487
879.0,0.9342
880.0,0.9142
881.0,0.901
882.0,0.9206
883.0,0.9232
884.0,0.9192
885.0,0.9262
886.0,0.8842
887.0,0.8926
888.0,0.9065
889.0,0.9156
890.0,0.9095
891.0,0.9073
892.0,0.883
893.0,0.8578
894.0,0.8322
895.0,0.7921
896.0,0.7489
897.0,0.6512
898.0,0.7061
899.0,0.5468
900.0,0.7183
901.0,0.5727
902.0,0.6595
903.0,0.6701
904.0,0.8264
905.0,0.8006
906.0,0.7513
907.0,0.6222
908.0,0.6329
909.0,0.68
910.0,0.6113
911.0,0.6456
912.0,0.6727
913.0,0.6209
914.0,0.614
915.0,0.6646
916.0,0.5657
917.0,0.7069
918.0,0.5803
919.0,0.7173
920.0,0.7196
921.0,0.7473
922.0,0.6752
923.0,0.7215
924.0,0.6925
925.0,0.6777
926.0,0.6851
927.0,0.7602
928.0,0.577
929.0,0.5319
930.0,0.4262
931.0,0.4025
932.0,0.2981
933.0,0.2468
934.0,0.1448
935.0,0.2489
936.0,0.1613
937.0,0.1643
938.0,0.1997
939.0,0.3902
940.0,0.4636
941.0,0.3577
942.0,0.4093
943.0,0.2753
944.0,0.2846
945.0,0.3675
946.0,0.1953
947.0,0.3713
948.0,0.2742
949.0,0.4888
950.0,0.1486
951.0,0.48
952.0,0.2687
953.0,0.34
954.0,0.4091
955.0,0.343
956.0,0.3293
957.0,0.2702
958.0,0.4555
959.0,0.3703
960.0,0.4147
961.0,0.4591
962.0,0.4353
963.0,0.4962
964.0,0.4565
965.0,0.4938
966.0,0.4952
967.0,0.4937
968.0,0.6426
969.0,0.6726
970.0,0.6205
971.0,0.7018
972.0,0.673
973.0,0.5945
974.0,0.5655
975.0,0.5837
976.0,0.5587
977.0,0.627
978.0,0.5994
979.0,0.6251
980.0,0.5895
981.0,0.6977
982.0,0.6702
983.0,0.6452
984.0,0.7156
985.0,0.6677
986.0,0.7262
987.0,0.7142
988.0,0.7129
989.0,0.7228
990.0,0.7086
991.0,0.7253
992.0,0.7293
993.0,0.7153
994.0,0.7289
995.0,0.7277
996.0,0.7249
997.0,0.7258
998.0,0.7225
999.0,0.7198
1000.0,0.7153
1001.0,0.7237
1002.0,0.7059
1003.0,0.7111
1004.0,0.6942
1005.0,0.6681
1006.0,0.6946
1007.0,0.7091
1008.0,0.7057
1009.0,0.7024
1010.0,0.6996
1011.0,0.7056
1012.0,0.6999
1013.0,0.7038
1014.0,0.6989
1015.0,0.6944
1016.0,0.6913
1017.0,0.6932
1018.0,0.6904
1019.0,0.6764
1020.0,0.6869
1021.0,0.6858
1022.0,0.6808
1023.0,0.6881
1024.0,0.68
1025.0,0.6874
1026.0,0.6847
1027.0,0.6831
1028.0,0.6818
1029.0,0.6738
1030.0,0.6782
1031.0,0.6756
1032.0,0.6736
1033.0,0.6635
1034.0,0.6635
1035.0,0.6656
1036.0,0.6691
1037.0,0.6583
1038.0,0.6612
1039.0,0.6609
1040.0,0.6583
1041.0,0.661
1042.0,0.6564
1043.0,0.6544
1044.0,0.6567
1045.0,0.6479
1046.0,0.6408
1047.0,0.6467
1048.0,0.6503
1049.0,0.648
1050.0,0.6451
1051.0,0.6443
1052.0,0.6418
1053.0,0.6368
1054.0,0.6383
1055.0,0.6388
1056.0,0.6367
1057.0,0.6349
1058.0,0.6194
1059.0,0.6202
1060.0,0.6193
1061.0,0.6187
1062.0,0.6221
1063.0,0.616
1064.0,0.6233
1065.0,0.6191
1066.0,0.6067
1067.0,0.6146
1068.0,0.6014
1069.0,0.5827
1070.0,0.6027
1071.0,0.6114
1072.0,0.6049
1073.0,0.5961
1074.0,0.6107
1075.0,0.5823
1076.0,0.6104
1077.0,0.6007
1078.0,0.5898
1079.0,0.6003
1080.0,0.5915
1081.0,0.5736
1082.0,0.581
1083.0,0.5823
1084.0,0.5728
1085.0,0.5927
1086.0,0.5444
1087.0,0.5593
1088.0,0.5822
1089.0,0.5664
1090.0,0.5554
1091.0,0.5809
1092.0,0.579
1093.0,0.4973
1094.0,0.5305
1095.0,0.5172
1096.0,0.4972
1097.0,0.5655
1098.0,0.4901
1099.0,0.5102
1100.0,0.4772
1101.0,0.4823
1102.0,0.4624
1103.0,0.4592
1104.0,0.4596
1105.0,0.4992
1106.0,0.3928
1107.0,0.4763
1108.0,0.4103
1109.0,0.4098
1110.0,0.473
1111.0,0.3297
1112.0,0.4062
1113.0,0.2678
1114.0,0.2982
1115.0,0.2476
1116.0,0.2033
1117.0,0.08103
1118.0,0.2191
1119.0,0.1137
1120.0,0.1433
1121.0,0.1871
1122.0,0.08308
1123.0,0.1294
1124.0,0.1093
1125.0,0.1413
1126.0,0.05353
1127.0,0.159
1128.0,0.0998
1129.0,0.1052
1130.0,0.07122
1131.0,0.2906
1132.0,0.2301
1133.0,0.1517
1134.0,0.04237
1135.0,0.01571
1136.0,0.1286
1137.0,0.2872
1138.0,0.2037
1139.0,0.2927
1140.0,0.2488
1141.0,0.1935
1142.0,0.2203
1143.0,0.3083
1144.0,0.1133
1145.0,0.1461
1146.0,0.1577
1147.0,0.06
1148.0,0.267
1149.0,0.2166
1150.0,0.1215
1151.0,0.2022
1152.0,0.2449
1153.0,0.2357
1154.0,0.1425
1155.0,0.3056
1156.0,0.2774
1157.0,0.308
1158.0,0.3045
1159.0,0.3256
1160.0,0.2817
1161.0,0.3405
1162.0,0.3427
1163.0,0.4515
1164.0,0.3915
1165.0,0.3732
1166.0,0.3679
1167.0,0.3986
1168.0,0.4038
1169.0,0.4119
1170.0,0.4443
1171.0,0.4338
1172.0,0.4396
1173.0,0.4434
1174.0,0.3261
1175.0,0.4316
1176.0,0.4699
1177.0,0.4541
1178.0,0.3483
1179.0,0.4735
1180.0,0.4278
1181.0,0.441
1182.0,0.3123
1183.0,0.4331
1184.0,0.4086
1185.0,0.3966
1186.0,0.4623
1187.0,0.4428
1188.0,0.3183
1189.0,0.4131
1190.0,0.4518
1191.0,0.4332
1192.0,0.4577
1193.0,0.4401
1194.0,0.4526
1195.0,0.431
1196.0,0.417
1197.0,0.4512
1198.0,0.4151
1199.0,0.3598
1200.0,0.4348
1201.0,0.4217
1202.0,0.4179
1203.0,0.4145
1204.0,0.3663
1205.0,0.4256
1206.0,0.4663
1207.0,0.4175
1208.0,0.4089
1209.0,0.4168
1210.0,0.4327
1211.0,0.4147
1212.0,0.4127
1213.0,0.4525
1214.0,0.4211
1215.0,0.4138
1216.0,0.4509
1217.0,0.4404
1218.0,0.4474
1219.0,0.4426
1220.0,0.4477
1221.0,0.4514
1222.0,0.4405
1223.0,0.437
1224.0,0.4353
1225.0,0.4487
1226.0,0.4508
1227.0,0.4193
1228.0,0.4524
1229.0,0.4509
1230.0,0.4438
1231.0,0.4543
1232.0,0.4517
1233.0,0.4389
1234.0,0.4533
1235.0,0.4509
1236.0,0.4538
1237.0,0.4486
1238.0,0.4523
1239.0,0.4465
1240.0,0.4481
1241.0,0.4467
1242.0,0.4451
1243.0,0.4415
1244.0,0.4448
1245.0,0.4466
1246.0,0.444
1247.0,0.4424
1248.0,0.4425
1249.0,0.4436
1250.0,0.4411
1251.0,0.4359
1252.0,0.4354
1253.0,0.4329
1254.0,0.4293
1255.0,0.4352
1256.0,0.4248
1257.0,0.4228
1258.0,0.4293
1259.0,0.4165
1260.0,0.4183
1261.0,0.3983
1262.0,0.3882
1263.0,0.3891
1264.0,0.3634
1265.0,0.3865
1266.0,0.3744
1267.0,0.3793
1268.0,0.3625
1269.0,0.2438
1270.0,0.3786
1271.0,0.3966
1272.0,0.3975
1273.0,0.3937
1274.0,0.3944
1275.0,0.3995
1276.0,0.4027
1277.0,0.4046
1278.0,0.4109
1279.0,0.4074
1280.0,0.4021
1281.0,0.3831
1282.0,0.3681
1283.0,0.3966
1284.0,0.4063
1285.0,0.4089
1286.0,0.4138
1287.0,0.4085
1288.0,0.4081
1289.0,0.3973
1290.0,0.4044
1291.0,0.4096
1292.0,0.3889
1293.0,0.4027
1294.0,0.4001
1295.0,0.3991
1296.0,0.3837
1297.0,0.365
1298.0,0.3888
1299.0,0.4028
1300.0,0.3481
1301.0,0.3573
1302.0,0.3874
1303.0,0.3428
1304.0,0.299
1305.0,0.38
1306.0,0.3804
1307.0,0.3031
1308.0,0.3422
1309.0,0.3781
1310.0,0.2977
1311.0,0.3296
1312.0,0.3218
1313.0,0.3166
1314.0,0.2858
1315.0,0.2836
1316.0,0.3255
1317.0,0.3091
1318.0,0.3333
1319.0,0.2684
1320.0,0.2583
1321.0,0.2982
1322.0,0.3023
1323.0,0.234
1324.0,0.2632
1325.0,0.3213
1326.0,0.2799
1327.0,0.268
1328.0,0.2332
1329.0,0.1805
1330.0,0.2322
1331.0,0.1468
1332.0,0.1493
1333.0,0.2061
1334.0,0.1718
1335.0,0.2331
1336.0,0.1876
1337.0,0.1678
1338.0,0.1814
1339.0,0.1798
1340.0,0.1732
1341.0,0.1729
1342.0,0.1813
1343.0,0.1308
1344.0,0.07807
1345.0,0.1118
1346.0,0.06096
1347.0,0.0629
1348.0,0.00517
1349.0,0.01732
1350.0,0.01712
1351.0,0.005138
1352.0,0.001728
1353.0,0.0001141
1354.0,0.0003349
1355.0,4.518e-06
1356.0,5.692e-05
1357.0,8.6e-05
1358.0,5.241e-06
1359.0,9.645e-07
1360.0,2.745e-06
1361.0,6.946e-09
1362.0,2.744e-11
1363.0,4.095e-06
1364.0,1.761e-06
1365.0,1.483e-11
1366.0,1.616e-05
1367.0,6.294e-06
1368.0,2.72e-13
1369.0,6.758e-07
1370.0,3.906e-07
1371.0,2.731e-08
1372.0,3.473e-06
1373.0,5.377e-05
1374.0,0.0002093
1375.0,0.0003796
1376.0,0.0002988
1377.0,0.0001428
1378.0,0.001277
1379.0,6.064e-05
1380.0,9.681e-05
1381.0,2.855e-06
1382.0,3.274e-06
1383.0,5.779e-08
1384.0,8.125e-07
1385.0,2.603e-06
1386.0,3.25e-06
1387.0,0.000239
1388.0,4.88e-06
1389.0,0.0006721
1390.0,0.0005777
1391.0,0.0004027
1392.0,2.819e-05
1393.0,0.0001353
1394.0,9.205e-05
1395.0,8.487e-07
1396.0,8.992e-09
1397.0,5.797e-05
1398.0,0.001456
1399.0,0.0009234
1400.0,4.788e-09
1401.0,1.497e-08
1402.0,0.002041
1403.0,0.002673
1404.0,0.0008307
1405.0,4.741e-07
1406.0,0.002316
1407.0,0.0001977
1408.0,0.001874
1409.0,0.0007169
1410.0,0.0005334
1411.0,0.002333
1412.0,0.00296
1413.0,0.02521
1414.0,0.0004149
1415.0,0.0002123
1416.0,0.03756
1417.0,0.01267
1418.0,0.01454
1419.0,0.002322
1420.0,0.00895
1421.0,0.009746
1422.0,0.04865
1423.0,0.009784
1424.0,0.01802
1425.0,0.02697
1426.0,0.02943
1427.0,0.05142
1428.0,0.004943
1429.0,0.03964
1430.0,0.06463
1431.0,0.07027
1432.0,0.003927
1433.0,0.04572
1434.0,0.02377
1435.0,0.0255
1436.0,0.04646
1437.0,0.0356
1438.0,0.01581
1439.0,0.06196
1440.0,0.04655
1441.0,0.03677
1442.0,0.04054
1443.0,0.04893
1444.0,0.06692
1445.0,0.05394
1446.0,0.02475
1447.0,0.03892
1448.0,0.1206
1449.0,0.1062
1450.0,0.02881
1451.0,0.01195
1452.0,0.06539
1453.0,0.08499
1454.0,0.1407
1455.0,0.06828
1456.0,0.09255
1457.0,0.1211
1458.0,0.1399
1459.0,0.1658
1460.0,0.08792
1461.0,0.0931
1462.0,0.134
1463.0,0.04498
1464.0,0.1564
1465.0,0.09474
1466.0,0.06853
