interpolation:linear
wavelength,value
280.0,1.817e-21
280.5,4.195e-20
281.0,2.013e-19
281.5,4.56e-18
282.0,2.989e-17
282.5,1.006e-16
283.0,3.841e-16
283.5,6.738e-16
284.0,1.222e-14
284.5,3.588e-14
285.0,7.065e-14
285.5,4.422e-13
286.0,1.909e-12
286.5,9.224e-12
287.0,2.734e-11
287.5,1.06e-10
288.0,3.87e-10
288.5,1.373e-09
289.0,4.094e-09
289.5,1.339e-08
290.0,3.906e-08
290.5,8.26e-08
291.0,1.821e-07
291.5,5.289e-07
292.0,1.211e-06
292.5,1.721e-06
293.0,3.707e-06
293.5,8.937e-06
294.0,1.402e-05
294.5,2.349e-05
295.0,3.882e-05
295.5,8.688e-05
296.0,0.0001481
296.5,0.0001833
297.0,0.0002247
297.5,0.0005189
298.0,0.0007214
298.5,0.0006593
299.0,0.001324
299.5,0.001863
300.0,0.001877
300.5,0.002481
301.0,0.003873
301.5,0.005416
302.0,0.004354
302.5,0.007948
303.0,0.01307
303.5,0.0156
304.0,0.01416
304.5,0.01912
305.0,0.02522
305.5,0.02654
306.0,0.02494
306.5,0.0295
307.0,0.03888
307.5,0.04626
308.0,0.04819
308.5,0.05407
309.0,0.0476
309.5,0.0514
310.0,0.05034
310.5,0.08069
311.0,0.09913
311.5,0.09503
312.0,0.09001
312.5,0.1057
313.0,0.1128
313.5,0.1122
314.0,0.1342
314.5,0.1118
315.0,0.1459
315.5,0.1266
316.0,0.1051
316.5,0.1446
317.0,0.1804
317.5,0.1911
318.0,0.1448
318.5,0.1695
319.0,0.1955
319.5,0.1684
320.0,0.2059
320.5,0.2424
321.0,0.2044
321.5,0.1955
322.0,0.2228
322.5,0.1938
323.0,0.186
323.5,0.2139
324.0,0.2486
324.5,0.2584
325.0,0.2358
325.5,0.2943
326.0,0.3461
326.5,0.3392
327.0,0.3424
327.5,0.3358
328.0,0.3104
328.5,0.3143
329.0,0.3658
329.5,0.4128
330.0,0.421
330.5,0.3464
331.0,0.3571
331.5,0.3575
332.0,0.3775
332.5,0.3704
333.0,0.3731
333.5,0.3454
334.0,0.356
334.5,0.4032
335.0,0.3754
335.5,0.4264
336.0,0.2958
336.5,0.3608
337.0,0.2996
337.5,0.3749
338.0,0.3608
338.5,0.4074
339.0,0.4065
339.5,0.3906
340.0,0.4712
340.5,0.4253
341.0,0.4081
341.5,0.3789
342.0,0.4549
342.5,0.4274
343.0,0.4695
343.5,0.4419
344.0,0.3323
344.5,0.3291
345.0,0.4411
345.5,0.4529
346.0,0.3866
346.5,0.4394
347.0,0.4715
347.5,0.3817
348.0,0.4379
348.5,0.4397
349.0,0.4091
349.5,0.4058
350.0,0.5032
350.5,0.5321
351.0,0.4759
351.5,0.4615
352.0,0.4983
352.5,0.3906
353.0,0.4935
353.5,0.5292
354.0,0.551
354.5,0.5603
355.0,0.5595
355.5,0.5066
356.0,0.5313
356.5,0.4548
357.0,0.3768
357.5,0.4624
358.0,0.3674
358.5,0.3147
359.0,0.4411
359.5,0.5632
360.0,0.5985
360.5,0.4795
361.0,0.4381
361.5,0.5052
362.0,0.4375
362.5,0.6064
363.0,0.5455
363.5,0.5033
364.0,0.6166
364.5,0.5281
365.0,0.5389
365.5,0.6777
366.0,0.7192
366.5,0.6769
367.0,0.6605
367.5,0.6868
368.0,0.6021
368.5,0.6086
369.0,0.6584
369.5,0.7031
370.0,0.7508
370.5,0.5837
371.0,0.6248
371.5,0.7832
372.0,0.5208
372.5,0.6255
373.0,0.6373
373.5,0.4153
374.0,0.6045
374.5,0.5014
375.0,0.4883
375.5,0.7303
376.0,0.6065
376.5,0.6297
377.0,0.6677
377.5,0.7824
378.0,0.8497
378.5,0.8048
379.0,0.6655
379.5,0.6092
380.0,0.6345
380.5,0.7697
381.0,0.7724
381.5,0.6132
382.0,0.5453
382.5,0.4655
383.0,0.4316
383.5,0.4163
384.0,0.4599
384.5,0.6774
385.0,0.6727
385.5,0.6274
386.0,0.5381
386.5,0.7078
387.0,0.5891
387.5,0.6627
388.0,0.6128
388.5,0.6066
389.0,0.6558
389.5,0.7954
390.0,0.7994
390.5,0.7367
391.0,0.8684
391.5,0.8871
392.0,0.7483
392.5,0.6708
393.0,0.3737
393.5,0.272
394.0,0.5542
394.5,0.7054
395.0,0.8619
395.5,0.8769
396.0,0.7613
396.5,0.4455
397.0,0.3347
397.5,0.6817
398.0,0.9562
398.5,0.9896
399.0,1.072
399.5,1.07
400.0,1.113
401.0,1.145
402.0,1.211
403.0,1.153
404.0,1.138
405.0,1.14
406.0,1.124
407.0,1.108
408.0,1.154
409.0,1.237
410.0,1.083
411.0,1.175
412.0,1.264
413.0,1.236
414.0,1.253
415.0,1.258
416.0,1.282
417.0,1.253
418.0,1.232
419.0,1.251
420.0,1.248
421.0,1.308
422.0,1.245
423.0,1.218
424.0,1.291
425.0,1.291
426.0,1.259
427.0,1.237
428.0,1.207
429.0,1.145
430.0,1.003
431.0,0.9964
432.0,1.288
433.0,1.297
434.0,1.206
435.0,1.262
436.0,1.423
437.0,1.405
438.0,1.281
439.0,1.328
440.0,1.372
441.0,1.423
442.0,1.528
443.0,1.492
444.0,1.525
445.0,1.495
446.0,1.428
447.0,1.544
448.0,1.572
449.0,1.579
450.0,1.625
451.0,1.687
452.0,1.627
453.0,1.532
454.0,1.6
455.0,1.613
456.0,1.653
457.0,1.682
458.0,1.628
459.0,1.621
460.0,1.628
461.0,1.667
462.0,1.681
463.0,1.672
464.0,1.644
465.0,1.624
466.0,1.641
467.0,1.614
468.0,1.635
469.0,1.645
470.0,1.595
471.0,1.594
472.0,1.682
473.0,1.662
474.0,1.668
475.0,1.685
476.0,1.638
477.0,1.646
478.0,1.692
479.0,1.683
480.0,1.687
481.0,1.719
482.0,1.728
483.0,1.707
484.0,1.673
485.0,1.595
486.0,1.395
487.0,1.462
488.0,1.606
489.0,1.613
490.0,1.698
491.0,1.669
492.0,1.578
493.0,1.631
494.0,1.648
495.0,1.664
496.0,1.675
497.0,1.703
498.0,1.624
499.0,1.647
500.0,1.601
501.0,1.574
502.0,1.555
503.0,1.622
504.0,1.588
505.0,1.641
506.0,1.696
507.0,1.615
508.0,1.564
509.0,1.608
510.0,1.599
511.0,1.642
512.0,1.661
513.0,1.573
514.0,1.563
515.0,1.548
516.0,1.546
517.0,1.374
518.0,1.446
519.0,1.517
520.0,1.574
521.0,1.59
522.0,1.593
523.0,1.566
524.0,1.624
525.0,1.645
526.0,1.573
527.0,1.485
528.0,1.572
529.0,1.659
530.0,1.637
531.0,1.662
532.0,1.606
533.0,1.56
534.0,1.607
535.0,1.642
536.0,1.658
537.0,1.593
538.0,1.621
539.0,1.609
540.0,1.543
541.0,1.556
542.0,1.607
543.0,1.589
544.0,1.619
545.0,1.615
546.0,1.624
547.0,1.623
548.0,1.604
549.0,1.609
550.0,1.629
551.0,1.61
552.0,1.622
553.0,1.594
554.0,1.633
555.0,1.637
556.0,1.617
557.0,1.568
558.0,1.558
559.0,1.531
560.0,1.551
561.0,1.573
562.0,1.563
563.0,1.608
564.0,1.566
565.0,1.554
566.0,1.532
567.0,1.563
568.0,1.553
569.0,1.523
570.0,1.522
571.0,1.512
572.0,1.553
573.0,1.571
574.0,1.567
575.0,1.54
576.0,1.527
577.0,1.543
578.0,1.519
579.0,1.523
580.0,1.549
581.0,1.554
582.0,1.581
583.0,1.584
584.0,1.596
585.0,1.557
586.0,1.526
587.0,1.562
588.0,1.532
589.0,1.372
590.0,1.434
591.0,1.51
592.0,1.496
593.0,1.512
594.0,1.505
595.0,1.474
596.0,1.52
597.0,1.507
598.0,1.5
599.0,1.5
600.0,1.5
601.0,1.486
602.0,1.476
603.0,1.5
604.0,1.525
605.0,1.517
606.0,1.51
607.0,1.524
608.0,1.507
609.0,1.509
610.0,1.497
611.0,1.505
612.0,1.5
613.0,1.481
614.0,1.461
615.0,1.492
616.0,1.442
617.0,1.439
618.0,1.495
619.0,1.48
620.0,1.49
621.0,1.492
622.0,1.476
623.0,1.455
624.0,1.43
625.0,1.427
626.0,1.449
627.0,1.468
628.0,1.402
629.0,1.445
630.0,1.413
631.0,1.435
632.0,1.416
633.0,1.455
634.0,1.438
635.0,1.459
636.0,1.438
637.0,1.461
638.0,1.473
639.0,1.456
640.0,1.44
641.0,1.439
642.0,1.432
643.0,1.451
644.0,1.446
645.0,1.449
646.0,1.419
647.0,1.411
648.0,1.414
649.0,1.387
650.0,1.384
651.0,1.442
652.0,1.394
653.0,1.423
654.0,1.406
655.0,1.36
656.0,1.202
657.0,1.234
658.0,1.38
659.0,1.388
660.0,1.394
661.0,1.404
662.0,1.409
663.0,1.38
664.0,1.394
665.0,1.393
666.0,1.394
667.0,1.391
668.0,1.391
669.0,1.412
670.0,1.406
671.0,1.405
672.0,1.393
673.0,1.414
674.0,1.409
675.0,1.396
676.0,1.405
677.0,1.391
678.0,1.395
679.0,1.372
680.0,1.383
681.0,1.374
682.0,1.373
683.0,1.37
684.0,1.364
685.0,1.375
686.0,1.368
687.0,1.046
688.0,1.158
689.0,1.16
690.0,1.195
691.0,1.233
692.0,1.259
693.0,1.252
694.0,1.242
695.0,1.278
696.0,1.28
697.0,1.337
698.0,1.317
699.0,1.299
700.0,1.284
701.0,1.275
702.0,1.279
703.0,1.282
704.0,1.315
705.0,1.317
706.0,1.313
707.0,1.313
708.0,1.316
709.0,1.313
710.0,1.316
711.0,1.313
712.0,1.307
713.0,1.296
714.0,1.3
715.0,1.264
716.0,1.267
717.0,1.15
718.0,1.067
719.0,0.9837
720.0,1.033
721.0,1.108
722.0,1.232
723.0,1.166
724.0,1.072
725.0,1.062
726.0,1.107
727.0,1.112
728.0,1.062
729.0,1.083
730.0,1.145
731.0,1.102
732.0,1.159
733.0,1.208
734.0,1.232
735.0,1.209
736.0,1.208
737.0,1.213
738.0,1.22
739.0,1.197
740.0,1.224
741.0,1.21
742.0,1.209
743.0,1.239
744.0,1.235
745.0,1.234
746.0,1.24
747.0,1.243
748.0,1.24
749.0,1.226
750.0,1.225
751.0,1.213
752.0,1.218
753.0,1.224
754.0,1.227
755.0,1.221
756.0,1.22
757.0,1.222
758.0,1.207
759.0,1.19
760.0,0.3574
761.0,0.2312
762.0,0.7539
763.0,0.4754
764.0,0.6246
765.0,0.7548
766.0,0.8548
767.0,1.011
768.0,1.114
769.0,1.126
770.0,1.152
771.0,1.156
772.0,1.157
773.0,1.165
774.0,1.159
775.0,1.15
776.0,1.164
777.0,1.149
778.0,1.142
779.0,1.143
780.0,1.136
781.0,1.138
782.0,1.145
783.0,1.125
784.0,1.13
785.0,1.122
786.0,1.135
787.0,1.121
788.0,1.109
789.0,1.11
790.0,1.088
791.0,1.09
792.0,1.082
793.0,1.065
794.0,1.075
795.0,1.095
796.0,1.072
797.0,1.074
798.0,1.095
799.0,1.091
800.0,1.074
801.0,1.073
802.0,1.07
803.0,1.063
804.0,1.064
805.0,1.058
806.0,1.082
807.0,1.071
808.0,1.071
809.0,1.055
810.0,1.049
811.0,1.055
812.0,1.033
813.0,1.016
814.0,0.9207
815.0,0.9145
816.0,0.8557
817.0,0.8678
818.0,0.8413
819.0,0.9171
820.0,0.8732
821.0,0.9891
822.0,0.9662
823.0,0.709
824.0,0.9487
825.0,0.9741
826.0,0.9466
827.0,0.9888
828.0,0.8669
829.0,0.9392
830.0,0.9301
831.0,0.9322
832.0,0.909
833.0,0.9519
834.0,0.9277
835.0,0.9992
836.0,0.9688
837.0,1.001
838.0,0.9755
839.0,0.9853
840.0,1.006
841.0,0.9937
842.0,0.9923
843.0,0.9882
844.0,0.9766
845.0,1.007
846.0,1.002
847.0,0.9822
848.0,0.9778
849.0,0.9501
850.0,0.9101
851.0,0.9654
852.0,0.9579
853.0,0.9208
854.0,0.7962
855.0,0.8732
856.0,0.955
857.0,0.9753
858.0,0.9686
859.0,0.9689
860.0,0.9702
861.0,0.9651
862.0,0.9801
863.0,1.003
864.0,0.9531
865.0,0.9447
866.0,0.8495
867.0,0.8865
868.0,0.9647
869.0,0.9447
870.0,0.9716
871.0,0.9585
872.0,0.9551
873.0,0.9532
874.0,0.9419
875.0,0.9229
876.0,0.9327
877.0,0.9421
878.0,0.9526
879.0,0.938
880.0,0.9179
881.0,0.905
882.0,0.9248
883.0,0.9271
884.0,0.9232
885.0,0.9302
886.0,0.8893
887.0,0.8967
888.0,0.9114
889.0,0.9193
890.0,0.9146
891.0,0.9116
892.0,0.889
893.0,0.8662
894.0,0.8447
895.0,0.8097
896.0,0.7689
897.0,0.6772
898.0,0.7291
899.0,0.5758
900.0,0.7368
901.0,0.6021
902.0,0.6795
903.0,0.6946
904.0,0.8388
905.0,0.8153
906.0,0.7675
907.0,0.6481
908.0,0.6578
909.0,0.7003
910.0,0.6406
911.0,0.6704
912.0,0.6955
913.0,0.6511
914.0,0.6421
915.0,0.6929
916.0,0.5944
917.0,0.7294
918.0,0.6098
919.0,0.7378
920.0,0.7353
921.0,0.7615
922.0,0.6961
923.0,0.735
924.0,0.7138
925.0,0.6991
926.0,0.7064
927.0,0.7762
928.0,0.6113
929.0,0.5694
930.0,0.4665
931.0,0.4386
932.0,0.335
933.0,0.2835
934.0,0.1791
935.0,0.2808
936.0,0.19
937.0,0.195
938.0,0.2337
939.0,0.4251
940.0,0.4983
941.0,0.3943
942.0,0.4443
943.0,0.3069
944.0,0.3108
945.0,0.4036
946.0,0.2254
947.0,0.4102
948.0,0.3053
949.0,0.529
950.0,0.1797
951.0,0.5175
952.0,0.305
953.0,0.3763
954.0,0.4423
955.0,0.3784
956.0,0.3601
957.0,0.3083
958.0,0.4818
959.0,0.4029
960.0,0.4505
961.0,0.4906
962.0,0.4666
963.0,0.5244
964.0,0.4852
965.0,0.5207
966.0,0.5243
967.0,0.5231
968.0,0.6573
969.0,0.6889
970.0,0.6394
971.0,0.7127
972.0,0.6855
973.0,0.616
974.0,0.588
975.0,0.6025
976.0,0.5821
977.0,0.6428
978.0,0.6189
979.0,0.6417
980.0,0.6078
981.0,0.7079
982.0,0.6837
983.0,0.6606
984.0,0.722
985.0,0.6809
986.0,0.7303
987.0,0.7206
988.0,0.7194
989.0,0.7254
990.0,0.7146
991.0,0.7282
992.0,0.7319
993.0,0.7202
994.0,0.7313
995.0,0.7297
996.0,0.7272
997.0,0.728
998.0,0.7248
999.0,0.722
1000.0,0.718
1001.0,0.7258
1002.0,0.7104
1003.0,0.7133
1004.0,0.6971
1005.0,0.6699
1006.0,0.6969
1007.0,0.7113
1008.0,0.7083
1009.0,0.7054
1010.0,0.703
1011.0,0.7077
1012.0,0.7024
1013.0,0.7057
1014.0,0.7008
1015.0,0.6963
1016.0,0.6933
1017.0,0.6953
1018.0,0.6921
1019.0,0.6791
1020.0,0.6888
1021.0,0.6876
1022.0,0.6829
1023.0,0.6903
1024.0,0.6831
1025.0,0.6892
1026.0,0.6867
1027.0,0.6851
1028.0,0.6838
1029.0,0.6759
1030.0,0.6799
1031.0,0.6775
1032.0,0.6753
1033.0,0.6652
1034.0,0.6652
1035.0,0.6673
1036.0,0.671
1037.0,0.66
1038.0,0.663
1039.0,0.6628
1040.0,0.6601
1041.0,0.6629
1042.0,0.6584
1043.0,0.6564
1044.0,0.6588
1045.0,0.65
1046.0,0.6429
1047.0,0.6488
1048.0,0.6526
1049.0,0.6504
1050.0,0.6475
1051.0,0.6468
1052.0,0.6444
1053.0,0.6395
1054.0,0.6411
1055.0,0.6417
1056.0,0.6398
1057.0,0.638
1058.0,0.6226
1059.0,0.6236
1060.0,0.6227
1061.0,0.6222
1062.0,0.6257
1063.0,0.6198
1064.0,0.6271
1065.0,0.6232
1066.0,0.6104
1067.0,0.6185
1068.0,0.6054
1069.0,0.5864
1070.0,0.6068
1071.0,0.6147
1072.0,0.6088
1073.0,0.5998
1074.0,0.6136
1075.0,0.5877
1076.0,0.6134
1077.0,0.6052
1078.0,0.5948
1079.0,0.6028
1080.0,0.596
1081.0,0.5791
1082.0,0.5843
1083.0,0.5851
1084.0,0.5792
1085.0,0.5969
1086.0,0.5528
1087.0,0.5644
1088.0,0.5855
1089.0,0.5721
1090.0,0.563
1091.0,0.5849
1092.0,0.5824
1093.0,0.5084
1094.0,0.5346
1095.0,0.5273
1096.0,0.5094
1097.0,0.5687
1098.0,0.5028
1099.0,0.5222
1100.0,0.4924
1101.0,0.4964
1102.0,0.4781
1103.0,0.4764
1104.0,0.4767
1105.0,0.5117
1106.0,0.417
1107.0,0.491
1108.0,0.4318
1109.0,0.4296
1110.0,0.4885
1111.0,0.3528
1112.0,0.4251
1113.0,0.2934
1114.0,0.3248
1115.0,0.27
1116.0,0.2301
1117.0,0.1018
1118.0,0.2444
1119.0,0.1346
1120.0,0.1693
1121.0,0.216
1122.0,0.1026
1123.0,0.1526
1124.0,0.129
1125.0,0.1651
1126.0,0.06938
1127.0,0.1852
1128.0,0.1234
1129.0,0.1288
1130.0,0.09108
1131.0,0.3221
1132.0,0.2583
1133.0,0.1789
1134.0,0.05629
1135.0,0.02071
1136.0,0.1548
1137.0,0.3204
1138.0,0.2297
1139.0,0.3148
1140.0,0.2736
1141.0,0.2182
1142.0,0.245
1143.0,0.3363
1144.0,0.1324
1145.0,0.172
1146.0,0.1857
1147.0,0.07807
1148.0,0.2913
1149.0,0.2415
1150.0,0.1421
1151.0,0.2282
1152.0,0.2705
1153.0,0.2561
1154.0,0.17
1155.0,0.3288
1156.0,0.3014
1157.0,0.3308
1158.0,0.3268
1159.0,0.3453
1160.0,0.3042
1161.0,0.3588
1162.0,0.3617
1163.0,0.4623
1164.0,0.4063
1165.0,0.3919
1166.0,0.3835
1167.0,0.4128
1168.0,0.419
1169.0,0.4255
1170.0,0.4551
1171.0,0.4451
1172.0,0.449
1173.0,0.4541
1174.0,0.3455
1175.0,0.4407
1176.0,0.4747
1177.0,0.4619
1178.0,0.3631
1179.0,0.4781
1180.0,0.4377
1181.0,0.4504
1182.0,0.3284
1183.0,0.4411
1184.0,0.4192
1185.0,0.4093
1186.0,0.4688
1187.0,0.4515
1188.0,0.3351
1189.0,0.422
1190.0,0.4582
1191.0,0.4434
1192.0,0.4636
1193.0,0.4474
1194.0,0.459
1195.0,0.4399
1196.0,0.4276
1197.0,0.4558
1198.0,0.422
1199.0,0.3727
1200.0,0.4423
1201.0,0.4312
1202.0,0.4262
1203.0,0.4226
1204.0,0.3777
1205.0,0.432
1206.0,0.4694
1207.0,0.4263
1208.0,0.4156
1209.0,0.4231
1210.0,0.4376
1211.0,0.4221
1212.0,0.4225
1213.0,0.4568
1214.0,0.4298
1215.0,0.4231
1216.0,0.4551
1217.0,0.4457
1218.0,0.4517
1219.0,0.4473
1220.0,0.4518
1221.0,0.4549
1222.0,0.4447
1223.0,0.4416
1224.0,0.4407
1225.0,0.452
1226.0,0.4535
1227.0,0.4251
1228.0,0.4544
1229.0,0.4535
1230.0,0.447
1231.0,0.4556
1232.0,0.453
1233.0,0.4427
1234.0,0.4541
1235.0,0.452
1236.0,0.4547
1237.0,0.4504
1238.0,0.4531
1239.0,0.4474
1240.0,0.4488
1241.0,0.448
1242.0,0.4459
1243.0,0.4422
1244.0,0.4457
1245.0,0.4474
1246.0,0.4448
1247.0,0.4434
1248.0,0.4437
1249.0,0.4445
1250.0,0.4422
1251.0,0.4374
1252.0,0.4364
1253.0,0.4347
1254.0,0.4318
1255.0,0.4365
1256.0,0.4276
1257.0,0.4259
1258.0,0.4312
1259.0,0.4208
1260.0,0.4223
1261.0,0.4053
1262.0,0.3966
1263.0,0.3976
1264.0,0.3752
1265.0,0.3949
1266.0,0.3848
1267.0,0.3882
1268.0,0.3736
1269.0,0.2702
1270.0,0.3881
1271.0,0.4031
1272.0,0.4037
1273.0,0.4001
1274.0,0.4005
1275.0,0.405
1276.0,0.4076
1277.0,0.4089
1278.0,0.414
1279.0,0.4105
1280.0,0.4051
1281.0,0.3854
1282.0,0.3693
1283.0,0.3982
1284.0,0.4081
1285.0,0.4105
1286.0,0.4149
1287.0,0.4106
1288.0,0.41
1289.0,0.401
1290.0,0.4061
1291.0,0.411
1292.0,0.3938
1293.0,0.4049
1294.0,0.4025
1295.0,0.4024
1296.0,0.3893
1297.0,0.3724
1298.0,0.3927
1299.0,0.4047
1300.0,0.3568
1301.0,0.3648
1302.0,0.3912
1303.0,0.3506
1304.0,0.3126
1305.0,0.3843
1306.0,0.385
1307.0,0.3147
1308.0,0.3491
1309.0,0.383
1310.0,0.3093
1311.0,0.3377
1312.0,0.3307
1313.0,0.3264
1314.0,0.2971
1315.0,0.2963
1316.0,0.3345
1317.0,0.3185
1318.0,0.3405
1319.0,0.2826
1320.0,0.2702
1321.0,0.3091
1322.0,0.3144
1323.0,0.2504
1324.0,0.2771
1325.0,0.3304
1326.0,0.2924
1327.0,0.2811
1328.0,0.2468
1329.0,0.1971
1330.0,0.2504
1331.0,0.1662
1332.0,0.1664
1333.0,0.2272
1334.0,0.187
1335.0,0.2491
1336.0,0.2043
1337.0,0.1856
1338.0,0.1998
1339.0,0.1971
1340.0,0.1881
1341.0,0.1919
1342.0,0.2011
1343.0,0.155
1344.0,0.09283
1345.0,0.1309
1346.0,0.07882
1347.0,0.08238
1348.0,0.008834
1349.0,0.02715
1350.0,0.02531
1351.0,0.009554
1352.0,0.003956
1353.0,0.000351
1354.0,0.0008732
1355.0,2.03e-05
1356.0,0.0001806
1357.0,0.0002689
1358.0,2.305e-05
1359.0,6.162e-06
1360.0,1.381e-05
1361.0,8.17e-08
1362.0,4.94e-10
1363.0,2.161e-05
1364.0,1.008e-05
1365.0,4.015e-10
1366.0,7.652e-05
1367.0,2.961e-05
1368.0,1.722e-11
1369.0,4.028e-06
1370.0,2.714e-06
1371.0,2.401e-07
1372.0,1.654e-05
1373.0,0.0001913
1374.0,0.0006176
1375.0,0.001086
1376.0,0.0007735
1377.0,0.0003891
1378.0,0.003058
1379.0,0.0001689
1380.0,0.0002946
1381.0,1.022e-05
1382.0,1.625e-05
1383.0,3.546e-07
1384.0,5.099e-06
1385.0,1.103e-05
1386.0,1.777e-05
1387.0,0.0007546
1388.0,1.718e-05
1389.0,0.00178
1390.0,0.001511
1391.0,0.00112
1392.0,8.77e-05
1393.0,0.0003739
1394.0,0.0003289
1395.0,4.045e-06
1396.0,9.532e-08
1397.0,0.0001738
1398.0,0.003506
1399.0,0.002247
1400.0,6.204e-08
1401.0,1.464e-07
1402.0,0.003986
1403.0,0.0054
1404.0,0.001715
1405.0,2.591e-06
1406.0,0.005029
1407.0,0.0004363
1408.0,0.004047
1409.0,0.001765
1410.0,0.001257
1411.0,0.004691
1412.0,0.005587
1413.0,0.03775
1414.0,0.0009676
1415.0,0.0005323
1416.0,0.05078
1417.0,0.01987
1418.0,0.02253
1419.0,0.003765
1420.0,0.01402
1421.0,0.01572
1422.0,0.06469
1423.0,0.0139
1424.0,0.02495
1425.0,0.03787
1426.0,0.03939
1427.0,0.06378
1428.0,0.008576
1429.0,0.05129
1430.0,0.0787
1431.0,0.08426
1432.0,0.00691
1433.0,0.05687
1434.0,0.03061
1435.0,0.03621
1436.0,0.06062
1437.0,0.0467
1438.0,0.02236
1439.0,0.0783
1440.0,0.05939
1441.0,0.04944
1442.0,0.05357
1443.0,0.06098
1444.0,0.08218
1445.0,0.06911
1446.0,0.03263
1447.0,0.05157
1448.0,0.1378
1449.0,0.1247
1450.0,0.03817
1451.0,0.01678
1452.0,0.07968
1453.0,0.1015
1454.0,0.1577
1455.0,0.08064
1456.0,0.111
1457.0,0.1387
1458.0,0.1541
1459.0,0.1836
1460.0,0.1009
1461.0,0.1093
1462.0,0.1522
1463.0,0.05515
1464.0,0.1726
1465.0,0.1056
1466.0,0.08335
1467.0,0.04892
1468.0,0.09546
1469.0,0.1141
