interpolation:linear
wavelength,value
280.0,3.32e-23
280.5,9.883e-22
281.0,5.205e-21
281.5,1.508e-19
282.0,1.148e-18
282.5,4.273e-18
283.0,1.823e-17
283.5,3.38e-17
284.0,7.92e-16
284.5,2.615e-15
285.0,5.844e-15
285.5,4.246e-14
286.0,1.947e-13
286.5,1.065e-12
287.0,3.458e-12
287.5,1.513e-11
288.0,6.419e-11
288.5,2.469e-10
289.0,7.995e-10
289.5,2.863e-09
290.0,8.999e-09
290.5,2.026e-08
291.0,4.814e-08
291.5,1.538e-07
292.0,3.807e-07
292.5,5.653e-07
293.0,1.288e-06
293.5,3.351e-06
294.0,5.536e-06
294.5,9.644e-06
295.0,1.674e-05
295.5,3.981e-05
296.0,7.076e-05
296.5,9.109e-05
297.0,0.0001152
297.5,0.0002779
298.0,0.0004002
298.5,0.0003755
299.0,0.0007731
299.5,0.001131
300.0,0.001163
300.5,0.001569
301.0,0.00252
301.5,0.003609
302.0,0.002934
302.5,0.005466
303.0,0.009214
303.5,0.01115
304.0,0.01019
304.5,0.01399
305.0,0.01885
305.5,0.02009
306.0,0.01898
306.5,0.02263
307.0,0.03031
307.5,0.03659
308.0,0.03823
308.5,0.0432
309.0,0.03824
309.5,0.04191
310.0,0.04133
310.5,0.0665
311.0,0.08215
311.5,0.07898
312.0,0.07562
312.5,0.08944
313.0,0.09579
313.5,0.09509
314.0,0.1146
314.5,0.09646
315.0,0.1261
315.5,0.109
316.0,0.09126
316.5,0.1263
317.0,0.1577
317.5,0.1669
318.0,0.127
318.5,0.1498
319.0,0.1735
319.5,0.1487
320.0,0.1818
320.5,0.2156
321.0,0.1829
321.5,0.1752
322.0,0.1985
322.5,0.1729
323.0,0.1666
323.5,0.1929
324.0,0.2246
324.5,0.2331
325.0,0.2119
325.5,0.2654
326.0,0.3136
326.5,0.3082
327.0,0.3111
327.5,0.3049
328.0,0.281
328.5,0.2859
329.0,0.3339
329.5,0.3772
330.0,0.3847
330.5,0.3161
331.0,0.3257
331.5,0.3269
332.0,0.3461
332.5,0.3399
333.0,0.3424
333.5,0.3167
334.0,0.3266
334.5,0.3707
335.0,0.3456
335.5,0.3929
336.0,0.2727
336.5,0.3325
337.0,0.276
337.5,0.3456
338.0,0.3331
338.5,0.3765
339.0,0.3759
339.5,0.3614
340.0,0.4359
340.5,0.3936
341.0,0.3781
341.5,0.3512
342.0,0.4219
342.5,0.3967
343.0,0.4358
343.5,0.4104
344.0,0.3085
344.5,0.3058
345.0,0.4102
345.5,0.4215
346.0,0.36
346.5,0.4093
347.0,0.4393
347.5,0.3558
348.0,0.4084
348.5,0.4103
349.0,0.3819
349.5,0.379
350.0,0.4702
350.5,0.4973
351.0,0.4449
351.5,0.4316
352.0,0.4663
352.5,0.3656
353.0,0.4622
353.5,0.4958
354.0,0.5164
354.5,0.5253
355.0,0.5247
355.5,0.4753
356.0,0.4987
356.5,0.427
357.0,0.3538
357.5,0.4344
358.0,0.3452
358.5,0.2958
359.0,0.4148
359.5,0.5297
360.0,0.5631
360.5,0.4513
361.0,0.4125
361.5,0.4759
362.0,0.4123
362.5,0.5717
363.0,0.5146
363.5,0.4749
364.0,0.5821
364.5,0.4987
365.0,0.509
365.5,0.6403
366.0,0.6798
366.5,0.64
367.0,0.6247
367.5,0.6497
368.0,0.5698
368.5,0.5761
369.0,0.6235
369.5,0.666
370.0,0.7114
370.5,0.5533
371.0,0.5924
371.5,0.7428
372.0,0.4941
372.5,0.5936
373.0,0.6049
373.5,0.3943
374.0,0.5741
374.5,0.4764
375.0,0.464
375.5,0.6942
376.0,0.5767
376.5,0.5989
377.0,0.6352
377.5,0.7445
378.0,0.8087
378.5,0.7661
379.0,0.6337
379.5,0.5801
380.0,0.6044
380.5,0.7334
381.0,0.7362
381.5,0.5846
382.0,0.5201
382.5,0.4441
383.0,0.4119
383.5,0.3974
384.0,0.4391
384.5,0.647
385.0,0.6427
385.5,0.5995
386.0,0.5143
386.5,0.6767
387.0,0.5633
387.5,0.6339
388.0,0.5863
388.5,0.5805
389.0,0.6277
389.5,0.7615
390.0,0.7655
390.5,0.7057
391.0,0.832
391.5,0.8501
392.0,0.7172
392.5,0.6431
393.0,0.3583
393.5,0.2609
394.0,0.5316
394.5,0.6769
395.0,0.8273
395.5,0.8417
396.0,0.7309
396.5,0.4278
397.0,0.3216
397.5,0.655
398.0,0.9188
398.5,0.9511
399.0,1.031
399.5,1.029
400.0,1.07
401.0,1.102
402.0,1.166
403.0,1.11
404.0,1.096
405.0,1.099
406.0,1.083
407.0,1.068
408.0,1.113
409.0,1.194
410.0,1.045
411.0,1.135
412.0,1.221
413.0,1.194
414.0,1.211
415.0,1.217
416.0,1.24
417.0,1.213
418.0,1.193
419.0,1.211
420.0,1.209
421.0,1.267
422.0,1.207
423.0,1.181
424.0,1.252
425.0,1.252
426.0,1.221
427.0,1.201
428.0,1.172
429.0,1.112
430.0,0.9745
431.0,0.9681
432.0,1.252
433.0,1.261
434.0,1.173
435.0,1.228
436.0,1.385
437.0,1.368
438.0,1.247
439.0,1.293
440.0,1.336
441.0,1.386
442.0,1.489
443.0,1.454
444.0,1.487
445.0,1.457
446.0,1.392
447.0,1.507
448.0,1.533
449.0,1.541
450.0,1.586
451.0,1.647
452.0,1.589
453.0,1.496
454.0,1.564
455.0,1.576
456.0,1.615
457.0,1.645
458.0,1.591
459.0,1.585
460.0,1.592
461.0,1.631
462.0,1.645
463.0,1.636
464.0,1.609
465.0,1.59
466.0,1.607
467.0,1.58
468.0,1.601
469.0,1.612
470.0,1.562
471.0,1.562
472.0,1.648
473.0,1.629
474.0,1.634
475.0,1.651
476.0,1.605
477.0,1.613
478.0,1.659
479.0,1.65
480.0,1.654
481.0,1.686
482.0,1.695
483.0,1.675
484.0,1.642
485.0,1.566
486.0,1.37
487.0,1.436
488.0,1.577
489.0,1.584
490.0,1.668
491.0,1.64
492.0,1.55
493.0,1.603
494.0,1.62
495.0,1.635
496.0,1.647
497.0,1.674
498.0,1.597
499.0,1.62
500.0,1.575
501.0,1.548
502.0,1.529
503.0,1.595
504.0,1.561
505.0,1.614
506.0,1.668
507.0,1.588
508.0,1.539
509.0,1.582
510.0,1.574
511.0,1.616
512.0,1.635
513.0,1.548
514.0,1.539
515.0,1.524
516.0,1.522
517.0,1.353
518.0,1.424
519.0,1.495
520.0,1.55
521.0,1.567
522.0,1.57
523.0,1.543
524.0,1.6
525.0,1.621
526.0,1.55
527.0,1.462
528.0,1.549
529.0,1.634
530.0,1.612
531.0,1.637
532.0,1.582
533.0,1.537
534.0,1.583
535.0,1.618
536.0,1.634
537.0,1.57
538.0,1.598
539.0,1.586
540.0,1.521
541.0,1.534
542.0,1.584
543.0,1.567
544.0,1.596
545.0,1.592
546.0,1.601
547.0,1.6
548.0,1.581
549.0,1.587
550.0,1.606
551.0,1.587
552.0,1.599
553.0,1.572
554.0,1.61
555.0,1.615
556.0,1.595
557.0,1.547
558.0,1.537
559.0,1.51
560.0,1.53
561.0,1.551
562.0,1.542
563.0,1.585
564.0,1.544
565.0,1.532
566.0,1.511
567.0,1.541
568.0,1.531
569.0,1.5
570.0,1.499
571.0,1.49
572.0,1.53
573.0,1.547
574.0,1.544
575.0,1.516
576.0,1.503
577.0,1.52
578.0,1.496
579.0,1.501
580.0,1.527
581.0,1.533
582.0,1.56
583.0,1.563
584.0,1.576
585.0,1.537
586.0,1.506
587.0,1.541
588.0,1.511
589.0,1.351
590.0,1.412
591.0,1.488
592.0,1.474
593.0,1.491
594.0,1.483
595.0,1.451
596.0,1.499
597.0,1.486
598.0,1.48
599.0,1.48
600.0,1.481
601.0,1.467
602.0,1.458
603.0,1.481
604.0,1.506
605.0,1.498
606.0,1.492
607.0,1.506
608.0,1.489
609.0,1.491
610.0,1.48
611.0,1.488
612.0,1.483
613.0,1.465
614.0,1.444
615.0,1.475
616.0,1.427
617.0,1.424
618.0,1.479
619.0,1.464
620.0,1.474
621.0,1.476
622.0,1.46
623.0,1.439
624.0,1.414
625.0,1.411
626.0,1.433
627.0,1.451
628.0,1.381
629.0,1.427
630.0,1.395
631.0,1.418
632.0,1.4
633.0,1.44
634.0,1.423
635.0,1.445
636.0,1.424
637.0,1.447
638.0,1.459
639.0,1.442
640.0,1.428
641.0,1.426
642.0,1.419
643.0,1.439
644.0,1.433
645.0,1.437
646.0,1.407
647.0,1.397
648.0,1.4
649.0,1.373
650.0,1.371
651.0,1.429
652.0,1.38
653.0,1.411
654.0,1.395
655.0,1.348
656.0,1.192
657.0,1.224
658.0,1.369
659.0,1.378
660.0,1.383
661.0,1.393
662.0,1.398
663.0,1.37
664.0,1.384
665.0,1.384
666.0,1.384
667.0,1.382
668.0,1.382
669.0,1.403
670.0,1.397
671.0,1.397
672.0,1.385
673.0,1.405
674.0,1.4
675.0,1.387
676.0,1.397
677.0,1.383
678.0,1.387
679.0,1.364
680.0,1.375
681.0,1.366
682.0,1.365
683.0,1.362
684.0,1.356
685.0,1.368
686.0,1.36
687.0,1.014
688.0,1.135
689.0,1.137
690.0,1.175
691.0,1.217
692.0,1.246
693.0,1.238
694.0,1.228
695.0,1.266
696.0,1.268
697.0,1.329
698.0,1.309
699.0,1.289
700.0,1.274
701.0,1.264
702.0,1.269
703.0,1.272
704.0,1.306
705.0,1.308
706.0,1.305
707.0,1.305
708.0,1.308
709.0,1.306
710.0,1.308
711.0,1.305
712.0,1.3
713.0,1.288
714.0,1.293
715.0,1.257
716.0,1.259
717.0,1.133
718.0,1.049
719.0,0.9659
720.0,1.014
721.0,1.094
722.0,1.223
723.0,1.154
724.0,1.057
725.0,1.046
726.0,1.091
727.0,1.098
728.0,1.045
729.0,1.069
730.0,1.131
731.0,1.087
732.0,1.147
733.0,1.199
734.0,1.224
735.0,1.201
736.0,1.199
737.0,1.205
738.0,1.214
739.0,1.19
740.0,1.218
741.0,1.205
742.0,1.204
743.0,1.235
744.0,1.23
745.0,1.23
746.0,1.236
747.0,1.238
748.0,1.236
749.0,1.222
750.0,1.221
751.0,1.209
752.0,1.214
753.0,1.22
754.0,1.223
755.0,1.216
756.0,1.216
757.0,1.218
758.0,1.203
759.0,1.184
760.0,0.3198
761.0,0.1991
762.0,0.7222
763.0,0.4364
764.0,0.5877
765.0,0.723
766.0,0.8309
767.0,0.994
768.0,1.105
769.0,1.119
770.0,1.147
771.0,1.152
772.0,1.153
773.0,1.161
774.0,1.155
775.0,1.146
776.0,1.16
777.0,1.145
778.0,1.138
779.0,1.14
780.0,1.133
781.0,1.134
782.0,1.142
783.0,1.122
784.0,1.127
785.0,1.119
786.0,1.132
787.0,1.117
788.0,1.105
789.0,1.105
790.0,1.082
791.0,1.086
792.0,1.077
793.0,1.06
794.0,1.072
795.0,1.092
796.0,1.067
797.0,1.069
798.0,1.092
799.0,1.087
800.0,1.07
801.0,1.068
802.0,1.065
803.0,1.058
804.0,1.059
805.0,1.053
806.0,1.079
807.0,1.067
808.0,1.068
809.0,1.051
810.0,1.045
811.0,1.05
812.0,1.026
813.0,1.009
814.0,0.9086
815.0,0.9025
816.0,0.8434
817.0,0.8562
818.0,0.8289
819.0,0.9082
820.0,0.8628
821.0,0.9834
822.0,0.9596
823.0,0.6935
824.0,0.9402
825.0,0.9681
826.0,0.9389
827.0,0.9828
828.0,0.856
829.0,0.9319
830.0,0.9223
831.0,0.9247
832.0,0.9006
833.0,0.9462
834.0,0.9203
835.0,0.9951
836.0,0.9625
837.0,0.9974
838.0,0.9707
839.0,0.9816
840.0,1.002
841.0,0.9898
842.0,0.9892
843.0,0.9858
844.0,0.9738
845.0,1.004
846.0,0.9997
847.0,0.9803
848.0,0.9755
849.0,0.9479
850.0,0.9081
851.0,0.9629
852.0,0.9556
853.0,0.9188
854.0,0.7943
855.0,0.8714
856.0,0.9529
857.0,0.9734
858.0,0.9666
859.0,0.967
860.0,0.9684
861.0,0.9633
862.0,0.9783
863.0,1.001
864.0,0.9514
865.0,0.9431
866.0,0.848
867.0,0.885
868.0,0.9631
869.0,0.9431
870.0,0.97
871.0,0.9569
872.0,0.9535
873.0,0.9516
874.0,0.9404
875.0,0.9214
876.0,0.9312
877.0,0.9405
878.0,0.951
879.0,0.9364
880.0,0.9164
881.0,0.9033
882.0,0.9231
883.0,0.9255
884.0,0.9215
885.0,0.9286
886.0,0.8872
887.0,0.895
888.0,0.9094
889.0,0.9178
890.0,0.9125
891.0,0.9098
892.0,0.8865
893.0,0.8627
894.0,0.8395
895.0,0.8024
896.0,0.7604
897.0,0.6661
898.0,0.7194
899.0,0.5633
900.0,0.729
901.0,0.5896
902.0,0.671
903.0,0.6843
904.0,0.8336
905.0,0.8091
906.0,0.7607
907.0,0.637
908.0,0.6472
909.0,0.6918
910.0,0.6281
911.0,0.6598
912.0,0.6858
913.0,0.6383
914.0,0.6301
915.0,0.681
916.0,0.5821
917.0,0.72
918.0,0.5972
919.0,0.7291
920.0,0.7287
921.0,0.7556
922.0,0.6872
923.0,0.7294
924.0,0.7049
925.0,0.6901
926.0,0.6975
927.0,0.7696
928.0,0.5967
929.0,0.5534
930.0,0.4492
931.0,0.4231
932.0,0.3191
933.0,0.2675
934.0,0.164
935.0,0.267
936.0,0.1775
937.0,0.1815
938.0,0.2188
939.0,0.4102
940.0,0.4835
941.0,0.3785
942.0,0.4294
943.0,0.2933
944.0,0.2995
945.0,0.388
946.0,0.2122
947.0,0.3934
948.0,0.2917
949.0,0.5119
950.0,0.1659
951.0,0.5016
952.0,0.2892
953.0,0.3606
954.0,0.4281
955.0,0.3632
956.0,0.3466
957.0,0.2917
958.0,0.4706
959.0,0.3888
960.0,0.4352
961.0,0.4771
962.0,0.4531
963.0,0.5124
964.0,0.4729
965.0,0.5092
966.0,0.5119
967.0,0.5106
968.0,0.6511
969.0,0.6821
970.0,0.6314
971.0,0.7082
972.0,0.6802
973.0,0.6069
974.0,0.5785
975.0,0.5945
976.0,0.5722
977.0,0.6361
978.0,0.6106
979.0,0.6347
980.0,0.6
981.0,0.7037
982.0,0.678
983.0,0.6542
984.0,0.7194
985.0,0.6754
986.0,0.7286
987.0,0.718
988.0,0.7168
989.0,0.7244
990.0,0.7122
991.0,0.727
992.0,0.7308
993.0,0.7182
994.0,0.7303
995.0,0.7289
996.0,0.7263
997.0,0.7271
998.0,0.7239
999.0,0.7211
1000.0,0.7169
1001.0,0.7249
1002.0,0.7085
1003.0,0.7124
1004.0,0.6959
1005.0,0.6692
1006.0,0.696
1007.0,0.7104
1008.0,0.7072
1009.0,0.7042
1010.0,0.7016
1011.0,0.7068
1012.0,0.7014
1013.0,0.7049
1014.0,0.7
1015.0,0.6955
1016.0,0.6925
1017.0,0.6944
1018.0,0.6914
1019.0,0.678
1020.0,0.688
1021.0,0.6869
1022.0,0.682
1023.0,0.6894
1024.0,0.6818
1025.0,0.6885
1026.0,0.6859
1027.0,0.6843
1028.0,0.683
1029.0,0.6751
1030.0,0.6792
1031.0,0.6767
1032.0,0.6746
1033.0,0.6645
1034.0,0.6645
1035.0,0.6666
1036.0,0.6702
1037.0,0.6593
1038.0,0.6623
1039.0,0.662
1040.0,0.6594
1041.0,0.6621
1042.0,0.6576
1043.0,0.6556
1044.0,0.658
1045.0,0.6491
1046.0,0.6421
1047.0,0.648
1048.0,0.6516
1049.0,0.6494
1050.0,0.6465
1051.0,0.6458
1052.0,0.6433
1053.0,0.6384
1054.0,0.6399
1055.0,0.6405
1056.0,0.6385
1057.0,0.6367
1058.0,0.6213
1059.0,0.6222
1060.0,0.6213
1061.0,0.6207
1062.0,0.6242
1063.0,0.6183
1064.0,0.6255
1065.0,0.6215
1066.0,0.6089
1067.0,0.6169
1068.0,0.6038
1069.0,0.5849
1070.0,0.6051
1071.0,0.6133
1072.0,0.6072
1073.0,0.5983
1074.0,0.6124
1075.0,0.5855
1076.0,0.6121
1077.0,0.6034
1078.0,0.5927
1079.0,0.6018
1080.0,0.5942
1081.0,0.5768
1082.0,0.583
1083.0,0.584
1084.0,0.5766
1085.0,0.5952
1086.0,0.5493
1087.0,0.5623
1088.0,0.5841
1089.0,0.5698
1090.0,0.5598
1091.0,0.5833
1092.0,0.581
1093.0,0.5037
1094.0,0.5329
1095.0,0.5231
1096.0,0.5043
1097.0,0.5674
1098.0,0.4975
1099.0,0.5172
1100.0,0.486
1101.0,0.4905
1102.0,0.4715
1103.0,0.4692
1104.0,0.4695
1105.0,0.5065
1106.0,0.4068
1107.0,0.4848
1108.0,0.4227
1109.0,0.4212
1110.0,0.482
1111.0,0.3429
1112.0,0.4171
1113.0,0.2824
1114.0,0.3134
1115.0,0.2604
1116.0,0.2185
1117.0,0.09253
1118.0,0.2335
1119.0,0.1254
1120.0,0.158
1121.0,0.2035
1122.0,0.09404
1123.0,0.1425
1124.0,0.1204
1125.0,0.1548
1126.0,0.06232
1127.0,0.1738
1128.0,0.113
1129.0,0.1184
1130.0,0.08219
1131.0,0.3087
1132.0,0.2462
1133.0,0.1671
1134.0,0.05001
1135.0,0.01843
1136.0,0.1434
1137.0,0.3063
1138.0,0.2185
1139.0,0.3054
1140.0,0.263
1141.0,0.2076
1142.0,0.2344
1143.0,0.3244
1144.0,0.1241
1145.0,0.1608
1146.0,0.1736
1147.0,0.07002
1148.0,0.281
1149.0,0.2308
1150.0,0.133
1151.0,0.217
1152.0,0.2596
1153.0,0.2475
1154.0,0.1579
1155.0,0.319
1156.0,0.2912
1157.0,0.3211
1158.0,0.3173
1159.0,0.337
1160.0,0.2945
1161.0,0.351
1162.0,0.3536
1163.0,0.4578
1164.0,0.4
1165.0,0.384
1166.0,0.3769
1167.0,0.4068
1168.0,0.4126
1169.0,0.4198
1170.0,0.4506
1171.0,0.4403
1172.0,0.445
1173.0,0.4496
1174.0,0.3372
1175.0,0.4369
1176.0,0.4727
1177.0,0.4586
1178.0,0.3568
1179.0,0.4762
1180.0,0.4336
1181.0,0.4465
1182.0,0.3215
1183.0,0.4378
1184.0,0.4147
1185.0,0.4039
1186.0,0.4661
1187.0,0.4479
1188.0,0.328
1189.0,0.4182
1190.0,0.4555
1191.0,0.4391
1192.0,0.4611
1193.0,0.4443
1194.0,0.4563
1195.0,0.4362
1196.0,0.4232
1197.0,0.4539
1198.0,0.4191
1199.0,0.3673
1200.0,0.4392
1201.0,0.4272
1202.0,0.4227
1203.0,0.4192
1204.0,0.3728
1205.0,0.4293
1206.0,0.4681
1207.0,0.4226
1208.0,0.4128
1209.0,0.4204
1210.0,0.4355
1211.0,0.419
1212.0,0.4184
1213.0,0.455
1214.0,0.4262
1215.0,0.4193
1216.0,0.4534
1217.0,0.4435
1218.0,0.4499
1219.0,0.4453
1220.0,0.4501
1221.0,0.4534
1222.0,0.443
1223.0,0.4397
1224.0,0.4384
1225.0,0.4506
1226.0,0.4524
1227.0,0.4227
1228.0,0.4536
1229.0,0.4524
1230.0,0.4457
1231.0,0.455
1232.0,0.4525
1233.0,0.4411
1234.0,0.4538
1235.0,0.4515
1236.0,0.4543
1237.0,0.4497
1238.0,0.4528
1239.0,0.447
1240.0,0.4485
1241.0,0.4475
1242.0,0.4456
1243.0,0.4419
1244.0,0.4454
1245.0,0.4471
1246.0,0.4444
1247.0,0.443
1248.0,0.4432
1249.0,0.4441
1250.0,0.4418
1251.0,0.4368
1252.0,0.436
1253.0,0.434
1254.0,0.4307
1255.0,0.436
1256.0,0.4264
1257.0,0.4246
1258.0,0.4304
1259.0,0.419
1260.0,0.4207
1261.0,0.4024
1262.0,0.3931
1263.0,0.3941
1264.0,0.3703
1265.0,0.3914
1266.0,0.3805
1267.0,0.3845
1268.0,0.369
1269.0,0.2591
1270.0,0.3842
1271.0,0.4004
1272.0,0.4011
1273.0,0.3975
1274.0,0.398
1275.0,0.4027
1276.0,0.4056
1277.0,0.4071
1278.0,0.4127
1279.0,0.4092
1280.0,0.4039
1281.0,0.3844
1282.0,0.3688
1283.0,0.3975
1284.0,0.4074
1285.0,0.4098
1286.0,0.4144
1287.0,0.4097
1288.0,0.4092
1289.0,0.3995
1290.0,0.4054
1291.0,0.4104
1292.0,0.3918
1293.0,0.404
1294.0,0.4015
1295.0,0.4011
1296.0,0.387
1297.0,0.3693
1298.0,0.3911
1299.0,0.4039
1300.0,0.3531
1301.0,0.3617
1302.0,0.3896
1303.0,0.3473
1304.0,0.3068
1305.0,0.3825
1306.0,0.3831
1307.0,0.3098
1308.0,0.3462
1309.0,0.381
1310.0,0.3044
1311.0,0.3343
1312.0,0.3269
1313.0,0.3223
1314.0,0.2923
1315.0,0.2909
1316.0,0.3307
1317.0,0.3145
1318.0,0.3375
1319.0,0.2765
1320.0,0.2652
1321.0,0.3045
1322.0,0.3093
1323.0,0.2434
1324.0,0.2712
1325.0,0.3266
1326.0,0.2871
1327.0,0.2755
1328.0,0.241
1329.0,0.19
1330.0,0.2427
1331.0,0.1578
1332.0,0.159
1333.0,0.2182
1334.0,0.1804
1335.0,0.2423
1336.0,0.1972
1337.0,0.1779
1338.0,0.1919
1339.0,0.1897
1340.0,0.1817
1341.0,0.1838
1342.0,0.1926
1343.0,0.1445
1344.0,0.0863
1345.0,0.1226
1346.0,0.07087
1347.0,0.07372
1348.0,0.007065
1349.0,0.02254
1350.0,0.02154
1351.0,0.007388
1352.0,0.002815
1353.0,0.0002201
1354.0,0.0005864
1355.0,1.086e-05
1356.0,0.0001117
1357.0,0.0001674
1358.0,1.245e-05
1359.0,2.857e-06
1360.0,7.058e-06
1361.0,2.936e-08
1362.0,1.479e-10
1363.0,1.09e-05
1364.0,4.889e-06
1365.0,1.02e-10
1366.0,4.038e-05
1367.0,1.557e-05
1368.0,3.094e-12
1369.0,1.918e-06
1370.0,1.214e-06
1371.0,9.718e-08
1372.0,8.645e-06
1373.0,0.0001131
1374.0,0.0003944
1375.0,0.0007052
1376.0,0.0005208
1377.0,0.0002562
1378.0,0.002133
1379.0,0.00011
1380.0,0.0001855
1381.0,5.988e-06
1382.0,8.353e-06
1383.0,1.66e-07
1384.0,2.38e-06
1385.0,6.036e-06
1386.0,8.794e-06
1387.0,0.0004705
1388.0,1.014e-05
1389.0,0.001191
1390.0,0.001017
1391.0,0.0007337
1392.0,5.458e-05
1393.0,0.0002448
1394.0,0.0001944
1395.0,2.107e-06
1396.0,3.572e-08
1397.0,0.00011
1398.0,0.002444
1399.0,0.001557
1400.0,2.144e-08
1401.0,5.672e-08
1402.0,0.003016
1403.0,0.004035
1404.0,0.001269
1405.0,1.276e-06
1406.0,0.003657
1407.0,0.0003129
1408.0,0.002947
1409.0,0.001219
1410.0,0.00088
1411.0,0.003511
1412.0,0.00429
1413.0,0.03199
1414.0,0.0006798
1415.0,0.0003628
1416.0,0.0448
1417.0,0.01646
1418.0,0.01881
1419.0,0.00308
1420.0,0.01165
1421.0,0.01287
1422.0,0.05753
1423.0,0.01199
1424.0,0.02177
1425.0,0.03289
1426.0,0.03488
1427.0,0.05833
1428.0,0.006818
1429.0,0.04609
1430.0,0.07252
1431.0,0.07814
1432.0,0.00546
1433.0,0.05191
1434.0,0.02753
1435.0,0.0313
1436.0,0.05427
1437.0,0.04169
1438.0,0.01934
1439.0,0.07108
1440.0,0.05366
1441.0,0.04372
1442.0,0.04777
1443.0,0.0557
1444.0,0.07545
1445.0,0.06239
1446.0,0.02912
1447.0,0.04587
1448.0,0.1304
1449.0,0.1166
1450.0,0.03393
1451.0,0.01455
1452.0,0.0734
1453.0,0.09433
1454.0,0.1504
1455.0,0.07525
1456.0,0.1029
1457.0,0.1311
1458.0,0.148
1459.0,0.176
1460.0,0.09527
1461.0,0.1023
1462.0,0.1444
1463.0,0.05062
1464.0,0.1657
1465.0,0.1009
1466.0,0.07685
1467.0,0.04377
1468.0,0.0887
1469.0,0.1068
1470.0,0.0589
