interpolation:linear
wavelength,value
280.0,4.3870000000000004e-20
280.5,8.271e-19
281.0,3.686e-18
281.5,6.865e-17
282.0,3.995e-16
282.5,1.241e-15
283.0,4.338e-15
283.5,7.283e-15
284.0,1.076e-13
284.5,2.881e-13
285.0,5.129e-13
285.5,2.851e-12
286.0,1.173e-11
286.5,5.136e-11
287.0,1.415e-10
287.5,4.991e-10
288.0,1.615e-09
288.5,5.377e-09
289.0,1.501e-08
289.5,4.565e-08
290.0,1.255e-07
290.5,2.526e-07
291.0,5.246e-07
291.5,1.412e-06
292.0,3.04e-06
292.5,4.173e-06
293.0,8.595e-06
293.5,1.95e-05
294.0,2.935e-05
294.5,4.767e-05
295.0,7.577e-05
295.5,0.0001616
296.0,0.0002666
296.5,0.0003198
297.0,0.0003823
297.5,0.0008527
298.0,0.001153
298.5,0.001032
299.0,0.002032
299.5,0.002771
300.0,0.002746
300.5,0.003573
301.0,0.00545
301.5,0.007481
302.0,0.005959
302.5,0.01071
303.0,0.01727
303.5,0.02038
304.0,0.01838
304.5,0.02451
305.0,0.03179
305.5,0.03311
306.0,0.03099
306.5,0.03642
307.0,0.04739
307.5,0.05574
308.0,0.05793
308.5,0.06464
309.0,0.05665
309.5,0.06046
310.0,0.05888
310.5,0.0941
311.0,0.1151
311.5,0.1101
312.0,0.1034
312.5,0.1208
313.0,0.1284
313.5,0.128
314.0,0.1521
314.5,0.1258
315.0,0.1638
315.5,0.1425
316.0,0.1177
316.5,0.161
317.0,0.2008
317.5,0.2128
318.0,0.1607
318.5,0.187
319.0,0.2151
319.5,0.1859
320.0,0.2273
320.5,0.2661
321.0,0.2233
321.5,0.2134
322.0,0.2441
322.5,0.2123
323.0,0.2029
323.5,0.2321
324.0,0.2696
324.5,0.2805
325.0,0.2566
325.5,0.3195
326.0,0.3744
326.5,0.366
327.0,0.3695
327.5,0.3626
328.0,0.336
328.5,0.3389
329.0,0.3934
329.5,0.4435
330.0,0.4523
330.5,0.3726
331.0,0.3842
331.5,0.384
332.0,0.4046
332.5,0.3965
333.0,0.3994
333.5,0.37
334.0,0.3813
334.5,0.4311
335.0,0.401
335.5,0.4551
336.0,0.3156
336.5,0.385
337.0,0.3197
337.5,0.4001
338.0,0.3845
338.5,0.4338
339.0,0.4326
339.5,0.4156
340.0,0.5014
340.5,0.4523
341.0,0.4336
341.5,0.4024
342.0,0.4829
342.5,0.4536
343.0,0.4981
343.5,0.4687
344.0,0.3525
344.5,0.3489
345.0,0.4673
345.5,0.4796
346.0,0.4092
346.5,0.4649
347.0,0.4987
347.5,0.4036
348.0,0.4629
348.5,0.4646
349.0,0.4321
349.5,0.4285
350.0,0.5311
350.5,0.5614
351.0,0.502
351.5,0.4867
352.0,0.5254
352.5,0.4116
353.0,0.5199
353.5,0.5574
354.0,0.5802
354.5,0.5897
355.0,0.5888
355.5,0.5329
356.0,0.5588
356.5,0.4782
357.0,0.396
357.5,0.4859
358.0,0.386
358.5,0.3305
359.0,0.4633
359.5,0.5913
360.0,0.6282
360.5,0.5032
361.0,0.4596
361.5,0.5298
362.0,0.4586
362.5,0.6355
363.0,0.5715
363.5,0.5271
364.0,0.6455
364.5,0.5527
365.0,0.5639
365.5,0.7089
366.0,0.7522
366.5,0.7077
367.0,0.6904
367.5,0.7177
368.0,0.629
368.5,0.6356
369.0,0.6875
369.5,0.734
370.0,0.7836
370.5,0.6091
371.0,0.6518
371.5,0.8168
372.0,0.5431
372.5,0.6521
373.0,0.6642
373.5,0.4327
374.0,0.6297
374.5,0.5222
375.0,0.5084
375.5,0.7604
376.0,0.6314
376.5,0.6554
377.0,0.6948
377.5,0.8139
378.0,0.8838
378.5,0.8369
379.0,0.6919
379.5,0.6333
380.0,0.6595
380.5,0.7998
381.0,0.8025
381.5,0.6368
382.0,0.5662
382.5,0.4832
383.0,0.4479
383.5,0.4319
384.0,0.4771
384.5,0.7026
385.0,0.6976
385.5,0.6504
386.0,0.5578
386.5,0.7335
387.0,0.6104
387.5,0.6866
388.0,0.6347
388.5,0.6281
389.0,0.679
389.5,0.8234
390.0,0.8274
390.5,0.7624
391.0,0.8985
391.5,0.9177
392.0,0.774
392.5,0.6936
393.0,0.3864
393.5,0.2811
394.0,0.5727
394.5,0.7289
395.0,0.8905
395.5,0.9059
396.0,0.7863
396.5,0.46
397.0,0.3456
397.5,0.7037
398.0,0.9869
398.5,1.021
399.0,1.106
399.5,1.104
400.0,1.148
401.0,1.181
402.0,1.248
403.0,1.188
404.0,1.172
405.0,1.174
406.0,1.157
407.0,1.14
408.0,1.187
409.0,1.273
410.0,1.114
411.0,1.208
412.0,1.299
413.0,1.27
414.0,1.287
415.0,1.292
416.0,1.316
417.0,1.286
418.0,1.265
419.0,1.283
420.0,1.28
421.0,1.341
422.0,1.277
423.0,1.249
424.0,1.323
425.0,1.323
426.0,1.289
427.0,1.267
428.0,1.236
429.0,1.172
430.0,1.026
431.0,1.019
432.0,1.317
433.0,1.326
434.0,1.234
435.0,1.29
436.0,1.455
437.0,1.436
438.0,1.309
439.0,1.357
440.0,1.401
441.0,1.453
442.0,1.56
443.0,1.523
444.0,1.557
445.0,1.526
446.0,1.456
447.0,1.575
448.0,1.603
449.0,1.61
450.0,1.656
451.0,1.719
452.0,1.658
453.0,1.561
454.0,1.63
455.0,1.642
456.0,1.683
457.0,1.713
458.0,1.658
459.0,1.65
460.0,1.657
461.0,1.697
462.0,1.711
463.0,1.701
464.0,1.673
465.0,1.652
466.0,1.669
467.0,1.641
468.0,1.662
469.0,1.673
470.0,1.621
471.0,1.62
472.0,1.709
473.0,1.689
474.0,1.695
475.0,1.712
476.0,1.665
477.0,1.672
478.0,1.72
479.0,1.71
480.0,1.713
481.0,1.745
482.0,1.754
483.0,1.733
484.0,1.698
485.0,1.618
486.0,1.415
487.0,1.483
488.0,1.629
489.0,1.636
490.0,1.722
491.0,1.693
492.0,1.6
493.0,1.653
494.0,1.671
495.0,1.686
496.0,1.698
497.0,1.726
498.0,1.646
499.0,1.669
500.0,1.623
501.0,1.595
502.0,1.576
503.0,1.644
504.0,1.611
505.0,1.664
506.0,1.719
507.0,1.637
508.0,1.585
509.0,1.629
510.0,1.62
511.0,1.663
512.0,1.682
513.0,1.592
514.0,1.582
515.0,1.567
516.0,1.565
517.0,1.391
518.0,1.463
519.0,1.536
520.0,1.593
521.0,1.609
522.0,1.612
523.0,1.585
524.0,1.643
525.0,1.665
526.0,1.592
527.0,1.503
528.0,1.591
529.0,1.679
530.0,1.656
531.0,1.682
532.0,1.626
533.0,1.579
534.0,1.626
535.0,1.661
536.0,1.677
537.0,1.611
538.0,1.64
539.0,1.627
540.0,1.561
541.0,1.574
542.0,1.625
543.0,1.608
544.0,1.638
545.0,1.633
546.0,1.643
547.0,1.641
548.0,1.622
549.0,1.627
550.0,1.647
551.0,1.627
552.0,1.64
553.0,1.611
554.0,1.651
555.0,1.655
556.0,1.635
557.0,1.585
558.0,1.575
559.0,1.548
560.0,1.568
561.0,1.59
562.0,1.581
563.0,1.626
564.0,1.583
565.0,1.571
566.0,1.55
567.0,1.581
568.0,1.571
569.0,1.541
570.0,1.541
571.0,1.53
572.0,1.572
573.0,1.59
574.0,1.587
575.0,1.559
576.0,1.545
577.0,1.562
578.0,1.538
579.0,1.541
580.0,1.566
581.0,1.571
582.0,1.599
583.0,1.6
584.0,1.613
585.0,1.573
586.0,1.542
587.0,1.578
588.0,1.549
589.0,1.39
590.0,1.452
591.0,1.527
592.0,1.514
593.0,1.53
594.0,1.523
595.0,1.491
596.0,1.537
597.0,1.524
598.0,1.517
599.0,1.517
600.0,1.516
601.0,1.501
602.0,1.491
603.0,1.515
604.0,1.54
605.0,1.532
606.0,1.525
607.0,1.539
608.0,1.521
609.0,1.523
610.0,1.511
611.0,1.519
612.0,1.514
613.0,1.495
614.0,1.474
615.0,1.505
616.0,1.455
617.0,1.452
618.0,1.508
619.0,1.492
620.0,1.502
621.0,1.505
622.0,1.489
623.0,1.468
624.0,1.442
625.0,1.439
626.0,1.461
627.0,1.481
628.0,1.419
629.0,1.459
630.0,1.427
631.0,1.448
632.0,1.429
633.0,1.467
634.0,1.45
635.0,1.471
636.0,1.449
637.0,1.472
638.0,1.484
639.0,1.466
640.0,1.451
641.0,1.449
642.0,1.441
643.0,1.461
644.0,1.455
645.0,1.459
646.0,1.429
647.0,1.422
648.0,1.425
649.0,1.399
650.0,1.393
651.0,1.451
652.0,1.405
653.0,1.433
654.0,1.416
655.0,1.37
656.0,1.21
657.0,1.242
658.0,1.388
659.0,1.397
660.0,1.402
661.0,1.412
662.0,1.418
663.0,1.389
664.0,1.402
665.0,1.401
666.0,1.401
667.0,1.399
668.0,1.398
669.0,1.42
670.0,1.413
671.0,1.412
672.0,1.4
673.0,1.421
674.0,1.415
675.0,1.402
676.0,1.412
677.0,1.397
678.0,1.401
679.0,1.378
680.0,1.389
681.0,1.38
682.0,1.379
683.0,1.376
684.0,1.37
685.0,1.381
686.0,1.374
687.0,1.072
688.0,1.177
689.0,1.179
690.0,1.211
691.0,1.247
692.0,1.27
693.0,1.263
694.0,1.254
695.0,1.287
696.0,1.289
697.0,1.343
698.0,1.323
699.0,1.308
700.0,1.292
701.0,1.284
702.0,1.287
703.0,1.29
704.0,1.322
705.0,1.324
706.0,1.319
707.0,1.319
708.0,1.323
709.0,1.319
710.0,1.322
711.0,1.318
712.0,1.312
713.0,1.301
714.0,1.306
715.0,1.271
716.0,1.273
717.0,1.163
718.0,1.081
719.0,0.9985
720.0,1.049
721.0,1.12
722.0,1.24
723.0,1.176
724.0,1.085
725.0,1.076
726.0,1.12
727.0,1.124
728.0,1.076
729.0,1.095
730.0,1.156
731.0,1.114
732.0,1.169
733.0,1.215
734.0,1.239
735.0,1.216
736.0,1.214
737.0,1.22
738.0,1.225
739.0,1.202
740.0,1.229
741.0,1.214
742.0,1.213
743.0,1.243
744.0,1.238
745.0,1.238
746.0,1.243
747.0,1.246
748.0,1.243
749.0,1.229
750.0,1.229
751.0,1.216
752.0,1.221
753.0,1.228
754.0,1.231
755.0,1.224
756.0,1.223
757.0,1.225
758.0,1.21
759.0,1.194
760.0,0.3904
761.0,0.2604
762.0,0.7802
763.0,0.5089
764.0,0.6556
765.0,0.7811
766.0,0.8743
767.0,1.024
768.0,1.122
769.0,1.132
770.0,1.156
771.0,1.159
772.0,1.16
773.0,1.168
774.0,1.162
775.0,1.153
776.0,1.166
777.0,1.151
778.0,1.144
779.0,1.145
780.0,1.139
781.0,1.14
782.0,1.147
783.0,1.127
784.0,1.133
785.0,1.125
786.0,1.138
787.0,1.124
788.0,1.113
789.0,1.114
790.0,1.093
791.0,1.094
792.0,1.085
793.0,1.069
794.0,1.077
795.0,1.098
796.0,1.077
797.0,1.078
798.0,1.098
799.0,1.094
800.0,1.078
801.0,1.077
802.0,1.074
803.0,1.067
804.0,1.068
805.0,1.061
806.0,1.085
807.0,1.073
808.0,1.074
809.0,1.058
810.0,1.053
811.0,1.06
812.0,1.038
813.0,1.023
814.0,0.9308
815.0,0.9244
816.0,0.866
817.0,0.8775
818.0,0.8516
819.0,0.9244
820.0,0.8818
821.0,0.9936
822.0,0.9716
823.0,0.7222
824.0,0.9555
825.0,0.9791
826.0,0.953
827.0,0.9937
828.0,0.8759
829.0,0.9451
830.0,0.9365
831.0,0.9384
832.0,0.9159
833.0,0.9564
834.0,0.9337
835.0,1.002
836.0,0.9739
837.0,1.004
838.0,0.9792
839.0,0.9882
840.0,1.008
841.0,0.9967
842.0,0.9948
843.0,0.9902
844.0,0.9788
845.0,1.009
846.0,1.004
847.0,0.9838
848.0,0.9796
849.0,0.9519
850.0,0.9118
851.0,0.9674
852.0,0.9598
853.0,0.9224
854.0,0.7978
855.0,0.8746
856.0,0.9567
857.0,0.9768
858.0,0.9702
859.0,0.9703
860.0,0.9716
861.0,0.9665
862.0,0.9815
863.0,1.005
864.0,0.9544
865.0,0.946
866.0,0.8507
867.0,0.8877
868.0,0.966
869.0,0.9459
870.0,0.9729
871.0,0.9598
872.0,0.9563
873.0,0.9544
874.0,0.9431
875.0,0.9241
876.0,0.9339
877.0,0.9433
878.0,0.9539
879.0,0.9392
880.0,0.9191
881.0,0.9063
882.0,0.9262
883.0,0.9283
884.0,0.9245
885.0,0.9315
886.0,0.891
887.0,0.8981
888.0,0.9131
889.0,0.9205
890.0,0.9163
891.0,0.913
892.0,0.8909
893.0,0.869
894.0,0.8489
895.0,0.8157
896.0,0.776
897.0,0.6866
898.0,0.7372
899.0,0.5864
900.0,0.7432
901.0,0.6127
902.0,0.6865
903.0,0.7033
904.0,0.843
905.0,0.8204
906.0,0.7732
907.0,0.6573
908.0,0.6667
909.0,0.7075
910.0,0.6511
911.0,0.6793
912.0,0.7035
913.0,0.6619
914.0,0.6522
915.0,0.7027
916.0,0.6048
917.0,0.7372
918.0,0.6203
919.0,0.7449
920.0,0.7409
921.0,0.7663
922.0,0.7033
923.0,0.7396
924.0,0.7211
925.0,0.7065
926.0,0.7136
927.0,0.7815
928.0,0.6234
929.0,0.5827
930.0,0.4813
931.0,0.4516
932.0,0.3485
933.0,0.2972
934.0,0.1925
935.0,0.2926
936.0,0.201
937.0,0.2069
938.0,0.2466
939.0,0.4378
940.0,0.5106
941.0,0.4076
942.0,0.4569
943.0,0.3186
944.0,0.3205
945.0,0.4168
946.0,0.2368
947.0,0.4245
948.0,0.3169
949.0,0.5432
950.0,0.1919
951.0,0.5308
952.0,0.3187
953.0,0.3897
954.0,0.4542
955.0,0.3914
956.0,0.3719
957.0,0.3226
958.0,0.4913
959.0,0.4149
960.0,0.4636
961.0,0.502
962.0,0.478
963.0,0.5346
964.0,0.4957
965.0,0.5304
966.0,0.5347
967.0,0.5337
968.0,0.6624
969.0,0.6944
970.0,0.6461
971.0,0.7164
972.0,0.6897
973.0,0.6236
974.0,0.596
975.0,0.6091
976.0,0.5903
977.0,0.6483
978.0,0.6257
979.0,0.6475
980.0,0.6143
981.0,0.7113
982.0,0.6882
983.0,0.6659
984.0,0.7241
985.0,0.6854
986.0,0.7316
987.0,0.7226
988.0,0.7215
989.0,0.7263
990.0,0.7165
991.0,0.7291
992.0,0.7328
993.0,0.7218
994.0,0.732
995.0,0.7304
996.0,0.728
997.0,0.7287
998.0,0.7256
999.0,0.7227
1000.0,0.719
1001.0,0.7265
1002.0,0.7119
1003.0,0.714
1004.0,0.698
1005.0,0.6705
1006.0,0.6977
1007.0,0.712
1008.0,0.7091
1009.0,0.7064
1010.0,0.7041
1011.0,0.7083
1012.0,0.7033
1013.0,0.7063
1014.0,0.7014
1015.0,0.697
1016.0,0.694
1017.0,0.6959
1018.0,0.6927
1019.0,0.68
1020.0,0.6894
1021.0,0.6881
1022.0,0.6835
1023.0,0.691
1024.0,0.6841
1025.0,0.6898
1026.0,0.6874
1027.0,0.6857
1028.0,0.6845
1029.0,0.6766
1030.0,0.6805
1031.0,0.6781
1032.0,0.6759
1033.0,0.6658
1034.0,0.6658
1035.0,0.6679
1036.0,0.6716
1037.0,0.6606
1038.0,0.6636
1039.0,0.6634
1040.0,0.6607
1041.0,0.6636
1042.0,0.659
1043.0,0.657
1044.0,0.6595
1045.0,0.6507
1046.0,0.6436
1047.0,0.6496
1048.0,0.6533
1049.0,0.6511
1050.0,0.6483
1051.0,0.6476
1052.0,0.6452
1053.0,0.6403
1054.0,0.642
1055.0,0.6427
1056.0,0.6408
1057.0,0.6391
1058.0,0.6236
1059.0,0.6247
1060.0,0.6239
1061.0,0.6233
1062.0,0.6269
1063.0,0.621
1064.0,0.6283
1065.0,0.6245
1066.0,0.6116
1067.0,0.6198
1068.0,0.6068
1069.0,0.5876
1070.0,0.6082
1071.0,0.6158
1072.0,0.6101
1073.0,0.601
1074.0,0.6145
1075.0,0.5895
1076.0,0.6144
1077.0,0.6067
1078.0,0.5964
1079.0,0.6037
1080.0,0.5975
1081.0,0.5809
1082.0,0.5854
1083.0,0.5861
1084.0,0.5813
1085.0,0.5983
1086.0,0.5557
1087.0,0.5661
1088.0,0.5866
1089.0,0.574
1090.0,0.5656
1091.0,0.5863
1092.0,0.5835
1093.0,0.5123
1094.0,0.536
1095.0,0.5307
1096.0,0.5136
1097.0,0.5698
1098.0,0.5072
1099.0,0.5262
1100.0,0.4976
1101.0,0.5013
1102.0,0.4835
1103.0,0.4824
1104.0,0.4826
1105.0,0.516
1106.0,0.4255
1107.0,0.4961
1108.0,0.4394
1109.0,0.4366
1110.0,0.4938
1111.0,0.3611
1112.0,0.4318
1113.0,0.3028
1114.0,0.3344
1115.0,0.2782
1116.0,0.2401
1117.0,0.1101
1118.0,0.2537
1119.0,0.1426
1120.0,0.1791
1121.0,0.2266
1122.0,0.1101
1123.0,0.1615
1124.0,0.1365
1125.0,0.1741
1126.0,0.07565
1127.0,0.195
1128.0,0.1326
1129.0,0.1378
1130.0,0.09905
1131.0,0.3333
1132.0,0.2685
1133.0,0.1891
1134.0,0.062
1135.0,0.0228
1136.0,0.1646
1137.0,0.3321
1138.0,0.2392
1139.0,0.3226
1140.0,0.2826
1141.0,0.2273
1142.0,0.2539
1143.0,0.3462
1144.0,0.1397
1145.0,0.1817
1146.0,0.1962
1147.0,0.08523
1148.0,0.3
1149.0,0.2506
1150.0,0.1501
1151.0,0.2377
1152.0,0.2797
1153.0,0.2634
1154.0,0.1805
1155.0,0.337
1156.0,0.3099
1157.0,0.3391
1158.0,0.3347
1159.0,0.3522
1160.0,0.3124
1161.0,0.3653
1162.0,0.3684
1163.0,0.466
1164.0,0.4115
1165.0,0.3985
1166.0,0.3891
1167.0,0.4177
1168.0,0.4243
1169.0,0.4301
1170.0,0.4587
1171.0,0.449
1172.0,0.4522
1173.0,0.4577
1174.0,0.3525
1175.0,0.4438
1176.0,0.4764
1177.0,0.4646
1178.0,0.3685
1179.0,0.4797
1180.0,0.4412
1181.0,0.4536
1182.0,0.3342
1183.0,0.4437
1184.0,0.4229
1185.0,0.4138
1186.0,0.4709
1187.0,0.4545
1188.0,0.3411
1189.0,0.4251
1190.0,0.4604
1191.0,0.4468
1192.0,0.4656
1193.0,0.4499
1194.0,0.4611
1195.0,0.443
1196.0,0.4312
1197.0,0.4574
1198.0,0.4245
1199.0,0.3773
1200.0,0.4449
1201.0,0.4344
1202.0,0.4291
1203.0,0.4253
1204.0,0.3817
1205.0,0.4343
1206.0,0.4704
1207.0,0.4294
1208.0,0.4179
1209.0,0.4252
1210.0,0.4393
1211.0,0.4247
1212.0,0.4259
1213.0,0.4582
1214.0,0.4327
1215.0,0.4263
1216.0,0.4565
1217.0,0.4476
1218.0,0.4531
1219.0,0.4489
1220.0,0.4532
1221.0,0.456
1222.0,0.4461
1223.0,0.4432
1224.0,0.4425
1225.0,0.4531
1226.0,0.4543
1227.0,0.427
1228.0,0.4551
1229.0,0.4543
1230.0,0.4481
1231.0,0.456
1232.0,0.4535
1233.0,0.4439
1234.0,0.4544
1235.0,0.4524
1236.0,0.455
1237.0,0.451
1238.0,0.4534
1239.0,0.4477
1240.0,0.4491
1241.0,0.4484
1242.0,0.4461
1243.0,0.4424
1244.0,0.446
1245.0,0.4477
1246.0,0.445
1247.0,0.4437
1248.0,0.4442
1249.0,0.4449
1250.0,0.4426
1251.0,0.4379
1252.0,0.4368
1253.0,0.4354
1254.0,0.4326
1255.0,0.4369
1256.0,0.4285
1257.0,0.4269
1258.0,0.4318
1259.0,0.4222
1260.0,0.4237
1261.0,0.4075
1262.0,0.3994
1263.0,0.4004
1264.0,0.3792
1265.0,0.3976
1266.0,0.3883
1267.0,0.3912
1268.0,0.3773
1269.0,0.2794
1270.0,0.3913
1271.0,0.4053
1272.0,0.4057
1273.0,0.4023
1274.0,0.4024
1275.0,0.4068
1276.0,0.4092
1277.0,0.4103
1278.0,0.415
1279.0,0.4115
1280.0,0.4061
1281.0,0.3861
1282.0,0.3697
1283.0,0.3987
1284.0,0.4087
1285.0,0.411
1286.0,0.4153
1287.0,0.4113
1288.0,0.4106
1289.0,0.4023
1290.0,0.4066
1291.0,0.4114
1292.0,0.3955
1293.0,0.4057
1294.0,0.4034
1295.0,0.4035
1296.0,0.3911
1297.0,0.3749
1298.0,0.394
1299.0,0.4054
1300.0,0.3598
1301.0,0.3673
1302.0,0.3924
1303.0,0.3533
1304.0,0.3173
1305.0,0.3858
1306.0,0.3866
1307.0,0.3188
1308.0,0.3515
1309.0,0.3847
1310.0,0.3134
1311.0,0.3405
1312.0,0.3339
1313.0,0.3298
1314.0,0.3012
1315.0,0.3007
1316.0,0.3377
1317.0,0.3217
1318.0,0.3431
1319.0,0.2876
1320.0,0.2745
1321.0,0.3129
1322.0,0.3186
1323.0,0.2563
1324.0,0.2821
1325.0,0.3336
1326.0,0.2968
1327.0,0.2857
1328.0,0.2517
1329.0,0.2032
1330.0,0.2568
1331.0,0.1735
1332.0,0.1727
1333.0,0.2347
1334.0,0.1927
1335.0,0.2548
1336.0,0.2103
1337.0,0.1921
1338.0,0.2065
1339.0,0.2035
1340.0,0.1936
1341.0,0.1988
1342.0,0.2082
1343.0,0.1641
1344.0,0.09859
1345.0,0.138
1346.0,0.08586
1347.0,0.09004
1348.0,0.0106
1349.0,0.03156
1350.0,0.0288
1351.0,0.01176
1352.0,0.005192
1353.0,0.0005122
1354.0,0.001206
1355.0,3.373e-05
1356.0,0.0002669
1357.0,0.0003948
1358.0,3.803e-05
1359.0,1.146e-05
1360.0,2.379e-05
1361.0,1.872e-07
1362.0,1.321e-09
1363.0,3.738e-05
1364.0,1.809e-05
1365.0,1.218e-09
1366.0,0.0001275
1367.0,4.977e-05
1368.0,6.868e-11
1369.0,7.352e-06
1370.0,5.201e-06
1371.0,5.005e-07
1372.0,2.801e-05
1373.0,0.0002926
1374.0,0.0008868
1375.0,0.001534
1376.0,0.001066
1377.0,0.0005466
1378.0,0.004082
1379.0,0.0002397
1380.0,0.0004287
1381.0,1.586e-05
1382.0,2.785e-05
1383.0,6.6e-07
1384.0,9.443e-06
1385.0,1.804e-05
1386.0,3.135e-05
1387.0,0.0011
1388.0,2.648e-05
1389.0,0.002458
1390.0,0.002073
1391.0,0.001574
1392.0,0.0001292
1393.0,0.0005277
1394.0,0.0005019
1395.0,6.889e-06
1396.0,2.113e-07
1397.0,0.0002524
1398.0,0.004674
1399.0,0.003015
1400.0,1.465e-07
1401.0,3.159e-07
1402.0,0.005
1403.0,0.006832
1404.0,0.002188
1405.0,4.614e-06
1406.0,0.006485
1407.0,0.0005733
1408.0,0.005219
1409.0,0.002372
1410.0,0.001679
1411.0,0.00593
1412.0,0.006923
1413.0,0.04308
1414.0,0.00129
1415.0,0.0007276
1416.0,0.05621
1417.0,0.02319
1418.0,0.02604
1419.0,0.004432
1420.0,0.01627
1421.0,0.01852
1422.0,0.07107
1423.0,0.01571
1424.0,0.0279
1425.0,0.04246
1426.0,0.0435
1427.0,0.06856
1428.0,0.01033
1429.0,0.05592
1430.0,0.08411
1431.0,0.08956
1432.0,0.00837
1433.0,0.06127
1434.0,0.03341
1435.0,0.04075
1436.0,0.06631
1437.0,0.05126
1438.0,0.02519
1439.0,0.08466
1440.0,0.0645
1441.0,0.05463
1442.0,0.05873
1443.0,0.06556
1444.0,0.08809
1445.0,0.07503
1446.0,0.03573
1447.0,0.05671
1448.0,0.1441
1449.0,0.1316
1450.0,0.04203
1451.0,0.01887
1452.0,0.08517
1453.0,0.1077
1454.0,0.1638
1455.0,0.08531
1456.0,0.118
1457.0,0.1451
1458.0,0.1592
1459.0,0.1899
1460.0,0.1058
1461.0,0.1153
1462.0,0.1589
1463.0,0.0592
1464.0,0.1784
1465.0,0.1095
1466.0,0.089
1467.0,0.05357
1468.0,0.1013
1469.0,0.1204
