interpolation:linear
wavelength,value
280.0,1.54e-19
280.5,2.681e-18
281.0,1.161e-17
281.5,2.001e-16
282.0,1.111e-15
282.5,3.343e-15
283.0,1.129e-14
283.5,1.863e-14
284.0,2.54e-13
284.5,6.551e-13
285.0,1.121e-12
285.5,5.947e-12
286.0,2.401e-11
286.5,1.011e-10
287.0,2.708e-10
287.5,9.196e-10
288.0,2.838e-09
288.5,9.213e-09
289.0,2.506e-08
289.5,7.406e-08
290.0,1.989e-07
290.5,3.926e-07
291.0,7.964e-07
291.5,2.081e-06
292.0,4.371e-06
292.5,5.917e-06
293.0,1.198e-05
293.5,2.652e-05
294.0,3.928e-05
294.5,6.302e-05
295.0,9.865e-05
295.5,0.0002064
296.0,0.0003361
296.5,0.0003982
297.0,0.0004714
297.5,0.001037
298.0,0.001386
298.5,0.001231
299.0,0.002406
299.5,0.003241
300.0,0.003191
300.5,0.004126
301.0,0.006236
301.5,0.008497
302.0,0.006744
302.5,0.01204
303.0,0.01927
303.5,0.02264
304.0,0.02038
304.5,0.02703
305.0,0.03482
305.5,0.03613
306.0,0.03376
306.5,0.03957
307.0,0.05124
307.5,0.06
308.0,0.06229
308.5,0.06936
309.0,0.06068
309.5,0.06445
310.0,0.06264
310.5,0.09999
311.0,0.1221
311.5,0.1167
312.0,0.1092
312.5,0.1273
313.0,0.1352
313.5,0.1348
314.0,0.1598
314.5,0.1318
315.0,0.1714
315.5,0.1493
316.0,0.123
316.5,0.1679
317.0,0.2095
317.5,0.2221
318.0,0.1675
318.5,0.1944
319.0,0.2233
319.5,0.1933
320.0,0.2363
320.5,0.2761
321.0,0.2312
321.5,0.2209
322.0,0.2531
322.5,0.22
323.0,0.21
323.5,0.2398
324.0,0.2783
324.5,0.2898
325.0,0.2654
325.5,0.33
326.0,0.3862
326.5,0.3772
327.0,0.3808
327.5,0.3737
328.0,0.3466
328.5,0.3491
329.0,0.4048
329.5,0.4562
330.0,0.4653
330.5,0.3835
331.0,0.3954
331.5,0.3949
332.0,0.4158
332.5,0.4073
333.0,0.4103
333.5,0.3802
334.0,0.3918
334.5,0.4426
335.0,0.4115
335.5,0.4669
336.0,0.3238
336.5,0.395
337.0,0.328
337.5,0.4104
338.0,0.3942
338.5,0.4446
339.0,0.4433
339.5,0.4258
340.0,0.5138
340.5,0.4634
341.0,0.4441
341.5,0.412
342.0,0.4944
342.5,0.4643
343.0,0.5098
343.5,0.4797
344.0,0.3608
344.5,0.357
345.0,0.4781
345.5,0.4905
346.0,0.4185
346.5,0.4753
347.0,0.5099
347.5,0.4126
348.0,0.4731
348.5,0.4748
349.0,0.4415
349.5,0.4378
350.0,0.5426
350.5,0.5734
351.0,0.5127
351.5,0.497
352.0,0.5364
352.5,0.4202
353.0,0.5307
353.5,0.5689
354.0,0.5921
354.5,0.6018
355.0,0.6008
355.5,0.5437
356.0,0.57
356.5,0.4877
357.0,0.4039
357.5,0.4955
358.0,0.3935
358.5,0.337
359.0,0.4723
359.5,0.6027
360.0,0.6403
360.5,0.5129
361.0,0.4683
361.5,0.5398
362.0,0.4672
362.5,0.6473
363.0,0.582
363.5,0.5368
364.0,0.6573
364.5,0.5628
365.0,0.5741
365.5,0.7216
366.0,0.7656
366.5,0.7202
367.0,0.7025
367.5,0.7303
368.0,0.64
368.5,0.6466
369.0,0.6994
369.5,0.7465
370.0,0.797
370.5,0.6194
371.0,0.6627
371.5,0.8305
372.0,0.5521
372.5,0.6629
373.0,0.6751
373.5,0.4398
374.0,0.64
374.5,0.5307
375.0,0.5166
375.5,0.7726
376.0,0.6414
376.5,0.6658
377.0,0.7057
377.5,0.8267
378.0,0.8976
378.5,0.8499
379.0,0.7026
379.5,0.643
380.0,0.6696
380.5,0.812
381.0,0.8146
381.5,0.6464
382.0,0.5747
382.5,0.4904
383.0,0.4545
383.5,0.4383
384.0,0.484
384.5,0.7128
385.0,0.7077
385.5,0.6598
386.0,0.5657
386.5,0.7439
387.0,0.619
387.5,0.6962
388.0,0.6436
388.5,0.6369
389.0,0.6884
389.5,0.8347
390.0,0.8387
390.5,0.7727
391.0,0.9106
391.5,0.93
392.0,0.7843
392.5,0.7029
393.0,0.3915
393.5,0.2848
394.0,0.5802
394.5,0.7384
395.0,0.9021
395.5,0.9175
396.0,0.7964
396.5,0.4659
397.0,0.35
397.5,0.7126
398.0,0.9993
398.5,1.034
399.0,1.12
399.5,1.118
400.0,1.162
401.0,1.196
402.0,1.263
403.0,1.202
404.0,1.186
405.0,1.188
406.0,1.17
407.0,1.153
408.0,1.201
409.0,1.287
410.0,1.126
411.0,1.221
412.0,1.313
413.0,1.283
414.0,1.301
415.0,1.306
416.0,1.33
417.0,1.3
418.0,1.278
419.0,1.296
420.0,1.293
421.0,1.354
422.0,1.289
423.0,1.261
424.0,1.336
425.0,1.335
426.0,1.301
427.0,1.279
428.0,1.248
429.0,1.182
430.0,1.036
431.0,1.029
432.0,1.329
433.0,1.338
434.0,1.244
435.0,1.302
436.0,1.467
437.0,1.448
438.0,1.32
439.0,1.368
440.0,1.413
441.0,1.465
442.0,1.573
443.0,1.535
444.0,1.569
445.0,1.538
446.0,1.468
447.0,1.588
448.0,1.616
449.0,1.622
450.0,1.669
451.0,1.732
452.0,1.671
453.0,1.573
454.0,1.642
455.0,1.654
456.0,1.695
457.0,1.725
458.0,1.669
459.0,1.662
460.0,1.669
461.0,1.709
462.0,1.722
463.0,1.713
464.0,1.684
465.0,1.663
466.0,1.68
467.0,1.652
468.0,1.673
469.0,1.683
470.0,1.632
471.0,1.631
472.0,1.72
473.0,1.7
474.0,1.705
475.0,1.723
476.0,1.675
477.0,1.683
478.0,1.731
479.0,1.72
480.0,1.724
481.0,1.756
482.0,1.765
483.0,1.743
484.0,1.708
485.0,1.628
486.0,1.423
487.0,1.492
488.0,1.638
489.0,1.646
490.0,1.731
491.0,1.702
492.0,1.608
493.0,1.662
494.0,1.68
495.0,1.695
496.0,1.707
497.0,1.735
498.0,1.655
499.0,1.678
500.0,1.631
501.0,1.604
502.0,1.585
503.0,1.653
504.0,1.62
505.0,1.672
506.0,1.728
507.0,1.645
508.0,1.593
509.0,1.637
510.0,1.628
511.0,1.671
512.0,1.69
513.0,1.6
514.0,1.59
515.0,1.575
516.0,1.572
517.0,1.397
518.0,1.47
519.0,1.543
520.0,1.601
521.0,1.617
522.0,1.62
523.0,1.592
524.0,1.651
525.0,1.673
526.0,1.6
527.0,1.51
528.0,1.599
529.0,1.687
530.0,1.664
531.0,1.69
532.0,1.633
533.0,1.586
534.0,1.633
535.0,1.669
536.0,1.685
537.0,1.618
538.0,1.647
539.0,1.634
540.0,1.568
541.0,1.582
542.0,1.633
543.0,1.615
544.0,1.645
545.0,1.64
546.0,1.65
547.0,1.649
548.0,1.629
549.0,1.634
550.0,1.654
551.0,1.635
552.0,1.647
553.0,1.618
554.0,1.658
555.0,1.662
556.0,1.642
557.0,1.592
558.0,1.582
559.0,1.554
560.0,1.575
561.0,1.597
562.0,1.587
563.0,1.633
564.0,1.59
565.0,1.578
566.0,1.557
567.0,1.588
568.0,1.578
569.0,1.549
570.0,1.548
571.0,1.537
572.0,1.58
573.0,1.598
574.0,1.594
575.0,1.567
576.0,1.553
577.0,1.57
578.0,1.545
579.0,1.548
580.0,1.573
581.0,1.578
582.0,1.605
583.0,1.607
584.0,1.62
585.0,1.58
586.0,1.548
587.0,1.585
588.0,1.556
589.0,1.397
590.0,1.46
591.0,1.534
592.0,1.522
593.0,1.537
594.0,1.53
595.0,1.499
596.0,1.544
597.0,1.531
598.0,1.523
599.0,1.523
600.0,1.522
601.0,1.507
602.0,1.497
603.0,1.521
604.0,1.546
605.0,1.538
606.0,1.531
607.0,1.545
608.0,1.527
609.0,1.529
610.0,1.517
611.0,1.524
612.0,1.519
613.0,1.5
614.0,1.479
615.0,1.51
616.0,1.46
617.0,1.457
618.0,1.513
619.0,1.497
620.0,1.507
621.0,1.51
622.0,1.494
623.0,1.473
624.0,1.447
625.0,1.444
626.0,1.466
627.0,1.486
628.0,1.426
629.0,1.465
630.0,1.433
631.0,1.453
632.0,1.434
633.0,1.472
634.0,1.454
635.0,1.475
636.0,1.454
637.0,1.476
638.0,1.488
639.0,1.47
640.0,1.455
641.0,1.453
642.0,1.445
643.0,1.465
644.0,1.459
645.0,1.463
646.0,1.433
647.0,1.427
648.0,1.43
649.0,1.403
650.0,1.397
651.0,1.455
652.0,1.41
653.0,1.436
654.0,1.419
655.0,1.374
656.0,1.213
657.0,1.245
658.0,1.392
659.0,1.4
660.0,1.405
661.0,1.415
662.0,1.421
663.0,1.392
664.0,1.405
665.0,1.404
666.0,1.404
667.0,1.402
668.0,1.401
669.0,1.422
670.0,1.416
671.0,1.415
672.0,1.403
673.0,1.424
674.0,1.418
675.0,1.405
676.0,1.414
677.0,1.4
678.0,1.404
679.0,1.381
680.0,1.392
681.0,1.383
682.0,1.381
683.0,1.379
684.0,1.372
685.0,1.384
686.0,1.376
687.0,1.082
688.0,1.185
689.0,1.186
690.0,1.218
691.0,1.252
692.0,1.274
693.0,1.267
694.0,1.258
695.0,1.291
696.0,1.293
697.0,1.346
698.0,1.326
699.0,1.311
700.0,1.296
701.0,1.287
702.0,1.29
703.0,1.293
704.0,1.325
705.0,1.327
706.0,1.322
707.0,1.322
708.0,1.325
709.0,1.321
710.0,1.324
711.0,1.321
712.0,1.314
713.0,1.303
714.0,1.308
715.0,1.273
716.0,1.276
717.0,1.169
718.0,1.087
719.0,1.005
720.0,1.055
721.0,1.125
722.0,1.243
723.0,1.181
724.0,1.09
725.0,1.082
726.0,1.126
727.0,1.129
728.0,1.081
729.0,1.099
730.0,1.16
731.0,1.119
732.0,1.173
733.0,1.218
734.0,1.241
735.0,1.219
736.0,1.217
737.0,1.223
738.0,1.227
739.0,1.204
740.0,1.231
741.0,1.216
742.0,1.215
743.0,1.245
744.0,1.24
745.0,1.239
746.0,1.245
747.0,1.247
748.0,1.245
749.0,1.231
750.0,1.23
751.0,1.218
752.0,1.223
753.0,1.229
754.0,1.232
755.0,1.225
756.0,1.225
757.0,1.226
758.0,1.212
759.0,1.195
760.0,0.4043
761.0,0.2729
762.0,0.7907
763.0,0.5227
764.0,0.6682
765.0,0.7918
766.0,0.8821
767.0,1.029
768.0,1.124
769.0,1.134
770.0,1.158
771.0,1.16
772.0,1.161
773.0,1.169
774.0,1.163
775.0,1.154
776.0,1.168
777.0,1.152
778.0,1.145
779.0,1.147
780.0,1.14
781.0,1.141
782.0,1.148
783.0,1.128
784.0,1.134
785.0,1.126
786.0,1.139
787.0,1.125
788.0,1.115
789.0,1.115
790.0,1.095
791.0,1.096
792.0,1.087
793.0,1.07
794.0,1.078
795.0,1.099
796.0,1.079
797.0,1.08
798.0,1.1
799.0,1.095
800.0,1.079
801.0,1.079
802.0,1.076
803.0,1.069
804.0,1.069
805.0,1.062
806.0,1.086
807.0,1.075
808.0,1.075
809.0,1.059
810.0,1.054
811.0,1.061
812.0,1.04
813.0,1.025
814.0,0.9348
815.0,0.9284
816.0,0.8702
817.0,0.8814
818.0,0.8558
819.0,0.9274
820.0,0.8853
821.0,0.9955
822.0,0.9738
823.0,0.7276
824.0,0.9583
825.0,0.9811
826.0,0.9555
827.0,0.9957
828.0,0.8796
829.0,0.9475
830.0,0.9391
831.0,0.9409
832.0,0.9187
833.0,0.9582
834.0,0.9361
835.0,1.004
836.0,0.9759
837.0,1.006
838.0,0.9807
839.0,0.9893
840.0,1.009
841.0,0.998
842.0,0.9958
843.0,0.9909
844.0,0.9797
845.0,1.009
846.0,1.004
847.0,0.9844
848.0,0.9803
849.0,0.9526
850.0,0.9124
851.0,0.9682
852.0,0.9605
853.0,0.923
854.0,0.7984
855.0,0.8752
856.0,0.9574
857.0,0.9774
858.0,0.9709
859.0,0.9709
860.0,0.9721
861.0,0.9671
862.0,0.982
863.0,1.005
864.0,0.955
865.0,0.9465
866.0,0.8511
867.0,0.8882
868.0,0.9665
869.0,0.9464
870.0,0.9734
871.0,0.9603
872.0,0.9568
873.0,0.9549
874.0,0.9436
875.0,0.9246
876.0,0.9344
877.0,0.9438
878.0,0.9544
879.0,0.9397
880.0,0.9196
881.0,0.9068
882.0,0.9268
883.0,0.9288
884.0,0.925
885.0,0.932
886.0,0.8917
887.0,0.8986
888.0,0.9137
889.0,0.921
890.0,0.9169
891.0,0.9136
892.0,0.8917
893.0,0.8701
894.0,0.8506
895.0,0.8181
896.0,0.7788
897.0,0.6904
898.0,0.7405
899.0,0.5907
900.0,0.7458
901.0,0.617
902.0,0.6893
903.0,0.7068
904.0,0.8446
905.0,0.8224
906.0,0.7754
907.0,0.6611
908.0,0.6703
909.0,0.7104
910.0,0.6554
911.0,0.6829
912.0,0.7067
913.0,0.6663
914.0,0.6563
915.0,0.7067
916.0,0.6091
917.0,0.7403
918.0,0.6247
919.0,0.7477
920.0,0.7432
921.0,0.7682
922.0,0.7063
923.0,0.7415
924.0,0.7241
925.0,0.7095
926.0,0.7165
927.0,0.7836
928.0,0.6283
929.0,0.5881
930.0,0.4873
931.0,0.457
932.0,0.3541
933.0,0.3029
934.0,0.1982
935.0,0.2975
936.0,0.2056
937.0,0.2119
938.0,0.2521
939.0,0.443
940.0,0.5157
941.0,0.4131
942.0,0.462
943.0,0.3234
944.0,0.3245
945.0,0.4222
946.0,0.2416
947.0,0.4304
948.0,0.3218
949.0,0.549
950.0,0.1971
951.0,0.5363
952.0,0.3244
953.0,0.3953
954.0,0.4591
955.0,0.3967
956.0,0.3768
957.0,0.3286
958.0,0.4952
959.0,0.4198
960.0,0.4689
961.0,0.5067
962.0,0.4827
963.0,0.5388
964.0,0.5
965.0,0.5343
966.0,0.539
967.0,0.538
968.0,0.6645
969.0,0.6965
970.0,0.6487
971.0,0.7178
972.0,0.6914
973.0,0.6266
974.0,0.5992
975.0,0.6118
976.0,0.5936
977.0,0.6506
978.0,0.6284
979.0,0.6498
980.0,0.6169
981.0,0.7127
982.0,0.6901
983.0,0.668
984.0,0.7249
985.0,0.6872
986.0,0.7322
987.0,0.7234
988.0,0.7223
989.0,0.7266
990.0,0.7173
991.0,0.7295
992.0,0.7331
993.0,0.7225
994.0,0.7323
995.0,0.7306
996.0,0.7283
997.0,0.7289
998.0,0.7259
999.0,0.723
1000.0,0.7193
1001.0,0.7267
1002.0,0.7125
1003.0,0.7143
1004.0,0.6983
1005.0,0.6707
1006.0,0.698
1007.0,0.7122
1008.0,0.7095
1009.0,0.7068
1010.0,0.7045
1011.0,0.7086
1012.0,0.7036
1013.0,0.7066
1014.0,0.7017
1015.0,0.6972
1016.0,0.6942
1017.0,0.6962
1018.0,0.6929
1019.0,0.6803
1020.0,0.6897
1021.0,0.6883
1022.0,0.6838
1023.0,0.6912
1024.0,0.6845
1025.0,0.69
1026.0,0.6877
1027.0,0.686
1028.0,0.6847
1029.0,0.6769
1030.0,0.6807
1031.0,0.6783
1032.0,0.6762
1033.0,0.666
1034.0,0.666
1035.0,0.6681
1036.0,0.6718
1037.0,0.6608
1038.0,0.6638
1039.0,0.6636
1040.0,0.661
1041.0,0.6638
1042.0,0.6592
1043.0,0.6573
1044.0,0.6597
1045.0,0.6509
1046.0,0.6439
1047.0,0.6498
1048.0,0.6536
1049.0,0.6514
1050.0,0.6486
1051.0,0.648
1052.0,0.6455
1053.0,0.6407
1054.0,0.6423
1055.0,0.643
1056.0,0.6412
1057.0,0.6395
1058.0,0.6241
1059.0,0.6251
1060.0,0.6243
1061.0,0.6238
1062.0,0.6274
1063.0,0.6215
1064.0,0.6288
1065.0,0.625
1066.0,0.6121
1067.0,0.6203
1068.0,0.6073
1069.0,0.5881
1070.0,0.6087
1071.0,0.6162
1072.0,0.6106
1073.0,0.6015
1074.0,0.6149
1075.0,0.5902
1076.0,0.6147
1077.0,0.6073
1078.0,0.597
1079.0,0.604
1080.0,0.5981
1081.0,0.5816
1082.0,0.5859
1083.0,0.5864
1084.0,0.5822
1085.0,0.5988
1086.0,0.5569
1087.0,0.5668
1088.0,0.5871
1089.0,0.5748
1090.0,0.5667
1091.0,0.5868
1092.0,0.584
1093.0,0.5138
1094.0,0.5366
1095.0,0.532
1096.0,0.5152
1097.0,0.5702
1098.0,0.5089
1099.0,0.5278
1100.0,0.4998
1101.0,0.5033
1102.0,0.4857
1103.0,0.4848
1104.0,0.485
1105.0,0.5177
1106.0,0.429
1107.0,0.4982
1108.0,0.4424
1109.0,0.4395
1110.0,0.496
1111.0,0.3645
1112.0,0.4345
1113.0,0.3067
1114.0,0.3384
1115.0,0.2816
1116.0,0.2442
1117.0,0.1136
1118.0,0.2575
1119.0,0.1459
1120.0,0.1831
1121.0,0.231
1122.0,0.1133
1123.0,0.1651
1124.0,0.1396
1125.0,0.1778
1126.0,0.0783
1127.0,0.1991
1128.0,0.1364
1129.0,0.1416
1130.0,0.1024
1131.0,0.3378
1132.0,0.2727
1133.0,0.1934
1134.0,0.06445
1135.0,0.02371
1136.0,0.1687
1137.0,0.3368
1138.0,0.2431
1139.0,0.3257
1140.0,0.2863
1141.0,0.231
1142.0,0.2575
1143.0,0.3503
1144.0,0.1428
1145.0,0.1857
1146.0,0.2005
1147.0,0.08826
1148.0,0.3035
1149.0,0.2543
1150.0,0.1535
1151.0,0.2416
1152.0,0.2835
1153.0,0.2664
1154.0,0.1849
1155.0,0.3403
1156.0,0.3134
1157.0,0.3424
1158.0,0.3379
1159.0,0.355
1160.0,0.3158
1161.0,0.3679
1162.0,0.3712
1163.0,0.4674
1164.0,0.4136
1165.0,0.4011
1166.0,0.3914
1167.0,0.4197
1168.0,0.4264
1169.0,0.432
1170.0,0.4602
1171.0,0.4505
1172.0,0.4536
1173.0,0.4592
1174.0,0.3554
1175.0,0.4451
1176.0,0.4771
1177.0,0.4656
1178.0,0.3707
1179.0,0.4803
1180.0,0.4426
1181.0,0.4549
1182.0,0.3366
1183.0,0.4448
1184.0,0.4244
1185.0,0.4156
1186.0,0.4718
1187.0,0.4557
1188.0,0.3436
1189.0,0.4263
1190.0,0.4613
1191.0,0.4482
1192.0,0.4664
1193.0,0.4509
1194.0,0.462
1195.0,0.4442
1196.0,0.4327
1197.0,0.458
1198.0,0.4255
1199.0,0.3791
1200.0,0.4459
1201.0,0.4358
1202.0,0.4303
1203.0,0.4264
1204.0,0.3834
1205.0,0.4352
1206.0,0.4708
1207.0,0.4306
1208.0,0.4188
1209.0,0.4261
1210.0,0.44
1211.0,0.4257
1212.0,0.4272
1213.0,0.4587
1214.0,0.4339
1215.0,0.4276
1216.0,0.4571
1217.0,0.4483
1218.0,0.4537
1219.0,0.4495
1220.0,0.4537
1221.0,0.4564
1222.0,0.4467
1223.0,0.4438
1224.0,0.4432
1225.0,0.4536
1226.0,0.4547
1227.0,0.4278
1228.0,0.4553
1229.0,0.4546
1230.0,0.4485
1231.0,0.4562
1232.0,0.4536
1233.0,0.4444
1234.0,0.4545
1235.0,0.4525
1236.0,0.4551
1237.0,0.4512
1238.0,0.4535
1239.0,0.4478
1240.0,0.4492
1241.0,0.4486
1242.0,0.4462
1243.0,0.4425
1244.0,0.4462
1245.0,0.4478
1246.0,0.4451
1247.0,0.4438
1248.0,0.4443
1249.0,0.445
1250.0,0.4428
1251.0,0.4381
1252.0,0.4369
1253.0,0.4356
1254.0,0.4329
1255.0,0.4371
1256.0,0.4288
1257.0,0.4273
1258.0,0.4321
1259.0,0.4227
1260.0,0.4242
1261.0,0.4084
1262.0,0.4005
1263.0,0.4015
1264.0,0.3808
1265.0,0.3987
1266.0,0.3897
1267.0,0.3924
1268.0,0.3787
1269.0,0.2831
1270.0,0.3926
1271.0,0.4061
1272.0,0.4065
1273.0,0.4031
1274.0,0.4032
1275.0,0.4075
1276.0,0.4099
1277.0,0.4109
1278.0,0.4153
1279.0,0.4119
1280.0,0.4065
1281.0,0.3864
1282.0,0.3699
1283.0,0.3989
1284.0,0.4089
1285.0,0.4113
1286.0,0.4154
1287.0,0.4116
1288.0,0.4108
1289.0,0.4028
1290.0,0.4068
1291.0,0.4116
1292.0,0.3961
1293.0,0.406
1294.0,0.4037
1295.0,0.4039
1296.0,0.3919
1297.0,0.3759
1298.0,0.3946
1299.0,0.4056
1300.0,0.361
1301.0,0.3684
1302.0,0.3929
1303.0,0.3544
1304.0,0.3192
1305.0,0.3864
1306.0,0.3872
1307.0,0.3204
1308.0,0.3524
1309.0,0.3853
1310.0,0.315
1311.0,0.3417
1312.0,0.3351
1313.0,0.3312
1314.0,0.3028
1315.0,0.3025
1316.0,0.3389
1317.0,0.3231
1318.0,0.3441
1319.0,0.2897
1320.0,0.2762
1321.0,0.3145
1322.0,0.3203
1323.0,0.2587
1324.0,0.2841
1325.0,0.3349
1326.0,0.2986
1327.0,0.2876
1328.0,0.2538
1329.0,0.2057
1330.0,0.2595
1331.0,0.1765
1332.0,0.1753
1333.0,0.2378
1334.0,0.1951
1335.0,0.2572
1336.0,0.2128
1337.0,0.1949
1338.0,0.2092
1339.0,0.2061
1340.0,0.1959
1341.0,0.2016
1342.0,0.2112
1343.0,0.1678
1344.0,0.101
1345.0,0.141
1346.0,0.08883
1347.0,0.09327
1348.0,0.0114
1349.0,0.03351
1350.0,0.03032
1351.0,0.01277
1352.0,0.005782
1353.0,0.0005956
1354.0,0.001372
1355.0,4.132e-05
1356.0,0.000312
1357.0,0.0004603
1358.0,4.645e-05
1359.0,1.468e-05
1360.0,2.957e-05
1361.0,2.606e-07
1362.0,1.959e-09
1363.0,4.644e-05
1364.0,2.283e-05
1365.0,1.897e-09
1366.0,0.0001561
1367.0,6.124e-05
1368.0,1.191e-10
1369.0,9.351e-06
1370.0,6.741e-06
1371.0,6.714e-07
1372.0,3.456e-05
1373.0,0.0003466
1374.0,0.001024
1375.0,0.001758
1376.0,0.001212
1377.0,0.0006263
1378.0,0.004578
1379.0,0.0002758
1380.0,0.0004981
1381.0,1.893e-05
1382.0,3.453e-05
1383.0,8.472e-07
1384.0,1.207e-05
1385.0,2.198e-05
1386.0,3.931e-05
1387.0,0.001277
1388.0,3.151e-05
1389.0,0.002794
1390.0,0.00235
1391.0,0.001802
1392.0,0.0001509
1393.0,0.0006057
1394.0,0.0005936
1395.0,8.532e-06
1396.0,2.905e-07
1397.0,0.000293
1398.0,0.005236
1399.0,0.003389
1400.0,2.064e-07
1401.0,4.297e-07
1402.0,0.005475
1403.0,0.007504
1404.0,0.002411
1405.0,5.815e-06
1406.0,0.007172
1407.0,0.00064
1408.0,0.005773
1409.0,0.002666
1410.0,0.001886
1411.0,0.006512
1412.0,0.007542
1413.0,0.04539
1414.0,0.001448
1415.0,0.0008247
1416.0,0.05854
1417.0,0.02467
1418.0,0.02758
1419.0,0.004731
1420.0,0.01727
1421.0,0.01979
1422.0,0.07377
1423.0,0.01651
1424.0,0.02918
1425.0,0.04445
1426.0,0.04527
1427.0,0.07057
1428.0,0.01113
1429.0,0.05788
1430.0,0.08637
1431.0,0.09177
1432.0,0.009039
1433.0,0.06314
1434.0,0.03462
1435.0,0.04272
1436.0,0.06874
1437.0,0.05322
1438.0,0.02642
1439.0,0.08733
1440.0,0.06668
1441.0,0.05685
1442.0,0.0609
1443.0,0.06747
1444.0,0.09057
1445.0,0.07752
1446.0,0.03704
1447.0,0.0589
1448.0,0.1467
1449.0,0.1345
1450.0,0.04369
1451.0,0.01979
1452.0,0.08746
1453.0,0.1103
1454.0,0.1663
1455.0,0.08725
1456.0,0.1209
1457.0,0.1478
1458.0,0.1613
1459.0,0.1925
1460.0,0.1079
1461.0,0.1178
1462.0,0.1616
1463.0,0.06092
1464.0,0.1808
1465.0,0.1112
1466.0,0.09136
1467.0,0.05555
1468.0,0.1038
1469.0,0.1231
1470.0,0.07249
1471.0,0.02934
