interpolation:linear
wavelength,value
280.0,7.675e-25
280.5,2.903e-23
281.0,1.6689999999999998e-22
281.5,6.095e-21
282.0,5.342e-20
282.5,2.186e-19
283.0,1.035e-18
283.5,2.022e-18
284.0,6.033e-17
284.5,2.224e-16
285.0,5.599e-16
285.5,4.68e-15
286.0,2.271e-14
286.5,1.396e-13
287.0,4.941e-13
287.5,2.419e-12
288.0,1.184e-11
288.5,4.909e-11
289.0,1.719e-10
289.5,6.705e-10
290.0,2.261e-09
290.5,5.396e-09
291.0,1.376e-08
291.5,4.811e-08
292.0,1.281e-07
292.5,1.982e-07
293.0,4.761e-07
293.5,1.331e-06
294.0,2.309e-06
294.5,4.173e-06
295.0,7.586e-06
295.5,1.91e-05
296.0,3.53e-05
296.5,4.716e-05
297.0,6.141e-05
297.5,0.0001544
298.0,0.0002298
298.5,0.0002211
299.0,0.0004658
299.5,0.0007069
300.0,0.0007409
300.5,0.001019
301.0,0.001682
301.5,0.002462
302.0,0.002023
302.5,0.003842
303.0,0.006629
303.5,0.008132
304.0,0.007478
304.5,0.01043
305.0,0.01433
305.5,0.01546
306.0,0.01468
306.5,0.01764
307.0,0.02398
307.5,0.02934
308.0,0.03074
308.5,0.03497
309.0,0.03112
309.5,0.03458
310.0,0.03433
310.5,0.05542
311.0,0.06884
311.5,0.06636
312.0,0.06417
312.5,0.07641
313.0,0.08213
313.5,0.08136
314.0,0.09879
314.5,0.08391
315.0,0.1099
315.5,0.09473
316.0,0.07987
316.5,0.1112
317.0,0.1389
317.5,0.1469
318.0,0.1123
318.5,0.1333
319.0,0.155
319.5,0.1323
320.0,0.1617
320.5,0.1931
321.0,0.1647
321.5,0.1579
322.0,0.1781
322.5,0.1553
323.0,0.1503
323.5,0.1751
324.0,0.2041
324.5,0.2115
325.0,0.1916
325.5,0.2408
326.0,0.2857
326.5,0.2816
327.0,0.2842
327.5,0.2784
328.0,0.2558
328.5,0.2614
329.0,0.3063
329.5,0.3465
330.0,0.3534
330.5,0.2899
331.0,0.2987
331.5,0.3004
332.0,0.3188
332.5,0.3135
333.0,0.3159
333.5,0.2919
334.0,0.301
334.5,0.3424
335.0,0.3196
335.5,0.3637
336.0,0.2526
336.5,0.3078
337.0,0.2555
337.5,0.32
338.0,0.309
338.5,0.3495
339.0,0.3492
339.5,0.3358
340.0,0.405
340.5,0.366
341.0,0.3518
341.5,0.3271
342.0,0.3931
342.5,0.3697
343.0,0.4064
343.5,0.3827
344.0,0.2877
344.5,0.2854
345.0,0.3831
345.5,0.3939
346.0,0.3365
346.5,0.3828
347.0,0.411
347.5,0.333
348.0,0.3824
348.5,0.3843
349.0,0.3579
349.5,0.3553
350.0,0.441
350.5,0.4666
351.0,0.4176
351.5,0.4052
352.0,0.438
352.5,0.3435
353.0,0.4345
353.5,0.4663
354.0,0.4858
354.5,0.4943
355.0,0.4939
355.5,0.4476
356.0,0.4698
356.5,0.4024
357.0,0.3335
357.5,0.4096
358.0,0.3256
358.5,0.2791
359.0,0.3915
359.5,0.5
360.0,0.5317
360.5,0.4263
361.0,0.3897
361.5,0.4498
362.0,0.3899
362.5,0.5409
363.0,0.487
363.5,0.4496
364.0,0.5513
364.5,0.4724
365.0,0.4824
365.5,0.607
366.0,0.6446
366.5,0.6071
367.0,0.5928
367.5,0.6167
368.0,0.541
368.5,0.5471
369.0,0.5923
369.5,0.6329
370.0,0.6762
370.5,0.5261
371.0,0.5634
371.5,0.7066
372.0,0.4701
372.5,0.565
373.0,0.5759
373.5,0.3756
374.0,0.5469
374.5,0.4539
375.0,0.4423
375.5,0.6618
376.0,0.5499
376.5,0.5712
377.0,0.606
377.5,0.7105
378.0,0.7719
378.5,0.7314
379.0,0.6051
379.5,0.5541
380.0,0.5774
380.5,0.7008
381.0,0.7037
381.5,0.559
382.0,0.4974
382.5,0.4248
383.0,0.3941
383.5,0.3803
384.0,0.4204
384.5,0.6195
385.0,0.6156
385.5,0.5744
386.0,0.4929
386.5,0.6486
387.0,0.5401
387.5,0.6079
388.0,0.5623
388.5,0.5569
389.0,0.6023
389.5,0.7309
390.0,0.7349
390.5,0.6776
391.0,0.799
391.5,0.8166
392.0,0.6891
392.5,0.618
393.0,0.3445
393.5,0.2508
394.0,0.5112
394.5,0.6511
395.0,0.7959
395.5,0.8099
396.0,0.7034
396.5,0.4119
397.0,0.3096
397.5,0.6307
398.0,0.8849
398.5,0.9162
399.0,0.9934
399.5,0.9918
400.0,1.032
401.0,1.063
402.0,1.124
403.0,1.071
404.0,1.058
405.0,1.061
406.0,1.046
407.0,1.032
408.0,1.076
409.0,1.155
410.0,1.011
411.0,1.098
412.0,1.182
413.0,1.156
414.0,1.173
415.0,1.179
416.0,1.202
417.0,1.176
418.0,1.157
419.0,1.175
420.0,1.173
421.0,1.23
422.0,1.172
423.0,1.147
424.0,1.216
425.0,1.217
426.0,1.187
427.0,1.168
428.0,1.14
429.0,1.081
430.0,0.9483
431.0,0.9422
432.0,1.219
433.0,1.228
434.0,1.143
435.0,1.196
436.0,1.349
437.0,1.333
438.0,1.216
439.0,1.261
440.0,1.303
441.0,1.352
442.0,1.453
443.0,1.419
444.0,1.451
445.0,1.423
446.0,1.36
447.0,1.472
448.0,1.498
449.0,1.506
450.0,1.55
451.0,1.61
452.0,1.554
453.0,1.464
454.0,1.53
455.0,1.542
456.0,1.581
457.0,1.61
458.0,1.558
459.0,1.552
460.0,1.559
461.0,1.597
462.0,1.611
463.0,1.602
464.0,1.577
465.0,1.558
466.0,1.575
467.0,1.549
468.0,1.57
469.0,1.58
470.0,1.532
471.0,1.532
472.0,1.617
473.0,1.598
474.0,1.603
475.0,1.62
476.0,1.575
477.0,1.582
478.0,1.628
479.0,1.619
480.0,1.624
481.0,1.655
482.0,1.665
483.0,1.646
484.0,1.614
485.0,1.539
486.0,1.346
487.0,1.412
488.0,1.551
489.0,1.558
490.0,1.64
491.0,1.613
492.0,1.525
493.0,1.577
494.0,1.594
495.0,1.609
496.0,1.621
497.0,1.648
498.0,1.572
499.0,1.594
500.0,1.55
501.0,1.524
502.0,1.505
503.0,1.57
504.0,1.536
505.0,1.589
506.0,1.642
507.0,1.563
508.0,1.515
509.0,1.558
510.0,1.55
511.0,1.592
512.0,1.611
513.0,1.526
514.0,1.516
515.0,1.502
516.0,1.5
517.0,1.334
518.0,1.404
519.0,1.474
520.0,1.529
521.0,1.545
522.0,1.548
523.0,1.521
524.0,1.577
525.0,1.598
526.0,1.528
527.0,1.442
528.0,1.527
529.0,1.611
530.0,1.589
531.0,1.614
532.0,1.56
533.0,1.516
534.0,1.561
535.0,1.596
536.0,1.611
537.0,1.548
538.0,1.577
539.0,1.564
540.0,1.501
541.0,1.513
542.0,1.562
543.0,1.546
544.0,1.574
545.0,1.57
546.0,1.579
547.0,1.579
548.0,1.56
549.0,1.566
550.0,1.585
551.0,1.567
552.0,1.579
553.0,1.552
554.0,1.59
555.0,1.594
556.0,1.575
557.0,1.527
558.0,1.517
559.0,1.49
560.0,1.51
561.0,1.531
562.0,1.521
563.0,1.565
564.0,1.523
565.0,1.512
566.0,1.491
567.0,1.521
568.0,1.51
569.0,1.479
570.0,1.478
571.0,1.469
572.0,1.508
573.0,1.525
574.0,1.521
575.0,1.495
576.0,1.482
577.0,1.498
578.0,1.475
579.0,1.48
580.0,1.506
581.0,1.513
582.0,1.54
583.0,1.543
584.0,1.556
585.0,1.518
586.0,1.488
587.0,1.522
588.0,1.491
589.0,1.331
590.0,1.391
591.0,1.467
592.0,1.453
593.0,1.471
594.0,1.463
595.0,1.431
596.0,1.48
597.0,1.466
598.0,1.461
599.0,1.462
600.0,1.463
601.0,1.45
602.0,1.44
603.0,1.464
604.0,1.488
605.0,1.481
606.0,1.475
607.0,1.489
608.0,1.472
609.0,1.475
610.0,1.464
611.0,1.472
612.0,1.467
613.0,1.449
614.0,1.429
615.0,1.46
616.0,1.412
617.0,1.409
618.0,1.464
619.0,1.449
620.0,1.459
621.0,1.461
622.0,1.445
623.0,1.424
624.0,1.4
625.0,1.397
626.0,1.418
627.0,1.436
628.0,1.362
629.0,1.41
630.0,1.379
631.0,1.403
632.0,1.386
633.0,1.426
634.0,1.41
635.0,1.431
636.0,1.411
637.0,1.434
638.0,1.447
639.0,1.43
640.0,1.416
641.0,1.415
642.0,1.408
643.0,1.427
644.0,1.422
645.0,1.425
646.0,1.395
647.0,1.384
648.0,1.386
649.0,1.36
650.0,1.36
651.0,1.418
652.0,1.367
653.0,1.4
654.0,1.384
655.0,1.337
656.0,1.182
657.0,1.214
658.0,1.359
659.0,1.368
660.0,1.373
661.0,1.383
662.0,1.388
663.0,1.36
664.0,1.375
665.0,1.375
666.0,1.375
667.0,1.374
668.0,1.374
669.0,1.395
670.0,1.389
671.0,1.388
672.0,1.377
673.0,1.397
674.0,1.392
675.0,1.379
676.0,1.389
677.0,1.375
678.0,1.379
679.0,1.357
680.0,1.368
681.0,1.359
682.0,1.358
683.0,1.355
684.0,1.349
685.0,1.36
686.0,1.353
687.0,0.9857
688.0,1.113
689.0,1.116
690.0,1.157
691.0,1.202
692.0,1.234
693.0,1.225
694.0,1.215
695.0,1.255
696.0,1.258
697.0,1.321
698.0,1.301
699.0,1.279
700.0,1.264
701.0,1.254
702.0,1.26
703.0,1.262
704.0,1.298
705.0,1.3
706.0,1.297
707.0,1.297
708.0,1.301
709.0,1.299
710.0,1.301
711.0,1.299
712.0,1.293
713.0,1.282
714.0,1.287
715.0,1.25
716.0,1.251
717.0,1.118
718.0,1.033
719.0,0.95
720.0,0.9973
721.0,1.081
722.0,1.215
723.0,1.143
724.0,1.043
725.0,1.031
726.0,1.076
727.0,1.085
728.0,1.03
729.0,1.057
730.0,1.118
731.0,1.074
732.0,1.136
733.0,1.191
734.0,1.216
735.0,1.193
736.0,1.191
737.0,1.197
738.0,1.208
739.0,1.184
740.0,1.213
741.0,1.2
742.0,1.2
743.0,1.23
744.0,1.226
745.0,1.226
746.0,1.231
747.0,1.234
748.0,1.232
749.0,1.218
750.0,1.217
751.0,1.205
752.0,1.21
753.0,1.216
754.0,1.219
755.0,1.213
756.0,1.212
757.0,1.214
758.0,1.199
759.0,1.18
760.0,0.288
761.0,0.1729
762.0,0.6935
763.0,0.4025
764.0,0.555
765.0,0.6942
766.0,0.809
767.0,0.9787
768.0,1.097
769.0,1.113
770.0,1.143
771.0,1.148
772.0,1.15
773.0,1.158
774.0,1.152
775.0,1.143
776.0,1.157
777.0,1.142
778.0,1.135
779.0,1.136
780.0,1.13
781.0,1.131
782.0,1.138
783.0,1.119
784.0,1.124
785.0,1.116
786.0,1.129
787.0,1.113
788.0,1.101
789.0,1.101
790.0,1.077
791.0,1.081
792.0,1.073
793.0,1.056
794.0,1.069
795.0,1.089
796.0,1.062
797.0,1.064
798.0,1.088
799.0,1.083
800.0,1.066
801.0,1.064
802.0,1.061
803.0,1.054
804.0,1.055
805.0,1.049
806.0,1.076
807.0,1.064
808.0,1.064
809.0,1.047
810.0,1.04
811.0,1.045
812.0,1.02
813.0,1.002
814.0,0.8975
815.0,0.8916
816.0,0.8325
817.0,0.8457
818.0,0.8178
819.0,0.9001
820.0,0.8534
821.0,0.9782
822.0,0.9536
823.0,0.6798
824.0,0.9325
825.0,0.9626
826.0,0.932
827.0,0.9774
828.0,0.8461
829.0,0.9254
830.0,0.9152
831.0,0.9178
832.0,0.893
833.0,0.941
834.0,0.9135
835.0,0.9913
836.0,0.9566
837.0,0.9938
838.0,0.9663
839.0,0.9782
840.0,0.9989
841.0,0.9862
842.0,0.9862
843.0,0.9835
844.0,0.9711
845.0,1.002
846.0,0.9976
847.0,0.9784
848.0,0.9734
849.0,0.9459
850.0,0.9062
851.0,0.9606
852.0,0.9534
853.0,0.917
854.0,0.7925
855.0,0.8697
856.0,0.951
857.0,0.9716
858.0,0.9648
859.0,0.9653
860.0,0.9668
861.0,0.9616
862.0,0.9767
863.0,0.9998
864.0,0.9498
865.0,0.9415
866.0,0.8466
867.0,0.8836
868.0,0.9615
869.0,0.9416
870.0,0.9685
871.0,0.9554
872.0,0.952
873.0,0.9502
874.0,0.9389
875.0,0.92
876.0,0.9297
877.0,0.9391
878.0,0.9495
879.0,0.935
880.0,0.915
881.0,0.9018
882.0,0.9215
883.0,0.924
884.0,0.92
885.0,0.927
886.0,0.8853
887.0,0.8934
888.0,0.9075
889.0,0.9164
890.0,0.9105
891.0,0.9081
892.0,0.8842
893.0,0.8595
894.0,0.8347
895.0,0.7956
896.0,0.7528
897.0,0.6562
898.0,0.7106
899.0,0.5523
900.0,0.7219
901.0,0.5784
902.0,0.6634
903.0,0.6749
904.0,0.8289
905.0,0.8035
906.0,0.7545
907.0,0.6272
908.0,0.6377
909.0,0.684
910.0,0.617
911.0,0.6504
912.0,0.6771
913.0,0.6268
914.0,0.6194
915.0,0.6702
916.0,0.5712
917.0,0.7113
918.0,0.586
919.0,0.7213
920.0,0.7227
921.0,0.7501
922.0,0.6793
923.0,0.7242
924.0,0.6967
925.0,0.6819
926.0,0.6893
927.0,0.7635
928.0,0.5837
929.0,0.5391
930.0,0.4339
931.0,0.4094
932.0,0.3052
933.0,0.2537
934.0,0.1511
935.0,0.255
936.0,0.1667
937.0,0.17
938.0,0.206
939.0,0.3969
940.0,0.4704
941.0,0.3647
942.0,0.4161
943.0,0.2813
944.0,0.2896
945.0,0.3744
946.0,0.2009
947.0,0.3787
948.0,0.28
949.0,0.4966
950.0,0.1543
951.0,0.4873
952.0,0.2755
953.0,0.3469
954.0,0.4155
955.0,0.3498
956.0,0.335
957.0,0.2773
958.0,0.4606
959.0,0.3765
960.0,0.4216
961.0,0.4652
962.0,0.4413
963.0,0.5016
964.0,0.462
965.0,0.499
966.0,0.5008
967.0,0.4994
968.0,0.6455
969.0,0.6759
970.0,0.6242
971.0,0.704
972.0,0.6755
973.0,0.5987
974.0,0.5699
975.0,0.5874
976.0,0.5633
977.0,0.6301
978.0,0.6032
979.0,0.6284
980.0,0.5931
981.0,0.6997
982.0,0.6729
983.0,0.6483
984.0,0.7169
985.0,0.6703
986.0,0.727
987.0,0.7156
988.0,0.7143
989.0,0.7234
990.0,0.7098
991.0,0.7259
992.0,0.7298
993.0,0.7163
994.0,0.7294
995.0,0.7281
996.0,0.7253
997.0,0.7262
998.0,0.723
999.0,0.7203
1000.0,0.7158
1001.0,0.7241
1002.0,0.7068
1003.0,0.7115
1004.0,0.6948
1005.0,0.6685
1006.0,0.6951
1007.0,0.7096
1008.0,0.7062
1009.0,0.703
1010.0,0.7003
1011.0,0.706
1012.0,0.7004
1013.0,0.7042
1014.0,0.6993
1015.0,0.6948
1016.0,0.6917
1017.0,0.6936
1018.0,0.6907
1019.0,0.677
1020.0,0.6873
1021.0,0.6862
1022.0,0.6812
1023.0,0.6886
1024.0,0.6806
1025.0,0.6878
1026.0,0.6851
1027.0,0.6835
1028.0,0.6822
1029.0,0.6742
1030.0,0.6785
1031.0,0.676
1032.0,0.6739
1033.0,0.6638
1034.0,0.6638
1035.0,0.6659
1036.0,0.6695
1037.0,0.6586
1038.0,0.6616
1039.0,0.6613
1040.0,0.6586
1041.0,0.6614
1042.0,0.6568
1043.0,0.6548
1044.0,0.6572
1045.0,0.6483
1046.0,0.6413
1047.0,0.6471
1048.0,0.6507
1049.0,0.6485
1050.0,0.6456
1051.0,0.6448
1052.0,0.6423
1053.0,0.6374
1054.0,0.6389
1055.0,0.6394
1056.0,0.6373
1057.0,0.6355
1058.0,0.62
1059.0,0.6209
1060.0,0.62
1061.0,0.6194
1062.0,0.6228
1063.0,0.6168
1064.0,0.6241
1065.0,0.62
1066.0,0.6074
1067.0,0.6154
1068.0,0.6022
1069.0,0.5835
1070.0,0.6036
1071.0,0.6121
1072.0,0.6057
1073.0,0.5968
1074.0,0.6113
1075.0,0.5834
1076.0,0.611
1077.0,0.6016
1078.0,0.5908
1079.0,0.6008
1080.0,0.5924
1081.0,0.5747
1082.0,0.5817
1083.0,0.5829
1084.0,0.5741
1085.0,0.5936
1086.0,0.546
1087.0,0.5604
1088.0,0.5829
1089.0,0.5676
1090.0,0.5569
1091.0,0.5817
1092.0,0.5797
1093.0,0.4995
1094.0,0.5314
1095.0,0.5192
1096.0,0.4996
1097.0,0.5662
1098.0,0.4926
1099.0,0.5126
1100.0,0.4802
1101.0,0.4851
1102.0,0.4655
1103.0,0.4626
1104.0,0.463
1105.0,0.5017
1106.0,0.3975
1107.0,0.4792
1108.0,0.4145
1109.0,0.4137
1110.0,0.4761
1111.0,0.3342
1112.0,0.4099
1113.0,0.2727
1114.0,0.3033
1115.0,0.2519
1116.0,0.2084
1117.0,0.08479
1118.0,0.224
1119.0,0.1176
1120.0,0.1482
1121.0,0.1926
1122.0,0.0867
1123.0,0.1337
1124.0,0.113
1125.0,0.1458
1126.0,0.05641
1127.0,0.164
1128.0,0.1042
1129.0,0.1096
1130.0,0.0748
1131.0,0.2967
1132.0,0.2355
1133.0,0.1568
1134.0,0.04485
1135.0,0.01659
1136.0,0.1335
1137.0,0.2937
1138.0,0.2087
1139.0,0.297
1140.0,0.2536
1141.0,0.1983
1142.0,0.2251
1143.0,0.3137
1144.0,0.1169
1145.0,0.151
1146.0,0.163
1147.0,0.06328
1148.0,0.2717
1149.0,0.2214
1150.0,0.1253
1151.0,0.2072
1152.0,0.2498
1153.0,0.2397
1154.0,0.1476
1155.0,0.3101
1156.0,0.282
1157.0,0.3124
1158.0,0.3089
1159.0,0.3295
1160.0,0.286
1161.0,0.344
1162.0,0.3464
1163.0,0.4536
1164.0,0.3944
1165.0,0.3769
1166.0,0.3709
1167.0,0.4014
1168.0,0.4068
1169.0,0.4146
1170.0,0.4465
1171.0,0.436
1172.0,0.4415
1173.0,0.4455
1174.0,0.3298
1175.0,0.4334
1176.0,0.4708
1177.0,0.4556
1178.0,0.3512
1179.0,0.4744
1180.0,0.4298
1181.0,0.4429
1182.0,0.3154
1183.0,0.4347
1184.0,0.4106
1185.0,0.3991
1186.0,0.4636
1187.0,0.4446
1188.0,0.3216
1189.0,0.4149
1190.0,0.4531
1191.0,0.4352
1192.0,0.4588
1193.0,0.4415
1194.0,0.4538
1195.0,0.4328
1196.0,0.4191
1197.0,0.4521
1198.0,0.4164
1199.0,0.3623
1200.0,0.4363
1201.0,0.4236
1202.0,0.4195
1203.0,0.4162
1204.0,0.3685
1205.0,0.4268
1206.0,0.467
1207.0,0.4192
1208.0,0.4102
1209.0,0.418
1210.0,0.4336
1211.0,0.4161
1212.0,0.4146
1213.0,0.4534
1214.0,0.4229
1215.0,0.4157
1216.0,0.4518
1217.0,0.4414
1218.0,0.4483
1219.0,0.4435
1220.0,0.4485
1221.0,0.4521
1222.0,0.4413
1223.0,0.4379
1224.0,0.4363
1225.0,0.4493
1226.0,0.4514
1227.0,0.4205
1228.0,0.4528
1229.0,0.4514
1230.0,0.4445
1231.0,0.4545
1232.0,0.4519
1233.0,0.4397
1234.0,0.4535
1235.0,0.4511
1236.0,0.454
1237.0,0.449
1238.0,0.4525
1239.0,0.4467
1240.0,0.4483
1241.0,0.4469
1242.0,0.4453
1243.0,0.4416
1244.0,0.445
1245.0,0.4468
1246.0,0.4441
1247.0,0.4426
1248.0,0.4427
1249.0,0.4438
1250.0,0.4413
1251.0,0.4362
1252.0,0.4356
1253.0,0.4332
1254.0,0.4298
1255.0,0.4355
1256.0,0.4253
1257.0,0.4234
1258.0,0.4297
1259.0,0.4174
1260.0,0.4192
1261.0,0.3997
1262.0,0.3899
1263.0,0.3908
1264.0,0.3658
1265.0,0.3882
1266.0,0.3765
1267.0,0.3811
1268.0,0.3647
1269.0,0.249
1270.0,0.3805
1271.0,0.3979
1272.0,0.3988
1273.0,0.395
1274.0,0.3957
1275.0,0.4006
1276.0,0.4037
1277.0,0.4055
1278.0,0.4116
1279.0,0.408
1280.0,0.4027
1281.0,0.3836
1282.0,0.3683
1283.0,0.3969
1284.0,0.4067
1285.0,0.4092
1286.0,0.414
1287.0,0.4089
1288.0,0.4085
1289.0,0.3981
1290.0,0.4047
1291.0,0.4099
1292.0,0.3899
1293.0,0.4031
1294.0,0.4006
1295.0,0.3998
1296.0,0.3848
1297.0,0.3665
1298.0,0.3896
1299.0,0.4032
1300.0,0.3498
1301.0,0.3588
1302.0,0.3881
1303.0,0.3443
1304.0,0.3017
1305.0,0.3808
1306.0,0.3814
1307.0,0.3054
1308.0,0.3436
1309.0,0.3791
1310.0,0.2999
1311.0,0.3312
1312.0,0.3235
1313.0,0.3185
1314.0,0.288
1315.0,0.2861
1316.0,0.3273
1317.0,0.311
1318.0,0.3347
1319.0,0.2711
1320.0,0.2606
1321.0,0.3003
1322.0,0.3047
1323.0,0.2371
1324.0,0.2659
1325.0,0.3231
1326.0,0.2823
1327.0,0.2705
1328.0,0.2358
1329.0,0.1837
1330.0,0.2358
1331.0,0.1504
1332.0,0.1525
1333.0,0.2102
1334.0,0.1746
1335.0,0.2362
1336.0,0.1908
1337.0,0.1712
1338.0,0.185
1339.0,0.1831
1340.0,0.176
1341.0,0.1765
1342.0,0.1851
1343.0,0.1354
1344.0,0.08078
1345.0,0.1154
1346.0,0.0642
1347.0,0.06644
1348.0,0.005753
1349.0,0.01896
1350.0,0.01853
1351.0,0.005822
1352.0,0.002046
1353.0,0.0001429
1354.0,0.0004059
1355.0,6.104e-06
1356.0,7.172e-05
1357.0,0.0001081
1358.0,7.051e-06
1359.0,1.401e-06
1360.0,3.796e-06
1361.0,1.139e-08
1362.0,4.884e-11
1363.0,5.742e-06
1364.0,2.501e-06
1365.0,2.876e-11
1366.0,2.217e-05
1367.0,8.592e-06
1368.0,6.279e-13
1369.0,9.666e-07
1370.0,5.767e-07
1371.0,4.22e-08
1372.0,4.749e-06
1373.0,6.942e-05
1374.0,0.0002603
1375.0,0.0004702
1376.0,0.0003615
1377.0,0.0001745
1378.0,0.001524
1379.0,7.434e-05
1380.0,0.000121
1381.0,3.676e-06
1382.0,4.516e-06
1383.0,8.288e-08
1384.0,1.175e-06
1385.0,3.471e-06
1386.0,4.577e-06
1387.0,0.000302
1388.0,6.265e-06
1389.0,0.0008185
1390.0,0.0007024
1391.0,0.0004951
1392.0,3.533e-05
1393.0,0.0001658
1394.0,0.0001191
1395.0,1.158e-06
1396.0,1.443e-08
1397.0,7.217e-05
1398.0,0.001742
1399.0,0.001106
1400.0,8.014e-09
1401.0,2.364e-08
1402.0,0.002333
1403.0,0.00308
1404.0,0.000961
1405.0,6.654e-07
1406.0,0.002712
1407.0,0.0002312
1408.0,0.002191
1409.0,0.0008612
1410.0,0.0006333
1411.0,0.002685
1412.0,0.003362
1413.0,0.02737
1414.0,0.0004913
1415.0,0.0002551
1416.0,0.0399
1417.0,0.01385
1418.0,0.01589
1419.0,0.002559
1420.0,0.0098
1421.0,0.01072
1422.0,0.05155
1423.0,0.01049
1424.0,0.01922
1425.0,0.02887
1426.0,0.03119
1427.0,0.0537
1428.0,0.005519
1429.0,0.04175
1430.0,0.06724
1431.0,0.07288
1432.0,0.004397
1433.0,0.04775
1434.0,0.02499
1435.0,0.02736
1436.0,0.049
1437.0,0.03757
1438.0,0.01693
1439.0,0.06496
1440.0,0.04887
1441.0,0.03902
1442.0,0.0429
1443.0,0.05117
1444.0,0.06973
1445.0,0.05671
1446.0,0.02618
1447.0,0.04118
1448.0,0.1239
1449.0,0.1097
1450.0,0.03046
1451.0,0.01278
1452.0,0.06804
1453.0,0.0881
1454.0,0.1439
1455.0,0.07059
1456.0,0.09598
1457.0,0.1244
1458.0,0.1426
1459.0,0.1693
1460.0,0.09036
1461.0,0.09616
1462.0,0.1375
1463.0,0.04682
1464.0,0.1596
1465.0,0.09682
1466.0,0.07129
1467.0,0.03951
1468.0,0.08289
