interpolation:linear
wavelength,value
280.0,7.720999999999999e-29
280.5,5.242e-27
281.0,3.732e-26
281.5,2.401e-24
282.0,2.967e-23
282.5,1.5309999999999998e-22
283.0,9.355e-22
283.5,2.074e-21
284.0,1.117e-19
284.5,5.391e-19
285.0,1.815e-18
285.5,2.138e-17
286.0,1.192e-16
286.5,9.743e-16
287.0,4.255e-15
287.5,2.745e-14
288.0,1.901e-13
288.5,9.481e-13
289.0,4.015e-12
289.5,1.931e-11
290.0,7.727e-11
290.5,2.129e-10
291.0,6.452e-10
291.5,2.809e-09
292.0,8.946e-09
292.5,1.531e-08
293.0,4.183e-08
293.5,1.395e-07
294.0,2.724e-07
294.5,5.385e-07
295.0,1.096e-06
295.5,3.172e-06
296.0,6.449e-06
296.5,9.433e-06
297.0,1.32e-05
297.5,3.67e-05
298.0,5.925e-05
298.5,6.054e-05
299.0,0.0001349
299.5,0.0002241
300.0,0.0002462
300.5,0.0003545
301.0,0.0006256
301.5,0.0009668
302.0,0.0008155
302.5,0.001622
303.0,0.002963
303.5,0.003755
304.0,0.003509
304.5,0.00508
305.0,0.007329
305.5,0.008145
306.0,0.00783
306.5,0.009581
307.0,0.01351
307.5,0.01709
308.0,0.01803
308.5,0.02085
309.0,0.01879
309.5,0.02161
310.0,0.02179
310.5,0.03549
311.0,0.04465
311.5,0.04333
312.0,0.04295
312.5,0.05197
313.0,0.05636
313.5,0.05555
314.0,0.06869
314.5,0.05966
315.0,0.07855
315.5,0.06716
316.0,0.05764
316.5,0.08141
317.0,0.1018
317.5,0.1074
318.0,0.083
318.5,0.1002
319.0,0.1176
319.5,0.09934
320.0,0.1213
320.5,0.1473
321.0,0.1274
321.5,0.1225
322.0,0.1366
322.5,0.1193
323.0,0.1167
323.5,0.138
324.0,0.1614
324.5,0.1667
325.0,0.1498
325.5,0.1898
326.0,0.2275
326.5,0.2258
327.0,0.2277
327.5,0.2228
328.0,0.2033
328.5,0.2101
329.0,0.248
329.5,0.2814
330.0,0.287
330.5,0.2346
331.0,0.2416
331.5,0.2442
332.0,0.2608
332.5,0.2573
333.0,0.2592
333.5,0.2389
334.0,0.2466
334.5,0.2819
335.0,0.264
335.5,0.3011
336.0,0.2093
336.5,0.2549
337.0,0.2116
337.5,0.2651
338.0,0.257
338.5,0.2913
339.0,0.2915
339.5,0.2806
340.0,0.3384
340.5,0.3061
341.0,0.295
341.5,0.2747
342.0,0.3305
342.5,0.3112
343.0,0.3423
343.5,0.3226
344.0,0.2424
344.5,0.2409
345.0,0.3241
345.5,0.3336
346.0,0.2854
346.5,0.325
347.0,0.3492
347.5,0.2832
348.0,0.3256
348.5,0.3275
349.0,0.3053
349.5,0.3035
350.0,0.377
350.5,0.3993
351.0,0.3576
351.5,0.3471
352.0,0.3757
352.5,0.295
353.0,0.3735
353.5,0.4012
354.0,0.4183
354.5,0.4259
355.0,0.4259
355.5,0.3864
356.0,0.4059
356.5,0.3479
357.0,0.2885
357.5,0.3546
358.0,0.2821
358.5,0.242
359.0,0.3397
359.5,0.4341
360.0,0.4619
360.5,0.3707
361.0,0.3392
361.5,0.3919
362.0,0.34
362.5,0.4722
363.0,0.4255
363.5,0.3933
364.0,0.4826
364.5,0.4138
365.0,0.4229
365.5,0.5325
366.0,0.566
366.5,0.5335
367.0,0.5213
367.5,0.5427
368.0,0.4764
368.5,0.4822
369.0,0.5224
369.5,0.5585
370.0,0.5972
370.5,0.4649
371.0,0.4983
371.5,0.6253
372.0,0.4163
372.5,0.5006
373.0,0.5107
373.5,0.3333
374.0,0.4856
374.5,0.4034
375.0,0.3932
375.5,0.5888
376.0,0.4895
376.5,0.5087
377.0,0.54
377.5,0.6336
378.0,0.6887
378.5,0.6529
379.0,0.5404
379.5,0.495
380.0,0.5161
380.5,0.6269
381.0,0.63
381.5,0.5008
382.0,0.4459
382.5,0.3812
383.0,0.3538
383.5,0.3417
384.0,0.3779
384.5,0.5572
385.0,0.5539
385.5,0.5172
386.0,0.4441
386.5,0.5848
387.0,0.4872
387.5,0.5486
388.0,0.5077
388.5,0.5031
389.0,0.5444
389.5,0.661
390.0,0.665
390.5,0.6135
391.0,0.7238
391.5,0.7401
392.0,0.6248
392.5,0.5607
393.0,0.3127
393.5,0.2278
394.0,0.4646
394.5,0.5919
395.0,0.7239
395.5,0.737
396.0,0.6404
396.5,0.3752
397.0,0.2822
397.5,0.5751
398.0,0.8072
398.5,0.836
399.0,0.9071
399.5,0.906
400.0,0.9427
401.0,0.972
402.0,1.03
403.0,0.9818
404.0,0.9703
405.0,0.9738
406.0,0.9615
407.0,0.9495
408.0,0.9902
409.0,1.063
410.0,0.9322
411.0,1.013
412.0,1.092
413.0,1.068
414.0,1.085
415.0,1.091
416.0,1.114
417.0,1.09
418.0,1.073
419.0,1.091
420.0,1.089
421.0,1.143
422.0,1.09
423.0,1.068
424.0,1.133
425.0,1.134
426.0,1.108
427.0,1.09
428.0,1.065
429.0,1.011
430.0,0.887
431.0,0.8817
432.0,1.141
433.0,1.151
434.0,1.071
435.0,1.122
436.0,1.267
437.0,1.252
438.0,1.143
439.0,1.185
440.0,1.226
441.0,1.273
442.0,1.369
443.0,1.336
444.0,1.368
445.0,1.342
446.0,1.283
447.0,1.39
448.0,1.415
449.0,1.423
450.0,1.466
451.0,1.524
452.0,1.471
453.0,1.386
454.0,1.45
455.0,1.462
456.0,1.499
457.0,1.527
458.0,1.478
459.0,1.474
460.0,1.481
461.0,1.517
462.0,1.532
463.0,1.524
464.0,1.5
465.0,1.484
466.0,1.5
467.0,1.476
468.0,1.496
469.0,1.507
470.0,1.461
471.0,1.461
472.0,1.542
473.0,1.525
474.0,1.53
475.0,1.546
476.0,1.503
477.0,1.51
478.0,1.554
479.0,1.547
480.0,1.552
481.0,1.583
482.0,1.594
483.0,1.576
484.0,1.546
485.0,1.475
486.0,1.291
487.0,1.354
488.0,1.488
489.0,1.495
490.0,1.574
491.0,1.549
492.0,1.465
493.0,1.515
494.0,1.532
495.0,1.547
496.0,1.558
497.0,1.585
498.0,1.512
499.0,1.534
500.0,1.492
501.0,1.466
502.0,1.448
503.0,1.51
504.0,1.475
505.0,1.528
506.0,1.579
507.0,1.504
508.0,1.459
509.0,1.501
510.0,1.494
511.0,1.535
512.0,1.553
513.0,1.472
514.0,1.463
515.0,1.45
516.0,1.448
517.0,1.288
518.0,1.355
519.0,1.423
520.0,1.476
521.0,1.492
522.0,1.495
523.0,1.47
524.0,1.524
525.0,1.544
526.0,1.476
527.0,1.393
528.0,1.475
529.0,1.556
530.0,1.535
531.0,1.559
532.0,1.507
533.0,1.464
534.0,1.509
535.0,1.543
536.0,1.558
537.0,1.498
538.0,1.525
539.0,1.513
540.0,1.452
541.0,1.463
542.0,1.511
543.0,1.496
544.0,1.523
545.0,1.519
546.0,1.527
547.0,1.528
548.0,1.51
549.0,1.516
550.0,1.535
551.0,1.517
552.0,1.529
553.0,1.503
554.0,1.54
555.0,1.544
556.0,1.525
557.0,1.479
558.0,1.469
559.0,1.443
560.0,1.462
561.0,1.483
562.0,1.473
563.0,1.515
564.0,1.475
565.0,1.463
566.0,1.443
567.0,1.472
568.0,1.46
569.0,1.428
570.0,1.428
571.0,1.42
572.0,1.456
573.0,1.472
574.0,1.469
575.0,1.442
576.0,1.43
577.0,1.446
578.0,1.425
579.0,1.43
580.0,1.457
581.0,1.465
582.0,1.493
583.0,1.497
584.0,1.51
585.0,1.473
586.0,1.444
587.0,1.477
588.0,1.444
589.0,1.283
590.0,1.342
591.0,1.419
592.0,1.403
593.0,1.423
594.0,1.414
595.0,1.381
596.0,1.434
597.0,1.419
598.0,1.416
599.0,1.417
600.0,1.419
601.0,1.408
602.0,1.399
603.0,1.422
604.0,1.446
605.0,1.439
606.0,1.434
607.0,1.448
608.0,1.432
609.0,1.435
610.0,1.425
611.0,1.433
612.0,1.429
613.0,1.412
614.0,1.393
615.0,1.423
616.0,1.377
617.0,1.374
618.0,1.427
619.0,1.413
620.0,1.423
621.0,1.425
622.0,1.409
623.0,1.388
624.0,1.365
625.0,1.362
626.0,1.383
627.0,1.399
628.0,1.315
629.0,1.37
630.0,1.339
631.0,1.367
632.0,1.351
633.0,1.391
634.0,1.377
635.0,1.399
636.0,1.38
637.0,1.403
638.0,1.416
639.0,1.401
640.0,1.387
641.0,1.387
642.0,1.38
643.0,1.399
644.0,1.395
645.0,1.398
646.0,1.366
647.0,1.353
648.0,1.355
649.0,1.329
650.0,1.333
651.0,1.391
652.0,1.336
653.0,1.373
654.0,1.358
655.0,1.309
656.0,1.16
657.0,1.191
658.0,1.334
659.0,1.344
660.0,1.35
661.0,1.36
662.0,1.363
663.0,1.336
664.0,1.352
665.0,1.353
666.0,1.354
667.0,1.353
668.0,1.353
669.0,1.374
670.0,1.369
671.0,1.369
672.0,1.357
673.0,1.378
674.0,1.373
675.0,1.361
676.0,1.37
677.0,1.357
678.0,1.361
679.0,1.339
680.0,1.35
681.0,1.341
682.0,1.34
683.0,1.338
684.0,1.331
685.0,1.343
686.0,1.335
687.0,0.9186
688.0,1.062
689.0,1.065
690.0,1.113
691.0,1.165
692.0,1.204
693.0,1.194
694.0,1.185
695.0,1.23
696.0,1.232
697.0,1.303
698.0,1.283
699.0,1.256
700.0,1.241
701.0,1.23
702.0,1.237
703.0,1.24
704.0,1.278
705.0,1.28
706.0,1.278
707.0,1.279
708.0,1.282
709.0,1.283
710.0,1.284
711.0,1.282
712.0,1.278
713.0,1.266
714.0,1.271
715.0,1.232
716.0,1.233
717.0,1.082
718.0,0.9959
719.0,0.9138
720.0,0.9581
721.0,1.051
722.0,1.194
723.0,1.116
724.0,1.011
725.0,0.996
726.0,1.042
727.0,1.054
728.0,0.9945
729.0,1.028
730.0,1.088
731.0,1.042
732.0,1.11
733.0,1.171
734.0,1.198
735.0,1.174
736.0,1.173
737.0,1.178
738.0,1.193
739.0,1.17
740.0,1.2
741.0,1.188
742.0,1.189
743.0,1.219
744.0,1.215
745.0,1.216
746.0,1.221
747.0,1.224
748.0,1.222
749.0,1.208
750.0,1.207
751.0,1.195
752.0,1.201
753.0,1.207
754.0,1.21
755.0,1.203
756.0,1.203
757.0,1.205
758.0,1.19
759.0,1.168
760.0,0.2228
761.0,0.1225
762.0,0.628
763.0,0.3304
764.0,0.4822
765.0,0.6284
766.0,0.7577
767.0,0.9422
768.0,1.076
769.0,1.097
770.0,1.131
771.0,1.139
772.0,1.141
773.0,1.15
774.0,1.144
775.0,1.135
776.0,1.149
777.0,1.134
778.0,1.128
779.0,1.129
780.0,1.123
781.0,1.124
782.0,1.131
783.0,1.111
784.0,1.117
785.0,1.109
786.0,1.121
787.0,1.103
788.0,1.09
789.0,1.09
790.0,1.063
791.0,1.071
792.0,1.063
793.0,1.046
794.0,1.062
795.0,1.08
796.0,1.05
797.0,1.051
798.0,1.08
799.0,1.073
800.0,1.056
801.0,1.053
802.0,1.05
803.0,1.042
804.0,1.044
805.0,1.04
806.0,1.068
807.0,1.056
808.0,1.057
809.0,1.038
810.0,1.03
811.0,1.033
812.0,1.005
813.0,0.9849
814.0,0.872
815.0,0.8666
816.0,0.8076
817.0,0.8218
818.0,0.7923
819.0,0.8811
820.0,0.8318
821.0,0.9658
822.0,0.9394
823.0,0.6492
824.0,0.9144
825.0,0.9498
826.0,0.9158
827.0,0.9644
828.0,0.8236
829.0,0.9101
830.0,0.8989
831.0,0.9019
832.0,0.8754
833.0,0.9285
834.0,0.8976
835.0,0.9821
836.0,0.9427
837.0,0.9849
838.0,0.9554
839.0,0.97
840.0,0.991
841.0,0.9775
842.0,0.979
843.0,0.9779
844.0,0.9647
845.0,0.9969
846.0,0.9925
847.0,0.9739
848.0,0.9683
849.0,0.9408
850.0,0.9014
851.0,0.9548
852.0,0.9481
853.0,0.9124
854.0,0.7881
855.0,0.8656
856.0,0.9462
857.0,0.9672
858.0,0.9602
859.0,0.961
860.0,0.9627
861.0,0.9576
862.0,0.9726
863.0,0.9957
864.0,0.946
865.0,0.9378
866.0,0.8433
867.0,0.8801
868.0,0.9578
869.0,0.938
870.0,0.9648
871.0,0.9517
872.0,0.9484
873.0,0.9466
874.0,0.9354
875.0,0.9165
876.0,0.9262
877.0,0.9356
878.0,0.9459
879.0,0.9314
880.0,0.9115
881.0,0.898
882.0,0.9175
883.0,0.9204
884.0,0.9163
885.0,0.9233
886.0,0.8805
887.0,0.8895
888.0,0.9029
889.0,0.9129
890.0,0.9057
891.0,0.9041
892.0,0.8786
893.0,0.8518
894.0,0.8233
895.0,0.7797
896.0,0.7353
897.0,0.6339
898.0,0.6905
899.0,0.528
900.0,0.7058
901.0,0.5534
902.0,0.6459
903.0,0.6535
904.0,0.8176
905.0,0.7903
906.0,0.7403
907.0,0.6048
908.0,0.6163
909.0,0.6662
910.0,0.5919
911.0,0.6292
912.0,0.6573
913.0,0.6009
914.0,0.5954
915.0,0.6451
916.0,0.547
917.0,0.6912
918.0,0.5609
919.0,0.7032
920.0,0.7091
921.0,0.7372
922.0,0.6609
923.0,0.7121
924.0,0.6776
925.0,0.663
926.0,0.6702
927.0,0.7486
928.0,0.554
929.0,0.5069
930.0,0.4001
931.0,0.3789
932.0,0.2745
933.0,0.2239
934.0,0.1244
935.0,0.2286
936.0,0.1437
937.0,0.1458
938.0,0.1789
939.0,0.3673
940.0,0.4407
941.0,0.3341
942.0,0.386
943.0,0.255
944.0,0.2677
945.0,0.3443
946.0,0.1766
947.0,0.3462
948.0,0.2546
949.0,0.4621
950.0,0.1304
951.0,0.4549
952.0,0.2461
953.0,0.3168
954.0,0.3872
955.0,0.3203
956.0,0.3104
957.0,0.2467
958.0,0.4382
959.0,0.3494
960.0,0.3916
961.0,0.4385
962.0,0.415
963.0,0.4776
964.0,0.4379
965.0,0.4758
966.0,0.4761
967.0,0.4742
968.0,0.6327
969.0,0.6611
970.0,0.6076
971.0,0.6942
972.0,0.6644
973.0,0.5798
974.0,0.5505
975.0,0.571
976.0,0.5429
977.0,0.6164
978.0,0.5862
979.0,0.6136
980.0,0.5772
981.0,0.6904
982.0,0.6607
983.0,0.6346
984.0,0.711
985.0,0.6583
986.0,0.7232
987.0,0.7095
988.0,0.7082
989.0,0.7209
990.0,0.704
991.0,0.7232
992.0,0.7274
993.0,0.7115
994.0,0.7272
995.0,0.7263
996.0,0.7231
997.0,0.7242
998.0,0.7208
999.0,0.7182
1000.0,0.7132
1001.0,0.7221
1002.0,0.7025
1003.0,0.7094
1004.0,0.6922
1005.0,0.6668
1006.0,0.6929
1007.0,0.7076
1008.0,0.7038
1009.0,0.7001
1010.0,0.6972
1011.0,0.7041
1012.0,0.6981
1013.0,0.7024
1014.0,0.6975
1015.0,0.693
1016.0,0.6899
1017.0,0.6917
1018.0,0.6891
1019.0,0.6745
1020.0,0.6855
1021.0,0.6846
1022.0,0.6793
1023.0,0.6865
1024.0,0.6777
1025.0,0.6861
1026.0,0.6832
1027.0,0.6817
1028.0,0.6803
1029.0,0.6723
1030.0,0.6769
1031.0,0.6742
1032.0,0.6722
1033.0,0.6621
1034.0,0.6622
1035.0,0.6643
1036.0,0.6678
1037.0,0.6569
1038.0,0.6599
1039.0,0.6595
1040.0,0.6569
1041.0,0.6595
1042.0,0.655
1043.0,0.6529
1044.0,0.6552
1045.0,0.6464
1046.0,0.6393
1047.0,0.645
1048.0,0.6486
1049.0,0.6463
1050.0,0.6434
1051.0,0.6425
1052.0,0.6399
1053.0,0.6349
1054.0,0.6363
1055.0,0.6367
1056.0,0.6345
1057.0,0.6325
1058.0,0.617
1059.0,0.6177
1060.0,0.6168
1061.0,0.6161
1062.0,0.6193
1063.0,0.6133
1064.0,0.6205
1065.0,0.6161
1066.0,0.604
1067.0,0.6118
1068.0,0.5985
1069.0,0.58
1070.0,0.5997
1071.0,0.609
1072.0,0.602
1073.0,0.5934
1074.0,0.6086
1075.0,0.5784
1076.0,0.6082
1077.0,0.5975
1078.0,0.5862
1079.0,0.5985
1080.0,0.5883
1081.0,0.5696
1082.0,0.5785
1083.0,0.5803
1084.0,0.5683
1085.0,0.5897
1086.0,0.5386
1087.0,0.5556
1088.0,0.5798
1089.0,0.5623
1090.0,0.5501
1091.0,0.578
1092.0,0.5765
1093.0,0.4897
1094.0,0.5276
1095.0,0.5101
1096.0,0.4886
1097.0,0.5632
1098.0,0.4811
1099.0,0.5018
1100.0,0.4668
1101.0,0.4726
1102.0,0.4516
1103.0,0.4473
1104.0,0.4479
1105.0,0.4904
1106.0,0.3765
1107.0,0.4661
1108.0,0.3959
1109.0,0.3965
1110.0,0.4621
1111.0,0.3146
1112.0,0.3934
1113.0,0.2515
1114.0,0.281
1115.0,0.233
1116.0,0.1866
1117.0,0.06908
1118.0,0.2028
1119.0,0.1011
1120.0,0.1273
1121.0,0.1686
1122.0,0.07131
1123.0,0.115
1124.0,0.09708
1125.0,0.1265
1126.0,0.04436
1127.0,0.1427
1128.0,0.08571
1129.0,0.09091
1130.0,0.05994
1131.0,0.2698
1132.0,0.2118
1133.0,0.1347
1134.0,0.03465
1135.0,0.01298
1136.0,0.1125
1137.0,0.2652
1138.0,0.1869
1139.0,0.2779
1140.0,0.2326
1141.0,0.1777
1142.0,0.2042
1143.0,0.2896
1144.0,0.1016
1145.0,0.1299
1146.0,0.1401
1147.0,0.04959
1148.0,0.2507
1149.0,0.2004
1150.0,0.1093
1151.0,0.1855
1152.0,0.2281
1153.0,0.222
1154.0,0.126
1155.0,0.29
1156.0,0.2614
1157.0,0.2929
1158.0,0.2897
1159.0,0.3122
1160.0,0.2672
1161.0,0.3283
1162.0,0.33
1163.0,0.4437
1164.0,0.3814
1165.0,0.3606
1166.0,0.3575
1167.0,0.389
1168.0,0.3935
1169.0,0.4025
1170.0,0.4367
1171.0,0.426
1172.0,0.4332
1173.0,0.4359
1174.0,0.3135
1175.0,0.4254
1176.0,0.4665
1177.0,0.4486
1178.0,0.3388
1179.0,0.4702
1180.0,0.4211
1181.0,0.4344
1182.0,0.3018
1183.0,0.4275
1184.0,0.4013
1185.0,0.3879
1186.0,0.4577
1187.0,0.4367
1188.0,0.3072
1189.0,0.407
1190.0,0.4474
1191.0,0.426
1192.0,0.4535
1193.0,0.435
1194.0,0.4481
1195.0,0.4247
1196.0,0.4096
1197.0,0.4479
1198.0,0.4104
1199.0,0.3512
1200.0,0.4297
1201.0,0.4151
1202.0,0.4123
1203.0,0.4089
1204.0,0.3587
1205.0,0.4213
1206.0,0.4642
1207.0,0.4115
1208.0,0.4044
1209.0,0.4125
1210.0,0.4293
1211.0,0.4097
1212.0,0.4057
1213.0,0.4494
1214.0,0.415
1215.0,0.4073
1216.0,0.448
1217.0,0.4366
1218.0,0.4444
1219.0,0.4391
1220.0,0.4448
1221.0,0.449
1222.0,0.4376
1223.0,0.4337
1224.0,0.4314
1225.0,0.4462
1226.0,0.4489
1227.0,0.4153
1228.0,0.4509
1229.0,0.449
1230.0,0.4415
1231.0,0.4533
1232.0,0.4507
1233.0,0.4362
1234.0,0.4528
1235.0,0.45
1236.0,0.4532
1237.0,0.4473
1238.0,0.4517
1239.0,0.4459
1240.0,0.4476
1241.0,0.4457
1242.0,0.4445
1243.0,0.4409
1244.0,0.4441
1245.0,0.446
1246.0,0.4434
1247.0,0.4417
1248.0,0.4416
1249.0,0.4428
1250.0,0.4402
1251.0,0.4347
1252.0,0.4346
1253.0,0.4315
1254.0,0.4274
1255.0,0.4343
1256.0,0.4227
1257.0,0.4205
1258.0,0.4279
1259.0,0.4134
1260.0,0.4154
1261.0,0.3933
1262.0,0.3821
1263.0,0.3829
1264.0,0.3548
1265.0,0.3804
1266.0,0.3669
1267.0,0.3728
1268.0,0.3544
1269.0,0.226
1270.0,0.3716
1271.0,0.3919
1272.0,0.393
1273.0,0.389
1274.0,0.3901
1275.0,0.3955
1276.0,0.3991
1277.0,0.4015
1278.0,0.4087
1279.0,0.4051
1280.0,0.3999
1281.0,0.3814
1282.0,0.3671
1283.0,0.3955
1284.0,0.405
1285.0,0.4077
1286.0,0.4129
1287.0,0.407
1288.0,0.4068
1289.0,0.3946
1290.0,0.4031
1291.0,0.4086
1292.0,0.3853
1293.0,0.401
1294.0,0.3983
1295.0,0.3967
1296.0,0.3797
1297.0,0.3598
1298.0,0.3859
1299.0,0.4014
1300.0,0.3421
1301.0,0.3522
1302.0,0.3846
1303.0,0.3374
1304.0,0.2899
1305.0,0.3769
1306.0,0.3771
1307.0,0.2954
1308.0,0.3376
1309.0,0.3744
1310.0,0.2899
1311.0,0.3242
1312.0,0.3157
1313.0,0.31
1314.0,0.2782
1315.0,0.275
1316.0,0.3194
1317.0,0.3028
1318.0,0.3283
1319.0,0.2589
1320.0,0.2504
1321.0,0.2908
1322.0,0.2941
1323.0,0.2231
1324.0,0.254
1325.0,0.315
1326.0,0.2715
1327.0,0.2593
1328.0,0.2241
1329.0,0.1697
1330.0,0.2203
1331.0,0.1345
1332.0,0.1384
1333.0,0.1923
1334.0,0.1621
1335.0,0.2223
1336.0,0.1766
1337.0,0.1566
1338.0,0.1694
1339.0,0.1685
1340.0,0.1635
1341.0,0.1605
1342.0,0.1685
1343.0,0.1158
1344.0,0.06928
1345.0,0.0998
1346.0,0.05062
1347.0,0.05165
1348.0,0.003544
1349.0,0.01253
1350.0,0.01287
1351.0,0.003292
1352.0,0.0009409
1353.0,5.112e-05
1354.0,0.0001692
1355.0,1.554e-06
1356.0,2.51e-05
1357.0,3.818e-05
1358.0,1.831e-06
1359.0,2.548e-07
1360.0,8.68e-07
1361.0,1.195e-09
1362.0,3.582e-12
1363.0,1.211e-06
1364.0,5.045e-07
1365.0,1.41e-12
1366.0,5.16e-06
1367.0,2.078e-06
1368.0,1.368e-14
1369.0,1.897e-07
1370.0,9.756e-08
1371.0,5.834e-09
1372.0,1.144e-06
1373.0,2.163e-05
1374.0,9.62e-05
1375.0,0.0001753
1376.0,0.0001519
1377.0,7.031e-05
1378.0,0.0006754
1379.0,2.96e-05
1380.0,4.384e-05
1381.0,1.178e-06
1382.0,1.044e-06
1383.0,1.625e-08
1384.0,2.182e-07
1385.0,9.429e-07
1386.0,9.576e-07
1387.0,0.0001026
1388.0,2.03e-06
1389.0,0.0003317
1390.0,0.0002857
1391.0,0.0001924
1392.0,1.271e-05
1393.0,6.586e-05
1394.0,3.658e-05
1395.0,2.835e-07
1396.0,1.676e-09
1397.0,2.671e-05
1398.0,0.0007625
1399.0,0.0004833
1400.0,7.649e-10
1401.0,2.957e-09
1402.0,0.00127
1403.0,0.001613
1404.0,0.0004941
1405.0,1.43e-07
1406.0,0.001309
1407.0,0.0001142
1408.0,0.001068
1409.0,0.0003696
1410.0,0.0002903
1411.0,0.001416
1412.0,0.001884
1413.0,0.01871
1414.0,0.0002282
1415.0,0.0001111
1416.0,0.03028
1417.0,0.009257
1418.0,0.01056
1419.0,0.001643
1420.0,0.006464
1421.0,0.006991
1422.0,0.03951
1423.0,0.007676
1424.0,0.01437
1425.0,0.02118
1426.0,0.02399
1427.0,0.04404
1428.0,0.003344
1429.0,0.03295
1430.0,0.05615
1431.0,0.06168
1432.0,0.002635
1433.0,0.03921
1434.0,0.01993
1435.0,0.01986
1436.0,0.03843
1437.0,0.02945
1438.0,0.01241
1439.0,0.05233
1440.0,0.03919
1441.0,0.02978
1442.0,0.03305
1443.0,0.04165
1444.0,0.05781
1445.0,0.04506
1446.0,0.02021
1447.0,0.03188
1448.0,0.1094
1449.0,0.09477
1450.0,0.02365
1451.0,0.009452
1452.0,0.05678
1453.0,0.07473
1454.0,0.1297
1455.0,0.06063
1456.0,0.08132
1457.0,0.1099
1458.0,0.1304
1459.0,0.1541
1460.0,0.0798
1461.0,0.08293
1462.0,0.1224
1463.0,0.03907
1464.0,0.1459
