interpolation:linear
wavelength,value
280.0,1.0860000000000001e-26
280.5,5.385e-25
281.0,3.418e-24
281.5,1.622e-22
282.0,1.6660000000000001e-21
282.5,7.591e-21
283.0,4.045e-20
283.5,8.377000000000001e-20
284.0,3.285e-18
284.5,1.372e-17
285.0,3.95e-17
285.5,3.87e-16
286.0,2.002e-15
286.5,1.404e-14
287.0,5.478e-14
287.5,3.047e-13
288.0,1.751e-12
288.5,7.908e-12
289.0,3.023e-11
289.5,1.299e-10
290.0,4.742e-10
290.5,1.21e-09
291.0,3.342e-09
291.5,1.293e-08
292.0,3.74e-08
292.5,6.063e-08
293.0,1.546e-07
293.5,4.69e-07
294.0,8.592e-07
294.5,1.618e-06
295.0,3.1e-06
295.5,8.326e-06
296.0,1.608e-05
296.5,2.24e-05
297.0,3.016e-05
297.5,7.944e-05
298.0,0.0001228
298.5,0.0001214
299.0,0.0002626
299.5,0.0004155
300.0,0.0004451
300.5,0.0006251
301.0,0.001064
301.5,0.001598
302.0,0.001329
302.5,0.002579
303.0,0.004568
303.5,0.005688
304.0,0.00527
304.5,0.007478
305.0,0.01051
305.5,0.01149
306.0,0.01098
306.5,0.0133
307.0,0.01839
307.5,0.02285
308.0,0.02402
308.5,0.02753
309.0,0.02465
309.5,0.02783
310.0,0.02782
310.5,0.0451
311.0,0.05635
311.5,0.05449
312.0,0.0533
312.5,0.06393
313.0,0.06901
313.5,0.0682
314.0,0.08351
314.5,0.07167
315.0,0.0941
315.5,0.08081
316.0,0.06869
316.5,0.09627
317.0,0.1203
317.5,0.1271
318.0,0.09765
318.5,0.1169
319.0,0.1364
319.5,0.1159
320.0,0.1416
320.5,0.1704
321.0,0.1463
321.5,0.1404
322.0,0.1575
322.5,0.1375
323.0,0.1337
323.5,0.1568
324.0,0.1831
324.5,0.1894
325.0,0.171
325.5,0.2157
326.0,0.2572
326.5,0.2543
327.0,0.2565
327.5,0.2512
328.0,0.23
328.5,0.2363
329.0,0.2778
329.5,0.3147
330.0,0.321
330.5,0.2629
331.0,0.2708
331.5,0.273
332.0,0.2905
332.5,0.2861
333.0,0.2883
333.5,0.2661
334.0,0.2745
334.5,0.313
335.0,0.2926
335.5,0.3333
336.0,0.2316
336.5,0.2821
337.0,0.2342
337.5,0.2933
338.0,0.2837
338.5,0.3213
339.0,0.3212
339.5,0.3091
340.0,0.3727
340.5,0.337
341.0,0.3243
341.5,0.3017
342.0,0.3628
342.5,0.3414
343.0,0.3754
343.5,0.3536
344.0,0.2658
344.5,0.2639
345.0,0.3546
345.5,0.3648
346.0,0.3119
346.5,0.3549
347.0,0.3812
347.5,0.309
348.0,0.355
348.5,0.3569
349.0,0.3326
349.5,0.3303
350.0,0.4102
350.5,0.4342
351.0,0.3887
351.5,0.3772
352.0,0.408
352.5,0.3202
353.0,0.4051
353.5,0.435
354.0,0.4534
354.5,0.4614
355.0,0.4613
355.5,0.4182
356.0,0.4391
356.5,0.3762
357.0,0.3119
357.5,0.3832
358.0,0.3047
358.5,0.2613
359.0,0.3666
359.5,0.4684
360.0,0.4982
360.5,0.3996
361.0,0.3655
361.5,0.4221
362.0,0.366
362.5,0.508
363.0,0.4575
363.5,0.4226
364.0,0.5184
364.5,0.4444
365.0,0.4539
365.5,0.5713
366.0,0.607
366.5,0.5719
367.0,0.5586
367.5,0.5813
368.0,0.5101
368.5,0.5161
369.0,0.5589
369.5,0.5973
370.0,0.6385
370.5,0.4969
371.0,0.5323
371.5,0.6678
372.0,0.4444
372.5,0.5343
373.0,0.5448
373.5,0.3554
374.0,0.5177
374.5,0.4298
375.0,0.4189
375.5,0.627
376.0,0.5211
376.5,0.5414
377.0,0.5746
377.5,0.6738
378.0,0.7323
378.5,0.694
379.0,0.5742
379.5,0.5259
380.0,0.5482
380.5,0.6656
381.0,0.6686
381.5,0.5313
382.0,0.4729
382.5,0.4041
383.0,0.375
383.5,0.362
384.0,0.4002
384.5,0.5899
385.0,0.5863
385.5,0.5472
386.0,0.4697
386.5,0.6183
387.0,0.515
387.5,0.5797
388.0,0.5364
388.5,0.5314
389.0,0.5748
389.5,0.6977
390.0,0.7017
390.5,0.6472
391.0,0.7634
391.5,0.7803
392.0,0.6586
392.5,0.5908
393.0,0.3294
393.5,0.2399
394.0,0.4891
394.5,0.623
395.0,0.7617
395.5,0.7754
396.0,0.6736
396.5,0.3945
397.0,0.2966
397.5,0.6044
398.0,0.8481
398.5,0.8782
399.0,0.9525
399.5,0.9512
400.0,0.9896
401.0,1.02
402.0,1.08
403.0,1.029
404.0,1.016
405.0,1.02
406.0,1.006
407.0,0.9932
408.0,1.035
409.0,1.111
410.0,0.9739
411.0,1.058
412.0,1.139
413.0,1.115
414.0,1.131
415.0,1.137
416.0,1.161
417.0,1.135
418.0,1.118
419.0,1.135
420.0,1.133
421.0,1.189
422.0,1.133
423.0,1.11
424.0,1.177
425.0,1.178
426.0,1.15
427.0,1.131
428.0,1.104
429.0,1.048
430.0,0.9195
431.0,0.9137
432.0,1.182
433.0,1.192
434.0,1.109
435.0,1.161
436.0,1.311
437.0,1.295
438.0,1.182
439.0,1.225
440.0,1.267
441.0,1.315
442.0,1.413
443.0,1.38
444.0,1.412
445.0,1.385
446.0,1.324
447.0,1.433
448.0,1.459
449.0,1.467
450.0,1.511
451.0,1.57
452.0,1.515
453.0,1.427
454.0,1.492
455.0,1.504
456.0,1.543
457.0,1.571
458.0,1.521
459.0,1.515
460.0,1.522
461.0,1.56
462.0,1.574
463.0,1.565
464.0,1.541
465.0,1.523
466.0,1.54
467.0,1.515
468.0,1.535
469.0,1.546
470.0,1.499
471.0,1.499
472.0,1.582
473.0,1.564
474.0,1.569
475.0,1.585
476.0,1.541
477.0,1.548
478.0,1.593
479.0,1.585
480.0,1.59
481.0,1.622
482.0,1.632
483.0,1.613
484.0,1.582
485.0,1.509
486.0,1.32
487.0,1.385
488.0,1.521
489.0,1.528
490.0,1.61
491.0,1.583
492.0,1.497
493.0,1.548
494.0,1.565
495.0,1.58
496.0,1.592
497.0,1.618
498.0,1.544
499.0,1.566
500.0,1.523
501.0,1.497
502.0,1.479
503.0,1.542
504.0,1.507
505.0,1.56
506.0,1.613
507.0,1.536
508.0,1.489
509.0,1.531
510.0,1.524
511.0,1.566
512.0,1.584
513.0,1.501
514.0,1.492
515.0,1.478
516.0,1.476
517.0,1.312
518.0,1.381
519.0,1.45
520.0,1.504
521.0,1.52
522.0,1.523
523.0,1.497
524.0,1.552
525.0,1.573
526.0,1.504
527.0,1.419
528.0,1.502
529.0,1.585
530.0,1.564
531.0,1.589
532.0,1.535
533.0,1.492
534.0,1.537
535.0,1.571
536.0,1.586
537.0,1.525
538.0,1.553
539.0,1.541
540.0,1.478
541.0,1.49
542.0,1.538
543.0,1.522
544.0,1.551
545.0,1.547
546.0,1.555
547.0,1.555
548.0,1.537
549.0,1.543
550.0,1.562
551.0,1.544
552.0,1.556
553.0,1.529
554.0,1.567
555.0,1.571
556.0,1.552
557.0,1.505
558.0,1.495
559.0,1.468
560.0,1.488
561.0,1.508
562.0,1.499
563.0,1.541
564.0,1.501
565.0,1.489
566.0,1.469
567.0,1.498
568.0,1.487
569.0,1.455
570.0,1.455
571.0,1.446
572.0,1.484
573.0,1.501
574.0,1.497
575.0,1.47
576.0,1.458
577.0,1.474
578.0,1.452
579.0,1.457
580.0,1.483
581.0,1.49
582.0,1.518
583.0,1.521
584.0,1.535
585.0,1.497
586.0,1.467
587.0,1.501
588.0,1.469
589.0,1.308
590.0,1.368
591.0,1.445
592.0,1.429
593.0,1.448
594.0,1.44
595.0,1.408
596.0,1.458
597.0,1.444
598.0,1.44
599.0,1.441
600.0,1.442
601.0,1.43
602.0,1.421
603.0,1.445
604.0,1.469
605.0,1.461
606.0,1.455
607.0,1.47
608.0,1.454
609.0,1.456
610.0,1.446
611.0,1.454
612.0,1.45
613.0,1.432
614.0,1.412
615.0,1.443
616.0,1.395
617.0,1.393
618.0,1.447
619.0,1.432
620.0,1.442
621.0,1.444
622.0,1.428
623.0,1.408
624.0,1.383
625.0,1.381
626.0,1.402
627.0,1.419
628.0,1.34
629.0,1.391
630.0,1.36
631.0,1.387
632.0,1.37
633.0,1.41
634.0,1.395
635.0,1.416
636.0,1.397
637.0,1.42
638.0,1.433
639.0,1.417
640.0,1.403
641.0,1.402
642.0,1.395
643.0,1.414
644.0,1.409
645.0,1.412
646.0,1.382
647.0,1.369
648.0,1.372
649.0,1.346
650.0,1.348
651.0,1.405
652.0,1.353
653.0,1.387
654.0,1.372
655.0,1.324
656.0,1.172
657.0,1.203
658.0,1.347
659.0,1.357
660.0,1.362
661.0,1.372
662.0,1.376
663.0,1.349
664.0,1.364
665.0,1.364
666.0,1.365
667.0,1.364
668.0,1.364
669.0,1.385
670.0,1.379
671.0,1.379
672.0,1.368
673.0,1.388
674.0,1.383
675.0,1.371
676.0,1.38
677.0,1.367
678.0,1.371
679.0,1.349
680.0,1.36
681.0,1.351
682.0,1.349
683.0,1.347
684.0,1.341
685.0,1.352
686.0,1.345
687.0,0.9541
688.0,1.089
689.0,1.092
690.0,1.136
691.0,1.185
692.0,1.22
693.0,1.211
694.0,1.201
695.0,1.244
696.0,1.246
697.0,1.313
698.0,1.293
699.0,1.268
700.0,1.253
701.0,1.243
702.0,1.249
703.0,1.252
704.0,1.288
705.0,1.291
706.0,1.288
707.0,1.289
708.0,1.292
709.0,1.292
710.0,1.293
711.0,1.291
712.0,1.286
713.0,1.274
714.0,1.279
715.0,1.241
716.0,1.243
717.0,1.101
718.0,1.015
719.0,0.9328
720.0,0.9787
721.0,1.067
722.0,1.205
723.0,1.13
724.0,1.027
725.0,1.014
726.0,1.06
727.0,1.07
728.0,1.013
729.0,1.043
730.0,1.104
731.0,1.059
732.0,1.124
733.0,1.182
734.0,1.208
735.0,1.184
736.0,1.183
737.0,1.188
738.0,1.201
739.0,1.178
740.0,1.207
741.0,1.194
742.0,1.195
743.0,1.225
744.0,1.221
745.0,1.221
746.0,1.227
747.0,1.229
748.0,1.227
749.0,1.213
750.0,1.213
751.0,1.2
752.0,1.206
753.0,1.212
754.0,1.215
755.0,1.208
756.0,1.208
757.0,1.21
758.0,1.195
759.0,1.174
760.0,0.2558
761.0,0.1474
762.0,0.6624
763.0,0.3674
764.0,0.5201
765.0,0.663
766.0,0.7848
767.0,0.9617
768.0,1.087
769.0,1.105
770.0,1.137
771.0,1.144
772.0,1.146
773.0,1.154
774.0,1.148
775.0,1.14
776.0,1.154
777.0,1.139
778.0,1.132
779.0,1.133
780.0,1.127
781.0,1.128
782.0,1.135
783.0,1.115
784.0,1.121
785.0,1.113
786.0,1.125
787.0,1.108
788.0,1.096
789.0,1.096
790.0,1.07
791.0,1.076
792.0,1.068
793.0,1.051
794.0,1.066
795.0,1.085
796.0,1.056
797.0,1.058
798.0,1.084
799.0,1.078
800.0,1.061
801.0,1.059
802.0,1.056
803.0,1.048
804.0,1.05
805.0,1.045
806.0,1.072
807.0,1.06
808.0,1.061
809.0,1.043
810.0,1.035
811.0,1.039
812.0,1.013
813.0,0.9938
814.0,0.8855
815.0,0.8798
816.0,0.8206
817.0,0.8344
818.0,0.8057
819.0,0.8912
820.0,0.8431
821.0,0.9724
822.0,0.9469
823.0,0.6652
824.0,0.924
825.0,0.9566
826.0,0.9243
827.0,0.9713
828.0,0.8355
829.0,0.9182
830.0,0.9075
831.0,0.9103
832.0,0.8847
833.0,0.9351
834.0,0.906
835.0,0.9871
836.0,0.9501
837.0,0.9897
838.0,0.9613
839.0,0.9744
840.0,0.9952
841.0,0.9822
842.0,0.9829
843.0,0.9809
844.0,0.9682
845.0,0.9998
846.0,0.9952
847.0,0.9763
848.0,0.971
849.0,0.9435
850.0,0.904
851.0,0.9579
852.0,0.9509
853.0,0.9149
854.0,0.7905
855.0,0.8678
856.0,0.9487
857.0,0.9695
858.0,0.9627
859.0,0.9633
860.0,0.9649
861.0,0.9598
862.0,0.9748
863.0,0.9979
864.0,0.9481
865.0,0.9398
866.0,0.8451
867.0,0.882
868.0,0.9598
869.0,0.9399
870.0,0.9668
871.0,0.9537
872.0,0.9504
873.0,0.9485
874.0,0.9373
875.0,0.9184
876.0,0.9281
877.0,0.9375
878.0,0.9478
879.0,0.9333
880.0,0.9134
881.0,0.9
882.0,0.9197
883.0,0.9223
884.0,0.9183
885.0,0.9253
886.0,0.8831
887.0,0.8916
888.0,0.9054
889.0,0.9148
890.0,0.9083
891.0,0.9062
892.0,0.8816
893.0,0.8559
894.0,0.8293
895.0,0.7881
896.0,0.7445
897.0,0.6456
898.0,0.7011
899.0,0.5407
900.0,0.7143
901.0,0.5665
902.0,0.6551
903.0,0.6647
904.0,0.8236
905.0,0.7973
906.0,0.7478
907.0,0.6166
908.0,0.6275
909.0,0.6756
910.0,0.605
911.0,0.6403
912.0,0.6677
913.0,0.6144
914.0,0.6079
915.0,0.6583
916.0,0.5596
917.0,0.7019
918.0,0.574
919.0,0.7128
920.0,0.7162
921.0,0.7441
922.0,0.6706
923.0,0.7185
924.0,0.6877
925.0,0.6729
926.0,0.6804
927.0,0.7566
928.0,0.5695
929.0,0.5238
930.0,0.4177
931.0,0.3948
932.0,0.2904
933.0,0.2393
934.0,0.138
935.0,0.2423
936.0,0.1555
937.0,0.1582
938.0,0.1928
939.0,0.3827
940.0,0.4562
941.0,0.35
942.0,0.4017
943.0,0.2687
944.0,0.2791
945.0,0.36
946.0,0.1891
947.0,0.3631
948.0,0.2678
949.0,0.4802
950.0,0.1425
951.0,0.4719
952.0,0.2613
953.0,0.3324
954.0,0.402
955.0,0.3356
956.0,0.323
957.0,0.2625
958.0,0.4499
959.0,0.3635
960.0,0.4072
961.0,0.4525
962.0,0.4287
963.0,0.4902
964.0,0.4504
965.0,0.488
966.0,0.489
967.0,0.4874
968.0,0.6394
969.0,0.669
970.0,0.6163
971.0,0.6994
972.0,0.6703
973.0,0.5897
974.0,0.5607
975.0,0.5796
976.0,0.5536
977.0,0.6236
978.0,0.5952
979.0,0.6214
980.0,0.5855
981.0,0.6954
982.0,0.6672
983.0,0.6418
984.0,0.7141
985.0,0.6647
986.0,0.7253
987.0,0.7128
988.0,0.7114
989.0,0.7222
990.0,0.7071
991.0,0.7246
992.0,0.7287
993.0,0.7141
994.0,0.7284
995.0,0.7273
996.0,0.7243
997.0,0.7253
998.0,0.722
999.0,0.7193
1000.0,0.7146
1001.0,0.7232
1002.0,0.7048
1003.0,0.7105
1004.0,0.6936
1005.0,0.6677
1006.0,0.6941
1007.0,0.7086
1008.0,0.7051
1009.0,0.7017
1010.0,0.6989
1011.0,0.7051
1012.0,0.6993
1013.0,0.7034
1014.0,0.6985
1015.0,0.6939
1016.0,0.6909
1017.0,0.6927
1018.0,0.69
1019.0,0.6758
1020.0,0.6865
1021.0,0.6854
1022.0,0.6804
1023.0,0.6876
1024.0,0.6793
1025.0,0.687
1026.0,0.6842
1027.0,0.6827
1028.0,0.6813
1029.0,0.6733
1030.0,0.6778
1031.0,0.6751
1032.0,0.6732
1033.0,0.663
1034.0,0.6631
1035.0,0.6652
1036.0,0.6687
1037.0,0.6578
1038.0,0.6608
1039.0,0.6605
1040.0,0.6578
1041.0,0.6605
1042.0,0.6559
1043.0,0.6539
1044.0,0.6563
1045.0,0.6474
1046.0,0.6403
1047.0,0.6462
1048.0,0.6498
1049.0,0.6475
1050.0,0.6446
1051.0,0.6438
1052.0,0.6412
1053.0,0.6362
1054.0,0.6377
1055.0,0.6381
1056.0,0.636
1057.0,0.6341
1058.0,0.6186
1059.0,0.6194
1060.0,0.6185
1061.0,0.6179
1062.0,0.6212
1063.0,0.6152
1064.0,0.6224
1065.0,0.6182
1066.0,0.6058
1067.0,0.6137
1068.0,0.6005
1069.0,0.5818
1070.0,0.6018
1071.0,0.6106
1072.0,0.604
1073.0,0.5952
1074.0,0.6101
1075.0,0.5811
1076.0,0.6097
1077.0,0.5997
1078.0,0.5887
1079.0,0.5997
1080.0,0.5905
1081.0,0.5724
1082.0,0.5802
1083.0,0.5817
1084.0,0.5714
1085.0,0.5918
1086.0,0.5425
1087.0,0.5582
1088.0,0.5814
1089.0,0.5651
1090.0,0.5537
1091.0,0.58
1092.0,0.5782
1093.0,0.4948
1094.0,0.5296
1095.0,0.5149
1096.0,0.4944
1097.0,0.5648
1098.0,0.4872
1099.0,0.5075
1100.0,0.4739
1101.0,0.4792
1102.0,0.4589
1103.0,0.4554
1104.0,0.4559
1105.0,0.4964
1106.0,0.3876
1107.0,0.473
1108.0,0.4057
1109.0,0.4055
1110.0,0.4695
1111.0,0.3248
1112.0,0.4021
1113.0,0.2625
1114.0,0.2926
1115.0,0.2429
1116.0,0.1978
1117.0,0.07701
1118.0,0.2138
1119.0,0.1096
1120.0,0.138
1121.0,0.1811
1122.0,0.07917
1123.0,0.1246
1124.0,0.1052
1125.0,0.1365
1126.0,0.05045
1127.0,0.1537
1128.0,0.09511
1129.0,0.1004
1130.0,0.06742
1131.0,0.2839
1132.0,0.2242
1133.0,0.1461
1134.0,0.03975
1135.0,0.01478
1136.0,0.1233
1137.0,0.2801
1138.0,0.1982
1139.0,0.288
1140.0,0.2435
1141.0,0.1884
1142.0,0.2151
1143.0,0.3022
1144.0,0.1094
1145.0,0.1408
1146.0,0.1519
1147.0,0.0565
1148.0,0.2617
1149.0,0.2113
1150.0,0.1175
1151.0,0.1968
1152.0,0.2394
1153.0,0.2313
1154.0,0.1371
1155.0,0.3006
1156.0,0.2722
1157.0,0.3031
1158.0,0.2998
1159.0,0.3213
1160.0,0.277
1161.0,0.3366
1162.0,0.3386
1163.0,0.449
1164.0,0.3882
1165.0,0.3692
1166.0,0.3646
1167.0,0.3955
1168.0,0.4005
1169.0,0.4089
1170.0,0.4419
1171.0,0.4313
1172.0,0.4376
1173.0,0.441
1174.0,0.322
1175.0,0.4297
1176.0,0.4688
1177.0,0.4523
1178.0,0.3452
1179.0,0.4725
1180.0,0.4257
1181.0,0.4389
1182.0,0.3089
1183.0,0.4313
1184.0,0.4062
1185.0,0.3938
1186.0,0.4609
1187.0,0.4409
1188.0,0.3147
1189.0,0.4111
1190.0,0.4504
1191.0,0.4309
1192.0,0.4563
1193.0,0.4385
1194.0,0.4511
1195.0,0.429
1196.0,0.4146
1197.0,0.4501
1198.0,0.4136
1199.0,0.357
1200.0,0.4332
1201.0,0.4196
1202.0,0.4161
1203.0,0.4127
1204.0,0.3638
1205.0,0.4242
1206.0,0.4657
1207.0,0.4156
1208.0,0.4075
1209.0,0.4154
1210.0,0.4316
1211.0,0.4131
1212.0,0.4105
1213.0,0.4515
1214.0,0.4192
1215.0,0.4118
1216.0,0.45
1217.0,0.4392
1218.0,0.4465
1219.0,0.4415
1220.0,0.4468
1221.0,0.4507
1222.0,0.4396
1223.0,0.4359
1224.0,0.434
1225.0,0.4479
1226.0,0.4502
1227.0,0.418
1228.0,0.4519
1229.0,0.4503
1230.0,0.4431
1231.0,0.454
1232.0,0.4514
1233.0,0.4381
1234.0,0.4532
1235.0,0.4506
1236.0,0.4536
1237.0,0.4482
1238.0,0.4521
1239.0,0.4463
1240.0,0.4479
1241.0,0.4464
1242.0,0.4449
1243.0,0.4413
1244.0,0.4446
1245.0,0.4464
1246.0,0.4438
1247.0,0.4422
1248.0,0.4422
1249.0,0.4433
1250.0,0.4408
1251.0,0.4355
1252.0,0.4352
1253.0,0.4324
1254.0,0.4287
1255.0,0.4349
1256.0,0.4241
1257.0,0.4221
1258.0,0.4289
1259.0,0.4155
1260.0,0.4174
1261.0,0.3967
1262.0,0.3863
1263.0,0.3871
1264.0,0.3607
1265.0,0.3846
1266.0,0.372
1267.0,0.3772
1268.0,0.3599
1269.0,0.2381
1270.0,0.3764
1271.0,0.3951
1272.0,0.3961
1273.0,0.3922
1274.0,0.3931
1275.0,0.3982
1276.0,0.4016
1277.0,0.4036
1278.0,0.4102
1279.0,0.4067
1280.0,0.4014
1281.0,0.3826
1282.0,0.3678
1283.0,0.3963
1284.0,0.4059
1285.0,0.4085
1286.0,0.4135
1287.0,0.408
1288.0,0.4077
1289.0,0.3965
1290.0,0.404
1291.0,0.4093
1292.0,0.3878
1293.0,0.4022
1294.0,0.3995
1295.0,0.3984
1296.0,0.3824
1297.0,0.3634
1298.0,0.3879
1299.0,0.4024
1300.0,0.3462
1301.0,0.3557
1302.0,0.3865
1303.0,0.341
1304.0,0.2961
1305.0,0.379
1306.0,0.3794
1307.0,0.3006
1308.0,0.3407
1309.0,0.3769
1310.0,0.2952
1311.0,0.3279
1312.0,0.3198
1313.0,0.3145
1314.0,0.2833
1315.0,0.2808
1316.0,0.3236
1317.0,0.3071
1318.0,0.3317
1319.0,0.2653
1320.0,0.2558
1321.0,0.2958
1322.0,0.2997
1323.0,0.2305
1324.0,0.2602
1325.0,0.3193
1326.0,0.2772
1327.0,0.2652
1328.0,0.2302
1329.0,0.177
1330.0,0.2284
1331.0,0.1427
1332.0,0.1457
1333.0,0.2016
1334.0,0.1686
1335.0,0.2296
1336.0,0.1841
1337.0,0.1641
1338.0,0.1775
1339.0,0.1761
1340.0,0.17
1341.0,0.1689
1342.0,0.1772
1343.0,0.1259
1344.0,0.07514
1345.0,0.1079
1346.0,0.05748
1347.0,0.05911
1348.0,0.004585
1349.0,0.01564
1350.0,0.01565
1351.0,0.004463
1352.0,0.001428
1353.0,8.845e-05
1354.0,0.0002698
1355.0,3.22e-06
1356.0,4.389e-05
1357.0,6.648e-05
1358.0,3.754e-06
1359.0,6.33e-07
1360.0,1.906e-06
1361.0,3.977e-09
1362.0,1.436e-11
1363.0,2.791e-06
1364.0,1.185e-06
1365.0,7.037e-12
1366.0,1.128e-05
1367.0,4.432e-06
1368.0,1.057e-13
1369.0,4.517e-07
1370.0,2.518e-07
1371.0,1.673e-08
1372.0,2.442e-06
1373.0,4.031e-05
1374.0,0.0001637
1375.0,0.0002977
1376.0,0.0002411
1377.0,0.000114
1378.0,0.001045
1379.0,4.826e-05
1380.0,7.53e-05
1381.0,2.152e-06
1382.0,2.279e-06
1383.0,3.857e-08
1384.0,5.358e-07
1385.0,1.884e-06
1386.0,2.208e-06
1387.0,0.0001832
1388.0,3.689e-06
1389.0,0.0005379
1390.0,0.0004629
1391.0,0.0003189
1392.0,2.187e-05
1393.0,0.0001076
1394.0,6.88e-05
1395.0,5.987e-07
1396.0,5.278e-09
1397.0,4.531e-05
1398.0,0.001189
1399.0,0.000753
1400.0,2.679e-09
1401.0,8.95e-09
1402.0,0.001755
1403.0,0.002278
1404.0,0.0007049
1405.0,3.239e-07
1406.0,0.001936
1407.0,0.0001659
1408.0,0.00157
1409.0,0.0005821
1410.0,0.0004398
1411.0,0.001992
1412.0,0.002565
1413.0,0.02296
1414.0,0.0003431
1415.0,0.0001728
1416.0,0.03508
1417.0,0.01146
1418.0,0.01315
1419.0,0.002081
1420.0,0.008077
1421.0,0.008765
1422.0,0.04556
1423.0,0.009055
1424.0,0.01677
1425.0,0.02498
1426.0,0.02758
1427.0,0.04896
1428.0,0.004366
1429.0,0.03739
1430.0,0.06182
1431.0,0.06743
1432.0,0.00346
1433.0,0.04354
1434.0,0.02247
1435.0,0.02356
1436.0,0.04375
1437.0,0.03352
1438.0,0.01463
1439.0,0.05874
1440.0,0.04407
1441.0,0.0344
1442.0,0.03801
1443.0,0.04652
1444.0,0.06389
1445.0,0.05097
1446.0,0.02322
1447.0,0.03653
1448.0,0.1169
1449.0,0.1024
1450.0,0.02705
1451.0,0.01109
1452.0,0.06253
1453.0,0.08161
1454.0,0.1371
1455.0,0.06575
1456.0,0.08883
1457.0,0.1174
1458.0,0.1368
1459.0,0.162
1460.0,0.08525
1461.0,0.08976
1462.0,0.1302
1463.0,0.043
1464.0,0.153
