interpolation:linear
wavelength,value
280.0,5.970000000000001e-20
280.5,1.104e-18
281.0,4.883e-18
281.5,8.924e-17
282.0,5.134e-16
282.5,1.582e-15
283.0,5.485e-15
283.5,9.17e-15
284.0,1.329e-13
284.5,3.524e-13
285.0,6.213e-13
285.5,3.415e-12
286.0,1.398e-11
286.5,6.065e-11
287.0,1.66e-10
287.5,5.798e-10
288.0,1.855e-09
288.5,6.136e-09
289.0,1.702e-08
289.5,5.14e-08
290.0,1.405e-07
290.5,2.815e-07
291.0,5.812e-07
291.5,1.553e-06
292.0,3.323e-06
292.5,4.546e-06
293.0,9.324e-06
293.5,2.102e-05
294.0,3.152e-05
294.5,5.105e-05
295.0,8.084e-05
295.5,0.0001716
296.0,0.0002822
296.5,0.0003375
297.0,0.0004024
297.5,0.0008946
298.0,0.001206
298.5,0.001077
299.0,0.002118
299.5,0.00288
300.0,0.002849
300.5,0.003702
301.0,0.005633
301.5,0.007718
302.0,0.006143
302.5,0.01102
303.0,0.01774
303.5,0.02091
304.0,0.01885
304.5,0.02511
305.0,0.03251
305.5,0.03382
306.0,0.03165
306.5,0.03717
307.0,0.04831
307.5,0.05676
308.0,0.05897
308.5,0.06577
309.0,0.05761
309.5,0.06142
310.0,0.05978
310.5,0.09552
311.0,0.1168
311.5,0.1117
312.0,0.1048
312.5,0.1223
313.0,0.1301
313.5,0.1296
314.0,0.154
314.5,0.1273
315.0,0.1656
315.5,0.1442
316.0,0.1189
316.5,0.1626
317.0,0.2029
317.5,0.215
318.0,0.1624
318.5,0.1888
319.0,0.217
319.5,0.1877
320.0,0.2295
320.5,0.2685
321.0,0.2252
321.5,0.2152
322.0,0.2463
322.5,0.2141
323.0,0.2046
323.5,0.234
324.0,0.2717
324.5,0.2828
325.0,0.2587
325.5,0.322
326.0,0.3772
326.5,0.3687
327.0,0.3723
327.5,0.3653
328.0,0.3385
328.5,0.3413
329.0,0.3962
329.5,0.4465
330.0,0.4555
330.5,0.3753
331.0,0.3869
331.5,0.3866
332.0,0.4073
332.5,0.3991
333.0,0.402
333.5,0.3725
334.0,0.3839
334.5,0.4339
335.0,0.4035
335.5,0.458
336.0,0.3176
336.5,0.3874
337.0,0.3217
337.5,0.4026
338.0,0.3868
338.5,0.4364
339.0,0.4352
339.5,0.4181
340.0,0.5044
340.5,0.455
341.0,0.4362
341.5,0.4047
342.0,0.4857
342.5,0.4562
343.0,0.5009
343.5,0.4714
344.0,0.3545
344.5,0.3508
345.0,0.4699
345.5,0.4823
346.0,0.4115
346.5,0.4674
347.0,0.5014
347.5,0.4058
348.0,0.4653
348.5,0.4671
349.0,0.4344
349.5,0.4307
350.0,0.5339
350.5,0.5644
351.0,0.5046
351.5,0.4892
352.0,0.5281
352.5,0.4137
353.0,0.5225
353.5,0.5602
354.0,0.5831
354.5,0.5927
355.0,0.5917
355.5,0.5355
356.0,0.5615
356.5,0.4805
357.0,0.3979
357.5,0.4883
358.0,0.3878
358.5,0.3321
359.0,0.4655
359.5,0.5941
360.0,0.6311
360.5,0.5056
361.0,0.4617
361.5,0.5322
362.0,0.4607
362.5,0.6383
363.0,0.574
363.5,0.5294
364.0,0.6484
364.5,0.5552
365.0,0.5664
365.5,0.712
366.0,0.7554
366.5,0.7107
367.0,0.6933
367.5,0.7207
368.0,0.6317
368.5,0.6383
369.0,0.6904
369.5,0.737
370.0,0.7869
370.5,0.6116
371.0,0.6544
371.5,0.8202
372.0,0.5453
372.5,0.6548
373.0,0.6669
373.5,0.4345
374.0,0.6322
374.5,0.5243
375.0,0.5104
375.5,0.7634
376.0,0.6338
376.5,0.6579
377.0,0.6974
377.5,0.8171
378.0,0.8872
378.5,0.84
379.0,0.6945
379.5,0.6357
380.0,0.662
380.5,0.8028
381.0,0.8054
381.5,0.6392
382.0,0.5683
382.5,0.4849
383.0,0.4495
383.5,0.4335
384.0,0.4788
384.5,0.7051
385.0,0.7001
385.5,0.6527
386.0,0.5597
386.5,0.736
387.0,0.6125
387.5,0.6889
388.0,0.6369
388.5,0.6303
389.0,0.6813
389.5,0.8262
390.0,0.8301
390.5,0.7649
391.0,0.9014
391.5,0.9207
392.0,0.7765
392.5,0.6959
393.0,0.3876
393.5,0.282
394.0,0.5746
394.5,0.7312
395.0,0.8934
395.5,0.9087
396.0,0.7888
396.5,0.4615
397.0,0.3467
397.5,0.7059
398.0,0.99
398.5,1.024
399.0,1.11
399.5,1.107
400.0,1.152
401.0,1.185
402.0,1.252
403.0,1.191
404.0,1.175
405.0,1.177
406.0,1.16
407.0,1.143
408.0,1.191
409.0,1.276
410.0,1.117
411.0,1.211
412.0,1.303
413.0,1.273
414.0,1.29
415.0,1.295
416.0,1.32
417.0,1.29
418.0,1.268
419.0,1.286
420.0,1.283
421.0,1.344
422.0,1.28
423.0,1.252
424.0,1.326
425.0,1.326
426.0,1.292
427.0,1.27
428.0,1.239
429.0,1.174
430.0,1.029
431.0,1.022
432.0,1.32
433.0,1.329
434.0,1.236
435.0,1.293
436.0,1.458
437.0,1.439
438.0,1.311
439.0,1.36
440.0,1.404
441.0,1.456
442.0,1.563
443.0,1.526
444.0,1.56
445.0,1.529
446.0,1.459
447.0,1.578
448.0,1.606
449.0,1.613
450.0,1.659
451.0,1.723
452.0,1.661
453.0,1.564
454.0,1.633
455.0,1.645
456.0,1.686
457.0,1.716
458.0,1.66
459.0,1.653
460.0,1.66
461.0,1.7
462.0,1.713
463.0,1.704
464.0,1.676
465.0,1.655
466.0,1.671
467.0,1.643
468.0,1.665
469.0,1.675
470.0,1.624
471.0,1.623
472.0,1.712
473.0,1.692
474.0,1.697
475.0,1.715
476.0,1.667
477.0,1.675
478.0,1.722
479.0,1.712
480.0,1.716
481.0,1.748
482.0,1.757
483.0,1.735
484.0,1.701
485.0,1.621
486.0,1.417
487.0,1.485
488.0,1.631
489.0,1.639
490.0,1.724
491.0,1.695
492.0,1.602
493.0,1.655
494.0,1.673
495.0,1.689
496.0,1.7
497.0,1.728
498.0,1.648
499.0,1.671
500.0,1.625
501.0,1.597
502.0,1.578
503.0,1.646
504.0,1.613
505.0,1.666
506.0,1.721
507.0,1.639
508.0,1.587
509.0,1.631
510.0,1.622
511.0,1.665
512.0,1.684
513.0,1.594
514.0,1.584
515.0,1.569
516.0,1.566
517.0,1.392
518.0,1.465
519.0,1.538
520.0,1.595
521.0,1.611
522.0,1.614
523.0,1.586
524.0,1.645
525.0,1.667
526.0,1.594
527.0,1.504
528.0,1.593
529.0,1.681
530.0,1.658
531.0,1.684
532.0,1.627
533.0,1.581
534.0,1.628
535.0,1.663
536.0,1.679
537.0,1.613
538.0,1.642
539.0,1.629
540.0,1.563
541.0,1.576
542.0,1.627
543.0,1.609
544.0,1.64
545.0,1.635
546.0,1.644
547.0,1.643
548.0,1.624
549.0,1.629
550.0,1.649
551.0,1.629
552.0,1.641
553.0,1.613
554.0,1.653
555.0,1.657
556.0,1.637
557.0,1.587
558.0,1.577
559.0,1.549
560.0,1.57
561.0,1.592
562.0,1.582
563.0,1.628
564.0,1.585
565.0,1.573
566.0,1.552
567.0,1.583
568.0,1.573
569.0,1.543
570.0,1.542
571.0,1.532
572.0,1.574
573.0,1.592
574.0,1.589
575.0,1.561
576.0,1.547
577.0,1.564
578.0,1.539
579.0,1.543
580.0,1.568
581.0,1.573
582.0,1.6
583.0,1.602
584.0,1.615
585.0,1.575
586.0,1.543
587.0,1.58
588.0,1.551
589.0,1.392
590.0,1.454
591.0,1.529
592.0,1.516
593.0,1.532
594.0,1.525
595.0,1.493
596.0,1.539
597.0,1.526
598.0,1.518
599.0,1.518
600.0,1.517
601.0,1.503
602.0,1.493
603.0,1.517
604.0,1.542
605.0,1.533
606.0,1.526
607.0,1.54
608.0,1.522
609.0,1.524
610.0,1.513
611.0,1.52
612.0,1.515
613.0,1.496
614.0,1.475
615.0,1.506
616.0,1.456
617.0,1.453
618.0,1.509
619.0,1.494
620.0,1.504
621.0,1.507
622.0,1.491
623.0,1.469
624.0,1.444
625.0,1.441
626.0,1.463
627.0,1.482
628.0,1.421
629.0,1.461
630.0,1.428
631.0,1.449
632.0,1.43
633.0,1.469
634.0,1.451
635.0,1.472
636.0,1.45
637.0,1.473
638.0,1.485
639.0,1.467
640.0,1.452
641.0,1.45
642.0,1.442
643.0,1.462
644.0,1.456
645.0,1.46
646.0,1.43
647.0,1.423
648.0,1.427
649.0,1.4
650.0,1.394
651.0,1.452
652.0,1.407
653.0,1.433
654.0,1.416
655.0,1.371
656.0,1.21
657.0,1.243
658.0,1.389
659.0,1.398
660.0,1.403
661.0,1.413
662.0,1.418
663.0,1.39
664.0,1.403
665.0,1.402
666.0,1.402
667.0,1.4
668.0,1.399
669.0,1.42
670.0,1.414
671.0,1.413
672.0,1.401
673.0,1.422
674.0,1.416
675.0,1.403
676.0,1.412
677.0,1.398
678.0,1.402
679.0,1.379
680.0,1.39
681.0,1.381
682.0,1.379
683.0,1.377
684.0,1.37
685.0,1.382
686.0,1.374
687.0,1.074
688.0,1.179
689.0,1.181
690.0,1.213
691.0,1.248
692.0,1.271
693.0,1.264
694.0,1.255
695.0,1.288
696.0,1.29
697.0,1.344
698.0,1.324
699.0,1.308
700.0,1.293
701.0,1.285
702.0,1.288
703.0,1.291
704.0,1.323
705.0,1.325
706.0,1.32
707.0,1.32
708.0,1.323
709.0,1.32
710.0,1.322
711.0,1.319
712.0,1.312
713.0,1.302
714.0,1.306
715.0,1.271
716.0,1.274
717.0,1.165
718.0,1.083
719.0,1.0
720.0,1.051
721.0,1.121
722.0,1.24
723.0,1.177
724.0,1.086
725.0,1.077
726.0,1.122
727.0,1.125
728.0,1.077
729.0,1.096
730.0,1.157
731.0,1.115
732.0,1.17
733.0,1.216
734.0,1.239
735.0,1.217
736.0,1.215
737.0,1.221
738.0,1.226
739.0,1.202
740.0,1.229
741.0,1.215
742.0,1.213
743.0,1.244
744.0,1.239
745.0,1.238
746.0,1.244
747.0,1.246
748.0,1.244
749.0,1.23
750.0,1.229
751.0,1.217
752.0,1.222
753.0,1.228
754.0,1.231
755.0,1.224
756.0,1.224
757.0,1.226
758.0,1.211
759.0,1.194
760.0,0.3938
761.0,0.2634
762.0,0.7827
763.0,0.5122
764.0,0.6587
765.0,0.7837
766.0,0.8762
767.0,1.025
768.0,1.122
769.0,1.133
770.0,1.157
771.0,1.16
772.0,1.16
773.0,1.168
774.0,1.162
775.0,1.153
776.0,1.167
777.0,1.151
778.0,1.145
779.0,1.146
780.0,1.139
781.0,1.14
782.0,1.148
783.0,1.128
784.0,1.133
785.0,1.125
786.0,1.138
787.0,1.124
788.0,1.113
789.0,1.114
790.0,1.094
791.0,1.095
792.0,1.086
793.0,1.069
794.0,1.078
795.0,1.098
796.0,1.077
797.0,1.079
798.0,1.099
799.0,1.094
800.0,1.078
801.0,1.078
802.0,1.074
803.0,1.068
804.0,1.068
805.0,1.061
806.0,1.085
807.0,1.074
808.0,1.074
809.0,1.058
810.0,1.053
811.0,1.06
812.0,1.039
813.0,1.023
814.0,0.9318
815.0,0.9254
816.0,0.867
817.0,0.8784
818.0,0.8527
819.0,0.9251
820.0,0.8826
821.0,0.9941
822.0,0.9722
823.0,0.7235
824.0,0.9562
825.0,0.9796
826.0,0.9536
827.0,0.9942
828.0,0.8768
829.0,0.9457
830.0,0.9371
831.0,0.939
832.0,0.9166
833.0,0.9569
834.0,0.9343
835.0,1.003
836.0,0.9744
837.0,1.005
838.0,0.9796
839.0,0.9884
840.0,1.009
841.0,0.997
842.0,0.9951
843.0,0.9904
844.0,0.979
845.0,1.009
846.0,1.004
847.0,0.984
848.0,0.9798
849.0,0.9521
850.0,0.9119
851.0,0.9676
852.0,0.96
853.0,0.9225
854.0,0.7979
855.0,0.8748
856.0,0.9569
857.0,0.977
858.0,0.9704
859.0,0.9705
860.0,0.9717
861.0,0.9667
862.0,0.9816
863.0,1.005
864.0,0.9546
865.0,0.9461
866.0,0.8508
867.0,0.8878
868.0,0.9661
869.0,0.9461
870.0,0.973
871.0,0.9599
872.0,0.9564
873.0,0.9546
874.0,0.9432
875.0,0.9243
876.0,0.934
877.0,0.9434
878.0,0.954
879.0,0.9393
880.0,0.9192
881.0,0.9064
882.0,0.9263
883.0,0.9285
884.0,0.9246
885.0,0.9316
886.0,0.8912
887.0,0.8982
888.0,0.9132
889.0,0.9206
890.0,0.9164
891.0,0.9132
892.0,0.8911
893.0,0.8693
894.0,0.8493
895.0,0.8163
896.0,0.7767
897.0,0.6875
898.0,0.738
899.0,0.5874
900.0,0.7439
901.0,0.6138
902.0,0.6872
903.0,0.7042
904.0,0.8434
905.0,0.8209
906.0,0.7737
907.0,0.6582
908.0,0.6676
909.0,0.7082
910.0,0.6521
911.0,0.6802
912.0,0.7043
913.0,0.663
914.0,0.6532
915.0,0.7037
916.0,0.6058
917.0,0.7379
918.0,0.6214
919.0,0.7456
920.0,0.7415
921.0,0.7668
922.0,0.7041
923.0,0.7401
924.0,0.7218
925.0,0.7073
926.0,0.7143
927.0,0.782
928.0,0.6246
929.0,0.584
930.0,0.4827
931.0,0.4529
932.0,0.3499
933.0,0.2986
934.0,0.1939
935.0,0.2938
936.0,0.2021
937.0,0.2081
938.0,0.2479
939.0,0.4391
940.0,0.5119
941.0,0.409
942.0,0.4581
943.0,0.3197
944.0,0.3215
945.0,0.4181
946.0,0.238
947.0,0.4259
948.0,0.3181
949.0,0.5446
950.0,0.1932
951.0,0.5322
952.0,0.3201
953.0,0.3911
954.0,0.4554
955.0,0.3927
956.0,0.3731
957.0,0.3241
958.0,0.4923
959.0,0.4161
960.0,0.4649
961.0,0.5031
962.0,0.4791
963.0,0.5356
964.0,0.4968
965.0,0.5313
966.0,0.5358
967.0,0.5348
968.0,0.6629
969.0,0.6949
970.0,0.6467
971.0,0.7167
972.0,0.6901
973.0,0.6243
974.0,0.5967
975.0,0.6098
976.0,0.5911
977.0,0.6489
978.0,0.6264
979.0,0.648
980.0,0.6149
981.0,0.7116
982.0,0.6887
983.0,0.6664
984.0,0.7243
985.0,0.6858
986.0,0.7318
987.0,0.7228
988.0,0.7217
989.0,0.7264
990.0,0.7167
991.0,0.7292
992.0,0.7329
993.0,0.722
994.0,0.7321
995.0,0.7304
996.0,0.7281
997.0,0.7287
998.0,0.7257
999.0,0.7228
1000.0,0.719
1001.0,0.7265
1002.0,0.712
1003.0,0.7141
1004.0,0.6981
1005.0,0.6706
1006.0,0.6978
1007.0,0.712
1008.0,0.7092
1009.0,0.7065
1010.0,0.7042
1011.0,0.7084
1012.0,0.7033
1013.0,0.7064
1014.0,0.7015
1015.0,0.697
1016.0,0.694
1017.0,0.696
1018.0,0.6928
1019.0,0.68
1020.0,0.6895
1021.0,0.6882
1022.0,0.6836
1023.0,0.691
1024.0,0.6842
1025.0,0.6899
1026.0,0.6875
1027.0,0.6858
1028.0,0.6845
1029.0,0.6767
1030.0,0.6806
1031.0,0.6782
1032.0,0.676
1033.0,0.6658
1034.0,0.6658
1035.0,0.6679
1036.0,0.6716
1037.0,0.6607
1038.0,0.6637
1039.0,0.6634
1040.0,0.6608
1041.0,0.6637
1042.0,0.6591
1043.0,0.6571
1044.0,0.6595
1045.0,0.6507
1046.0,0.6437
1047.0,0.6496
1048.0,0.6534
1049.0,0.6512
1050.0,0.6484
1051.0,0.6477
1052.0,0.6453
1053.0,0.6404
1054.0,0.6421
1055.0,0.6428
1056.0,0.6409
1057.0,0.6392
1058.0,0.6237
1059.0,0.6248
1060.0,0.624
1061.0,0.6234
1062.0,0.6271
1063.0,0.6211
1064.0,0.6284
1065.0,0.6247
1066.0,0.6117
1067.0,0.6199
1068.0,0.6069
1069.0,0.5877
1070.0,0.6083
1071.0,0.6159
1072.0,0.6102
1073.0,0.6011
1074.0,0.6146
1075.0,0.5897
1076.0,0.6145
1077.0,0.6068
1078.0,0.5965
1079.0,0.6037
1080.0,0.5977
1081.0,0.5811
1082.0,0.5855
1083.0,0.5862
1084.0,0.5816
1085.0,0.5984
1086.0,0.556
1087.0,0.5663
1088.0,0.5867
1089.0,0.5742
1090.0,0.5659
1091.0,0.5864
1092.0,0.5836
1093.0,0.5127
1094.0,0.5361
1095.0,0.531
1096.0,0.514
1097.0,0.5699
1098.0,0.5076
1099.0,0.5266
1100.0,0.4982
1101.0,0.5018
1102.0,0.484
1103.0,0.483
1104.0,0.4832
1105.0,0.5164
1106.0,0.4264
1107.0,0.4966
1108.0,0.4401
1109.0,0.4373
1110.0,0.4944
1111.0,0.3619
1112.0,0.4325
1113.0,0.3038
1114.0,0.3354
1115.0,0.279
1116.0,0.2411
1117.0,0.1109
1118.0,0.2546
1119.0,0.1434
1120.0,0.1801
1121.0,0.2277
1122.0,0.1109
1123.0,0.1623
1124.0,0.1373
1125.0,0.175
1126.0,0.07629
1127.0,0.196
1128.0,0.1335
1129.0,0.1387
1130.0,0.09987
1131.0,0.3344
1132.0,0.2695
1133.0,0.1902
1134.0,0.06259
1135.0,0.02302
1136.0,0.1656
1137.0,0.3332
1138.0,0.2401
1139.0,0.3233
1140.0,0.2835
1141.0,0.2282
1142.0,0.2547
1143.0,0.3472
1144.0,0.1405
1145.0,0.1827
1146.0,0.1972
1147.0,0.08596
1148.0,0.3008
1149.0,0.2515
1150.0,0.151
1151.0,0.2386
1152.0,0.2806
1153.0,0.2641
1154.0,0.1816
1155.0,0.3378
1156.0,0.3107
1157.0,0.3399
1158.0,0.3355
1159.0,0.3529
1160.0,0.3132
1161.0,0.3659
1162.0,0.3691
1163.0,0.4663
1164.0,0.412
1165.0,0.3991
1166.0,0.3897
1167.0,0.4182
1168.0,0.4248
1169.0,0.4306
1170.0,0.4591
1171.0,0.4493
1172.0,0.4526
1173.0,0.4581
1174.0,0.3532
1175.0,0.4441
1176.0,0.4766
1177.0,0.4648
1178.0,0.369
1179.0,0.4799
1180.0,0.4415
1181.0,0.454
1182.0,0.3348
1183.0,0.444
1184.0,0.4232
1185.0,0.4142
1186.0,0.4711
1187.0,0.4548
1188.0,0.3417
1189.0,0.4254
1190.0,0.4606
1191.0,0.4472
1192.0,0.4658
1193.0,0.4502
1194.0,0.4614
1195.0,0.4433
1196.0,0.4316
1197.0,0.4575
1198.0,0.4247
1199.0,0.3777
1200.0,0.4451
1201.0,0.4348
1202.0,0.4294
1203.0,0.4255
1204.0,0.3821
1205.0,0.4345
1206.0,0.4705
1207.0,0.4297
1208.0,0.4181
1209.0,0.4255
1210.0,0.4395
1211.0,0.4249
1212.0,0.4262
1213.0,0.4583
1214.0,0.433
1215.0,0.4266
1216.0,0.4566
1217.0,0.4477
1218.0,0.4532
1219.0,0.449
1220.0,0.4533
1221.0,0.4561
1222.0,0.4463
1223.0,0.4433
1224.0,0.4427
1225.0,0.4533
1226.0,0.4544
1227.0,0.4272
1228.0,0.4551
1229.0,0.4544
1230.0,0.4482
1231.0,0.456
1232.0,0.4535
1233.0,0.444
1234.0,0.4544
1235.0,0.4524
1236.0,0.455
1237.0,0.451
1238.0,0.4534
1239.0,0.4477
1240.0,0.4491
1241.0,0.4485
1242.0,0.4462
1243.0,0.4425
1244.0,0.4461
1245.0,0.4477
1246.0,0.445
1247.0,0.4437
1248.0,0.4442
1249.0,0.4449
1250.0,0.4426
1251.0,0.4379
1252.0,0.4368
1253.0,0.4354
1254.0,0.4327
1255.0,0.4369
1256.0,0.4286
1257.0,0.427
1258.0,0.4319
1259.0,0.4223
1260.0,0.4238
1261.0,0.4078
1262.0,0.3997
1263.0,0.4007
1264.0,0.3796
1265.0,0.3979
1266.0,0.3886
1267.0,0.3915
1268.0,0.3776
1269.0,0.2803
1270.0,0.3916
1271.0,0.4055
1272.0,0.4059
1273.0,0.4025
1274.0,0.4026
1275.0,0.407
1276.0,0.4094
1277.0,0.4104
1278.0,0.415
1279.0,0.4116
1280.0,0.4062
1281.0,0.3862
1282.0,0.3698
1283.0,0.3987
1284.0,0.4088
1285.0,0.4111
1286.0,0.4153
1287.0,0.4114
1288.0,0.4107
1289.0,0.4024
1290.0,0.4067
1291.0,0.4115
1292.0,0.3956
1293.0,0.4058
1294.0,0.4034
1295.0,0.4036
1296.0,0.3913
1297.0,0.3752
1298.0,0.3942
1299.0,0.4054
1300.0,0.3601
1301.0,0.3676
1302.0,0.3925
1303.0,0.3536
1304.0,0.3178
1305.0,0.3859
1306.0,0.3867
1307.0,0.3192
1308.0,0.3517
1309.0,0.3848
1310.0,0.3138
1311.0,0.3408
1312.0,0.3342
1313.0,0.3301
1314.0,0.3016
1315.0,0.3011
1316.0,0.338
1317.0,0.3221
1318.0,0.3433
1319.0,0.2881
1320.0,0.2749
1321.0,0.3133
1322.0,0.319
1323.0,0.2569
1324.0,0.2826
1325.0,0.3339
1326.0,0.2972
1327.0,0.2862
1328.0,0.2522
1329.0,0.2038
1330.0,0.2575
1331.0,0.1742
1332.0,0.1733
1333.0,0.2354
1334.0,0.1933
1335.0,0.2554
1336.0,0.2109
1337.0,0.1928
1338.0,0.2072
1339.0,0.2041
1340.0,0.1942
1341.0,0.1995
1342.0,0.209
1343.0,0.165
1344.0,0.09917
1345.0,0.1387
1346.0,0.08658
1347.0,0.09082
1348.0,0.01079
1349.0,0.03202
1350.0,0.02916
1351.0,0.012
1352.0,0.005331
1353.0,0.0005314
1354.0,0.001245
1355.0,3.545e-05
1356.0,0.0002773
1357.0,0.0004099
1358.0,3.993e-05
1359.0,1.218e-05
1360.0,2.509e-05
1361.0,2.029e-07
1362.0,1.454e-09
1363.0,3.942e-05
1364.0,1.915e-05
1365.0,1.357e-09
1366.0,0.000134
1367.0,5.236e-05
1368.0,7.859e-11
1369.0,7.797e-06
1370.0,5.542e-06
1371.0,5.378e-07
1372.0,2.948e-05
1373.0,0.000305
1374.0,0.0009187
1375.0,0.001586
1376.0,0.0011
1377.0,0.0005651
1378.0,0.004199
1379.0,0.000248
1380.0,0.0004447
1381.0,1.656e-05
1382.0,2.935e-05
1383.0,7.015e-07
1384.0,1.003e-05
1385.0,1.893e-05
1386.0,3.314e-05
1387.0,0.001141
1388.0,2.762e-05
1389.0,0.002536
1390.0,0.002138
1391.0,0.001627
1392.0,0.0001342
1393.0,0.0005457
1394.0,0.0005229
1395.0,7.259e-06
1396.0,2.284e-07
1397.0,0.0002617
1398.0,0.004806
1399.0,0.003102
1400.0,1.593e-07
1401.0,3.406e-07
1402.0,0.005113
1403.0,0.006991
1404.0,0.00224
1405.0,4.882e-06
1406.0,0.006647
1407.0,0.0005889
1408.0,0.00535
1409.0,0.002441
1410.0,0.001728
1411.0,0.006067
1412.0,0.00707
1413.0,0.04364
1414.0,0.001327
1415.0,0.0007502
1416.0,0.05677
1417.0,0.02354
1418.0,0.02641
1419.0,0.004504
1420.0,0.01651
1421.0,0.01882
1422.0,0.07172
1423.0,0.0159
1424.0,0.02821
1425.0,0.04294
1426.0,0.04393
1427.0,0.06905
1428.0,0.01052
1429.0,0.05639
1430.0,0.08465
1431.0,0.0901
1432.0,0.008529
1433.0,0.06173
1434.0,0.0337
1435.0,0.04122
1436.0,0.0669
1437.0,0.05173
1438.0,0.02548
1439.0,0.0853
1440.0,0.06503
1441.0,0.05516
1442.0,0.05925
1443.0,0.06602
1444.0,0.08869
1445.0,0.07564
1446.0,0.03605
1447.0,0.05724
1448.0,0.1447
1449.0,0.1323
1450.0,0.04243
1451.0,0.01909
1452.0,0.08572
1453.0,0.1083
1454.0,0.1644
1455.0,0.08578
1456.0,0.1187
1457.0,0.1458
1458.0,0.1597
1459.0,0.1906
1460.0,0.1063
1461.0,0.1159
1462.0,0.1595
1463.0,0.05962
1464.0,0.179
1465.0,0.1099
1466.0,0.08957
1467.0,0.05404
1468.0,0.1019
1469.0,0.1211
1470.0,0.07081
