interpolation:linear
wavelength,value
280.0,7.575e-24
280.5,2.4769999999999997e-22
281.0,1.35e-21
281.5,4.2840000000000003e-20
282.0,3.446e-19
282.5,1.331e-18
283.0,5.917e-18
283.5,1.12e-17
284.0,2.885e-16
284.5,9.947e-16
285.0,2.329e-15
285.5,1.788e-14
286.0,8.381e-14
286.5,4.8e-13
287.0,1.612e-12
287.5,7.37e-12
288.0,3.307e-11
288.5,1.31e-10
289.0,4.375e-10
289.5,1.62e-09
290.0,5.234e-09
290.5,1.206e-08
291.0,2.946e-08
291.5,9.75e-08
292.0,2.484e-07
292.5,3.748e-07
293.0,8.717e-07
293.5,2.333e-06
294.0,3.929e-06
294.5,6.943e-06
295.0,1.227e-05
295.5,2.985e-05
296.0,5.387e-05
296.5,7.036e-05
297.0,9e-05
297.5,0.0002207
298.0,0.000322
298.5,0.0003051
299.0,0.0006338
299.5,0.0009406
300.0,0.0009744
300.5,0.001324
301.0,0.00215
301.5,0.003106
302.0,0.002536
302.5,0.00476
303.0,0.008098
303.5,0.009854
304.0,0.009026
304.5,0.01247
305.0,0.01693
305.5,0.01813
306.0,0.01716
306.5,0.02052
307.0,0.02765
307.5,0.03355
308.0,0.03509
308.5,0.03976
309.0,0.03527
309.5,0.03887
310.0,0.03843
310.5,0.06191
311.0,0.07665
311.5,0.07377
312.0,0.0709
312.5,0.08409
313.0,0.09018
313.5,0.08945
314.0,0.1081
314.5,0.09133
315.0,0.1195
315.5,0.1032
316.0,0.08662
316.5,0.1201
317.0,0.15
317.5,0.1587
318.0,0.121
318.5,0.1431
319.0,0.166
319.5,0.1421
320.0,0.1736
320.5,0.2065
321.0,0.1755
321.5,0.1682
322.0,0.1903
322.5,0.1658
323.0,0.16
323.5,0.1857
324.0,0.2163
324.5,0.2244
325.0,0.2037
325.5,0.2555
326.0,0.3024
326.5,0.2975
327.0,0.3002
327.5,0.2942
328.0,0.2708
328.5,0.276
329.0,0.3228
329.5,0.3648
330.0,0.3721
330.5,0.3056
331.0,0.3149
331.5,0.3162
332.0,0.3351
332.5,0.3293
333.0,0.3318
333.5,0.3067
334.0,0.3163
334.5,0.3593
335.0,0.3352
335.5,0.3812
336.0,0.2646
336.5,0.3226
337.0,0.2678
337.5,0.3353
338.0,0.3234
338.5,0.3657
339.0,0.3652
339.5,0.3511
340.0,0.4235
340.5,0.3825
341.0,0.3676
341.5,0.3416
342.0,0.4104
342.5,0.3859
343.0,0.424
343.5,0.3993
344.0,0.3001
344.5,0.2976
345.0,0.3994
345.5,0.4104
346.0,0.3506
346.5,0.3987
347.0,0.428
347.5,0.3467
348.0,0.398
348.5,0.3999
349.0,0.3723
349.5,0.3695
350.0,0.4585
350.5,0.4851
351.0,0.434
351.5,0.421
352.0,0.455
352.5,0.3568
353.0,0.4511
353.5,0.484
354.0,0.5042
354.5,0.5129
355.0,0.5124
355.5,0.4642
356.0,0.4872
356.5,0.4172
357.0,0.3457
357.5,0.4245
358.0,0.3374
358.5,0.2891
359.0,0.4055
359.5,0.5179
360.0,0.5506
360.5,0.4414
361.0,0.4034
361.5,0.4655
362.0,0.4034
362.5,0.5594
363.0,0.5036
363.5,0.4648
364.0,0.5698
364.5,0.4882
365.0,0.4984
365.5,0.627
366.0,0.6658
366.5,0.6269
367.0,0.612
367.5,0.6366
368.0,0.5583
368.5,0.5646
369.0,0.6111
369.5,0.6528
370.0,0.6974
370.5,0.5425
371.0,0.5809
371.5,0.7284
372.0,0.4845
372.5,0.5822
373.0,0.5934
373.5,0.3869
374.0,0.5633
374.5,0.4674
375.0,0.4554
375.5,0.6814
376.0,0.566
376.5,0.5879
377.0,0.6236
377.5,0.731
378.0,0.7941
378.5,0.7523
379.0,0.6223
379.5,0.5698
380.0,0.5937
380.5,0.7205
381.0,0.7233
381.5,0.5744
382.0,0.5111
382.5,0.4364
383.0,0.4048
383.5,0.3906
384.0,0.4317
384.5,0.6361
385.0,0.6319
385.5,0.5895
386.0,0.5058
386.5,0.6655
387.0,0.5541
387.5,0.6235
388.0,0.5768
388.5,0.5711
389.0,0.6176
389.5,0.7493
390.0,0.7533
390.5,0.6945
391.0,0.8189
391.5,0.8368
392.0,0.706
392.5,0.6331
393.0,0.3528
393.5,0.2569
394.0,0.5235
394.5,0.6667
395.0,0.8148
395.5,0.8291
396.0,0.72
396.5,0.4215
397.0,0.3168
397.5,0.6454
398.0,0.9054
398.5,0.9372
399.0,1.016
399.5,1.014
400.0,1.055
401.0,1.086
402.0,1.149
403.0,1.095
404.0,1.081
405.0,1.084
406.0,1.069
407.0,1.054
408.0,1.098
409.0,1.178
410.0,1.032
411.0,1.12
412.0,1.206
413.0,1.179
414.0,1.196
415.0,1.202
416.0,1.225
417.0,1.198
418.0,1.179
419.0,1.197
420.0,1.194
421.0,1.252
422.0,1.193
423.0,1.168
424.0,1.238
425.0,1.238
426.0,1.208
427.0,1.188
428.0,1.159
429.0,1.1
430.0,0.9641
431.0,0.9579
432.0,1.239
433.0,1.248
434.0,1.161
435.0,1.215
436.0,1.371
437.0,1.354
438.0,1.235
439.0,1.28
440.0,1.323
441.0,1.373
442.0,1.475
443.0,1.44
444.0,1.473
445.0,1.444
446.0,1.379
447.0,1.493
448.0,1.519
449.0,1.527
450.0,1.572
451.0,1.633
452.0,1.575
453.0,1.483
454.0,1.55
455.0,1.562
456.0,1.602
457.0,1.631
458.0,1.578
459.0,1.572
460.0,1.579
461.0,1.617
462.0,1.631
463.0,1.622
464.0,1.597
465.0,1.577
466.0,1.594
467.0,1.568
468.0,1.589
469.0,1.599
470.0,1.55
471.0,1.55
472.0,1.635
473.0,1.617
474.0,1.622
475.0,1.639
476.0,1.593
477.0,1.6
478.0,1.647
479.0,1.638
480.0,1.642
481.0,1.674
482.0,1.683
483.0,1.664
484.0,1.631
485.0,1.555
486.0,1.36
487.0,1.427
488.0,1.567
489.0,1.574
490.0,1.657
491.0,1.63
492.0,1.54
493.0,1.592
494.0,1.61
495.0,1.625
496.0,1.637
497.0,1.664
498.0,1.588
499.0,1.61
500.0,1.565
501.0,1.539
502.0,1.52
503.0,1.585
504.0,1.551
505.0,1.604
506.0,1.658
507.0,1.578
508.0,1.529
509.0,1.572
510.0,1.565
511.0,1.607
512.0,1.625
513.0,1.539
514.0,1.53
515.0,1.516
516.0,1.513
517.0,1.346
518.0,1.416
519.0,1.486
520.0,1.542
521.0,1.558
522.0,1.561
523.0,1.534
524.0,1.591
525.0,1.612
526.0,1.541
527.0,1.454
528.0,1.54
529.0,1.625
530.0,1.603
531.0,1.628
532.0,1.574
533.0,1.529
534.0,1.574
535.0,1.609
536.0,1.625
537.0,1.561
538.0,1.59
539.0,1.577
540.0,1.513
541.0,1.526
542.0,1.575
543.0,1.559
544.0,1.588
545.0,1.583
546.0,1.592
547.0,1.592
548.0,1.573
549.0,1.578
550.0,1.598
551.0,1.579
552.0,1.591
553.0,1.564
554.0,1.602
555.0,1.607
556.0,1.587
557.0,1.539
558.0,1.529
559.0,1.502
560.0,1.522
561.0,1.543
562.0,1.534
563.0,1.577
564.0,1.536
565.0,1.524
566.0,1.503
567.0,1.533
568.0,1.523
569.0,1.492
570.0,1.491
571.0,1.482
572.0,1.521
573.0,1.539
574.0,1.535
575.0,1.508
576.0,1.495
577.0,1.511
578.0,1.488
579.0,1.493
580.0,1.519
581.0,1.525
582.0,1.552
583.0,1.555
584.0,1.568
585.0,1.53
586.0,1.499
587.0,1.534
588.0,1.503
589.0,1.343
590.0,1.404
591.0,1.48
592.0,1.465
593.0,1.483
594.0,1.475
595.0,1.443
596.0,1.492
597.0,1.478
598.0,1.472
599.0,1.473
600.0,1.474
601.0,1.46
602.0,1.451
603.0,1.475
604.0,1.499
605.0,1.491
606.0,1.485
607.0,1.499
608.0,1.482
609.0,1.485
610.0,1.474
611.0,1.481
612.0,1.477
613.0,1.458
614.0,1.438
615.0,1.469
616.0,1.421
617.0,1.418
618.0,1.473
619.0,1.458
620.0,1.468
621.0,1.47
622.0,1.454
623.0,1.433
624.0,1.409
625.0,1.406
626.0,1.427
627.0,1.445
628.0,1.373
629.0,1.42
630.0,1.389
631.0,1.413
632.0,1.395
633.0,1.434
634.0,1.418
635.0,1.439
636.0,1.419
637.0,1.442
638.0,1.454
639.0,1.438
640.0,1.423
641.0,1.422
642.0,1.415
643.0,1.434
644.0,1.429
645.0,1.432
646.0,1.402
647.0,1.392
648.0,1.394
649.0,1.368
650.0,1.367
651.0,1.425
652.0,1.375
653.0,1.407
654.0,1.39
655.0,1.344
656.0,1.188
657.0,1.22
658.0,1.365
659.0,1.374
660.0,1.379
661.0,1.389
662.0,1.394
663.0,1.366
664.0,1.38
665.0,1.38
666.0,1.381
667.0,1.379
668.0,1.379
669.0,1.4
670.0,1.394
671.0,1.393
672.0,1.381
673.0,1.402
674.0,1.397
675.0,1.384
676.0,1.394
677.0,1.38
678.0,1.384
679.0,1.361
680.0,1.372
681.0,1.364
682.0,1.362
683.0,1.36
684.0,1.353
685.0,1.365
686.0,1.357
687.0,1.003
688.0,1.126
689.0,1.129
690.0,1.168
691.0,1.211
692.0,1.241
693.0,1.233
694.0,1.223
695.0,1.262
696.0,1.264
697.0,1.326
698.0,1.306
699.0,1.285
700.0,1.27
701.0,1.26
702.0,1.265
703.0,1.268
704.0,1.303
705.0,1.305
706.0,1.302
707.0,1.302
708.0,1.305
709.0,1.304
710.0,1.305
711.0,1.303
712.0,1.297
713.0,1.286
714.0,1.291
715.0,1.254
716.0,1.256
717.0,1.127
718.0,1.042
719.0,0.9596
720.0,1.008
721.0,1.089
722.0,1.22
723.0,1.149
724.0,1.051
725.0,1.04
726.0,1.085
727.0,1.092
728.0,1.039
729.0,1.064
730.0,1.126
731.0,1.082
732.0,1.143
733.0,1.196
734.0,1.221
735.0,1.198
736.0,1.196
737.0,1.202
738.0,1.211
739.0,1.188
740.0,1.216
741.0,1.203
742.0,1.202
743.0,1.233
744.0,1.228
745.0,1.228
746.0,1.234
747.0,1.237
748.0,1.234
749.0,1.22
750.0,1.219
751.0,1.207
752.0,1.212
753.0,1.219
754.0,1.222
755.0,1.215
756.0,1.214
757.0,1.216
758.0,1.202
759.0,1.183
760.0,0.3069
761.0,0.1884
762.0,0.7108
763.0,0.4228
764.0,0.5747
765.0,0.7115
766.0,0.8222
767.0,0.988
768.0,1.102
769.0,1.117
770.0,1.145
771.0,1.151
772.0,1.152
773.0,1.16
774.0,1.154
775.0,1.145
776.0,1.159
777.0,1.144
778.0,1.137
779.0,1.138
780.0,1.132
781.0,1.133
782.0,1.14
783.0,1.12
784.0,1.126
785.0,1.118
786.0,1.131
787.0,1.115
788.0,1.103
789.0,1.103
790.0,1.08
791.0,1.084
792.0,1.075
793.0,1.059
794.0,1.071
795.0,1.091
796.0,1.065
797.0,1.067
798.0,1.09
799.0,1.085
800.0,1.068
801.0,1.067
802.0,1.064
803.0,1.057
804.0,1.057
805.0,1.052
806.0,1.078
807.0,1.066
808.0,1.066
809.0,1.049
810.0,1.043
811.0,1.048
812.0,1.024
813.0,1.006
814.0,0.9042
815.0,0.8982
816.0,0.8391
817.0,0.852
818.0,0.8245
819.0,0.905
820.0,0.859
821.0,0.9814
822.0,0.9572
823.0,0.688
824.0,0.9372
825.0,0.9659
826.0,0.9362
827.0,0.9807
828.0,0.8521
829.0,0.9293
830.0,0.9195
831.0,0.922
832.0,0.8976
833.0,0.9441
834.0,0.9176
835.0,0.9936
836.0,0.9602
837.0,0.996
838.0,0.969
839.0,0.9803
840.0,1.001
841.0,0.9884
842.0,0.988
843.0,0.9849
844.0,0.9727
845.0,1.004
846.0,0.9989
847.0,0.9795
848.0,0.9747
849.0,0.9471
850.0,0.9073
851.0,0.962
852.0,0.9547
853.0,0.9181
854.0,0.7936
855.0,0.8708
856.0,0.9522
857.0,0.9727
858.0,0.9659
859.0,0.9663
860.0,0.9678
861.0,0.9627
862.0,0.9777
863.0,1.001
864.0,0.9508
865.0,0.9425
866.0,0.8475
867.0,0.8844
868.0,0.9625
869.0,0.9425
870.0,0.9694
871.0,0.9563
872.0,0.9529
873.0,0.9511
874.0,0.9398
875.0,0.9209
876.0,0.9306
877.0,0.94
878.0,0.9504
879.0,0.9358
880.0,0.9158
881.0,0.9027
882.0,0.9225
883.0,0.9249
884.0,0.9209
885.0,0.928
886.0,0.8865
887.0,0.8944
888.0,0.9086
889.0,0.9172
890.0,0.9117
891.0,0.9092
892.0,0.8856
893.0,0.8614
894.0,0.8376
895.0,0.7997
896.0,0.7574
897.0,0.6622
898.0,0.7159
899.0,0.5589
900.0,0.7262
901.0,0.5851
902.0,0.668
903.0,0.6805
904.0,0.8317
905.0,0.8069
906.0,0.7582
907.0,0.6331
908.0,0.6434
909.0,0.6887
910.0,0.6237
911.0,0.6561
912.0,0.6824
913.0,0.6337
914.0,0.6258
915.0,0.6767
916.0,0.5777
917.0,0.7166
918.0,0.5927
919.0,0.726
920.0,0.7263
921.0,0.7534
922.0,0.6841
923.0,0.7274
924.0,0.7017
925.0,0.6868
926.0,0.6943
927.0,0.7672
928.0,0.5915
929.0,0.5477
930.0,0.4431
931.0,0.4177
932.0,0.3135
933.0,0.262
934.0,0.1588
935.0,0.2622
936.0,0.1731
937.0,0.1769
938.0,0.2136
939.0,0.4049
940.0,0.4783
941.0,0.373
942.0,0.4241
943.0,0.2885
944.0,0.2955
945.0,0.3826
946.0,0.2077
947.0,0.3875
948.0,0.287
949.0,0.5058
950.0,0.1612
951.0,0.4959
952.0,0.2837
953.0,0.3551
954.0,0.4231
955.0,0.3578
956.0,0.3419
957.0,0.2859
958.0,0.4666
959.0,0.3839
960.0,0.4298
961.0,0.4724
962.0,0.4484
963.0,0.5081
964.0,0.4685
965.0,0.5052
966.0,0.5075
967.0,0.5061
968.0,0.6488
969.0,0.6797
970.0,0.6285
971.0,0.7065
972.0,0.6784
973.0,0.6036
974.0,0.5751
975.0,0.5917
976.0,0.5686
977.0,0.6337
978.0,0.6077
979.0,0.6322
980.0,0.5973
981.0,0.7021
982.0,0.676
983.0,0.6518
984.0,0.7184
985.0,0.6734
986.0,0.728
987.0,0.7171
988.0,0.7158
989.0,0.724
990.0,0.7113
991.0,0.7266
992.0,0.7304
993.0,0.7175
994.0,0.7299
995.0,0.7286
996.0,0.7259
997.0,0.7267
998.0,0.7235
999.0,0.7208
1000.0,0.7165
1001.0,0.7246
1002.0,0.7078
1003.0,0.712
1004.0,0.6955
1005.0,0.6689
1006.0,0.6956
1007.0,0.7101
1008.0,0.7068
1009.0,0.7037
1010.0,0.7011
1011.0,0.7065
1012.0,0.701
1013.0,0.7047
1014.0,0.6997
1015.0,0.6952
1016.0,0.6922
1017.0,0.6941
1018.0,0.6911
1019.0,0.6776
1020.0,0.6877
1021.0,0.6866
1022.0,0.6817
1023.0,0.6891
1024.0,0.6814
1025.0,0.6882
1026.0,0.6856
1027.0,0.684
1028.0,0.6827
1029.0,0.6747
1030.0,0.6789
1031.0,0.6764
1032.0,0.6743
1033.0,0.6642
1034.0,0.6642
1035.0,0.6663
1036.0,0.6699
1037.0,0.659
1038.0,0.662
1039.0,0.6617
1040.0,0.6591
1041.0,0.6618
1042.0,0.6573
1043.0,0.6553
1044.0,0.6576
1045.0,0.6488
1046.0,0.6417
1047.0,0.6476
1048.0,0.6513
1049.0,0.649
1050.0,0.6462
1051.0,0.6454
1052.0,0.6429
1053.0,0.638
1054.0,0.6395
1055.0,0.6401
1056.0,0.6381
1057.0,0.6362
1058.0,0.6208
1059.0,0.6217
1060.0,0.6208
1061.0,0.6202
1062.0,0.6237
1063.0,0.6177
1064.0,0.6249
1065.0,0.6209
1066.0,0.6083
1067.0,0.6163
1068.0,0.6032
1069.0,0.5843
1070.0,0.6045
1071.0,0.6128
1072.0,0.6066
1073.0,0.5977
1074.0,0.612
1075.0,0.5847
1076.0,0.6117
1077.0,0.6027
1078.0,0.592
1079.0,0.6014
1080.0,0.5935
1081.0,0.576
1082.0,0.5825
1083.0,0.5836
1084.0,0.5756
1085.0,0.5945
1086.0,0.548
1087.0,0.5616
1088.0,0.5836
1089.0,0.5689
1090.0,0.5587
1091.0,0.5827
1092.0,0.5805
1093.0,0.5021
1094.0,0.5323
1095.0,0.5216
1096.0,0.5024
1097.0,0.5669
1098.0,0.4956
1099.0,0.5154
1100.0,0.4837
1101.0,0.4884
1102.0,0.4691
1103.0,0.4665
1104.0,0.4669
1105.0,0.5046
1106.0,0.4031
1107.0,0.4826
1108.0,0.4195
1109.0,0.4182
1110.0,0.4797
1111.0,0.3394
1112.0,0.4142
1113.0,0.2785
1114.0,0.3094
1115.0,0.257
1116.0,0.2144
1117.0,0.08939
1118.0,0.2297
1119.0,0.1223
1120.0,0.1541
1121.0,0.1992
1122.0,0.09108
1123.0,0.139
1124.0,0.1174
1125.0,0.1512
1126.0,0.05993
1127.0,0.1699
1128.0,0.1094
1129.0,0.1149
1130.0,0.07918
1131.0,0.3039
1132.0,0.2419
1133.0,0.1629
1134.0,0.04791
1135.0,0.01768
1136.0,0.1394
1137.0,0.3013
1138.0,0.2146
1139.0,0.3021
1140.0,0.2593
1141.0,0.2039
1142.0,0.2307
1143.0,0.3201
1144.0,0.1212
1145.0,0.1569
1146.0,0.1693
1147.0,0.06728
1148.0,0.2773
1149.0,0.227
1150.0,0.1299
1151.0,0.2131
1152.0,0.2557
1153.0,0.2444
1154.0,0.1538
1155.0,0.3155
1156.0,0.2875
1157.0,0.3176
1158.0,0.314
1159.0,0.334
1160.0,0.2911
1161.0,0.3482
1162.0,0.3507
1163.0,0.4562
1164.0,0.3978
1165.0,0.3812
1166.0,0.3745
1167.0,0.4046
1168.0,0.4103
1169.0,0.4178
1170.0,0.449
1171.0,0.4386
1172.0,0.4436
1173.0,0.448
1174.0,0.3342
1175.0,0.4355
1176.0,0.472
1177.0,0.4575
1178.0,0.3545
1179.0,0.4755
1180.0,0.4321
1181.0,0.4451
1182.0,0.319
1183.0,0.4365
1184.0,0.4131
1185.0,0.402
1186.0,0.4651
1187.0,0.4466
1188.0,0.3254
1189.0,0.4169
1190.0,0.4545
1191.0,0.4376
1192.0,0.4602
1193.0,0.4432
1194.0,0.4553
1195.0,0.4349
1196.0,0.4215
1197.0,0.4532
1198.0,0.418
1199.0,0.3653
1200.0,0.438
1201.0,0.4258
1202.0,0.4214
1203.0,0.418
1204.0,0.3711
1205.0,0.4283
1206.0,0.4677
1207.0,0.4213
1208.0,0.4118
1209.0,0.4195
1210.0,0.4348
1211.0,0.4179
1212.0,0.4169
1213.0,0.4544
1214.0,0.4249
1215.0,0.4178
1216.0,0.4527
1217.0,0.4427
1218.0,0.4493
1219.0,0.4446
1220.0,0.4495
1221.0,0.4529
1222.0,0.4423
1223.0,0.439
1224.0,0.4376
1225.0,0.4501
1226.0,0.452
1227.0,0.4218
1228.0,0.4532
1229.0,0.452
1230.0,0.4452
1231.0,0.4548
1232.0,0.4523
1233.0,0.4406
1234.0,0.4537
1235.0,0.4514
1236.0,0.4542
1237.0,0.4494
1238.0,0.4527
1239.0,0.4469
1240.0,0.4484
1241.0,0.4473
1242.0,0.4455
1243.0,0.4418
1244.0,0.4452
1245.0,0.4469
1246.0,0.4443
1247.0,0.4429
1248.0,0.443
1249.0,0.444
1250.0,0.4416
1251.0,0.4365
1252.0,0.4359
1253.0,0.4337
1254.0,0.4304
1255.0,0.4358
1256.0,0.426
1257.0,0.4242
1258.0,0.4301
1259.0,0.4184
1260.0,0.4201
1261.0,0.4014
1262.0,0.3919
1263.0,0.3928
1264.0,0.3685
1265.0,0.3901
1266.0,0.379
1267.0,0.3832
1268.0,0.3673
1269.0,0.2551
1270.0,0.3827
1271.0,0.3995
1272.0,0.4002
1273.0,0.3965
1274.0,0.3971
1275.0,0.4019
1276.0,0.4049
1277.0,0.4065
1278.0,0.4123
1279.0,0.4088
1280.0,0.4034
1281.0,0.3841
1282.0,0.3686
1283.0,0.3973
1284.0,0.4071
1285.0,0.4096
1286.0,0.4143
1287.0,0.4094
1288.0,0.4089
1289.0,0.399
1290.0,0.4051
1291.0,0.4102
1292.0,0.391
1293.0,0.4037
1294.0,0.4011
1295.0,0.4006
1296.0,0.3861
1297.0,0.3682
1298.0,0.3905
1299.0,0.4036
1300.0,0.3518
1301.0,0.3605
1302.0,0.389
1303.0,0.3461
1304.0,0.3048
1305.0,0.3818
1306.0,0.3824
1307.0,0.308
1308.0,0.3451
1309.0,0.3802
1310.0,0.3026
1311.0,0.3331
1312.0,0.3256
1313.0,0.3208
1314.0,0.2906
1315.0,0.289
1316.0,0.3294
1317.0,0.3131
1318.0,0.3364
1319.0,0.2744
1320.0,0.2634
1321.0,0.3028
1322.0,0.3075
1323.0,0.2409
1324.0,0.269
1325.0,0.3252
1326.0,0.2852
1327.0,0.2735
1328.0,0.2389
1329.0,0.1875
1330.0,0.2399
1331.0,0.1548
1332.0,0.1564
1333.0,0.215
1334.0,0.1781
1335.0,0.2399
1336.0,0.1947
1337.0,0.1752
1338.0,0.1892
1339.0,0.187
1340.0,0.1794
1341.0,0.1809
1342.0,0.1896
1343.0,0.1409
1344.0,0.08407
1345.0,0.1197
1346.0,0.06817
1347.0,0.07077
1348.0,0.006515
1349.0,0.02106
1350.0,0.0203
1351.0,0.006726
1352.0,0.002483
1353.0,0.0001857
1354.0,0.0005072
1355.0,8.654e-06
1356.0,9.378e-05
1357.0,0.0001409
1358.0,9.947e-06
1359.0,2.158e-06
1360.0,5.527e-06
1361.0,2.022e-08
1362.0,9.547e-11
1363.0,8.474e-06
1364.0,3.754e-06
1365.0,6.193e-11
1366.0,3.191e-05
1367.0,1.232e-05
1368.0,1.651e-12
1369.0,1.464e-06
1370.0,9.055e-07
1371.0,6.993e-08
1372.0,6.826e-06
1373.0,9.33e-05
1374.0,0.0003349
1375.0,0.0006015
1376.0,0.000451
1377.0,0.0002202
1378.0,0.001869
1379.0,9.424e-05
1380.0,0.0001567
1381.0,4.937e-06
1382.0,6.555e-06
1383.0,1.261e-07
1384.0,1.802e-06
1385.0,4.851e-06
1386.0,6.8e-06
1387.0,0.0003954
1388.0,8.382e-06
1389.0,0.001027
1390.0,0.0008796
1391.0,0.0006285
1392.0,4.596e-05
1393.0,0.0002099
1394.0,0.0001603
1395.0,1.663e-06
1396.0,2.499e-08
1397.0,9.311e-05
1398.0,0.00214
1399.0,0.001361
1400.0,1.455e-08
1401.0,4.016e-08
1402.0,0.002726
1403.0,0.003628
1404.0,0.001137
1405.0,9.868e-07
1406.0,0.003252
1407.0,0.0002776
1408.0,0.002623
1409.0,0.001064
1410.0,0.0007729
1411.0,0.003159
1412.0,0.003897
1413.0,0.03009
1414.0,0.000598
1415.0,0.0003157
1416.0,0.0428
1417.0,0.01538
1418.0,0.0176
1419.0,0.002863
1420.0,0.01088
1421.0,0.01197
1422.0,0.0551
1423.0,0.01137
1424.0,0.02073
1425.0,0.03124
1426.0,0.03337
1427.0,0.05646
1428.0,0.006273
1429.0,0.04433
1430.0,0.07039
1431.0,0.07603
1432.0,0.005013
1433.0,0.05022
1434.0,0.02649
1435.0,0.02968
1436.0,0.05213
1437.0,0.04001
1438.0,0.01835
1439.0,0.0686
1440.0,0.05171
1441.0,0.0418
1442.0,0.04579
1443.0,0.05387
1444.0,0.07314
1445.0,0.06009
1446.0,0.02793
1447.0,0.04396
1448.0,0.1278
1449.0,0.1138
1450.0,0.03252
1451.0,0.01382
1452.0,0.07124
1453.0,0.09183
1454.0,0.1478
1455.0,0.07338
1456.0,0.1001
1457.0,0.1284
1458.0,0.1459
1459.0,0.1733
1460.0,0.0933
1461.0,0.09982
1462.0,0.1416
1463.0,0.04908
1464.0,0.1632
1465.0,0.09928
1466.0,0.07461
1467.0,0.04203
