interpolation:linear
wavelength,value
280.0,3.147e-28
280.5,1.954e-26
281.0,1.346e-25
281.5,7.943e-24
282.0,9.315999999999999e-23
282.5,4.639999999999999e-22
283.0,2.727e-21
283.5,5.931e-21
284.0,2.919e-19
284.5,1.352e-18
285.0,4.354e-18
285.5,4.867e-17
286.0,2.656e-16
286.5,2.079e-15
287.0,8.793e-15
287.5,5.438e-14
288.0,3.571e-13
288.5,1.732e-12
289.0,7.124e-12
289.5,3.319e-11
290.0,1.294e-10
290.5,3.487e-10
291.0,1.029e-09
291.5,4.334e-09
292.0,1.343e-08
292.5,2.263e-08
293.0,6.064e-08
293.5,1.968e-07
294.0,3.775e-07
294.5,7.361e-07
295.0,1.473e-06
295.5,4.173e-06
296.0,8.36e-06
296.5,1.206e-05
297.0,1.669e-05
297.5,4.57e-05
298.0,7.287e-05
298.5,7.377e-05
299.0,0.000163
299.5,0.000267
300.0,0.0002913
300.5,0.0004165
301.0,0.0007276
301.5,0.001115
302.0,0.0009369
302.5,0.001851
303.0,0.003351
303.5,0.004225
304.0,0.003939
304.5,0.00567
305.0,0.008119
305.5,0.008982
306.0,0.008619
306.5,0.01052
307.0,0.01475
307.5,0.01856
308.0,0.01956
308.5,0.02256
309.0,0.0203
309.5,0.02322
310.0,0.02336
310.5,0.03799
311.0,0.04771
311.5,0.04625
312.0,0.04566
312.5,0.05512
313.0,0.0597
313.5,0.05889
314.0,0.07261
314.5,0.06285
315.0,0.08269
315.5,0.07079
316.0,0.06058
316.5,0.08538
317.0,0.1068
317.5,0.1127
318.0,0.08692
318.5,0.1047
319.0,0.1226
319.5,0.1038
320.0,0.1268
320.5,0.1536
321.0,0.1325
321.5,0.1274
322.0,0.1422
322.5,0.1242
323.0,0.1213
323.5,0.1431
324.0,0.1673
324.5,0.1729
325.0,0.1556
325.5,0.1968
326.0,0.2356
326.5,0.2336
327.0,0.2355
327.5,0.2305
328.0,0.2105
328.5,0.2173
329.0,0.2562
329.5,0.2905
330.0,0.2963
330.5,0.2424
331.0,0.2496
331.5,0.2521
332.0,0.2689
332.5,0.2652
333.0,0.2671
333.5,0.2464
334.0,0.2542
334.5,0.2904
335.0,0.2718
335.5,0.3099
336.0,0.2154
336.5,0.2624
337.0,0.2178
337.5,0.2728
338.0,0.2643
338.5,0.2995
339.0,0.2996
339.5,0.2884
340.0,0.3478
340.5,0.3146
341.0,0.303
341.5,0.2821
342.0,0.3394
342.5,0.3195
343.0,0.3514
343.5,0.3311
344.0,0.2488
344.5,0.2472
345.0,0.3325
345.5,0.3422
346.0,0.2927
346.5,0.3332
347.0,0.358
347.5,0.2903
348.0,0.3337
348.5,0.3356
349.0,0.3128
349.5,0.3109
350.0,0.3861
350.5,0.4089
351.0,0.3662
351.5,0.3554
352.0,0.3846
352.5,0.302
353.0,0.3822
353.5,0.4105
354.0,0.428
354.5,0.4357
355.0,0.4357
355.5,0.3952
356.0,0.4151
356.5,0.3557
357.0,0.295
357.5,0.3625
358.0,0.2884
358.5,0.2473
359.0,0.3471
359.5,0.4436
360.0,0.472
360.5,0.3787
361.0,0.3464
361.5,0.4002
362.0,0.3472
362.5,0.4821
363.0,0.4344
363.5,0.4014
364.0,0.4925
364.5,0.4223
365.0,0.4315
365.5,0.5432
366.0,0.5774
366.5,0.5442
367.0,0.5316
367.5,0.5534
368.0,0.4857
368.5,0.4916
369.0,0.5325
369.5,0.5693
370.0,0.6087
370.5,0.4738
371.0,0.5078
371.5,0.6371
372.0,0.4241
372.5,0.51
373.0,0.5202
373.5,0.3394
374.0,0.4946
374.5,0.4107
375.0,0.4004
375.5,0.5994
376.0,0.4983
376.5,0.5178
377.0,0.5496
377.5,0.6448
378.0,0.7008
378.5,0.6643
379.0,0.5498
379.5,0.5036
380.0,0.5251
380.5,0.6377
381.0,0.6407
381.5,0.5092
382.0,0.4534
382.5,0.3875
383.0,0.3597
383.5,0.3473
384.0,0.3841
384.5,0.5663
385.0,0.563
385.5,0.5255
386.0,0.4512
386.5,0.5941
387.0,0.4949
387.5,0.5572
388.0,0.5157
388.5,0.511
389.0,0.5529
389.5,0.6712
390.0,0.6752
390.5,0.6229
391.0,0.7349
391.5,0.7513
392.0,0.6342
392.5,0.5691
393.0,0.3174
393.5,0.2312
394.0,0.4714
394.5,0.6006
395.0,0.7345
395.5,0.7477
396.0,0.6497
396.5,0.3806
397.0,0.2862
397.5,0.5833
398.0,0.8186
398.5,0.8478
399.0,0.9198
399.5,0.9186
400.0,0.9558
401.0,0.9853
402.0,1.044
403.0,0.995
404.0,0.9832
405.0,0.9866
406.0,0.974
407.0,0.9617
408.0,1.003
409.0,1.077
410.0,0.9439
411.0,1.026
412.0,1.105
413.0,1.081
414.0,1.098
415.0,1.104
416.0,1.127
417.0,1.103
418.0,1.086
419.0,1.103
420.0,1.102
421.0,1.156
422.0,1.102
423.0,1.08
424.0,1.145
425.0,1.146
426.0,1.119
427.0,1.101
428.0,1.076
429.0,1.021
430.0,0.8961
431.0,0.8907
432.0,1.153
433.0,1.162
434.0,1.082
435.0,1.133
436.0,1.279
437.0,1.264
438.0,1.154
439.0,1.196
440.0,1.237
441.0,1.285
442.0,1.381
443.0,1.349
444.0,1.381
445.0,1.354
446.0,1.294
447.0,1.402
448.0,1.427
449.0,1.435
450.0,1.479
451.0,1.537
452.0,1.483
453.0,1.398
454.0,1.462
455.0,1.474
456.0,1.512
457.0,1.54
458.0,1.49
459.0,1.485
460.0,1.492
461.0,1.529
462.0,1.543
463.0,1.535
464.0,1.512
465.0,1.495
466.0,1.512
467.0,1.487
468.0,1.507
469.0,1.518
470.0,1.472
471.0,1.472
472.0,1.553
473.0,1.536
474.0,1.541
475.0,1.557
476.0,1.513
477.0,1.52
478.0,1.565
479.0,1.558
480.0,1.563
481.0,1.594
482.0,1.604
483.0,1.587
484.0,1.556
485.0,1.484
486.0,1.299
487.0,1.363
488.0,1.497
489.0,1.504
490.0,1.584
491.0,1.559
492.0,1.474
493.0,1.524
494.0,1.541
495.0,1.556
496.0,1.568
497.0,1.594
498.0,1.521
499.0,1.543
500.0,1.5
501.0,1.475
502.0,1.457
503.0,1.519
504.0,1.484
505.0,1.537
506.0,1.589
507.0,1.513
508.0,1.467
509.0,1.509
510.0,1.502
511.0,1.544
512.0,1.562
513.0,1.48
514.0,1.471
515.0,1.458
516.0,1.456
517.0,1.295
518.0,1.363
519.0,1.431
520.0,1.484
521.0,1.5
522.0,1.503
523.0,1.477
524.0,1.532
525.0,1.552
526.0,1.484
527.0,1.4
528.0,1.483
529.0,1.564
530.0,1.543
531.0,1.568
532.0,1.515
533.0,1.472
534.0,1.517
535.0,1.551
536.0,1.566
537.0,1.505
538.0,1.533
539.0,1.521
540.0,1.46
541.0,1.471
542.0,1.519
543.0,1.503
544.0,1.531
545.0,1.527
546.0,1.535
547.0,1.535
548.0,1.518
549.0,1.523
550.0,1.543
551.0,1.525
552.0,1.537
553.0,1.51
554.0,1.548
555.0,1.552
556.0,1.533
557.0,1.486
558.0,1.477
559.0,1.45
560.0,1.47
561.0,1.49
562.0,1.481
563.0,1.522
564.0,1.482
565.0,1.471
566.0,1.45
567.0,1.479
568.0,1.468
569.0,1.435
570.0,1.436
571.0,1.427
572.0,1.464
573.0,1.48
574.0,1.477
575.0,1.45
576.0,1.438
577.0,1.454
578.0,1.432
579.0,1.438
580.0,1.465
581.0,1.472
582.0,1.5
583.0,1.504
584.0,1.517
585.0,1.48
586.0,1.451
587.0,1.484
588.0,1.451
589.0,1.29
590.0,1.35
591.0,1.426
592.0,1.41
593.0,1.43
594.0,1.422
595.0,1.389
596.0,1.441
597.0,1.426
598.0,1.422
599.0,1.424
600.0,1.426
601.0,1.414
602.0,1.405
603.0,1.429
604.0,1.453
605.0,1.446
606.0,1.44
607.0,1.454
608.0,1.438
609.0,1.441
610.0,1.431
611.0,1.439
612.0,1.435
613.0,1.417
614.0,1.398
615.0,1.429
616.0,1.382
617.0,1.379
618.0,1.433
619.0,1.419
620.0,1.428
621.0,1.43
622.0,1.414
623.0,1.394
624.0,1.37
625.0,1.367
626.0,1.388
627.0,1.405
628.0,1.322
629.0,1.376
630.0,1.345
631.0,1.373
632.0,1.356
633.0,1.396
634.0,1.382
635.0,1.404
636.0,1.385
637.0,1.408
638.0,1.421
639.0,1.405
640.0,1.392
641.0,1.391
642.0,1.385
643.0,1.404
644.0,1.399
645.0,1.402
646.0,1.371
647.0,1.357
648.0,1.359
649.0,1.334
650.0,1.337
651.0,1.395
652.0,1.341
653.0,1.377
654.0,1.362
655.0,1.313
656.0,1.163
657.0,1.194
658.0,1.338
659.0,1.347
660.0,1.353
661.0,1.363
662.0,1.367
663.0,1.34
664.0,1.355
665.0,1.356
666.0,1.357
667.0,1.356
668.0,1.356
669.0,1.378
670.0,1.372
671.0,1.372
672.0,1.36
673.0,1.381
674.0,1.376
675.0,1.363
676.0,1.373
677.0,1.36
678.0,1.364
679.0,1.342
680.0,1.353
681.0,1.344
682.0,1.343
683.0,1.34
684.0,1.334
685.0,1.346
686.0,1.338
687.0,0.9286
688.0,1.069
689.0,1.073
690.0,1.119
691.0,1.171
692.0,1.208
693.0,1.199
694.0,1.189
695.0,1.234
696.0,1.236
697.0,1.306
698.0,1.286
699.0,1.259
700.0,1.245
701.0,1.233
702.0,1.241
703.0,1.243
704.0,1.281
705.0,1.283
706.0,1.281
707.0,1.282
708.0,1.285
709.0,1.286
710.0,1.287
711.0,1.285
712.0,1.28
713.0,1.268
714.0,1.273
715.0,1.235
716.0,1.236
717.0,1.087
718.0,1.001
719.0,0.9191
720.0,0.9639
721.0,1.055
722.0,1.197
723.0,1.12
724.0,1.015
725.0,1.001
726.0,1.047
727.0,1.059
728.0,0.9998
729.0,1.032
730.0,1.092
731.0,1.047
732.0,1.114
733.0,1.174
734.0,1.201
735.0,1.177
736.0,1.176
737.0,1.181
738.0,1.196
739.0,1.172
740.0,1.202
741.0,1.19
742.0,1.19
743.0,1.221
744.0,1.217
745.0,1.217
746.0,1.223
747.0,1.226
748.0,1.223
749.0,1.209
750.0,1.209
751.0,1.197
752.0,1.202
753.0,1.208
754.0,1.211
755.0,1.205
756.0,1.204
757.0,1.206
758.0,1.191
759.0,1.169
760.0,0.2318
761.0,0.1291
762.0,0.6376
763.0,0.3405
764.0,0.4927
765.0,0.6381
766.0,0.7653
767.0,0.9477
768.0,1.079
769.0,1.099
770.0,1.133
771.0,1.141
772.0,1.143
773.0,1.151
774.0,1.145
775.0,1.137
776.0,1.151
777.0,1.136
778.0,1.129
779.0,1.13
780.0,1.124
781.0,1.125
782.0,1.132
783.0,1.113
784.0,1.118
785.0,1.11
786.0,1.123
787.0,1.105
788.0,1.092
789.0,1.092
790.0,1.065
791.0,1.072
792.0,1.064
793.0,1.047
794.0,1.063
795.0,1.082
796.0,1.052
797.0,1.053
798.0,1.081
799.0,1.075
800.0,1.057
801.0,1.055
802.0,1.052
803.0,1.044
804.0,1.045
805.0,1.041
806.0,1.069
807.0,1.057
808.0,1.058
809.0,1.039
810.0,1.032
811.0,1.034
812.0,1.007
813.0,0.9874
814.0,0.8758
815.0,0.8703
816.0,0.8112
817.0,0.8253
818.0,0.796
819.0,0.884
820.0,0.835
821.0,0.9677
822.0,0.9415
823.0,0.6537
824.0,0.9171
825.0,0.9517
826.0,0.9182
827.0,0.9664
828.0,0.8269
829.0,0.9124
830.0,0.9013
831.0,0.9043
832.0,0.878
833.0,0.9303
834.0,0.8999
835.0,0.9835
836.0,0.9448
837.0,0.9862
838.0,0.9571
839.0,0.9712
840.0,0.9922
841.0,0.9789
842.0,0.9801
843.0,0.9787
844.0,0.9657
845.0,0.9977
846.0,0.9933
847.0,0.9746
848.0,0.9691
849.0,0.9416
850.0,0.9022
851.0,0.9557
852.0,0.9489
853.0,0.9131
854.0,0.7888
855.0,0.8663
856.0,0.9469
857.0,0.9678
858.0,0.9609
859.0,0.9617
860.0,0.9633
861.0,0.9582
862.0,0.9733
863.0,0.9963
864.0,0.9466
865.0,0.9383
866.0,0.8438
867.0,0.8806
868.0,0.9583
869.0,0.9385
870.0,0.9653
871.0,0.9523
872.0,0.949
873.0,0.9471
874.0,0.9359
875.0,0.9171
876.0,0.9267
877.0,0.9361
878.0,0.9464
879.0,0.9319
880.0,0.912
881.0,0.8986
882.0,0.9181
883.0,0.9209
884.0,0.9169
885.0,0.9239
886.0,0.8812
887.0,0.8901
888.0,0.9036
889.0,0.9134
890.0,0.9065
891.0,0.9047
892.0,0.8794
893.0,0.853
894.0,0.825
895.0,0.782
896.0,0.7379
897.0,0.6372
898.0,0.6935
899.0,0.5316
900.0,0.7081
901.0,0.557
902.0,0.6485
903.0,0.6566
904.0,0.8193
905.0,0.7923
906.0,0.7424
907.0,0.6081
908.0,0.6195
909.0,0.6688
910.0,0.5955
911.0,0.6323
912.0,0.6602
913.0,0.6047
914.0,0.5989
915.0,0.6488
916.0,0.5505
917.0,0.6942
918.0,0.5646
919.0,0.7059
920.0,0.7111
921.0,0.7391
922.0,0.6636
923.0,0.7139
924.0,0.6804
925.0,0.6658
926.0,0.6731
927.0,0.7509
928.0,0.5583
929.0,0.5116
930.0,0.405
931.0,0.3833
932.0,0.2789
933.0,0.2281
934.0,0.1281
935.0,0.2323
936.0,0.147
937.0,0.1492
938.0,0.1827
939.0,0.3716
940.0,0.445
941.0,0.3385
942.0,0.3904
943.0,0.2588
944.0,0.2708
945.0,0.3486
946.0,0.1801
947.0,0.3509
948.0,0.2583
949.0,0.4671
950.0,0.1337
951.0,0.4596
952.0,0.2503
953.0,0.3211
954.0,0.3913
955.0,0.3246
956.0,0.3139
957.0,0.251
958.0,0.4414
959.0,0.3533
960.0,0.3959
961.0,0.4424
962.0,0.4188
963.0,0.4811
964.0,0.4414
965.0,0.4792
966.0,0.4797
967.0,0.4778
968.0,0.6346
969.0,0.6633
970.0,0.6101
971.0,0.6957
972.0,0.666
973.0,0.5826
974.0,0.5533
975.0,0.5734
976.0,0.5459
977.0,0.6185
978.0,0.5887
979.0,0.6158
980.0,0.5795
981.0,0.6918
982.0,0.6625
983.0,0.6366
984.0,0.7119
985.0,0.6601
986.0,0.7238
987.0,0.7104
988.0,0.7091
989.0,0.7213
990.0,0.7049
991.0,0.7236
992.0,0.7277
993.0,0.7123
994.0,0.7275
995.0,0.7265
996.0,0.7235
997.0,0.7245
998.0,0.7212
999.0,0.7185
1000.0,0.7136
1001.0,0.7224
1002.0,0.7032
1003.0,0.7097
1004.0,0.6926
1005.0,0.667
1006.0,0.6932
1007.0,0.7079
1008.0,0.7042
1009.0,0.7006
1010.0,0.6977
1011.0,0.7044
1012.0,0.6984
1013.0,0.7027
1014.0,0.6978
1015.0,0.6932
1016.0,0.6902
1017.0,0.692
1018.0,0.6893
1019.0,0.6749
1020.0,0.6858
1021.0,0.6848
1022.0,0.6796
1023.0,0.6869
1024.0,0.6782
1025.0,0.6864
1026.0,0.6835
1027.0,0.6819
1028.0,0.6806
1029.0,0.6726
1030.0,0.6771
1031.0,0.6745
1032.0,0.6725
1033.0,0.6624
1034.0,0.6625
1035.0,0.6645
1036.0,0.668
1037.0,0.6572
1038.0,0.6601
1039.0,0.6598
1040.0,0.6572
1041.0,0.6598
1042.0,0.6552
1043.0,0.6532
1044.0,0.6555
1045.0,0.6467
1046.0,0.6396
1047.0,0.6454
1048.0,0.6489
1049.0,0.6466
1050.0,0.6437
1051.0,0.6429
1052.0,0.6403
1053.0,0.6352
1054.0,0.6367
1055.0,0.6371
1056.0,0.6349
1057.0,0.633
1058.0,0.6175
1059.0,0.6182
1060.0,0.6173
1061.0,0.6166
1062.0,0.6199
1063.0,0.6138
1064.0,0.6211
1065.0,0.6167
1066.0,0.6045
1067.0,0.6123
1068.0,0.599
1069.0,0.5805
1070.0,0.6003
1071.0,0.6094
1072.0,0.6026
1073.0,0.5939
1074.0,0.609
1075.0,0.5792
1076.0,0.6086
1077.0,0.5981
1078.0,0.5869
1079.0,0.5988
1080.0,0.5889
1081.0,0.5704
1082.0,0.579
1083.0,0.5807
1084.0,0.5692
1085.0,0.5903
1086.0,0.5397
1087.0,0.5563
1088.0,0.5803
1089.0,0.5631
1090.0,0.5511
1091.0,0.5786
1092.0,0.577
1093.0,0.4911
1094.0,0.5282
1095.0,0.5114
1096.0,0.4903
1097.0,0.5637
1098.0,0.4828
1099.0,0.5034
1100.0,0.4688
1101.0,0.4744
1102.0,0.4536
1103.0,0.4496
1104.0,0.4501
1105.0,0.4921
1106.0,0.3796
1107.0,0.468
1108.0,0.3986
1109.0,0.399
1110.0,0.4642
1111.0,0.3174
1112.0,0.3958
1113.0,0.2545
1114.0,0.2842
1115.0,0.2357
1116.0,0.1897
1117.0,0.07123
1118.0,0.2059
1119.0,0.1034
1120.0,0.1302
1121.0,0.1721
1122.0,0.07346
1123.0,0.1176
1124.0,0.09932
1125.0,0.1293
1126.0,0.046
1127.0,0.1457
1128.0,0.08827
1129.0,0.09351
1130.0,0.06195
1131.0,0.2737
1132.0,0.2153
1133.0,0.1378
1134.0,0.03602
1135.0,0.01346
1136.0,0.1155
1137.0,0.2693
1138.0,0.1901
1139.0,0.2807
1140.0,0.2356
1141.0,0.1806
1142.0,0.2072
1143.0,0.2931
1144.0,0.1038
1145.0,0.1329
1146.0,0.1434
1147.0,0.05146
1148.0,0.2537
1149.0,0.2035
1150.0,0.1115
1151.0,0.1886
1152.0,0.2312
1153.0,0.2246
1154.0,0.129
1155.0,0.2929
1156.0,0.2644
1157.0,0.2957
1158.0,0.2925
1159.0,0.3147
1160.0,0.2699
1161.0,0.3306
1162.0,0.3324
1163.0,0.4452
1164.0,0.3833
1165.0,0.363
1166.0,0.3595
1167.0,0.3908
1168.0,0.3954
1169.0,0.4043
1170.0,0.4382
1171.0,0.4275
1172.0,0.4344
1173.0,0.4373
1174.0,0.3159
1175.0,0.4266
1176.0,0.4671
1177.0,0.4497
1178.0,0.3405
1179.0,0.4708
1180.0,0.4224
1181.0,0.4357
1182.0,0.3038
1183.0,0.4286
1184.0,0.4027
1185.0,0.3896
1186.0,0.4586
1187.0,0.4379
1188.0,0.3093
1189.0,0.4082
1190.0,0.4482
1191.0,0.4274
1192.0,0.4543
1193.0,0.436
1194.0,0.4489
1195.0,0.4259
1196.0,0.411
1197.0,0.4485
1198.0,0.4113
1199.0,0.3528
1200.0,0.4306
1201.0,0.4164
1202.0,0.4133
1203.0,0.41
1204.0,0.3601
1205.0,0.4221
1206.0,0.4646
1207.0,0.4126
1208.0,0.4052
1209.0,0.4133
1210.0,0.4299
1211.0,0.4106
1212.0,0.407
1213.0,0.45
1214.0,0.4162
1215.0,0.4086
1216.0,0.4485
1217.0,0.4373
1218.0,0.445
1219.0,0.4398
1220.0,0.4453
1221.0,0.4495
1222.0,0.4381
1223.0,0.4343
1224.0,0.4321
1225.0,0.4467
1226.0,0.4493
1227.0,0.416
1228.0,0.4512
1229.0,0.4493
1230.0,0.442
1231.0,0.4535
1232.0,0.4509
1233.0,0.4367
1234.0,0.4529
1235.0,0.4502
1236.0,0.4533
1237.0,0.4476
1238.0,0.4518
1239.0,0.446
1240.0,0.4477
1241.0,0.4459
1242.0,0.4446
1243.0,0.441
1244.0,0.4443
1245.0,0.4461
1246.0,0.4435
1247.0,0.4419
1248.0,0.4417
1249.0,0.443
1250.0,0.4404
1251.0,0.435
1252.0,0.4348
1253.0,0.4317
1254.0,0.4278
1255.0,0.4345
1256.0,0.4231
1257.0,0.421
1258.0,0.4282
1259.0,0.414
1260.0,0.416
1261.0,0.3943
1262.0,0.3833
1263.0,0.3841
1264.0,0.3565
1265.0,0.3816
1266.0,0.3683
1267.0,0.374
1268.0,0.356
1269.0,0.2293
1270.0,0.373
1271.0,0.3928
1272.0,0.3939
1273.0,0.3899
1274.0,0.3909
1275.0,0.3963
1276.0,0.3998
1277.0,0.4021
1278.0,0.4092
1279.0,0.4055
1280.0,0.4004
1281.0,0.3817
1282.0,0.3673
1283.0,0.3957
1284.0,0.4053
1285.0,0.4079
1286.0,0.4131
1287.0,0.4073
1288.0,0.407
1289.0,0.3952
1290.0,0.4034
1291.0,0.4088
1292.0,0.386
1293.0,0.4014
1294.0,0.3986
1295.0,0.3972
1296.0,0.3804
1297.0,0.3608
1298.0,0.3865
1299.0,0.4017
1300.0,0.3433
1301.0,0.3532
1302.0,0.3852
1303.0,0.3384
1304.0,0.2916
1305.0,0.3775
1306.0,0.3777
1307.0,0.2969
1308.0,0.3385
1309.0,0.3751
1310.0,0.2914
1311.0,0.3252
1312.0,0.3169
1313.0,0.3112
1314.0,0.2796
1315.0,0.2766
1316.0,0.3206
1317.0,0.304
1318.0,0.3292
1319.0,0.2607
1320.0,0.2519
1321.0,0.2922
1322.0,0.2957
1323.0,0.2252
1324.0,0.2557
1325.0,0.3162
1326.0,0.2731
1327.0,0.2609
1328.0,0.2258
1329.0,0.1718
1330.0,0.2225
1331.0,0.1368
1332.0,0.1404
1333.0,0.1949
1334.0,0.1639
1335.0,0.2244
1336.0,0.1787
1337.0,0.1587
1338.0,0.1717
1339.0,0.1706
1340.0,0.1653
1341.0,0.1628
1342.0,0.1709
1343.0,0.1186
1344.0,0.07087
1345.0,0.102
1346.0,0.05247
1347.0,0.05366
1348.0,0.003811
1349.0,0.01334
1350.0,0.01361
1351.0,0.003588
1352.0,0.001059
1353.0,5.968e-05
1354.0,0.000193
1355.0,1.909e-06
1356.0,2.938e-05
1357.0,4.464e-05
1358.0,2.242e-06
1359.0,3.295e-07
1360.0,1.084e-06
1361.0,1.678e-09
1362.0,5.296e-12
1363.0,1.535e-06
1364.0,6.422e-07
1365.0,2.22e-12
1366.0,6.443e-06
1367.0,2.574e-06
1368.0,2.44e-14
1369.0,2.423e-07
1370.0,1.275e-07
1371.0,7.853e-09
1372.0,1.417e-06
1373.0,2.579e-05
1374.0,0.0001118
1375.0,0.0002037
1376.0,0.0001731
1377.0,8.057e-05
1378.0,0.0007643
1379.0,3.396e-05
1380.0,5.107e-05
1381.0,1.395e-06
1382.0,1.301e-06
1383.0,2.072e-08
1384.0,2.812e-07
1385.0,1.146e-06
1386.0,1.213e-06
1387.0,0.000121
1388.0,2.401e-06
1389.0,0.0003803
1390.0,0.0003276
1391.0,0.000222
1392.0,1.481e-05
1393.0,7.564e-05
1394.0,4.374e-05
1395.0,3.499e-07
1396.0,2.316e-09
1397.0,3.1e-05
1398.0,0.0008649
1399.0,0.000548
1400.0,1.09e-09
1401.0,4.042e-09
1402.0,0.001391
1403.0,0.001779
1404.0,0.0005463
1405.0,1.801e-07
1406.0,0.001463
1407.0,0.0001268
1408.0,0.001191
1409.0,0.0004205
1410.0,0.0003263
1411.0,0.001559
1412.0,0.002056
1413.0,0.01983
1414.0,0.000256
1415.0,0.0001258
1416.0,0.03157
1417.0,0.00983
1418.0,0.01124
1419.0,0.001757
1420.0,0.006885
1421.0,0.007449
1422.0,0.04114
1423.0,0.00804
1424.0,0.01501
1425.0,0.02219
1426.0,0.02495
1427.0,0.04538
1428.0,0.003605
1429.0,0.03415
1430.0,0.05769
1431.0,0.06326
1432.0,0.002845
1433.0,0.04038
1434.0,0.02061
1435.0,0.02084
1436.0,0.03986
1437.0,0.03054
1438.0,0.01299
1439.0,0.05407
1440.0,0.04051
1441.0,0.03102
1442.0,0.03439
1443.0,0.04298
1444.0,0.05947
1445.0,0.04666
1446.0,0.02102
1447.0,0.03313
1448.0,0.1115
1449.0,0.09687
1450.0,0.02456
1451.0,0.009885
1452.0,0.05835
1453.0,0.07662
1454.0,0.1317
1455.0,0.06203
1456.0,0.08337
1457.0,0.112
1458.0,0.1322
1459.0,0.1563
1460.0,0.0813
1461.0,0.08481
1462.0,0.1246
1463.0,0.04013
