interpolation:linear
wavelength,value
280.0,4.163e-24
280.5,1.414e-22
281.0,7.816999999999999e-22
281.5,2.5730000000000002e-20
282.0,2.117e-19
282.5,8.302e-19
283.0,3.751e-18
283.5,7.157e-18
284.0,1.916e-16
284.5,6.724e-16
285.0,1.604e-15
285.5,1.259e-14
286.0,5.958e-14
286.5,3.475e-13
287.0,1.183e-12
287.5,5.508e-12
288.0,2.528e-11
288.5,1.014e-10
289.0,3.427e-10
289.5,1.286e-09
290.0,4.203e-09
290.5,9.771e-09
291.0,2.414e-08
291.5,8.106e-08
292.0,2.089e-07
292.5,3.173e-07
293.0,7.443e-07
293.5,2.015e-06
294.0,3.419e-06
294.5,6.078e-06
295.0,1.082e-05
295.5,2.656e-05
296.0,4.823e-05
296.5,6.337e-05
297.0,8.144e-05
297.5,0.000201
298.0,0.0002948
298.5,0.0002804
299.0,0.0005847
299.5,0.0008729
300.0,0.000907
300.5,0.001236
301.0,0.002017
301.5,0.002923
302.0,0.002391
302.5,0.004501
303.0,0.007685
303.5,0.009372
304.0,0.008593
304.5,0.0119
305.0,0.01621
305.5,0.01739
306.0,0.01648
306.5,0.01973
307.0,0.02664
307.5,0.03239
308.0,0.0339
308.5,0.03845
309.0,0.03414
309.5,0.0377
310.0,0.03731
310.5,0.06015
311.0,0.07453
311.5,0.07175
312.0,0.06908
312.5,0.08201
313.0,0.088
313.5,0.08726
314.0,0.1056
314.5,0.08933
315.0,0.1169
315.5,0.1009
316.0,0.0848
316.5,0.1177
317.0,0.147
317.5,0.1555
318.0,0.1187
318.5,0.1405
319.0,0.163
319.5,0.1394
320.0,0.1704
320.5,0.2029
321.0,0.1726
321.5,0.1654
322.0,0.187
322.5,0.163
323.0,0.1574
323.5,0.1829
324.0,0.2131
324.5,0.2209
325.0,0.2005
325.5,0.2516
326.0,0.2979
326.5,0.2933
327.0,0.2959
327.5,0.29
328.0,0.2668
328.5,0.2721
329.0,0.3184
329.5,0.3599
330.0,0.3671
330.5,0.3014
331.0,0.3106
331.5,0.312
332.0,0.3308
332.5,0.3251
333.0,0.3275
333.5,0.3028
334.0,0.3122
334.5,0.3548
335.0,0.331
335.5,0.3765
336.0,0.2614
336.5,0.3187
337.0,0.2645
337.5,0.3312
338.0,0.3196
338.5,0.3614
339.0,0.3609
339.5,0.3471
340.0,0.4186
340.5,0.3781
341.0,0.3634
341.5,0.3377
342.0,0.4058
342.5,0.3816
343.0,0.4193
343.5,0.3949
344.0,0.2968
344.5,0.2944
345.0,0.3951
345.5,0.406
346.0,0.3469
346.5,0.3945
347.0,0.4235
347.5,0.343
348.0,0.3939
348.5,0.3958
349.0,0.3685
349.5,0.3658
350.0,0.4539
350.5,0.4802
351.0,0.4297
351.5,0.4168
352.0,0.4504
352.5,0.3533
353.0,0.4467
353.5,0.4793
354.0,0.4993
354.5,0.508
355.0,0.5075
355.5,0.4598
356.0,0.4826
356.5,0.4133
357.0,0.3425
357.5,0.4205
358.0,0.3343
358.5,0.2865
359.0,0.4018
359.5,0.5131
360.0,0.5456
360.5,0.4374
361.0,0.3998
361.5,0.4613
362.0,0.3998
362.5,0.5545
363.0,0.4992
363.5,0.4608
364.0,0.5649
364.5,0.484
365.0,0.4942
365.5,0.6217
366.0,0.6602
366.5,0.6217
367.0,0.6069
367.5,0.6313
368.0,0.5537
368.5,0.56
369.0,0.6061
369.5,0.6475
370.0,0.6918
370.5,0.5381
371.0,0.5763
371.5,0.7226
372.0,0.4807
372.5,0.5777
373.0,0.5888
373.5,0.3839
374.0,0.559
374.5,0.4639
375.0,0.4519
375.5,0.6762
376.0,0.5618
376.5,0.5834
377.0,0.6189
377.5,0.7256
378.0,0.7882
378.5,0.7468
379.0,0.6177
379.5,0.5656
380.0,0.5894
380.5,0.7153
381.0,0.7181
381.5,0.5703
382.0,0.5075
382.5,0.4334
383.0,0.402
383.5,0.3879
384.0,0.4287
384.5,0.6317
385.0,0.6276
385.5,0.5855
386.0,0.5024
386.5,0.6611
387.0,0.5504
387.5,0.6194
388.0,0.5729
388.5,0.5673
389.0,0.6136
389.5,0.7445
390.0,0.7485
390.5,0.69
391.0,0.8137
391.5,0.8314
392.0,0.7016
392.5,0.6291
393.0,0.3506
393.5,0.2553
394.0,0.5203
394.5,0.6625
395.0,0.8098
395.5,0.8241
396.0,0.7156
396.5,0.419
397.0,0.3149
397.5,0.6415
398.0,0.9
398.5,0.9317
399.0,1.01
399.5,1.008
400.0,1.049
401.0,1.08
402.0,1.143
403.0,1.088
404.0,1.075
405.0,1.078
406.0,1.063
407.0,1.048
408.0,1.092
409.0,1.172
410.0,1.026
411.0,1.114
412.0,1.2
413.0,1.173
414.0,1.19
415.0,1.196
416.0,1.219
417.0,1.192
418.0,1.173
419.0,1.191
420.0,1.189
421.0,1.246
422.0,1.187
423.0,1.162
424.0,1.232
425.0,1.232
426.0,1.202
427.0,1.182
428.0,1.154
429.0,1.095
430.0,0.96
431.0,0.9538
432.0,1.234
433.0,1.243
434.0,1.156
435.0,1.21
436.0,1.365
437.0,1.349
438.0,1.23
439.0,1.275
440.0,1.318
441.0,1.367
442.0,1.469
443.0,1.434
444.0,1.467
445.0,1.438
446.0,1.374
447.0,1.487
448.0,1.514
449.0,1.521
450.0,1.566
451.0,1.627
452.0,1.57
453.0,1.478
454.0,1.545
455.0,1.557
456.0,1.596
457.0,1.625
458.0,1.573
459.0,1.567
460.0,1.574
461.0,1.612
462.0,1.626
463.0,1.617
464.0,1.591
465.0,1.572
466.0,1.589
467.0,1.563
468.0,1.584
469.0,1.594
470.0,1.546
471.0,1.545
472.0,1.63
473.0,1.612
474.0,1.617
475.0,1.634
476.0,1.588
477.0,1.596
478.0,1.642
479.0,1.633
480.0,1.637
481.0,1.669
482.0,1.679
483.0,1.659
484.0,1.627
485.0,1.551
486.0,1.357
487.0,1.423
488.0,1.563
489.0,1.57
490.0,1.653
491.0,1.625
492.0,1.536
493.0,1.588
494.0,1.606
495.0,1.621
496.0,1.633
497.0,1.66
498.0,1.584
499.0,1.606
500.0,1.561
501.0,1.535
502.0,1.516
503.0,1.581
504.0,1.547
505.0,1.6
506.0,1.653
507.0,1.574
508.0,1.525
509.0,1.569
510.0,1.561
511.0,1.603
512.0,1.621
513.0,1.536
514.0,1.526
515.0,1.512
516.0,1.51
517.0,1.343
518.0,1.413
519.0,1.483
520.0,1.538
521.0,1.554
522.0,1.557
523.0,1.531
524.0,1.587
525.0,1.608
526.0,1.538
527.0,1.451
528.0,1.537
529.0,1.621
530.0,1.6
531.0,1.625
532.0,1.57
533.0,1.525
534.0,1.571
535.0,1.606
536.0,1.621
537.0,1.558
538.0,1.586
539.0,1.574
540.0,1.51
541.0,1.522
542.0,1.572
543.0,1.555
544.0,1.584
545.0,1.58
546.0,1.589
547.0,1.588
548.0,1.57
549.0,1.575
550.0,1.595
551.0,1.576
552.0,1.588
553.0,1.561
554.0,1.599
555.0,1.603
556.0,1.584
557.0,1.536
558.0,1.526
559.0,1.499
560.0,1.519
561.0,1.54
562.0,1.53
563.0,1.574
564.0,1.533
565.0,1.521
566.0,1.5
567.0,1.53
568.0,1.519
569.0,1.488
570.0,1.488
571.0,1.478
572.0,1.518
573.0,1.535
574.0,1.531
575.0,1.504
576.0,1.491
577.0,1.508
578.0,1.485
579.0,1.489
580.0,1.515
581.0,1.522
582.0,1.549
583.0,1.552
584.0,1.565
585.0,1.527
586.0,1.496
587.0,1.531
588.0,1.5
589.0,1.34
590.0,1.401
591.0,1.476
592.0,1.462
593.0,1.48
594.0,1.472
595.0,1.44
596.0,1.489
597.0,1.475
598.0,1.469
599.0,1.47
600.0,1.471
601.0,1.458
602.0,1.448
603.0,1.472
604.0,1.496
605.0,1.489
606.0,1.482
607.0,1.496
608.0,1.48
609.0,1.482
610.0,1.471
611.0,1.479
612.0,1.474
613.0,1.456
614.0,1.436
615.0,1.467
616.0,1.419
617.0,1.416
618.0,1.47
619.0,1.456
620.0,1.465
621.0,1.468
622.0,1.452
623.0,1.431
624.0,1.406
625.0,1.403
626.0,1.425
627.0,1.443
628.0,1.37
629.0,1.417
630.0,1.386
631.0,1.41
632.0,1.392
633.0,1.432
634.0,1.416
635.0,1.437
636.0,1.417
637.0,1.44
638.0,1.452
639.0,1.436
640.0,1.421
641.0,1.42
642.0,1.413
643.0,1.432
644.0,1.427
645.0,1.43
646.0,1.4
647.0,1.39
648.0,1.392
649.0,1.366
650.0,1.365
651.0,1.423
652.0,1.373
653.0,1.405
654.0,1.389
655.0,1.342
656.0,1.186
657.0,1.218
658.0,1.363
659.0,1.372
660.0,1.378
661.0,1.388
662.0,1.392
663.0,1.364
664.0,1.379
665.0,1.379
666.0,1.379
667.0,1.377
668.0,1.378
669.0,1.399
670.0,1.393
671.0,1.392
672.0,1.38
673.0,1.401
674.0,1.396
675.0,1.383
676.0,1.392
677.0,1.379
678.0,1.382
679.0,1.36
680.0,1.371
681.0,1.362
682.0,1.361
683.0,1.358
684.0,1.352
685.0,1.364
686.0,1.356
687.0,0.9985
688.0,1.123
689.0,1.125
690.0,1.165
691.0,1.209
692.0,1.239
693.0,1.231
694.0,1.221
695.0,1.26
696.0,1.262
697.0,1.325
698.0,1.305
699.0,1.283
700.0,1.268
701.0,1.259
702.0,1.264
703.0,1.266
704.0,1.301
705.0,1.304
706.0,1.3
707.0,1.301
708.0,1.304
709.0,1.302
710.0,1.304
711.0,1.302
712.0,1.296
713.0,1.285
714.0,1.29
715.0,1.253
716.0,1.255
717.0,1.125
718.0,1.04
719.0,0.9571
720.0,1.005
721.0,1.087
722.0,1.218
723.0,1.148
724.0,1.049
725.0,1.037
726.0,1.083
727.0,1.09
728.0,1.037
729.0,1.062
730.0,1.124
731.0,1.08
732.0,1.141
733.0,1.195
734.0,1.22
735.0,1.197
736.0,1.195
737.0,1.2
738.0,1.21
739.0,1.187
740.0,1.215
741.0,1.202
742.0,1.202
743.0,1.232
744.0,1.228
745.0,1.227
746.0,1.233
747.0,1.236
748.0,1.233
749.0,1.219
750.0,1.219
751.0,1.207
752.0,1.212
753.0,1.218
754.0,1.221
755.0,1.214
756.0,1.214
757.0,1.216
758.0,1.201
759.0,1.182
760.0,0.3019
761.0,0.1842
762.0,0.7062
763.0,0.4174
764.0,0.5694
765.0,0.707
766.0,0.8187
767.0,0.9856
768.0,1.101
769.0,1.116
770.0,1.145
771.0,1.15
772.0,1.151
773.0,1.159
774.0,1.154
775.0,1.145
776.0,1.159
777.0,1.143
778.0,1.137
779.0,1.138
780.0,1.131
781.0,1.133
782.0,1.14
783.0,1.12
784.0,1.125
785.0,1.118
786.0,1.13
787.0,1.114
788.0,1.102
789.0,1.103
790.0,1.079
791.0,1.083
792.0,1.075
793.0,1.058
794.0,1.07
795.0,1.09
796.0,1.064
797.0,1.066
798.0,1.09
799.0,1.084
800.0,1.068
801.0,1.066
802.0,1.063
803.0,1.056
804.0,1.057
805.0,1.051
806.0,1.077
807.0,1.065
808.0,1.066
809.0,1.049
810.0,1.042
811.0,1.047
812.0,1.023
813.0,1.005
814.0,0.9024
815.0,0.8964
816.0,0.8373
817.0,0.8503
818.0,0.8227
819.0,0.9037
820.0,0.8575
821.0,0.9806
822.0,0.9563
823.0,0.6858
824.0,0.936
825.0,0.9651
826.0,0.9351
827.0,0.9798
828.0,0.8505
829.0,0.9283
830.0,0.9183
831.0,0.9209
832.0,0.8963
833.0,0.9433
834.0,0.9165
835.0,0.993
836.0,0.9592
837.0,0.9954
838.0,0.9683
839.0,0.9798
840.0,1.0
841.0,0.9879
842.0,0.9875
843.0,0.9845
844.0,0.9723
845.0,1.003
846.0,0.9985
847.0,0.9792
848.0,0.9744
849.0,0.9468
850.0,0.907
851.0,0.9616
852.0,0.9544
853.0,0.9178
854.0,0.7933
855.0,0.8705
856.0,0.9518
857.0,0.9724
858.0,0.9656
859.0,0.966
860.0,0.9675
861.0,0.9624
862.0,0.9774
863.0,1.001
864.0,0.9506
865.0,0.9422
866.0,0.8473
867.0,0.8842
868.0,0.9622
869.0,0.9423
870.0,0.9692
871.0,0.9561
872.0,0.9527
873.0,0.9508
874.0,0.9396
875.0,0.9207
876.0,0.9304
877.0,0.9398
878.0,0.9502
879.0,0.9356
880.0,0.9156
881.0,0.9025
882.0,0.9222
883.0,0.9247
884.0,0.9207
885.0,0.9277
886.0,0.8862
887.0,0.8941
888.0,0.9083
889.0,0.917
890.0,0.9114
891.0,0.9089
892.0,0.8852
893.0,0.8609
894.0,0.8368
895.0,0.7986
896.0,0.7562
897.0,0.6606
898.0,0.7145
899.0,0.5572
900.0,0.725
901.0,0.5833
902.0,0.6668
903.0,0.679
904.0,0.831
905.0,0.806
906.0,0.7573
907.0,0.6316
908.0,0.6419
909.0,0.6874
910.0,0.6219
911.0,0.6546
912.0,0.681
913.0,0.6319
914.0,0.6241
915.0,0.675
916.0,0.576
917.0,0.7152
918.0,0.5909
919.0,0.7248
920.0,0.7253
921.0,0.7525
922.0,0.6828
923.0,0.7265
924.0,0.7004
925.0,0.6855
926.0,0.693
927.0,0.7662
928.0,0.5895
929.0,0.5455
930.0,0.4406
931.0,0.4155
932.0,0.3113
933.0,0.2598
934.0,0.1567
935.0,0.2603
936.0,0.1714
937.0,0.175
938.0,0.2116
939.0,0.4028
940.0,0.4762
941.0,0.3708
942.0,0.422
943.0,0.2866
944.0,0.294
945.0,0.3804
946.0,0.2059
947.0,0.3852
948.0,0.2852
949.0,0.5034
950.0,0.1593
951.0,0.4936
952.0,0.2815
953.0,0.3529
954.0,0.421
955.0,0.3557
956.0,0.3401
957.0,0.2836
958.0,0.465
959.0,0.3819
960.0,0.4276
961.0,0.4705
962.0,0.4465
963.0,0.5064
964.0,0.4668
965.0,0.5035
966.0,0.5057
967.0,0.5043
968.0,0.648
969.0,0.6787
970.0,0.6274
971.0,0.7059
972.0,0.6776
973.0,0.6023
974.0,0.5737
975.0,0.5905
976.0,0.5672
977.0,0.6328
978.0,0.6065
979.0,0.6312
980.0,0.5962
981.0,0.7015
982.0,0.6752
983.0,0.6509
984.0,0.718
985.0,0.6726
986.0,0.7277
987.0,0.7167
988.0,0.7154
989.0,0.7238
990.0,0.7109
991.0,0.7264
992.0,0.7303
993.0,0.7172
994.0,0.7298
995.0,0.7285
996.0,0.7258
997.0,0.7266
998.0,0.7234
999.0,0.7206
1000.0,0.7163
1001.0,0.7245
1002.0,0.7076
1003.0,0.7119
1004.0,0.6953
1005.0,0.6688
1006.0,0.6955
1007.0,0.7099
1008.0,0.7067
1009.0,0.7035
1010.0,0.7009
1011.0,0.7064
1012.0,0.7009
1013.0,0.7045
1014.0,0.6996
1015.0,0.6951
1016.0,0.6921
1017.0,0.694
1018.0,0.691
1019.0,0.6774
1020.0,0.6876
1021.0,0.6865
1022.0,0.6816
1023.0,0.6889
1024.0,0.6812
1025.0,0.6881
1026.0,0.6855
1027.0,0.6839
1028.0,0.6825
1029.0,0.6746
1030.0,0.6788
1031.0,0.6763
1032.0,0.6742
1033.0,0.6641
1034.0,0.6641
1035.0,0.6662
1036.0,0.6698
1037.0,0.6589
1038.0,0.6619
1039.0,0.6616
1040.0,0.659
1041.0,0.6617
1042.0,0.6571
1043.0,0.6551
1044.0,0.6575
1045.0,0.6487
1046.0,0.6416
1047.0,0.6475
1048.0,0.6511
1049.0,0.6489
1050.0,0.646
1051.0,0.6453
1052.0,0.6428
1053.0,0.6378
1054.0,0.6393
1055.0,0.6399
1056.0,0.6379
1057.0,0.636
1058.0,0.6206
1059.0,0.6215
1060.0,0.6206
1061.0,0.62
1062.0,0.6234
1063.0,0.6175
1064.0,0.6247
1065.0,0.6207
1066.0,0.6081
1067.0,0.6161
1068.0,0.6029
1069.0,0.5841
1070.0,0.6043
1071.0,0.6126
1072.0,0.6064
1073.0,0.5975
1074.0,0.6118
1075.0,0.5844
1076.0,0.6115
1077.0,0.6024
1078.0,0.5917
1079.0,0.6013
1080.0,0.5932
1081.0,0.5757
1082.0,0.5822
1083.0,0.5834
1084.0,0.5752
1085.0,0.5943
1086.0,0.5475
1087.0,0.5612
1088.0,0.5834
1089.0,0.5685
1090.0,0.5582
1091.0,0.5824
1092.0,0.5803
1093.0,0.5014
1094.0,0.5321
1095.0,0.5209
1096.0,0.5017
1097.0,0.5667
1098.0,0.4948
1099.0,0.5147
1100.0,0.4828
1101.0,0.4875
1102.0,0.4682
1103.0,0.4655
1104.0,0.4659
1105.0,0.5038
1106.0,0.4016
1107.0,0.4817
1108.0,0.4182
1109.0,0.417
1110.0,0.4787
1111.0,0.3381
1112.0,0.4131
1113.0,0.2769
1114.0,0.3078
1115.0,0.2557
1116.0,0.2128
1117.0,0.08815
1118.0,0.2282
1119.0,0.121
1120.0,0.1525
1121.0,0.1974
1122.0,0.08991
1123.0,0.1376
1124.0,0.1162
1125.0,0.1497
1126.0,0.05898
1127.0,0.1683
1128.0,0.108
1129.0,0.1134
1130.0,0.07801
1131.0,0.302
1132.0,0.2402
1133.0,0.1613
1134.0,0.04708
1135.0,0.01738
1136.0,0.1378
1137.0,0.2993
1138.0,0.213
1139.0,0.3008
1140.0,0.2578
1141.0,0.2024
1142.0,0.2292
1143.0,0.3184
1144.0,0.12
1145.0,0.1553
1146.0,0.1676
1147.0,0.06621
1148.0,0.2758
1149.0,0.2255
1150.0,0.1287
1151.0,0.2115
1152.0,0.2541
1153.0,0.2431
1154.0,0.1521
1155.0,0.3141
1156.0,0.2861
1157.0,0.3162
1158.0,0.3126
1159.0,0.3328
1160.0,0.2898
1161.0,0.3471
1162.0,0.3496
1163.0,0.4555
1164.0,0.3969
1165.0,0.3801
1166.0,0.3736
1167.0,0.4038
1168.0,0.4094
1169.0,0.4169
1170.0,0.4483
1171.0,0.4379
1172.0,0.443
1173.0,0.4473
1174.0,0.3331
1175.0,0.435
1176.0,0.4717
1177.0,0.457
1178.0,0.3536
1179.0,0.4752
1180.0,0.4315
1181.0,0.4445
1182.0,0.3181
1183.0,0.4361
1184.0,0.4124
1185.0,0.4012
1186.0,0.4647
1187.0,0.446
1188.0,0.3244
1189.0,0.4164
1190.0,0.4542
1191.0,0.437
1192.0,0.4599
1193.0,0.4428
1194.0,0.4549
1195.0,0.4343
1196.0,0.4209
1197.0,0.4529
1198.0,0.4176
1199.0,0.3645
1200.0,0.4376
1201.0,0.4252
1202.0,0.4209
1203.0,0.4175
1204.0,0.3704
1205.0,0.4279
1206.0,0.4675
1207.0,0.4207
1208.0,0.4114
1209.0,0.4191
1210.0,0.4345
1211.0,0.4174
1212.0,0.4163
1213.0,0.4541
1214.0,0.4243
1215.0,0.4173
1216.0,0.4525
1217.0,0.4424
1218.0,0.449
1219.0,0.4443
1220.0,0.4492
1221.0,0.4527
1222.0,0.4421
1223.0,0.4387
1224.0,0.4373
1225.0,0.4499
1226.0,0.4518
1227.0,0.4215
1228.0,0.4531
1229.0,0.4519
1230.0,0.445
1231.0,0.4548
1232.0,0.4522
1233.0,0.4403
1234.0,0.4536
1235.0,0.4513
1236.0,0.4542
1237.0,0.4493
1238.0,0.4526
1239.0,0.4469
1240.0,0.4484
1241.0,0.4472
1242.0,0.4454
1243.0,0.4417
1244.0,0.4452
1245.0,0.4469
1246.0,0.4443
1247.0,0.4428
1248.0,0.443
1249.0,0.4439
1250.0,0.4415
1251.0,0.4364
1252.0,0.4358
1253.0,0.4336
1254.0,0.4302
1255.0,0.4357
1256.0,0.4258
1257.0,0.424
1258.0,0.43
1259.0,0.4181
1260.0,0.4199
1261.0,0.4009
1262.0,0.3914
1263.0,0.3922
1264.0,0.3678
1265.0,0.3896
1266.0,0.3783
1267.0,0.3826
1268.0,0.3666
1269.0,0.2535
1270.0,0.3822
1271.0,0.3991
1272.0,0.3998
1273.0,0.3961
1274.0,0.3967
1275.0,0.4016
1276.0,0.4046
1277.0,0.4062
1278.0,0.4121
1279.0,0.4086
1280.0,0.4033
1281.0,0.384
1282.0,0.3685
1283.0,0.3972
1284.0,0.407
1285.0,0.4095
1286.0,0.4142
1287.0,0.4093
1288.0,0.4088
1289.0,0.3987
1290.0,0.405
1291.0,0.4101
1292.0,0.3907
1293.0,0.4035
1294.0,0.401
1295.0,0.4004
1296.0,0.3858
1297.0,0.3678
1298.0,0.3902
1299.0,0.4035
1300.0,0.3513
1301.0,0.3601
1302.0,0.3888
1303.0,0.3456
1304.0,0.304
1305.0,0.3816
1306.0,0.3821
1307.0,0.3073
1308.0,0.3447
1309.0,0.3799
1310.0,0.3019
1311.0,0.3326
1312.0,0.325
1313.0,0.3202
1314.0,0.2899
1315.0,0.2882
1316.0,0.3288
1317.0,0.3125
1318.0,0.3359
1319.0,0.2735
1320.0,0.2626
1321.0,0.3021
1322.0,0.3067
1323.0,0.2399
1324.0,0.2682
1325.0,0.3247
1326.0,0.2844
1327.0,0.2727
1328.0,0.2381
1329.0,0.1865
1330.0,0.2388
1331.0,0.1537
1332.0,0.1554
1333.0,0.2137
1334.0,0.1772
1335.0,0.2389
1336.0,0.1937
1337.0,0.1741
1338.0,0.188
1339.0,0.186
1340.0,0.1785
1341.0,0.1797
1342.0,0.1884
1343.0,0.1394
1344.0,0.08319
1345.0,0.1186
1346.0,0.06711
1347.0,0.06961
1348.0,0.006305
1349.0,0.02048
1350.0,0.01982
1351.0,0.006476
1352.0,0.002361
1353.0,0.0001734
1354.0,0.0004784
1355.0,7.896e-06
1356.0,8.74e-05
1357.0,0.0001314
1358.0,9.088e-06
1359.0,1.927e-06
1360.0,5.008e-06
1361.0,1.739e-08
1362.0,8.005e-11
1363.0,7.653e-06
1364.0,3.375e-06
1365.0,5.064e-11
1366.0,2.901e-05
1367.0,1.121e-05
1368.0,1.282e-12
1369.0,1.313e-06
1370.0,8.045e-07
1371.0,6.124e-08
1372.0,6.206e-06
1373.0,8.634e-05
1374.0,0.0003134
1375.0,0.0005639
1376.0,0.0004256
1377.0,0.0002071
1378.0,0.001772
1379.0,8.855e-05
1380.0,0.0001464
1381.0,4.568e-06
1382.0,5.944e-06
1383.0,1.129e-07
1384.0,1.611e-06
1385.0,4.442e-06
1386.0,6.13e-06
1387.0,0.0003685
1388.0,7.764e-06
1389.0,0.000968
1390.0,0.0008293
1391.0,0.0005904
1392.0,4.289e-05
1393.0,0.0001973
1394.0,0.0001483
1395.0,1.512e-06
1396.0,2.164e-08
1397.0,8.709e-05
1398.0,0.002028
1399.0,0.001289
1400.0,1.244e-08
1401.0,3.495e-08
1402.0,0.002617
1403.0,0.003475
1404.0,0.001088
1405.0,8.898e-07
1406.0,0.003101
1407.0,0.0002646
1408.0,0.002502
1409.0,0.001006
1410.0,0.0007335
1411.0,0.003027
1412.0,0.003749
1413.0,0.02936
1414.0,0.0005679
1415.0,0.0002985
1416.0,0.04202
1417.0,0.01496
1418.0,0.01714
1419.0,0.00278
1420.0,0.01059
1421.0,0.01162
1422.0,0.05415
1423.0,0.01113
1424.0,0.02032
1425.0,0.0306
1426.0,0.03278
1427.0,0.05572
1428.0,0.006065
1429.0,0.04364
1430.0,0.06955
1431.0,0.07519
1432.0,0.004843
1433.0,0.04956
1434.0,0.02609
1435.0,0.02905
1436.0,0.05129
1437.0,0.03935
1438.0,0.01797
1439.0,0.06763
1440.0,0.05095
1441.0,0.04106
1442.0,0.04502
1443.0,0.05315
1444.0,0.07223
1445.0,0.05919
1446.0,0.02746
1447.0,0.04321
1448.0,0.1267
1449.0,0.1127
1450.0,0.03196
1451.0,0.01354
1452.0,0.07038
1453.0,0.09083
1454.0,0.1468
1455.0,0.07264
1456.0,0.09902
1457.0,0.1274
1458.0,0.145
1459.0,0.1722
1460.0,0.09252
1461.0,0.09884
1462.0,0.1405
1463.0,0.04848
1464.0,0.1623
1465.0,0.09863
1466.0,0.07372
1467.0,0.04136
