interpolation:linear
wavelength,value
280.0,4.322e-22
280.5,1.0930000000000001e-20
281.0,5.423000000000001e-20
281.5,1.342e-18
282.0,9.281e-18
282.5,3.238e-17
283.0,1.287e-16
283.5,2.302e-16
284.0,4.577e-15
284.5,1.402e-14
285.0,2.889e-14
285.5,1.907e-13
286.0,8.413e-13
286.5,4.251e-12
287.0,1.302e-11
287.5,5.272e-11
288.0,2.031e-10
288.5,7.419e-10
289.0,2.278e-09
289.5,7.697e-09
290.0,2.306e-08
290.5,4.988e-08
291.0,1.13e-07
291.5,3.395e-07
292.0,7.996e-07
292.5,1.154e-06
293.0,2.537e-06
293.5,6.285e-06
294.0,1.004e-05
294.5,1.706e-05
295.0,2.871e-05
295.5,6.566e-05
296.0,0.0001136
296.5,0.0001426
297.0,0.0001768
297.5,0.0004148
298.0,0.0005839
298.5,0.0005388
299.0,0.001092
299.5,0.001558
300.0,0.00158
300.5,0.002105
301.0,0.003319
301.5,0.004682
302.0,0.003779
302.5,0.006949
303.0,0.01153
303.5,0.01383
304.0,0.01258
304.5,0.01709
305.0,0.02272
305.5,0.02401
306.0,0.02262
306.5,0.02682
307.0,0.03556
307.5,0.04252
308.0,0.04435
308.5,0.04989
309.0,0.04401
309.5,0.04777
310.0,0.0469
310.5,0.07528
311.0,0.09267
311.5,0.08893
312.0,0.08456
312.5,0.09957
313.0,0.1064
313.5,0.1057
314.0,0.1268
314.5,0.1061
315.0,0.1384
315.5,0.12
316.0,0.09994
316.5,0.1377
317.0,0.1719
317.5,0.182
318.0,0.1382
318.5,0.1621
319.0,0.1873
319.5,0.1611
320.0,0.1969
320.5,0.2325
321.0,0.1964
321.5,0.188
322.0,0.2137
322.5,0.1861
323.0,0.1788
323.5,0.2061
324.0,0.2397
324.5,0.249
325.0,0.2269
325.5,0.2836
326.0,0.3341
326.5,0.3277
327.0,0.3308
327.5,0.3244
328.0,0.2995
328.5,0.3038
329.0,0.354
329.5,0.3996
330.0,0.4076
330.5,0.3352
331.0,0.3455
331.5,0.3462
332.0,0.3659
332.5,0.3591
333.0,0.3618
333.5,0.3348
334.0,0.3452
334.5,0.3912
335.0,0.3644
335.5,0.4141
336.0,0.2873
336.5,0.3503
337.0,0.2909
337.5,0.3641
338.0,0.3506
338.5,0.396
339.0,0.3953
339.5,0.3799
340.0,0.4583
340.5,0.4137
341.0,0.3971
341.5,0.3687
342.0,0.4428
342.5,0.4161
343.0,0.4571
343.5,0.4303
344.0,0.3235
344.5,0.3205
345.0,0.4298
345.5,0.4414
346.0,0.3769
346.5,0.4283
347.0,0.4597
347.5,0.3722
348.0,0.4271
348.5,0.4289
349.0,0.3991
349.5,0.396
350.0,0.4911
350.5,0.5193
351.0,0.4645
351.5,0.4505
352.0,0.4866
352.5,0.3814
353.0,0.482
353.5,0.517
354.0,0.5384
354.5,0.5475
355.0,0.5468
355.5,0.4951
356.0,0.5194
356.5,0.4446
357.0,0.3684
357.5,0.4522
358.0,0.3593
358.5,0.3078
359.0,0.4315
359.5,0.5509
360.0,0.5856
360.5,0.4692
361.0,0.4287
361.5,0.4945
362.0,0.4283
362.5,0.5937
363.0,0.5342
363.5,0.4929
364.0,0.604
364.5,0.5173
365.0,0.528
365.5,0.664
366.0,0.7048
366.5,0.6634
367.0,0.6474
367.5,0.6733
368.0,0.5903
368.5,0.5967
369.0,0.6457
369.5,0.6895
370.0,0.7364
370.5,0.5726
371.0,0.613
371.5,0.7684
372.0,0.511
372.5,0.6139
373.0,0.6255
373.5,0.4076
374.0,0.5934
374.5,0.4923
375.0,0.4794
375.5,0.7172
376.0,0.5957
376.5,0.6185
377.0,0.6559
377.5,0.7686
378.0,0.8348
378.5,0.7907
379.0,0.6539
379.5,0.5986
380.0,0.6236
380.5,0.7565
381.0,0.7593
381.5,0.6028
382.0,0.5361
382.5,0.4577
383.0,0.4244
383.5,0.4094
384.0,0.4523
384.5,0.6663
385.0,0.6618
385.5,0.6172
386.0,0.5294
386.5,0.6965
387.0,0.5797
387.5,0.6522
388.0,0.6031
388.5,0.5971
389.0,0.6455
389.5,0.7831
390.0,0.787
390.5,0.7254
391.0,0.8551
391.5,0.8736
392.0,0.737
392.5,0.6607
393.0,0.3681
393.5,0.2679
394.0,0.546
394.5,0.695
395.0,0.8493
395.5,0.8641
396.0,0.7502
396.5,0.4391
397.0,0.33
397.5,0.672
398.0,0.9426
398.5,0.9756
399.0,1.057
399.5,1.055
400.0,1.098
401.0,1.13
402.0,1.195
403.0,1.137
404.0,1.122
405.0,1.125
406.0,1.109
407.0,1.093
408.0,1.139
409.0,1.222
410.0,1.069
411.0,1.161
412.0,1.248
413.0,1.22
414.0,1.238
415.0,1.243
416.0,1.267
417.0,1.239
418.0,1.218
419.0,1.236
420.0,1.234
421.0,1.293
422.0,1.231
423.0,1.205
424.0,1.277
425.0,1.277
426.0,1.245
427.0,1.224
428.0,1.195
429.0,1.133
430.0,0.9928
431.0,0.9862
432.0,1.275
433.0,1.284
434.0,1.194
435.0,1.25
436.0,1.409
437.0,1.392
438.0,1.269
439.0,1.315
440.0,1.359
441.0,1.41
442.0,1.514
443.0,1.478
444.0,1.511
445.0,1.481
446.0,1.415
447.0,1.531
448.0,1.558
449.0,1.565
450.0,1.611
451.0,1.673
452.0,1.613
453.0,1.519
454.0,1.587
455.0,1.599
456.0,1.639
457.0,1.669
458.0,1.615
459.0,1.608
460.0,1.615
461.0,1.654
462.0,1.668
463.0,1.659
464.0,1.632
465.0,1.612
466.0,1.629
467.0,1.602
468.0,1.622
469.0,1.633
470.0,1.583
471.0,1.583
472.0,1.669
473.0,1.65
474.0,1.655
475.0,1.673
476.0,1.626
477.0,1.634
478.0,1.68
479.0,1.671
480.0,1.675
481.0,1.707
482.0,1.716
483.0,1.696
484.0,1.662
485.0,1.584
486.0,1.386
487.0,1.453
488.0,1.596
489.0,1.603
490.0,1.687
491.0,1.659
492.0,1.568
493.0,1.621
494.0,1.638
495.0,1.653
496.0,1.665
497.0,1.692
498.0,1.615
499.0,1.637
500.0,1.592
501.0,1.565
502.0,1.546
503.0,1.612
504.0,1.579
505.0,1.632
506.0,1.686
507.0,1.605
508.0,1.555
509.0,1.598
510.0,1.59
511.0,1.633
512.0,1.651
513.0,1.564
514.0,1.554
515.0,1.54
516.0,1.537
517.0,1.366
518.0,1.438
519.0,1.509
520.0,1.566
521.0,1.582
522.0,1.585
523.0,1.558
524.0,1.615
525.0,1.637
526.0,1.565
527.0,1.477
528.0,1.564
529.0,1.65
530.0,1.628
531.0,1.653
532.0,1.598
533.0,1.552
534.0,1.598
535.0,1.633
536.0,1.649
537.0,1.584
538.0,1.613
539.0,1.6
540.0,1.535
541.0,1.548
542.0,1.598
543.0,1.581
544.0,1.611
545.0,1.606
546.0,1.616
547.0,1.615
548.0,1.596
549.0,1.601
550.0,1.621
551.0,1.602
552.0,1.614
553.0,1.586
554.0,1.625
555.0,1.629
556.0,1.609
557.0,1.56
558.0,1.55
559.0,1.523
560.0,1.543
561.0,1.565
562.0,1.555
563.0,1.6
564.0,1.558
565.0,1.546
566.0,1.525
567.0,1.555
568.0,1.545
569.0,1.515
570.0,1.514
571.0,1.504
572.0,1.545
573.0,1.562
574.0,1.559
575.0,1.532
576.0,1.518
577.0,1.535
578.0,1.511
579.0,1.515
580.0,1.541
581.0,1.546
582.0,1.574
583.0,1.576
584.0,1.589
585.0,1.55
586.0,1.519
587.0,1.554
588.0,1.524
589.0,1.365
590.0,1.426
591.0,1.502
592.0,1.488
593.0,1.505
594.0,1.497
595.0,1.465
596.0,1.513
597.0,1.499
598.0,1.493
599.0,1.493
600.0,1.493
601.0,1.479
602.0,1.47
603.0,1.493
604.0,1.518
605.0,1.51
606.0,1.503
607.0,1.518
608.0,1.5
609.0,1.502
610.0,1.491
611.0,1.499
612.0,1.494
613.0,1.475
614.0,1.455
615.0,1.486
616.0,1.437
617.0,1.434
618.0,1.489
619.0,1.474
620.0,1.484
621.0,1.487
622.0,1.471
623.0,1.449
624.0,1.424
625.0,1.421
626.0,1.443
627.0,1.462
628.0,1.395
629.0,1.438
630.0,1.406
631.0,1.429
632.0,1.41
633.0,1.45
634.0,1.433
635.0,1.454
636.0,1.433
637.0,1.456
638.0,1.468
639.0,1.451
640.0,1.436
641.0,1.434
642.0,1.427
643.0,1.447
644.0,1.441
645.0,1.445
646.0,1.415
647.0,1.406
648.0,1.409
649.0,1.382
650.0,1.379
651.0,1.437
652.0,1.389
653.0,1.419
654.0,1.402
655.0,1.356
656.0,1.198
657.0,1.23
658.0,1.376
659.0,1.384
660.0,1.39
661.0,1.4
662.0,1.405
663.0,1.377
664.0,1.39
665.0,1.39
666.0,1.39
667.0,1.388
668.0,1.388
669.0,1.409
670.0,1.403
671.0,1.402
672.0,1.39
673.0,1.411
674.0,1.405
675.0,1.393
676.0,1.402
677.0,1.388
678.0,1.392
679.0,1.369
680.0,1.38
681.0,1.371
682.0,1.37
683.0,1.367
684.0,1.361
685.0,1.372
686.0,1.365
687.0,1.034
688.0,1.15
689.0,1.152
690.0,1.188
691.0,1.228
692.0,1.255
693.0,1.247
694.0,1.237
695.0,1.273
696.0,1.276
697.0,1.334
698.0,1.314
699.0,1.295
700.0,1.28
701.0,1.271
702.0,1.275
703.0,1.278
704.0,1.312
705.0,1.314
706.0,1.31
707.0,1.31
708.0,1.313
709.0,1.311
710.0,1.313
711.0,1.31
712.0,1.304
713.0,1.293
714.0,1.298
715.0,1.262
716.0,1.264
717.0,1.144
718.0,1.06
719.0,0.9772
720.0,1.026
721.0,1.103
722.0,1.229
723.0,1.162
724.0,1.066
725.0,1.056
726.0,1.101
727.0,1.107
728.0,1.056
729.0,1.078
730.0,1.139
731.0,1.097
732.0,1.155
733.0,1.205
734.0,1.229
735.0,1.206
736.0,1.205
737.0,1.21
738.0,1.218
739.0,1.194
740.0,1.222
741.0,1.208
742.0,1.207
743.0,1.238
744.0,1.233
745.0,1.233
746.0,1.238
747.0,1.241
748.0,1.238
749.0,1.224
750.0,1.224
751.0,1.211
752.0,1.217
753.0,1.223
754.0,1.226
755.0,1.219
756.0,1.219
757.0,1.221
758.0,1.206
759.0,1.188
760.0,0.3434
761.0,0.2191
762.0,0.7424
763.0,0.461
764.0,0.6111
765.0,0.7432
766.0,0.8461
767.0,1.005
768.0,1.111
769.0,1.124
770.0,1.15
771.0,1.155
772.0,1.156
773.0,1.163
774.0,1.158
775.0,1.149
776.0,1.163
777.0,1.147
778.0,1.141
779.0,1.142
780.0,1.135
781.0,1.136
782.0,1.144
783.0,1.124
784.0,1.129
785.0,1.121
786.0,1.134
787.0,1.119
788.0,1.108
789.0,1.108
790.0,1.086
791.0,1.089
792.0,1.08
793.0,1.063
794.0,1.074
795.0,1.094
796.0,1.071
797.0,1.072
798.0,1.094
799.0,1.089
800.0,1.073
801.0,1.072
802.0,1.068
803.0,1.062
804.0,1.062
805.0,1.056
806.0,1.081
807.0,1.069
808.0,1.07
809.0,1.053
810.0,1.047
811.0,1.053
812.0,1.03
813.0,1.014
814.0,0.9163
815.0,0.9101
816.0,0.8512
817.0,0.8635
818.0,0.8368
819.0,0.9139
820.0,0.8694
821.0,0.9871
822.0,0.9638
823.0,0.7033
824.0,0.9456
825.0,0.972
826.0,0.9438
827.0,0.9867
828.0,0.8629
829.0,0.9365
830.0,0.9272
831.0,0.9295
832.0,0.9059
833.0,0.9498
834.0,0.925
835.0,0.9977
836.0,0.9665
837.0,0.9999
838.0,0.9738
839.0,0.984
840.0,1.004
841.0,0.9923
842.0,0.9912
843.0,0.9873
844.0,0.9756
845.0,1.006
846.0,1.001
847.0,0.9815
848.0,0.977
849.0,0.9494
850.0,0.9094
851.0,0.9645
852.0,0.9571
853.0,0.9201
854.0,0.7955
855.0,0.8726
856.0,0.9543
857.0,0.9746
858.0,0.9679
859.0,0.9682
860.0,0.9695
861.0,0.9645
862.0,0.9794
863.0,1.003
864.0,0.9525
865.0,0.9441
866.0,0.849
867.0,0.886
868.0,0.9641
869.0,0.9441
870.0,0.971
871.0,0.9579
872.0,0.9545
873.0,0.9526
874.0,0.9414
875.0,0.9224
876.0,0.9322
877.0,0.9415
878.0,0.9521
879.0,0.9374
880.0,0.9174
881.0,0.9044
882.0,0.9242
883.0,0.9265
884.0,0.9226
885.0,0.9296
886.0,0.8886
887.0,0.8961
888.0,0.9107
889.0,0.9188
890.0,0.9138
891.0,0.911
892.0,0.8881
893.0,0.8649
894.0,0.8428
895.0,0.8071
896.0,0.7658
897.0,0.6732
898.0,0.7255
899.0,0.5712
900.0,0.7339
901.0,0.5975
902.0,0.6764
903.0,0.6909
904.0,0.8369
905.0,0.8131
906.0,0.765
907.0,0.644
908.0,0.6539
909.0,0.6972
910.0,0.6361
911.0,0.6666
912.0,0.692
913.0,0.6464
914.0,0.6377
915.0,0.6886
916.0,0.5899
917.0,0.726
918.0,0.6052
919.0,0.7346
920.0,0.7329
921.0,0.7594
922.0,0.6929
923.0,0.733
924.0,0.7106
925.0,0.6958
926.0,0.7031
927.0,0.7738
928.0,0.606
929.0,0.5636
930.0,0.4602
931.0,0.4329
932.0,0.3291
933.0,0.2776
934.0,0.1735
935.0,0.2758
936.0,0.1854
937.0,0.19
938.0,0.2282
939.0,0.4197
940.0,0.4929
941.0,0.3885
942.0,0.4389
943.0,0.3019
944.0,0.3067
945.0,0.3979
946.0,0.2205
947.0,0.4041
948.0,0.3003
949.0,0.5228
950.0,0.1745
951.0,0.5117
952.0,0.2992
953.0,0.3705
954.0,0.4371
955.0,0.3728
956.0,0.3551
957.0,0.3021
958.0,0.4777
959.0,0.3977
960.0,0.4449
961.0,0.4857
962.0,0.4616
963.0,0.52
964.0,0.4807
965.0,0.5165
966.0,0.5197
967.0,0.5185
968.0,0.655
969.0,0.6864
970.0,0.6365
971.0,0.7111
972.0,0.6836
973.0,0.6127
974.0,0.5845
975.0,0.5996
976.0,0.5785
977.0,0.6404
978.0,0.6159
979.0,0.6392
980.0,0.605
981.0,0.7064
982.0,0.6816
983.0,0.6583
984.0,0.721
985.0,0.6789
986.0,0.7297
987.0,0.7197
988.0,0.7185
989.0,0.725
990.0,0.7137
991.0,0.7278
992.0,0.7315
993.0,0.7195
994.0,0.7309
995.0,0.7294
996.0,0.7269
997.0,0.7276
998.0,0.7245
999.0,0.7217
1000.0,0.7176
1001.0,0.7255
1002.0,0.7097
1003.0,0.713
1004.0,0.6966
1005.0,0.6696
1006.0,0.6966
1007.0,0.711
1008.0,0.7079
1009.0,0.705
1010.0,0.7025
1011.0,0.7074
1012.0,0.7021
1013.0,0.7054
1014.0,0.7005
1015.0,0.6961
1016.0,0.693
1017.0,0.695
1018.0,0.6919
1019.0,0.6787
1020.0,0.6885
1021.0,0.6873
1022.0,0.6826
1023.0,0.6899
1024.0,0.6826
1025.0,0.689
1026.0,0.6864
1027.0,0.6848
1028.0,0.6835
1029.0,0.6756
1030.0,0.6797
1031.0,0.6772
1032.0,0.6751
1033.0,0.665
1034.0,0.665
1035.0,0.667
1036.0,0.6707
1037.0,0.6598
1038.0,0.6628
1039.0,0.6625
1040.0,0.6599
1041.0,0.6627
1042.0,0.6581
1043.0,0.6561
1044.0,0.6585
1045.0,0.6497
1046.0,0.6426
1047.0,0.6485
1048.0,0.6522
1049.0,0.65
1050.0,0.6472
1051.0,0.6465
1052.0,0.644
1053.0,0.6391
1054.0,0.6407
1055.0,0.6413
1056.0,0.6393
1057.0,0.6376
1058.0,0.6221
1059.0,0.6231
1060.0,0.6222
1061.0,0.6217
1062.0,0.6252
1063.0,0.6192
1064.0,0.6265
1065.0,0.6226
1066.0,0.6099
1067.0,0.6179
1068.0,0.6049
1069.0,0.5859
1070.0,0.6062
1071.0,0.6142
1072.0,0.6082
1073.0,0.5993
1074.0,0.6132
1075.0,0.5869
1076.0,0.6129
1077.0,0.6045
1078.0,0.594
1079.0,0.6025
1080.0,0.5954
1081.0,0.5783
1082.0,0.5838
1083.0,0.5847
1084.0,0.5782
1085.0,0.5963
1086.0,0.5515
1087.0,0.5637
1088.0,0.585
1089.0,0.5713
1090.0,0.5619
1091.0,0.5843
1092.0,0.5819
1093.0,0.5067
1094.0,0.534
1095.0,0.5258
1096.0,0.5075
1097.0,0.5682
1098.0,0.5009
1099.0,0.5204
1100.0,0.4901
1101.0,0.4943
1102.0,0.4757
1103.0,0.4738
1104.0,0.4741
1105.0,0.5098
1106.0,0.4133
1107.0,0.4888
1108.0,0.4285
1109.0,0.4266
1110.0,0.4862
1111.0,0.3492
1112.0,0.4222
1113.0,0.2893
1114.0,0.3206
1115.0,0.2665
1116.0,0.2258
1117.0,0.09833
1118.0,0.2404
1119.0,0.1312
1120.0,0.1651
1121.0,0.2114
1122.0,0.09945
1123.0,0.1489
1124.0,0.1258
1125.0,0.1613
1126.0,0.06675
1127.0,0.181
1128.0,0.1196
1129.0,0.1249
1130.0,0.08775
1131.0,0.3172
1132.0,0.2538
1133.0,0.1746
1134.0,0.05393
1135.0,0.01985
1136.0,0.1506
1137.0,0.3152
1138.0,0.2256
1139.0,0.3114
1140.0,0.2698
1141.0,0.2143
1142.0,0.2411
1143.0,0.332
1144.0,0.1293
1145.0,0.1679
1146.0,0.1812
1147.0,0.07507
1148.0,0.2876
1149.0,0.2376
1150.0,0.1387
1151.0,0.2241
1152.0,0.2665
1153.0,0.253
1154.0,0.1655
1155.0,0.3252
1156.0,0.2976
1157.0,0.3273
1158.0,0.3233
1159.0,0.3423
1160.0,0.3006
1161.0,0.3559
1162.0,0.3587
1163.0,0.4607
1164.0,0.404
1165.0,0.3891
1166.0,0.3811
1167.0,0.4106
1168.0,0.4167
1169.0,0.4234
1170.0,0.4534
1171.0,0.4433
1172.0,0.4475
1173.0,0.4525
1174.0,0.3424
1175.0,0.4393
1176.0,0.474
1177.0,0.4607
1178.0,0.3608
1179.0,0.4774
1180.0,0.4362
1181.0,0.449
1182.0,0.3258
1183.0,0.4399
1184.0,0.4175
1185.0,0.4074
1186.0,0.4678
1187.0,0.4502
1188.0,0.3325
1189.0,0.4206
1190.0,0.4572
1191.0,0.4419
1192.0,0.4627
1193.0,0.4463
1194.0,0.458
1195.0,0.4386
1196.0,0.426
1197.0,0.4551
1198.0,0.4209
1199.0,0.3707
1200.0,0.4412
1201.0,0.4297
1202.0,0.4249
1203.0,0.4214
1204.0,0.3759
1205.0,0.431
1206.0,0.4689
1207.0,0.425
1208.0,0.4145
1209.0,0.4221
1210.0,0.4369
1211.0,0.421
1212.0,0.4211
1213.0,0.4561
1214.0,0.4285
1215.0,0.4217
1216.0,0.4545
1217.0,0.4449
1218.0,0.451
1219.0,0.4466
1220.0,0.4512
1221.0,0.4543
1222.0,0.4441
1223.0,0.4409
1224.0,0.4399
1225.0,0.4515
1226.0,0.4531
1227.0,0.4242
1228.0,0.4541
1229.0,0.4531
1230.0,0.4466
1231.0,0.4554
1232.0,0.4528
1233.0,0.4421
1234.0,0.454
1235.0,0.4518
1236.0,0.4546
1237.0,0.4502
1238.0,0.453
1239.0,0.4473
1240.0,0.4487
1241.0,0.4478
1242.0,0.4458
1243.0,0.4421
1244.0,0.4456
1245.0,0.4473
1246.0,0.4446
1247.0,0.4433
1248.0,0.4436
1249.0,0.4444
1250.0,0.4421
1251.0,0.4371
1252.0,0.4363
1253.0,0.4345
1254.0,0.4314
1255.0,0.4363
1256.0,0.4272
1257.0,0.4255
1258.0,0.4309
1259.0,0.4202
1260.0,0.4218
1261.0,0.4042
1262.0,0.3954
1263.0,0.3963
1264.0,0.3735
1265.0,0.3936
1266.0,0.3833
1267.0,0.3869
1268.0,0.3719
1269.0,0.2662
1270.0,0.3867
1271.0,0.4022
1272.0,0.4027
1273.0,0.3992
1274.0,0.3996
1275.0,0.4042
1276.0,0.4069
1277.0,0.4082
1278.0,0.4135
1279.0,0.41
1280.0,0.4047
1281.0,0.3851
1282.0,0.3691
1283.0,0.3979
1284.0,0.4079
1285.0,0.4103
1286.0,0.4147
1287.0,0.4103
1288.0,0.4097
1289.0,0.4005
1290.0,0.4058
1291.0,0.4108
1292.0,0.3931
1293.0,0.4046
1294.0,0.4022
1295.0,0.4019
1296.0,0.3884
1297.0,0.3713
1298.0,0.3921
1299.0,0.4044
1300.0,0.3555
1301.0,0.3636
1302.0,0.3906
1303.0,0.3494
1304.0,0.3105
1305.0,0.3837
1306.0,0.3844
1307.0,0.3129
1308.0,0.348
1309.0,0.3823
1310.0,0.3075
1311.0,0.3364
1312.0,0.3293
1313.0,0.3249
1314.0,0.2954
1315.0,0.2943
1316.0,0.3332
1317.0,0.317
1318.0,0.3394
1319.0,0.2804
1320.0,0.2684
1321.0,0.3074
1322.0,0.3125
1323.0,0.2478
1324.0,0.2749
1325.0,0.329
1326.0,0.2904
1327.0,0.279
1328.0,0.2447
1329.0,0.1945
1330.0,0.2476
1331.0,0.1631
1332.0,0.1637
1333.0,0.2239
1334.0,0.1846
1335.0,0.2466
1336.0,0.2017
1337.0,0.1827
1338.0,0.1969
1339.0,0.1944
1340.0,0.1858
1341.0,0.1889
1342.0,0.198
1343.0,0.1512
1344.0,0.0904
1345.0,0.1279
1346.0,0.07586
1347.0,0.07915
1348.0,0.008148
1349.0,0.02539
1350.0,0.02388
1351.0,0.008708
1352.0,0.003501
1353.0,0.0002966
1354.0,0.0007563
1355.0,1.62e-05
1356.0,0.0001518
1357.0,0.0002266
1358.0,1.845e-05
1359.0,4.67e-06
1360.0,1.084e-05
1361.0,5.646e-08
1362.0,3.193e-10
1363.0,1.69e-05
1364.0,7.763e-06
1365.0,2.448e-10
1366.0,6.082e-05
1367.0,2.348e-05
1368.0,9.275e-12
1369.0,3.081e-06
1370.0,2.03e-06
1371.0,1.732e-07
1372.0,1.309e-05
1373.0,0.0001582
1374.0,0.0005254
1375.0,0.0009302
1376.0,0.0006705
1377.0,0.0003345
1378.0,0.002686
1379.0,0.0001446
1380.0,0.0002493
1381.0,8.421e-06
1382.0,1.278e-05
1383.0,2.694e-07
1384.0,3.873e-06
1385.0,8.868e-06
1386.0,1.379e-05
1387.0,0.0006368
1388.0,1.419e-05
1389.0,0.00154
1390.0,0.001311
1391.0,0.0009616
1392.0,7.386e-05
1393.0,0.0003208
1394.0,0.0002721
1395.0,3.194e-06
1396.0,6.686e-08
1397.0,0.0001473
1398.0,0.00308
1399.0,0.001969
1400.0,4.228e-08
1401.0,1.039e-07
1402.0,0.003604
1403.0,0.004861
1404.0,0.001538
1405.0,2.005e-06
1406.0,0.004485
1407.0,0.0003867
1408.0,0.003611
1409.0,0.001545
1410.0,0.001105
1411.0,0.004225
1412.0,0.005079
1413.0,0.03557
1414.0,0.0008516
1415.0,0.0004633
1416.0,0.04853
1417.0,0.01856
1418.0,0.02111
1419.0,0.003502
1420.0,0.01311
1421.0,0.01462
1422.0,0.06202
1423.0,0.01318
1424.0,0.02375
1425.0,0.03599
1426.0,0.03769
1427.0,0.06176
1428.0,0.007894
1429.0,0.04935
1430.0,0.07641
1431.0,0.082
1432.0,0.006346
1433.0,0.05502
1434.0,0.02945
1435.0,0.03435
1436.0,0.05825
1437.0,0.04482
1438.0,0.02121
1439.0,0.07562
1440.0,0.05725
1441.0,0.04729
1442.0,0.05141
1443.0,0.05902
1444.0,0.07968
1445.0,0.06661
1446.0,0.03132
1447.0,0.04943
1448.0,0.1351
1449.0,0.1217
1450.0,0.03658
1451.0,0.01594
1452.0,0.07735
1453.0,0.09887
1454.0,0.155
1455.0,0.07865
1456.0,0.108
1457.0,0.1359
1458.0,0.1519
1459.0,0.1808
1460.0,0.09885
1461.0,0.1067
1462.0,0.1493
1463.0,0.05346
1464.0,0.1701
1465.0,0.1039
1466.0,0.08094
1467.0,0.04699
