interpolation:linear
wavelength,value
280.0,1.2459999999999999e-22
280.5,3.41e-21
281.0,1.742e-20
281.5,4.652e-19
282.0,3.371e-18
282.5,1.213e-17
283.0,4.99e-17
283.5,9.085e-17
284.0,1.956e-15
284.5,6.214e-15
285.0,1.332e-14
285.5,9.21e-14
286.0,4.139e-13
286.5,2.173e-12
287.0,6.848e-12
287.5,2.879e-11
288.0,1.162e-10
288.5,4.352e-10
289.0,1.372e-09
289.5,4.766e-09
290.0,1.462e-08
290.5,3.223e-08
291.0,7.472e-08
291.5,2.313e-07
292.0,5.581e-07
292.5,8.167e-07
293.0,1.827e-06
293.5,4.634e-06
294.0,7.526e-06
294.5,1.294e-05
295.0,2.211e-05
295.5,5.153e-05
296.0,9.032e-05
296.5,0.0001148
297.0,0.0001436
297.5,0.0003416
298.0,0.0004862
298.5,0.0004523
299.0,0.0009236
299.5,0.001334
300.0,0.001362
300.5,0.001825
301.0,0.002904
301.5,0.004127
302.0,0.003343
302.5,0.006186
303.0,0.01034
303.5,0.01246
304.0,0.01136
304.5,0.01551
305.0,0.02075
305.5,0.02203
306.0,0.02078
306.5,0.0247
307.0,0.03291
307.5,0.03954
308.0,0.04127
308.5,0.04653
309.0,0.04111
309.5,0.04484
310.0,0.04411
310.5,0.07089
311.0,0.08742
311.5,0.08396
312.0,0.0801
312.5,0.09453
313.0,0.1011
313.5,0.1004
314.0,0.1207
314.5,0.1013
315.0,0.1323
315.5,0.1145
316.0,0.09564
316.5,0.1321
317.0,0.1649
317.5,0.1745
318.0,0.1327
318.5,0.156
319.0,0.1805
319.5,0.155
320.0,0.1894
320.5,0.2241
321.0,0.1897
321.5,0.1816
322.0,0.2062
322.5,0.1796
323.0,0.1728
323.5,0.1996
324.0,0.2323
324.5,0.2412
325.0,0.2195
325.5,0.2746
326.0,0.324
326.5,0.3181
327.0,0.3211
327.5,0.3148
328.0,0.2904
328.5,0.295
329.0,0.3441
329.5,0.3886
330.0,0.3964
330.5,0.3258
331.0,0.3358
331.5,0.3367
332.0,0.3562
332.5,0.3497
333.0,0.3523
333.5,0.3259
334.0,0.336
334.5,0.3811
335.0,0.3552
335.5,0.4037
336.0,0.2802
336.5,0.3416
337.0,0.2836
337.5,0.355
338.0,0.342
338.5,0.3864
339.0,0.3858
339.5,0.3708
340.0,0.4473
340.5,0.4038
341.0,0.3877
341.5,0.3601
342.0,0.4325
342.5,0.4066
343.0,0.4467
343.5,0.4205
344.0,0.3162
344.5,0.3133
345.0,0.4202
345.5,0.4316
346.0,0.3686
346.5,0.419
347.0,0.4497
347.5,0.3641
348.0,0.4179
348.5,0.4198
349.0,0.3907
349.5,0.3877
350.0,0.4808
350.5,0.5085
351.0,0.4549
351.5,0.4412
352.0,0.4766
352.5,0.3737
353.0,0.4723
353.5,0.5066
354.0,0.5276
354.5,0.5366
355.0,0.536
355.5,0.4854
356.0,0.5093
356.5,0.436
357.0,0.3612
357.5,0.4435
358.0,0.3524
358.5,0.3019
359.0,0.4233
359.5,0.5406
360.0,0.5746
360.5,0.4605
361.0,0.4208
361.5,0.4854
362.0,0.4205
362.5,0.583
363.0,0.5246
363.5,0.4841
364.0,0.5933
364.5,0.5082
365.0,0.5187
365.5,0.6524
366.0,0.6926
366.5,0.652
367.0,0.6363
367.5,0.6618
368.0,0.5803
368.5,0.5867
369.0,0.6348
369.5,0.678
370.0,0.7242
370.5,0.5632
371.0,0.6029
371.5,0.7559
372.0,0.5027
372.5,0.604
373.0,0.6154
373.5,0.4011
374.0,0.584
374.5,0.4845
375.0,0.4719
375.5,0.706
376.0,0.5864
376.5,0.6089
377.0,0.6458
377.5,0.7569
378.0,0.8221
378.5,0.7787
379.0,0.644
379.5,0.5896
380.0,0.6142
380.5,0.7452
381.0,0.748
381.5,0.5939
382.0,0.5283
382.5,0.451
383.0,0.4183
383.5,0.4035
384.0,0.4459
384.5,0.6569
385.0,0.6525
385.5,0.6086
386.0,0.5221
386.5,0.6868
387.0,0.5717
387.5,0.6433
388.0,0.5949
388.5,0.589
389.0,0.6368
389.5,0.7725
390.0,0.7765
390.5,0.7158
391.0,0.8438
391.5,0.8621
392.0,0.7273
392.5,0.6521
393.0,0.3633
393.5,0.2645
394.0,0.539
394.5,0.6862
395.0,0.8386
395.5,0.8532
396.0,0.7408
396.5,0.4336
397.0,0.3259
397.5,0.6637
398.0,0.931
398.5,0.9636
399.0,1.044
399.5,1.042
400.0,1.084
401.0,1.116
402.0,1.18
403.0,1.124
404.0,1.109
405.0,1.112
406.0,1.096
407.0,1.081
408.0,1.126
409.0,1.208
410.0,1.058
411.0,1.148
412.0,1.235
413.0,1.208
414.0,1.225
415.0,1.23
416.0,1.254
417.0,1.226
418.0,1.206
419.0,1.224
420.0,1.221
421.0,1.28
422.0,1.219
423.0,1.193
424.0,1.265
425.0,1.265
426.0,1.234
427.0,1.213
428.0,1.184
429.0,1.122
430.0,0.9839
431.0,0.9774
432.0,1.264
433.0,1.273
434.0,1.184
435.0,1.239
436.0,1.397
437.0,1.38
438.0,1.258
439.0,1.305
440.0,1.348
441.0,1.398
442.0,1.502
443.0,1.466
444.0,1.5
445.0,1.47
446.0,1.404
447.0,1.519
448.0,1.546
449.0,1.553
450.0,1.598
451.0,1.66
452.0,1.602
453.0,1.508
454.0,1.576
455.0,1.588
456.0,1.628
457.0,1.657
458.0,1.603
459.0,1.597
460.0,1.604
461.0,1.643
462.0,1.657
463.0,1.647
464.0,1.621
465.0,1.601
466.0,1.618
467.0,1.591
468.0,1.612
469.0,1.623
470.0,1.573
471.0,1.572
472.0,1.659
473.0,1.64
474.0,1.645
475.0,1.662
476.0,1.616
477.0,1.623
478.0,1.67
479.0,1.661
480.0,1.665
481.0,1.697
482.0,1.706
483.0,1.686
484.0,1.652
485.0,1.575
486.0,1.378
487.0,1.445
488.0,1.587
489.0,1.594
490.0,1.678
491.0,1.65
492.0,1.559
493.0,1.612
494.0,1.629
495.0,1.645
496.0,1.656
497.0,1.684
498.0,1.606
499.0,1.629
500.0,1.584
501.0,1.557
502.0,1.538
503.0,1.604
504.0,1.57
505.0,1.623
506.0,1.677
507.0,1.597
508.0,1.547
509.0,1.59
510.0,1.582
511.0,1.625
512.0,1.643
513.0,1.556
514.0,1.546
515.0,1.532
516.0,1.53
517.0,1.36
518.0,1.431
519.0,1.502
520.0,1.558
521.0,1.574
522.0,1.577
523.0,1.55
524.0,1.608
525.0,1.629
526.0,1.558
527.0,1.47
528.0,1.556
529.0,1.642
530.0,1.62
531.0,1.646
532.0,1.59
533.0,1.545
534.0,1.591
535.0,1.626
536.0,1.641
537.0,1.577
538.0,1.606
539.0,1.593
540.0,1.529
541.0,1.541
542.0,1.591
543.0,1.574
544.0,1.604
545.0,1.599
546.0,1.608
547.0,1.607
548.0,1.589
549.0,1.594
550.0,1.614
551.0,1.595
552.0,1.607
553.0,1.579
554.0,1.618
555.0,1.622
556.0,1.602
557.0,1.554
558.0,1.544
559.0,1.517
560.0,1.537
561.0,1.558
562.0,1.549
563.0,1.593
564.0,1.551
565.0,1.539
566.0,1.518
567.0,1.549
568.0,1.538
569.0,1.507
570.0,1.507
571.0,1.497
572.0,1.537
573.0,1.555
574.0,1.551
575.0,1.524
576.0,1.511
577.0,1.528
578.0,1.504
579.0,1.508
580.0,1.534
581.0,1.54
582.0,1.567
583.0,1.57
584.0,1.582
585.0,1.544
586.0,1.513
587.0,1.548
588.0,1.518
589.0,1.358
590.0,1.419
591.0,1.495
592.0,1.481
593.0,1.498
594.0,1.491
595.0,1.459
596.0,1.506
597.0,1.493
598.0,1.487
599.0,1.487
600.0,1.487
601.0,1.473
602.0,1.464
603.0,1.488
604.0,1.512
605.0,1.504
606.0,1.498
607.0,1.512
608.0,1.495
609.0,1.497
610.0,1.486
611.0,1.493
612.0,1.489
613.0,1.47
614.0,1.45
615.0,1.481
616.0,1.432
617.0,1.429
618.0,1.484
619.0,1.469
620.0,1.479
621.0,1.481
622.0,1.466
623.0,1.444
624.0,1.419
625.0,1.416
626.0,1.438
627.0,1.457
628.0,1.388
629.0,1.433
630.0,1.401
631.0,1.424
632.0,1.406
633.0,1.445
634.0,1.428
635.0,1.449
636.0,1.429
637.0,1.452
638.0,1.464
639.0,1.447
640.0,1.432
641.0,1.431
642.0,1.423
643.0,1.443
644.0,1.437
645.0,1.441
646.0,1.411
647.0,1.402
648.0,1.404
649.0,1.378
650.0,1.375
651.0,1.433
652.0,1.385
653.0,1.415
654.0,1.399
655.0,1.352
656.0,1.195
657.0,1.227
658.0,1.372
659.0,1.381
660.0,1.387
661.0,1.397
662.0,1.402
663.0,1.373
664.0,1.387
665.0,1.387
666.0,1.387
667.0,1.385
668.0,1.385
669.0,1.406
670.0,1.4
671.0,1.4
672.0,1.387
673.0,1.408
674.0,1.403
675.0,1.39
676.0,1.399
677.0,1.385
678.0,1.389
679.0,1.367
680.0,1.378
681.0,1.369
682.0,1.367
683.0,1.365
684.0,1.359
685.0,1.37
686.0,1.363
687.0,1.025
688.0,1.142
689.0,1.145
690.0,1.182
691.0,1.223
692.0,1.25
693.0,1.242
694.0,1.233
695.0,1.27
696.0,1.272
697.0,1.331
698.0,1.311
699.0,1.292
700.0,1.277
701.0,1.268
702.0,1.272
703.0,1.275
704.0,1.309
705.0,1.311
706.0,1.307
707.0,1.307
708.0,1.311
709.0,1.309
710.0,1.311
711.0,1.308
712.0,1.302
713.0,1.291
714.0,1.296
715.0,1.259
716.0,1.261
717.0,1.138
718.0,1.055
719.0,0.9717
720.0,1.021
721.0,1.099
722.0,1.226
723.0,1.158
724.0,1.062
725.0,1.051
726.0,1.096
727.0,1.102
728.0,1.051
729.0,1.074
730.0,1.135
731.0,1.092
732.0,1.151
733.0,1.202
734.0,1.227
735.0,1.204
736.0,1.202
737.0,1.207
738.0,1.216
739.0,1.192
740.0,1.22
741.0,1.206
742.0,1.206
743.0,1.236
744.0,1.232
745.0,1.231
746.0,1.237
747.0,1.24
748.0,1.237
749.0,1.223
750.0,1.222
751.0,1.21
752.0,1.215
753.0,1.222
754.0,1.225
755.0,1.218
756.0,1.217
757.0,1.219
758.0,1.204
759.0,1.186
760.0,0.3318
761.0,0.2092
762.0,0.7325
763.0,0.4489
764.0,0.5997
765.0,0.7333
766.0,0.8387
767.0,0.9995
768.0,1.108
769.0,1.122
770.0,1.149
771.0,1.153
772.0,1.154
773.0,1.162
774.0,1.156
775.0,1.148
776.0,1.162
777.0,1.146
778.0,1.14
779.0,1.141
780.0,1.134
781.0,1.135
782.0,1.143
783.0,1.123
784.0,1.128
785.0,1.12
786.0,1.133
787.0,1.118
788.0,1.106
789.0,1.107
790.0,1.084
791.0,1.087
792.0,1.078
793.0,1.062
794.0,1.073
795.0,1.093
796.0,1.069
797.0,1.07
798.0,1.093
799.0,1.088
800.0,1.071
801.0,1.07
802.0,1.067
803.0,1.06
804.0,1.061
805.0,1.055
806.0,1.08
807.0,1.068
808.0,1.069
809.0,1.052
810.0,1.046
811.0,1.052
812.0,1.028
813.0,1.011
814.0,0.9125
815.0,0.9064
816.0,0.8474
817.0,0.8599
818.0,0.8329
819.0,0.9111
820.0,0.8661
821.0,0.9853
822.0,0.9618
823.0,0.6985
824.0,0.943
825.0,0.9701
826.0,0.9414
827.0,0.9848
828.0,0.8595
829.0,0.9343
830.0,0.9248
831.0,0.9271
832.0,0.9033
833.0,0.9481
834.0,0.9227
835.0,0.9965
836.0,0.9645
837.0,0.9987
838.0,0.9723
839.0,0.9828
840.0,1.003
841.0,0.9911
842.0,0.9902
843.0,0.9866
844.0,0.9747
845.0,1.005
846.0,1.0
847.0,0.9809
848.0,0.9763
849.0,0.9487
850.0,0.9088
851.0,0.9637
852.0,0.9564
853.0,0.9195
854.0,0.7949
855.0,0.872
856.0,0.9536
857.0,0.974
858.0,0.9673
859.0,0.9676
860.0,0.969
861.0,0.9639
862.0,0.9789
863.0,1.002
864.0,0.952
865.0,0.9436
866.0,0.8485
867.0,0.8855
868.0,0.9636
869.0,0.9436
870.0,0.9705
871.0,0.9574
872.0,0.954
873.0,0.9522
874.0,0.9409
875.0,0.9219
876.0,0.9317
877.0,0.941
878.0,0.9516
879.0,0.9369
880.0,0.9169
881.0,0.9039
882.0,0.9237
883.0,0.926
884.0,0.9221
885.0,0.9291
886.0,0.8879
887.0,0.8956
888.0,0.9101
889.0,0.9183
890.0,0.9132
891.0,0.9104
892.0,0.8873
893.0,0.8638
894.0,0.8412
895.0,0.8048
896.0,0.7632
897.0,0.6697
898.0,0.7225
899.0,0.5673
900.0,0.7315
901.0,0.5936
902.0,0.6738
903.0,0.6876
904.0,0.8353
905.0,0.8112
906.0,0.7629
907.0,0.6406
908.0,0.6506
909.0,0.6945
910.0,0.6322
911.0,0.6633
912.0,0.689
913.0,0.6424
914.0,0.634
915.0,0.6849
916.0,0.586
917.0,0.7231
918.0,0.6012
919.0,0.732
920.0,0.7308
921.0,0.7575
922.0,0.6901
923.0,0.7313
924.0,0.7078
925.0,0.693
926.0,0.7004
927.0,0.7718
928.0,0.6015
929.0,0.5586
930.0,0.4548
931.0,0.4281
932.0,0.3242
933.0,0.2726
934.0,0.1688
935.0,0.2715
936.0,0.1815
937.0,0.1858
938.0,0.2235
939.0,0.415
940.0,0.4883
941.0,0.3836
942.0,0.4342
943.0,0.2977
944.0,0.3032
945.0,0.3931
946.0,0.2164
947.0,0.3989
948.0,0.2961
949.0,0.5175
950.0,0.1702
951.0,0.5068
952.0,0.2943
953.0,0.3657
954.0,0.4327
955.0,0.3681
956.0,0.3509
957.0,0.297
958.0,0.4742
959.0,0.3933
960.0,0.4401
961.0,0.4815
962.0,0.4575
963.0,0.5163
964.0,0.4769
965.0,0.513
966.0,0.5159
967.0,0.5146
968.0,0.6531
969.0,0.6843
970.0,0.634
971.0,0.7097
972.0,0.6819
973.0,0.6099
974.0,0.5816
975.0,0.5971
976.0,0.5754
977.0,0.6383
978.0,0.6133
979.0,0.637
980.0,0.6026
981.0,0.705
982.0,0.6799
983.0,0.6563
984.0,0.7202
985.0,0.6772
986.0,0.7292
987.0,0.7189
988.0,0.7176
989.0,0.7247
990.0,0.713
991.0,0.7274
992.0,0.7312
993.0,0.7189
994.0,0.7306
995.0,0.7292
996.0,0.7266
997.0,0.7274
998.0,0.7242
999.0,0.7214
1000.0,0.7173
1001.0,0.7252
1002.0,0.7091
1003.0,0.7127
1004.0,0.6963
1005.0,0.6694
1006.0,0.6963
1007.0,0.7107
1008.0,0.7076
1009.0,0.7046
1010.0,0.702
1011.0,0.7071
1012.0,0.7017
1013.0,0.7052
1014.0,0.7003
1015.0,0.6958
1016.0,0.6928
1017.0,0.6947
1018.0,0.6916
1019.0,0.6784
1020.0,0.6883
1021.0,0.6871
1022.0,0.6823
1023.0,0.6897
1024.0,0.6822
1025.0,0.6887
1026.0,0.6862
1027.0,0.6845
1028.0,0.6832
1029.0,0.6753
1030.0,0.6794
1031.0,0.677
1032.0,0.6749
1033.0,0.6647
1034.0,0.6647
1035.0,0.6668
1036.0,0.6705
1037.0,0.6595
1038.0,0.6625
1039.0,0.6623
1040.0,0.6596
1041.0,0.6624
1042.0,0.6578
1043.0,0.6558
1044.0,0.6582
1045.0,0.6494
1046.0,0.6424
1047.0,0.6482
1048.0,0.6519
1049.0,0.6497
1050.0,0.6469
1051.0,0.6461
1052.0,0.6437
1053.0,0.6387
1054.0,0.6403
1055.0,0.6409
1056.0,0.6389
1057.0,0.6372
1058.0,0.6217
1059.0,0.6226
1060.0,0.6218
1061.0,0.6212
1062.0,0.6247
1063.0,0.6188
1064.0,0.626
1065.0,0.6221
1066.0,0.6094
1067.0,0.6174
1068.0,0.6043
1069.0,0.5854
1070.0,0.6057
1071.0,0.6138
1072.0,0.6077
1073.0,0.5988
1074.0,0.6128
1075.0,0.5862
1076.0,0.6125
1077.0,0.604
1078.0,0.5934
1079.0,0.6021
1080.0,0.5948
1081.0,0.5776
1082.0,0.5834
1083.0,0.5844
1084.0,0.5774
1085.0,0.5957
1086.0,0.5504
1087.0,0.563
1088.0,0.5846
1089.0,0.5705
1090.0,0.5609
1091.0,0.5838
1092.0,0.5814
1093.0,0.5053
1094.0,0.5335
1095.0,0.5245
1096.0,0.5059
1097.0,0.5678
1098.0,0.4992
1099.0,0.5188
1100.0,0.4881
1101.0,0.4924
1102.0,0.4736
1103.0,0.4715
1104.0,0.4719
1105.0,0.5082
1106.0,0.4101
1107.0,0.4869
1108.0,0.4257
1109.0,0.4239
1110.0,0.4841
1111.0,0.3461
1112.0,0.4197
1113.0,0.2859
1114.0,0.3171
1115.0,0.2635
1116.0,0.2222
1117.0,0.09546
1118.0,0.2371
1119.0,0.1283
1120.0,0.1616
1121.0,0.2076
1122.0,0.09679
1123.0,0.1457
1124.0,0.1232
1125.0,0.1581
1126.0,0.06456
1127.0,0.1775
1128.0,0.1163
1129.0,0.1217
1130.0,0.085
1131.0,0.313
1132.0,0.2501
1133.0,0.1709
1134.0,0.05199
1135.0,0.01914
1136.0,0.147
1137.0,0.3109
1138.0,0.2221
1139.0,0.3085
1140.0,0.2665
1141.0,0.211
1142.0,0.2378
1143.0,0.3283
1144.0,0.1267
1145.0,0.1644
1146.0,0.1775
1147.0,0.07257
1148.0,0.2844
1149.0,0.2343
1150.0,0.1359
1151.0,0.2206
1152.0,0.2631
1153.0,0.2503
1154.0,0.1618
1155.0,0.3222
1156.0,0.2945
1157.0,0.3242
1158.0,0.3204
1159.0,0.3397
1160.0,0.2976
1161.0,0.3535
1162.0,0.3562
1163.0,0.4593
1164.0,0.4021
1165.0,0.3866
1166.0,0.379
1167.0,0.4087
1168.0,0.4147
1169.0,0.4217
1170.0,0.452
1171.0,0.4419
1172.0,0.4463
1173.0,0.4511
1174.0,0.3399
1175.0,0.4381
1176.0,0.4734
1177.0,0.4597
1178.0,0.3588
1179.0,0.4768
1180.0,0.4349
1181.0,0.4478
1182.0,0.3237
1183.0,0.4388
1184.0,0.4161
1185.0,0.4057
1186.0,0.467
1187.0,0.4491
1188.0,0.3303
1189.0,0.4195
1190.0,0.4564
1191.0,0.4405
1192.0,0.4619
1193.0,0.4453
1194.0,0.4572
1195.0,0.4374
1196.0,0.4246
1197.0,0.4545
1198.0,0.42
1199.0,0.369
1200.0,0.4402
1201.0,0.4285
1202.0,0.4238
1203.0,0.4203
1204.0,0.3744
1205.0,0.4302
1206.0,0.4685
1207.0,0.4238
1208.0,0.4137
1209.0,0.4213
1210.0,0.4362
1211.0,0.42
1212.0,0.4198
1213.0,0.4556
1214.0,0.4274
1215.0,0.4205
1216.0,0.4539
1217.0,0.4442
1218.0,0.4505
1219.0,0.446
1220.0,0.4507
1221.0,0.4539
1222.0,0.4435
1223.0,0.4403
1224.0,0.4392
1225.0,0.4511
1226.0,0.4527
1227.0,0.4235
1228.0,0.4538
1229.0,0.4528
1230.0,0.4461
1231.0,0.4552
1232.0,0.4526
1233.0,0.4417
1234.0,0.4539
1235.0,0.4517
1236.0,0.4544
1237.0,0.4499
1238.0,0.4529
1239.0,0.4471
1240.0,0.4486
1241.0,0.4476
1242.0,0.4457
1243.0,0.442
1244.0,0.4455
1245.0,0.4472
1246.0,0.4445
1247.0,0.4431
1248.0,0.4434
1249.0,0.4443
1250.0,0.4419
1251.0,0.437
1252.0,0.4362
1253.0,0.4342
1254.0,0.4311
1255.0,0.4361
1256.0,0.4268
1257.0,0.4251
1258.0,0.4307
1259.0,0.4196
1260.0,0.4212
1261.0,0.4033
1262.0,0.3943
1263.0,0.3952
1264.0,0.372
1265.0,0.3926
1266.0,0.3819
1267.0,0.3858
1268.0,0.3705
1269.0,0.2627
1270.0,0.3855
1271.0,0.4013
1272.0,0.402
1273.0,0.3984
1274.0,0.3988
1275.0,0.4035
1276.0,0.4063
1277.0,0.4077
1278.0,0.4131
1279.0,0.4096
1280.0,0.4043
1281.0,0.3848
1282.0,0.369
1283.0,0.3977
1284.0,0.4076
1285.0,0.41
1286.0,0.4146
1287.0,0.41
1288.0,0.4095
1289.0,0.4
1290.0,0.4056
1291.0,0.4106
1292.0,0.3925
1293.0,0.4043
1294.0,0.4018
1295.0,0.4015
1296.0,0.3877
1297.0,0.3703
1298.0,0.3916
1299.0,0.4042
1300.0,0.3543
1301.0,0.3627
1302.0,0.3901
1303.0,0.3484
1304.0,0.3087
1305.0,0.3831
1306.0,0.3838
1307.0,0.3114
1308.0,0.3471
1309.0,0.3817
1310.0,0.3059
1311.0,0.3354
1312.0,0.3282
1313.0,0.3236
1314.0,0.2939
1315.0,0.2926
1316.0,0.332
1317.0,0.3158
1318.0,0.3385
1319.0,0.2785
1320.0,0.2668
1321.0,0.306
1322.0,0.311
1323.0,0.2456
1324.0,0.2731
1325.0,0.3278
1326.0,0.2888
1327.0,0.2773
1328.0,0.2429
1329.0,0.1923
1330.0,0.2452
1331.0,0.1605
1332.0,0.1614
1333.0,0.2211
1334.0,0.1825
1335.0,0.2445
1336.0,0.1995
1337.0,0.1804
1338.0,0.1945
1339.0,0.1921
1340.0,0.1838
1341.0,0.1864
1342.0,0.1953
1343.0,0.1479
1344.0,0.08838
1345.0,0.1253
1346.0,0.07339
1347.0,0.07647
1348.0,0.007602
1349.0,0.02396
1350.0,0.02272
1351.0,0.00804
1352.0,0.00315
1353.0,0.0002565
1354.0,0.0006683
1355.0,1.334e-05
1356.0,0.0001308
1357.0,0.0001956
1358.0,1.524e-05
1359.0,3.678e-06
1360.0,8.797e-06
1361.0,4.108e-08
1362.0,2.195e-10
1363.0,1.366e-05
1364.0,6.2e-06
1365.0,1.6e-10
1366.0,4.986e-05
1367.0,1.923e-05
1368.0,5.441e-12
1369.0,2.446e-06
1370.0,1.581e-06
1371.0,1.307e-07
1372.0,1.07e-05
1373.0,0.0001344
1374.0,0.0004571
1375.0,0.0008133
1376.0,0.000593
1377.0,0.0002938
1378.0,0.002402
1379.0,0.0001266
1380.0,0.0002159
1381.0,7.132e-06
1382.0,1.039e-05
1383.0,2.128e-07
1384.0,3.057e-06
1385.0,7.353e-06
1386.0,1.108e-05
1387.0,0.0005499
1388.0,1.205e-05
1389.0,0.001359
1390.0,0.001159
1391.0,0.0008432
1392.0,6.375e-05
1393.0,0.0002813
1394.0,0.0002311
1395.0,2.608e-06
1396.0,4.929e-08
1397.0,0.0001277
1398.0,0.002754
1399.0,0.001757
1400.0,3.039e-08
1401.0,7.742e-08
1402.0,0.003305
1403.0,0.004441
1404.0,0.001401
1405.0,1.609e-06
1406.0,0.004062
1407.0,0.0003488
1408.0,0.003272
1409.0,0.001377
1410.0,0.0009892
1411.0,0.003861
1412.0,0.004679
1413.0,0.03379
1414.0,0.0007631
1415.0,0.0004113
1416.0,0.04668
1417.0,0.01751
1418.0,0.01996
1419.0,0.00329
1420.0,0.01238
1421.0,0.01374
1422.0,0.0598
1423.0,0.01259
1424.0,0.02276
1425.0,0.03445
1426.0,0.03629
1427.0,0.06007
1428.0,0.007351
1429.0,0.04774
1430.0,0.07449
1431.0,0.0801
1432.0,0.005898
1433.0,0.05348
1434.0,0.0285
1435.0,0.03283
1436.0,0.05628
1437.0,0.04326
1438.0,0.02028
1439.0,0.07338
1440.0,0.05547
1441.0,0.04552
1442.0,0.04961
1443.0,0.05739
1444.0,0.0776
1445.0,0.06453
1446.0,0.03024
1447.0,0.04767
1448.0,0.1328
1449.0,0.1192
1450.0,0.03527
1451.0,0.01525
1452.0,0.0754
1453.0,0.09664
1454.0,0.1527
1455.0,0.07698
1456.0,0.1055
1457.0,0.1335
1458.0,0.15
1459.0,0.1785
1460.0,0.09709
1461.0,0.1045
1462.0,0.1469
1463.0,0.05206
1464.0,0.1679
1465.0,0.1024
1466.0,0.07893
1467.0,0.04539
1468.0,0.09087
