interpolation:linear
wavelength,value
280.0,8.544e-25
280.5,3.21e-23
281.0,1.841e-22
281.5,6.678e-21
282.0,5.829e-20
282.5,2.379e-19
283.0,1.123e-18
283.5,2.19e-18
284.0,6.492e-17
284.5,2.386e-16
285.0,5.985e-16
285.5,4.983e-15
286.0,2.414e-14
286.5,1.479e-13
287.0,5.223e-13
287.5,2.549e-12
288.0,1.242e-11
288.5,5.14e-11
289.0,1.795e-10
289.5,6.988e-10
290.0,2.351e-09
290.5,5.603e-09
291.0,1.426e-08
291.5,4.973e-08
292.0,1.322e-07
292.5,2.042e-07
293.0,4.898e-07
293.5,1.367e-06
294.0,2.367e-06
294.5,4.273e-06
295.0,7.759e-06
295.5,1.95e-05
296.0,3.6e-05
296.5,4.805e-05
297.0,6.252e-05
297.5,0.000157
298.0,0.0002335
298.5,0.0002244
299.0,0.0004725
299.5,0.0007164
300.0,0.0007505
300.5,0.001031
301.0,0.001701
301.5,0.002489
302.0,0.002045
302.5,0.003881
303.0,0.006691
303.5,0.008206
304.0,0.007545
304.5,0.01052
305.0,0.01444
305.5,0.01558
306.0,0.01479
306.5,0.01776
307.0,0.02414
307.5,0.02952
308.0,0.03093
308.5,0.03518
309.0,0.0313
309.5,0.03477
310.0,0.03451
310.5,0.05571
311.0,0.06918
311.5,0.06669
312.0,0.06447
312.5,0.07675
313.0,0.08249
313.5,0.08172
314.0,0.09921
314.5,0.08424
315.0,0.1103
315.5,0.09511
316.0,0.08018
316.5,0.1116
317.0,0.1394
317.5,0.1474
318.0,0.1127
318.5,0.1338
319.0,0.1555
319.5,0.1328
320.0,0.1622
320.5,0.1937
321.0,0.1652
321.5,0.1584
322.0,0.1787
322.5,0.1558
323.0,0.1507
323.5,0.1756
324.0,0.2046
324.5,0.2121
325.0,0.1922
325.5,0.2415
326.0,0.2865
326.5,0.2823
327.0,0.2849
327.5,0.2791
328.0,0.2565
328.5,0.2621
329.0,0.3071
329.5,0.3473
330.0,0.3542
330.5,0.2906
331.0,0.2994
331.5,0.3011
332.0,0.3196
332.5,0.3143
333.0,0.3166
333.5,0.2925
334.0,0.3017
334.5,0.3432
335.0,0.3203
335.5,0.3645
336.0,0.2531
336.5,0.3085
337.0,0.2561
337.5,0.3207
338.0,0.3096
338.5,0.3502
339.0,0.3499
339.5,0.3365
340.0,0.4059
340.5,0.3667
341.0,0.3525
341.5,0.3277
342.0,0.3939
342.5,0.3705
343.0,0.4072
343.5,0.3835
344.0,0.2882
344.5,0.2859
345.0,0.3839
345.5,0.3946
346.0,0.3372
346.5,0.3835
347.0,0.4118
347.5,0.3336
348.0,0.3832
348.5,0.385
349.0,0.3586
349.5,0.356
350.0,0.4418
350.5,0.4675
351.0,0.4184
351.5,0.4059
352.0,0.4387
352.5,0.3442
353.0,0.4352
353.5,0.4671
354.0,0.4867
354.5,0.4951
355.0,0.4948
355.5,0.4484
356.0,0.4706
356.5,0.4031
357.0,0.3341
357.5,0.4103
358.0,0.3261
358.5,0.2795
359.0,0.3921
359.5,0.5008
360.0,0.5326
360.5,0.427
361.0,0.3904
361.5,0.4506
362.0,0.3905
362.5,0.5418
363.0,0.4877
363.5,0.4503
364.0,0.5521
364.5,0.4731
365.0,0.4831
365.5,0.6079
366.0,0.6456
366.5,0.608
367.0,0.5936
367.5,0.6176
368.0,0.5418
368.5,0.548
369.0,0.5932
369.5,0.6338
370.0,0.6772
370.5,0.5268
371.0,0.5642
371.5,0.7076
372.0,0.4708
372.5,0.5658
373.0,0.5768
373.5,0.3761
374.0,0.5477
374.5,0.4546
375.0,0.4429
375.5,0.6627
376.0,0.5507
376.5,0.572
377.0,0.6068
377.5,0.7114
378.0,0.773
378.5,0.7324
379.0,0.6059
379.5,0.5548
380.0,0.5781
380.5,0.7017
381.0,0.7046
381.5,0.5597
382.0,0.498
382.5,0.4254
383.0,0.3946
383.5,0.3808
384.0,0.4209
384.5,0.6203
385.0,0.6163
385.5,0.5751
386.0,0.4935
386.5,0.6494
387.0,0.5407
387.5,0.6086
388.0,0.563
388.5,0.5575
389.0,0.603
389.5,0.7317
390.0,0.7357
390.5,0.6784
391.0,0.8
391.5,0.8175
392.0,0.6899
392.5,0.6187
393.0,0.3449
393.5,0.2511
394.0,0.5118
394.5,0.6518
395.0,0.7967
395.5,0.8108
396.0,0.7042
396.5,0.4123
397.0,0.3099
397.5,0.6314
398.0,0.8859
398.5,0.9172
399.0,0.9945
399.5,0.9928
400.0,1.033
401.0,1.064
402.0,1.126
403.0,1.072
404.0,1.059
405.0,1.062
406.0,1.047
407.0,1.033
408.0,1.077
409.0,1.156
410.0,1.012
411.0,1.099
412.0,1.183
413.0,1.157
414.0,1.174
415.0,1.18
416.0,1.203
417.0,1.177
418.0,1.158
419.0,1.176
420.0,1.174
421.0,1.231
422.0,1.173
423.0,1.148
424.0,1.217
425.0,1.218
426.0,1.188
427.0,1.168
428.0,1.141
429.0,1.082
430.0,0.949
431.0,0.943
432.0,1.22
433.0,1.229
434.0,1.144
435.0,1.197
436.0,1.35
437.0,1.334
438.0,1.217
439.0,1.262
440.0,1.304
441.0,1.353
442.0,1.454
443.0,1.42
444.0,1.452
445.0,1.424
446.0,1.36
447.0,1.473
448.0,1.499
449.0,1.507
450.0,1.551
451.0,1.611
452.0,1.555
453.0,1.464
454.0,1.531
455.0,1.543
456.0,1.582
457.0,1.611
458.0,1.559
459.0,1.553
460.0,1.56
461.0,1.598
462.0,1.612
463.0,1.603
464.0,1.578
465.0,1.559
466.0,1.576
467.0,1.55
468.0,1.571
469.0,1.581
470.0,1.533
471.0,1.533
472.0,1.617
473.0,1.599
474.0,1.604
475.0,1.621
476.0,1.576
477.0,1.583
478.0,1.629
479.0,1.62
480.0,1.625
481.0,1.656
482.0,1.666
483.0,1.647
484.0,1.615
485.0,1.54
486.0,1.347
487.0,1.413
488.0,1.552
489.0,1.559
490.0,1.641
491.0,1.614
492.0,1.526
493.0,1.577
494.0,1.595
495.0,1.61
496.0,1.622
497.0,1.648
498.0,1.573
499.0,1.595
500.0,1.551
501.0,1.525
502.0,1.506
503.0,1.571
504.0,1.536
505.0,1.589
506.0,1.642
507.0,1.564
508.0,1.516
509.0,1.559
510.0,1.551
511.0,1.593
512.0,1.611
513.0,1.526
514.0,1.517
515.0,1.503
516.0,1.501
517.0,1.334
518.0,1.404
519.0,1.474
520.0,1.529
521.0,1.545
522.0,1.548
523.0,1.522
524.0,1.578
525.0,1.599
526.0,1.529
527.0,1.442
528.0,1.527
529.0,1.612
530.0,1.59
531.0,1.615
532.0,1.561
533.0,1.516
534.0,1.562
535.0,1.596
536.0,1.612
537.0,1.549
538.0,1.577
539.0,1.565
540.0,1.502
541.0,1.514
542.0,1.563
543.0,1.546
544.0,1.575
545.0,1.571
546.0,1.58
547.0,1.579
548.0,1.561
549.0,1.566
550.0,1.586
551.0,1.567
552.0,1.579
553.0,1.552
554.0,1.59
555.0,1.595
556.0,1.575
557.0,1.527
558.0,1.517
559.0,1.491
560.0,1.51
561.0,1.531
562.0,1.522
563.0,1.565
564.0,1.524
565.0,1.512
566.0,1.491
567.0,1.521
568.0,1.51
569.0,1.479
570.0,1.479
571.0,1.47
572.0,1.508
573.0,1.526
574.0,1.522
575.0,1.495
576.0,1.482
577.0,1.499
578.0,1.476
579.0,1.481
580.0,1.507
581.0,1.513
582.0,1.541
583.0,1.544
584.0,1.557
585.0,1.519
586.0,1.488
587.0,1.523
588.0,1.491
589.0,1.331
590.0,1.392
591.0,1.468
592.0,1.453
593.0,1.471
594.0,1.463
595.0,1.431
596.0,1.481
597.0,1.467
598.0,1.461
599.0,1.462
600.0,1.463
601.0,1.45
602.0,1.441
603.0,1.464
604.0,1.489
605.0,1.481
606.0,1.475
607.0,1.489
608.0,1.473
609.0,1.475
610.0,1.464
611.0,1.472
612.0,1.468
613.0,1.449
614.0,1.43
615.0,1.461
616.0,1.412
617.0,1.41
618.0,1.464
619.0,1.449
620.0,1.459
621.0,1.462
622.0,1.446
623.0,1.425
624.0,1.4
625.0,1.397
626.0,1.419
627.0,1.437
628.0,1.362
629.0,1.41
630.0,1.379
631.0,1.404
632.0,1.386
633.0,1.426
634.0,1.41
635.0,1.432
636.0,1.412
637.0,1.434
638.0,1.447
639.0,1.431
640.0,1.416
641.0,1.415
642.0,1.408
643.0,1.427
644.0,1.422
645.0,1.426
646.0,1.395
647.0,1.384
648.0,1.387
649.0,1.361
650.0,1.361
651.0,1.418
652.0,1.368
653.0,1.4
654.0,1.384
655.0,1.337
656.0,1.182
657.0,1.214
658.0,1.359
659.0,1.368
660.0,1.374
661.0,1.384
662.0,1.388
663.0,1.36
664.0,1.375
665.0,1.375
666.0,1.376
667.0,1.374
668.0,1.374
669.0,1.395
670.0,1.389
671.0,1.389
672.0,1.377
673.0,1.398
674.0,1.392
675.0,1.38
676.0,1.389
677.0,1.375
678.0,1.379
679.0,1.357
680.0,1.368
681.0,1.359
682.0,1.358
683.0,1.355
684.0,1.349
685.0,1.361
686.0,1.353
687.0,0.9865
688.0,1.114
689.0,1.116
690.0,1.157
691.0,1.202
692.0,1.234
693.0,1.225
694.0,1.216
695.0,1.256
696.0,1.258
697.0,1.321
698.0,1.301
699.0,1.279
700.0,1.264
701.0,1.254
702.0,1.26
703.0,1.262
704.0,1.298
705.0,1.3
706.0,1.297
707.0,1.298
708.0,1.301
709.0,1.3
710.0,1.301
711.0,1.299
712.0,1.294
713.0,1.282
714.0,1.287
715.0,1.25
716.0,1.252
717.0,1.118
718.0,1.033
719.0,0.9505
720.0,0.9978
721.0,1.081
722.0,1.215
723.0,1.143
724.0,1.043
725.0,1.031
726.0,1.077
727.0,1.085
728.0,1.03
729.0,1.057
730.0,1.118
731.0,1.074
732.0,1.137
733.0,1.191
734.0,1.217
735.0,1.193
736.0,1.192
737.0,1.197
738.0,1.208
739.0,1.185
740.0,1.213
741.0,1.2
742.0,1.2
743.0,1.23
744.0,1.226
745.0,1.226
746.0,1.231
747.0,1.234
748.0,1.232
749.0,1.218
750.0,1.217
751.0,1.205
752.0,1.21
753.0,1.216
754.0,1.219
755.0,1.213
756.0,1.212
757.0,1.214
758.0,1.199
759.0,1.18
760.0,0.2889
761.0,0.1736
762.0,0.6943
763.0,0.4035
764.0,0.5559
765.0,0.695
766.0,0.8096
767.0,0.9791
768.0,1.097
769.0,1.113
770.0,1.143
771.0,1.148
772.0,1.15
773.0,1.158
774.0,1.152
775.0,1.143
776.0,1.157
777.0,1.142
778.0,1.135
779.0,1.136
780.0,1.13
781.0,1.131
782.0,1.139
783.0,1.119
784.0,1.124
785.0,1.116
786.0,1.129
787.0,1.113
788.0,1.101
789.0,1.101
790.0,1.077
791.0,1.081
792.0,1.073
793.0,1.056
794.0,1.069
795.0,1.089
796.0,1.062
797.0,1.064
798.0,1.088
799.0,1.083
800.0,1.066
801.0,1.064
802.0,1.061
803.0,1.054
804.0,1.055
805.0,1.05
806.0,1.076
807.0,1.064
808.0,1.065
809.0,1.047
810.0,1.04
811.0,1.045
812.0,1.02
813.0,1.002
814.0,0.8978
815.0,0.8919
816.0,0.8328
817.0,0.846
818.0,0.8181
819.0,0.9003
820.0,0.8536
821.0,0.9784
822.0,0.9537
823.0,0.6802
824.0,0.9327
825.0,0.9628
826.0,0.9322
827.0,0.9775
828.0,0.8464
829.0,0.9255
830.0,0.9154
831.0,0.918
832.0,0.8932
833.0,0.9411
834.0,0.9137
835.0,0.9914
836.0,0.9568
837.0,0.9939
838.0,0.9664
839.0,0.9783
840.0,0.999
841.0,0.9863
842.0,0.9863
843.0,0.9835
844.0,0.9712
845.0,1.002
846.0,0.9977
847.0,0.9785
848.0,0.9735
849.0,0.9459
850.0,0.9062
851.0,0.9606
852.0,0.9535
853.0,0.917
854.0,0.7925
855.0,0.8698
856.0,0.951
857.0,0.9716
858.0,0.9648
859.0,0.9653
860.0,0.9668
861.0,0.9617
862.0,0.9767
863.0,0.9999
864.0,0.9499
865.0,0.9416
866.0,0.8467
867.0,0.8836
868.0,0.9616
869.0,0.9416
870.0,0.9685
871.0,0.9554
872.0,0.9521
873.0,0.9502
874.0,0.939
875.0,0.9201
876.0,0.9298
877.0,0.9391
878.0,0.9496
879.0,0.935
880.0,0.915
881.0,0.9018
882.0,0.9215
883.0,0.9241
884.0,0.9201
885.0,0.9271
886.0,0.8853
887.0,0.8935
888.0,0.9075
889.0,0.9164
890.0,0.9106
891.0,0.9082
892.0,0.8843
893.0,0.8596
894.0,0.8348
895.0,0.7958
896.0,0.753
897.0,0.6565
898.0,0.7108
899.0,0.5526
900.0,0.7221
901.0,0.5787
902.0,0.6636
903.0,0.6752
904.0,0.829
905.0,0.8036
906.0,0.7547
907.0,0.6275
908.0,0.638
909.0,0.6842
910.0,0.6173
911.0,0.6507
912.0,0.6774
913.0,0.6271
914.0,0.6197
915.0,0.6705
916.0,0.5715
917.0,0.7116
918.0,0.5863
919.0,0.7215
920.0,0.7228
921.0,0.7503
922.0,0.6795
923.0,0.7244
924.0,0.697
925.0,0.6821
926.0,0.6896
927.0,0.7636
928.0,0.584
929.0,0.5395
930.0,0.4343
931.0,0.4098
932.0,0.3055
933.0,0.2541
934.0,0.1514
935.0,0.2553
936.0,0.167
937.0,0.1703
938.0,0.2064
939.0,0.3973
940.0,0.4707
941.0,0.3651
942.0,0.4164
943.0,0.2817
944.0,0.2899
945.0,0.3748
946.0,0.2012
947.0,0.3791
948.0,0.2803
949.0,0.4971
950.0,0.1546
951.0,0.4877
952.0,0.2759
953.0,0.3473
954.0,0.4158
955.0,0.3501
956.0,0.3353
957.0,0.2777
958.0,0.4609
959.0,0.3768
960.0,0.422
961.0,0.4655
962.0,0.4416
963.0,0.5019
964.0,0.4623
965.0,0.4993
966.0,0.5011
967.0,0.4997
968.0,0.6456
969.0,0.6761
970.0,0.6244
971.0,0.7041
972.0,0.6756
973.0,0.5989
974.0,0.5701
975.0,0.5876
976.0,0.5635
977.0,0.6303
978.0,0.6034
979.0,0.6285
980.0,0.5933
981.0,0.6999
982.0,0.673
983.0,0.6485
984.0,0.717
985.0,0.6704
986.0,0.7271
987.0,0.7156
988.0,0.7143
989.0,0.7234
990.0,0.7099
991.0,0.7259
992.0,0.7299
993.0,0.7163
994.0,0.7294
995.0,0.7282
996.0,0.7254
997.0,0.7263
998.0,0.723
999.0,0.7203
1000.0,0.7159
1001.0,0.7241
1002.0,0.7068
1003.0,0.7115
1004.0,0.6948
1005.0,0.6685
1006.0,0.6951
1007.0,0.7096
1008.0,0.7063
1009.0,0.703
1010.0,0.7004
1011.0,0.706
1012.0,0.7005
1013.0,0.7042
1014.0,0.6993
1015.0,0.6948
1016.0,0.6918
1017.0,0.6936
1018.0,0.6907
1019.0,0.677
1020.0,0.6873
1021.0,0.6862
1022.0,0.6813
1023.0,0.6886
1024.0,0.6807
1025.0,0.6878
1026.0,0.6852
1027.0,0.6835
1028.0,0.6822
1029.0,0.6743
1030.0,0.6785
1031.0,0.676
1032.0,0.6739
1033.0,0.6638
1034.0,0.6639
1035.0,0.6659
1036.0,0.6695
1037.0,0.6586
1038.0,0.6616
1039.0,0.6613
1040.0,0.6587
1041.0,0.6614
1042.0,0.6568
1043.0,0.6548
1044.0,0.6572
1045.0,0.6484
1046.0,0.6413
1047.0,0.6471
1048.0,0.6508
1049.0,0.6485
1050.0,0.6456
1051.0,0.6449
1052.0,0.6423
1053.0,0.6374
1054.0,0.6389
1055.0,0.6394
1056.0,0.6374
1057.0,0.6355
1058.0,0.6201
1059.0,0.6209
1060.0,0.6201
1061.0,0.6194
1062.0,0.6228
1063.0,0.6168
1064.0,0.6241
1065.0,0.62
1066.0,0.6075
1067.0,0.6155
1068.0,0.6023
1069.0,0.5835
1070.0,0.6036
1071.0,0.6121
1072.0,0.6057
1073.0,0.5969
1074.0,0.6113
1075.0,0.5835
1076.0,0.611
1077.0,0.6017
1078.0,0.5909
1079.0,0.6009
1080.0,0.5925
1081.0,0.5748
1082.0,0.5817
1083.0,0.5829
1084.0,0.5742
1085.0,0.5936
1086.0,0.5461
1087.0,0.5604
1088.0,0.5829
1089.0,0.5676
1090.0,0.557
1091.0,0.5818
1092.0,0.5797
1093.0,0.4996
1094.0,0.5314
1095.0,0.5193
1096.0,0.4997
1097.0,0.5662
1098.0,0.4928
1099.0,0.5127
1100.0,0.4804
1101.0,0.4853
1102.0,0.4657
1103.0,0.4628
1104.0,0.4632
1105.0,0.5018
1106.0,0.3978
1107.0,0.4794
1108.0,0.4148
1109.0,0.4139
1110.0,0.4762
1111.0,0.3344
1112.0,0.4101
1113.0,0.2729
1114.0,0.3036
1115.0,0.2521
1116.0,0.2087
1117.0,0.085
1118.0,0.2242
1119.0,0.1178
1120.0,0.1485
1121.0,0.1929
1122.0,0.0869
1123.0,0.134
1124.0,0.1132
1125.0,0.1461
1126.0,0.05657
1127.0,0.1642
1128.0,0.1044
1129.0,0.1098
1130.0,0.075
1131.0,0.2971
1132.0,0.2358
1133.0,0.1571
1134.0,0.04499
1135.0,0.01664
1136.0,0.1338
1137.0,0.294
1138.0,0.2089
1139.0,0.2973
1140.0,0.2539
1141.0,0.1985
1142.0,0.2253
1143.0,0.314
1144.0,0.1171
1145.0,0.1513
1146.0,0.1633
1147.0,0.06346
1148.0,0.272
1149.0,0.2216
1150.0,0.1255
1151.0,0.2074
1152.0,0.2501
1153.0,0.2399
1154.0,0.1479
1155.0,0.3104
1156.0,0.2823
1157.0,0.3126
1158.0,0.3091
1159.0,0.3297
1160.0,0.2862
1161.0,0.3442
1162.0,0.3466
1163.0,0.4538
1164.0,0.3945
1165.0,0.3771
1166.0,0.3711
1167.0,0.4015
1168.0,0.407
1169.0,0.4148
1170.0,0.4466
1171.0,0.4361
1172.0,0.4416
1173.0,0.4456
1174.0,0.33
1175.0,0.4335
1176.0,0.4709
1177.0,0.4557
1178.0,0.3513
1179.0,0.4745
1180.0,0.4299
1181.0,0.443
1182.0,0.3155
1183.0,0.4348
1184.0,0.4108
1185.0,0.3992
1186.0,0.4637
1187.0,0.4446
1188.0,0.3218
1189.0,0.4149
1190.0,0.4531
1191.0,0.4353
1192.0,0.4589
1193.0,0.4416
1194.0,0.4539
1195.0,0.4329
1196.0,0.4192
1197.0,0.4522
1198.0,0.4165
1199.0,0.3625
1200.0,0.4364
1201.0,0.4237
1202.0,0.4196
1203.0,0.4162
1204.0,0.3686
1205.0,0.4269
1206.0,0.467
1207.0,0.4193
1208.0,0.4103
1209.0,0.4181
1210.0,0.4337
1211.0,0.4162
1212.0,0.4147
1213.0,0.4534
1214.0,0.423
1215.0,0.4158
1216.0,0.4518
1217.0,0.4415
1218.0,0.4483
1219.0,0.4436
1220.0,0.4486
1221.0,0.4522
1222.0,0.4414
1223.0,0.4379
1224.0,0.4364
1225.0,0.4494
1226.0,0.4514
1227.0,0.4206
1228.0,0.4528
1229.0,0.4514
1230.0,0.4445
1231.0,0.4546
1232.0,0.452
1233.0,0.4397
1234.0,0.4535
1235.0,0.4511
1236.0,0.454
1237.0,0.449
1238.0,0.4525
1239.0,0.4467
1240.0,0.4483
1241.0,0.447
1242.0,0.4453
1243.0,0.4416
1244.0,0.445
1245.0,0.4468
1246.0,0.4441
1247.0,0.4426
1248.0,0.4428
1249.0,0.4438
1250.0,0.4413
1251.0,0.4362
1252.0,0.4356
1253.0,0.4333
1254.0,0.4298
1255.0,0.4355
1256.0,0.4254
1257.0,0.4235
1258.0,0.4297
1259.0,0.4174
1260.0,0.4192
1261.0,0.3998
1262.0,0.39
1263.0,0.3909
1264.0,0.3659
1265.0,0.3883
1266.0,0.3766
1267.0,0.3812
1268.0,0.3648
1269.0,0.2493
1270.0,0.3806
1271.0,0.398
1272.0,0.3988
1273.0,0.3951
1274.0,0.3957
1275.0,0.4007
1276.0,0.4038
1277.0,0.4055
1278.0,0.4116
1279.0,0.4081
1280.0,0.4028
1281.0,0.3836
1282.0,0.3683
1283.0,0.397
1284.0,0.4067
1285.0,0.4092
1286.0,0.414
1287.0,0.409
1288.0,0.4085
1289.0,0.3981
1290.0,0.4047
1291.0,0.4099
1292.0,0.3899
1293.0,0.4032
1294.0,0.4006
1295.0,0.3998
1296.0,0.3849
1297.0,0.3666
1298.0,0.3896
1299.0,0.4032
1300.0,0.3499
1301.0,0.3589
1302.0,0.3882
1303.0,0.3444
1304.0,0.3018
1305.0,0.3809
1306.0,0.3814
1307.0,0.3055
1308.0,0.3436
1309.0,0.3791
1310.0,0.3001
1311.0,0.3313
1312.0,0.3236
1313.0,0.3186
1314.0,0.2881
1315.0,0.2862
1316.0,0.3274
1317.0,0.3111
1318.0,0.3348
1319.0,0.2713
1320.0,0.2608
1321.0,0.3004
1322.0,0.3048
1323.0,0.2373
1324.0,0.266
1325.0,0.3232
1326.0,0.2824
1327.0,0.2707
1328.0,0.2359
1329.0,0.1839
1330.0,0.236
1331.0,0.1506
1332.0,0.1527
1333.0,0.2104
1334.0,0.1748
1335.0,0.2364
1336.0,0.191
1337.0,0.1714
1338.0,0.1851
1339.0,0.1833
1340.0,0.1762
1341.0,0.1767
1342.0,0.1853
1343.0,0.1356
1344.0,0.08093
1345.0,0.1156
1346.0,0.06438
1347.0,0.06664
1348.0,0.005787
1349.0,0.01905
1350.0,0.01861
1351.0,0.005861
1352.0,0.002064
1353.0,0.0001447
1354.0,0.0004102
1355.0,6.204e-06
1356.0,7.262e-05
1357.0,0.0001094
1358.0,7.165e-06
1359.0,1.429e-06
1360.0,3.863e-06
1361.0,1.17e-08
1362.0,5.038e-11
1363.0,5.847e-06
1364.0,2.549e-06
1365.0,2.98e-11
1366.0,2.255e-05
1367.0,8.738e-06
1368.0,6.569e-13
1369.0,9.855e-07
1370.0,5.89e-07
1371.0,4.32e-08
1372.0,4.83e-06
1373.0,7.039e-05
1374.0,0.0002633
1375.0,0.0004756
1376.0,0.0003653
1377.0,0.0001764
1378.0,0.001539
1379.0,7.517e-05
1380.0,0.0001225
1381.0,3.727e-06
1382.0,4.595e-06
1383.0,8.451e-08
1384.0,1.199e-06
1385.0,3.525e-06
1386.0,4.662e-06
1387.0,0.0003059
1388.0,6.35e-06
1389.0,0.0008272
1390.0,0.0007098
1391.0,0.0005006
1392.0,3.577e-05
1393.0,0.0001676
1394.0,0.0001208
1395.0,1.178e-06
1396.0,1.481e-08
1397.0,7.304e-05
1398.0,0.001759
1399.0,0.001117
1400.0,8.24e-09
1401.0,2.423e-08
1402.0,0.00235
1403.0,0.003103
1404.0,0.0009686
1405.0,6.778e-07
1406.0,0.002735
1407.0,0.0002332
1408.0,0.002209
1409.0,0.0008698
1410.0,0.0006392
1411.0,0.002705
1412.0,0.003385
1413.0,0.02749
1414.0,0.0004958
1415.0,0.0002576
1416.0,0.04003
1417.0,0.01392
1418.0,0.01597
1419.0,0.002572
1420.0,0.009848
1421.0,0.01077
1422.0,0.05171
1423.0,0.01053
1424.0,0.01929
1425.0,0.02897
1426.0,0.03129
1427.0,0.05382
1428.0,0.005552
1429.0,0.04187
1430.0,0.06738
1431.0,0.07302
1432.0,0.004424
1433.0,0.04786
1434.0,0.02506
1435.0,0.02746
1436.0,0.04914
1437.0,0.03768
1438.0,0.017
1439.0,0.06513
1440.0,0.049
1441.0,0.03915
1442.0,0.04303
1443.0,0.0513
1444.0,0.06989
1445.0,0.05687
1446.0,0.02626
1447.0,0.04131
1448.0,0.124
1449.0,0.1099
1450.0,0.03056
1451.0,0.01283
1452.0,0.06818
1453.0,0.08827
1454.0,0.1441
1455.0,0.07072
1456.0,0.09617
1457.0,0.1246
1458.0,0.1428
1459.0,0.1694
1460.0,0.0905
1461.0,0.09632
1462.0,0.1377
1463.0,0.04693
1464.0,0.1597
1465.0,0.09693
1466.0,0.07144
1467.0,0.03962
