interpolation:linear
wavelength,value
280.0,9.608e-29
280.5,6.4329999999999995e-27
281.0,4.5570000000000006e-26
281.5,2.892e-24
282.0,3.545e-23
282.5,1.819e-22
283.0,1.105e-21
283.5,2.443e-21
284.0,1.297e-19
284.5,6.22e-19
285.0,2.08e-18
285.5,2.43e-17
286.0,1.35e-16
286.5,1.096e-15
287.0,4.764e-15
287.5,3.053e-14
288.0,2.097e-13
288.5,1.041e-12
289.0,4.389e-12
289.5,2.101e-11
290.0,8.372e-11
290.5,2.298e-10
291.0,6.939e-10
291.5,3.005e-09
292.0,9.53e-09
292.5,1.627e-08
293.0,4.432e-08
293.5,1.472e-07
294.0,2.866e-07
294.5,5.653e-07
295.0,1.147e-06
295.5,3.311e-06
296.0,6.715e-06
296.5,9.801e-06
297.0,1.369e-05
297.5,3.797e-05
298.0,6.119e-05
298.5,6.243e-05
299.0,0.000139
299.5,0.0002303
300.0,0.0002527
300.5,0.0003635
301.0,0.0006405
301.5,0.0009885
302.0,0.0008334
302.5,0.001656
303.0,0.00302
303.5,0.003824
304.0,0.003573
304.5,0.005168
305.0,0.007447
305.5,0.00827
306.0,0.007948
306.5,0.009721
307.0,0.0137
307.5,0.01731
308.0,0.01826
308.5,0.0211
309.0,0.01902
309.5,0.02185
310.0,0.02203
310.5,0.03587
311.0,0.04512
311.5,0.04377
312.0,0.04336
312.5,0.05244
313.0,0.05687
313.5,0.05606
314.0,0.06929
314.5,0.06014
315.0,0.07918
315.5,0.06772
316.0,0.05808
316.5,0.08202
317.0,0.1026
317.5,0.1082
318.0,0.0836
318.5,0.1009
319.0,0.1184
319.5,0.1
320.0,0.1222
320.5,0.1483
321.0,0.1282
321.5,0.1233
322.0,0.1375
322.5,0.1201
323.0,0.1174
323.5,0.1388
324.0,0.1623
324.5,0.1676
325.0,0.1507
325.5,0.1909
326.0,0.2288
326.5,0.227
327.0,0.2289
327.5,0.224
328.0,0.2044
328.5,0.2112
329.0,0.2493
329.5,0.2828
330.0,0.2884
330.5,0.2358
331.0,0.2429
331.5,0.2454
332.0,0.262
332.5,0.2585
333.0,0.2604
333.5,0.2401
334.0,0.2478
334.5,0.2833
335.0,0.2652
335.5,0.3024
336.0,0.2103
336.5,0.2561
337.0,0.2125
337.5,0.2663
338.0,0.2581
338.5,0.2926
339.0,0.2927
339.5,0.2818
340.0,0.3398
340.5,0.3074
341.0,0.2962
341.5,0.2758
342.0,0.3318
342.5,0.3125
343.0,0.3437
343.5,0.3239
344.0,0.2433
344.5,0.2419
345.0,0.3254
345.5,0.3349
346.0,0.2865
346.5,0.3262
347.0,0.3505
347.5,0.2843
348.0,0.3269
348.5,0.3288
349.0,0.3065
349.5,0.3046
350.0,0.3784
350.5,0.4008
351.0,0.3589
351.5,0.3484
352.0,0.377
352.5,0.2961
353.0,0.3748
353.5,0.4026
354.0,0.4198
354.5,0.4274
355.0,0.4274
355.5,0.3877
356.0,0.4073
356.5,0.3491
357.0,0.2895
357.5,0.3558
358.0,0.2831
358.5,0.2428
359.0,0.3408
359.5,0.4356
360.0,0.4635
360.5,0.3719
361.0,0.3403
361.5,0.3932
362.0,0.3411
362.5,0.4737
363.0,0.4269
363.5,0.3945
364.0,0.4841
364.5,0.4151
365.0,0.4242
365.5,0.5341
366.0,0.5678
366.5,0.5352
367.0,0.5229
367.5,0.5443
368.0,0.4778
368.5,0.4836
369.0,0.5239
369.5,0.5602
370.0,0.599
370.5,0.4663
371.0,0.4998
371.5,0.6271
372.0,0.4175
372.5,0.5021
373.0,0.5122
373.5,0.3342
374.0,0.487
374.5,0.4045
375.0,0.3943
375.5,0.5904
376.0,0.4908
376.5,0.5101
377.0,0.5415
377.5,0.6353
378.0,0.6906
378.5,0.6546
379.0,0.5418
379.5,0.4964
380.0,0.5175
380.5,0.6286
381.0,0.6316
381.5,0.5021
382.0,0.4471
382.5,0.3822
383.0,0.3547
383.5,0.3426
384.0,0.3788
384.5,0.5586
385.0,0.5553
385.5,0.5185
386.0,0.4452
386.5,0.5862
387.0,0.4884
387.5,0.5499
388.0,0.509
388.5,0.5043
389.0,0.5457
389.5,0.6626
390.0,0.6666
390.5,0.6149
391.0,0.7255
391.5,0.7418
392.0,0.6263
392.5,0.562
393.0,0.3134
393.5,0.2283
394.0,0.4656
394.5,0.5933
395.0,0.7255
395.5,0.7386
396.0,0.6418
396.5,0.376
397.0,0.2828
397.5,0.5764
398.0,0.8089
398.5,0.8379
399.0,0.9091
399.5,0.9079
400.0,0.9448
401.0,0.9741
402.0,1.032
403.0,0.9838
404.0,0.9723
405.0,0.9757
406.0,0.9634
407.0,0.9514
408.0,0.9921
409.0,1.065
410.0,0.934
411.0,1.015
412.0,1.094
413.0,1.07
414.0,1.087
415.0,1.093
416.0,1.116
417.0,1.092
418.0,1.075
419.0,1.093
420.0,1.091
421.0,1.145
422.0,1.092
423.0,1.07
424.0,1.135
425.0,1.136
426.0,1.109
427.0,1.092
428.0,1.066
429.0,1.012
430.0,0.8884
431.0,0.8831
432.0,1.143
433.0,1.152
434.0,1.073
435.0,1.123
436.0,1.269
437.0,1.254
438.0,1.145
439.0,1.187
440.0,1.228
441.0,1.275
442.0,1.371
443.0,1.338
444.0,1.37
445.0,1.343
446.0,1.285
447.0,1.392
448.0,1.417
449.0,1.425
450.0,1.468
451.0,1.526
452.0,1.473
453.0,1.388
454.0,1.452
455.0,1.463
456.0,1.501
457.0,1.529
458.0,1.48
459.0,1.475
460.0,1.482
461.0,1.519
462.0,1.533
463.0,1.525
464.0,1.502
465.0,1.485
466.0,1.502
467.0,1.478
468.0,1.498
469.0,1.508
470.0,1.463
471.0,1.463
472.0,1.544
473.0,1.527
474.0,1.532
475.0,1.548
476.0,1.504
477.0,1.511
478.0,1.556
479.0,1.549
480.0,1.554
481.0,1.585
482.0,1.595
483.0,1.578
484.0,1.548
485.0,1.476
486.0,1.292
487.0,1.356
488.0,1.489
489.0,1.496
490.0,1.576
491.0,1.551
492.0,1.466
493.0,1.516
494.0,1.533
495.0,1.548
496.0,1.56
497.0,1.586
498.0,1.514
499.0,1.535
500.0,1.493
501.0,1.468
502.0,1.45
503.0,1.511
504.0,1.476
505.0,1.53
506.0,1.581
507.0,1.506
508.0,1.46
509.0,1.502
510.0,1.495
511.0,1.537
512.0,1.555
513.0,1.473
514.0,1.464
515.0,1.451
516.0,1.449
517.0,1.289
518.0,1.356
519.0,1.424
520.0,1.478
521.0,1.493
522.0,1.496
523.0,1.471
524.0,1.525
525.0,1.545
526.0,1.477
527.0,1.394
528.0,1.476
529.0,1.557
530.0,1.536
531.0,1.561
532.0,1.508
533.0,1.465
534.0,1.51
535.0,1.544
536.0,1.559
537.0,1.499
538.0,1.526
539.0,1.515
540.0,1.453
541.0,1.465
542.0,1.512
543.0,1.497
544.0,1.524
545.0,1.521
546.0,1.529
547.0,1.529
548.0,1.512
549.0,1.517
550.0,1.536
551.0,1.519
552.0,1.53
553.0,1.504
554.0,1.541
555.0,1.545
556.0,1.527
557.0,1.48
558.0,1.47
559.0,1.444
560.0,1.464
561.0,1.484
562.0,1.474
563.0,1.516
564.0,1.476
565.0,1.464
566.0,1.444
567.0,1.473
568.0,1.461
569.0,1.429
570.0,1.429
571.0,1.421
572.0,1.457
573.0,1.474
574.0,1.47
575.0,1.444
576.0,1.431
577.0,1.447
578.0,1.426
579.0,1.432
580.0,1.459
581.0,1.466
582.0,1.494
583.0,1.498
584.0,1.511
585.0,1.475
586.0,1.445
587.0,1.478
588.0,1.445
589.0,1.284
590.0,1.343
591.0,1.42
592.0,1.404
593.0,1.424
594.0,1.415
595.0,1.382
596.0,1.435
597.0,1.421
598.0,1.417
599.0,1.418
600.0,1.42
601.0,1.409
602.0,1.4
603.0,1.423
604.0,1.447
605.0,1.44
606.0,1.435
607.0,1.449
608.0,1.433
609.0,1.436
610.0,1.426
611.0,1.434
612.0,1.43
613.0,1.412
614.0,1.393
615.0,1.424
616.0,1.377
617.0,1.375
618.0,1.428
619.0,1.414
620.0,1.424
621.0,1.426
622.0,1.41
623.0,1.389
624.0,1.366
625.0,1.363
626.0,1.384
627.0,1.4
628.0,1.316
629.0,1.371
630.0,1.34
631.0,1.368
632.0,1.352
633.0,1.392
634.0,1.378
635.0,1.4
636.0,1.381
637.0,1.404
638.0,1.417
639.0,1.401
640.0,1.388
641.0,1.387
642.0,1.381
643.0,1.4
644.0,1.396
645.0,1.398
646.0,1.367
647.0,1.353
648.0,1.355
649.0,1.33
650.0,1.334
651.0,1.391
652.0,1.337
653.0,1.374
654.0,1.359
655.0,1.31
656.0,1.16
657.0,1.192
658.0,1.335
659.0,1.344
660.0,1.35
661.0,1.36
662.0,1.364
663.0,1.337
664.0,1.352
665.0,1.353
666.0,1.354
667.0,1.353
668.0,1.354
669.0,1.375
670.0,1.369
671.0,1.369
672.0,1.358
673.0,1.378
674.0,1.373
675.0,1.361
676.0,1.371
677.0,1.357
678.0,1.361
679.0,1.339
680.0,1.35
681.0,1.342
682.0,1.34
683.0,1.338
684.0,1.332
685.0,1.343
686.0,1.336
687.0,0.9202
688.0,1.063
689.0,1.066
690.0,1.114
691.0,1.166
692.0,1.204
693.0,1.195
694.0,1.186
695.0,1.231
696.0,1.233
697.0,1.303
698.0,1.283
699.0,1.256
700.0,1.242
701.0,1.23
702.0,1.238
703.0,1.24
704.0,1.278
705.0,1.28
706.0,1.279
707.0,1.28
708.0,1.283
709.0,1.284
710.0,1.285
711.0,1.283
712.0,1.278
713.0,1.266
714.0,1.271
715.0,1.233
716.0,1.234
717.0,1.083
718.0,0.9967
719.0,0.9146
720.0,0.959
721.0,1.051
722.0,1.194
723.0,1.117
724.0,1.011
725.0,0.9968
726.0,1.043
727.0,1.055
728.0,0.9953
729.0,1.028
730.0,1.088
731.0,1.043
732.0,1.111
733.0,1.172
734.0,1.199
735.0,1.175
736.0,1.173
737.0,1.178
738.0,1.194
739.0,1.17
740.0,1.2
741.0,1.188
742.0,1.189
743.0,1.219
744.0,1.216
745.0,1.216
746.0,1.222
747.0,1.224
748.0,1.222
749.0,1.208
750.0,1.208
751.0,1.196
752.0,1.201
753.0,1.207
754.0,1.21
755.0,1.203
756.0,1.203
757.0,1.205
758.0,1.19
759.0,1.168
760.0,0.2242
761.0,0.1235
762.0,0.6295
763.0,0.3319
764.0,0.4838
765.0,0.6299
766.0,0.7588
767.0,0.943
768.0,1.077
769.0,1.097
770.0,1.131
771.0,1.139
772.0,1.142
773.0,1.15
774.0,1.144
775.0,1.136
776.0,1.15
777.0,1.135
778.0,1.128
779.0,1.129
780.0,1.123
781.0,1.124
782.0,1.131
783.0,1.112
784.0,1.117
785.0,1.109
786.0,1.122
787.0,1.103
788.0,1.09
789.0,1.09
790.0,1.063
791.0,1.071
792.0,1.063
793.0,1.046
794.0,1.062
795.0,1.081
796.0,1.05
797.0,1.052
798.0,1.08
799.0,1.074
800.0,1.056
801.0,1.053
802.0,1.05
803.0,1.043
804.0,1.044
805.0,1.04
806.0,1.068
807.0,1.056
808.0,1.057
809.0,1.038
810.0,1.03
811.0,1.033
812.0,1.005
813.0,0.9853
814.0,0.8726
815.0,0.8672
816.0,0.8081
817.0,0.8223
818.0,0.7929
819.0,0.8816
820.0,0.8323
821.0,0.9661
822.0,0.9397
823.0,0.6499
824.0,0.9149
825.0,0.9501
826.0,0.9162
827.0,0.9647
828.0,0.8241
829.0,0.9105
830.0,0.8993
831.0,0.9023
832.0,0.8758
833.0,0.9287
834.0,0.8979
835.0,0.9823
836.0,0.943
837.0,0.9851
838.0,0.9557
839.0,0.9702
840.0,0.9912
841.0,0.9777
842.0,0.9792
843.0,0.978
844.0,0.9649
845.0,0.997
846.0,0.9926
847.0,0.974
848.0,0.9684
849.0,0.941
850.0,0.9016
851.0,0.955
852.0,0.9482
853.0,0.9125
854.0,0.7882
855.0,0.8657
856.0,0.9463
857.0,0.9673
858.0,0.9603
859.0,0.9611
860.0,0.9628
861.0,0.9577
862.0,0.9727
863.0,0.9958
864.0,0.9461
865.0,0.9379
866.0,0.8434
867.0,0.8802
868.0,0.9579
869.0,0.938
870.0,0.9649
871.0,0.9518
872.0,0.9485
873.0,0.9467
874.0,0.9355
875.0,0.9166
876.0,0.9263
877.0,0.9357
878.0,0.946
879.0,0.9315
880.0,0.9116
881.0,0.8981
882.0,0.9176
883.0,0.9205
884.0,0.9164
885.0,0.9234
886.0,0.8806
887.0,0.8896
888.0,0.903
889.0,0.913
890.0,0.9059
891.0,0.9041
892.0,0.8787
893.0,0.852
894.0,0.8235
895.0,0.78
896.0,0.7357
897.0,0.6344
898.0,0.691
899.0,0.5286
900.0,0.7061
901.0,0.5539
902.0,0.6463
903.0,0.654
904.0,0.8179
905.0,0.7906
906.0,0.7406
907.0,0.6053
908.0,0.6168
909.0,0.6666
910.0,0.5924
911.0,0.6297
912.0,0.6577
913.0,0.6015
914.0,0.5959
915.0,0.6457
916.0,0.5475
917.0,0.6917
918.0,0.5615
919.0,0.7036
920.0,0.7094
921.0,0.7375
922.0,0.6614
923.0,0.7124
924.0,0.678
925.0,0.6634
926.0,0.6706
927.0,0.749
928.0,0.5546
929.0,0.5076
930.0,0.4009
931.0,0.3796
932.0,0.2752
933.0,0.2246
934.0,0.125
935.0,0.2292
936.0,0.1442
937.0,0.1463
938.0,0.1795
939.0,0.3679
940.0,0.4414
941.0,0.3348
942.0,0.3867
943.0,0.2556
944.0,0.2681
945.0,0.345
946.0,0.1772
947.0,0.347
948.0,0.2552
949.0,0.4629
950.0,0.1309
951.0,0.4556
952.0,0.2468
953.0,0.3175
954.0,0.3879
955.0,0.321
956.0,0.3109
957.0,0.2474
958.0,0.4387
959.0,0.35
960.0,0.3922
961.0,0.4391
962.0,0.4156
963.0,0.4782
964.0,0.4384
965.0,0.4764
966.0,0.4766
967.0,0.4747
968.0,0.633
969.0,0.6615
970.0,0.608
971.0,0.6944
972.0,0.6646
973.0,0.5802
974.0,0.5509
975.0,0.5714
976.0,0.5434
977.0,0.6168
978.0,0.5866
979.0,0.614
980.0,0.5776
981.0,0.6907
982.0,0.661
983.0,0.6349
984.0,0.7111
985.0,0.6586
986.0,0.7233
987.0,0.7096
988.0,0.7083
989.0,0.721
990.0,0.7041
991.0,0.7232
992.0,0.7274
993.0,0.7117
994.0,0.7272
995.0,0.7263
996.0,0.7232
997.0,0.7242
998.0,0.7209
999.0,0.7183
1000.0,0.7133
1001.0,0.7222
1002.0,0.7026
1003.0,0.7095
1004.0,0.6922
1005.0,0.6668
1006.0,0.6929
1007.0,0.7076
1008.0,0.7039
1009.0,0.7002
1010.0,0.6973
1011.0,0.7041
1012.0,0.6981
1013.0,0.7025
1014.0,0.6976
1015.0,0.693
1016.0,0.6899
1017.0,0.6917
1018.0,0.6891
1019.0,0.6746
1020.0,0.6855
1021.0,0.6846
1022.0,0.6794
1023.0,0.6866
1024.0,0.6778
1025.0,0.6861
1026.0,0.6833
1027.0,0.6817
1028.0,0.6803
1029.0,0.6723
1030.0,0.6769
1031.0,0.6742
1032.0,0.6723
1033.0,0.6622
1034.0,0.6622
1035.0,0.6643
1036.0,0.6678
1037.0,0.657
1038.0,0.6599
1039.0,0.6596
1040.0,0.6569
1041.0,0.6596
1042.0,0.655
1043.0,0.653
1044.0,0.6553
1045.0,0.6464
1046.0,0.6393
1047.0,0.6451
1048.0,0.6487
1049.0,0.6464
1050.0,0.6434
1051.0,0.6425
1052.0,0.64
1053.0,0.6349
1054.0,0.6363
1055.0,0.6367
1056.0,0.6345
1057.0,0.6326
1058.0,0.6171
1059.0,0.6178
1060.0,0.6169
1061.0,0.6162
1062.0,0.6194
1063.0,0.6134
1064.0,0.6206
1065.0,0.6162
1066.0,0.604
1067.0,0.6119
1068.0,0.5985
1069.0,0.5801
1070.0,0.5998
1071.0,0.609
1072.0,0.6021
1073.0,0.5934
1074.0,0.6087
1075.0,0.5785
1076.0,0.6082
1077.0,0.5976
1078.0,0.5863
1079.0,0.5985
1080.0,0.5884
1081.0,0.5697
1082.0,0.5786
1083.0,0.5803
1084.0,0.5684
1085.0,0.5898
1086.0,0.5388
1087.0,0.5557
1088.0,0.5799
1089.0,0.5624
1090.0,0.5503
1091.0,0.5781
1092.0,0.5766
1093.0,0.4899
1094.0,0.5277
1095.0,0.5103
1096.0,0.4889
1097.0,0.5633
1098.0,0.4814
1099.0,0.502
1100.0,0.4671
1101.0,0.4728
1102.0,0.4519
1103.0,0.4477
1104.0,0.4483
1105.0,0.4907
1106.0,0.377
1107.0,0.4664
1108.0,0.3963
1109.0,0.3969
1110.0,0.4625
1111.0,0.315
1112.0,0.3938
1113.0,0.252
1114.0,0.2815
1115.0,0.2334
1116.0,0.1871
1117.0,0.06941
1118.0,0.2033
1119.0,0.1014
1120.0,0.1277
1121.0,0.1692
1122.0,0.07164
1123.0,0.1154
1124.0,0.09743
1125.0,0.127
1126.0,0.04461
1127.0,0.1432
1128.0,0.0861
1129.0,0.09131
1130.0,0.06024
1131.0,0.2704
1132.0,0.2124
1133.0,0.1352
1134.0,0.03486
1135.0,0.01305
1136.0,0.113
1137.0,0.2658
1138.0,0.1874
1139.0,0.2783
1140.0,0.233
1141.0,0.1781
1142.0,0.2047
1143.0,0.2901
1144.0,0.1019
1145.0,0.1304
1146.0,0.1406
1147.0,0.04988
1148.0,0.2511
1149.0,0.2009
1150.0,0.1096
1151.0,0.186
1152.0,0.2285
1153.0,0.2224
1154.0,0.1264
1155.0,0.2904
1156.0,0.2618
1157.0,0.2933
1158.0,0.2902
1159.0,0.3126
1160.0,0.2676
1161.0,0.3287
1162.0,0.3304
1163.0,0.444
1164.0,0.3817
1165.0,0.3609
1166.0,0.3578
1167.0,0.3893
1168.0,0.3938
1169.0,0.4028
1170.0,0.437
1171.0,0.4262
1172.0,0.4334
1173.0,0.4361
1174.0,0.3139
1175.0,0.4256
1176.0,0.4666
1177.0,0.4488
1178.0,0.339
1179.0,0.4703
1180.0,0.4213
1181.0,0.4346
1182.0,0.3021
1183.0,0.4277
1184.0,0.4015
1185.0,0.3882
1186.0,0.4579
1187.0,0.4369
1188.0,0.3075
1189.0,0.4072
1190.0,0.4475
1191.0,0.4262
1192.0,0.4536
1193.0,0.4352
1194.0,0.4482
1195.0,0.4249
1196.0,0.4098
1197.0,0.448
1198.0,0.4105
1199.0,0.3514
1200.0,0.4298
1201.0,0.4153
1202.0,0.4124
1203.0,0.409
1204.0,0.3589
1205.0,0.4214
1206.0,0.4642
1207.0,0.4116
1208.0,0.4045
1209.0,0.4127
1210.0,0.4294
1211.0,0.4098
1212.0,0.4059
1213.0,0.4495
1214.0,0.4152
1215.0,0.4075
1216.0,0.4481
1217.0,0.4367
1218.0,0.4445
1219.0,0.4392
1220.0,0.4449
1221.0,0.4491
1222.0,0.4377
1223.0,0.4338
1224.0,0.4315
1225.0,0.4462
1226.0,0.4489
1227.0,0.4154
1228.0,0.4509
1229.0,0.449
1230.0,0.4416
1231.0,0.4534
1232.0,0.4507
1233.0,0.4362
1234.0,0.4528
1235.0,0.4501
1236.0,0.4532
1237.0,0.4473
1238.0,0.4517
1239.0,0.4459
1240.0,0.4476
1241.0,0.4457
1242.0,0.4446
1243.0,0.4409
1244.0,0.4442
1245.0,0.446
1246.0,0.4434
1247.0,0.4418
1248.0,0.4416
1249.0,0.4429
1250.0,0.4403
1251.0,0.4348
1252.0,0.4347
1253.0,0.4315
1254.0,0.4275
1255.0,0.4343
1256.0,0.4228
1257.0,0.4206
1258.0,0.428
1259.0,0.4135
1260.0,0.4155
1261.0,0.3934
1262.0,0.3823
1263.0,0.383
1264.0,0.3551
1265.0,0.3806
1266.0,0.3671
1267.0,0.3729
1268.0,0.3547
1269.0,0.2265
1270.0,0.3718
1271.0,0.392
1272.0,0.3931
1273.0,0.3891
1274.0,0.3902
1275.0,0.3956
1276.0,0.3992
1277.0,0.4016
1278.0,0.4088
1279.0,0.4052
1280.0,0.4
1281.0,0.3815
1282.0,0.3672
1283.0,0.3955
1284.0,0.4051
1285.0,0.4077
1286.0,0.413
1287.0,0.407
1288.0,0.4068
1289.0,0.3947
1290.0,0.4032
1291.0,0.4087
1292.0,0.3854
1293.0,0.4011
1294.0,0.3984
1295.0,0.3968
1296.0,0.3798
1297.0,0.36
1298.0,0.386
1299.0,0.4015
1300.0,0.3423
1301.0,0.3524
1302.0,0.3847
1303.0,0.3376
1304.0,0.2902
1305.0,0.377
1306.0,0.3772
1307.0,0.2956
1308.0,0.3378
1309.0,0.3745
1310.0,0.2901
1311.0,0.3243
1312.0,0.3159
1313.0,0.3102
1314.0,0.2784
1315.0,0.2753
1316.0,0.3196
1317.0,0.303
1318.0,0.3284
1319.0,0.2592
1320.0,0.2506
1321.0,0.2911
1322.0,0.2943
1323.0,0.2234
1324.0,0.2542
1325.0,0.3152
1326.0,0.2718
1327.0,0.2595
1328.0,0.2244
1329.0,0.1701
1330.0,0.2206
1331.0,0.1349
1332.0,0.1387
1333.0,0.1927
1334.0,0.1624
1335.0,0.2226
1336.0,0.1769
1337.0,0.1569
1338.0,0.1698
1339.0,0.1688
1340.0,0.1638
1341.0,0.1609
1342.0,0.1689
1343.0,0.1162
1344.0,0.06952
1345.0,0.1001
1346.0,0.0509
1347.0,0.05195
1348.0,0.003584
1349.0,0.01266
1350.0,0.01299
1351.0,0.003337
1352.0,0.0009583
1353.0,5.237e-05
1354.0,0.0001727
1355.0,1.605e-06
1356.0,2.572e-05
1357.0,3.911e-05
1358.0,1.89e-06
1359.0,2.652e-07
1360.0,8.984e-07
1361.0,1.26e-09
1362.0,3.807e-12
1363.0,1.257e-06
1364.0,5.238e-07
1365.0,1.513e-12
1366.0,5.342e-06
1367.0,2.149e-06
1368.0,1.497e-14
1369.0,1.97e-07
1370.0,1.017e-07
1371.0,6.11e-09
1372.0,1.182e-06
1373.0,2.223e-05
1374.0,9.848e-05
1375.0,0.0001794
1376.0,0.000155
1377.0,7.182e-05
1378.0,0.0006885
1379.0,3.024e-05
1380.0,4.489e-05
1381.0,1.209e-06
1382.0,1.08e-06
1383.0,1.688e-08
1384.0,2.27e-07
1385.0,9.719e-07
1386.0,9.934e-07
1387.0,0.0001053
1388.0,2.083e-06
1389.0,0.0003388
1390.0,0.0002918
1391.0,0.0001967
1392.0,1.301e-05
1393.0,6.729e-05
1394.0,3.761e-05
1395.0,2.929e-07
1396.0,1.762e-09
1397.0,2.734e-05
1398.0,0.0007776
1399.0,0.0004928
1400.0,8.082e-10
1401.0,3.104e-09
1402.0,0.001288
1403.0,0.001638
1404.0,0.0005019
1405.0,1.482e-07
1406.0,0.001332
1407.0,0.0001161
1408.0,0.001086
1409.0,0.0003771
1410.0,0.0002956
1411.0,0.001437
1412.0,0.00191
1413.0,0.01888
1414.0,0.0002323
1415.0,0.0001133
1416.0,0.03048
1417.0,0.009344
1418.0,0.01066
1419.0,0.00166
1420.0,0.006528
1421.0,0.00706
1422.0,0.03976
1423.0,0.007731
1424.0,0.01447
1425.0,0.02133
1426.0,0.02413
1427.0,0.04424
1428.0,0.003383
1429.0,0.03313
1430.0,0.05638
1431.0,0.06193
1432.0,0.002667
1433.0,0.03939
1434.0,0.02003
1435.0,0.02001
1436.0,0.03865
1437.0,0.02962
1438.0,0.01249
1439.0,0.05259
1440.0,0.03939
1441.0,0.02997
1442.0,0.03325
1443.0,0.04186
1444.0,0.05807
1445.0,0.04531
1446.0,0.02034
1447.0,0.03207
1448.0,0.1097
1449.0,0.09509
1450.0,0.02379
1451.0,0.009518
1452.0,0.05702
1453.0,0.07502
1454.0,0.13
1455.0,0.06085
1456.0,0.08163
1457.0,0.1102
1458.0,0.1307
1459.0,0.1545
1460.0,0.08003
1461.0,0.08322
1462.0,0.1227
1463.0,0.03923
1464.0,0.1462
