interpolation:linear
wavelength,value
280.0,4.432e-28
280.5,2.693e-26
281.0,1.841e-25
281.5,1.0629999999999999e-23
282.0,1.2309999999999999e-22
282.5,6.079999999999999e-22
283.0,3.54e-21
283.5,7.662e-21
284.0,3.689e-19
284.5,1.691e-18
285.0,5.39e-18
285.5,5.947e-17
286.0,3.229e-16
286.5,2.501e-15
287.0,1.05e-14
287.5,6.424e-14
288.0,4.165e-13
288.5,2.006e-12
289.0,8.193e-12
289.5,3.787e-11
290.0,1.467e-10
290.5,3.932e-10
291.0,1.154e-09
291.5,4.818e-09
292.0,1.483e-08
292.5,2.489e-08
293.0,6.639e-08
293.5,2.141e-07
294.0,4.088e-07
294.5,7.944e-07
295.0,1.583e-06
295.5,4.461e-06
296.0,8.906e-06
296.5,1.281e-05
297.0,1.767e-05
297.5,4.821e-05
298.0,7.664e-05
298.5,7.742e-05
299.0,0.0001707
299.5,0.0002787
300.0,0.0003035
300.5,0.0004331
301.0,0.0007548
301.5,0.001155
302.0,0.0009692
302.5,0.001911
303.0,0.003453
303.5,0.004348
304.0,0.004052
304.5,0.005824
305.0,0.008325
305.5,0.009199
306.0,0.008823
306.5,0.01076
307.0,0.01507
307.5,0.01894
308.0,0.01995
308.5,0.023
309.0,0.02068
309.5,0.02363
310.0,0.02376
310.5,0.03863
311.0,0.04848
311.5,0.04699
312.0,0.04635
312.5,0.05592
313.0,0.06054
313.5,0.05973
314.0,0.0736
314.5,0.06365
315.0,0.08373
315.5,0.0717
316.0,0.06132
316.5,0.08638
317.0,0.108
317.5,0.114
318.0,0.0879
318.5,0.1058
319.0,0.1239
319.5,0.1049
320.0,0.1281
320.5,0.1551
321.0,0.1338
321.5,0.1286
322.0,0.1437
322.5,0.1255
323.0,0.1224
323.5,0.1444
324.0,0.1688
324.5,0.1744
325.0,0.157
325.5,0.1986
326.0,0.2376
326.5,0.2355
327.0,0.2375
327.5,0.2324
328.0,0.2123
328.5,0.219
329.0,0.2582
329.5,0.2927
330.0,0.2986
330.5,0.2443
331.0,0.2516
331.5,0.254
332.0,0.2709
332.5,0.2671
333.0,0.2691
333.5,0.2482
334.0,0.2561
334.5,0.2926
335.0,0.2738
335.5,0.3121
336.0,0.2169
336.5,0.2642
337.0,0.2193
337.5,0.2747
338.0,0.2661
338.5,0.3016
339.0,0.3017
339.5,0.2904
340.0,0.3501
340.5,0.3167
341.0,0.305
341.5,0.2839
342.0,0.3416
342.5,0.3216
343.0,0.3536
343.5,0.3332
344.0,0.2504
344.5,0.2488
345.0,0.3346
345.5,0.3443
346.0,0.2945
346.5,0.3352
347.0,0.3602
347.5,0.292
348.0,0.3357
348.5,0.3376
349.0,0.3147
349.5,0.3127
350.0,0.3884
350.5,0.4113
351.0,0.3683
351.5,0.3575
352.0,0.3868
352.5,0.3037
353.0,0.3844
353.5,0.4128
354.0,0.4304
354.5,0.4381
355.0,0.4381
355.5,0.3973
356.0,0.4173
356.5,0.3577
357.0,0.2966
357.5,0.3645
358.0,0.2899
358.5,0.2486
359.0,0.3489
359.5,0.4459
360.0,0.4745
360.5,0.3806
361.0,0.3482
361.5,0.4023
362.0,0.349
362.5,0.4846
363.0,0.4366
363.5,0.4034
364.0,0.4949
364.5,0.4244
365.0,0.4336
365.5,0.5459
366.0,0.5802
366.5,0.5468
367.0,0.5342
367.5,0.556
368.0,0.488
368.5,0.4939
369.0,0.535
369.5,0.5719
370.0,0.6115
370.5,0.476
371.0,0.5101
371.5,0.64
372.0,0.426
372.5,0.5123
373.0,0.5225
373.5,0.3409
374.0,0.4967
374.5,0.4125
375.0,0.4021
375.5,0.602
376.0,0.5004
376.5,0.52
377.0,0.552
377.5,0.6475
378.0,0.7038
378.5,0.6671
379.0,0.5521
379.5,0.5057
380.0,0.5273
380.5,0.6403
381.0,0.6434
381.5,0.5113
382.0,0.4553
382.5,0.3891
383.0,0.3612
383.5,0.3487
384.0,0.3856
384.5,0.5685
385.0,0.5652
385.5,0.5276
386.0,0.453
386.5,0.5964
387.0,0.4968
387.5,0.5594
388.0,0.5177
388.5,0.5129
389.0,0.555
389.5,0.6738
390.0,0.6777
390.5,0.6252
391.0,0.7376
391.5,0.754
392.0,0.6366
392.5,0.5711
393.0,0.3185
393.5,0.232
394.0,0.4731
394.5,0.6028
395.0,0.7371
395.5,0.7503
396.0,0.6519
396.5,0.3819
397.0,0.2872
397.5,0.5853
398.0,0.8214
398.5,0.8507
399.0,0.9229
399.5,0.9217
400.0,0.959
401.0,0.9886
402.0,1.047
403.0,0.9982
404.0,0.9864
405.0,0.9897
406.0,0.9771
407.0,0.9647
408.0,1.006
409.0,1.08
410.0,0.9467
411.0,1.029
412.0,1.108
413.0,1.084
414.0,1.101
415.0,1.107
416.0,1.13
417.0,1.106
418.0,1.089
419.0,1.106
420.0,1.105
421.0,1.159
422.0,1.105
423.0,1.083
424.0,1.148
425.0,1.149
426.0,1.122
427.0,1.104
428.0,1.078
429.0,1.024
430.0,0.8983
431.0,0.8929
432.0,1.156
433.0,1.165
434.0,1.085
435.0,1.135
436.0,1.282
437.0,1.267
438.0,1.156
439.0,1.199
440.0,1.24
441.0,1.288
442.0,1.384
443.0,1.352
444.0,1.384
445.0,1.357
446.0,1.297
447.0,1.405
448.0,1.43
449.0,1.438
450.0,1.482
451.0,1.54
452.0,1.486
453.0,1.401
454.0,1.465
455.0,1.477
456.0,1.514
457.0,1.543
458.0,1.493
459.0,1.488
460.0,1.495
461.0,1.532
462.0,1.546
463.0,1.538
464.0,1.515
465.0,1.498
466.0,1.514
467.0,1.49
468.0,1.51
469.0,1.52
470.0,1.474
471.0,1.475
472.0,1.556
473.0,1.538
474.0,1.544
475.0,1.56
476.0,1.516
477.0,1.523
478.0,1.568
479.0,1.56
480.0,1.565
481.0,1.597
482.0,1.607
483.0,1.589
484.0,1.559
485.0,1.487
486.0,1.301
487.0,1.365
488.0,1.5
489.0,1.507
490.0,1.587
491.0,1.561
492.0,1.476
493.0,1.526
494.0,1.544
495.0,1.558
496.0,1.57
497.0,1.596
498.0,1.524
499.0,1.545
500.0,1.503
501.0,1.477
502.0,1.459
503.0,1.521
504.0,1.486
505.0,1.539
506.0,1.591
507.0,1.515
508.0,1.469
509.0,1.511
510.0,1.504
511.0,1.546
512.0,1.564
513.0,1.482
514.0,1.473
515.0,1.46
516.0,1.458
517.0,1.297
518.0,1.364
519.0,1.433
520.0,1.486
521.0,1.502
522.0,1.505
523.0,1.479
524.0,1.534
525.0,1.554
526.0,1.486
527.0,1.402
528.0,1.484
529.0,1.566
530.0,1.545
531.0,1.57
532.0,1.517
533.0,1.474
534.0,1.518
535.0,1.553
536.0,1.568
537.0,1.507
538.0,1.535
539.0,1.523
540.0,1.461
541.0,1.473
542.0,1.52
543.0,1.505
544.0,1.533
545.0,1.529
546.0,1.537
547.0,1.537
548.0,1.52
549.0,1.525
550.0,1.544
551.0,1.527
552.0,1.538
553.0,1.512
554.0,1.549
555.0,1.554
556.0,1.535
557.0,1.488
558.0,1.478
559.0,1.452
560.0,1.471
561.0,1.492
562.0,1.482
563.0,1.524
564.0,1.484
565.0,1.472
566.0,1.452
567.0,1.481
568.0,1.469
569.0,1.437
570.0,1.437
571.0,1.429
572.0,1.466
573.0,1.482
574.0,1.479
575.0,1.452
576.0,1.44
577.0,1.456
578.0,1.434
579.0,1.44
580.0,1.467
581.0,1.474
582.0,1.502
583.0,1.505
584.0,1.519
585.0,1.482
586.0,1.452
587.0,1.485
588.0,1.452
589.0,1.292
590.0,1.351
591.0,1.428
592.0,1.412
593.0,1.432
594.0,1.423
595.0,1.391
596.0,1.442
597.0,1.428
598.0,1.424
599.0,1.426
600.0,1.427
601.0,1.416
602.0,1.407
603.0,1.43
604.0,1.454
605.0,1.447
606.0,1.441
607.0,1.456
608.0,1.44
609.0,1.443
610.0,1.432
611.0,1.44
612.0,1.436
613.0,1.419
614.0,1.399
615.0,1.43
616.0,1.383
617.0,1.381
618.0,1.434
619.0,1.42
620.0,1.43
621.0,1.432
622.0,1.416
623.0,1.395
624.0,1.371
625.0,1.369
626.0,1.389
627.0,1.406
628.0,1.324
629.0,1.377
630.0,1.346
631.0,1.374
632.0,1.357
633.0,1.398
634.0,1.383
635.0,1.405
636.0,1.386
637.0,1.409
638.0,1.422
639.0,1.406
640.0,1.393
641.0,1.392
642.0,1.386
643.0,1.405
644.0,1.4
645.0,1.403
646.0,1.372
647.0,1.359
648.0,1.361
649.0,1.335
650.0,1.338
651.0,1.396
652.0,1.342
653.0,1.378
654.0,1.363
655.0,1.314
656.0,1.164
657.0,1.195
658.0,1.339
659.0,1.348
660.0,1.354
661.0,1.364
662.0,1.368
663.0,1.341
664.0,1.356
665.0,1.357
666.0,1.358
667.0,1.357
668.0,1.357
669.0,1.378
670.0,1.373
671.0,1.372
672.0,1.361
673.0,1.381
674.0,1.376
675.0,1.364
676.0,1.374
677.0,1.36
678.0,1.364
679.0,1.342
680.0,1.353
681.0,1.345
682.0,1.343
683.0,1.341
684.0,1.335
685.0,1.346
686.0,1.339
687.0,0.931
688.0,1.071
689.0,1.075
690.0,1.121
691.0,1.172
692.0,1.209
693.0,1.2
694.0,1.191
695.0,1.235
696.0,1.237
697.0,1.306
698.0,1.286
699.0,1.26
700.0,1.245
701.0,1.234
702.0,1.241
703.0,1.244
704.0,1.282
705.0,1.284
706.0,1.282
707.0,1.283
708.0,1.286
709.0,1.286
710.0,1.287
711.0,1.285
712.0,1.281
713.0,1.269
714.0,1.274
715.0,1.235
716.0,1.237
717.0,1.088
718.0,1.003
719.0,0.9204
720.0,0.9653
721.0,1.056
722.0,1.198
723.0,1.121
724.0,1.016
725.0,1.002
726.0,1.048
727.0,1.06
728.0,1.001
729.0,1.033
730.0,1.093
731.0,1.048
732.0,1.115
733.0,1.175
734.0,1.202
735.0,1.178
736.0,1.176
737.0,1.181
738.0,1.196
739.0,1.173
740.0,1.202
741.0,1.19
742.0,1.191
743.0,1.221
744.0,1.217
745.0,1.217
746.0,1.223
747.0,1.226
748.0,1.224
749.0,1.21
750.0,1.209
751.0,1.197
752.0,1.202
753.0,1.209
754.0,1.212
755.0,1.205
756.0,1.205
757.0,1.207
758.0,1.192
759.0,1.17
760.0,0.234
761.0,0.1308
762.0,0.6399
763.0,0.343
764.0,0.4953
765.0,0.6404
766.0,0.7672
767.0,0.949
768.0,1.08
769.0,1.1
770.0,1.133
771.0,1.141
772.0,1.143
773.0,1.151
774.0,1.146
775.0,1.137
776.0,1.151
777.0,1.136
778.0,1.129
779.0,1.13
780.0,1.124
781.0,1.125
782.0,1.132
783.0,1.113
784.0,1.118
785.0,1.11
786.0,1.123
787.0,1.105
788.0,1.092
789.0,1.092
790.0,1.065
791.0,1.073
792.0,1.064
793.0,1.048
794.0,1.063
795.0,1.082
796.0,1.052
797.0,1.054
798.0,1.081
799.0,1.075
800.0,1.057
801.0,1.055
802.0,1.052
803.0,1.045
804.0,1.046
805.0,1.042
806.0,1.07
807.0,1.057
808.0,1.058
809.0,1.039
810.0,1.032
811.0,1.035
812.0,1.008
813.0,0.988
814.0,0.8767
815.0,0.8712
816.0,0.8121
817.0,0.8262
818.0,0.797
819.0,0.8846
820.0,0.8357
821.0,0.9681
822.0,0.942
823.0,0.6547
824.0,0.9178
825.0,0.9521
826.0,0.9188
827.0,0.9668
828.0,0.8277
829.0,0.9129
830.0,0.9019
831.0,0.9049
832.0,0.8786
833.0,0.9308
834.0,0.9005
835.0,0.9838
836.0,0.9453
837.0,0.9866
838.0,0.9575
839.0,0.9715
840.0,0.9925
841.0,0.9792
842.0,0.9804
843.0,0.9789
844.0,0.966
845.0,0.9979
846.0,0.9935
847.0,0.9748
848.0,0.9692
849.0,0.9418
850.0,0.9023
851.0,0.9559
852.0,0.9491
853.0,0.9133
854.0,0.7889
855.0,0.8664
856.0,0.9471
857.0,0.968
858.0,0.9611
859.0,0.9618
860.0,0.9635
861.0,0.9583
862.0,0.9734
863.0,0.9965
864.0,0.9467
865.0,0.9385
866.0,0.8439
867.0,0.8807
868.0,0.9585
869.0,0.9387
870.0,0.9655
871.0,0.9524
872.0,0.9491
873.0,0.9473
874.0,0.9361
875.0,0.9172
876.0,0.9269
877.0,0.9363
878.0,0.9466
879.0,0.9321
880.0,0.9122
881.0,0.8987
882.0,0.9183
883.0,0.9211
884.0,0.917
885.0,0.924
886.0,0.8814
887.0,0.8903
888.0,0.9038
889.0,0.9136
890.0,0.9066
891.0,0.9048
892.0,0.8796
893.0,0.8533
894.0,0.8254
895.0,0.7826
896.0,0.7385
897.0,0.638
898.0,0.6942
899.0,0.5324
900.0,0.7087
901.0,0.5579
902.0,0.6491
903.0,0.6574
904.0,0.8197
905.0,0.7927
906.0,0.7429
907.0,0.6089
908.0,0.6202
909.0,0.6694
910.0,0.5964
911.0,0.6331
912.0,0.6609
913.0,0.6056
914.0,0.5997
915.0,0.6497
916.0,0.5513
917.0,0.6949
918.0,0.5655
919.0,0.7065
920.0,0.7116
921.0,0.7396
922.0,0.6643
923.0,0.7143
924.0,0.6811
925.0,0.6664
926.0,0.6738
927.0,0.7514
928.0,0.5594
929.0,0.5128
930.0,0.4062
931.0,0.3844
932.0,0.28
933.0,0.2292
934.0,0.129
935.0,0.2333
936.0,0.1478
937.0,0.15
938.0,0.1837
939.0,0.3726
940.0,0.4461
941.0,0.3396
942.0,0.3915
943.0,0.2597
944.0,0.2716
945.0,0.3497
946.0,0.1809
947.0,0.3521
948.0,0.2591
949.0,0.4684
950.0,0.1345
951.0,0.4608
952.0,0.2513
953.0,0.3222
954.0,0.3924
955.0,0.3256
956.0,0.3147
957.0,0.2521
958.0,0.4422
959.0,0.3543
960.0,0.397
961.0,0.4434
962.0,0.4198
963.0,0.482
964.0,0.4422
965.0,0.48
966.0,0.4805
967.0,0.4787
968.0,0.6351
969.0,0.6639
970.0,0.6107
971.0,0.696
972.0,0.6664
973.0,0.5833
974.0,0.554
975.0,0.574
976.0,0.5466
977.0,0.6189
978.0,0.5893
979.0,0.6163
980.0,0.5801
981.0,0.6922
982.0,0.663
983.0,0.6371
984.0,0.7121
985.0,0.6605
986.0,0.7239
987.0,0.7106
988.0,0.7093
989.0,0.7214
990.0,0.7051
991.0,0.7237
992.0,0.7278
993.0,0.7124
994.0,0.7276
995.0,0.7266
996.0,0.7235
997.0,0.7246
998.0,0.7212
999.0,0.7186
1000.0,0.7137
1001.0,0.7225
1002.0,0.7033
1003.0,0.7098
1004.0,0.6927
1005.0,0.6671
1006.0,0.6933
1007.0,0.708
1008.0,0.7043
1009.0,0.7007
1010.0,0.6978
1011.0,0.7045
1012.0,0.6985
1013.0,0.7028
1014.0,0.6979
1015.0,0.6933
1016.0,0.6902
1017.0,0.692
1018.0,0.6894
1019.0,0.675
1020.0,0.6858
1021.0,0.6849
1022.0,0.6797
1023.0,0.6869
1024.0,0.6783
1025.0,0.6864
1026.0,0.6836
1027.0,0.682
1028.0,0.6806
1029.0,0.6726
1030.0,0.6772
1031.0,0.6745
1032.0,0.6726
1033.0,0.6625
1034.0,0.6625
1035.0,0.6646
1036.0,0.6681
1037.0,0.6573
1038.0,0.6602
1039.0,0.6599
1040.0,0.6572
1041.0,0.6599
1042.0,0.6553
1043.0,0.6533
1044.0,0.6556
1045.0,0.6467
1046.0,0.6396
1047.0,0.6454
1048.0,0.649
1049.0,0.6467
1050.0,0.6438
1051.0,0.6429
1052.0,0.6404
1053.0,0.6353
1054.0,0.6368
1055.0,0.6372
1056.0,0.635
1057.0,0.6331
1058.0,0.6176
1059.0,0.6183
1060.0,0.6174
1061.0,0.6167
1062.0,0.62
1063.0,0.6139
1064.0,0.6212
1065.0,0.6169
1066.0,0.6046
1067.0,0.6125
1068.0,0.5992
1069.0,0.5806
1070.0,0.6004
1071.0,0.6096
1072.0,0.6027
1073.0,0.594
1074.0,0.6091
1075.0,0.5794
1076.0,0.6087
1077.0,0.5982
1078.0,0.5871
1079.0,0.5989
1080.0,0.5891
1081.0,0.5706
1082.0,0.5791
1083.0,0.5808
1084.0,0.5694
1085.0,0.5904
1086.0,0.54
1087.0,0.5565
1088.0,0.5804
1089.0,0.5633
1090.0,0.5514
1091.0,0.5787
1092.0,0.5771
1093.0,0.4915
1094.0,0.5283
1095.0,0.5118
1096.0,0.4907
1097.0,0.5638
1098.0,0.4832
1099.0,0.5038
1100.0,0.4693
1101.0,0.4749
1102.0,0.4541
1103.0,0.4501
1104.0,0.4507
1105.0,0.4925
1106.0,0.3804
1107.0,0.4685
1108.0,0.3993
1109.0,0.3996
1110.0,0.4647
1111.0,0.3181
1112.0,0.3964
1113.0,0.2553
1114.0,0.285
1115.0,0.2364
1116.0,0.1904
1117.0,0.07176
1118.0,0.2066
1119.0,0.104
1120.0,0.1309
1121.0,0.1729
1122.0,0.07399
1123.0,0.1183
1124.0,0.09988
1125.0,0.1299
1126.0,0.04641
1127.0,0.1465
1128.0,0.08891
1129.0,0.09416
1130.0,0.06246
1131.0,0.2747
1132.0,0.2161
1133.0,0.1386
1134.0,0.03636
1135.0,0.01358
1136.0,0.1162
1137.0,0.2704
1138.0,0.1908
1139.0,0.2814
1140.0,0.2364
1141.0,0.1814
1142.0,0.208
1143.0,0.294
1144.0,0.1043
1145.0,0.1337
1146.0,0.1442
1147.0,0.05193
1148.0,0.2545
1149.0,0.2042
1150.0,0.1121
1151.0,0.1894
1152.0,0.232
1153.0,0.2252
1154.0,0.1298
1155.0,0.2937
1156.0,0.2651
1157.0,0.2964
1158.0,0.2932
1159.0,0.3154
1160.0,0.2706
1161.0,0.3312
1162.0,0.333
1163.0,0.4456
1164.0,0.3838
1165.0,0.3635
1166.0,0.36
1167.0,0.3913
1168.0,0.3959
1169.0,0.4048
1170.0,0.4386
1171.0,0.4278
1172.0,0.4347
1173.0,0.4376
1174.0,0.3164
1175.0,0.4269
1176.0,0.4673
1177.0,0.4499
1178.0,0.341
1179.0,0.471
1180.0,0.4227
1181.0,0.436
1182.0,0.3043
1183.0,0.4288
1184.0,0.403
1185.0,0.39
1186.0,0.4588
1187.0,0.4382
1188.0,0.3098
1189.0,0.4084
1190.0,0.4484
1191.0,0.4277
1192.0,0.4545
1193.0,0.4362
1194.0,0.4491
1195.0,0.4262
1196.0,0.4113
1197.0,0.4487
1198.0,0.4115
1199.0,0.3532
1200.0,0.4309
1201.0,0.4167
1202.0,0.4136
1203.0,0.4102
1204.0,0.3605
1205.0,0.4223
1206.0,0.4647
1207.0,0.4129
1208.0,0.4054
1209.0,0.4135
1210.0,0.4301
1211.0,0.4108
1212.0,0.4074
1213.0,0.4502
1214.0,0.4164
1215.0,0.4089
1216.0,0.4487
1217.0,0.4375
1218.0,0.4451
1219.0,0.44
1220.0,0.4455
1221.0,0.4496
1222.0,0.4383
1223.0,0.4345
1224.0,0.4323
1225.0,0.4468
1226.0,0.4493
1227.0,0.4162
1228.0,0.4512
1229.0,0.4494
1230.0,0.4421
1231.0,0.4536
1232.0,0.4509
1233.0,0.4368
1234.0,0.4529
1235.0,0.4502
1236.0,0.4534
1237.0,0.4476
1238.0,0.4518
1239.0,0.4461
1240.0,0.4477
1241.0,0.4459
1242.0,0.4447
1243.0,0.441
1244.0,0.4443
1245.0,0.4461
1246.0,0.4435
1247.0,0.4419
1248.0,0.4418
1249.0,0.443
1250.0,0.4404
1251.0,0.435
1252.0,0.4348
1253.0,0.4318
1254.0,0.4279
1255.0,0.4345
1256.0,0.4232
1257.0,0.4211
1258.0,0.4283
1259.0,0.4141
1260.0,0.4161
1261.0,0.3945
1262.0,0.3836
1263.0,0.3844
1264.0,0.3569
1265.0,0.3819
1266.0,0.3687
1267.0,0.3743
1268.0,0.3564
1269.0,0.2302
1270.0,0.3733
1271.0,0.393
1272.0,0.3941
1273.0,0.3901
1274.0,0.3911
1275.0,0.3965
1276.0,0.4
1277.0,0.4022
1278.0,0.4093
1279.0,0.4057
1280.0,0.4005
1281.0,0.3818
1282.0,0.3674
1283.0,0.3958
1284.0,0.4053
1285.0,0.4079
1286.0,0.4131
1287.0,0.4073
1288.0,0.4071
1289.0,0.3953
1290.0,0.4034
1291.0,0.4089
1292.0,0.3862
1293.0,0.4014
1294.0,0.3987
1295.0,0.3973
1296.0,0.3806
1297.0,0.361
1298.0,0.3866
1299.0,0.4018
1300.0,0.3436
1301.0,0.3534
1302.0,0.3853
1303.0,0.3387
1304.0,0.292
1305.0,0.3776
1306.0,0.3779
1307.0,0.2972
1308.0,0.3387
1309.0,0.3753
1310.0,0.2917
1311.0,0.3255
1312.0,0.3171
1313.0,0.3115
1314.0,0.28
1315.0,0.277
1316.0,0.3209
1317.0,0.3043
1318.0,0.3294
1319.0,0.2611
1320.0,0.2523
1321.0,0.2926
1322.0,0.296
1323.0,0.2257
1324.0,0.2561
1325.0,0.3165
1326.0,0.2735
1327.0,0.2613
1328.0,0.2263
1329.0,0.1723
1330.0,0.2231
1331.0,0.1373
1332.0,0.1409
1333.0,0.1955
1334.0,0.1644
1335.0,0.2249
1336.0,0.1792
1337.0,0.1592
1338.0,0.1722
1339.0,0.1711
1340.0,0.1657
1341.0,0.1634
1342.0,0.1715
1343.0,0.1193
1344.0,0.07127
1345.0,0.1026
1346.0,0.05294
1347.0,0.05416
1348.0,0.003879
1349.0,0.01355
1350.0,0.01379
1351.0,0.003664
1352.0,0.00109
1353.0,6.198e-05
1354.0,0.0001993
1355.0,2.007e-06
1356.0,3.053e-05
1357.0,4.639e-05
1358.0,2.356e-06
1359.0,3.509e-07
1360.0,1.144e-06
1361.0,1.824e-09
1362.0,5.828e-12
1363.0,1.626e-06
1364.0,6.813e-07
1365.0,2.481e-12
1366.0,6.802e-06
1367.0,2.712e-06
1368.0,2.81e-14
1369.0,2.573e-07
1370.0,1.361e-07
1371.0,8.445e-09
1372.0,1.493e-06
1373.0,2.693e-05
1374.0,0.000116
1375.0,0.0002113
1376.0,0.0001787
1377.0,8.331e-05
1378.0,0.0007877
1379.0,3.513e-05
1380.0,5.301e-05
1381.0,1.454e-06
1382.0,1.373e-06
1383.0,2.2e-08
1384.0,2.992e-07
1385.0,1.202e-06
1386.0,1.285e-06
1387.0,0.0001259
1388.0,2.502e-06
1389.0,0.0003933
1390.0,0.0003387
1391.0,0.0002299
1392.0,1.537e-05
1393.0,7.825e-05
1394.0,4.57e-05
1395.0,3.684e-07
1396.0,2.507e-09
1397.0,3.215e-05
1398.0,0.0008919
1399.0,0.0005651
1400.0,1.188e-09
1401.0,4.363e-09
1402.0,0.001423
1403.0,0.001822
1404.0,0.0005599
1405.0,1.905e-07
1406.0,0.001503
1407.0,0.0001301
1408.0,0.001223
1409.0,0.0004339
1410.0,0.0003358
1411.0,0.001596
1412.0,0.0021
1413.0,0.02011
1414.0,0.0002633
1415.0,0.0001297
1416.0,0.03189
1417.0,0.009976
1418.0,0.01141
1419.0,0.001786
1420.0,0.006992
1421.0,0.007566
1422.0,0.04155
1423.0,0.008132
1424.0,0.01517
1425.0,0.02244
1426.0,0.02519
1427.0,0.04571
1428.0,0.003672
1429.0,0.03445
1430.0,0.05808
1431.0,0.06365
1432.0,0.002899
1433.0,0.04068
1434.0,0.02078
1435.0,0.02109
1436.0,0.04022
1437.0,0.03082
1438.0,0.01314
1439.0,0.0545
1440.0,0.04084
1441.0,0.03133
1442.0,0.03472
1443.0,0.04331
1444.0,0.05988
1445.0,0.04706
1446.0,0.02123
1447.0,0.03344
1448.0,0.112
1449.0,0.09739
1450.0,0.02479
1451.0,0.009994
1452.0,0.05874
1453.0,0.07708
1454.0,0.1322
1455.0,0.06238
1456.0,0.08388
1457.0,0.1125
1458.0,0.1326
1459.0,0.1569
1460.0,0.08167
1461.0,0.08527
1462.0,0.1251
1463.0,0.0404
