interpolation:linear
wavelength,value
280.0,5.779999999999999e-22
280.5,1.435e-20
281.0,7.072000000000001e-20
281.5,1.719e-18
282.0,1.176e-17
282.5,4.073e-17
283.0,1.606e-16
283.5,2.862e-16
284.0,5.583e-15
284.5,1.696e-14
285.0,3.462e-14
285.5,2.261e-13
286.0,9.931e-13
286.5,4.973e-12
287.0,1.513e-11
287.5,6.074e-11
288.0,2.314e-10
288.5,8.404e-10
289.0,2.566e-09
289.5,8.61e-09
290.0,2.566e-08
290.5,5.524e-08
291.0,1.244e-07
291.5,3.714e-07
292.0,8.697e-07
292.5,1.252e-06
293.0,2.739e-06
293.5,6.75e-06
294.0,1.075e-05
294.5,1.82e-05
295.0,3.052e-05
295.5,6.95e-05
296.0,0.0001199
296.5,0.0001501
297.0,0.0001856
297.5,0.000434
298.0,0.0006095
298.5,0.0005613
299.0,0.001135
299.5,0.001615
300.0,0.001636
300.5,0.002176
301.0,0.003425
301.5,0.004822
302.0,0.003889
302.5,0.007141
303.0,0.01183
303.5,0.01417
304.0,0.01289
304.5,0.01749
305.0,0.0232
305.5,0.02451
306.0,0.02307
306.5,0.02735
307.0,0.03621
307.5,0.04326
308.0,0.0451
308.5,0.05071
309.0,0.04471
309.5,0.04849
310.0,0.04758
310.5,0.07634
311.0,0.09394
311.5,0.09013
312.0,0.08563
312.5,0.1008
313.0,0.1076
313.5,0.107
314.0,0.1283
314.5,0.1072
315.0,0.1399
315.5,0.1213
316.0,0.101
316.5,0.1391
317.0,0.1736
317.5,0.1838
318.0,0.1395
318.5,0.1636
319.0,0.1889
319.5,0.1625
320.0,0.1987
320.5,0.2344
321.0,0.198
321.5,0.1895
322.0,0.2155
322.5,0.1876
323.0,0.1802
323.5,0.2077
324.0,0.2415
324.5,0.2509
325.0,0.2287
325.5,0.2857
326.0,0.3365
326.5,0.33
327.0,0.3331
327.5,0.3267
328.0,0.3017
328.5,0.3059
329.0,0.3564
329.5,0.4023
330.0,0.4103
330.5,0.3375
331.0,0.3478
331.5,0.3485
332.0,0.3683
332.5,0.3614
333.0,0.364
333.5,0.3369
334.0,0.3473
334.5,0.3936
335.0,0.3666
335.5,0.4165
336.0,0.289
336.5,0.3524
337.0,0.2926
337.5,0.3663
338.0,0.3527
338.5,0.3983
339.0,0.3975
339.5,0.382
340.0,0.4609
340.5,0.416
341.0,0.3993
341.5,0.3708
342.0,0.4452
342.5,0.4184
343.0,0.4596
343.5,0.4327
344.0,0.3253
344.5,0.3223
345.0,0.4321
345.5,0.4437
346.0,0.3788
346.5,0.4305
347.0,0.462
347.5,0.3741
348.0,0.4293
348.5,0.4311
349.0,0.4011
349.5,0.3979
350.0,0.4935
350.5,0.5219
351.0,0.4668
351.5,0.4527
352.0,0.4889
352.5,0.3832
353.0,0.4843
353.5,0.5195
354.0,0.5409
354.5,0.55
355.0,0.5493
355.5,0.4974
356.0,0.5218
356.5,0.4467
357.0,0.37
357.5,0.4542
358.0,0.3609
358.5,0.3092
359.0,0.4335
359.5,0.5534
360.0,0.5881
360.5,0.4713
361.0,0.4306
361.5,0.4966
362.0,0.4301
362.5,0.5963
363.0,0.5365
363.5,0.495
364.0,0.6065
364.5,0.5195
365.0,0.5302
365.5,0.6668
366.0,0.7077
366.5,0.6661
367.0,0.65
367.5,0.676
368.0,0.5926
368.5,0.5991
369.0,0.6482
369.5,0.6922
370.0,0.7393
370.5,0.5749
371.0,0.6153
371.5,0.7714
372.0,0.513
372.5,0.6162
373.0,0.6278
373.5,0.4092
374.0,0.5956
374.5,0.4941
375.0,0.4812
375.5,0.7198
376.0,0.5978
376.5,0.6207
377.0,0.6583
377.5,0.7714
378.0,0.8378
378.5,0.7935
379.0,0.6562
379.5,0.6007
380.0,0.6258
380.5,0.7591
381.0,0.7619
381.5,0.6049
382.0,0.538
382.5,0.4593
383.0,0.4258
383.5,0.4108
384.0,0.4538
384.5,0.6685
385.0,0.664
385.5,0.6193
386.0,0.5312
386.5,0.6987
387.0,0.5816
387.5,0.6543
388.0,0.6051
388.5,0.599
389.0,0.6476
389.5,0.7855
390.0,0.7895
390.5,0.7277
391.0,0.8578
391.5,0.8763
392.0,0.7393
392.5,0.6627
393.0,0.3692
393.5,0.2687
394.0,0.5476
394.5,0.6971
395.0,0.8519
395.5,0.8667
396.0,0.7525
396.5,0.4404
397.0,0.3309
397.5,0.6739
398.0,0.9453
398.5,0.9784
399.0,1.06
399.5,1.058
400.0,1.101
401.0,1.133
402.0,1.198
403.0,1.14
404.0,1.125
405.0,1.128
406.0,1.112
407.0,1.096
408.0,1.142
409.0,1.225
410.0,1.072
411.0,1.163
412.0,1.252
413.0,1.224
414.0,1.241
415.0,1.246
416.0,1.27
417.0,1.242
418.0,1.221
419.0,1.239
420.0,1.236
421.0,1.296
422.0,1.234
423.0,1.208
424.0,1.28
425.0,1.28
426.0,1.248
427.0,1.227
428.0,1.197
429.0,1.135
430.0,0.9949
431.0,0.9882
432.0,1.278
433.0,1.287
434.0,1.197
435.0,1.252
436.0,1.412
437.0,1.394
438.0,1.271
439.0,1.318
440.0,1.362
441.0,1.412
442.0,1.517
443.0,1.481
444.0,1.514
445.0,1.484
446.0,1.417
447.0,1.534
448.0,1.561
449.0,1.568
450.0,1.613
451.0,1.675
452.0,1.616
453.0,1.522
454.0,1.59
455.0,1.602
456.0,1.642
457.0,1.671
458.0,1.617
459.0,1.611
460.0,1.618
461.0,1.657
462.0,1.671
463.0,1.661
464.0,1.634
465.0,1.614
466.0,1.631
467.0,1.604
468.0,1.625
469.0,1.636
470.0,1.585
471.0,1.585
472.0,1.672
473.0,1.652
474.0,1.658
475.0,1.675
476.0,1.629
477.0,1.636
478.0,1.683
479.0,1.673
480.0,1.677
481.0,1.709
482.0,1.719
483.0,1.698
484.0,1.664
485.0,1.587
486.0,1.387
487.0,1.455
488.0,1.598
489.0,1.605
490.0,1.689
491.0,1.661
492.0,1.57
493.0,1.623
494.0,1.64
495.0,1.655
496.0,1.667
497.0,1.695
498.0,1.617
499.0,1.639
500.0,1.594
501.0,1.567
502.0,1.548
503.0,1.614
504.0,1.581
505.0,1.634
506.0,1.688
507.0,1.607
508.0,1.557
509.0,1.6
510.0,1.592
511.0,1.635
512.0,1.653
513.0,1.566
514.0,1.556
515.0,1.541
516.0,1.539
517.0,1.368
518.0,1.439
519.0,1.511
520.0,1.567
521.0,1.583
522.0,1.586
523.0,1.559
524.0,1.617
525.0,1.638
526.0,1.567
527.0,1.478
528.0,1.565
529.0,1.652
530.0,1.629
531.0,1.655
532.0,1.599
533.0,1.553
534.0,1.6
535.0,1.635
536.0,1.651
537.0,1.586
538.0,1.615
539.0,1.602
540.0,1.537
541.0,1.55
542.0,1.6
543.0,1.583
544.0,1.612
545.0,1.608
546.0,1.617
547.0,1.616
548.0,1.597
549.0,1.602
550.0,1.622
551.0,1.603
552.0,1.615
553.0,1.587
554.0,1.626
555.0,1.631
556.0,1.611
557.0,1.562
558.0,1.552
559.0,1.525
560.0,1.545
561.0,1.567
562.0,1.557
563.0,1.601
564.0,1.559
565.0,1.548
566.0,1.526
567.0,1.557
568.0,1.547
569.0,1.516
570.0,1.516
571.0,1.506
572.0,1.546
573.0,1.564
574.0,1.561
575.0,1.533
576.0,1.52
577.0,1.537
578.0,1.513
579.0,1.517
580.0,1.542
581.0,1.548
582.0,1.575
583.0,1.578
584.0,1.59
585.0,1.551
586.0,1.52
587.0,1.556
588.0,1.526
589.0,1.366
590.0,1.428
591.0,1.503
592.0,1.49
593.0,1.506
594.0,1.499
595.0,1.467
596.0,1.514
597.0,1.501
598.0,1.494
599.0,1.495
600.0,1.495
601.0,1.481
602.0,1.471
603.0,1.495
604.0,1.519
605.0,1.512
606.0,1.505
607.0,1.519
608.0,1.501
609.0,1.504
610.0,1.492
611.0,1.5
612.0,1.495
613.0,1.477
614.0,1.456
615.0,1.487
616.0,1.438
617.0,1.435
618.0,1.49
619.0,1.475
620.0,1.485
621.0,1.488
622.0,1.472
623.0,1.451
624.0,1.425
625.0,1.422
626.0,1.444
627.0,1.463
628.0,1.396
629.0,1.439
630.0,1.408
631.0,1.43
632.0,1.412
633.0,1.451
634.0,1.434
635.0,1.455
636.0,1.434
637.0,1.457
638.0,1.469
639.0,1.452
640.0,1.437
641.0,1.435
642.0,1.428
643.0,1.448
644.0,1.442
645.0,1.445
646.0,1.416
647.0,1.407
648.0,1.41
649.0,1.383
650.0,1.38
651.0,1.438
652.0,1.39
653.0,1.42
654.0,1.403
655.0,1.357
656.0,1.199
657.0,1.231
658.0,1.377
659.0,1.385
660.0,1.391
661.0,1.401
662.0,1.406
663.0,1.377
664.0,1.391
665.0,1.39
666.0,1.391
667.0,1.389
668.0,1.389
669.0,1.41
670.0,1.403
671.0,1.403
672.0,1.391
673.0,1.412
674.0,1.406
675.0,1.393
676.0,1.403
677.0,1.389
678.0,1.392
679.0,1.37
680.0,1.381
681.0,1.372
682.0,1.37
683.0,1.368
684.0,1.361
685.0,1.373
686.0,1.366
687.0,1.037
688.0,1.151
689.0,1.154
690.0,1.189
691.0,1.229
692.0,1.256
693.0,1.248
694.0,1.238
695.0,1.274
696.0,1.277
697.0,1.334
698.0,1.314
699.0,1.296
700.0,1.281
701.0,1.272
702.0,1.276
703.0,1.279
704.0,1.312
705.0,1.314
706.0,1.31
707.0,1.31
708.0,1.314
709.0,1.311
710.0,1.314
711.0,1.31
712.0,1.305
713.0,1.294
714.0,1.298
715.0,1.262
716.0,1.265
717.0,1.145
718.0,1.061
719.0,0.9785
720.0,1.028
721.0,1.104
722.0,1.23
723.0,1.163
724.0,1.068
725.0,1.057
726.0,1.102
727.0,1.108
728.0,1.057
729.0,1.079
730.0,1.141
731.0,1.098
732.0,1.156
733.0,1.206
734.0,1.23
735.0,1.207
736.0,1.205
737.0,1.211
738.0,1.218
739.0,1.195
740.0,1.222
741.0,1.208
742.0,1.208
743.0,1.238
744.0,1.233
745.0,1.233
746.0,1.239
747.0,1.241
748.0,1.239
749.0,1.225
750.0,1.224
751.0,1.212
752.0,1.217
753.0,1.223
754.0,1.226
755.0,1.219
756.0,1.219
757.0,1.221
758.0,1.206
759.0,1.188
760.0,0.3462
761.0,0.2215
762.0,0.7447
763.0,0.4639
764.0,0.6138
765.0,0.7456
766.0,0.8479
767.0,1.006
768.0,1.112
769.0,1.124
770.0,1.151
771.0,1.155
772.0,1.156
773.0,1.164
774.0,1.158
775.0,1.149
776.0,1.163
777.0,1.148
778.0,1.141
779.0,1.142
780.0,1.135
781.0,1.137
782.0,1.144
783.0,1.124
784.0,1.129
785.0,1.121
786.0,1.134
787.0,1.12
788.0,1.108
789.0,1.109
790.0,1.087
791.0,1.089
792.0,1.08
793.0,1.064
794.0,1.074
795.0,1.094
796.0,1.071
797.0,1.073
798.0,1.094
799.0,1.089
800.0,1.073
801.0,1.072
802.0,1.069
803.0,1.062
804.0,1.062
805.0,1.056
806.0,1.081
807.0,1.07
808.0,1.07
809.0,1.054
810.0,1.048
811.0,1.054
812.0,1.031
813.0,1.014
814.0,0.9172
815.0,0.911
816.0,0.8521
817.0,0.8644
818.0,0.8377
819.0,0.9145
820.0,0.8701
821.0,0.9875
822.0,0.9643
823.0,0.7045
824.0,0.9462
825.0,0.9724
826.0,0.9444
827.0,0.9871
828.0,0.8637
829.0,0.9371
830.0,0.9278
831.0,0.93
832.0,0.9065
833.0,0.9502
834.0,0.9256
835.0,0.998
836.0,0.967
837.0,1.0
838.0,0.9741
839.0,0.9842
840.0,1.005
841.0,0.9926
842.0,0.9914
843.0,0.9875
844.0,0.9758
845.0,1.006
846.0,1.001
847.0,0.9817
848.0,0.9772
849.0,0.9495
850.0,0.9095
851.0,0.9647
852.0,0.9573
853.0,0.9202
854.0,0.7957
855.0,0.8727
856.0,0.9544
857.0,0.9748
858.0,0.9681
859.0,0.9683
860.0,0.9697
861.0,0.9646
862.0,0.9796
863.0,1.003
864.0,0.9526
865.0,0.9442
866.0,0.8491
867.0,0.8861
868.0,0.9642
869.0,0.9442
870.0,0.9712
871.0,0.958
872.0,0.9546
873.0,0.9528
874.0,0.9415
875.0,0.9225
876.0,0.9323
877.0,0.9416
878.0,0.9522
879.0,0.9375
880.0,0.9175
881.0,0.9045
882.0,0.9244
883.0,0.9266
884.0,0.9227
885.0,0.9297
886.0,0.8887
887.0,0.8962
888.0,0.9108
889.0,0.9189
890.0,0.914
891.0,0.9111
892.0,0.8883
893.0,0.8652
894.0,0.8432
895.0,0.8076
896.0,0.7665
897.0,0.674
898.0,0.7263
899.0,0.5721
900.0,0.7345
901.0,0.5985
902.0,0.677
903.0,0.6916
904.0,0.8373
905.0,0.8135
906.0,0.7655
907.0,0.6449
908.0,0.6547
909.0,0.6978
910.0,0.637
911.0,0.6673
912.0,0.6927
913.0,0.6474
914.0,0.6386
915.0,0.6895
916.0,0.5908
917.0,0.7267
918.0,0.6061
919.0,0.7353
920.0,0.7334
921.0,0.7598
922.0,0.6935
923.0,0.7334
924.0,0.7113
925.0,0.6965
926.0,0.7038
927.0,0.7743
928.0,0.607
929.0,0.5647
930.0,0.4614
931.0,0.434
932.0,0.3303
933.0,0.2787
934.0,0.1746
935.0,0.2768
936.0,0.1863
937.0,0.191
938.0,0.2293
939.0,0.4208
940.0,0.4939
941.0,0.3897
942.0,0.44
943.0,0.3029
944.0,0.3075
945.0,0.399
946.0,0.2215
947.0,0.4053
948.0,0.3013
949.0,0.524
950.0,0.1755
951.0,0.5129
952.0,0.3003
953.0,0.3717
954.0,0.4381
955.0,0.3739
956.0,0.3561
957.0,0.3034
958.0,0.4785
959.0,0.3987
960.0,0.446
961.0,0.4867
962.0,0.4626
963.0,0.5209
964.0,0.4816
965.0,0.5174
966.0,0.5207
967.0,0.5195
968.0,0.6555
969.0,0.6869
970.0,0.6371
971.0,0.7114
972.0,0.6839
973.0,0.6134
974.0,0.5852
975.0,0.6002
976.0,0.5792
977.0,0.6408
978.0,0.6165
979.0,0.6397
980.0,0.6055
981.0,0.7067
982.0,0.682
983.0,0.6587
984.0,0.7212
985.0,0.6793
986.0,0.7298
987.0,0.7199
988.0,0.7186
989.0,0.7251
990.0,0.7139
991.0,0.7278
992.0,0.7316
993.0,0.7197
994.0,0.731
995.0,0.7295
996.0,0.727
997.0,0.7277
998.0,0.7246
999.0,0.7217
1000.0,0.7177
1001.0,0.7255
1002.0,0.7099
1003.0,0.713
1004.0,0.6967
1005.0,0.6697
1006.0,0.6967
1007.0,0.711
1008.0,0.708
1009.0,0.7051
1010.0,0.7026
1011.0,0.7074
1012.0,0.7021
1013.0,0.7055
1014.0,0.7006
1015.0,0.6961
1016.0,0.6931
1017.0,0.695
1018.0,0.6919
1019.0,0.6788
1020.0,0.6886
1021.0,0.6874
1022.0,0.6826
1023.0,0.69
1024.0,0.6827
1025.0,0.689
1026.0,0.6865
1027.0,0.6848
1028.0,0.6836
1029.0,0.6757
1030.0,0.6797
1031.0,0.6773
1032.0,0.6751
1033.0,0.665
1034.0,0.665
1035.0,0.6671
1036.0,0.6708
1037.0,0.6598
1038.0,0.6628
1039.0,0.6625
1040.0,0.6599
1041.0,0.6627
1042.0,0.6581
1043.0,0.6561
1044.0,0.6586
1045.0,0.6497
1046.0,0.6427
1047.0,0.6486
1048.0,0.6523
1049.0,0.6501
1050.0,0.6473
1051.0,0.6465
1052.0,0.6441
1053.0,0.6391
1054.0,0.6408
1055.0,0.6414
1056.0,0.6394
1057.0,0.6376
1058.0,0.6222
1059.0,0.6232
1060.0,0.6223
1061.0,0.6218
1062.0,0.6253
1063.0,0.6194
1064.0,0.6266
1065.0,0.6227
1066.0,0.61
1067.0,0.618
1068.0,0.605
1069.0,0.586
1070.0,0.6063
1071.0,0.6143
1072.0,0.6084
1073.0,0.5994
1074.0,0.6132
1075.0,0.5871
1076.0,0.613
1077.0,0.6047
1078.0,0.5942
1079.0,0.6025
1080.0,0.5955
1081.0,0.5785
1082.0,0.5839
1083.0,0.5848
1084.0,0.5784
1085.0,0.5964
1086.0,0.5518
1087.0,0.5638
1088.0,0.5851
1089.0,0.5714
1090.0,0.5621
1091.0,0.5845
1092.0,0.582
1093.0,0.5071
1094.0,0.5341
1095.0,0.5261
1096.0,0.5079
1097.0,0.5683
1098.0,0.5013
1099.0,0.5207
1100.0,0.4905
1101.0,0.4947
1102.0,0.4762
1103.0,0.4743
1104.0,0.4746
1105.0,0.5102
1106.0,0.414
1107.0,0.4892
1108.0,0.4292
1109.0,0.4272
1110.0,0.4866
1111.0,0.3499
1112.0,0.4228
1113.0,0.2901
1114.0,0.3215
1115.0,0.2672
1116.0,0.2267
1117.0,0.09902
1118.0,0.2412
1119.0,0.1319
1120.0,0.166
1121.0,0.2124
1122.0,0.1001
1123.0,0.1496
1124.0,0.1265
1125.0,0.1621
1126.0,0.06727
1127.0,0.1818
1128.0,0.1203
1129.0,0.1257
1130.0,0.08841
1131.0,0.3182
1132.0,0.2547
1133.0,0.1754
1134.0,0.0544
1135.0,0.02002
1136.0,0.1514
1137.0,0.3163
1138.0,0.2264
1139.0,0.3121
1140.0,0.2705
1141.0,0.2151
1142.0,0.2419
1143.0,0.3328
1144.0,0.1299
1145.0,0.1687
1146.0,0.1821
1147.0,0.07566
1148.0,0.2883
1149.0,0.2384
1150.0,0.1394
1151.0,0.2249
1152.0,0.2673
1153.0,0.2536
1154.0,0.1664
1155.0,0.3259
1156.0,0.2984
1157.0,0.328
1158.0,0.324
1159.0,0.3429
1160.0,0.3013
1161.0,0.3565
1162.0,0.3593
1163.0,0.461
1164.0,0.4045
1165.0,0.3897
1166.0,0.3816
1167.0,0.411
1168.0,0.4171
1169.0,0.4238
1170.0,0.4538
1171.0,0.4437
1172.0,0.4478
1173.0,0.4528
1174.0,0.3431
1175.0,0.4396
1176.0,0.4742
1177.0,0.461
1178.0,0.3612
1179.0,0.4776
1180.0,0.4365
1181.0,0.4493
1182.0,0.3263
1183.0,0.4401
1184.0,0.4179
1185.0,0.4078
1186.0,0.468
1187.0,0.4505
1188.0,0.333
1189.0,0.4209
1190.0,0.4574
1191.0,0.4422
1192.0,0.4629
1193.0,0.4465
1194.0,0.4582
1195.0,0.4389
1196.0,0.4263
1197.0,0.4553
1198.0,0.4212
1199.0,0.3711
1200.0,0.4414
1201.0,0.43
1202.0,0.4252
1203.0,0.4216
1204.0,0.3762
1205.0,0.4312
1206.0,0.469
1207.0,0.4252
1208.0,0.4148
1209.0,0.4223
1210.0,0.437
1211.0,0.4212
1212.0,0.4214
1213.0,0.4563
1214.0,0.4288
1215.0,0.422
1216.0,0.4546
1217.0,0.4451
1218.0,0.4512
1219.0,0.4467
1220.0,0.4513
1221.0,0.4544
1222.0,0.4442
1223.0,0.441
1224.0,0.44
1225.0,0.4516
1226.0,0.4532
1227.0,0.4244
1228.0,0.4541
1229.0,0.4532
1230.0,0.4467
1231.0,0.4554
1232.0,0.4529
1233.0,0.4422
1234.0,0.454
1235.0,0.4519
1236.0,0.4546
1237.0,0.4502
1238.0,0.453
1239.0,0.4473
1240.0,0.4487
1241.0,0.4478
1242.0,0.4458
1243.0,0.4421
1244.0,0.4456
1245.0,0.4473
1246.0,0.4447
1247.0,0.4433
1248.0,0.4436
1249.0,0.4444
1250.0,0.4421
1251.0,0.4372
1252.0,0.4363
1253.0,0.4345
1254.0,0.4315
1255.0,0.4363
1256.0,0.4272
1257.0,0.4255
1258.0,0.431
1259.0,0.4203
1260.0,0.4219
1261.0,0.4044
1262.0,0.3956
1263.0,0.3966
1264.0,0.3738
1265.0,0.3939
1266.0,0.3836
1267.0,0.3872
1268.0,0.3723
1269.0,0.267
1270.0,0.387
1271.0,0.4024
1272.0,0.4029
1273.0,0.3994
1274.0,0.3997
1275.0,0.4043
1276.0,0.407
1277.0,0.4084
1278.0,0.4136
1279.0,0.4101
1280.0,0.4048
1281.0,0.3851
1282.0,0.3692
1283.0,0.398
1284.0,0.4079
1285.0,0.4103
1286.0,0.4148
1287.0,0.4104
1288.0,0.4098
1289.0,0.4006
1290.0,0.4059
1291.0,0.4108
1292.0,0.3933
1293.0,0.4047
1294.0,0.4022
1295.0,0.402
1296.0,0.3886
1297.0,0.3715
1298.0,0.3922
1299.0,0.4045
1300.0,0.3557
1301.0,0.3639
1302.0,0.3907
1303.0,0.3496
1304.0,0.3109
1305.0,0.3838
1306.0,0.3845
1307.0,0.3132
1308.0,0.3482
1309.0,0.3825
1310.0,0.3078
1311.0,0.3367
1312.0,0.3296
1313.0,0.3252
1314.0,0.2957
1315.0,0.2947
1316.0,0.3334
1317.0,0.3173
1318.0,0.3396
1319.0,0.2808
1320.0,0.2687
1321.0,0.3077
1322.0,0.3129
1323.0,0.2483
1324.0,0.2754
1325.0,0.3293
1326.0,0.2908
1327.0,0.2794
1328.0,0.2451
1329.0,0.1951
1330.0,0.2481
1331.0,0.1637
1332.0,0.1642
1333.0,0.2245
1334.0,0.1851
1335.0,0.2471
1336.0,0.2022
1337.0,0.1833
1338.0,0.1975
1339.0,0.1949
1340.0,0.1862
1341.0,0.1895
1342.0,0.1986
1343.0,0.1519
1344.0,0.09088
1345.0,0.1285
1346.0,0.07645
1347.0,0.07979
1348.0,0.008282
1349.0,0.02574
1350.0,0.02416
1351.0,0.008872
1352.0,0.003589
1353.0,0.0003068
1354.0,0.0007786
1355.0,1.695e-05
1356.0,0.0001572
1357.0,0.0002346
1358.0,1.93e-05
1359.0,4.939e-06
1360.0,1.138e-05
1361.0,6.083e-08
1362.0,3.487e-10
1363.0,1.776e-05
1364.0,8.183e-06
1365.0,2.705e-10
1366.0,6.371e-05
1367.0,2.461e-05
1368.0,1.051e-11
1369.0,3.252e-06
1370.0,2.153e-06
1371.0,1.85e-07
1372.0,1.372e-05
1373.0,0.0001644
1374.0,0.0005428
1375.0,0.0009599
1376.0,0.0006901
1377.0,0.0003449
1378.0,0.002758
1379.0,0.0001492
1380.0,0.0002578
1381.0,8.756e-06
1382.0,1.341e-05
1383.0,2.847e-07
1384.0,4.094e-06
1385.0,9.267e-06
1386.0,1.452e-05
1387.0,0.0006591
1388.0,1.475e-05
1389.0,0.001586
1390.0,0.001349
1391.0,0.0009917
1392.0,7.646e-05
1393.0,0.0003309
1394.0,0.0002828
1395.0,3.35e-06
1396.0,7.183e-08
1397.0,0.0001523
1398.0,0.003162
1399.0,0.002022
1400.0,4.568e-08
1401.0,1.114e-07
1402.0,0.003678
1403.0,0.004966
1404.0,0.001572
1405.0,2.112e-06
1406.0,0.00459
1407.0,0.0003962
1408.0,0.003695
1409.0,0.001587
1410.0,0.001134
1411.0,0.004315
1412.0,0.005178
1413.0,0.036
1414.0,0.0008738
1415.0,0.0004765
1416.0,0.04898
1417.0,0.01882
1418.0,0.02139
1419.0,0.003554
1420.0,0.01329
1421.0,0.01483
1422.0,0.06255
1423.0,0.01332
1424.0,0.02399
1425.0,0.03636
1426.0,0.03803
1427.0,0.06216
1428.0,0.008027
1429.0,0.04973
1430.0,0.07687
1431.0,0.08245
1432.0,0.006456
1433.0,0.05538
1434.0,0.02968
1435.0,0.03472
1436.0,0.05872
1437.0,0.04519
1438.0,0.02144
1439.0,0.07615
1440.0,0.05767
1441.0,0.04772
1442.0,0.05184
1443.0,0.05941
1444.0,0.08018
1445.0,0.06711
1446.0,0.03158
1447.0,0.04986
1448.0,0.1356
1449.0,0.1223
1450.0,0.0369
1451.0,0.0161
1452.0,0.07782
1453.0,0.0994
1454.0,0.1555
1455.0,0.07905
1456.0,0.1086
1457.0,0.1364
1458.0,0.1523
1459.0,0.1814
1460.0,0.09926
1461.0,0.1072
1462.0,0.1499
1463.0,0.0538
1464.0,0.1706
1465.0,0.1042
1466.0,0.08142
1467.0,0.04737
1468.0,0.09346
