interpolation:linear
wavelength,value
280.0,9.948000000000001e-25
280.5,3.701e-23
281.0,2.1149999999999999e-22
281.5,7.602e-21
282.0,6.598e-20
282.5,2.682e-19
283.0,1.261e-18
283.5,2.454e-18
284.0,7.203e-17
284.5,2.635e-16
285.0,6.58e-16
285.5,5.448e-15
286.0,2.633e-14
286.5,1.606e-13
287.0,5.65e-13
287.5,2.745e-12
288.0,1.33e-11
288.5,5.486e-11
289.0,1.91e-10
289.5,7.41e-10
290.0,2.486e-09
290.5,5.91e-09
291.0,1.5e-08
291.5,5.212e-08
292.0,1.381e-07
292.5,2.131e-07
293.0,5.099e-07
293.5,1.419e-06
294.0,2.452e-06
294.5,4.42e-06
295.0,8.011e-06
295.5,2.009e-05
296.0,3.703e-05
296.5,4.935e-05
297.0,6.412e-05
297.5,0.0001608
298.0,0.0002388
298.5,0.0002293
299.0,0.0004823
299.5,0.0007301
300.0,0.0007643
300.5,0.001049
301.0,0.001729
301.5,0.002528
302.0,0.002076
302.5,0.003936
303.0,0.006781
303.5,0.008311
304.0,0.00764
304.5,0.01064
305.0,0.0146
305.5,0.01574
306.0,0.01494
306.5,0.01794
307.0,0.02437
307.5,0.02979
308.0,0.0312
308.5,0.03548
309.0,0.03156
309.5,0.03504
310.0,0.03477
310.5,0.05612
311.0,0.06968
311.5,0.06716
312.0,0.0649
312.5,0.07724
313.0,0.083
313.5,0.08224
314.0,0.09981
314.5,0.08472
315.0,0.111
315.5,0.09566
316.0,0.08061
316.5,0.1122
317.0,0.1401
317.5,0.1482
318.0,0.1132
318.5,0.1344
319.0,0.1562
319.5,0.1334
320.0,0.163
320.5,0.1946
321.0,0.1659
321.5,0.159
322.0,0.1795
322.5,0.1564
323.0,0.1514
323.5,0.1762
324.0,0.2054
324.5,0.2129
325.0,0.193
325.5,0.2425
326.0,0.2876
326.5,0.2834
327.0,0.2859
327.5,0.2801
328.0,0.2574
328.5,0.2631
329.0,0.3081
329.5,0.3485
330.0,0.3555
330.5,0.2916
331.0,0.3005
331.5,0.3021
332.0,0.3206
332.5,0.3153
333.0,0.3176
333.5,0.2935
334.0,0.3027
334.5,0.3443
335.0,0.3213
335.5,0.3656
336.0,0.2539
336.5,0.3095
337.0,0.2569
337.5,0.3217
338.0,0.3106
338.5,0.3513
339.0,0.351
339.5,0.3375
340.0,0.4071
340.5,0.3678
341.0,0.3536
341.5,0.3287
342.0,0.395
342.5,0.3715
343.0,0.4083
343.5,0.3846
344.0,0.289
344.5,0.2867
345.0,0.3849
345.5,0.3957
346.0,0.3381
346.5,0.3846
347.0,0.4129
347.5,0.3345
348.0,0.3842
348.5,0.3861
349.0,0.3595
349.5,0.3569
350.0,0.443
350.5,0.4687
351.0,0.4194
351.5,0.4069
352.0,0.4398
352.5,0.345
353.0,0.4363
353.5,0.4683
354.0,0.4879
354.5,0.4964
355.0,0.496
355.5,0.4495
356.0,0.4717
356.5,0.404
357.0,0.3349
357.5,0.4112
358.0,0.3269
358.5,0.2802
359.0,0.393
359.5,0.502
360.0,0.5338
360.5,0.428
361.0,0.3912
361.5,0.4516
362.0,0.3914
362.5,0.543
363.0,0.4888
363.5,0.4513
364.0,0.5533
364.5,0.4742
365.0,0.4842
365.5,0.6092
366.0,0.647
366.5,0.6093
367.0,0.5949
367.5,0.6189
368.0,0.5429
368.5,0.5491
369.0,0.5944
369.5,0.6351
370.0,0.6786
370.5,0.5279
371.0,0.5654
371.5,0.709
372.0,0.4717
372.5,0.5669
373.0,0.5779
373.5,0.3768
374.0,0.5488
374.5,0.4554
375.0,0.4437
375.5,0.664
376.0,0.5517
376.5,0.573
377.0,0.608
377.5,0.7128
378.0,0.7744
378.5,0.7337
379.0,0.607
379.5,0.5558
380.0,0.5792
380.5,0.703
381.0,0.7059
381.5,0.5607
382.0,0.4989
382.5,0.4261
383.0,0.3953
383.5,0.3815
384.0,0.4217
384.5,0.6214
385.0,0.6174
385.5,0.5761
386.0,0.4943
386.5,0.6505
387.0,0.5417
387.5,0.6096
388.0,0.5639
388.5,0.5585
389.0,0.604
389.5,0.733
390.0,0.7369
390.5,0.6795
391.0,0.8013
391.5,0.8188
392.0,0.691
392.5,0.6197
393.0,0.3454
393.5,0.2515
394.0,0.5126
394.5,0.6528
395.0,0.798
395.5,0.8121
396.0,0.7053
396.5,0.4129
397.0,0.3104
397.5,0.6324
398.0,0.8872
398.5,0.9185
399.0,0.996
399.5,0.9943
400.0,1.034
401.0,1.065
402.0,1.127
403.0,1.074
404.0,1.06
405.0,1.063
406.0,1.049
407.0,1.035
408.0,1.078
409.0,1.157
410.0,1.014
411.0,1.101
412.0,1.185
413.0,1.159
414.0,1.176
415.0,1.181
416.0,1.205
417.0,1.178
418.0,1.159
419.0,1.177
420.0,1.175
421.0,1.232
422.0,1.174
423.0,1.149
424.0,1.219
425.0,1.219
426.0,1.19
427.0,1.17
428.0,1.142
429.0,1.083
430.0,0.9501
431.0,0.944
432.0,1.221
433.0,1.23
434.0,1.145
435.0,1.198
436.0,1.352
437.0,1.336
438.0,1.218
439.0,1.263
440.0,1.305
441.0,1.355
442.0,1.456
443.0,1.421
444.0,1.454
445.0,1.425
446.0,1.362
447.0,1.474
448.0,1.5
449.0,1.508
450.0,1.553
451.0,1.613
452.0,1.556
453.0,1.466
454.0,1.532
455.0,1.544
456.0,1.583
457.0,1.612
458.0,1.56
459.0,1.554
460.0,1.561
461.0,1.599
462.0,1.613
463.0,1.605
464.0,1.579
465.0,1.561
466.0,1.577
467.0,1.551
468.0,1.572
469.0,1.583
470.0,1.534
471.0,1.534
472.0,1.619
473.0,1.6
474.0,1.605
475.0,1.622
476.0,1.577
477.0,1.584
478.0,1.63
479.0,1.621
480.0,1.626
481.0,1.658
482.0,1.667
483.0,1.648
484.0,1.616
485.0,1.541
486.0,1.348
487.0,1.414
488.0,1.553
489.0,1.56
490.0,1.642
491.0,1.615
492.0,1.527
493.0,1.578
494.0,1.596
495.0,1.611
496.0,1.623
497.0,1.649
498.0,1.574
499.0,1.596
500.0,1.552
501.0,1.526
502.0,1.507
503.0,1.572
504.0,1.537
505.0,1.59
506.0,1.643
507.0,1.565
508.0,1.517
509.0,1.56
510.0,1.552
511.0,1.594
512.0,1.612
513.0,1.527
514.0,1.518
515.0,1.504
516.0,1.502
517.0,1.335
518.0,1.405
519.0,1.475
520.0,1.53
521.0,1.546
522.0,1.549
523.0,1.523
524.0,1.579
525.0,1.6
526.0,1.53
527.0,1.443
528.0,1.528
529.0,1.613
530.0,1.591
531.0,1.616
532.0,1.562
533.0,1.517
534.0,1.563
535.0,1.597
536.0,1.613
537.0,1.55
538.0,1.578
539.0,1.566
540.0,1.502
541.0,1.515
542.0,1.564
543.0,1.547
544.0,1.576
545.0,1.572
546.0,1.581
547.0,1.58
548.0,1.562
549.0,1.567
550.0,1.587
551.0,1.568
552.0,1.58
553.0,1.553
554.0,1.591
555.0,1.595
556.0,1.576
557.0,1.528
558.0,1.518
559.0,1.491
560.0,1.511
561.0,1.532
562.0,1.523
563.0,1.566
564.0,1.525
565.0,1.513
566.0,1.492
567.0,1.522
568.0,1.511
569.0,1.48
570.0,1.48
571.0,1.471
572.0,1.509
573.0,1.527
574.0,1.523
575.0,1.496
576.0,1.483
577.0,1.5
578.0,1.477
579.0,1.481
580.0,1.508
581.0,1.514
582.0,1.542
583.0,1.545
584.0,1.558
585.0,1.52
586.0,1.489
587.0,1.524
588.0,1.492
589.0,1.332
590.0,1.393
591.0,1.469
592.0,1.454
593.0,1.472
594.0,1.464
595.0,1.432
596.0,1.481
597.0,1.468
598.0,1.462
599.0,1.463
600.0,1.464
601.0,1.451
602.0,1.441
603.0,1.465
604.0,1.49
605.0,1.482
606.0,1.476
607.0,1.49
608.0,1.473
609.0,1.476
610.0,1.465
611.0,1.473
612.0,1.468
613.0,1.45
614.0,1.43
615.0,1.461
616.0,1.413
617.0,1.41
618.0,1.465
619.0,1.45
620.0,1.46
621.0,1.462
622.0,1.446
623.0,1.425
624.0,1.401
625.0,1.398
626.0,1.419
627.0,1.437
628.0,1.363
629.0,1.411
630.0,1.38
631.0,1.404
632.0,1.387
633.0,1.427
634.0,1.411
635.0,1.432
636.0,1.412
637.0,1.435
638.0,1.448
639.0,1.431
640.0,1.417
641.0,1.416
642.0,1.409
643.0,1.428
644.0,1.423
645.0,1.426
646.0,1.396
647.0,1.385
648.0,1.387
649.0,1.361
650.0,1.361
651.0,1.419
652.0,1.368
653.0,1.401
654.0,1.385
655.0,1.337
656.0,1.183
657.0,1.215
658.0,1.359
659.0,1.368
660.0,1.374
661.0,1.384
662.0,1.388
663.0,1.361
664.0,1.375
665.0,1.375
666.0,1.376
667.0,1.374
668.0,1.374
669.0,1.395
670.0,1.389
671.0,1.389
672.0,1.377
673.0,1.398
674.0,1.393
675.0,1.38
676.0,1.389
677.0,1.376
678.0,1.38
679.0,1.357
680.0,1.368
681.0,1.36
682.0,1.358
683.0,1.356
684.0,1.349
685.0,1.361
686.0,1.353
687.0,0.9876
688.0,1.114
689.0,1.117
690.0,1.158
691.0,1.203
692.0,1.234
693.0,1.226
694.0,1.216
695.0,1.256
696.0,1.258
697.0,1.322
698.0,1.302
699.0,1.28
700.0,1.265
701.0,1.255
702.0,1.26
703.0,1.263
704.0,1.298
705.0,1.3
706.0,1.297
707.0,1.298
708.0,1.301
709.0,1.3
710.0,1.302
711.0,1.299
712.0,1.294
713.0,1.282
714.0,1.287
715.0,1.25
716.0,1.252
717.0,1.119
718.0,1.034
719.0,0.9511
720.0,0.9984
721.0,1.082
722.0,1.215
723.0,1.143
724.0,1.044
725.0,1.032
726.0,1.077
727.0,1.085
728.0,1.031
729.0,1.058
730.0,1.119
731.0,1.075
732.0,1.137
733.0,1.192
734.0,1.217
735.0,1.194
736.0,1.192
737.0,1.197
738.0,1.208
739.0,1.185
740.0,1.213
741.0,1.2
742.0,1.2
743.0,1.23
744.0,1.226
745.0,1.226
746.0,1.232
747.0,1.234
748.0,1.232
749.0,1.218
750.0,1.217
751.0,1.205
752.0,1.21
753.0,1.217
754.0,1.22
755.0,1.213
756.0,1.212
757.0,1.214
758.0,1.2
759.0,1.18
760.0,0.2901
761.0,0.1746
762.0,0.6954
763.0,0.4048
764.0,0.5572
765.0,0.6961
766.0,0.8104
767.0,0.9798
768.0,1.097
769.0,1.113
770.0,1.143
771.0,1.149
772.0,1.15
773.0,1.158
774.0,1.152
775.0,1.143
776.0,1.157
777.0,1.142
778.0,1.136
779.0,1.137
780.0,1.13
781.0,1.132
782.0,1.139
783.0,1.119
784.0,1.124
785.0,1.116
786.0,1.129
787.0,1.113
788.0,1.101
789.0,1.101
790.0,1.077
791.0,1.081
792.0,1.073
793.0,1.056
794.0,1.069
795.0,1.089
796.0,1.062
797.0,1.064
798.0,1.089
799.0,1.083
800.0,1.066
801.0,1.064
802.0,1.061
803.0,1.054
804.0,1.055
805.0,1.05
806.0,1.076
807.0,1.064
808.0,1.065
809.0,1.047
810.0,1.041
811.0,1.045
812.0,1.02
813.0,1.002
814.0,0.8983
815.0,0.8923
816.0,0.8332
817.0,0.8464
818.0,0.8185
819.0,0.9006
820.0,0.854
821.0,0.9786
822.0,0.954
823.0,0.6807
824.0,0.933
825.0,0.963
826.0,0.9324
827.0,0.9777
828.0,0.8468
829.0,0.9258
830.0,0.9157
831.0,0.9183
832.0,0.8935
833.0,0.9413
834.0,0.914
835.0,0.9916
836.0,0.957
837.0,0.994
838.0,0.9666
839.0,0.9785
840.0,0.9991
841.0,0.9865
842.0,0.9864
843.0,0.9836
844.0,0.9713
845.0,1.002
846.0,0.9977
847.0,0.9785
848.0,0.9736
849.0,0.946
850.0,0.9063
851.0,0.9607
852.0,0.9536
853.0,0.9171
854.0,0.7926
855.0,0.8699
856.0,0.9511
857.0,0.9717
858.0,0.9649
859.0,0.9654
860.0,0.9669
861.0,0.9618
862.0,0.9768
863.0,0.9999
864.0,0.95
865.0,0.9416
866.0,0.8467
867.0,0.8837
868.0,0.9616
869.0,0.9417
870.0,0.9686
871.0,0.9555
872.0,0.9521
873.0,0.9503
874.0,0.939
875.0,0.9201
876.0,0.9298
877.0,0.9392
878.0,0.9496
879.0,0.9351
880.0,0.9151
881.0,0.9019
882.0,0.9216
883.0,0.9241
884.0,0.9201
885.0,0.9271
886.0,0.8854
887.0,0.8935
888.0,0.9076
889.0,0.9165
890.0,0.9107
891.0,0.9083
892.0,0.8844
893.0,0.8597
894.0,0.835
895.0,0.7961
896.0,0.7533
897.0,0.6569
898.0,0.7112
899.0,0.5531
900.0,0.7224
901.0,0.5792
902.0,0.6639
903.0,0.6755
904.0,0.8292
905.0,0.8039
906.0,0.7549
907.0,0.6279
908.0,0.6383
909.0,0.6845
910.0,0.6177
911.0,0.651
912.0,0.6777
913.0,0.6276
914.0,0.6201
915.0,0.6709
916.0,0.5719
917.0,0.7119
918.0,0.5867
919.0,0.7218
920.0,0.7231
921.0,0.7505
922.0,0.6798
923.0,0.7246
924.0,0.6973
925.0,0.6824
926.0,0.6899
927.0,0.7639
928.0,0.5845
929.0,0.5401
930.0,0.4349
931.0,0.4103
932.0,0.3061
933.0,0.2546
934.0,0.1519
935.0,0.2558
936.0,0.1674
937.0,0.1707
938.0,0.2069
939.0,0.3978
940.0,0.4712
941.0,0.3656
942.0,0.417
943.0,0.2821
944.0,0.2902
945.0,0.3753
946.0,0.2017
947.0,0.3797
948.0,0.2808
949.0,0.4977
950.0,0.155
951.0,0.4882
952.0,0.2764
953.0,0.3478
954.0,0.4163
955.0,0.3507
956.0,0.3358
957.0,0.2783
958.0,0.4612
959.0,0.3773
960.0,0.4225
961.0,0.466
962.0,0.4421
963.0,0.5024
964.0,0.4627
965.0,0.4997
966.0,0.5016
967.0,0.5001
968.0,0.6459
969.0,0.6763
970.0,0.6247
971.0,0.7043
972.0,0.6758
973.0,0.5992
974.0,0.5705
975.0,0.5878
976.0,0.5639
977.0,0.6305
978.0,0.6037
979.0,0.6288
980.0,0.5935
981.0,0.7
982.0,0.6732
983.0,0.6487
984.0,0.7171
985.0,0.6706
986.0,0.7271
987.0,0.7157
988.0,0.7144
989.0,0.7234
990.0,0.71
991.0,0.726
992.0,0.7299
993.0,0.7164
994.0,0.7294
995.0,0.7282
996.0,0.7254
997.0,0.7263
998.0,0.7231
999.0,0.7203
1000.0,0.7159
1001.0,0.7242
1002.0,0.7069
1003.0,0.7116
1004.0,0.6949
1005.0,0.6685
1006.0,0.6951
1007.0,0.7096
1008.0,0.7063
1009.0,0.7031
1010.0,0.7004
1011.0,0.7061
1012.0,0.7005
1013.0,0.7043
1014.0,0.6993
1015.0,0.6948
1016.0,0.6918
1017.0,0.6937
1018.0,0.6908
1019.0,0.6771
1020.0,0.6873
1021.0,0.6862
1022.0,0.6813
1023.0,0.6886
1024.0,0.6807
1025.0,0.6878
1026.0,0.6852
1027.0,0.6836
1028.0,0.6822
1029.0,0.6743
1030.0,0.6786
1031.0,0.676
1032.0,0.674
1033.0,0.6639
1034.0,0.6639
1035.0,0.666
1036.0,0.6696
1037.0,0.6587
1038.0,0.6616
1039.0,0.6613
1040.0,0.6587
1041.0,0.6614
1042.0,0.6568
1043.0,0.6548
1044.0,0.6572
1045.0,0.6484
1046.0,0.6413
1047.0,0.6472
1048.0,0.6508
1049.0,0.6486
1050.0,0.6457
1051.0,0.6449
1052.0,0.6424
1053.0,0.6374
1054.0,0.6389
1055.0,0.6395
1056.0,0.6374
1057.0,0.6356
1058.0,0.6201
1059.0,0.621
1060.0,0.6201
1061.0,0.6195
1062.0,0.6229
1063.0,0.6169
1064.0,0.6242
1065.0,0.6201
1066.0,0.6075
1067.0,0.6155
1068.0,0.6023
1069.0,0.5836
1070.0,0.6037
1071.0,0.6122
1072.0,0.6058
1073.0,0.5969
1074.0,0.6114
1075.0,0.5836
1076.0,0.6111
1077.0,0.6018
1078.0,0.591
1079.0,0.6009
1080.0,0.5926
1081.0,0.5749
1082.0,0.5818
1083.0,0.583
1084.0,0.5743
1085.0,0.5937
1086.0,0.5463
1087.0,0.5605
1088.0,0.583
1089.0,0.5677
1090.0,0.5571
1091.0,0.5818
1092.0,0.5798
1093.0,0.4998
1094.0,0.5315
1095.0,0.5195
1096.0,0.4999
1097.0,0.5663
1098.0,0.4929
1099.0,0.5129
1100.0,0.4806
1101.0,0.4855
1102.0,0.4659
1103.0,0.463
1104.0,0.4634
1105.0,0.502
1106.0,0.3982
1107.0,0.4796
1108.0,0.4151
1109.0,0.4142
1110.0,0.4765
1111.0,0.3348
1112.0,0.4104
1113.0,0.2733
1114.0,0.304
1115.0,0.2525
1116.0,0.209
1117.0,0.08529
1118.0,0.2246
1119.0,0.1181
1120.0,0.1489
1121.0,0.1933
1122.0,0.08719
1123.0,0.1343
1124.0,0.1135
1125.0,0.1464
1126.0,0.05679
1127.0,0.1646
1128.0,0.1047
1129.0,0.1101
1130.0,0.07528
1131.0,0.2975
1132.0,0.2362
1133.0,0.1575
1134.0,0.04518
1135.0,0.01671
1136.0,0.1342
1137.0,0.2945
1138.0,0.2093
1139.0,0.2976
1140.0,0.2542
1141.0,0.1989
1142.0,0.2257
1143.0,0.3144
1144.0,0.1174
1145.0,0.1517
1146.0,0.1637
1147.0,0.06372
1148.0,0.2723
1149.0,0.222
1150.0,0.1258
1151.0,0.2078
1152.0,0.2505
1153.0,0.2402
1154.0,0.1483
1155.0,0.3107
1156.0,0.2827
1157.0,0.313
1158.0,0.3094
1159.0,0.33
1160.0,0.2866
1161.0,0.3445
1162.0,0.3469
1163.0,0.4539
1164.0,0.3948
1165.0,0.3774
1166.0,0.3713
1167.0,0.4017
1168.0,0.4072
1169.0,0.415
1170.0,0.4467
1171.0,0.4363
1172.0,0.4417
1173.0,0.4458
1174.0,0.3303
1175.0,0.4337
1176.0,0.471
1177.0,0.4558
1178.0,0.3515
1179.0,0.4745
1180.0,0.43
1181.0,0.4431
1182.0,0.3158
1183.0,0.4349
1184.0,0.4109
1185.0,0.3994
1186.0,0.4638
1187.0,0.4448
1188.0,0.322
1189.0,0.4151
1190.0,0.4532
1191.0,0.4355
1192.0,0.459
1193.0,0.4417
1194.0,0.454
1195.0,0.433
1196.0,0.4194
1197.0,0.4523
1198.0,0.4166
1199.0,0.3627
1200.0,0.4365
1201.0,0.4238
1202.0,0.4197
1203.0,0.4164
1204.0,0.3688
1205.0,0.427
1206.0,0.467
1207.0,0.4195
1208.0,0.4104
1209.0,0.4182
1210.0,0.4338
1211.0,0.4163
1212.0,0.4149
1213.0,0.4535
1214.0,0.4231
1215.0,0.4159
1216.0,0.4519
1217.0,0.4416
1218.0,0.4484
1219.0,0.4436
1220.0,0.4486
1221.0,0.4522
1222.0,0.4415
1223.0,0.438
1224.0,0.4365
1225.0,0.4494
1226.0,0.4514
1227.0,0.4206
1228.0,0.4528
1229.0,0.4515
1230.0,0.4446
1231.0,0.4546
1232.0,0.452
1233.0,0.4398
1234.0,0.4535
1235.0,0.4511
1236.0,0.454
1237.0,0.449
1238.0,0.4525
1239.0,0.4467
1240.0,0.4483
1241.0,0.447
1242.0,0.4453
1243.0,0.4416
1244.0,0.445
1245.0,0.4468
1246.0,0.4441
1247.0,0.4427
1248.0,0.4428
1249.0,0.4438
1250.0,0.4413
1251.0,0.4362
1252.0,0.4356
1253.0,0.4333
1254.0,0.4298
1255.0,0.4355
1256.0,0.4254
1257.0,0.4235
1258.0,0.4298
1259.0,0.4175
1260.0,0.4193
1261.0,0.3999
1262.0,0.3901
1263.0,0.391
1264.0,0.3661
1265.0,0.3884
1266.0,0.3768
1267.0,0.3813
1268.0,0.365
1269.0,0.2497
1270.0,0.3808
1271.0,0.3981
1272.0,0.3989
1273.0,0.3952
1274.0,0.3958
1275.0,0.4008
1276.0,0.4038
1277.0,0.4056
1278.0,0.4116
1279.0,0.4081
1280.0,0.4028
1281.0,0.3836
1282.0,0.3683
1283.0,0.397
1284.0,0.4067
1285.0,0.4092
1286.0,0.414
1287.0,0.409
1288.0,0.4085
1289.0,0.3982
1290.0,0.4048
1291.0,0.41
1292.0,0.39
1293.0,0.4032
1294.0,0.4006
1295.0,0.3999
1296.0,0.385
1297.0,0.3667
1298.0,0.3897
1299.0,0.4032
1300.0,0.35
1301.0,0.359
1302.0,0.3882
1303.0,0.3445
1304.0,0.302
1305.0,0.3809
1306.0,0.3815
1307.0,0.3057
1308.0,0.3437
1309.0,0.3792
1310.0,0.3002
1311.0,0.3314
1312.0,0.3238
1313.0,0.3188
1314.0,0.2883
1315.0,0.2864
1316.0,0.3275
1317.0,0.3112
1318.0,0.3349
1319.0,0.2715
1320.0,0.2609
1321.0,0.3006
1322.0,0.305
1323.0,0.2376
1324.0,0.2662
1325.0,0.3233
1326.0,0.2826
1327.0,0.2709
1328.0,0.2362
1329.0,0.1841
1330.0,0.2362
1331.0,0.1509
1332.0,0.153
1333.0,0.2107
1334.0,0.175
1335.0,0.2366
1336.0,0.1913
1337.0,0.1716
1338.0,0.1854
1339.0,0.1835
1340.0,0.1764
1341.0,0.177
1342.0,0.1856
1343.0,0.136
1344.0,0.08114
1345.0,0.1159
1346.0,0.06464
1347.0,0.06692
1348.0,0.005834
1349.0,0.01919
1350.0,0.01872
1351.0,0.005917
1352.0,0.002091
1353.0,0.0001472
1354.0,0.0004163
1355.0,6.349e-06
1356.0,7.392e-05
1357.0,0.0001114
1358.0,7.33e-06
1359.0,1.471e-06
1360.0,3.96e-06
1361.0,1.215e-08
1362.0,5.267e-11
1363.0,6e-06
1364.0,2.618e-06
1365.0,3.136e-11
1366.0,2.31e-05
1367.0,8.949e-06
1368.0,7.003e-13
1369.0,1.013e-06
1370.0,6.068e-07
1371.0,4.467e-08
1372.0,4.947e-06
1373.0,7.178e-05
1374.0,0.0002678
1375.0,0.0004835
1376.0,0.0003707
1377.0,0.0001791
1378.0,0.00156
1379.0,7.635e-05
1380.0,0.0001246
1381.0,3.8e-06
1382.0,4.71e-06
1383.0,8.689e-08
1384.0,1.233e-06
1385.0,3.604e-06
1386.0,4.786e-06
1387.0,0.0003114
1388.0,6.473e-06
1389.0,0.0008398
1390.0,0.0007205
1391.0,0.0005086
1392.0,3.64e-05
1393.0,0.0001702
1394.0,0.0001232
1395.0,1.206e-06
1396.0,1.536e-08
1397.0,7.428e-05
1398.0,0.001783
1399.0,0.001132
1400.0,8.572e-09
1401.0,2.51e-08
1402.0,0.002374
1403.0,0.003137
1404.0,0.0009795
1405.0,6.956e-07
1406.0,0.002768
1407.0,0.000236
1408.0,0.002236
1409.0,0.0008821
1410.0,0.0006477
1411.0,0.002735
1412.0,0.003418
1413.0,0.02767
1414.0,0.0005023
1415.0,0.0002613
1416.0,0.04022
1417.0,0.01402
1418.0,0.01607
1419.0,0.002591
1420.0,0.009916
1421.0,0.01085
1422.0,0.05194
1423.0,0.01058
1424.0,0.01939
1425.0,0.02913
1426.0,0.03143
1427.0,0.054
1428.0,0.005599
1429.0,0.04204
1430.0,0.06759
1431.0,0.07323
1432.0,0.004462
1433.0,0.04802
1434.0,0.02515
1435.0,0.02761
1436.0,0.04935
1437.0,0.03784
1438.0,0.01709
1439.0,0.06536
1440.0,0.04918
1441.0,0.03933
1442.0,0.04322
1443.0,0.05147
1444.0,0.07011
1445.0,0.05709
1446.0,0.02637
1447.0,0.04148
1448.0,0.1243
1449.0,0.1101
1450.0,0.03069
1451.0,0.01289
1452.0,0.06839
1453.0,0.08851
1454.0,0.1444
1455.0,0.0709
1456.0,0.09644
1457.0,0.1249
1458.0,0.143
1459.0,0.1697
1460.0,0.09069
1461.0,0.09656
1462.0,0.1379
1463.0,0.04707
1464.0,0.16
1465.0,0.09709
1466.0,0.07165
1467.0,0.03979
1468.0,0.08327
1469.0,0.101
