interpolation:linear
wavelength,value
280.0,5.378e-28
280.5,3.2270000000000004e-26
281.0,2.197e-25
281.5,1.2539999999999999e-23
282.0,1.4419999999999998e-22
282.5,7.083e-22
283.0,4.102e-21
283.5,8.855e-21
284.0,4.211e-19
284.5,1.92e-18
285.0,6.08e-18
285.5,6.661e-17
286.0,3.606e-16
286.5,2.776e-15
287.0,1.16e-14
287.5,7.058e-14
288.0,4.543e-13
288.5,2.179e-12
289.0,8.866e-12
289.5,4.08e-11
290.0,1.575e-10
290.5,4.209e-10
291.0,1.23e-09
291.5,5.114e-09
292.0,1.568e-08
292.5,2.627e-08
293.0,6.987e-08
293.5,2.245e-07
294.0,4.276e-07
294.5,8.293e-07
295.0,1.648e-06
295.5,4.633e-06
296.0,9.231e-06
296.5,1.325e-05
297.0,1.825e-05
297.5,4.969e-05
298.0,7.886e-05
298.5,7.956e-05
299.0,0.0001752
299.5,0.0002855
300.0,0.0003106
300.5,0.0004429
301.0,0.0007707
301.5,0.001178
302.0,0.0009879
302.5,0.001946
303.0,0.003511
303.5,0.00442
304.0,0.004116
304.5,0.005913
305.0,0.008443
305.5,0.009324
306.0,0.008941
306.5,0.0109
307.0,0.01525
307.5,0.01915
308.0,0.02018
308.5,0.02325
309.0,0.0209
309.5,0.02386
310.0,0.02399
310.5,0.03899
311.0,0.04893
311.5,0.04741
312.0,0.04675
312.5,0.05637
313.0,0.06102
313.5,0.06021
314.0,0.07417
314.5,0.06411
315.0,0.08432
315.5,0.07222
316.0,0.06175
316.5,0.08695
317.0,0.1087
317.5,0.1148
318.0,0.08847
318.5,0.1065
319.0,0.1246
319.5,0.1055
320.0,0.1289
320.5,0.156
321.0,0.1345
321.5,0.1293
322.0,0.1445
322.5,0.1262
323.0,0.1231
323.5,0.1451
324.0,0.1696
324.5,0.1753
325.0,0.1578
325.5,0.1996
326.0,0.2387
326.5,0.2366
327.0,0.2386
327.5,0.2335
328.0,0.2134
328.5,0.22
329.0,0.2593
329.5,0.294
330.0,0.2999
330.5,0.2454
331.0,0.2527
331.5,0.2551
332.0,0.2721
332.5,0.2682
333.0,0.2702
333.5,0.2493
334.0,0.2572
334.5,0.2938
335.0,0.2749
335.5,0.3133
336.0,0.2178
336.5,0.2653
337.0,0.2202
337.5,0.2758
338.0,0.2672
338.5,0.3027
339.0,0.3028
339.5,0.2915
340.0,0.3515
340.5,0.3179
341.0,0.3062
341.5,0.285
342.0,0.3428
342.5,0.3228
343.0,0.3549
343.5,0.3344
344.0,0.2513
344.5,0.2497
345.0,0.3357
345.5,0.3455
346.0,0.2955
346.5,0.3364
347.0,0.3614
347.5,0.293
348.0,0.3369
348.5,0.3388
349.0,0.3158
349.5,0.3138
350.0,0.3897
350.5,0.4126
351.0,0.3695
351.5,0.3586
352.0,0.388
352.5,0.3046
353.0,0.3856
353.5,0.4141
354.0,0.4317
354.5,0.4395
355.0,0.4395
355.5,0.3986
356.0,0.4186
356.5,0.3588
357.0,0.2975
357.5,0.3656
358.0,0.2908
358.5,0.2494
359.0,0.35
359.5,0.4473
360.0,0.4759
360.5,0.3818
361.0,0.3493
361.5,0.4035
362.0,0.35
362.5,0.4859
363.0,0.4378
363.5,0.4045
364.0,0.4963
364.5,0.4256
365.0,0.4348
365.5,0.5474
366.0,0.5818
366.5,0.5483
367.0,0.5356
367.5,0.5575
368.0,0.4894
368.5,0.4952
369.0,0.5364
369.5,0.5735
370.0,0.6131
370.5,0.4772
371.0,0.5114
371.5,0.6417
372.0,0.4271
372.5,0.5136
373.0,0.5238
373.5,0.3418
374.0,0.498
374.5,0.4135
375.0,0.4031
375.5,0.6035
376.0,0.5016
376.5,0.5213
377.0,0.5533
377.5,0.6491
378.0,0.7055
378.5,0.6687
379.0,0.5534
379.5,0.5069
380.0,0.5285
380.5,0.6418
381.0,0.6449
381.5,0.5125
382.0,0.4563
382.5,0.39
383.0,0.362
383.5,0.3495
384.0,0.3865
384.5,0.5698
385.0,0.5664
385.5,0.5288
386.0,0.454
386.5,0.5977
387.0,0.4979
387.5,0.5606
388.0,0.5188
388.5,0.514
389.0,0.5562
389.5,0.6752
390.0,0.6792
390.5,0.6265
391.0,0.7391
391.5,0.7556
392.0,0.6379
392.5,0.5723
393.0,0.3191
393.5,0.2325
394.0,0.4741
394.5,0.604
395.0,0.7385
395.5,0.7518
396.0,0.6532
396.5,0.3826
397.0,0.2878
397.5,0.5864
398.0,0.823
398.5,0.8524
399.0,0.9247
399.5,0.9235
400.0,0.9609
401.0,0.9905
402.0,1.049
403.0,1.0
404.0,0.9882
405.0,0.9915
406.0,0.9788
407.0,0.9664
408.0,1.008
409.0,1.082
410.0,0.9484
411.0,1.031
412.0,1.11
413.0,1.086
414.0,1.103
415.0,1.109
416.0,1.132
417.0,1.108
418.0,1.09
419.0,1.108
420.0,1.106
421.0,1.161
422.0,1.107
423.0,1.084
424.0,1.15
425.0,1.151
426.0,1.124
427.0,1.106
428.0,1.08
429.0,1.025
430.0,0.8996
431.0,0.8941
432.0,1.157
433.0,1.167
434.0,1.086
435.0,1.137
436.0,1.284
437.0,1.269
438.0,1.158
439.0,1.201
440.0,1.242
441.0,1.289
442.0,1.386
443.0,1.353
444.0,1.385
445.0,1.358
446.0,1.299
447.0,1.407
448.0,1.432
449.0,1.44
450.0,1.483
451.0,1.542
452.0,1.488
453.0,1.402
454.0,1.466
455.0,1.478
456.0,1.516
457.0,1.544
458.0,1.495
459.0,1.49
460.0,1.497
461.0,1.534
462.0,1.548
463.0,1.54
464.0,1.516
465.0,1.499
466.0,1.516
467.0,1.491
468.0,1.511
469.0,1.522
470.0,1.476
471.0,1.476
472.0,1.558
473.0,1.54
474.0,1.545
475.0,1.561
476.0,1.517
477.0,1.525
478.0,1.569
479.0,1.562
480.0,1.567
481.0,1.598
482.0,1.608
483.0,1.591
484.0,1.56
485.0,1.488
486.0,1.302
487.0,1.366
488.0,1.501
489.0,1.508
490.0,1.588
491.0,1.563
492.0,1.477
493.0,1.528
494.0,1.545
495.0,1.56
496.0,1.571
497.0,1.598
498.0,1.525
499.0,1.547
500.0,1.504
501.0,1.478
502.0,1.46
503.0,1.522
504.0,1.488
505.0,1.541
506.0,1.592
507.0,1.517
508.0,1.47
509.0,1.513
510.0,1.506
511.0,1.547
512.0,1.565
513.0,1.483
514.0,1.474
515.0,1.461
516.0,1.459
517.0,1.297
518.0,1.365
519.0,1.434
520.0,1.487
521.0,1.503
522.0,1.506
523.0,1.48
524.0,1.535
525.0,1.555
526.0,1.487
527.0,1.403
528.0,1.486
529.0,1.567
530.0,1.546
531.0,1.571
532.0,1.518
533.0,1.475
534.0,1.52
535.0,1.554
536.0,1.569
537.0,1.508
538.0,1.536
539.0,1.524
540.0,1.462
541.0,1.474
542.0,1.522
543.0,1.506
544.0,1.534
545.0,1.53
546.0,1.538
547.0,1.538
548.0,1.521
549.0,1.526
550.0,1.545
551.0,1.528
552.0,1.539
553.0,1.513
554.0,1.55
555.0,1.555
556.0,1.536
557.0,1.489
558.0,1.479
559.0,1.453
560.0,1.472
561.0,1.493
562.0,1.483
563.0,1.525
564.0,1.485
565.0,1.473
566.0,1.453
567.0,1.482
568.0,1.47
569.0,1.438
570.0,1.438
571.0,1.43
572.0,1.467
573.0,1.483
574.0,1.48
575.0,1.453
576.0,1.441
577.0,1.457
578.0,1.435
579.0,1.441
580.0,1.468
581.0,1.475
582.0,1.503
583.0,1.506
584.0,1.52
585.0,1.483
586.0,1.453
587.0,1.486
588.0,1.453
589.0,1.293
590.0,1.352
591.0,1.429
592.0,1.413
593.0,1.433
594.0,1.424
595.0,1.392
596.0,1.443
597.0,1.429
598.0,1.425
599.0,1.427
600.0,1.428
601.0,1.417
602.0,1.407
603.0,1.431
604.0,1.455
605.0,1.448
606.0,1.442
607.0,1.457
608.0,1.441
609.0,1.443
610.0,1.433
611.0,1.441
612.0,1.437
613.0,1.419
614.0,1.4
615.0,1.431
616.0,1.384
617.0,1.381
618.0,1.435
619.0,1.421
620.0,1.43
621.0,1.433
622.0,1.417
623.0,1.396
624.0,1.372
625.0,1.369
626.0,1.39
627.0,1.407
628.0,1.325
629.0,1.378
630.0,1.347
631.0,1.375
632.0,1.358
633.0,1.398
634.0,1.384
635.0,1.406
636.0,1.387
637.0,1.41
638.0,1.423
639.0,1.407
640.0,1.393
641.0,1.392
642.0,1.386
643.0,1.405
644.0,1.401
645.0,1.404
646.0,1.372
647.0,1.359
648.0,1.361
649.0,1.335
650.0,1.339
651.0,1.396
652.0,1.343
653.0,1.379
654.0,1.363
655.0,1.315
656.0,1.164
657.0,1.196
658.0,1.339
659.0,1.349
660.0,1.355
661.0,1.364
662.0,1.368
663.0,1.341
664.0,1.357
665.0,1.357
666.0,1.358
667.0,1.357
668.0,1.358
669.0,1.379
670.0,1.373
671.0,1.373
672.0,1.361
673.0,1.382
674.0,1.377
675.0,1.365
676.0,1.374
677.0,1.361
678.0,1.365
679.0,1.343
680.0,1.354
681.0,1.345
682.0,1.344
683.0,1.341
684.0,1.335
685.0,1.347
686.0,1.339
687.0,0.9324
688.0,1.072
689.0,1.076
690.0,1.122
691.0,1.173
692.0,1.21
693.0,1.201
694.0,1.191
695.0,1.235
696.0,1.237
697.0,1.307
698.0,1.287
699.0,1.261
700.0,1.246
701.0,1.235
702.0,1.242
703.0,1.244
704.0,1.282
705.0,1.284
706.0,1.282
707.0,1.283
708.0,1.286
709.0,1.287
710.0,1.288
711.0,1.286
712.0,1.281
713.0,1.269
714.0,1.274
715.0,1.236
716.0,1.237
717.0,1.089
718.0,1.003
719.0,0.9212
720.0,0.9661
721.0,1.057
722.0,1.198
723.0,1.121
724.0,1.017
725.0,1.003
726.0,1.049
727.0,1.061
728.0,1.002
729.0,1.034
730.0,1.094
731.0,1.049
732.0,1.116
733.0,1.175
734.0,1.202
735.0,1.178
736.0,1.177
737.0,1.182
738.0,1.196
739.0,1.173
740.0,1.203
741.0,1.19
742.0,1.191
743.0,1.221
744.0,1.218
745.0,1.218
746.0,1.223
747.0,1.226
748.0,1.224
749.0,1.21
750.0,1.209
751.0,1.197
752.0,1.203
753.0,1.209
754.0,1.212
755.0,1.205
756.0,1.205
757.0,1.207
758.0,1.192
759.0,1.17
760.0,0.2352
761.0,0.1317
762.0,0.6413
763.0,0.3445
764.0,0.4968
765.0,0.6418
766.0,0.7682
767.0,0.9498
768.0,1.081
769.0,1.1
770.0,1.134
771.0,1.141
772.0,1.143
773.0,1.151
774.0,1.146
775.0,1.137
776.0,1.151
777.0,1.136
778.0,1.129
779.0,1.13
780.0,1.124
781.0,1.126
782.0,1.133
783.0,1.113
784.0,1.118
785.0,1.11
786.0,1.123
787.0,1.105
788.0,1.092
789.0,1.092
790.0,1.066
791.0,1.073
792.0,1.065
793.0,1.048
794.0,1.063
795.0,1.082
796.0,1.052
797.0,1.054
798.0,1.082
799.0,1.075
800.0,1.058
801.0,1.055
802.0,1.052
803.0,1.045
804.0,1.046
805.0,1.042
806.0,1.07
807.0,1.057
808.0,1.058
809.0,1.04
810.0,1.032
811.0,1.035
812.0,1.008
813.0,0.9884
814.0,0.8772
815.0,0.8717
816.0,0.8126
817.0,0.8266
818.0,0.7975
819.0,0.885
820.0,0.8362
821.0,0.9684
822.0,0.9423
823.0,0.6554
824.0,0.9182
825.0,0.9524
826.0,0.9191
827.0,0.9671
828.0,0.8282
829.0,0.9132
830.0,0.9022
831.0,0.9052
832.0,0.879
833.0,0.9311
834.0,0.9009
835.0,0.984
836.0,0.9456
837.0,0.9868
838.0,0.9577
839.0,0.9717
840.0,0.9927
841.0,0.9794
842.0,0.9805
843.0,0.979
844.0,0.9661
845.0,0.998
846.0,0.9936
847.0,0.9749
848.0,0.9694
849.0,0.9419
850.0,0.9024
851.0,0.956
852.0,0.9492
853.0,0.9134
854.0,0.789
855.0,0.8665
856.0,0.9472
857.0,0.9681
858.0,0.9612
859.0,0.9619
860.0,0.9636
861.0,0.9584
862.0,0.9735
863.0,0.9966
864.0,0.9468
865.0,0.9386
866.0,0.844
867.0,0.8808
868.0,0.9586
869.0,0.9387
870.0,0.9656
871.0,0.9525
872.0,0.9492
873.0,0.9474
874.0,0.9362
875.0,0.9173
876.0,0.9269
877.0,0.9363
878.0,0.9466
879.0,0.9321
880.0,0.9122
881.0,0.8988
882.0,0.9184
883.0,0.9212
884.0,0.9171
885.0,0.9241
886.0,0.8815
887.0,0.8903
888.0,0.9039
889.0,0.9136
890.0,0.9067
891.0,0.9049
892.0,0.8798
893.0,0.8534
894.0,0.8256
895.0,0.783
896.0,0.7389
897.0,0.6384
898.0,0.6946
899.0,0.5329
900.0,0.7091
901.0,0.5584
902.0,0.6495
903.0,0.6578
904.0,0.82
905.0,0.793
906.0,0.7432
907.0,0.6094
908.0,0.6207
909.0,0.6698
910.0,0.5969
911.0,0.6335
912.0,0.6613
913.0,0.6061
914.0,0.6002
915.0,0.6503
916.0,0.5518
917.0,0.6954
918.0,0.566
919.0,0.7069
920.0,0.7118
921.0,0.7399
922.0,0.6647
923.0,0.7146
924.0,0.6815
925.0,0.6668
926.0,0.6742
927.0,0.7517
928.0,0.56
929.0,0.5134
930.0,0.4068
931.0,0.385
932.0,0.2806
933.0,0.2298
934.0,0.1295
935.0,0.2338
936.0,0.1482
937.0,0.1505
938.0,0.1842
939.0,0.3732
940.0,0.4467
941.0,0.3402
942.0,0.3921
943.0,0.2603
944.0,0.272
945.0,0.3503
946.0,0.1814
947.0,0.3527
948.0,0.2597
949.0,0.4691
950.0,0.135
951.0,0.4614
952.0,0.2519
953.0,0.3228
954.0,0.3929
955.0,0.3262
956.0,0.3152
957.0,0.2527
958.0,0.4427
959.0,0.3548
960.0,0.3976
961.0,0.4439
962.0,0.4203
963.0,0.4825
964.0,0.4427
965.0,0.4805
966.0,0.4811
967.0,0.4793
968.0,0.6353
969.0,0.6642
970.0,0.611
971.0,0.6962
972.0,0.6667
973.0,0.5837
974.0,0.5544
975.0,0.5743
976.0,0.547
977.0,0.6192
978.0,0.5897
979.0,0.6166
980.0,0.5804
981.0,0.6924
982.0,0.6632
983.0,0.6374
984.0,0.7122
985.0,0.6608
986.0,0.724
987.0,0.7108
988.0,0.7095
989.0,0.7214
990.0,0.7052
991.0,0.7237
992.0,0.7279
993.0,0.7125
994.0,0.7276
995.0,0.7267
996.0,0.7236
997.0,0.7246
998.0,0.7213
999.0,0.7186
1000.0,0.7138
1001.0,0.7225
1002.0,0.7034
1003.0,0.7099
1004.0,0.6927
1005.0,0.6671
1006.0,0.6933
1007.0,0.708
1008.0,0.7043
1009.0,0.7007
1010.0,0.6979
1011.0,0.7045
1012.0,0.6986
1013.0,0.7028
1014.0,0.6979
1015.0,0.6933
1016.0,0.6903
1017.0,0.6921
1018.0,0.6894
1019.0,0.675
1020.0,0.6859
1021.0,0.6849
1022.0,0.6797
1023.0,0.687
1024.0,0.6784
1025.0,0.6865
1026.0,0.6836
1027.0,0.6821
1028.0,0.6807
1029.0,0.6727
1030.0,0.6772
1031.0,0.6746
1032.0,0.6726
1033.0,0.6625
1034.0,0.6625
1035.0,0.6646
1036.0,0.6681
1037.0,0.6573
1038.0,0.6602
1039.0,0.6599
1040.0,0.6573
1041.0,0.6599
1042.0,0.6553
1043.0,0.6533
1044.0,0.6556
1045.0,0.6468
1046.0,0.6397
1047.0,0.6455
1048.0,0.6491
1049.0,0.6468
1050.0,0.6438
1051.0,0.643
1052.0,0.6404
1053.0,0.6354
1054.0,0.6368
1055.0,0.6372
1056.0,0.6351
1057.0,0.6331
1058.0,0.6176
1059.0,0.6184
1060.0,0.6175
1061.0,0.6168
1062.0,0.6201
1063.0,0.614
1064.0,0.6213
1065.0,0.6169
1066.0,0.6047
1067.0,0.6125
1068.0,0.5993
1069.0,0.5807
1070.0,0.6005
1071.0,0.6096
1072.0,0.6028
1073.0,0.5941
1074.0,0.6092
1075.0,0.5795
1076.0,0.6088
1077.0,0.5983
1078.0,0.5872
1079.0,0.599
1080.0,0.5892
1081.0,0.5707
1082.0,0.5792
1083.0,0.5808
1084.0,0.5695
1085.0,0.5905
1086.0,0.5401
1087.0,0.5566
1088.0,0.5804
1089.0,0.5634
1090.0,0.5515
1091.0,0.5788
1092.0,0.5772
1093.0,0.4917
1094.0,0.5284
1095.0,0.512
1096.0,0.4909
1097.0,0.5638
1098.0,0.4835
1099.0,0.504
1100.0,0.4695
1101.0,0.4751
1102.0,0.4544
1103.0,0.4505
1104.0,0.451
1105.0,0.4927
1106.0,0.3808
1107.0,0.4688
1108.0,0.3997
1109.0,0.4
1110.0,0.465
1111.0,0.3185
1112.0,0.3968
1113.0,0.2557
1114.0,0.2855
1115.0,0.2368
1116.0,0.1909
1117.0,0.07207
1118.0,0.2071
1119.0,0.1043
1120.0,0.1314
1121.0,0.1734
1122.0,0.07429
1123.0,0.1187
1124.0,0.1002
1125.0,0.1303
1126.0,0.04665
1127.0,0.1469
1128.0,0.08927
1129.0,0.09453
1130.0,0.06274
1131.0,0.2752
1132.0,0.2166
1133.0,0.139
1134.0,0.03656
1135.0,0.01365
1136.0,0.1166
1137.0,0.2709
1138.0,0.1913
1139.0,0.2818
1140.0,0.2368
1141.0,0.1818
1142.0,0.2084
1143.0,0.2944
1144.0,0.1046
1145.0,0.1341
1146.0,0.1446
1147.0,0.05219
1148.0,0.2549
1149.0,0.2046
1150.0,0.1124
1151.0,0.1899
1152.0,0.2324
1153.0,0.2256
1154.0,0.1302
1155.0,0.2941
1156.0,0.2655
1157.0,0.2968
1158.0,0.2936
1159.0,0.3157
1160.0,0.271
1161.0,0.3315
1162.0,0.3333
1163.0,0.4458
1164.0,0.384
1165.0,0.3639
1166.0,0.3602
1167.0,0.3915
1168.0,0.3962
1169.0,0.405
1170.0,0.4388
1171.0,0.428
1172.0,0.4349
1173.0,0.4378
1174.0,0.3168
1175.0,0.4271
1176.0,0.4674
1177.0,0.4501
1178.0,0.3412
1179.0,0.4711
1180.0,0.4229
1181.0,0.4362
1182.0,0.3046
1183.0,0.429
1184.0,0.4032
1185.0,0.3902
1186.0,0.459
1187.0,0.4383
1188.0,0.3101
1189.0,0.4086
1190.0,0.4485
1191.0,0.4279
1192.0,0.4546
1193.0,0.4364
1194.0,0.4493
1195.0,0.4264
1196.0,0.4115
1197.0,0.4487
1198.0,0.4116
1199.0,0.3534
1200.0,0.431
1201.0,0.4169
1202.0,0.4137
1203.0,0.4104
1204.0,0.3607
1205.0,0.4224
1206.0,0.4647
1207.0,0.4131
1208.0,0.4056
1209.0,0.4137
1210.0,0.4302
1211.0,0.411
1212.0,0.4076
1213.0,0.4503
1214.0,0.4166
1215.0,0.4091
1216.0,0.4488
1217.0,0.4376
1218.0,0.4452
1219.0,0.4401
1220.0,0.4456
1221.0,0.4496
1222.0,0.4384
1223.0,0.4346
1224.0,0.4324
1225.0,0.4468
1226.0,0.4494
1227.0,0.4163
1228.0,0.4513
1229.0,0.4495
1230.0,0.4421
1231.0,0.4536
1232.0,0.4509
1233.0,0.4369
1234.0,0.4529
1235.0,0.4503
1236.0,0.4534
1237.0,0.4477
1238.0,0.4519
1239.0,0.4461
1240.0,0.4477
1241.0,0.446
1242.0,0.4447
1243.0,0.4411
1244.0,0.4443
1245.0,0.4461
1246.0,0.4435
1247.0,0.4419
1248.0,0.4418
1249.0,0.443
1250.0,0.4405
1251.0,0.435
1252.0,0.4348
1253.0,0.4319
1254.0,0.4279
1255.0,0.4345
1256.0,0.4233
1257.0,0.4211
1258.0,0.4283
1259.0,0.4142
1260.0,0.4162
1261.0,0.3946
1262.0,0.3837
1263.0,0.3845
1264.0,0.3571
1265.0,0.382
1266.0,0.3689
1267.0,0.3745
1268.0,0.3566
1269.0,0.2306
1270.0,0.3735
1271.0,0.3931
1272.0,0.3942
1273.0,0.3902
1274.0,0.3912
1275.0,0.3966
1276.0,0.4001
1277.0,0.4023
1278.0,0.4093
1279.0,0.4057
1280.0,0.4005
1281.0,0.3819
1282.0,0.3674
1283.0,0.3958
1284.0,0.4054
1285.0,0.408
1286.0,0.4132
1287.0,0.4074
1288.0,0.4071
1289.0,0.3954
1290.0,0.4035
1291.0,0.4089
1292.0,0.3863
1293.0,0.4015
1294.0,0.3988
1295.0,0.3974
1296.0,0.3807
1297.0,0.3612
1298.0,0.3867
1299.0,0.4018
1300.0,0.3437
1301.0,0.3536
1302.0,0.3854
1303.0,0.3388
1304.0,0.2923
1305.0,0.3777
1306.0,0.378
1307.0,0.2974
1308.0,0.3388
1309.0,0.3754
1310.0,0.2919
1311.0,0.3256
1312.0,0.3173
1313.0,0.3117
1314.0,0.2802
1315.0,0.2773
1316.0,0.321
1317.0,0.3045
1318.0,0.3296
1319.0,0.2614
1320.0,0.2525
1321.0,0.2928
1322.0,0.2963
1323.0,0.226
1324.0,0.2564
1325.0,0.3167
1326.0,0.2737
1327.0,0.2615
1328.0,0.2265
1329.0,0.1725
1330.0,0.2234
1331.0,0.1376
1332.0,0.1412
1333.0,0.1959
1334.0,0.1646
1335.0,0.2251
1336.0,0.1795
1337.0,0.1595
1338.0,0.1725
1339.0,0.1714
1340.0,0.166
1341.0,0.1637
1342.0,0.1718
1343.0,0.1197
1344.0,0.0715
1345.0,0.1029
1346.0,0.0532
1347.0,0.05445
1348.0,0.003918
1349.0,0.01367
1350.0,0.0139
1351.0,0.003708
1352.0,0.001108
1353.0,6.332e-05
1354.0,0.000203
1355.0,2.065e-06
1356.0,3.121e-05
1357.0,4.74e-05
1358.0,2.423e-06
1359.0,3.636e-07
1360.0,1.18e-06
1361.0,1.911e-09
1362.0,6.153e-12
1363.0,1.68e-06
1364.0,7.044e-07
1365.0,2.641e-12
1366.0,7.013e-06
1367.0,2.793e-06
1368.0,3.043e-14
1369.0,2.661e-07
1370.0,1.413e-07
1371.0,8.799e-09
1372.0,1.537e-06
1373.0,2.759e-05
1374.0,0.0001184
1375.0,0.0002157
1376.0,0.0001819
1377.0,8.489e-05
1378.0,0.0008012
1379.0,3.58e-05
1380.0,5.414e-05
1381.0,1.489e-06
1382.0,1.416e-06
1383.0,2.275e-08
1384.0,3.099e-07
1385.0,1.235e-06
1386.0,1.327e-06
1387.0,0.0001288
1388.0,2.56e-06
1389.0,0.0004008
1390.0,0.0003452
1391.0,0.0002345
1392.0,1.57e-05
1393.0,7.976e-05
1394.0,4.684e-05
1395.0,3.792e-07
1396.0,2.622e-09
1397.0,3.282e-05
1398.0,0.0009076
1399.0,0.000575
1400.0,1.248e-09
1401.0,4.555e-09
1402.0,0.001441
1403.0,0.001846
1404.0,0.0005677
1405.0,1.967e-07
1406.0,0.001527
1407.0,0.0001321
1408.0,0.001242
1409.0,0.0004417
1410.0,0.0003413
1411.0,0.001618
1412.0,0.002125
1413.0,0.02027
1414.0,0.0002675
1415.0,0.000132
1416.0,0.03207
1417.0,0.01006
1418.0,0.01151
1419.0,0.001802
1420.0,0.007053
1421.0,0.007633
1422.0,0.04178
1423.0,0.008185
1424.0,0.01526
1425.0,0.02259
1426.0,0.02533
1427.0,0.0459
1428.0,0.003711
1429.0,0.03462
1430.0,0.0583
1431.0,0.06387
1432.0,0.00293
1433.0,0.04084
1434.0,0.02088
1435.0,0.02123
1436.0,0.04043
1437.0,0.03097
1438.0,0.01323
1439.0,0.05475
1440.0,0.04102
1441.0,0.0315
1442.0,0.03491
1443.0,0.0435
1444.0,0.06011
1445.0,0.04729
1446.0,0.02134
1447.0,0.03362
1448.0,0.1123
1449.0,0.09769
1450.0,0.02492
1451.0,0.01006
1452.0,0.05896
1453.0,0.07735
1454.0,0.1325
1455.0,0.06258
1456.0,0.08417
1457.0,0.1128
1458.0,0.1329
1459.0,0.1572
1460.0,0.08188
1461.0,0.08554
1462.0,0.1254
1463.0,0.04055
