interpolation:linear
wavelength,value
280.0,6.551e-24
280.5,2.162e-22
281.0,1.183e-21
281.5,3.7860000000000004e-20
282.0,3.062e-19
282.5,1.187e-18
283.0,5.298e-18
283.5,1.004e-17
284.0,2.612e-16
284.5,9.046e-16
285.0,2.128e-15
285.5,1.642e-14
286.0,7.715e-14
286.5,4.438e-13
287.0,1.496e-12
287.5,6.867e-12
288.0,3.099e-11
288.5,1.231e-10
289.0,4.123e-10
289.5,1.532e-09
290.0,4.963e-09
290.5,1.146e-08
291.0,2.807e-08
291.5,9.323e-08
292.0,2.382e-07
292.5,3.599e-07
293.0,8.39e-07
293.5,2.252e-06
294.0,3.799e-06
294.5,6.722e-06
295.0,1.19e-05
295.5,2.902e-05
296.0,5.244e-05
296.5,6.86e-05
297.0,8.784e-05
297.5,0.0002157
298.0,0.0003152
298.5,0.0002989
299.0,0.0006215
299.5,0.0009237
300.0,0.0009576
300.5,0.001302
301.0,0.002117
301.5,0.003061
302.0,0.0025
302.5,0.004696
303.0,0.007996
303.5,0.009735
304.0,0.008919
304.5,0.01233
305.0,0.01675
305.5,0.01795
306.0,0.01699
306.5,0.02033
307.0,0.0274
307.5,0.03327
308.0,0.0348
308.5,0.03944
309.0,0.03499
309.5,0.03858
310.0,0.03815
310.5,0.06148
311.0,0.07613
311.5,0.07327
312.0,0.07046
312.5,0.08358
313.0,0.08965
313.5,0.08891
314.0,0.1075
314.5,0.09084
315.0,0.1189
315.5,0.1026
316.0,0.08617
316.5,0.1195
317.0,0.1493
317.5,0.1579
318.0,0.1205
318.5,0.1424
319.0,0.1652
319.5,0.1414
320.0,0.1728
320.5,0.2056
321.0,0.1748
321.5,0.1675
322.0,0.1895
322.5,0.1651
323.0,0.1594
323.5,0.185
324.0,0.2155
324.5,0.2235
325.0,0.2029
325.5,0.2545
326.0,0.3013
326.5,0.2965
327.0,0.2992
327.5,0.2932
328.0,0.2698
328.5,0.2751
329.0,0.3217
329.5,0.3636
330.0,0.3709
330.5,0.3045
331.0,0.3138
331.5,0.3152
332.0,0.3341
332.5,0.3283
333.0,0.3307
333.5,0.3057
334.0,0.3153
334.5,0.3582
335.0,0.3341
335.5,0.38
336.0,0.2639
336.5,0.3216
337.0,0.267
337.5,0.3343
338.0,0.3225
338.5,0.3646
339.0,0.3642
339.5,0.3502
340.0,0.4223
340.5,0.3815
341.0,0.3665
341.5,0.3406
342.0,0.4093
342.5,0.3849
343.0,0.4229
343.5,0.3982
344.0,0.2993
344.5,0.2968
345.0,0.3983
345.5,0.4094
346.0,0.3497
346.5,0.3977
347.0,0.4269
347.5,0.3458
348.0,0.397
348.5,0.3989
349.0,0.3714
349.5,0.3686
350.0,0.4574
350.5,0.4839
351.0,0.4329
351.5,0.42
352.0,0.4539
352.5,0.3559
353.0,0.45
353.5,0.4829
354.0,0.503
354.5,0.5117
355.0,0.5112
355.5,0.4632
356.0,0.486
356.5,0.4162
357.0,0.3449
357.5,0.4235
358.0,0.3366
358.5,0.2885
359.0,0.4046
359.5,0.5167
360.0,0.5494
360.5,0.4404
361.0,0.4025
361.5,0.4645
362.0,0.4025
362.5,0.5583
363.0,0.5025
363.5,0.4639
364.0,0.5686
364.5,0.4872
365.0,0.4974
365.5,0.6257
366.0,0.6644
366.5,0.6256
367.0,0.6107
367.5,0.6353
368.0,0.5572
368.5,0.5635
369.0,0.6099
369.5,0.6515
370.0,0.6961
370.5,0.5414
371.0,0.5797
371.5,0.727
372.0,0.4836
372.5,0.5811
373.0,0.5923
373.5,0.3861
374.0,0.5623
374.5,0.4666
375.0,0.4545
375.5,0.6801
376.0,0.565
376.5,0.5868
377.0,0.6225
377.5,0.7297
378.0,0.7927
378.5,0.751
379.0,0.6212
379.5,0.5688
380.0,0.5926
380.5,0.7192
381.0,0.7221
381.5,0.5734
382.0,0.5102
382.5,0.4357
383.0,0.4041
383.5,0.3899
384.0,0.4309
384.5,0.635
385.0,0.6309
385.5,0.5885
386.0,0.505
386.5,0.6645
387.0,0.5532
387.5,0.6225
388.0,0.5758
388.5,0.5702
389.0,0.6166
389.5,0.7482
390.0,0.7522
390.5,0.6934
391.0,0.8176
391.5,0.8355
392.0,0.705
392.5,0.6321
393.0,0.3523
393.5,0.2565
394.0,0.5228
394.5,0.6657
395.0,0.8136
395.5,0.8279
396.0,0.719
396.5,0.4209
397.0,0.3164
397.5,0.6444
398.0,0.9041
398.5,0.9359
399.0,1.015
399.5,1.013
400.0,1.054
401.0,1.085
402.0,1.148
403.0,1.093
404.0,1.079
405.0,1.082
406.0,1.067
407.0,1.053
408.0,1.097
409.0,1.177
410.0,1.031
411.0,1.119
412.0,1.204
413.0,1.177
414.0,1.195
415.0,1.2
416.0,1.224
417.0,1.197
418.0,1.177
419.0,1.195
420.0,1.193
421.0,1.251
422.0,1.191
423.0,1.166
424.0,1.237
425.0,1.237
426.0,1.207
427.0,1.186
428.0,1.158
429.0,1.099
430.0,0.9631
431.0,0.9569
432.0,1.237
433.0,1.247
434.0,1.16
435.0,1.214
436.0,1.37
437.0,1.353
438.0,1.234
439.0,1.279
440.0,1.322
441.0,1.372
442.0,1.474
443.0,1.438
444.0,1.471
445.0,1.442
446.0,1.378
447.0,1.491
448.0,1.518
449.0,1.525
450.0,1.57
451.0,1.631
452.0,1.574
453.0,1.482
454.0,1.549
455.0,1.561
456.0,1.6
457.0,1.629
458.0,1.577
459.0,1.571
460.0,1.578
461.0,1.616
462.0,1.63
463.0,1.621
464.0,1.595
465.0,1.576
466.0,1.593
467.0,1.567
468.0,1.587
469.0,1.598
470.0,1.549
471.0,1.549
472.0,1.634
473.0,1.615
474.0,1.621
475.0,1.638
476.0,1.592
477.0,1.599
478.0,1.645
479.0,1.637
480.0,1.641
481.0,1.673
482.0,1.682
483.0,1.663
484.0,1.63
485.0,1.554
486.0,1.359
487.0,1.426
488.0,1.566
489.0,1.573
490.0,1.656
491.0,1.629
492.0,1.539
493.0,1.591
494.0,1.609
495.0,1.624
496.0,1.636
497.0,1.663
498.0,1.587
499.0,1.609
500.0,1.564
501.0,1.538
502.0,1.519
503.0,1.584
504.0,1.55
505.0,1.603
506.0,1.656
507.0,1.577
508.0,1.528
509.0,1.572
510.0,1.564
511.0,1.606
512.0,1.624
513.0,1.539
514.0,1.529
515.0,1.515
516.0,1.513
517.0,1.345
518.0,1.415
519.0,1.486
520.0,1.541
521.0,1.557
522.0,1.56
523.0,1.533
524.0,1.59
525.0,1.611
526.0,1.54
527.0,1.454
528.0,1.539
529.0,1.624
530.0,1.602
531.0,1.627
532.0,1.573
533.0,1.528
534.0,1.574
535.0,1.608
536.0,1.624
537.0,1.56
538.0,1.589
539.0,1.576
540.0,1.513
541.0,1.525
542.0,1.574
543.0,1.558
544.0,1.587
545.0,1.582
546.0,1.591
547.0,1.591
548.0,1.572
549.0,1.578
550.0,1.597
551.0,1.579
552.0,1.59
553.0,1.563
554.0,1.602
555.0,1.606
556.0,1.586
557.0,1.538
558.0,1.528
559.0,1.501
560.0,1.521
561.0,1.542
562.0,1.533
563.0,1.576
564.0,1.535
565.0,1.523
566.0,1.502
567.0,1.532
568.0,1.522
569.0,1.491
570.0,1.49
571.0,1.481
572.0,1.52
573.0,1.538
574.0,1.534
575.0,1.507
576.0,1.494
577.0,1.51
578.0,1.487
579.0,1.492
580.0,1.518
581.0,1.524
582.0,1.551
583.0,1.554
584.0,1.567
585.0,1.529
586.0,1.498
587.0,1.533
588.0,1.502
589.0,1.342
590.0,1.403
591.0,1.479
592.0,1.465
593.0,1.482
594.0,1.474
595.0,1.442
596.0,1.491
597.0,1.477
598.0,1.472
599.0,1.472
600.0,1.473
601.0,1.46
602.0,1.45
603.0,1.474
604.0,1.498
605.0,1.491
606.0,1.484
607.0,1.499
608.0,1.482
609.0,1.484
610.0,1.473
611.0,1.481
612.0,1.476
613.0,1.458
614.0,1.438
615.0,1.469
616.0,1.42
617.0,1.417
618.0,1.472
619.0,1.457
620.0,1.467
621.0,1.47
622.0,1.454
623.0,1.433
624.0,1.408
625.0,1.405
626.0,1.427
627.0,1.445
628.0,1.373
629.0,1.419
630.0,1.388
631.0,1.412
632.0,1.394
633.0,1.434
634.0,1.418
635.0,1.439
636.0,1.419
637.0,1.441
638.0,1.454
639.0,1.437
640.0,1.423
641.0,1.421
642.0,1.414
643.0,1.434
644.0,1.429
645.0,1.432
646.0,1.402
647.0,1.391
648.0,1.394
649.0,1.368
650.0,1.367
651.0,1.425
652.0,1.375
653.0,1.406
654.0,1.39
655.0,1.343
656.0,1.188
657.0,1.219
658.0,1.364
659.0,1.373
660.0,1.379
661.0,1.389
662.0,1.394
663.0,1.366
664.0,1.38
665.0,1.38
666.0,1.38
667.0,1.378
668.0,1.379
669.0,1.4
670.0,1.394
671.0,1.393
672.0,1.381
673.0,1.402
674.0,1.397
675.0,1.384
676.0,1.393
677.0,1.38
678.0,1.383
679.0,1.361
680.0,1.372
681.0,1.363
682.0,1.362
683.0,1.359
684.0,1.353
685.0,1.364
686.0,1.357
687.0,1.002
688.0,1.125
689.0,1.128
690.0,1.167
691.0,1.211
692.0,1.241
693.0,1.232
694.0,1.223
695.0,1.261
696.0,1.264
697.0,1.325
698.0,1.305
699.0,1.284
700.0,1.269
701.0,1.26
702.0,1.265
703.0,1.268
704.0,1.302
705.0,1.305
706.0,1.301
707.0,1.302
708.0,1.305
709.0,1.303
710.0,1.305
711.0,1.302
712.0,1.297
713.0,1.286
714.0,1.29
715.0,1.254
716.0,1.256
717.0,1.126
718.0,1.042
719.0,0.959
720.0,1.007
721.0,1.088
722.0,1.219
723.0,1.149
724.0,1.051
725.0,1.039
726.0,1.085
727.0,1.092
728.0,1.038
729.0,1.064
730.0,1.125
731.0,1.081
732.0,1.142
733.0,1.196
734.0,1.221
735.0,1.198
736.0,1.196
737.0,1.201
738.0,1.211
739.0,1.188
740.0,1.216
741.0,1.203
742.0,1.202
743.0,1.233
744.0,1.228
745.0,1.228
746.0,1.234
747.0,1.236
748.0,1.234
749.0,1.22
750.0,1.219
751.0,1.207
752.0,1.212
753.0,1.219
754.0,1.222
755.0,1.215
756.0,1.214
757.0,1.216
758.0,1.201
759.0,1.182
760.0,0.3057
761.0,0.1874
762.0,0.7097
763.0,0.4215
764.0,0.5734
765.0,0.7104
766.0,0.8214
767.0,0.9874
768.0,1.102
769.0,1.117
770.0,1.145
771.0,1.15
772.0,1.152
773.0,1.16
774.0,1.154
775.0,1.145
776.0,1.159
777.0,1.144
778.0,1.137
779.0,1.138
780.0,1.132
781.0,1.133
782.0,1.14
783.0,1.12
784.0,1.126
785.0,1.118
786.0,1.131
787.0,1.115
788.0,1.103
789.0,1.103
790.0,1.08
791.0,1.084
792.0,1.075
793.0,1.059
794.0,1.071
795.0,1.09
796.0,1.065
797.0,1.066
798.0,1.09
799.0,1.085
800.0,1.068
801.0,1.067
802.0,1.063
803.0,1.056
804.0,1.057
805.0,1.052
806.0,1.078
807.0,1.066
808.0,1.066
809.0,1.049
810.0,1.043
811.0,1.048
812.0,1.023
813.0,1.006
814.0,0.9037
815.0,0.8977
816.0,0.8386
817.0,0.8516
818.0,0.824
819.0,0.9047
820.0,0.8587
821.0,0.9812
822.0,0.957
823.0,0.6875
824.0,0.9369
825.0,0.9657
826.0,0.9359
827.0,0.9805
828.0,0.8517
829.0,0.9291
830.0,0.9192
831.0,0.9217
832.0,0.8973
833.0,0.9439
834.0,0.9174
835.0,0.9935
836.0,0.9599
837.0,0.9959
838.0,0.9688
839.0,0.9802
840.0,1.001
841.0,0.9883
842.0,0.9879
843.0,0.9848
844.0,0.9726
845.0,1.004
846.0,0.9988
847.0,0.9795
848.0,0.9746
849.0,0.9471
850.0,0.9072
851.0,0.9619
852.0,0.9547
853.0,0.918
854.0,0.7935
855.0,0.8707
856.0,0.9521
857.0,0.9726
858.0,0.9658
859.0,0.9663
860.0,0.9677
861.0,0.9626
862.0,0.9776
863.0,1.001
864.0,0.9507
865.0,0.9424
866.0,0.8474
867.0,0.8844
868.0,0.9624
869.0,0.9425
870.0,0.9694
871.0,0.9562
872.0,0.9529
873.0,0.951
874.0,0.9397
875.0,0.9208
876.0,0.9305
877.0,0.9399
878.0,0.9504
879.0,0.9358
880.0,0.9158
881.0,0.9027
882.0,0.9224
883.0,0.9249
884.0,0.9209
885.0,0.9279
886.0,0.8864
887.0,0.8943
888.0,0.9086
889.0,0.9172
890.0,0.9116
891.0,0.9091
892.0,0.8855
893.0,0.8613
894.0,0.8374
895.0,0.7994
896.0,0.7571
897.0,0.6618
898.0,0.7155
899.0,0.5585
900.0,0.7259
901.0,0.5847
902.0,0.6677
903.0,0.6802
904.0,0.8316
905.0,0.8067
906.0,0.758
907.0,0.6327
908.0,0.643
909.0,0.6884
910.0,0.6233
911.0,0.6557
912.0,0.682
913.0,0.6333
914.0,0.6254
915.0,0.6763
916.0,0.5773
917.0,0.7162
918.0,0.5923
919.0,0.7257
920.0,0.7261
921.0,0.7532
922.0,0.6838
923.0,0.7272
924.0,0.7014
925.0,0.6865
926.0,0.6939
927.0,0.767
928.0,0.591
929.0,0.5472
930.0,0.4425
931.0,0.4171
932.0,0.313
933.0,0.2614
934.0,0.1583
935.0,0.2617
936.0,0.1727
937.0,0.1764
938.0,0.2131
939.0,0.4044
940.0,0.4778
941.0,0.3725
942.0,0.4236
943.0,0.288
944.0,0.2952
945.0,0.3821
946.0,0.2072
947.0,0.387
948.0,0.2866
949.0,0.5053
950.0,0.1607
951.0,0.4953
952.0,0.2832
953.0,0.3546
954.0,0.4226
955.0,0.3573
956.0,0.3415
957.0,0.2853
958.0,0.4662
959.0,0.3834
960.0,0.4292
961.0,0.4719
962.0,0.4479
963.0,0.5077
964.0,0.4681
965.0,0.5048
966.0,0.507
967.0,0.5057
968.0,0.6486
969.0,0.6794
970.0,0.6283
971.0,0.7064
972.0,0.6782
973.0,0.6033
974.0,0.5747
975.0,0.5914
976.0,0.5683
977.0,0.6335
978.0,0.6074
979.0,0.6319
980.0,0.597
981.0,0.702
982.0,0.6758
983.0,0.6516
984.0,0.7183
985.0,0.6732
986.0,0.7279
987.0,0.717
988.0,0.7157
989.0,0.7239
990.0,0.7112
991.0,0.7265
992.0,0.7304
993.0,0.7174
994.0,0.7299
995.0,0.7286
996.0,0.7259
997.0,0.7267
998.0,0.7235
999.0,0.7207
1000.0,0.7164
1001.0,0.7246
1002.0,0.7078
1003.0,0.712
1004.0,0.6954
1005.0,0.6689
1006.0,0.6956
1007.0,0.71
1008.0,0.7068
1009.0,0.7037
1010.0,0.701
1011.0,0.7065
1012.0,0.701
1013.0,0.7046
1014.0,0.6997
1015.0,0.6952
1016.0,0.6922
1017.0,0.6941
1018.0,0.6911
1019.0,0.6776
1020.0,0.6877
1021.0,0.6866
1022.0,0.6817
1023.0,0.689
1024.0,0.6813
1025.0,0.6882
1026.0,0.6856
1027.0,0.6839
1028.0,0.6826
1029.0,0.6747
1030.0,0.6789
1031.0,0.6764
1032.0,0.6743
1033.0,0.6642
1034.0,0.6642
1035.0,0.6663
1036.0,0.6699
1037.0,0.659
1038.0,0.662
1039.0,0.6617
1040.0,0.6591
1041.0,0.6618
1042.0,0.6572
1043.0,0.6552
1044.0,0.6576
1045.0,0.6488
1046.0,0.6417
1047.0,0.6476
1048.0,0.6512
1049.0,0.649
1050.0,0.6461
1051.0,0.6454
1052.0,0.6429
1053.0,0.6379
1054.0,0.6395
1055.0,0.64
1056.0,0.638
1057.0,0.6362
1058.0,0.6207
1059.0,0.6216
1060.0,0.6208
1061.0,0.6202
1062.0,0.6236
1063.0,0.6176
1064.0,0.6249
1065.0,0.6208
1066.0,0.6083
1067.0,0.6163
1068.0,0.6031
1069.0,0.5843
1070.0,0.6045
1071.0,0.6128
1072.0,0.6066
1073.0,0.5977
1074.0,0.6119
1075.0,0.5846
1076.0,0.6116
1077.0,0.6026
1078.0,0.5919
1079.0,0.6014
1080.0,0.5934
1081.0,0.5759
1082.0,0.5824
1083.0,0.5835
1084.0,0.5755
1085.0,0.5945
1086.0,0.5479
1087.0,0.5615
1088.0,0.5836
1089.0,0.5688
1090.0,0.5586
1091.0,0.5826
1092.0,0.5804
1093.0,0.5019
1094.0,0.5323
1095.0,0.5214
1096.0,0.5022
1097.0,0.5669
1098.0,0.4954
1099.0,0.5152
1100.0,0.4835
1101.0,0.4882
1102.0,0.4689
1103.0,0.4663
1104.0,0.4667
1105.0,0.5044
1106.0,0.4027
1107.0,0.4824
1108.0,0.4191
1109.0,0.4179
1110.0,0.4794
1111.0,0.3391
1112.0,0.4139
1113.0,0.2781
1114.0,0.309
1115.0,0.2567
1116.0,0.214
1117.0,0.08909
1118.0,0.2293
1119.0,0.122
1120.0,0.1537
1121.0,0.1987
1122.0,0.0908
1123.0,0.1386
1124.0,0.1171
1125.0,0.1508
1126.0,0.0597
1127.0,0.1695
1128.0,0.1091
1129.0,0.1145
1130.0,0.0789
1131.0,0.3035
1132.0,0.2415
1133.0,0.1625
1134.0,0.0477
1135.0,0.01761
1136.0,0.139
1137.0,0.3008
1138.0,0.2142
1139.0,0.3018
1140.0,0.2589
1141.0,0.2035
1142.0,0.2303
1143.0,0.3197
1144.0,0.1209
1145.0,0.1565
1146.0,0.1689
1147.0,0.06702
1148.0,0.2769
1149.0,0.2267
1150.0,0.1296
1151.0,0.2127
1152.0,0.2553
1153.0,0.2441
1154.0,0.1534
1155.0,0.3151
1156.0,0.2872
1157.0,0.3173
1158.0,0.3136
1159.0,0.3337
1160.0,0.2908
1161.0,0.348
1162.0,0.3504
1163.0,0.456
1164.0,0.3976
1165.0,0.3809
1166.0,0.3743
1167.0,0.4044
1168.0,0.4101
1169.0,0.4176
1170.0,0.4488
1171.0,0.4384
1172.0,0.4435
1173.0,0.4478
1174.0,0.334
1175.0,0.4354
1176.0,0.4719
1177.0,0.4573
1178.0,0.3543
1179.0,0.4754
1180.0,0.4319
1181.0,0.4449
1182.0,0.3188
1183.0,0.4364
1184.0,0.4129
1185.0,0.4018
1186.0,0.465
1187.0,0.4464
1188.0,0.3252
1189.0,0.4168
1190.0,0.4545
1191.0,0.4374
1192.0,0.4601
1193.0,0.4431
1194.0,0.4552
1195.0,0.4347
1196.0,0.4214
1197.0,0.4531
1198.0,0.4179
1199.0,0.3651
1200.0,0.4379
1201.0,0.4256
1202.0,0.4213
1203.0,0.4179
1204.0,0.3709
1205.0,0.4282
1206.0,0.4676
1207.0,0.4211
1208.0,0.4117
1209.0,0.4194
1210.0,0.4347
1211.0,0.4177
1212.0,0.4168
1213.0,0.4543
1214.0,0.4248
1215.0,0.4177
1216.0,0.4527
1217.0,0.4426
1218.0,0.4492
1219.0,0.4446
1220.0,0.4494
1221.0,0.4529
1222.0,0.4423
1223.0,0.4389
1224.0,0.4375
1225.0,0.4501
1226.0,0.4519
1227.0,0.4217
1228.0,0.4532
1229.0,0.452
1230.0,0.4452
1231.0,0.4548
1232.0,0.4522
1233.0,0.4405
1234.0,0.4537
1235.0,0.4513
1236.0,0.4542
1237.0,0.4494
1238.0,0.4527
1239.0,0.4469
1240.0,0.4484
1241.0,0.4472
1242.0,0.4454
1243.0,0.4418
1244.0,0.4452
1245.0,0.4469
1246.0,0.4443
1247.0,0.4428
1248.0,0.443
1249.0,0.444
1250.0,0.4416
1251.0,0.4365
1252.0,0.4358
1253.0,0.4337
1254.0,0.4303
1255.0,0.4358
1256.0,0.426
1257.0,0.4241
1258.0,0.4301
1259.0,0.4183
1260.0,0.42
1261.0,0.4013
1262.0,0.3918
1263.0,0.3926
1264.0,0.3684
1265.0,0.39
1266.0,0.3788
1267.0,0.383
1268.0,0.3671
1269.0,0.2547
1270.0,0.3826
1271.0,0.3994
1272.0,0.4001
1273.0,0.3964
1274.0,0.397
1275.0,0.4018
1276.0,0.4048
1277.0,0.4064
1278.0,0.4122
1279.0,0.4087
1280.0,0.4034
1281.0,0.3841
1282.0,0.3686
1283.0,0.3973
1284.0,0.4071
1285.0,0.4096
1286.0,0.4143
1287.0,0.4094
1288.0,0.4089
1289.0,0.3989
1290.0,0.4051
1291.0,0.4102
1292.0,0.391
1293.0,0.4036
1294.0,0.4011
1295.0,0.4005
1296.0,0.386
1297.0,0.3681
1298.0,0.3904
1299.0,0.4036
1300.0,0.3517
1301.0,0.3604
1302.0,0.389
1303.0,0.346
1304.0,0.3046
1305.0,0.3818
1306.0,0.3824
1307.0,0.3078
1308.0,0.345
1309.0,0.3802
1310.0,0.3024
1311.0,0.3329
1312.0,0.3255
1313.0,0.3206
1314.0,0.2904
1315.0,0.2888
1316.0,0.3292
1317.0,0.313
1318.0,0.3363
1319.0,0.2742
1320.0,0.2632
1321.0,0.3026
1322.0,0.3073
1323.0,0.2407
1324.0,0.2688
1325.0,0.3251
1326.0,0.285
1327.0,0.2733
1328.0,0.2387
1329.0,0.1873
1330.0,0.2396
1331.0,0.1546
1332.0,0.1562
1333.0,0.2147
1334.0,0.1779
1335.0,0.2396
1336.0,0.1944
1337.0,0.1749
1338.0,0.1889
1339.0,0.1868
1340.0,0.1792
1341.0,0.1806
1342.0,0.1893
1343.0,0.1405
1344.0,0.08386
1345.0,0.1194
1346.0,0.06791
1347.0,0.07048
1348.0,0.006463
1349.0,0.02092
1350.0,0.02019
1351.0,0.006665
1352.0,0.002453
1353.0,0.0001826
1354.0,0.0005001
1355.0,8.464e-06
1356.0,9.219e-05
1357.0,0.0001385
1358.0,9.732e-06
1359.0,2.099e-06
1360.0,5.396e-06
1361.0,1.949e-08
1362.0,9.147e-11
1363.0,8.267e-06
1364.0,3.658e-06
1365.0,5.898e-11
1366.0,3.118e-05
1367.0,1.204e-05
1368.0,1.553e-12
1369.0,1.425e-06
1370.0,8.799e-07
1371.0,6.771e-08
1372.0,6.67e-06
1373.0,9.156e-05
1374.0,0.0003295
1375.0,0.0005921
1376.0,0.0004447
1377.0,0.0002169
1378.0,0.001845
1379.0,9.282e-05
1380.0,0.0001542
1381.0,4.845e-06
1382.0,6.401e-06
1383.0,1.228e-07
1384.0,1.754e-06
1385.0,4.748e-06
1386.0,6.631e-06
1387.0,0.0003887
1388.0,8.228e-06
1389.0,0.001013
1390.0,0.0008671
1391.0,0.000619
1392.0,4.52e-05
1393.0,0.0002067
1394.0,0.0001573
1395.0,1.625e-06
1396.0,2.413e-08
1397.0,9.161e-05
1398.0,0.002112
1399.0,0.001343
1400.0,1.401e-08
1401.0,3.883e-08
1402.0,0.002699
1403.0,0.00359
1404.0,0.001125
1405.0,9.623e-07
1406.0,0.003215
1407.0,0.0002744
1408.0,0.002593
1409.0,0.001049
1410.0,0.0007632
1411.0,0.003126
1412.0,0.00386
1413.0,0.02991
1414.0,0.0005905
1415.0,0.0003114
1416.0,0.04261
1417.0,0.01527
1418.0,0.01749
1419.0,0.002843
1420.0,0.01081
1421.0,0.01188
1422.0,0.05487
1423.0,0.01131
1424.0,0.02063
1425.0,0.03108
1426.0,0.03323
1427.0,0.05628
1428.0,0.006222
1429.0,0.04416
1430.0,0.07019
1431.0,0.07582
1432.0,0.004971
1433.0,0.05006
1434.0,0.02639
1435.0,0.02953
1436.0,0.05193
1437.0,0.03985
1438.0,0.01825
1439.0,0.06837
1440.0,0.05153
1441.0,0.04162
1442.0,0.0456
1443.0,0.0537
1444.0,0.07292
1445.0,0.05987
1446.0,0.02782
1447.0,0.04378
1448.0,0.1275
1449.0,0.1136
1450.0,0.03238
1451.0,0.01375
1452.0,0.07103
1453.0,0.09158
1454.0,0.1476
1455.0,0.0732
1456.0,0.09985
1457.0,0.1282
1458.0,0.1457
1459.0,0.1731
1460.0,0.09311
1461.0,0.09958
1462.0,0.1413
1463.0,0.04893
1464.0,0.163
1465.0,0.09912
1466.0,0.07439
