interpolation:linear
wavelength,value
280.0,1.581e-19
280.5,2.748e-18
281.0,1.189e-17
281.5,2.046e-16
282.0,1.135e-15
282.5,3.413e-15
283.0,1.152e-14
283.5,1.9e-14
284.0,2.586e-13
284.5,6.665e-13
285.0,1.139e-12
285.5,6.04e-12
286.0,2.437e-11
286.5,1.026e-10
287.0,2.745e-10
287.5,9.314e-10
288.0,2.872e-09
288.5,9.318e-09
289.0,2.533e-08
289.5,7.482e-08
290.0,2.009e-07
290.5,3.963e-07
291.0,8.034e-07
291.5,2.097e-06
292.0,4.404e-06
292.5,5.961e-06
293.0,1.206e-05
293.5,2.669e-05
294.0,3.952e-05
294.5,6.339e-05
295.0,9.92e-05
295.5,0.0002075
296.0,0.0003378
296.5,0.0004001
297.0,0.0004735
297.5,0.001041
298.0,0.001392
298.5,0.001235
299.0,0.002415
299.5,0.003251
300.0,0.003201
300.5,0.004139
301.0,0.006254
301.5,0.00852
302.0,0.006762
302.5,0.01207
303.0,0.01931
303.5,0.02269
304.0,0.02042
304.5,0.02709
305.0,0.03489
305.5,0.03619
306.0,0.03382
306.5,0.03964
307.0,0.05132
307.5,0.06009
308.0,0.06239
308.5,0.06946
309.0,0.06077
309.5,0.06454
310.0,0.06272
310.5,0.1001
311.0,0.1222
311.5,0.1168
312.0,0.1093
312.5,0.1274
313.0,0.1353
313.5,0.135
314.0,0.16
314.5,0.1319
315.0,0.1716
315.5,0.1495
316.0,0.1231
316.5,0.1681
317.0,0.2096
317.5,0.2222
318.0,0.1676
318.5,0.1945
319.0,0.2234
319.5,0.1935
320.0,0.2365
320.5,0.2763
321.0,0.2314
321.5,0.221
322.0,0.2533
322.5,0.2202
323.0,0.2102
323.5,0.2399
324.0,0.2785
324.5,0.29
325.0,0.2655
325.5,0.3302
326.0,0.3864
326.5,0.3774
327.0,0.3811
327.5,0.374
328.0,0.3468
328.5,0.3493
329.0,0.4051
329.5,0.4564
330.0,0.4656
330.5,0.3837
331.0,0.3956
331.5,0.3951
332.0,0.416
332.5,0.4075
333.0,0.4105
333.5,0.3804
334.0,0.392
334.5,0.4429
335.0,0.4117
335.5,0.4672
336.0,0.324
336.5,0.3952
337.0,0.3282
337.5,0.4106
338.0,0.3944
338.5,0.4449
339.0,0.4436
339.5,0.426
340.0,0.514
340.5,0.4636
341.0,0.4444
341.5,0.4122
342.0,0.4946
342.5,0.4645
343.0,0.5101
343.5,0.4799
344.0,0.361
344.5,0.3571
345.0,0.4783
345.5,0.4908
346.0,0.4187
346.5,0.4756
347.0,0.5101
347.5,0.4128
348.0,0.4733
348.5,0.475
349.0,0.4417
349.5,0.438
350.0,0.5428
350.5,0.5737
351.0,0.5129
351.5,0.4973
352.0,0.5367
352.5,0.4204
353.0,0.5309
353.5,0.5691
354.0,0.5923
354.5,0.6021
355.0,0.601
355.5,0.5439
356.0,0.5702
356.5,0.4879
357.0,0.4041
357.5,0.4958
358.0,0.3937
358.5,0.3371
359.0,0.4725
359.5,0.603
360.0,0.6406
360.5,0.5131
361.0,0.4685
361.5,0.54
362.0,0.4674
362.5,0.6475
363.0,0.5823
363.5,0.537
364.0,0.6576
364.5,0.563
365.0,0.5743
365.5,0.7219
366.0,0.7658
366.5,0.7205
367.0,0.7028
367.5,0.7305
368.0,0.6402
368.5,0.6469
369.0,0.6996
369.5,0.7468
370.0,0.7972
370.5,0.6196
371.0,0.663
371.5,0.8308
372.0,0.5523
372.5,0.6632
373.0,0.6754
373.5,0.44
374.0,0.6402
374.5,0.5308
375.0,0.5168
375.5,0.7728
376.0,0.6416
376.5,0.666
377.0,0.7059
377.5,0.827
378.0,0.8979
378.5,0.8501
379.0,0.7029
379.5,0.6432
380.0,0.6698
380.5,0.8123
381.0,0.8149
381.5,0.6466
382.0,0.5749
382.5,0.4905
383.0,0.4546
383.5,0.4384
384.0,0.4842
384.5,0.713
385.0,0.7079
385.5,0.66
386.0,0.5659
386.5,0.7441
387.0,0.6192
387.5,0.6964
388.0,0.6438
388.5,0.637
389.0,0.6886
389.5,0.8349
390.0,0.8389
390.5,0.773
391.0,0.9109
391.5,0.9303
392.0,0.7845
392.5,0.7031
393.0,0.3916
393.5,0.2849
394.0,0.5804
394.5,0.7386
395.0,0.9023
395.5,0.9178
396.0,0.7966
396.5,0.466
397.0,0.3501
397.5,0.7128
398.0,0.9996
398.5,1.034
399.0,1.121
399.5,1.118
400.0,1.163
401.0,1.196
402.0,1.264
403.0,1.202
404.0,1.186
405.0,1.188
406.0,1.17
407.0,1.153
408.0,1.201
409.0,1.287
410.0,1.126
411.0,1.222
412.0,1.314
413.0,1.284
414.0,1.301
415.0,1.306
416.0,1.33
417.0,1.3
418.0,1.278
419.0,1.297
420.0,1.293
421.0,1.355
422.0,1.289
423.0,1.261
424.0,1.336
425.0,1.335
426.0,1.302
427.0,1.279
428.0,1.248
429.0,1.183
430.0,1.036
431.0,1.029
432.0,1.329
433.0,1.338
434.0,1.245
435.0,1.302
436.0,1.468
437.0,1.448
438.0,1.32
439.0,1.368
440.0,1.413
441.0,1.465
442.0,1.573
443.0,1.535
444.0,1.57
445.0,1.538
446.0,1.468
447.0,1.588
448.0,1.616
449.0,1.622
450.0,1.669
451.0,1.733
452.0,1.671
453.0,1.573
454.0,1.643
455.0,1.655
456.0,1.695
457.0,1.726
458.0,1.67
459.0,1.662
460.0,1.669
461.0,1.709
462.0,1.723
463.0,1.713
464.0,1.684
465.0,1.663
466.0,1.68
467.0,1.652
468.0,1.673
469.0,1.684
470.0,1.632
471.0,1.631
472.0,1.72
473.0,1.7
474.0,1.706
475.0,1.723
476.0,1.676
477.0,1.683
478.0,1.731
479.0,1.721
480.0,1.724
481.0,1.756
482.0,1.765
483.0,1.743
484.0,1.708
485.0,1.628
486.0,1.423
487.0,1.492
488.0,1.638
489.0,1.646
490.0,1.732
491.0,1.702
492.0,1.609
493.0,1.662
494.0,1.68
495.0,1.696
496.0,1.707
497.0,1.735
498.0,1.655
499.0,1.678
500.0,1.632
501.0,1.604
502.0,1.585
503.0,1.653
504.0,1.62
505.0,1.673
506.0,1.728
507.0,1.645
508.0,1.593
509.0,1.637
510.0,1.628
511.0,1.671
512.0,1.69
513.0,1.6
514.0,1.59
515.0,1.575
516.0,1.572
517.0,1.397
518.0,1.47
519.0,1.543
520.0,1.601
521.0,1.617
522.0,1.62
523.0,1.592
524.0,1.651
525.0,1.673
526.0,1.6
527.0,1.51
528.0,1.599
529.0,1.687
530.0,1.664
531.0,1.69
532.0,1.633
533.0,1.586
534.0,1.634
535.0,1.669
536.0,1.685
537.0,1.619
538.0,1.648
539.0,1.635
540.0,1.568
541.0,1.582
542.0,1.633
543.0,1.615
544.0,1.645
545.0,1.641
546.0,1.65
547.0,1.649
548.0,1.629
549.0,1.634
550.0,1.654
551.0,1.635
552.0,1.647
553.0,1.618
554.0,1.658
555.0,1.663
556.0,1.642
557.0,1.592
558.0,1.582
559.0,1.554
560.0,1.575
561.0,1.597
562.0,1.588
563.0,1.633
564.0,1.591
565.0,1.578
566.0,1.557
567.0,1.588
568.0,1.579
569.0,1.549
570.0,1.548
571.0,1.537
572.0,1.58
573.0,1.598
574.0,1.594
575.0,1.567
576.0,1.553
577.0,1.57
578.0,1.545
579.0,1.548
580.0,1.573
581.0,1.578
582.0,1.606
583.0,1.607
584.0,1.62
585.0,1.58
586.0,1.548
587.0,1.585
588.0,1.556
589.0,1.397
590.0,1.46
591.0,1.535
592.0,1.522
593.0,1.537
594.0,1.53
595.0,1.499
596.0,1.544
597.0,1.531
598.0,1.523
599.0,1.523
600.0,1.522
601.0,1.507
602.0,1.497
603.0,1.521
604.0,1.546
605.0,1.538
606.0,1.531
607.0,1.545
608.0,1.527
609.0,1.529
610.0,1.517
611.0,1.524
612.0,1.52
613.0,1.5
614.0,1.479
615.0,1.511
616.0,1.46
617.0,1.457
618.0,1.513
619.0,1.498
620.0,1.508
621.0,1.511
622.0,1.495
623.0,1.473
624.0,1.447
625.0,1.444
626.0,1.466
627.0,1.486
628.0,1.426
629.0,1.465
630.0,1.433
631.0,1.453
632.0,1.434
633.0,1.472
634.0,1.454
635.0,1.475
636.0,1.454
637.0,1.476
638.0,1.488
639.0,1.47
640.0,1.455
641.0,1.453
642.0,1.445
643.0,1.465
644.0,1.459
645.0,1.463
646.0,1.433
647.0,1.427
648.0,1.43
649.0,1.403
650.0,1.397
651.0,1.455
652.0,1.41
653.0,1.436
654.0,1.419
655.0,1.374
656.0,1.213
657.0,1.245
658.0,1.392
659.0,1.4
660.0,1.406
661.0,1.415
662.0,1.421
663.0,1.392
664.0,1.405
665.0,1.404
666.0,1.404
667.0,1.402
668.0,1.401
669.0,1.422
670.0,1.416
671.0,1.415
672.0,1.403
673.0,1.424
674.0,1.418
675.0,1.405
676.0,1.414
677.0,1.4
678.0,1.404
679.0,1.381
680.0,1.392
681.0,1.383
682.0,1.381
683.0,1.379
684.0,1.372
685.0,1.384
686.0,1.376
687.0,1.082
688.0,1.185
689.0,1.187
690.0,1.218
691.0,1.252
692.0,1.274
693.0,1.267
694.0,1.258
695.0,1.291
696.0,1.293
697.0,1.346
698.0,1.326
699.0,1.311
700.0,1.296
701.0,1.287
702.0,1.29
703.0,1.293
704.0,1.325
705.0,1.327
706.0,1.322
707.0,1.322
708.0,1.325
709.0,1.321
710.0,1.324
711.0,1.321
712.0,1.314
713.0,1.303
714.0,1.308
715.0,1.273
716.0,1.276
717.0,1.169
718.0,1.087
719.0,1.005
720.0,1.056
721.0,1.125
722.0,1.243
723.0,1.181
724.0,1.09
725.0,1.082
726.0,1.126
727.0,1.129
728.0,1.081
729.0,1.099
730.0,1.16
731.0,1.119
732.0,1.173
733.0,1.218
734.0,1.241
735.0,1.219
736.0,1.217
737.0,1.223
738.0,1.227
739.0,1.204
740.0,1.231
741.0,1.216
742.0,1.215
743.0,1.245
744.0,1.24
745.0,1.239
746.0,1.245
747.0,1.247
748.0,1.245
749.0,1.231
750.0,1.23
751.0,1.218
752.0,1.223
753.0,1.229
754.0,1.232
755.0,1.225
756.0,1.225
757.0,1.227
758.0,1.212
759.0,1.195
760.0,0.4046
761.0,0.2732
762.0,0.791
763.0,0.523
764.0,0.6685
765.0,0.792
766.0,0.8823
767.0,1.029
768.0,1.125
769.0,1.134
770.0,1.158
771.0,1.161
772.0,1.161
773.0,1.169
774.0,1.163
775.0,1.154
776.0,1.168
777.0,1.152
778.0,1.145
779.0,1.147
780.0,1.14
781.0,1.141
782.0,1.148
783.0,1.128
784.0,1.134
785.0,1.126
786.0,1.139
787.0,1.125
788.0,1.115
789.0,1.115
790.0,1.095
791.0,1.096
792.0,1.087
793.0,1.07
794.0,1.078
795.0,1.099
796.0,1.079
797.0,1.08
798.0,1.1
799.0,1.095
800.0,1.079
801.0,1.079
802.0,1.076
803.0,1.069
804.0,1.069
805.0,1.062
806.0,1.086
807.0,1.075
808.0,1.075
809.0,1.059
810.0,1.054
811.0,1.061
812.0,1.04
813.0,1.025
814.0,0.9349
815.0,0.9285
816.0,0.8703
817.0,0.8815
818.0,0.8559
819.0,0.9274
820.0,0.8854
821.0,0.9955
822.0,0.9738
823.0,0.7277
824.0,0.9584
825.0,0.9811
826.0,0.9556
827.0,0.9957
828.0,0.8797
829.0,0.9476
830.0,0.9392
831.0,0.9409
832.0,0.9188
833.0,0.9583
834.0,0.9361
835.0,1.004
836.0,0.976
837.0,1.006
838.0,0.9808
839.0,0.9893
840.0,1.009
841.0,0.998
842.0,0.9959
843.0,0.991
844.0,0.9797
845.0,1.009
846.0,1.004
847.0,0.9844
848.0,0.9803
849.0,0.9526
850.0,0.9124
851.0,0.9682
852.0,0.9605
853.0,0.923
854.0,0.7984
855.0,0.8752
856.0,0.9574
857.0,0.9774
858.0,0.9709
859.0,0.9709
860.0,0.9721
861.0,0.9671
862.0,0.982
863.0,1.005
864.0,0.955
865.0,0.9465
866.0,0.8511
867.0,0.8882
868.0,0.9665
869.0,0.9465
870.0,0.9734
871.0,0.9603
872.0,0.9568
873.0,0.9549
874.0,0.9436
875.0,0.9246
876.0,0.9344
877.0,0.9438
878.0,0.9544
879.0,0.9397
880.0,0.9196
881.0,0.9068
882.0,0.9268
883.0,0.9289
884.0,0.925
885.0,0.932
886.0,0.8917
887.0,0.8986
888.0,0.9137
889.0,0.921
890.0,0.917
891.0,0.9136
892.0,0.8917
893.0,0.8701
894.0,0.8506
895.0,0.8182
896.0,0.7789
897.0,0.6905
898.0,0.7405
899.0,0.5908
900.0,0.7459
901.0,0.6171
902.0,0.6894
903.0,0.7069
904.0,0.8447
905.0,0.8224
906.0,0.7755
907.0,0.6612
908.0,0.6704
909.0,0.7104
910.0,0.6554
911.0,0.683
912.0,0.7068
913.0,0.6664
914.0,0.6564
915.0,0.7068
916.0,0.6092
917.0,0.7403
918.0,0.6248
919.0,0.7478
920.0,0.7432
921.0,0.7683
922.0,0.7064
923.0,0.7415
924.0,0.7241
925.0,0.7096
926.0,0.7166
927.0,0.7836
928.0,0.6284
929.0,0.5883
930.0,0.4874
931.0,0.4571
932.0,0.3542
933.0,0.3031
934.0,0.1983
935.0,0.2976
936.0,0.2057
937.0,0.212
938.0,0.2522
939.0,0.4431
940.0,0.5158
941.0,0.4132
942.0,0.4621
943.0,0.3235
944.0,0.3246
945.0,0.4223
946.0,0.2417
947.0,0.4305
948.0,0.3219
949.0,0.5491
950.0,0.1972
951.0,0.5364
952.0,0.3245
953.0,0.3954
954.0,0.4592
955.0,0.3969
956.0,0.3769
957.0,0.3288
958.0,0.4953
959.0,0.4199
960.0,0.469
961.0,0.5068
962.0,0.4828
963.0,0.5389
964.0,0.5001
965.0,0.5344
966.0,0.5391
967.0,0.5381
968.0,0.6646
969.0,0.6966
970.0,0.6488
971.0,0.7179
972.0,0.6915
973.0,0.6267
974.0,0.5993
975.0,0.6119
976.0,0.5936
977.0,0.6506
978.0,0.6285
979.0,0.6498
980.0,0.617
981.0,0.7127
982.0,0.6901
983.0,0.668
984.0,0.725
985.0,0.6872
986.0,0.7322
987.0,0.7235
988.0,0.7224
989.0,0.7266
990.0,0.7173
991.0,0.7295
992.0,0.7331
993.0,0.7225
994.0,0.7323
995.0,0.7306
996.0,0.7283
997.0,0.7289
998.0,0.7259
999.0,0.723
1000.0,0.7193
1001.0,0.7268
1002.0,0.7125
1003.0,0.7143
1004.0,0.6983
1005.0,0.6707
1006.0,0.698
1007.0,0.7123
1008.0,0.7095
1009.0,0.7069
1010.0,0.7045
1011.0,0.7086
1012.0,0.7036
1013.0,0.7066
1014.0,0.7017
1015.0,0.6972
1016.0,0.6942
1017.0,0.6962
1018.0,0.6929
1019.0,0.6803
1020.0,0.6897
1021.0,0.6883
1022.0,0.6838
1023.0,0.6912
1024.0,0.6845
1025.0,0.69
1026.0,0.6877
1027.0,0.686
1028.0,0.6848
1029.0,0.6769
1030.0,0.6807
1031.0,0.6784
1032.0,0.6762
1033.0,0.666
1034.0,0.666
1035.0,0.6681
1036.0,0.6718
1037.0,0.6608
1038.0,0.6638
1039.0,0.6636
1040.0,0.661
1041.0,0.6638
1042.0,0.6592
1043.0,0.6573
1044.0,0.6597
1045.0,0.6509
1046.0,0.6439
1047.0,0.6498
1048.0,0.6536
1049.0,0.6514
1050.0,0.6486
1051.0,0.648
1052.0,0.6455
1053.0,0.6407
1054.0,0.6423
1055.0,0.6431
1056.0,0.6412
1057.0,0.6395
1058.0,0.6241
1059.0,0.6251
1060.0,0.6243
1061.0,0.6238
1062.0,0.6274
1063.0,0.6215
1064.0,0.6288
1065.0,0.6251
1066.0,0.6121
1067.0,0.6203
1068.0,0.6073
1069.0,0.5881
1070.0,0.6087
1071.0,0.6162
1072.0,0.6106
1073.0,0.6015
1074.0,0.6149
1075.0,0.5902
1076.0,0.6148
1077.0,0.6073
1078.0,0.597
1079.0,0.604
1080.0,0.5981
1081.0,0.5817
1082.0,0.5859
1083.0,0.5865
1084.0,0.5822
1085.0,0.5988
1086.0,0.5569
1087.0,0.5668
1088.0,0.5871
1089.0,0.5748
1090.0,0.5667
1091.0,0.5868
1092.0,0.584
1093.0,0.5139
1094.0,0.5366
1095.0,0.5321
1096.0,0.5153
1097.0,0.5702
1098.0,0.5089
1099.0,0.5279
1100.0,0.4998
1101.0,0.5033
1102.0,0.4857
1103.0,0.4849
1104.0,0.485
1105.0,0.5177
1106.0,0.4291
1107.0,0.4982
1108.0,0.4425
1109.0,0.4395
1110.0,0.496
1111.0,0.3646
1112.0,0.4346
1113.0,0.3068
1114.0,0.3385
1115.0,0.2816
1116.0,0.2443
1117.0,0.1136
1118.0,0.2576
1119.0,0.146
1120.0,0.1832
1121.0,0.2311
1122.0,0.1134
1123.0,0.1652
1124.0,0.1397
1125.0,0.1779
1126.0,0.07835
1127.0,0.1992
1128.0,0.1365
1129.0,0.1417
1130.0,0.1025
1131.0,0.3379
1132.0,0.2728
1133.0,0.1935
1134.0,0.0645
1135.0,0.02373
1136.0,0.1688
1137.0,0.3369
1138.0,0.2432
1139.0,0.3258
1140.0,0.2863
1141.0,0.2311
1142.0,0.2576
1143.0,0.3503
1144.0,0.1428
1145.0,0.1858
1146.0,0.2006
1147.0,0.08833
1148.0,0.3036
1149.0,0.2544
1150.0,0.1536
1151.0,0.2416
1152.0,0.2836
1153.0,0.2664
1154.0,0.185
1155.0,0.3404
1156.0,0.3134
1157.0,0.3425
1158.0,0.338
1159.0,0.355
1160.0,0.3158
1161.0,0.368
1162.0,0.3712
1163.0,0.4675
1164.0,0.4137
1165.0,0.4012
1166.0,0.3914
1167.0,0.4198
1168.0,0.4264
1169.0,0.432
1170.0,0.4602
1171.0,0.4506
1172.0,0.4536
1173.0,0.4592
1174.0,0.3554
1175.0,0.4451
1176.0,0.4771
1177.0,0.4656
1178.0,0.3707
1179.0,0.4804
1180.0,0.4426
1181.0,0.455
1182.0,0.3367
1183.0,0.4448
1184.0,0.4244
1185.0,0.4157
1186.0,0.4718
1187.0,0.4557
1188.0,0.3436
1189.0,0.4263
1190.0,0.4613
1191.0,0.4482
1192.0,0.4664
1193.0,0.451
1194.0,0.462
1195.0,0.4442
1196.0,0.4327
1197.0,0.458
1198.0,0.4255
1199.0,0.3792
1200.0,0.4459
1201.0,0.4358
1202.0,0.4303
1203.0,0.4264
1204.0,0.3834
1205.0,0.4352
1206.0,0.4708
1207.0,0.4306
1208.0,0.4188
1209.0,0.4261
1210.0,0.44
1211.0,0.4258
1212.0,0.4273
1213.0,0.4588
1214.0,0.4339
1215.0,0.4276
1216.0,0.4571
1217.0,0.4483
1218.0,0.4537
1219.0,0.4495
1220.0,0.4537
1221.0,0.4564
1222.0,0.4467
1223.0,0.4438
1224.0,0.4432
1225.0,0.4536
1226.0,0.4547
1227.0,0.4278
1228.0,0.4553
1229.0,0.4547
1230.0,0.4485
1231.0,0.4562
1232.0,0.4536
1233.0,0.4444
1234.0,0.4545
1235.0,0.4525
1236.0,0.4551
1237.0,0.4512
1238.0,0.4535
1239.0,0.4478
1240.0,0.4492
1241.0,0.4486
1242.0,0.4462
1243.0,0.4425
1244.0,0.4462
1245.0,0.4478
1246.0,0.4451
1247.0,0.4438
1248.0,0.4443
1249.0,0.445
1250.0,0.4428
1251.0,0.4381
1252.0,0.4369
1253.0,0.4356
1254.0,0.4329
1255.0,0.4371
1256.0,0.4289
1257.0,0.4273
1258.0,0.4321
1259.0,0.4228
1260.0,0.4242
1261.0,0.4085
1262.0,0.4005
1263.0,0.4015
1264.0,0.3808
1265.0,0.3988
1266.0,0.3897
1267.0,0.3924
1268.0,0.3788
1269.0,0.2832
1270.0,0.3926
1271.0,0.4061
1272.0,0.4065
1273.0,0.4031
1274.0,0.4032
1275.0,0.4075
1276.0,0.4099
1277.0,0.4109
1278.0,0.4154
1279.0,0.4119
1280.0,0.4065
1281.0,0.3865
1282.0,0.3699
1283.0,0.3989
1284.0,0.409
1285.0,0.4113
1286.0,0.4154
1287.0,0.4116
1288.0,0.4108
1289.0,0.4028
1290.0,0.4068
1291.0,0.4116
1292.0,0.3962
1293.0,0.406
1294.0,0.4037
1295.0,0.4039
1296.0,0.3919
1297.0,0.3759
1298.0,0.3946
1299.0,0.4056
1300.0,0.3611
1301.0,0.3684
1302.0,0.3929
1303.0,0.3544
1304.0,0.3193
1305.0,0.3864
1306.0,0.3872
1307.0,0.3205
1308.0,0.3525
1309.0,0.3853
1310.0,0.3151
1311.0,0.3417
1312.0,0.3352
1313.0,0.3312
1314.0,0.3028
1315.0,0.3025
1316.0,0.339
1317.0,0.3231
1318.0,0.3441
1319.0,0.2898
1320.0,0.2763
1321.0,0.3145
1322.0,0.3203
1323.0,0.2587
1324.0,0.2842
1325.0,0.3349
1326.0,0.2986
1327.0,0.2877
1328.0,0.2538
1329.0,0.2057
1330.0,0.2595
1331.0,0.1765
1332.0,0.1753
1333.0,0.2378
1334.0,0.1951
1335.0,0.2572
1336.0,0.2128
1337.0,0.1949
1338.0,0.2093
1339.0,0.2061
1340.0,0.1959
1341.0,0.2017
1342.0,0.2112
1343.0,0.1679
1344.0,0.1011
1345.0,0.141
1346.0,0.08889
1347.0,0.09334
1348.0,0.01142
1349.0,0.03355
1350.0,0.03035
1351.0,0.01279
1352.0,0.005795
1353.0,0.0005975
1354.0,0.001376
1355.0,4.15e-05
1356.0,0.000313
1357.0,0.0004618
1358.0,4.665e-05
1359.0,1.476e-05
1360.0,2.97e-05
1361.0,2.624e-07
1362.0,1.976e-09
1363.0,4.665e-05
1364.0,2.295e-05
1365.0,1.915e-09
1366.0,0.0001568
1367.0,6.15e-05
1368.0,1.205e-10
1369.0,9.398e-06
1370.0,6.778e-06
1371.0,6.756e-07
1372.0,3.472e-05
1373.0,0.0003478
1374.0,0.001028
1375.0,0.001763
1376.0,0.001215
1377.0,0.0006281
1378.0,0.004589
1379.0,0.0002767
1380.0,0.0004996
1381.0,1.9e-05
1382.0,3.469e-05
1383.0,8.516e-07
1384.0,1.214e-05
1385.0,2.207e-05
1386.0,3.95e-05
1387.0,0.001281
1388.0,3.162e-05
1389.0,0.002802
1390.0,0.002356
1391.0,0.001807
1392.0,0.0001514
1393.0,0.0006074
1394.0,0.0005957
1395.0,8.57e-06
1396.0,2.924e-07
1397.0,0.000294
1398.0,0.005249
1399.0,0.003397
1400.0,2.079e-07
1401.0,4.325e-07
1402.0,0.005486
1403.0,0.007519
1404.0,0.002416
1405.0,5.843e-06
1406.0,0.007187
1407.0,0.0006415
1408.0,0.005785
1409.0,0.002672
1410.0,0.00189
1411.0,0.006525
1412.0,0.007556
1413.0,0.04544
1414.0,0.001451
1415.0,0.0008269
1416.0,0.05859
1417.0,0.0247
1418.0,0.02761
1419.0,0.004738
1420.0,0.01729
1421.0,0.01981
1422.0,0.07383
1423.0,0.01653
1424.0,0.02921
1425.0,0.04449
1426.0,0.04531
1427.0,0.07062
1428.0,0.01115
1429.0,0.05792
1430.0,0.08642
1431.0,0.09182
1432.0,0.009053
1433.0,0.06318
1434.0,0.03464
1435.0,0.04276
1436.0,0.06879
1437.0,0.05327
1438.0,0.02645
1439.0,0.08738
1440.0,0.06672
1441.0,0.05689
1442.0,0.06095
1443.0,0.06751
1444.0,0.09062
1445.0,0.07758
1446.0,0.03707
1447.0,0.05895
1448.0,0.1467
1449.0,0.1346
1450.0,0.04373
1451.0,0.01981
1452.0,0.08751
1453.0,0.1103
1454.0,0.1664
1455.0,0.08729
1456.0,0.1209
1457.0,0.1478
1458.0,0.1613
1459.0,0.1926
1460.0,0.1079
1461.0,0.1178
1462.0,0.1617
1463.0,0.06096
1464.0,0.1809
1465.0,0.1112
1466.0,0.09141
1467.0,0.05559
1468.0,0.1038
1469.0,0.1231
1470.0,0.07254
1471.0,0.02937
