interpolation:linear
wavelength,value
280.0,3.0410000000000003e-20
280.5,5.868e-19
281.0,2.637e-18
281.5,5.024e-17
282.0,2.964e-16
282.5,9.291e-16
283.0,3.281e-15
283.5,5.537e-15
284.0,8.378e-14
284.5,2.266e-13
285.0,4.082e-13
285.5,2.301e-12
286.0,9.517e-12
286.5,4.215e-11
287.0,1.171e-10
287.5,4.176e-10
288.0,1.37e-09
288.5,4.595e-09
289.0,1.293e-08
289.5,3.964e-08
290.0,1.097e-07
290.5,2.221e-07
291.0,4.645e-07
291.5,1.261e-06
292.0,2.734e-06
292.5,3.768e-06
293.0,7.802e-06
293.5,1.782e-05
294.0,2.696e-05
294.5,4.394e-05
295.0,7.016e-05
295.5,0.0001505
296.0,0.0002491
296.5,0.0002999
297.0,0.0003596
297.5,0.0008053
298.0,0.001092
298.5,0.0009798
299.0,0.001934
299.5,0.002647
300.0,0.002628
300.5,0.003426
301.0,0.00524
301.5,0.007208
302.0,0.005748
302.5,0.01034
303.0,0.01672
303.5,0.01976
304.0,0.01784
304.5,0.02382
305.0,0.03095
305.5,0.03228
306.0,0.03023
306.5,0.03555
307.0,0.04632
307.5,0.05456
308.0,0.05671
308.5,0.06333
309.0,0.05553
309.5,0.05934
310.0,0.05783
310.5,0.09245
311.0,0.1131
311.5,0.1082
312.0,0.1018
312.5,0.1189
313.0,0.1265
313.5,0.1261
314.0,0.1499
314.5,0.1241
315.0,0.1616
315.5,0.1406
316.0,0.1161
316.5,0.159
317.0,0.1983
317.5,0.2102
318.0,0.1588
318.5,0.1849
319.0,0.2127
319.5,0.1838
320.0,0.2247
320.5,0.2633
321.0,0.221
321.5,0.2113
322.0,0.2415
322.5,0.2101
323.0,0.2009
323.5,0.23
324.0,0.2671
324.5,0.2779
325.0,0.2541
325.5,0.3165
326.0,0.371
326.5,0.3628
327.0,0.3663
327.5,0.3594
328.0,0.3329
328.5,0.3359
329.0,0.3901
329.5,0.4398
330.0,0.4486
330.5,0.3695
331.0,0.3809
331.5,0.3808
332.0,0.4014
332.5,0.3934
333.0,0.3963
333.5,0.3671
334.0,0.3783
334.5,0.4278
335.0,0.3979
335.5,0.4517
336.0,0.3133
336.5,0.3821
337.0,0.3173
337.5,0.3971
338.0,0.3817
338.5,0.4307
339.0,0.4295
339.5,0.4126
340.0,0.4978
340.5,0.4491
341.0,0.4306
341.5,0.3996
342.0,0.4796
342.5,0.4505
343.0,0.4947
343.5,0.4655
344.0,0.3501
344.5,0.3465
345.0,0.4642
345.5,0.4764
346.0,0.4066
346.5,0.4619
347.0,0.4955
347.5,0.401
348.0,0.4599
348.5,0.4617
349.0,0.4294
349.5,0.4258
350.0,0.5279
350.5,0.558
351.0,0.4989
351.5,0.4837
352.0,0.5222
352.5,0.4091
353.0,0.5168
353.5,0.5541
354.0,0.5767
354.5,0.5863
355.0,0.5853
355.5,0.5298
356.0,0.5555
356.5,0.4754
357.0,0.3938
357.5,0.4832
358.0,0.3838
358.5,0.3287
359.0,0.4607
359.5,0.588
360.0,0.6247
360.5,0.5004
361.0,0.457
361.5,0.5269
362.0,0.4561
362.5,0.632
363.0,0.5684
363.5,0.5243
364.0,0.6422
364.5,0.5498
365.0,0.561
365.5,0.7053
366.0,0.7483
366.5,0.7041
367.0,0.6869
367.5,0.7141
368.0,0.6259
368.5,0.6325
369.0,0.6841
369.5,0.7304
370.0,0.7798
370.5,0.6061
371.0,0.6486
371.5,0.8129
372.0,0.5405
372.5,0.649
373.0,0.661
373.5,0.4307
374.0,0.6268
374.5,0.5198
375.0,0.5061
375.5,0.7569
376.0,0.6284
376.5,0.6524
377.0,0.6916
377.5,0.8103
378.0,0.8798
378.5,0.8331
379.0,0.6888
379.5,0.6304
380.0,0.6566
380.5,0.7963
381.0,0.7989
381.5,0.6341
382.0,0.5638
382.5,0.4811
383.0,0.446
383.5,0.4301
384.0,0.4751
384.5,0.6997
385.0,0.6947
385.5,0.6477
386.0,0.5555
386.5,0.7305
387.0,0.6079
387.5,0.6838
388.0,0.6322
388.5,0.6256
389.0,0.6763
389.5,0.8201
390.0,0.8241
390.5,0.7594
391.0,0.895
391.5,0.9141
392.0,0.771
392.5,0.691
393.0,0.3849
393.5,0.2801
394.0,0.5706
394.5,0.7262
395.0,0.8872
395.5,0.9025
396.0,0.7834
396.5,0.4583
397.0,0.3443
397.5,0.7012
398.0,0.9833
398.5,1.018
399.0,1.103
399.5,1.1
400.0,1.144
401.0,1.177
402.0,1.244
403.0,1.184
404.0,1.168
405.0,1.17
406.0,1.153
407.0,1.136
408.0,1.183
409.0,1.269
410.0,1.11
411.0,1.204
412.0,1.295
413.0,1.266
414.0,1.283
415.0,1.288
416.0,1.312
417.0,1.283
418.0,1.261
419.0,1.28
420.0,1.276
421.0,1.337
422.0,1.273
423.0,1.245
424.0,1.319
425.0,1.319
426.0,1.286
427.0,1.263
428.0,1.233
429.0,1.168
430.0,1.024
431.0,1.017
432.0,1.314
433.0,1.323
434.0,1.23
435.0,1.287
436.0,1.451
437.0,1.432
438.0,1.305
439.0,1.353
440.0,1.398
441.0,1.449
442.0,1.556
443.0,1.519
444.0,1.553
445.0,1.522
446.0,1.453
447.0,1.572
448.0,1.6
449.0,1.606
450.0,1.652
451.0,1.716
452.0,1.655
453.0,1.558
454.0,1.627
455.0,1.639
456.0,1.68
457.0,1.71
458.0,1.654
459.0,1.647
460.0,1.654
461.0,1.693
462.0,1.707
463.0,1.698
464.0,1.67
465.0,1.649
466.0,1.665
467.0,1.638
468.0,1.659
469.0,1.669
470.0,1.618
471.0,1.617
472.0,1.706
473.0,1.686
474.0,1.691
475.0,1.709
476.0,1.662
477.0,1.669
478.0,1.717
479.0,1.707
480.0,1.71
481.0,1.742
482.0,1.751
483.0,1.73
484.0,1.695
485.0,1.616
486.0,1.413
487.0,1.481
488.0,1.626
489.0,1.634
490.0,1.719
491.0,1.69
492.0,1.597
493.0,1.651
494.0,1.668
495.0,1.684
496.0,1.695
497.0,1.723
498.0,1.644
499.0,1.667
500.0,1.62
501.0,1.593
502.0,1.574
503.0,1.642
504.0,1.608
505.0,1.661
506.0,1.716
507.0,1.634
508.0,1.582
509.0,1.626
510.0,1.617
511.0,1.661
512.0,1.679
513.0,1.59
514.0,1.58
515.0,1.565
516.0,1.562
517.0,1.389
518.0,1.461
519.0,1.534
520.0,1.591
521.0,1.607
522.0,1.61
523.0,1.582
524.0,1.641
525.0,1.663
526.0,1.59
527.0,1.5
528.0,1.589
529.0,1.677
530.0,1.654
531.0,1.68
532.0,1.623
533.0,1.577
534.0,1.624
535.0,1.659
536.0,1.675
537.0,1.609
538.0,1.638
539.0,1.625
540.0,1.559
541.0,1.572
542.0,1.623
543.0,1.605
544.0,1.636
545.0,1.631
546.0,1.64
547.0,1.639
548.0,1.62
549.0,1.625
550.0,1.645
551.0,1.625
552.0,1.637
553.0,1.609
554.0,1.649
555.0,1.653
556.0,1.633
557.0,1.583
558.0,1.573
559.0,1.546
560.0,1.566
561.0,1.588
562.0,1.579
563.0,1.624
564.0,1.581
565.0,1.569
566.0,1.548
567.0,1.579
568.0,1.569
569.0,1.539
570.0,1.538
571.0,1.528
572.0,1.57
573.0,1.588
574.0,1.584
575.0,1.557
576.0,1.543
577.0,1.56
578.0,1.535
579.0,1.539
580.0,1.564
581.0,1.569
582.0,1.597
583.0,1.599
584.0,1.611
585.0,1.571
586.0,1.54
587.0,1.576
588.0,1.547
589.0,1.388
590.0,1.45
591.0,1.525
592.0,1.512
593.0,1.528
594.0,1.521
595.0,1.489
596.0,1.535
597.0,1.522
598.0,1.515
599.0,1.515
600.0,1.514
601.0,1.5
602.0,1.489
603.0,1.513
604.0,1.538
605.0,1.53
606.0,1.523
607.0,1.537
608.0,1.519
609.0,1.521
610.0,1.51
611.0,1.517
612.0,1.512
613.0,1.493
614.0,1.472
615.0,1.504
616.0,1.454
617.0,1.45
618.0,1.506
619.0,1.491
620.0,1.501
621.0,1.504
622.0,1.488
623.0,1.467
624.0,1.441
625.0,1.438
626.0,1.46
627.0,1.479
628.0,1.417
629.0,1.457
630.0,1.425
631.0,1.446
632.0,1.427
633.0,1.466
634.0,1.448
635.0,1.469
636.0,1.448
637.0,1.471
638.0,1.482
639.0,1.465
640.0,1.45
641.0,1.448
642.0,1.44
643.0,1.46
644.0,1.454
645.0,1.458
646.0,1.428
647.0,1.421
648.0,1.424
649.0,1.397
650.0,1.392
651.0,1.45
652.0,1.404
653.0,1.431
654.0,1.414
655.0,1.369
656.0,1.209
657.0,1.241
658.0,1.387
659.0,1.396
660.0,1.401
661.0,1.411
662.0,1.417
663.0,1.388
664.0,1.401
665.0,1.4
666.0,1.4
667.0,1.398
668.0,1.398
669.0,1.419
670.0,1.412
671.0,1.412
672.0,1.399
673.0,1.42
674.0,1.415
675.0,1.401
676.0,1.411
677.0,1.397
678.0,1.4
679.0,1.378
680.0,1.389
681.0,1.38
682.0,1.378
683.0,1.376
684.0,1.369
685.0,1.381
686.0,1.373
687.0,1.069
688.0,1.175
689.0,1.177
690.0,1.209
691.0,1.245
692.0,1.269
693.0,1.261
694.0,1.252
695.0,1.286
696.0,1.288
697.0,1.342
698.0,1.322
699.0,1.307
700.0,1.291
701.0,1.283
702.0,1.286
703.0,1.289
704.0,1.321
705.0,1.323
706.0,1.319
707.0,1.318
708.0,1.322
709.0,1.318
710.0,1.321
711.0,1.318
712.0,1.311
713.0,1.301
714.0,1.305
715.0,1.27
716.0,1.272
717.0,1.162
718.0,1.08
719.0,0.9968
720.0,1.047
721.0,1.119
722.0,1.239
723.0,1.175
724.0,1.083
725.0,1.074
726.0,1.119
727.0,1.122
728.0,1.074
729.0,1.093
730.0,1.154
731.0,1.113
732.0,1.168
733.0,1.215
734.0,1.238
735.0,1.215
736.0,1.213
737.0,1.219
738.0,1.225
739.0,1.201
740.0,1.228
741.0,1.214
742.0,1.213
743.0,1.243
744.0,1.238
745.0,1.237
746.0,1.243
747.0,1.246
748.0,1.243
749.0,1.229
750.0,1.228
751.0,1.216
752.0,1.221
753.0,1.227
754.0,1.23
755.0,1.223
756.0,1.223
757.0,1.225
758.0,1.21
759.0,1.193
760.0,0.3865
761.0,0.2569
762.0,0.7771
763.0,0.5049
764.0,0.6519
765.0,0.7781
766.0,0.872
767.0,1.022
768.0,1.121
769.0,1.132
770.0,1.156
771.0,1.159
772.0,1.159
773.0,1.167
774.0,1.161
775.0,1.152
776.0,1.166
777.0,1.151
778.0,1.144
779.0,1.145
780.0,1.139
781.0,1.14
782.0,1.147
783.0,1.127
784.0,1.132
785.0,1.125
786.0,1.138
787.0,1.124
788.0,1.113
789.0,1.113
790.0,1.093
791.0,1.094
792.0,1.085
793.0,1.068
794.0,1.077
795.0,1.098
796.0,1.076
797.0,1.078
798.0,1.098
799.0,1.094
800.0,1.078
801.0,1.077
802.0,1.074
803.0,1.067
804.0,1.067
805.0,1.061
806.0,1.085
807.0,1.073
808.0,1.074
809.0,1.058
810.0,1.052
811.0,1.059
812.0,1.038
813.0,1.022
814.0,0.9296
815.0,0.9233
816.0,0.8648
817.0,0.8763
818.0,0.8504
819.0,0.9236
820.0,0.8808
821.0,0.9931
822.0,0.971
823.0,0.7206
824.0,0.9547
825.0,0.9785
826.0,0.9522
827.0,0.9932
828.0,0.8749
829.0,0.9444
830.0,0.9357
831.0,0.9377
832.0,0.9151
833.0,0.9559
834.0,0.933
835.0,1.002
836.0,0.9733
837.0,1.004
838.0,0.9788
839.0,0.9878
840.0,1.008
841.0,0.9964
842.0,0.9946
843.0,0.9899
844.0,0.9786
845.0,1.008
846.0,1.004
847.0,0.9836
848.0,0.9794
849.0,0.9517
850.0,0.9116
851.0,0.9672
852.0,0.9596
853.0,0.9222
854.0,0.7976
855.0,0.8745
856.0,0.9565
857.0,0.9767
858.0,0.97
859.0,0.9702
860.0,0.9714
861.0,0.9664
862.0,0.9813
863.0,1.005
864.0,0.9543
865.0,0.9459
866.0,0.8505
867.0,0.8876
868.0,0.9659
869.0,0.9458
870.0,0.9728
871.0,0.9596
872.0,0.9562
873.0,0.9543
874.0,0.943
875.0,0.924
876.0,0.9338
877.0,0.9431
878.0,0.9538
879.0,0.9391
880.0,0.919
881.0,0.9061
882.0,0.9261
883.0,0.9282
884.0,0.9243
885.0,0.9314
886.0,0.8908
887.0,0.8979
888.0,0.9129
889.0,0.9204
890.0,0.9161
891.0,0.9129
892.0,0.8907
893.0,0.8687
894.0,0.8484
895.0,0.815
896.0,0.7751
897.0,0.6855
898.0,0.7362
899.0,0.5851
900.0,0.7425
901.0,0.6115
902.0,0.6857
903.0,0.7023
904.0,0.8425
905.0,0.8198
906.0,0.7725
907.0,0.6562
908.0,0.6657
909.0,0.7066
910.0,0.6499
911.0,0.6783
912.0,0.7025
913.0,0.6606
914.0,0.651
915.0,0.7016
916.0,0.6036
917.0,0.7363
918.0,0.6191
919.0,0.744
920.0,0.7403
921.0,0.7658
922.0,0.7025
923.0,0.7391
924.0,0.7203
925.0,0.7057
926.0,0.7128
927.0,0.7809
928.0,0.622
929.0,0.5812
930.0,0.4795
931.0,0.4501
932.0,0.3469
933.0,0.2956
934.0,0.1909
935.0,0.2912
936.0,0.1997
937.0,0.2055
938.0,0.2451
939.0,0.4363
940.0,0.5092
941.0,0.406
942.0,0.4554
943.0,0.3172
944.0,0.3194
945.0,0.4152
946.0,0.2354
947.0,0.4228
948.0,0.3155
949.0,0.5415
950.0,0.1904
951.0,0.5293
952.0,0.3171
953.0,0.3881
954.0,0.4528
955.0,0.3899
956.0,0.3705
957.0,0.3209
958.0,0.4902
959.0,0.4134
960.0,0.462
961.0,0.5007
962.0,0.4766
963.0,0.5334
964.0,0.4945
965.0,0.5292
966.0,0.5335
967.0,0.5325
968.0,0.6618
969.0,0.6937
970.0,0.6453
971.0,0.7159
972.0,0.6892
973.0,0.6227
974.0,0.595
975.0,0.6083
976.0,0.5893
977.0,0.6477
978.0,0.6249
979.0,0.6468
980.0,0.6135
981.0,0.7109
982.0,0.6877
983.0,0.6653
984.0,0.7239
985.0,0.6849
986.0,0.7315
987.0,0.7224
988.0,0.7213
989.0,0.7262
990.0,0.7163
991.0,0.729
992.0,0.7327
993.0,0.7217
994.0,0.7319
995.0,0.7303
996.0,0.7279
997.0,0.7286
998.0,0.7255
999.0,0.7226
1000.0,0.7189
1001.0,0.7264
1002.0,0.7117
1003.0,0.7139
1004.0,0.6979
1005.0,0.6704
1006.0,0.6976
1007.0,0.7119
1008.0,0.709
1009.0,0.7063
1010.0,0.7039
1011.0,0.7082
1012.0,0.7032
1013.0,0.7063
1014.0,0.7013
1015.0,0.6969
1016.0,0.6939
1017.0,0.6959
1018.0,0.6926
1019.0,0.6799
1020.0,0.6893
1021.0,0.6881
1022.0,0.6835
1023.0,0.6909
1024.0,0.684
1025.0,0.6897
1026.0,0.6873
1027.0,0.6857
1028.0,0.6844
1029.0,0.6765
1030.0,0.6804
1031.0,0.678
1032.0,0.6759
1033.0,0.6657
1034.0,0.6657
1035.0,0.6678
1036.0,0.6715
1037.0,0.6605
1038.0,0.6635
1039.0,0.6633
1040.0,0.6607
1041.0,0.6635
1042.0,0.6589
1043.0,0.657
1044.0,0.6594
1045.0,0.6506
1046.0,0.6435
1047.0,0.6495
1048.0,0.6532
1049.0,0.651
1050.0,0.6482
1051.0,0.6475
1052.0,0.6451
1053.0,0.6402
1054.0,0.6419
1055.0,0.6426
1056.0,0.6407
1057.0,0.6389
1058.0,0.6235
1059.0,0.6245
1060.0,0.6237
1061.0,0.6232
1062.0,0.6268
1063.0,0.6209
1064.0,0.6281
1065.0,0.6244
1066.0,0.6115
1067.0,0.6196
1068.0,0.6066
1069.0,0.5875
1070.0,0.608
1071.0,0.6156
1072.0,0.61
1073.0,0.6009
1074.0,0.6144
1075.0,0.5893
1076.0,0.6142
1077.0,0.6065
1078.0,0.5962
1079.0,0.6036
1080.0,0.5974
1081.0,0.5807
1082.0,0.5853
1083.0,0.586
1084.0,0.5811
1085.0,0.5981
1086.0,0.5554
1087.0,0.5659
1088.0,0.5865
1089.0,0.5738
1090.0,0.5653
1091.0,0.5861
1092.0,0.5834
1093.0,0.5118
1094.0,0.5358
1095.0,0.5303
1096.0,0.5131
1097.0,0.5696
1098.0,0.5067
1099.0,0.5257
1100.0,0.497
1101.0,0.5007
1102.0,0.4829
1103.0,0.4817
1104.0,0.4819
1105.0,0.5155
1106.0,0.4245
1107.0,0.4955
1108.0,0.4385
1109.0,0.4358
1110.0,0.4932
1111.0,0.3601
1112.0,0.431
1113.0,0.3017
1114.0,0.3333
1115.0,0.2772
1116.0,0.2389
1117.0,0.1091
1118.0,0.2526
1119.0,0.1416
1120.0,0.1779
1121.0,0.2254
1122.0,0.1092
1123.0,0.1604
1124.0,0.1356
1125.0,0.173
1126.0,0.07489
1127.0,0.1938
1128.0,0.1315
1129.0,0.1367
1130.0,0.09809
1131.0,0.332
1132.0,0.2673
1133.0,0.1879
1134.0,0.06131
1135.0,0.02255
1136.0,0.1635
1137.0,0.3307
1138.0,0.2381
1139.0,0.3217
1140.0,0.2815
1141.0,0.2262
1142.0,0.2528
1143.0,0.3451
1144.0,0.1388
1145.0,0.1806
1146.0,0.1949
1147.0,0.08437
1148.0,0.299
1149.0,0.2495
1150.0,0.1492
1151.0,0.2365
1152.0,0.2786
1153.0,0.2625
1154.0,0.1792
1155.0,0.336
1156.0,0.3089
1157.0,0.3381
1158.0,0.3338
1159.0,0.3514
1160.0,0.3114
1161.0,0.3645
1162.0,0.3676
1163.0,0.4656
1164.0,0.4109
1165.0,0.3977
1166.0,0.3884
1167.0,0.4171
1168.0,0.4236
1169.0,0.4296
1170.0,0.4583
1171.0,0.4485
1172.0,0.4519
1173.0,0.4573
1174.0,0.3517
1175.0,0.4435
1176.0,0.4762
1177.0,0.4643
1178.0,0.3678
1179.0,0.4795
1180.0,0.4408
1181.0,0.4533
1182.0,0.3335
1183.0,0.4434
1184.0,0.4224
1185.0,0.4133
1186.0,0.4707
1187.0,0.4542
1188.0,0.3404
1189.0,0.4247
1190.0,0.4601
1191.0,0.4464
1192.0,0.4654
1193.0,0.4496
1194.0,0.4609
1195.0,0.4426
1196.0,0.4308
1197.0,0.4572
1198.0,0.4242
1199.0,0.3767
1200.0,0.4446
1201.0,0.4341
1202.0,0.4288
1203.0,0.425
1204.0,0.3812
1205.0,0.434
1206.0,0.4703
1207.0,0.429
1208.0,0.4176
1209.0,0.425
1210.0,0.4391
1211.0,0.4244
1212.0,0.4255
1213.0,0.458
1214.0,0.4324
1215.0,0.4259
1216.0,0.4563
1217.0,0.4473
1218.0,0.4529
1219.0,0.4487
1220.0,0.453
1221.0,0.4558
1222.0,0.446
1223.0,0.443
1224.0,0.4423
1225.0,0.453
1226.0,0.4542
1227.0,0.4268
1228.0,0.455
1229.0,0.4542
1230.0,0.448
1231.0,0.456
1232.0,0.4534
1233.0,0.4438
1234.0,0.4543
1235.0,0.4523
1236.0,0.4549
1237.0,0.4509
1238.0,0.4534
1239.0,0.4476
1240.0,0.449
1241.0,0.4484
1242.0,0.4461
1243.0,0.4424
1244.0,0.446
1245.0,0.4476
1246.0,0.445
1247.0,0.4437
1248.0,0.4441
1249.0,0.4448
1250.0,0.4426
1251.0,0.4378
1252.0,0.4367
1253.0,0.4353
1254.0,0.4325
1255.0,0.4368
1256.0,0.4284
1257.0,0.4268
1258.0,0.4318
1259.0,0.422
1260.0,0.4235
1261.0,0.4073
1262.0,0.3991
1263.0,0.4001
1264.0,0.3787
1265.0,0.3973
1266.0,0.3879
1267.0,0.3909
1268.0,0.3768
1269.0,0.2783
1270.0,0.3909
1271.0,0.405
1272.0,0.4054
1273.0,0.402
1274.0,0.4022
1275.0,0.4066
1276.0,0.4091
1277.0,0.4101
1278.0,0.4148
1279.0,0.4114
1280.0,0.406
1281.0,0.3861
1282.0,0.3697
1283.0,0.3986
1284.0,0.4086
1285.0,0.411
1286.0,0.4152
1287.0,0.4112
1288.0,0.4105
1289.0,0.4021
1290.0,0.4065
1291.0,0.4114
1292.0,0.3953
1293.0,0.4056
1294.0,0.4033
1295.0,0.4033
1296.0,0.3909
1297.0,0.3746
1298.0,0.3939
1299.0,0.4053
1300.0,0.3595
1301.0,0.367
1302.0,0.3923
1303.0,0.353
1304.0,0.3168
1305.0,0.3856
1306.0,0.3864
1307.0,0.3183
1308.0,0.3512
1309.0,0.3845
1310.0,0.3129
1311.0,0.3402
1312.0,0.3335
1313.0,0.3294
1314.0,0.3007
1315.0,0.3002
1316.0,0.3373
1317.0,0.3214
1318.0,0.3428
1319.0,0.2871
1320.0,0.274
1321.0,0.3125
1322.0,0.3181
1323.0,0.2556
1324.0,0.2815
1325.0,0.3332
1326.0,0.2963
1327.0,0.2852
1328.0,0.2512
1329.0,0.2025
1330.0,0.2561
1331.0,0.1726
1332.0,0.1719
1333.0,0.2338
1334.0,0.192
1335.0,0.2542
1336.0,0.2096
1337.0,0.1914
1338.0,0.2057
1339.0,0.2027
1340.0,0.193
1341.0,0.198
1342.0,0.2074
1343.0,0.163
1344.0,0.0979
1345.0,0.1372
1346.0,0.08501
1347.0,0.08912
1348.0,0.01038
1349.0,0.03101
1350.0,0.02837
1351.0,0.01148
1352.0,0.005032
1353.0,0.0004902
1354.0,0.001162
1355.0,3.18e-05
1356.0,0.0002551
1357.0,0.0003776
1358.0,3.588e-05
1359.0,1.067e-05
1360.0,2.234e-05
1361.0,1.7e-07
1362.0,1.178e-09
1363.0,3.509e-05
1364.0,1.69e-05
1365.0,1.071e-09
1366.0,0.0001202
1367.0,4.686e-05
1368.0,5.852e-11
1369.0,6.856e-06
1370.0,4.823e-06
1371.0,4.596e-07
1372.0,2.635e-05
1373.0,0.0002785
1374.0,0.0008504
1375.0,0.001474
1376.0,0.001027
1377.0,0.0005254
1378.0,0.003948
1379.0,0.0002301
1380.0,0.0004104
1381.0,1.507e-05
1382.0,2.616e-05
1383.0,6.139e-07
1384.0,8.792e-06
1385.0,1.704e-05
1386.0,2.936e-05
1387.0,0.001053
1388.0,2.517e-05
1389.0,0.002368
1390.0,0.001999
1391.0,0.001513
1392.0,0.0001235
1393.0,0.000507
1394.0,0.0004779
1395.0,6.475e-06
1396.0,1.927e-07
1397.0,0.0002416
1398.0,0.004521
1399.0,0.002914
1400.0,1.326e-07
1401.0,2.89e-07
1402.0,0.00487
1403.0,0.006649
1404.0,0.002127
1405.0,4.315e-06
1406.0,0.006298
1407.0,0.0005553
1408.0,0.005068
1409.0,0.002292
1410.0,0.001624
1411.0,0.005771
1412.0,0.006753
1413.0,0.04243
1414.0,0.001248
1415.0,0.0007016
1416.0,0.05555
1417.0,0.02277
1418.0,0.02561
1419.0,0.004349
1420.0,0.01599
1421.0,0.01817
1422.0,0.0703
1423.0,0.01549
1424.0,0.02754
1425.0,0.0419
1426.0,0.043
1427.0,0.06799
1428.0,0.01011
1429.0,0.05536
1430.0,0.08346
1431.0,0.08893
1432.0,0.008186
1433.0,0.06074
1434.0,0.03307
1435.0,0.04019
1436.0,0.06563
1437.0,0.05071
1438.0,0.02484
1439.0,0.0839
1440.0,0.06389
1441.0,0.054
1442.0,0.05811
1443.0,0.06501
1444.0,0.08738
1445.0,0.07432
1446.0,0.03536
1447.0,0.05609
1448.0,0.1434
1449.0,0.1308
1450.0,0.04157
1451.0,0.01861
1452.0,0.08451
1453.0,0.107
1454.0,0.1631
1455.0,0.08475
1456.0,0.1171
1457.0,0.1443
1458.0,0.1586
1459.0,0.1892
1460.0,0.1053
1461.0,0.1146
1462.0,0.1581
1463.0,0.05871
1464.0,0.1777
1465.0,0.1091
1466.0,0.08832
1467.0,0.053
1468.0,0.1006
1469.0,0.1197
1470.0,0.06964
