interpolation:linear
wavelength,value
280.0,2.3650000000000003e-28
280.5,1.495e-26
281.0,1.037e-25
281.5,6.228e-24
282.0,7.382999999999999e-23
282.5,3.704e-22
283.0,2.194e-21
283.5,4.791e-21
284.0,2.401e-19
284.5,1.121e-18
285.0,3.645e-18
285.5,4.117e-17
286.0,2.257e-16
286.5,1.782e-15
287.0,7.587e-15
287.5,4.732e-14
288.0,3.141e-13
288.5,1.532e-12
289.0,6.34e-12
289.5,2.973e-11
290.0,1.165e-10
290.5,3.154e-10
291.0,9.362e-10
291.5,3.969e-09
292.0,1.237e-08
292.5,2.09e-08
293.0,5.623e-08
293.5,1.835e-07
294.0,3.533e-07
294.5,6.908e-07
295.0,1.387e-06
295.5,3.947e-06
296.0,7.931e-06
296.5,1.147e-05
297.0,1.591e-05
297.5,4.371e-05
298.0,6.987e-05
298.5,7.087e-05
299.0,0.0001569
299.5,0.0002577
300.0,0.0002815
300.5,0.000403
301.0,0.0007056
301.5,0.001083
302.0,0.0009109
302.5,0.001802
303.0,0.003268
303.5,0.004125
304.0,0.003848
304.5,0.005545
305.0,0.007952
305.5,0.008806
306.0,0.008453
306.5,0.01032
307.0,0.01449
307.5,0.01825
308.0,0.01924
308.5,0.0222
309.0,0.01998
309.5,0.02288
310.0,0.02303
310.5,0.03747
311.0,0.04707
311.5,0.04564
312.0,0.0451
312.5,0.05446
313.0,0.059
313.5,0.05819
314.0,0.0718
314.5,0.06219
315.0,0.08183
315.5,0.07004
316.0,0.05997
316.5,0.08456
317.0,0.1058
317.5,0.1116
318.0,0.08611
318.5,0.1038
319.0,0.1216
319.5,0.1029
320.0,0.1257
320.5,0.1523
321.0,0.1315
321.5,0.1264
322.0,0.1411
322.5,0.1232
323.0,0.1203
323.5,0.1421
324.0,0.1661
324.5,0.1716
325.0,0.1544
325.5,0.1954
326.0,0.2339
326.5,0.232
327.0,0.2339
327.5,0.2289
328.0,0.209
328.5,0.2158
329.0,0.2545
329.5,0.2886
330.0,0.2944
330.5,0.2408
331.0,0.248
331.5,0.2505
332.0,0.2672
332.5,0.2635
333.0,0.2655
333.5,0.2448
334.0,0.2527
334.5,0.2887
335.0,0.2702
335.5,0.3081
336.0,0.2142
336.5,0.2609
337.0,0.2165
337.5,0.2712
338.0,0.2628
338.5,0.2978
339.0,0.298
339.5,0.2868
340.0,0.3459
340.5,0.3129
341.0,0.3014
341.5,0.2806
342.0,0.3375
342.5,0.3178
343.0,0.3495
343.5,0.3294
344.0,0.2475
344.5,0.246
345.0,0.3307
345.5,0.3404
346.0,0.2912
346.5,0.3315
347.0,0.3562
347.5,0.2888
348.0,0.3321
348.5,0.334
349.0,0.3113
349.5,0.3094
350.0,0.3843
350.5,0.4069
351.0,0.3644
351.5,0.3537
352.0,0.3827
352.5,0.3005
353.0,0.3804
353.5,0.4086
354.0,0.426
354.5,0.4337
355.0,0.4337
355.5,0.3934
356.0,0.4132
356.5,0.3541
357.0,0.2937
357.5,0.3609
358.0,0.2871
358.5,0.2462
359.0,0.3456
359.5,0.4416
360.0,0.4699
360.5,0.377
361.0,0.3449
361.5,0.3985
362.0,0.3458
362.5,0.4801
363.0,0.4326
363.5,0.3997
364.0,0.4904
364.5,0.4206
365.0,0.4297
365.5,0.541
366.0,0.575
366.5,0.542
367.0,0.5295
367.5,0.5512
368.0,0.4838
368.5,0.4897
369.0,0.5304
369.5,0.5671
370.0,0.6063
370.5,0.472
371.0,0.5058
371.5,0.6347
372.0,0.4225
372.5,0.5081
373.0,0.5183
373.5,0.3381
374.0,0.4927
374.5,0.4092
375.0,0.3989
375.5,0.5972
376.0,0.4965
376.5,0.5159
377.0,0.5477
377.5,0.6425
378.0,0.6983
378.5,0.662
379.0,0.5478
379.5,0.5019
380.0,0.5232
380.5,0.6355
381.0,0.6385
381.5,0.5075
382.0,0.4519
382.5,0.3862
383.0,0.3585
383.5,0.3462
384.0,0.3828
384.5,0.5644
385.0,0.5611
385.5,0.5238
386.0,0.4497
386.5,0.5922
387.0,0.4933
387.5,0.5555
388.0,0.5141
388.5,0.5094
389.0,0.5512
389.5,0.6692
390.0,0.6731
390.5,0.6209
391.0,0.7326
391.5,0.749
392.0,0.6323
392.5,0.5674
393.0,0.3164
393.5,0.2305
394.0,0.47
394.5,0.5988
395.0,0.7323
395.5,0.7455
396.0,0.6478
396.5,0.3795
397.0,0.2854
397.5,0.5816
398.0,0.8162
398.5,0.8454
399.0,0.9172
399.5,0.916
400.0,0.9532
401.0,0.9826
402.0,1.041
403.0,0.9923
404.0,0.9806
405.0,0.984
406.0,0.9714
407.0,0.9592
408.0,1.0
409.0,1.074
410.0,0.9415
411.0,1.023
412.0,1.102
413.0,1.079
414.0,1.095
415.0,1.101
416.0,1.124
417.0,1.1
418.0,1.083
419.0,1.101
420.0,1.099
421.0,1.153
422.0,1.1
423.0,1.077
424.0,1.143
425.0,1.144
426.0,1.117
427.0,1.099
428.0,1.073
429.0,1.019
430.0,0.8942
431.0,0.8888
432.0,1.151
433.0,1.16
434.0,1.08
435.0,1.13
436.0,1.276
437.0,1.262
438.0,1.152
439.0,1.194
440.0,1.235
441.0,1.283
442.0,1.379
443.0,1.346
444.0,1.378
445.0,1.351
446.0,1.292
447.0,1.399
448.0,1.425
449.0,1.433
450.0,1.476
451.0,1.534
452.0,1.481
453.0,1.395
454.0,1.459
455.0,1.471
456.0,1.509
457.0,1.537
458.0,1.488
459.0,1.483
460.0,1.49
461.0,1.527
462.0,1.541
463.0,1.533
464.0,1.51
465.0,1.493
466.0,1.509
467.0,1.485
468.0,1.505
469.0,1.515
470.0,1.47
471.0,1.47
472.0,1.551
473.0,1.534
474.0,1.539
475.0,1.555
476.0,1.511
477.0,1.518
478.0,1.563
479.0,1.555
480.0,1.561
481.0,1.592
482.0,1.602
483.0,1.585
484.0,1.554
485.0,1.482
486.0,1.297
487.0,1.361
488.0,1.495
489.0,1.502
490.0,1.582
491.0,1.557
492.0,1.472
493.0,1.522
494.0,1.539
495.0,1.554
496.0,1.566
497.0,1.592
498.0,1.52
499.0,1.541
500.0,1.499
501.0,1.473
502.0,1.455
503.0,1.517
504.0,1.482
505.0,1.535
506.0,1.587
507.0,1.511
508.0,1.465
509.0,1.508
510.0,1.501
511.0,1.542
512.0,1.56
513.0,1.478
514.0,1.47
515.0,1.456
516.0,1.454
517.0,1.293
518.0,1.361
519.0,1.429
520.0,1.483
521.0,1.498
522.0,1.501
523.0,1.476
524.0,1.53
525.0,1.55
526.0,1.482
527.0,1.399
528.0,1.481
529.0,1.563
530.0,1.542
531.0,1.566
532.0,1.514
533.0,1.47
534.0,1.515
535.0,1.549
536.0,1.564
537.0,1.504
538.0,1.531
539.0,1.52
540.0,1.458
541.0,1.469
542.0,1.517
543.0,1.502
544.0,1.529
545.0,1.525
546.0,1.534
547.0,1.534
548.0,1.516
549.0,1.522
550.0,1.541
551.0,1.523
552.0,1.535
553.0,1.509
554.0,1.546
555.0,1.55
556.0,1.531
557.0,1.485
558.0,1.475
559.0,1.449
560.0,1.468
561.0,1.488
562.0,1.479
563.0,1.521
564.0,1.481
565.0,1.469
566.0,1.449
567.0,1.477
568.0,1.466
569.0,1.434
570.0,1.434
571.0,1.426
572.0,1.462
573.0,1.479
574.0,1.475
575.0,1.449
576.0,1.436
577.0,1.452
578.0,1.431
579.0,1.436
580.0,1.463
581.0,1.471
582.0,1.498
583.0,1.502
584.0,1.515
585.0,1.479
586.0,1.449
587.0,1.482
588.0,1.449
589.0,1.289
590.0,1.348
591.0,1.425
592.0,1.409
593.0,1.428
594.0,1.42
595.0,1.387
596.0,1.439
597.0,1.425
598.0,1.421
599.0,1.423
600.0,1.424
601.0,1.413
602.0,1.404
603.0,1.427
604.0,1.451
605.0,1.444
606.0,1.439
607.0,1.453
608.0,1.437
609.0,1.44
610.0,1.43
611.0,1.438
612.0,1.434
613.0,1.416
614.0,1.397
615.0,1.428
616.0,1.381
617.0,1.378
618.0,1.432
619.0,1.418
620.0,1.427
621.0,1.429
622.0,1.413
623.0,1.393
624.0,1.369
625.0,1.366
626.0,1.387
627.0,1.404
628.0,1.32
629.0,1.375
630.0,1.344
631.0,1.372
632.0,1.355
633.0,1.395
634.0,1.381
635.0,1.403
636.0,1.384
637.0,1.407
638.0,1.42
639.0,1.404
640.0,1.391
641.0,1.39
642.0,1.384
643.0,1.403
644.0,1.398
645.0,1.401
646.0,1.37
647.0,1.356
648.0,1.358
649.0,1.333
650.0,1.336
651.0,1.394
652.0,1.34
653.0,1.376
654.0,1.361
655.0,1.312
656.0,1.162
657.0,1.194
658.0,1.337
659.0,1.347
660.0,1.353
661.0,1.362
662.0,1.366
663.0,1.339
664.0,1.354
665.0,1.355
666.0,1.356
667.0,1.355
668.0,1.356
669.0,1.377
670.0,1.371
671.0,1.371
672.0,1.359
673.0,1.38
674.0,1.375
675.0,1.363
676.0,1.372
677.0,1.359
678.0,1.363
679.0,1.341
680.0,1.352
681.0,1.344
682.0,1.342
683.0,1.34
684.0,1.334
685.0,1.345
686.0,1.338
687.0,0.9266
688.0,1.068
689.0,1.071
690.0,1.118
691.0,1.17
692.0,1.207
693.0,1.198
694.0,1.188
695.0,1.233
696.0,1.235
697.0,1.305
698.0,1.285
699.0,1.259
700.0,1.244
701.0,1.233
702.0,1.24
703.0,1.242
704.0,1.28
705.0,1.282
706.0,1.281
707.0,1.281
708.0,1.285
709.0,1.285
710.0,1.286
711.0,1.284
712.0,1.28
713.0,1.268
714.0,1.273
715.0,1.234
716.0,1.236
717.0,1.086
718.0,1.0
719.0,0.918
720.0,0.9627
721.0,1.054
722.0,1.196
723.0,1.119
724.0,1.014
725.0,1.0
726.0,1.046
727.0,1.058
728.0,0.9987
729.0,1.031
730.0,1.091
731.0,1.046
732.0,1.113
733.0,1.174
734.0,1.2
735.0,1.176
736.0,1.175
737.0,1.18
738.0,1.195
739.0,1.172
740.0,1.202
741.0,1.189
742.0,1.19
743.0,1.22
744.0,1.217
745.0,1.217
746.0,1.222
747.0,1.225
748.0,1.223
749.0,1.209
750.0,1.209
751.0,1.197
752.0,1.202
753.0,1.208
754.0,1.211
755.0,1.204
756.0,1.204
757.0,1.206
758.0,1.191
759.0,1.169
760.0,0.2299
761.0,0.1277
762.0,0.6356
763.0,0.3384
764.0,0.4906
765.0,0.6361
766.0,0.7637
767.0,0.9466
768.0,1.079
769.0,1.099
770.0,1.133
771.0,1.14
772.0,1.142
773.0,1.151
774.0,1.145
775.0,1.136
776.0,1.15
777.0,1.135
778.0,1.129
779.0,1.13
780.0,1.124
781.0,1.125
782.0,1.132
783.0,1.112
784.0,1.118
785.0,1.11
786.0,1.122
787.0,1.104
788.0,1.091
789.0,1.091
790.0,1.065
791.0,1.072
792.0,1.064
793.0,1.047
794.0,1.063
795.0,1.081
796.0,1.051
797.0,1.053
798.0,1.081
799.0,1.075
800.0,1.057
801.0,1.054
802.0,1.051
803.0,1.044
804.0,1.045
805.0,1.041
806.0,1.069
807.0,1.057
808.0,1.058
809.0,1.039
810.0,1.031
811.0,1.034
812.0,1.007
813.0,0.9869
814.0,0.875
815.0,0.8695
816.0,0.8105
817.0,0.8246
818.0,0.7953
819.0,0.8834
820.0,0.8343
821.0,0.9673
822.0,0.9411
823.0,0.6528
824.0,0.9166
825.0,0.9513
826.0,0.9177
827.0,0.966
828.0,0.8262
829.0,0.9119
830.0,0.9008
831.0,0.9038
832.0,0.8775
833.0,0.93
834.0,0.8995
835.0,0.9832
836.0,0.9443
837.0,0.986
838.0,0.9567
839.0,0.971
840.0,0.992
841.0,0.9786
842.0,0.9799
843.0,0.9786
844.0,0.9655
845.0,0.9975
846.0,0.9931
847.0,0.9745
848.0,0.9689
849.0,0.9415
850.0,0.902
851.0,0.9555
852.0,0.9487
853.0,0.913
854.0,0.7886
855.0,0.8661
856.0,0.9468
857.0,0.9677
858.0,0.9607
859.0,0.9615
860.0,0.9632
861.0,0.9581
862.0,0.9731
863.0,0.9962
864.0,0.9465
865.0,0.9382
866.0,0.8437
867.0,0.8805
868.0,0.9582
869.0,0.9384
870.0,0.9652
871.0,0.9522
872.0,0.9489
873.0,0.947
874.0,0.9358
875.0,0.917
876.0,0.9266
877.0,0.936
878.0,0.9463
879.0,0.9318
880.0,0.9119
881.0,0.8985
882.0,0.918
883.0,0.9208
884.0,0.9167
885.0,0.9237
886.0,0.8811
887.0,0.89
888.0,0.9034
889.0,0.9133
890.0,0.9063
891.0,0.9045
892.0,0.8793
893.0,0.8527
894.0,0.8246
895.0,0.7816
896.0,0.7373
897.0,0.6365
898.0,0.6929
899.0,0.5308
900.0,0.7077
901.0,0.5563
902.0,0.648
903.0,0.656
904.0,0.819
905.0,0.7919
906.0,0.7419
907.0,0.6074
908.0,0.6188
909.0,0.6683
910.0,0.5948
911.0,0.6317
912.0,0.6596
913.0,0.6039
914.0,0.5981
915.0,0.6481
916.0,0.5498
917.0,0.6936
918.0,0.5638
919.0,0.7053
920.0,0.7107
921.0,0.7387
922.0,0.6631
923.0,0.7135
924.0,0.6799
925.0,0.6652
926.0,0.6725
927.0,0.7504
928.0,0.5574
929.0,0.5106
930.0,0.404
931.0,0.3824
932.0,0.278
933.0,0.2273
934.0,0.1273
935.0,0.2316
936.0,0.1463
937.0,0.1485
938.0,0.1819
939.0,0.3707
940.0,0.4441
941.0,0.3376
942.0,0.3895
943.0,0.258
944.0,0.2702
945.0,0.3478
946.0,0.1794
947.0,0.3499
948.0,0.2575
949.0,0.4661
950.0,0.133
951.0,0.4586
952.0,0.2494
953.0,0.3202
954.0,0.3905
955.0,0.3237
956.0,0.3131
957.0,0.2501
958.0,0.4408
959.0,0.3525
960.0,0.395
961.0,0.4416
962.0,0.418
963.0,0.4804
964.0,0.4407
965.0,0.4785
966.0,0.4789
967.0,0.4771
968.0,0.6342
969.0,0.6629
970.0,0.6096
971.0,0.6954
972.0,0.6657
973.0,0.582
974.0,0.5528
975.0,0.5729
976.0,0.5453
977.0,0.618
978.0,0.5882
979.0,0.6154
980.0,0.5791
981.0,0.6916
982.0,0.6621
983.0,0.6362
984.0,0.7117
985.0,0.6597
986.0,0.7237
987.0,0.7102
988.0,0.7089
989.0,0.7212
990.0,0.7047
991.0,0.7235
992.0,0.7277
993.0,0.7121
994.0,0.7274
995.0,0.7265
996.0,0.7234
997.0,0.7244
998.0,0.7211
999.0,0.7185
1000.0,0.7136
1001.0,0.7224
1002.0,0.7031
1003.0,0.7097
1004.0,0.6925
1005.0,0.667
1006.0,0.6931
1007.0,0.7078
1008.0,0.7041
1009.0,0.7005
1010.0,0.6976
1011.0,0.7043
1012.0,0.6984
1013.0,0.7026
1014.0,0.6977
1015.0,0.6932
1016.0,0.6901
1017.0,0.6919
1018.0,0.6893
1019.0,0.6748
1020.0,0.6857
1021.0,0.6848
1022.0,0.6796
1023.0,0.6868
1024.0,0.6781
1025.0,0.6863
1026.0,0.6835
1027.0,0.6819
1028.0,0.6805
1029.0,0.6725
1030.0,0.6771
1031.0,0.6744
1032.0,0.6725
1033.0,0.6624
1034.0,0.6624
1035.0,0.6645
1036.0,0.668
1037.0,0.6571
1038.0,0.6601
1039.0,0.6597
1040.0,0.6571
1041.0,0.6598
1042.0,0.6552
1043.0,0.6531
1044.0,0.6555
1045.0,0.6466
1046.0,0.6395
1047.0,0.6453
1048.0,0.6489
1049.0,0.6466
1050.0,0.6436
1051.0,0.6428
1052.0,0.6402
1053.0,0.6352
1054.0,0.6366
1055.0,0.637
1056.0,0.6348
1057.0,0.6329
1058.0,0.6174
1059.0,0.6181
1060.0,0.6172
1061.0,0.6165
1062.0,0.6198
1063.0,0.6137
1064.0,0.621
1065.0,0.6166
1066.0,0.6044
1067.0,0.6122
1068.0,0.5989
1069.0,0.5804
1070.0,0.6002
1071.0,0.6093
1072.0,0.6025
1073.0,0.5938
1074.0,0.6089
1075.0,0.579
1076.0,0.6085
1077.0,0.598
1078.0,0.5868
1079.0,0.5987
1080.0,0.5888
1081.0,0.5702
1082.0,0.5789
1083.0,0.5806
1084.0,0.569
1085.0,0.5902
1086.0,0.5395
1087.0,0.5562
1088.0,0.5802
1089.0,0.5629
1090.0,0.5509
1091.0,0.5785
1092.0,0.5769
1093.0,0.4908
1094.0,0.5281
1095.0,0.5112
1096.0,0.4899
1097.0,0.5636
1098.0,0.4825
1099.0,0.5031
1100.0,0.4684
1101.0,0.474
1102.0,0.4532
1103.0,0.4491
1104.0,0.4497
1105.0,0.4918
1106.0,0.379
1107.0,0.4676
1108.0,0.3981
1109.0,0.3985
1110.0,0.4638
1111.0,0.3168
1112.0,0.3953
1113.0,0.2539
1114.0,0.2836
1115.0,0.2352
1116.0,0.189
1117.0,0.07078
1118.0,0.2053
1119.0,0.1029
1120.0,0.1296
1121.0,0.1714
1122.0,0.07302
1123.0,0.1171
1124.0,0.09886
1125.0,0.1287
1126.0,0.04566
1127.0,0.1451
1128.0,0.08774
1129.0,0.09298
1130.0,0.06154
1131.0,0.2729
1132.0,0.2146
1133.0,0.1372
1134.0,0.03573
1135.0,0.01336
1136.0,0.1149
1137.0,0.2685
1138.0,0.1894
1139.0,0.2801
1140.0,0.235
1141.0,0.18
1142.0,0.2066
1143.0,0.2924
1144.0,0.1033
1145.0,0.1323
1146.0,0.1427
1147.0,0.05107
1148.0,0.2531
1149.0,0.2028
1150.0,0.111
1151.0,0.188
1152.0,0.2306
1153.0,0.2241
1154.0,0.1284
1155.0,0.2923
1156.0,0.2638
1157.0,0.2951
1158.0,0.2919
1159.0,0.3142
1160.0,0.2694
1161.0,0.3301
1162.0,0.3319
1163.0,0.4449
1164.0,0.3829
1165.0,0.3625
1166.0,0.3591
1167.0,0.3904
1168.0,0.395
1169.0,0.404
1170.0,0.4379
1171.0,0.4272
1172.0,0.4342
1173.0,0.437
1174.0,0.3154
1175.0,0.4264
1176.0,0.467
1177.0,0.4494
1178.0,0.3402
1179.0,0.4707
1180.0,0.4221
1181.0,0.4354
1182.0,0.3034
1183.0,0.4283
1184.0,0.4024
1185.0,0.3892
1186.0,0.4584
1187.0,0.4376
1188.0,0.3089
1189.0,0.4079
1190.0,0.448
1191.0,0.4271
1192.0,0.4541
1193.0,0.4358
1194.0,0.4488
1195.0,0.4256
1196.0,0.4107
1197.0,0.4484
1198.0,0.4111
1199.0,0.3525
1200.0,0.4304
1201.0,0.4161
1202.0,0.4131
1203.0,0.4097
1204.0,0.3599
1205.0,0.4219
1206.0,0.4645
1207.0,0.4124
1208.0,0.4051
1209.0,0.4132
1210.0,0.4298
1211.0,0.4104
1212.0,0.4068
1213.0,0.4499
1214.0,0.4159
1215.0,0.4083
1216.0,0.4484
1217.0,0.4372
1218.0,0.4449
1219.0,0.4397
1220.0,0.4452
1221.0,0.4494
1222.0,0.438
1223.0,0.4342
1224.0,0.432
1225.0,0.4466
1226.0,0.4492
1227.0,0.4159
1228.0,0.4511
1229.0,0.4493
1230.0,0.4419
1231.0,0.4535
1232.0,0.4508
1233.0,0.4366
1234.0,0.4529
1235.0,0.4502
1236.0,0.4533
1237.0,0.4475
1238.0,0.4518
1239.0,0.446
1240.0,0.4477
1241.0,0.4458
1242.0,0.4446
1243.0,0.441
1244.0,0.4442
1245.0,0.4461
1246.0,0.4435
1247.0,0.4419
1248.0,0.4417
1249.0,0.443
1250.0,0.4404
1251.0,0.4349
1252.0,0.4348
1253.0,0.4317
1254.0,0.4277
1255.0,0.4344
1256.0,0.423
1257.0,0.4209
1258.0,0.4281
1259.0,0.4139
1260.0,0.4159
1261.0,0.3941
1262.0,0.383
1263.0,0.3838
1264.0,0.3561
1265.0,0.3813
1266.0,0.368
1267.0,0.3738
1268.0,0.3557
1269.0,0.2287
1270.0,0.3727
1271.0,0.3926
1272.0,0.3937
1273.0,0.3897
1274.0,0.3907
1275.0,0.3961
1276.0,0.3997
1277.0,0.402
1278.0,0.4091
1279.0,0.4055
1280.0,0.4003
1281.0,0.3817
1282.0,0.3673
1283.0,0.3957
1284.0,0.4052
1285.0,0.4078
1286.0,0.4131
1287.0,0.4072
1288.0,0.407
1289.0,0.3951
1290.0,0.4033
1291.0,0.4088
1292.0,0.3859
1293.0,0.4013
1294.0,0.3986
1295.0,0.3971
1296.0,0.3803
1297.0,0.3606
1298.0,0.3864
1299.0,0.4016
1300.0,0.343
1301.0,0.353
1302.0,0.3851
1303.0,0.3382
1304.0,0.2913
1305.0,0.3774
1306.0,0.3776
1307.0,0.2966
1308.0,0.3383
1309.0,0.375
1310.0,0.2911
1311.0,0.325
1312.0,0.3166
1313.0,0.311
1314.0,0.2793
1315.0,0.2763
1316.0,0.3203
1317.0,0.3038
1318.0,0.329
1319.0,0.2603
1320.0,0.2516
1321.0,0.2919
1322.0,0.2953
1323.0,0.2248
1324.0,0.2554
1325.0,0.3159
1326.0,0.2728
1327.0,0.2606
1328.0,0.2255
1329.0,0.1713
1330.0,0.2221
1331.0,0.1363
1332.0,0.14
1333.0,0.1943
1334.0,0.1635
1335.0,0.2239
1336.0,0.1783
1337.0,0.1582
1338.0,0.1712
1339.0,0.1702
1340.0,0.1649
1341.0,0.1624
1342.0,0.1704
1343.0,0.118
1344.0,0.07055
1345.0,0.1016
1346.0,0.05209
1347.0,0.05324
1348.0,0.003755
1349.0,0.01317
1350.0,0.01345
1351.0,0.003526
1352.0,0.001034
1353.0,5.783e-05
1354.0,0.0001879
1355.0,1.83e-06
1356.0,2.845e-05
1357.0,4.324e-05
1358.0,2.152e-06
1359.0,3.127e-07
1360.0,1.036e-06
1361.0,1.566e-09
1362.0,4.891e-12
1363.0,1.463e-06
1364.0,6.114e-07
1365.0,2.024e-12
1366.0,6.159e-06
1367.0,2.464e-06
1368.0,2.169e-14
1369.0,2.305e-07
1370.0,1.208e-07
1371.0,7.392e-09
1372.0,1.356e-06
1373.0,2.489e-05
1374.0,0.0001084
1375.0,0.0001976
1376.0,0.0001685
1377.0,7.837e-05
1378.0,0.0007453
1379.0,3.303e-05
1380.0,4.951e-05
1381.0,1.348e-06
1382.0,1.244e-06
1383.0,1.972e-08
1384.0,2.67e-07
1385.0,1.101e-06
1386.0,1.156e-06
1387.0,0.000117
1388.0,2.32e-06
1389.0,0.0003699
1390.0,0.0003186
1391.0,0.0002156
1392.0,1.435e-05
1393.0,7.354e-05
1394.0,4.218e-05
1395.0,3.352e-07
1396.0,2.169e-09
1397.0,3.007e-05
1398.0,0.0008431
1399.0,0.0005342
1400.0,1.014e-09
1401.0,3.792e-09
1402.0,0.001366
1403.0,0.001744
1404.0,0.0005352
1405.0,1.718e-07
1406.0,0.001431
1407.0,0.0001242
1408.0,0.001165
1409.0,0.0004096
1410.0,0.0003187
1411.0,0.001529
1412.0,0.00202
1413.0,0.0196
1414.0,0.0002501
1415.0,0.0001227
1416.0,0.0313
1417.0,0.00971
1418.0,0.0111
1419.0,0.001733
1420.0,0.006798
1421.0,0.007354
1422.0,0.0408
1423.0,0.007964
1424.0,0.01488
1425.0,0.02198
1426.0,0.02475
1427.0,0.0451
1428.0,0.003551
1429.0,0.0339
1430.0,0.05737
1431.0,0.06293
1432.0,0.002801
1433.0,0.04014
1434.0,0.02047
1435.0,0.02064
1436.0,0.03957
1437.0,0.03032
1438.0,0.01287
1439.0,0.05371
1440.0,0.04024
1441.0,0.03076
1442.0,0.03411
1443.0,0.04271
1444.0,0.05912
1445.0,0.04633
1446.0,0.02086
1447.0,0.03287
1448.0,0.1111
1449.0,0.09644
1450.0,0.02437
1451.0,0.009795
1452.0,0.05803
1453.0,0.07623
1454.0,0.1313
1455.0,0.06175
1456.0,0.08295
1457.0,0.1116
1458.0,0.1318
1459.0,0.1559
1460.0,0.08099
1461.0,0.08442
1462.0,0.1241
1463.0,0.03991
1464.0,0.1474
