interpolation:linear
wavelength,value
280.0,8.233e-28
280.5,4.809e-26
281.0,3.24e-25
281.5,1.802e-23
282.0,2.0389999999999997e-22
282.5,9.912e-22
283.0,5.672e-21
283.5,1.2170000000000001e-20
284.0,5.633e-19
284.5,2.537e-18
285.0,7.925e-18
285.5,8.546e-17
286.0,4.598e-16
286.5,3.493e-15
287.0,1.445e-14
287.5,8.683e-14
288.0,5.499e-13
288.5,2.616e-12
289.0,1.055e-11
289.5,4.808e-11
290.0,1.841e-10
290.5,4.888e-10
291.0,1.417e-09
291.5,5.832e-09
292.0,1.774e-08
292.5,2.957e-08
293.0,7.819e-08
293.5,2.492e-07
294.0,4.72e-07
294.5,9.117e-07
295.0,1.803e-06
295.5,5.034e-06
296.0,9.986e-06
296.5,1.427e-05
297.0,1.96e-05
297.5,5.31e-05
298.0,8.396e-05
298.5,8.447e-05
299.0,0.0001856
299.5,0.0003011
300.0,0.0003269
300.5,0.000465
301.0,0.0008068
301.5,0.00123
302.0,0.00103
302.5,0.002025
303.0,0.003645
303.5,0.004581
304.0,0.004263
304.5,0.006113
305.0,0.008709
305.5,0.009605
306.0,0.009205
306.5,0.01121
307.0,0.01566
307.5,0.01964
308.0,0.02068
308.5,0.02381
309.0,0.0214
309.5,0.02439
310.0,0.0245
310.5,0.0398
311.0,0.04992
311.5,0.04835
312.0,0.04762
312.5,0.05739
313.0,0.0621
313.5,0.06128
314.0,0.07543
314.5,0.06513
315.0,0.08565
315.5,0.07338
316.0,0.06269
316.5,0.08821
317.0,0.1103
317.5,0.1164
318.0,0.08971
318.5,0.1079
319.0,0.1262
319.5,0.1069
320.0,0.1306
320.5,0.158
321.0,0.1361
321.5,0.1308
322.0,0.1462
322.5,0.1277
323.0,0.1245
323.5,0.1467
324.0,0.1715
324.5,0.1772
325.0,0.1596
325.5,0.2018
326.0,0.2413
326.5,0.239
327.0,0.2411
327.5,0.236
328.0,0.2157
328.5,0.2223
329.0,0.2619
329.5,0.2969
330.0,0.3028
330.5,0.2478
331.0,0.2552
331.5,0.2576
332.0,0.2746
332.5,0.2707
333.0,0.2727
333.5,0.2516
334.0,0.2596
334.5,0.2964
335.0,0.2773
335.5,0.3161
336.0,0.2197
336.5,0.2676
337.0,0.2221
337.5,0.2783
338.0,0.2695
338.5,0.3053
339.0,0.3054
339.5,0.2939
340.0,0.3544
340.5,0.3205
341.0,0.3087
341.5,0.2873
342.0,0.3456
342.5,0.3253
343.0,0.3577
343.5,0.3371
344.0,0.2533
344.5,0.2517
345.0,0.3383
345.5,0.3482
346.0,0.2978
346.5,0.339
347.0,0.3642
347.5,0.2952
348.0,0.3394
348.5,0.3413
349.0,0.3181
349.5,0.3161
350.0,0.3925
350.5,0.4156
351.0,0.3722
351.5,0.3612
352.0,0.3908
352.5,0.3068
353.0,0.3883
353.5,0.417
354.0,0.4348
354.5,0.4425
355.0,0.4425
355.5,0.4013
356.0,0.4215
356.5,0.3612
357.0,0.2995
357.5,0.368
358.0,0.2927
358.5,0.251
359.0,0.3523
359.5,0.4502
360.0,0.479
360.5,0.3842
361.0,0.3515
361.5,0.406
362.0,0.3522
362.5,0.489
363.0,0.4406
363.5,0.4071
364.0,0.4994
364.5,0.4282
365.0,0.4374
365.5,0.5507
366.0,0.5853
366.5,0.5516
367.0,0.5388
367.5,0.5608
368.0,0.4922
368.5,0.4981
369.0,0.5395
369.5,0.5768
370.0,0.6166
370.5,0.48
371.0,0.5143
371.5,0.6453
372.0,0.4295
372.5,0.5165
373.0,0.5268
373.5,0.3437
374.0,0.5007
374.5,0.4158
375.0,0.4053
375.5,0.6068
376.0,0.5044
376.5,0.5241
377.0,0.5563
377.5,0.6525
378.0,0.7092
378.5,0.6722
379.0,0.5563
379.5,0.5096
380.0,0.5313
380.5,0.6452
381.0,0.6482
381.5,0.5151
382.0,0.4586
382.5,0.392
383.0,0.3638
383.5,0.3512
384.0,0.3884
384.5,0.5726
385.0,0.5692
385.5,0.5313
386.0,0.4562
386.5,0.6006
387.0,0.5003
387.5,0.5632
388.0,0.5213
388.5,0.5164
389.0,0.5588
389.5,0.6783
390.0,0.6823
390.5,0.6294
391.0,0.7425
391.5,0.759
392.0,0.6408
392.5,0.5749
393.0,0.3206
393.5,0.2335
394.0,0.4762
394.5,0.6066
395.0,0.7418
395.5,0.7551
396.0,0.6561
396.5,0.3843
397.0,0.289
397.5,0.589
398.0,0.8265
398.5,0.856
399.0,0.9286
399.5,0.9273
400.0,0.9649
401.0,0.9946
402.0,1.053
403.0,1.004
404.0,0.9921
405.0,0.9955
406.0,0.9827
407.0,0.9701
408.0,1.012
409.0,1.086
410.0,0.9519
411.0,1.034
412.0,1.114
413.0,1.09
414.0,1.107
415.0,1.113
416.0,1.136
417.0,1.111
418.0,1.094
419.0,1.112
420.0,1.11
421.0,1.165
422.0,1.11
423.0,1.088
424.0,1.154
425.0,1.155
426.0,1.128
427.0,1.109
428.0,1.083
429.0,1.029
430.0,0.9024
431.0,0.8969
432.0,1.161
433.0,1.17
434.0,1.089
435.0,1.14
436.0,1.287
437.0,1.273
438.0,1.161
439.0,1.204
440.0,1.245
441.0,1.293
442.0,1.39
443.0,1.357
444.0,1.389
445.0,1.362
446.0,1.302
447.0,1.41
448.0,1.436
449.0,1.444
450.0,1.487
451.0,1.546
452.0,1.492
453.0,1.406
454.0,1.47
455.0,1.482
456.0,1.52
457.0,1.548
458.0,1.499
459.0,1.493
460.0,1.5
461.0,1.538
462.0,1.552
463.0,1.544
464.0,1.52
465.0,1.503
466.0,1.519
467.0,1.494
468.0,1.515
469.0,1.525
470.0,1.479
471.0,1.479
472.0,1.561
473.0,1.543
474.0,1.548
475.0,1.565
476.0,1.521
477.0,1.528
478.0,1.573
479.0,1.565
480.0,1.57
481.0,1.602
482.0,1.612
483.0,1.594
484.0,1.563
485.0,1.491
486.0,1.305
487.0,1.369
488.0,1.504
489.0,1.511
490.0,1.591
491.0,1.565
492.0,1.48
493.0,1.531
494.0,1.548
495.0,1.563
496.0,1.574
497.0,1.601
498.0,1.528
499.0,1.549
500.0,1.506
501.0,1.481
502.0,1.463
503.0,1.525
504.0,1.49
505.0,1.543
506.0,1.595
507.0,1.519
508.0,1.473
509.0,1.515
510.0,1.508
511.0,1.55
512.0,1.568
513.0,1.486
514.0,1.477
515.0,1.463
516.0,1.461
517.0,1.3
518.0,1.368
519.0,1.436
520.0,1.49
521.0,1.505
522.0,1.508
523.0,1.483
524.0,1.537
525.0,1.557
526.0,1.489
527.0,1.405
528.0,1.488
529.0,1.57
530.0,1.549
531.0,1.573
532.0,1.521
533.0,1.477
534.0,1.522
535.0,1.556
536.0,1.571
537.0,1.51
538.0,1.538
539.0,1.526
540.0,1.465
541.0,1.476
542.0,1.524
543.0,1.508
544.0,1.536
545.0,1.532
546.0,1.541
547.0,1.541
548.0,1.523
549.0,1.529
550.0,1.548
551.0,1.53
552.0,1.542
553.0,1.515
554.0,1.553
555.0,1.557
556.0,1.538
557.0,1.491
558.0,1.481
559.0,1.455
560.0,1.475
561.0,1.495
562.0,1.486
563.0,1.528
564.0,1.487
565.0,1.476
566.0,1.455
567.0,1.484
568.0,1.473
569.0,1.441
570.0,1.441
571.0,1.432
572.0,1.469
573.0,1.486
574.0,1.482
575.0,1.456
576.0,1.443
577.0,1.459
578.0,1.438
579.0,1.443
580.0,1.47
581.0,1.477
582.0,1.505
583.0,1.508
584.0,1.522
585.0,1.485
586.0,1.455
587.0,1.488
588.0,1.456
589.0,1.295
590.0,1.355
591.0,1.431
592.0,1.415
593.0,1.435
594.0,1.427
595.0,1.394
596.0,1.445
597.0,1.431
598.0,1.427
599.0,1.429
600.0,1.43
601.0,1.418
602.0,1.409
603.0,1.433
604.0,1.457
605.0,1.45
606.0,1.444
607.0,1.458
608.0,1.442
609.0,1.445
610.0,1.435
611.0,1.443
612.0,1.439
613.0,1.421
614.0,1.402
615.0,1.433
616.0,1.386
617.0,1.383
618.0,1.437
619.0,1.422
620.0,1.432
621.0,1.434
622.0,1.418
623.0,1.397
624.0,1.374
625.0,1.371
626.0,1.392
627.0,1.409
628.0,1.327
629.0,1.38
630.0,1.349
631.0,1.376
632.0,1.36
633.0,1.4
634.0,1.386
635.0,1.407
636.0,1.388
637.0,1.411
638.0,1.424
639.0,1.408
640.0,1.395
641.0,1.394
642.0,1.387
643.0,1.406
644.0,1.402
645.0,1.405
646.0,1.374
647.0,1.361
648.0,1.363
649.0,1.337
650.0,1.34
651.0,1.398
652.0,1.344
653.0,1.38
654.0,1.365
655.0,1.316
656.0,1.165
657.0,1.197
658.0,1.341
659.0,1.35
660.0,1.356
661.0,1.366
662.0,1.369
663.0,1.342
664.0,1.358
665.0,1.358
666.0,1.359
667.0,1.358
668.0,1.359
669.0,1.38
670.0,1.374
671.0,1.374
672.0,1.362
673.0,1.383
674.0,1.378
675.0,1.365
676.0,1.375
677.0,1.361
678.0,1.365
679.0,1.344
680.0,1.355
681.0,1.346
682.0,1.345
683.0,1.342
684.0,1.336
685.0,1.347
686.0,1.34
687.0,0.9355
688.0,1.075
689.0,1.078
690.0,1.124
691.0,1.175
692.0,1.211
693.0,1.202
694.0,1.193
695.0,1.237
696.0,1.239
697.0,1.308
698.0,1.288
699.0,1.262
700.0,1.247
701.0,1.236
702.0,1.243
703.0,1.245
704.0,1.283
705.0,1.285
706.0,1.283
707.0,1.284
708.0,1.287
709.0,1.287
710.0,1.288
711.0,1.286
712.0,1.282
713.0,1.27
714.0,1.275
715.0,1.237
716.0,1.238
717.0,1.091
718.0,1.005
719.0,0.9228
720.0,0.9679
721.0,1.058
722.0,1.199
723.0,1.123
724.0,1.019
725.0,1.005
726.0,1.051
727.0,1.062
728.0,1.003
729.0,1.035
730.0,1.095
731.0,1.05
732.0,1.117
733.0,1.176
734.0,1.203
735.0,1.179
736.0,1.178
737.0,1.183
738.0,1.197
739.0,1.174
740.0,1.203
741.0,1.191
742.0,1.191
743.0,1.222
744.0,1.218
745.0,1.218
746.0,1.224
747.0,1.227
748.0,1.224
749.0,1.21
750.0,1.21
751.0,1.198
752.0,1.203
753.0,1.209
754.0,1.212
755.0,1.206
756.0,1.205
757.0,1.207
758.0,1.192
759.0,1.171
760.0,0.2381
761.0,0.1338
762.0,0.6442
763.0,0.3476
764.0,0.5
765.0,0.6447
766.0,0.7706
767.0,0.9515
768.0,1.082
769.0,1.101
770.0,1.134
771.0,1.142
772.0,1.144
773.0,1.152
774.0,1.146
775.0,1.137
776.0,1.151
777.0,1.136
778.0,1.13
779.0,1.131
780.0,1.125
781.0,1.126
782.0,1.133
783.0,1.113
784.0,1.119
785.0,1.111
786.0,1.123
787.0,1.106
788.0,1.093
789.0,1.093
790.0,1.066
791.0,1.073
792.0,1.065
793.0,1.048
794.0,1.064
795.0,1.083
796.0,1.053
797.0,1.054
798.0,1.082
799.0,1.076
800.0,1.058
801.0,1.056
802.0,1.053
803.0,1.045
804.0,1.046
805.0,1.042
806.0,1.07
807.0,1.058
808.0,1.059
809.0,1.04
810.0,1.033
811.0,1.036
812.0,1.009
813.0,0.9892
814.0,0.8784
815.0,0.8728
816.0,0.8137
817.0,0.8277
818.0,0.7986
819.0,0.8859
820.0,0.8372
821.0,0.969
822.0,0.943
823.0,0.6567
824.0,0.919
825.0,0.953
826.0,0.9199
827.0,0.9677
828.0,0.8292
829.0,0.9139
830.0,0.903
831.0,0.9059
832.0,0.8798
833.0,0.9316
834.0,0.9016
835.0,0.9845
836.0,0.9462
837.0,0.9872
838.0,0.9582
839.0,0.9721
840.0,0.993
841.0,0.9798
842.0,0.9809
843.0,0.9793
844.0,0.9664
845.0,0.9983
846.0,0.9938
847.0,0.9751
848.0,0.9696
849.0,0.9421
850.0,0.9027
851.0,0.9563
852.0,0.9494
853.0,0.9136
854.0,0.7892
855.0,0.8667
856.0,0.9474
857.0,0.9683
858.0,0.9614
859.0,0.9621
860.0,0.9638
861.0,0.9586
862.0,0.9737
863.0,0.9967
864.0,0.947
865.0,0.9387
866.0,0.8441
867.0,0.881
868.0,0.9587
869.0,0.9389
870.0,0.9657
871.0,0.9527
872.0,0.9493
873.0,0.9475
874.0,0.9363
875.0,0.9174
876.0,0.9271
877.0,0.9365
878.0,0.9468
879.0,0.9323
880.0,0.9124
881.0,0.899
882.0,0.9186
883.0,0.9213
884.0,0.9172
885.0,0.9242
886.0,0.8817
887.0,0.8905
888.0,0.9041
889.0,0.9138
890.0,0.907
891.0,0.9051
892.0,0.88
893.0,0.8538
894.0,0.8262
895.0,0.7837
896.0,0.7396
897.0,0.6394
898.0,0.6955
899.0,0.534
900.0,0.7098
901.0,0.5595
902.0,0.6503
903.0,0.6588
904.0,0.8205
905.0,0.7936
906.0,0.7438
907.0,0.6104
908.0,0.6216
909.0,0.6706
910.0,0.5981
911.0,0.6345
912.0,0.6622
913.0,0.6073
914.0,0.6013
915.0,0.6514
916.0,0.5529
917.0,0.6963
918.0,0.5671
919.0,0.7077
920.0,0.7124
921.0,0.7404
922.0,0.6655
923.0,0.7151
924.0,0.6824
925.0,0.6677
926.0,0.675
927.0,0.7524
928.0,0.5613
929.0,0.5149
930.0,0.4084
931.0,0.3864
932.0,0.282
933.0,0.2311
934.0,0.1307
935.0,0.235
936.0,0.1492
937.0,0.1515
938.0,0.1854
939.0,0.3746
940.0,0.448
941.0,0.3416
942.0,0.3934
943.0,0.2614
944.0,0.273
945.0,0.3517
946.0,0.1825
947.0,0.3541
948.0,0.2608
949.0,0.4706
950.0,0.136
951.0,0.4629
952.0,0.2532
953.0,0.3241
954.0,0.3942
955.0,0.3275
956.0,0.3163
957.0,0.2541
958.0,0.4437
959.0,0.356
960.0,0.3989
961.0,0.4451
962.0,0.4215
963.0,0.4835
964.0,0.4438
965.0,0.4816
966.0,0.4822
967.0,0.4804
968.0,0.6359
969.0,0.6649
970.0,0.6117
971.0,0.6967
972.0,0.6672
973.0,0.5845
974.0,0.5553
975.0,0.5751
976.0,0.548
977.0,0.6198
978.0,0.5905
979.0,0.6173
980.0,0.5812
981.0,0.6928
982.0,0.6638
983.0,0.638
984.0,0.7125
985.0,0.6613
986.0,0.7242
987.0,0.711
988.0,0.7097
989.0,0.7215
990.0,0.7055
991.0,0.7239
992.0,0.728
993.0,0.7128
994.0,0.7277
995.0,0.7267
996.0,0.7237
997.0,0.7247
998.0,0.7214
999.0,0.7187
1000.0,0.7139
1001.0,0.7226
1002.0,0.7036
1003.0,0.71
1004.0,0.6928
1005.0,0.6672
1006.0,0.6934
1007.0,0.7081
1008.0,0.7044
1009.0,0.7009
1010.0,0.698
1011.0,0.7046
1012.0,0.6987
1013.0,0.7029
1014.0,0.698
1015.0,0.6934
1016.0,0.6904
1017.0,0.6922
1018.0,0.6895
1019.0,0.6751
1020.0,0.686
1021.0,0.685
1022.0,0.6798
1023.0,0.6871
1024.0,0.6785
1025.0,0.6865
1026.0,0.6837
1027.0,0.6821
1028.0,0.6808
1029.0,0.6728
1030.0,0.6773
1031.0,0.6746
1032.0,0.6727
1033.0,0.6626
1034.0,0.6626
1035.0,0.6647
1036.0,0.6682
1037.0,0.6574
1038.0,0.6603
1039.0,0.66
1040.0,0.6573
1041.0,0.66
1042.0,0.6554
1043.0,0.6534
1044.0,0.6557
1045.0,0.6469
1046.0,0.6398
1047.0,0.6456
1048.0,0.6492
1049.0,0.6469
1050.0,0.6439
1051.0,0.6431
1052.0,0.6405
1053.0,0.6355
1054.0,0.6369
1055.0,0.6374
1056.0,0.6352
1057.0,0.6333
1058.0,0.6178
1059.0,0.6185
1060.0,0.6176
1061.0,0.6169
1062.0,0.6202
1063.0,0.6142
1064.0,0.6215
1065.0,0.6171
1066.0,0.6049
1067.0,0.6127
1068.0,0.5994
1069.0,0.5809
1070.0,0.6007
1071.0,0.6098
1072.0,0.603
1073.0,0.5942
1074.0,0.6093
1075.0,0.5797
1076.0,0.6089
1077.0,0.5985
1078.0,0.5874
1079.0,0.5991
1080.0,0.5894
1081.0,0.5709
1082.0,0.5793
1083.0,0.5809
1084.0,0.5698
1085.0,0.5907
1086.0,0.5405
1087.0,0.5568
1088.0,0.5806
1089.0,0.5636
1090.0,0.5518
1091.0,0.579
1092.0,0.5773
1093.0,0.4921
1094.0,0.5286
1095.0,0.5124
1096.0,0.4914
1097.0,0.564
1098.0,0.484
1099.0,0.5045
1100.0,0.4701
1101.0,0.4757
1102.0,0.4551
1103.0,0.4511
1104.0,0.4517
1105.0,0.4933
1106.0,0.3817
1107.0,0.4694
1108.0,0.4005
1109.0,0.4008
1110.0,0.4656
1111.0,0.3194
1112.0,0.3975
1113.0,0.2567
1114.0,0.2865
1115.0,0.2376
1116.0,0.1918
1117.0,0.07274
1118.0,0.208
1119.0,0.105
1120.0,0.1323
1121.0,0.1745
1122.0,0.07496
1123.0,0.1195
1124.0,0.1009
1125.0,0.1312
1126.0,0.04717
1127.0,0.1478
1128.0,0.09007
1129.0,0.09534
1130.0,0.06338
1131.0,0.2764
1132.0,0.2176
1133.0,0.14
1134.0,0.03699
1135.0,0.0138
1136.0,0.1175
1137.0,0.2722
1138.0,0.1922
1139.0,0.2827
1140.0,0.2377
1141.0,0.1827
1142.0,0.2093
1143.0,0.2955
1144.0,0.1053
1145.0,0.135
1146.0,0.1456
1147.0,0.05278
1148.0,0.2559
1149.0,0.2056
1150.0,0.1131
1151.0,0.1908
1152.0,0.2334
1153.0,0.2264
1154.0,0.1311
1155.0,0.295
1156.0,0.2665
1157.0,0.2977
1158.0,0.2944
1159.0,0.3165
1160.0,0.2718
1161.0,0.3322
1162.0,0.3341
1163.0,0.4462
1164.0,0.3846
1165.0,0.3646
1166.0,0.3608
1167.0,0.3921
1168.0,0.3968
1169.0,0.4056
1170.0,0.4392
1171.0,0.4285
1172.0,0.4353
1173.0,0.4383
1174.0,0.3175
1175.0,0.4274
1176.0,0.4676
1177.0,0.4504
1178.0,0.3418
1179.0,0.4713
1180.0,0.4233
1181.0,0.4366
1182.0,0.3052
1183.0,0.4293
1184.0,0.4037
1185.0,0.3907
1186.0,0.4592
1187.0,0.4387
1188.0,0.3108
1189.0,0.409
1190.0,0.4488
1191.0,0.4283
1192.0,0.4548
1193.0,0.4366
1194.0,0.4495
1195.0,0.4267
1196.0,0.412
1197.0,0.4489
1198.0,0.4119
1199.0,0.3539
1200.0,0.4313
1201.0,0.4172
1202.0,0.4141
1203.0,0.4107
1204.0,0.3611
1205.0,0.4227
1206.0,0.4649
1207.0,0.4134
1208.0,0.4058
1209.0,0.4139
1210.0,0.4304
1211.0,0.4113
1212.0,0.408
1213.0,0.4504
1214.0,0.417
1215.0,0.4094
1216.0,0.4489
1217.0,0.4378
1218.0,0.4454
1219.0,0.4403
1220.0,0.4457
1221.0,0.4498
1222.0,0.4385
1223.0,0.4348
1224.0,0.4326
1225.0,0.447
1226.0,0.4495
1227.0,0.4166
1228.0,0.4514
1229.0,0.4496
1230.0,0.4423
1231.0,0.4536
1232.0,0.451
1233.0,0.4371
1234.0,0.453
1235.0,0.4503
1236.0,0.4534
1237.0,0.4477
1238.0,0.4519
1239.0,0.4461
1240.0,0.4477
1241.0,0.446
1242.0,0.4447
1243.0,0.4411
1244.0,0.4444
1245.0,0.4462
1246.0,0.4436
1247.0,0.442
1248.0,0.4419
1249.0,0.4431
1250.0,0.4405
1251.0,0.4351
1252.0,0.4349
1253.0,0.4319
1254.0,0.428
1255.0,0.4346
1256.0,0.4234
1257.0,0.4213
1258.0,0.4284
1259.0,0.4144
1260.0,0.4164
1261.0,0.3949
1262.0,0.3841
1263.0,0.3849
1264.0,0.3576
1265.0,0.3824
1266.0,0.3693
1267.0,0.3749
1268.0,0.3571
1269.0,0.2317
1270.0,0.3739
1271.0,0.3934
1272.0,0.3945
1273.0,0.3905
1274.0,0.3915
1275.0,0.3968
1276.0,0.4003
1277.0,0.4025
1278.0,0.4095
1279.0,0.4059
1280.0,0.4007
1281.0,0.382
1282.0,0.3674
1283.0,0.3959
1284.0,0.4055
1285.0,0.408
1286.0,0.4132
1287.0,0.4075
1288.0,0.4072
1289.0,0.3955
1290.0,0.4035
1291.0,0.409
1292.0,0.3865
1293.0,0.4016
1294.0,0.3989
1295.0,0.3975
1296.0,0.381
1297.0,0.3615
1298.0,0.3868
1299.0,0.4019
1300.0,0.3441
1301.0,0.3539
1302.0,0.3855
1303.0,0.3391
1304.0,0.2928
1305.0,0.3779
1306.0,0.3782
1307.0,0.2979
1308.0,0.3391
1309.0,0.3756
1310.0,0.2924
1311.0,0.3259
1312.0,0.3177
1313.0,0.3121
1314.0,0.2806
1315.0,0.2778
1316.0,0.3214
1317.0,0.3048
1318.0,0.3299
1319.0,0.2619
1320.0,0.2529
1321.0,0.2932
1322.0,0.2967
1323.0,0.2266
1324.0,0.2569
1325.0,0.317
1326.0,0.2742
1327.0,0.2621
1328.0,0.227
1329.0,0.1732
1330.0,0.2241
1331.0,0.1384
1332.0,0.1418
1333.0,0.1967
1334.0,0.1652
1335.0,0.2258
1336.0,0.1801
1337.0,0.1601
1338.0,0.1732
1339.0,0.172
1340.0,0.1665
1341.0,0.1644
1342.0,0.1726
1343.0,0.1205
1344.0,0.072
1345.0,0.1036
1346.0,0.05379
1347.0,0.05509
1348.0,0.004006
1349.0,0.01393
1350.0,0.01413
1351.0,0.003806
1352.0,0.001148
1353.0,6.638e-05
1354.0,0.0002113
1355.0,2.198e-06
1356.0,3.274e-05
1357.0,4.972e-05
1358.0,2.577e-06
1359.0,3.932e-07
1360.0,1.262e-06
1361.0,2.119e-09
1362.0,6.932e-12
1363.0,1.805e-06
1364.0,7.581e-07
1365.0,3.033e-12
1366.0,7.502e-06
1367.0,2.981e-06
1368.0,3.628e-14
1369.0,2.867e-07
1370.0,1.533e-07
1371.0,9.633e-09
1372.0,1.641e-06
1373.0,2.91e-05
1374.0,0.0001239
1375.0,0.0002258
1376.0,0.0001893
1377.0,8.849e-05
1378.0,0.0008318
1379.0,3.734e-05
1380.0,5.672e-05
1381.0,1.568e-06
1382.0,1.514e-06
1383.0,2.45e-08
1384.0,3.348e-07
1385.0,1.31e-06
1386.0,1.426e-06
1387.0,0.0001354
1388.0,2.695e-06
1389.0,0.0004178
1390.0,0.0003598
1391.0,0.0002449
1392.0,1.645e-05
1393.0,8.32e-05
1394.0,4.945e-05
1395.0,4.044e-07
1396.0,2.894e-09
1397.0,3.434e-05
1398.0,0.0009429
1399.0,0.0005973
1400.0,1.39e-09
1401.0,5.01e-09
1402.0,0.001481
1403.0,0.001902
1404.0,0.0005853
1405.0,2.11e-07
1406.0,0.001579
1407.0,0.0001364
1408.0,0.001284
1409.0,0.0004593
1410.0,0.0003537
1411.0,0.001666
1412.0,0.002182
1413.0,0.02063
1414.0,0.0002771
1415.0,0.0001371
1416.0,0.03248
1417.0,0.01025
1418.0,0.01173
1419.0,0.001839
1420.0,0.00719
1421.0,0.007783
1422.0,0.04229
1423.0,0.008302
1424.0,0.01546
1425.0,0.02291
1426.0,0.02563
1427.0,0.04632
1428.0,0.003797
1429.0,0.035
1430.0,0.05878
1431.0,0.06436
1432.0,0.002999
1433.0,0.04121
1434.0,0.0211
1435.0,0.02154
1436.0,0.04088
1437.0,0.03132
1438.0,0.01342
1439.0,0.05529
1440.0,0.04144
1441.0,0.0319
1442.0,0.03534
1443.0,0.04391
1444.0,0.06063
1445.0,0.04779
1446.0,0.0216
1447.0,0.03401
1448.0,0.1129
1449.0,0.09835
1450.0,0.02521
1451.0,0.0102
1452.0,0.05945
1453.0,0.07794
1454.0,0.1332
1455.0,0.06302
1456.0,0.08481
1457.0,0.1134
1458.0,0.1334
1459.0,0.1579
1460.0,0.08234
1461.0,0.08612
1462.0,0.1261
1463.0,0.04088
1464.0,0.1492
