interpolation:linear
wavelength,value
280.0,3.1469999999999996e-23
280.5,9.400999999999999e-22
281.0,4.957e-21
281.5,1.441e-19
282.0,1.099e-18
282.5,4.096e-18
283.0,1.75e-17
283.5,3.247e-17
284.0,7.636e-16
284.5,2.526e-15
285.0,5.653e-15
285.5,4.115e-14
286.0,1.888e-13
286.5,1.035e-12
287.0,3.364e-12
287.5,1.474e-11
288.0,6.267e-11
288.5,2.413e-10
289.0,7.823e-10
289.5,2.805e-09
290.0,8.825e-09
290.5,1.988e-08
291.0,4.729e-08
291.5,1.513e-07
292.0,3.749e-07
292.5,5.57e-07
293.0,1.27e-06
293.5,3.308e-06
294.0,5.468e-06
294.5,9.53e-06
295.0,1.656e-05
295.5,3.94e-05
296.0,7.006e-05
296.5,9.025e-05
297.0,0.0001142
297.5,0.0002756
298.0,0.0003971
298.5,0.0003727
299.0,0.0007676
299.5,0.001123
300.0,0.001155
300.5,0.001559
301.0,0.002506
301.5,0.003589
302.0,0.002918
302.5,0.005438
303.0,0.009171
303.5,0.0111
304.0,0.01015
304.5,0.01393
305.0,0.01877
305.5,0.02002
306.0,0.01892
306.5,0.02255
307.0,0.03021
307.5,0.03647
308.0,0.03811
308.5,0.04307
309.0,0.03813
309.5,0.0418
310.0,0.04122
310.5,0.06633
311.0,0.08195
311.5,0.07879
312.0,0.07544
312.5,0.08924
313.0,0.09558
313.5,0.09488
314.0,0.1144
314.5,0.09627
315.0,0.1258
315.5,0.1088
316.0,0.09109
316.5,0.1261
317.0,0.1574
317.5,0.1666
318.0,0.1268
318.5,0.1495
319.0,0.1732
319.5,0.1485
320.0,0.1815
320.5,0.2153
321.0,0.1826
321.5,0.1749
322.0,0.1982
322.5,0.1727
323.0,0.1664
323.5,0.1927
324.0,0.2243
324.5,0.2328
325.0,0.2116
325.5,0.2651
326.0,0.3132
326.5,0.3078
327.0,0.3107
327.5,0.3045
328.0,0.2806
328.5,0.2855
329.0,0.3335
329.5,0.3767
330.0,0.3843
330.5,0.3157
331.0,0.3253
331.5,0.3265
332.0,0.3457
332.5,0.3395
333.0,0.342
333.5,0.3163
334.0,0.3262
334.5,0.3702
335.0,0.3452
335.5,0.3924
336.0,0.2724
336.5,0.3321
337.0,0.2757
337.5,0.3452
338.0,0.3328
338.5,0.3761
339.0,0.3755
339.5,0.361
340.0,0.4355
340.5,0.3932
341.0,0.3777
341.5,0.3509
342.0,0.4215
342.5,0.3963
343.0,0.4354
343.5,0.41
344.0,0.3082
344.5,0.3055
345.0,0.4098
345.5,0.4211
346.0,0.3596
346.5,0.4089
347.0,0.4389
347.5,0.3554
348.0,0.408
348.5,0.4099
349.0,0.3815
349.5,0.3786
350.0,0.4697
350.5,0.4969
351.0,0.4445
351.5,0.4312
352.0,0.4659
352.5,0.3653
353.0,0.4618
353.5,0.4954
354.0,0.516
354.5,0.5248
355.0,0.5243
355.5,0.4749
356.0,0.4983
356.5,0.4267
357.0,0.3535
357.5,0.434
358.0,0.3449
358.5,0.2956
359.0,0.4145
359.5,0.5293
360.0,0.5627
360.5,0.451
361.0,0.4121
361.5,0.4755
362.0,0.412
362.5,0.5713
363.0,0.5141
363.5,0.4746
364.0,0.5816
364.5,0.4983
365.0,0.5086
365.5,0.6398
366.0,0.6793
366.5,0.6395
367.0,0.6242
367.5,0.6493
368.0,0.5694
368.5,0.5757
369.0,0.623
369.5,0.6655
370.0,0.7109
370.5,0.5529
371.0,0.592
371.5,0.7422
372.0,0.4937
372.5,0.5932
373.0,0.6045
373.5,0.3941
374.0,0.5737
374.5,0.476
375.0,0.4637
375.5,0.6938
376.0,0.5763
376.5,0.5985
377.0,0.6348
377.5,0.744
378.0,0.8082
378.5,0.7656
379.0,0.6332
379.5,0.5798
380.0,0.604
380.5,0.7329
381.0,0.7358
381.5,0.5843
382.0,0.5198
382.5,0.4438
383.0,0.4116
383.5,0.3971
384.0,0.4388
384.5,0.6466
385.0,0.6423
385.5,0.5991
386.0,0.514
386.5,0.6763
387.0,0.563
387.5,0.6335
388.0,0.5859
388.5,0.5801
389.0,0.6273
389.5,0.761
390.0,0.765
390.5,0.7052
391.0,0.8315
391.5,0.8496
392.0,0.7168
392.5,0.6427
393.0,0.3581
393.5,0.2607
394.0,0.5313
394.5,0.6765
395.0,0.8268
395.5,0.8413
396.0,0.7305
396.5,0.4276
397.0,0.3214
397.5,0.6546
398.0,0.9183
398.5,0.9506
399.0,1.03
399.5,1.029
400.0,1.07
401.0,1.101
402.0,1.165
403.0,1.109
404.0,1.095
405.0,1.098
406.0,1.083
407.0,1.068
408.0,1.112
409.0,1.193
410.0,1.045
411.0,1.134
412.0,1.221
413.0,1.193
414.0,1.211
415.0,1.216
416.0,1.24
417.0,1.212
418.0,1.192
419.0,1.211
420.0,1.208
421.0,1.266
422.0,1.206
423.0,1.181
424.0,1.252
425.0,1.252
426.0,1.221
427.0,1.2
428.0,1.172
429.0,1.111
430.0,0.9741
431.0,0.9678
432.0,1.251
433.0,1.261
434.0,1.173
435.0,1.227
436.0,1.384
437.0,1.367
438.0,1.247
439.0,1.293
440.0,1.336
441.0,1.386
442.0,1.489
443.0,1.453
444.0,1.486
445.0,1.457
446.0,1.392
447.0,1.506
448.0,1.533
449.0,1.54
450.0,1.585
451.0,1.647
452.0,1.589
453.0,1.496
454.0,1.563
455.0,1.575
456.0,1.615
457.0,1.644
458.0,1.591
459.0,1.585
460.0,1.592
461.0,1.63
462.0,1.644
463.0,1.635
464.0,1.609
465.0,1.59
466.0,1.606
467.0,1.58
468.0,1.6
469.0,1.611
470.0,1.562
471.0,1.561
472.0,1.647
473.0,1.628
474.0,1.634
475.0,1.651
476.0,1.605
477.0,1.612
478.0,1.658
479.0,1.649
480.0,1.654
481.0,1.685
482.0,1.695
483.0,1.675
484.0,1.642
485.0,1.565
486.0,1.369
487.0,1.436
488.0,1.577
489.0,1.584
490.0,1.668
491.0,1.64
492.0,1.55
493.0,1.602
494.0,1.62
495.0,1.635
496.0,1.647
497.0,1.674
498.0,1.597
499.0,1.619
500.0,1.575
501.0,1.548
502.0,1.529
503.0,1.595
504.0,1.561
505.0,1.614
506.0,1.667
507.0,1.588
508.0,1.538
509.0,1.582
510.0,1.574
511.0,1.616
512.0,1.634
513.0,1.548
514.0,1.538
515.0,1.524
516.0,1.522
517.0,1.353
518.0,1.424
519.0,1.494
520.0,1.55
521.0,1.566
522.0,1.569
523.0,1.542
524.0,1.599
525.0,1.621
526.0,1.55
527.0,1.462
528.0,1.548
529.0,1.634
530.0,1.612
531.0,1.637
532.0,1.582
533.0,1.537
534.0,1.583
535.0,1.618
536.0,1.633
537.0,1.569
538.0,1.598
539.0,1.585
540.0,1.521
541.0,1.534
542.0,1.583
543.0,1.567
544.0,1.596
545.0,1.591
546.0,1.6
547.0,1.6
548.0,1.581
549.0,1.586
550.0,1.606
551.0,1.587
552.0,1.599
553.0,1.572
554.0,1.61
555.0,1.615
556.0,1.595
557.0,1.546
558.0,1.536
559.0,1.509
560.0,1.529
561.0,1.551
562.0,1.541
563.0,1.585
564.0,1.544
565.0,1.532
566.0,1.511
567.0,1.541
568.0,1.53
569.0,1.5
570.0,1.499
571.0,1.49
572.0,1.529
573.0,1.547
574.0,1.543
575.0,1.516
576.0,1.503
577.0,1.52
578.0,1.496
579.0,1.5
580.0,1.526
581.0,1.532
582.0,1.56
583.0,1.562
584.0,1.575
585.0,1.537
586.0,1.506
587.0,1.541
588.0,1.51
589.0,1.35
590.0,1.412
591.0,1.487
592.0,1.473
593.0,1.49
594.0,1.483
595.0,1.451
596.0,1.499
597.0,1.486
598.0,1.48
599.0,1.48
600.0,1.48
601.0,1.467
602.0,1.457
603.0,1.481
604.0,1.506
605.0,1.498
606.0,1.491
607.0,1.506
608.0,1.489
609.0,1.491
610.0,1.48
611.0,1.487
612.0,1.483
613.0,1.464
614.0,1.444
615.0,1.475
616.0,1.426
617.0,1.424
618.0,1.478
619.0,1.464
620.0,1.473
621.0,1.476
622.0,1.46
623.0,1.439
624.0,1.414
625.0,1.411
626.0,1.433
627.0,1.451
628.0,1.381
629.0,1.426
630.0,1.395
631.0,1.418
632.0,1.4
633.0,1.44
634.0,1.423
635.0,1.445
636.0,1.424
637.0,1.447
638.0,1.459
639.0,1.442
640.0,1.428
641.0,1.426
642.0,1.419
643.0,1.439
644.0,1.433
645.0,1.437
646.0,1.406
647.0,1.397
648.0,1.399
649.0,1.373
650.0,1.371
651.0,1.429
652.0,1.38
653.0,1.411
654.0,1.395
655.0,1.348
656.0,1.191
657.0,1.223
658.0,1.369
659.0,1.378
660.0,1.383
661.0,1.393
662.0,1.398
663.0,1.37
664.0,1.384
665.0,1.383
666.0,1.384
667.0,1.382
668.0,1.382
669.0,1.403
670.0,1.397
671.0,1.397
672.0,1.385
673.0,1.405
674.0,1.4
675.0,1.387
676.0,1.397
677.0,1.383
678.0,1.387
679.0,1.364
680.0,1.375
681.0,1.366
682.0,1.365
683.0,1.362
684.0,1.356
685.0,1.367
686.0,1.36
687.0,1.014
688.0,1.134
689.0,1.137
690.0,1.175
691.0,1.217
692.0,1.246
693.0,1.238
694.0,1.228
695.0,1.266
696.0,1.268
697.0,1.329
698.0,1.309
699.0,1.289
700.0,1.273
701.0,1.264
702.0,1.269
703.0,1.271
704.0,1.306
705.0,1.308
706.0,1.304
707.0,1.305
708.0,1.308
709.0,1.306
710.0,1.308
711.0,1.305
712.0,1.3
713.0,1.288
714.0,1.293
715.0,1.257
716.0,1.259
717.0,1.133
718.0,1.049
719.0,0.9657
720.0,1.014
721.0,1.094
722.0,1.223
723.0,1.154
724.0,1.056
725.0,1.045
726.0,1.091
727.0,1.097
728.0,1.045
729.0,1.069
730.0,1.13
731.0,1.087
732.0,1.147
733.0,1.199
734.0,1.224
735.0,1.201
736.0,1.199
737.0,1.205
738.0,1.214
739.0,1.19
740.0,1.218
741.0,1.205
742.0,1.204
743.0,1.234
744.0,1.23
745.0,1.23
746.0,1.235
747.0,1.238
748.0,1.236
749.0,1.222
750.0,1.221
751.0,1.209
752.0,1.214
753.0,1.22
754.0,1.223
755.0,1.216
756.0,1.216
757.0,1.218
758.0,1.203
759.0,1.184
760.0,0.3193
761.0,0.1987
762.0,0.7218
763.0,0.4359
764.0,0.5873
765.0,0.7225
766.0,0.8306
767.0,0.9938
768.0,1.105
769.0,1.119
770.0,1.147
771.0,1.152
772.0,1.153
773.0,1.161
774.0,1.155
775.0,1.146
776.0,1.16
777.0,1.145
778.0,1.138
779.0,1.139
780.0,1.133
781.0,1.134
782.0,1.141
783.0,1.122
784.0,1.127
785.0,1.119
786.0,1.132
787.0,1.117
788.0,1.105
789.0,1.105
790.0,1.082
791.0,1.086
792.0,1.077
793.0,1.06
794.0,1.072
795.0,1.092
796.0,1.067
797.0,1.069
798.0,1.092
799.0,1.086
800.0,1.07
801.0,1.068
802.0,1.065
803.0,1.058
804.0,1.059
805.0,1.053
806.0,1.079
807.0,1.067
808.0,1.068
809.0,1.051
810.0,1.044
811.0,1.05
812.0,1.026
813.0,1.009
814.0,0.9084
815.0,0.9023
816.0,0.8433
817.0,0.856
818.0,0.8287
819.0,0.9081
820.0,0.8626
821.0,0.9834
822.0,0.9595
823.0,0.6933
824.0,0.9401
825.0,0.968
826.0,0.9388
827.0,0.9828
828.0,0.8558
829.0,0.9318
830.0,0.9222
831.0,0.9246
832.0,0.9005
833.0,0.9461
834.0,0.9202
835.0,0.9951
836.0,0.9624
837.0,0.9974
838.0,0.9707
839.0,0.9816
840.0,1.002
841.0,0.9898
842.0,0.9891
843.0,0.9857
844.0,0.9737
845.0,1.004
846.0,0.9997
847.0,0.9802
848.0,0.9755
849.0,0.9479
850.0,0.9081
851.0,0.9629
852.0,0.9556
853.0,0.9188
854.0,0.7943
855.0,0.8714
856.0,0.9529
857.0,0.9734
858.0,0.9666
859.0,0.967
860.0,0.9684
861.0,0.9633
862.0,0.9783
863.0,1.001
864.0,0.9514
865.0,0.943
866.0,0.848
867.0,0.885
868.0,0.963
869.0,0.9431
870.0,0.97
871.0,0.9569
872.0,0.9535
873.0,0.9516
874.0,0.9403
875.0,0.9214
876.0,0.9311
877.0,0.9405
878.0,0.951
879.0,0.9364
880.0,0.9164
881.0,0.9033
882.0,0.9231
883.0,0.9255
884.0,0.9215
885.0,0.9286
886.0,0.8872
887.0,0.895
888.0,0.9094
889.0,0.9178
890.0,0.9125
891.0,0.9098
892.0,0.8865
893.0,0.8626
894.0,0.8394
895.0,0.8023
896.0,0.7603
897.0,0.666
898.0,0.7192
899.0,0.5631
900.0,0.7289
901.0,0.5894
902.0,0.6709
903.0,0.6841
904.0,0.8336
905.0,0.809
906.0,0.7606
907.0,0.6369
908.0,0.647
909.0,0.6916
910.0,0.628
911.0,0.6597
912.0,0.6857
913.0,0.6381
914.0,0.6299
915.0,0.6808
916.0,0.5819
917.0,0.7198
918.0,0.597
919.0,0.729
920.0,0.7286
921.0,0.7555
922.0,0.6871
923.0,0.7293
924.0,0.7048
925.0,0.69
926.0,0.6974
927.0,0.7695
928.0,0.5965
929.0,0.5532
930.0,0.449
931.0,0.4229
932.0,0.3189
933.0,0.2673
934.0,0.1638
935.0,0.2669
936.0,0.1773
937.0,0.1813
938.0,0.2186
939.0,0.41
940.0,0.4833
941.0,0.3783
942.0,0.4292
943.0,0.2931
944.0,0.2994
945.0,0.3878
946.0,0.2121
947.0,0.3932
948.0,0.2916
949.0,0.5117
950.0,0.1657
951.0,0.5014
952.0,0.289
953.0,0.3604
954.0,0.4279
955.0,0.363
956.0,0.3464
957.0,0.2915
958.0,0.4704
959.0,0.3886
960.0,0.435
961.0,0.477
962.0,0.4529
963.0,0.5122
964.0,0.4727
965.0,0.5091
966.0,0.5117
967.0,0.5104
968.0,0.651
969.0,0.682
970.0,0.6313
971.0,0.7081
972.0,0.6802
973.0,0.6068
974.0,0.5783
975.0,0.5944
976.0,0.5721
977.0,0.636
978.0,0.6105
979.0,0.6346
980.0,0.5999
981.0,0.7036
982.0,0.678
983.0,0.6541
984.0,0.7193
985.0,0.6753
986.0,0.7286
987.0,0.718
988.0,0.7167
989.0,0.7243
990.0,0.7121
991.0,0.727
992.0,0.7308
993.0,0.7182
994.0,0.7303
995.0,0.7289
996.0,0.7262
997.0,0.7271
998.0,0.7239
999.0,0.7211
1000.0,0.7169
1001.0,0.7249
1002.0,0.7085
1003.0,0.7124
1004.0,0.6959
1005.0,0.6692
1006.0,0.696
1007.0,0.7104
1008.0,0.7072
1009.0,0.7042
1010.0,0.7016
1011.0,0.7068
1012.0,0.7014
1013.0,0.7049
1014.0,0.7
1015.0,0.6955
1016.0,0.6925
1017.0,0.6944
1018.0,0.6914
1019.0,0.678
1020.0,0.688
1021.0,0.6868
1022.0,0.682
1023.0,0.6894
1024.0,0.6818
1025.0,0.6885
1026.0,0.6859
1027.0,0.6843
1028.0,0.683
1029.0,0.675
1030.0,0.6792
1031.0,0.6767
1032.0,0.6746
1033.0,0.6645
1034.0,0.6645
1035.0,0.6666
1036.0,0.6702
1037.0,0.6593
1038.0,0.6623
1039.0,0.662
1040.0,0.6594
1041.0,0.6621
1042.0,0.6575
1043.0,0.6555
1044.0,0.6579
1045.0,0.6491
1046.0,0.6421
1047.0,0.6479
1048.0,0.6516
1049.0,0.6494
1050.0,0.6465
1051.0,0.6458
1052.0,0.6433
1053.0,0.6384
1054.0,0.6399
1055.0,0.6405
1056.0,0.6385
1057.0,0.6367
1058.0,0.6213
1059.0,0.6222
1060.0,0.6213
1061.0,0.6207
1062.0,0.6242
1063.0,0.6182
1064.0,0.6255
1065.0,0.6215
1066.0,0.6089
1067.0,0.6169
1068.0,0.6038
1069.0,0.5849
1070.0,0.6051
1071.0,0.6133
1072.0,0.6072
1073.0,0.5983
1074.0,0.6124
1075.0,0.5855
1076.0,0.6121
1077.0,0.6033
1078.0,0.5927
1079.0,0.6018
1080.0,0.5941
1081.0,0.5768
1082.0,0.5829
1083.0,0.584
1084.0,0.5765
1085.0,0.5951
1086.0,0.5492
1087.0,0.5623
1088.0,0.5841
1089.0,0.5697
1090.0,0.5598
1091.0,0.5832
1092.0,0.581
1093.0,0.5037
1094.0,0.5329
1095.0,0.523
1096.0,0.5042
1097.0,0.5674
1098.0,0.4974
1099.0,0.5171
1100.0,0.4859
1101.0,0.4904
1102.0,0.4714
1103.0,0.4691
1104.0,0.4694
1105.0,0.5064
1106.0,0.4066
1107.0,0.4848
1108.0,0.4226
1109.0,0.4211
1110.0,0.4819
1111.0,0.3428
1112.0,0.417
1113.0,0.2822
1114.0,0.3133
1115.0,0.2603
1116.0,0.2183
1117.0,0.09241
1118.0,0.2334
1119.0,0.1253
1120.0,0.1578
1121.0,0.2034
1122.0,0.09393
1123.0,0.1424
1124.0,0.1203
1125.0,0.1546
1126.0,0.06224
1127.0,0.1737
1128.0,0.1129
1129.0,0.1183
1130.0,0.08208
1131.0,0.3085
1132.0,0.246
1133.0,0.1669
1134.0,0.04993
1135.0,0.0184
1136.0,0.1432
1137.0,0.3061
1138.0,0.2184
1139.0,0.3053
1140.0,0.2629
1141.0,0.2075
1142.0,0.2343
1143.0,0.3242
1144.0,0.124
1145.0,0.1607
1146.0,0.1734
1147.0,0.06992
1148.0,0.2809
1149.0,0.2307
1150.0,0.1329
1151.0,0.2169
1152.0,0.2594
1153.0,0.2473
1154.0,0.1578
1155.0,0.3188
1156.0,0.291
1157.0,0.3209
1158.0,0.3172
1159.0,0.3369
1160.0,0.2944
1161.0,0.3509
1162.0,0.3535
1163.0,0.4578
1164.0,0.4
1165.0,0.3839
1166.0,0.3768
1167.0,0.4067
1168.0,0.4125
1169.0,0.4197
1170.0,0.4505
1171.0,0.4403
1172.0,0.445
1173.0,0.4496
1174.0,0.3371
1175.0,0.4368
1176.0,0.4727
1177.0,0.4586
1178.0,0.3567
1179.0,0.4762
1180.0,0.4335
1181.0,0.4464
1182.0,0.3214
1183.0,0.4377
1184.0,0.4146
1185.0,0.4039
1186.0,0.4661
1187.0,0.4478
1188.0,0.3279
1189.0,0.4182
1190.0,0.4555
1191.0,0.4391
1192.0,0.4611
1193.0,0.4443
1194.0,0.4562
1195.0,0.4362
1196.0,0.4231
1197.0,0.4539
1198.0,0.419
1199.0,0.3672
1200.0,0.4391
1201.0,0.4272
1202.0,0.4226
1203.0,0.4192
1204.0,0.3728
1205.0,0.4293
1206.0,0.4681
1207.0,0.4226
1208.0,0.4127
1209.0,0.4204
1210.0,0.4355
1211.0,0.4189
1212.0,0.4184
1213.0,0.455
1214.0,0.4261
1215.0,0.4192
1216.0,0.4534
1217.0,0.4435
1218.0,0.4499
1219.0,0.4453
1220.0,0.4501
1221.0,0.4534
1222.0,0.4429
1223.0,0.4396
1224.0,0.4384
1225.0,0.4506
1226.0,0.4524
1227.0,0.4227
1228.0,0.4535
1229.0,0.4524
1230.0,0.4457
1231.0,0.455
1232.0,0.4525
1233.0,0.4411
1234.0,0.4538
1235.0,0.4515
1236.0,0.4543
1237.0,0.4497
1238.0,0.4528
1239.0,0.447
1240.0,0.4485
1241.0,0.4474
1242.0,0.4456
1243.0,0.4419
1244.0,0.4454
1245.0,0.4471
1246.0,0.4444
1247.0,0.443
1248.0,0.4432
1249.0,0.4441
1250.0,0.4418
1251.0,0.4367
1252.0,0.436
1253.0,0.434
1254.0,0.4307
1255.0,0.436
1256.0,0.4264
1257.0,0.4246
1258.0,0.4304
1259.0,0.419
1260.0,0.4207
1261.0,0.4024
1262.0,0.3931
1263.0,0.394
1264.0,0.3703
1265.0,0.3914
1266.0,0.3805
1267.0,0.3845
1268.0,0.3689
1269.0,0.2589
1270.0,0.3841
1271.0,0.4004
1272.0,0.4011
1273.0,0.3974
1274.0,0.398
1275.0,0.4027
1276.0,0.4056
1277.0,0.4071
1278.0,0.4127
1279.0,0.4092
1280.0,0.4039
1281.0,0.3844
1282.0,0.3688
1283.0,0.3975
1284.0,0.4074
1285.0,0.4098
1286.0,0.4144
1287.0,0.4097
1288.0,0.4092
1289.0,0.3995
1290.0,0.4054
1291.0,0.4104
1292.0,0.3918
1293.0,0.404
1294.0,0.4015
1295.0,0.401
1296.0,0.3869
1297.0,0.3693
1298.0,0.3911
1299.0,0.4039
1300.0,0.3531
1301.0,0.3616
1302.0,0.3896
1303.0,0.3472
1304.0,0.3068
1305.0,0.3825
1306.0,0.3831
1307.0,0.3097
1308.0,0.3461
1309.0,0.381
1310.0,0.3043
1311.0,0.3342
1312.0,0.3269
1313.0,0.3222
1314.0,0.2923
1315.0,0.2908
1316.0,0.3307
1317.0,0.3145
1318.0,0.3374
1319.0,0.2765
1320.0,0.2651
1321.0,0.3044
1322.0,0.3092
1323.0,0.2433
1324.0,0.2711
1325.0,0.3265
1326.0,0.287
1327.0,0.2754
1328.0,0.2409
1329.0,0.1899
1330.0,0.2426
1331.0,0.1577
1332.0,0.1589
1333.0,0.2181
1334.0,0.1803
1335.0,0.2422
1336.0,0.1971
1337.0,0.1778
1338.0,0.1918
1339.0,0.1896
1340.0,0.1816
1341.0,0.1837
1342.0,0.1925
1343.0,0.1444
1344.0,0.08622
1345.0,0.1225
1346.0,0.07077
1347.0,0.07361
1348.0,0.007044
1349.0,0.02248
1350.0,0.02149
1351.0,0.007363
1352.0,0.002802
1353.0,0.0002187
1354.0,0.0005833
1355.0,1.078e-05
1356.0,0.000111
1357.0,0.0001664
1358.0,1.235e-05
1359.0,2.828e-06
1360.0,6.995e-06
1361.0,2.896e-08
1362.0,1.455e-10
1363.0,1.08e-05
1364.0,4.842e-06
1365.0,1.002e-10
1366.0,4.003e-05
1367.0,1.544e-05
1368.0,3.024e-12
1369.0,1.899e-06
1370.0,1.201e-06
1371.0,9.602e-08
1372.0,8.571e-06
1373.0,0.0001123
1374.0,0.0003921
1375.0,0.0007012
1376.0,0.0005181
1377.0,0.0002548
1378.0,0.002123
1379.0,0.0001094
1380.0,0.0001844
1381.0,5.946e-06
1382.0,8.28e-06
1383.0,1.644e-07
1384.0,2.356e-06
1385.0,5.988e-06
1386.0,8.713e-06
1387.0,0.0004675
1388.0,1.007e-05
1389.0,0.001184
1390.0,0.001012
1391.0,0.0007296
1392.0,5.424e-05
1393.0,0.0002434
1394.0,0.000193
1395.0,2.089e-06
1396.0,3.526e-08
1397.0,0.0001093
1398.0,0.002433
1399.0,0.001549
1400.0,2.114e-08
1401.0,5.602e-08
1402.0,0.003005
1403.0,0.00402
1404.0,0.001264
1405.0,1.264e-06
1406.0,0.003641
1407.0,0.0003116
1408.0,0.002935
1409.0,0.001213
1410.0,0.0008759
1411.0,0.003497
1412.0,0.004275
1413.0,0.03192
1414.0,0.0006766
1415.0,0.000361
1416.0,0.04472
1417.0,0.01642
1418.0,0.01876
1419.0,0.003072
1420.0,0.01162
1421.0,0.01283
1422.0,0.05744
1423.0,0.01197
1424.0,0.02173
1425.0,0.03283
1426.0,0.03482
1427.0,0.05826
1428.0,0.006798
1429.0,0.04603
1430.0,0.07244
1431.0,0.07807
1432.0,0.005443
1433.0,0.05185
1434.0,0.02749
1435.0,0.03124
1436.0,0.0542
1437.0,0.04162
1438.0,0.0193
1439.0,0.07099
1440.0,0.05358
1441.0,0.04365
1442.0,0.04769
1443.0,0.05563
1444.0,0.07537
1445.0,0.0623
1446.0,0.02908
1447.0,0.0458
1448.0,0.1303
1449.0,0.1165
1450.0,0.03388
1451.0,0.01452
1452.0,0.07332
1453.0,0.09424
1454.0,0.1503
1455.0,0.07518
1456.0,0.1028
1457.0,0.131
1458.0,0.1479
1459.0,0.1759
1460.0,0.0952
1461.0,0.1022
1462.0,0.1443
1463.0,0.05056
1464.0,0.1656
1465.0,0.1009
1466.0,0.07677
1467.0,0.0437
1468.0,0.08862
