interpolation:linear
wavelength,value
280.0,1.164e-19
280.5,2.063e-18
281.0,8.988e-18
281.5,1.576e-16
282.0,8.846e-16
282.5,2.681e-15
283.0,9.122e-15
283.5,1.511e-14
284.0,2.097e-13
284.5,5.455e-13
285.0,9.417e-13
285.5,5.049e-12
286.0,2.047e-11
286.5,8.695e-11
287.0,2.343e-10
287.5,8.025e-10
288.0,2.503e-09
288.5,8.172e-09
289.0,2.236e-08
289.5,6.649e-08
290.0,1.795e-07
290.5,3.559e-07
291.0,7.257e-07
291.5,1.908e-06
292.0,4.031e-06
292.5,5.474e-06
293.0,1.112e-05
293.5,2.476e-05
294.0,3.681e-05
294.5,5.922e-05
295.0,9.302e-05
295.5,0.0001955
296.0,0.0003192
296.5,0.0003792
297.0,0.0004499
297.5,0.0009929
298.0,0.001331
298.5,0.001183
299.0,0.002317
299.5,0.00313
300.0,0.003086
300.5,0.003996
301.0,0.006051
301.5,0.008259
302.0,0.006561
302.5,0.01173
303.0,0.0188
303.5,0.02212
304.0,0.01992
304.5,0.02645
305.0,0.03412
305.5,0.03543
306.0,0.03312
306.5,0.03885
307.0,0.05036
307.5,0.05902
308.0,0.06129
308.5,0.06828
309.0,0.05976
309.5,0.06354
310.0,0.06178
310.5,0.09865
311.0,0.1205
311.5,0.1152
312.0,0.1079
312.5,0.1258
313.0,0.1336
313.5,0.1333
314.0,0.1581
314.5,0.1304
315.0,0.1697
315.5,0.1478
316.0,0.1218
316.5,0.1663
317.0,0.2075
317.5,0.22
318.0,0.166
318.5,0.1927
319.0,0.2214
319.5,0.1916
320.0,0.2343
320.5,0.2738
321.0,0.2294
321.5,0.2192
322.0,0.251
322.5,0.2182
323.0,0.2084
323.5,0.2381
324.0,0.2763
324.5,0.2877
325.0,0.2634
325.5,0.3276
326.0,0.3835
326.5,0.3746
327.0,0.3783
327.5,0.3712
328.0,0.3442
328.5,0.3468
329.0,0.4023
329.5,0.4533
330.0,0.4624
330.5,0.381
331.0,0.3929
331.5,0.3925
332.0,0.4133
332.5,0.4048
333.0,0.4078
333.5,0.3779
334.0,0.3895
334.5,0.44
335.0,0.4091
335.5,0.4643
336.0,0.3219
336.5,0.3927
337.0,0.3261
337.5,0.4081
338.0,0.392
338.5,0.4422
339.0,0.4409
339.5,0.4235
340.0,0.511
340.5,0.4609
341.0,0.4418
341.5,0.4098
342.0,0.4918
342.5,0.4619
343.0,0.5072
343.5,0.4772
344.0,0.3589
344.5,0.3551
345.0,0.4756
345.5,0.4881
346.0,0.4164
346.5,0.473
347.0,0.5073
347.5,0.4106
348.0,0.4708
348.5,0.4725
349.0,0.4394
349.5,0.4357
350.0,0.54
350.5,0.5707
351.0,0.5103
351.5,0.4947
352.0,0.5339
352.5,0.4183
353.0,0.5282
353.5,0.5663
354.0,0.5894
354.5,0.5991
355.0,0.5981
355.5,0.5413
356.0,0.5675
356.5,0.4856
357.0,0.4021
357.5,0.4934
358.0,0.3918
358.5,0.3356
359.0,0.4702
359.5,0.6002
360.0,0.6376
360.5,0.5107
361.0,0.4664
361.5,0.5375
362.0,0.4653
362.5,0.6446
363.0,0.5797
363.5,0.5346
364.0,0.6547
364.5,0.5605
365.0,0.5718
365.5,0.7188
366.0,0.7625
366.5,0.7174
367.0,0.6998
367.5,0.7274
368.0,0.6375
368.5,0.6442
369.0,0.6967
369.5,0.7437
370.0,0.794
370.5,0.6171
371.0,0.6603
371.5,0.8274
372.0,0.5501
372.5,0.6605
373.0,0.6727
373.5,0.4382
374.0,0.6377
374.5,0.5288
375.0,0.5148
375.5,0.7698
376.0,0.6392
376.5,0.6634
377.0,0.7033
377.5,0.8239
378.0,0.8945
378.5,0.847
379.0,0.7002
379.5,0.6408
380.0,0.6674
380.5,0.8093
381.0,0.8119
381.5,0.6443
382.0,0.5728
382.5,0.4888
383.0,0.453
383.5,0.4368
384.0,0.4825
384.5,0.7105
385.0,0.7054
385.5,0.6577
386.0,0.564
386.5,0.7416
387.0,0.6171
387.5,0.694
388.0,0.6416
388.5,0.6349
389.0,0.6863
389.5,0.8322
390.0,0.8361
390.5,0.7704
391.0,0.9079
391.5,0.9272
392.0,0.782
392.5,0.7008
393.0,0.3903
393.5,0.284
394.0,0.5786
394.5,0.7363
395.0,0.8995
395.5,0.9149
396.0,0.7941
396.5,0.4646
397.0,0.349
397.5,0.7106
398.0,0.9966
398.5,1.031
399.0,1.117
399.5,1.115
400.0,1.159
401.0,1.192
402.0,1.26
403.0,1.199
404.0,1.183
405.0,1.185
406.0,1.167
407.0,1.15
408.0,1.198
409.0,1.284
410.0,1.123
411.0,1.219
412.0,1.31
413.0,1.28
414.0,1.298
415.0,1.303
416.0,1.327
417.0,1.297
418.0,1.275
419.0,1.293
420.0,1.29
421.0,1.351
422.0,1.286
423.0,1.258
424.0,1.333
425.0,1.332
426.0,1.299
427.0,1.276
428.0,1.245
429.0,1.18
430.0,1.034
431.0,1.027
432.0,1.327
433.0,1.335
434.0,1.242
435.0,1.299
436.0,1.465
437.0,1.445
438.0,1.317
439.0,1.366
440.0,1.41
441.0,1.462
442.0,1.57
443.0,1.532
444.0,1.567
445.0,1.535
446.0,1.465
447.0,1.585
448.0,1.613
449.0,1.619
450.0,1.666
451.0,1.729
452.0,1.668
453.0,1.57
454.0,1.64
455.0,1.652
456.0,1.693
457.0,1.723
458.0,1.667
459.0,1.659
460.0,1.666
461.0,1.706
462.0,1.72
463.0,1.71
464.0,1.682
465.0,1.66
466.0,1.677
467.0,1.649
468.0,1.67
469.0,1.681
470.0,1.629
471.0,1.628
472.0,1.718
473.0,1.697
474.0,1.703
475.0,1.721
476.0,1.673
477.0,1.681
478.0,1.728
479.0,1.718
480.0,1.721
481.0,1.754
482.0,1.762
483.0,1.741
484.0,1.706
485.0,1.626
486.0,1.421
487.0,1.49
488.0,1.636
489.0,1.643
490.0,1.729
491.0,1.7
492.0,1.606
493.0,1.66
494.0,1.678
495.0,1.693
496.0,1.705
497.0,1.733
498.0,1.653
499.0,1.676
500.0,1.629
501.0,1.602
502.0,1.583
503.0,1.651
504.0,1.618
505.0,1.67
506.0,1.726
507.0,1.643
508.0,1.591
509.0,1.635
510.0,1.626
511.0,1.669
512.0,1.688
513.0,1.598
514.0,1.588
515.0,1.573
516.0,1.57
517.0,1.396
518.0,1.469
519.0,1.541
520.0,1.599
521.0,1.615
522.0,1.618
523.0,1.59
524.0,1.649
525.0,1.671
526.0,1.598
527.0,1.508
528.0,1.597
529.0,1.685
530.0,1.662
531.0,1.688
532.0,1.632
533.0,1.585
534.0,1.632
535.0,1.667
536.0,1.683
537.0,1.617
538.0,1.646
539.0,1.633
540.0,1.567
541.0,1.58
542.0,1.631
543.0,1.613
544.0,1.643
545.0,1.639
546.0,1.648
547.0,1.647
548.0,1.627
549.0,1.633
550.0,1.653
551.0,1.633
552.0,1.645
553.0,1.617
554.0,1.656
555.0,1.661
556.0,1.64
557.0,1.591
558.0,1.581
559.0,1.553
560.0,1.574
561.0,1.596
562.0,1.586
563.0,1.631
564.0,1.589
565.0,1.577
566.0,1.555
567.0,1.587
568.0,1.577
569.0,1.547
570.0,1.546
571.0,1.536
572.0,1.578
573.0,1.596
574.0,1.593
575.0,1.565
576.0,1.551
577.0,1.568
578.0,1.543
579.0,1.547
580.0,1.572
581.0,1.577
582.0,1.604
583.0,1.606
584.0,1.618
585.0,1.578
586.0,1.546
587.0,1.583
588.0,1.554
589.0,1.395
590.0,1.458
591.0,1.533
592.0,1.52
593.0,1.535
594.0,1.529
595.0,1.497
596.0,1.542
597.0,1.529
598.0,1.522
599.0,1.522
600.0,1.521
601.0,1.506
602.0,1.496
603.0,1.52
604.0,1.545
605.0,1.537
606.0,1.529
607.0,1.543
608.0,1.525
609.0,1.527
610.0,1.515
611.0,1.523
612.0,1.518
613.0,1.499
614.0,1.478
615.0,1.509
616.0,1.459
617.0,1.456
618.0,1.512
619.0,1.496
620.0,1.506
621.0,1.509
622.0,1.493
623.0,1.472
624.0,1.446
625.0,1.443
626.0,1.465
627.0,1.485
628.0,1.425
629.0,1.464
630.0,1.431
631.0,1.452
632.0,1.432
633.0,1.471
634.0,1.453
635.0,1.474
636.0,1.453
637.0,1.475
638.0,1.487
639.0,1.469
640.0,1.454
641.0,1.452
642.0,1.444
643.0,1.464
644.0,1.458
645.0,1.462
646.0,1.432
647.0,1.426
648.0,1.429
649.0,1.402
650.0,1.396
651.0,1.454
652.0,1.409
653.0,1.435
654.0,1.418
655.0,1.373
656.0,1.212
657.0,1.244
658.0,1.391
659.0,1.399
660.0,1.405
661.0,1.415
662.0,1.42
663.0,1.391
664.0,1.405
665.0,1.403
666.0,1.404
667.0,1.401
668.0,1.401
669.0,1.422
670.0,1.415
671.0,1.415
672.0,1.402
673.0,1.423
674.0,1.417
675.0,1.404
676.0,1.414
677.0,1.399
678.0,1.403
679.0,1.38
680.0,1.391
681.0,1.382
682.0,1.381
683.0,1.378
684.0,1.372
685.0,1.383
686.0,1.376
687.0,1.08
688.0,1.183
689.0,1.185
690.0,1.216
691.0,1.251
692.0,1.273
693.0,1.266
694.0,1.257
695.0,1.29
696.0,1.292
697.0,1.345
698.0,1.325
699.0,1.31
700.0,1.295
701.0,1.287
702.0,1.29
703.0,1.292
704.0,1.324
705.0,1.326
706.0,1.321
707.0,1.321
708.0,1.324
709.0,1.321
710.0,1.324
711.0,1.32
712.0,1.314
713.0,1.303
714.0,1.308
715.0,1.273
716.0,1.275
717.0,1.168
718.0,1.086
719.0,1.003
720.0,1.054
721.0,1.124
722.0,1.242
723.0,1.18
724.0,1.089
725.0,1.08
726.0,1.124
727.0,1.128
728.0,1.08
729.0,1.098
730.0,1.159
731.0,1.118
732.0,1.172
733.0,1.218
734.0,1.241
735.0,1.218
736.0,1.216
737.0,1.222
738.0,1.227
739.0,1.203
740.0,1.23
741.0,1.215
742.0,1.214
743.0,1.245
744.0,1.24
745.0,1.239
746.0,1.245
747.0,1.247
748.0,1.245
749.0,1.23
750.0,1.23
751.0,1.217
752.0,1.222
753.0,1.229
754.0,1.232
755.0,1.225
756.0,1.224
757.0,1.226
758.0,1.211
759.0,1.195
760.0,0.4011
761.0,0.2701
762.0,0.7884
763.0,0.5196
764.0,0.6654
765.0,0.7894
766.0,0.8804
767.0,1.028
768.0,1.124
769.0,1.134
770.0,1.157
771.0,1.16
772.0,1.161
773.0,1.168
774.0,1.162
775.0,1.153
776.0,1.167
777.0,1.152
778.0,1.145
779.0,1.146
780.0,1.14
781.0,1.141
782.0,1.148
783.0,1.128
784.0,1.133
785.0,1.126
786.0,1.139
787.0,1.125
788.0,1.114
789.0,1.115
790.0,1.095
791.0,1.095
792.0,1.086
793.0,1.07
794.0,1.078
795.0,1.099
796.0,1.078
797.0,1.08
798.0,1.099
799.0,1.095
800.0,1.079
801.0,1.078
802.0,1.075
803.0,1.069
804.0,1.069
805.0,1.062
806.0,1.086
807.0,1.074
808.0,1.075
809.0,1.059
810.0,1.054
811.0,1.061
812.0,1.04
813.0,1.025
814.0,0.9339
815.0,0.9275
816.0,0.8692
817.0,0.8805
818.0,0.8549
819.0,0.9267
820.0,0.8845
821.0,0.9951
822.0,0.9733
823.0,0.7264
824.0,0.9577
825.0,0.9806
826.0,0.9549
827.0,0.9952
828.0,0.8788
829.0,0.947
830.0,0.9385
831.0,0.9403
832.0,0.9181
833.0,0.9578
834.0,0.9356
835.0,1.003
836.0,0.9755
837.0,1.005
838.0,0.9804
839.0,0.9891
840.0,1.009
841.0,0.9977
842.0,0.9956
843.0,0.9908
844.0,0.9795
845.0,1.009
846.0,1.004
847.0,0.9843
848.0,0.9801
849.0,0.9524
850.0,0.9123
851.0,0.968
852.0,0.9604
853.0,0.9228
854.0,0.7982
855.0,0.8751
856.0,0.9572
857.0,0.9773
858.0,0.9707
859.0,0.9708
860.0,0.972
861.0,0.9669
862.0,0.9819
863.0,1.005
864.0,0.9549
865.0,0.9464
866.0,0.851
867.0,0.8881
868.0,0.9664
869.0,0.9463
870.0,0.9733
871.0,0.9601
872.0,0.9567
873.0,0.9548
874.0,0.9435
875.0,0.9245
876.0,0.9343
877.0,0.9437
878.0,0.9543
879.0,0.9396
880.0,0.9195
881.0,0.9067
882.0,0.9266
883.0,0.9287
884.0,0.9249
885.0,0.9319
886.0,0.8915
887.0,0.8985
888.0,0.9136
889.0,0.9209
890.0,0.9168
891.0,0.9135
892.0,0.8915
893.0,0.8699
894.0,0.8502
895.0,0.8176
896.0,0.7782
897.0,0.6895
898.0,0.7397
899.0,0.5897
900.0,0.7453
901.0,0.6161
902.0,0.6887
903.0,0.706
904.0,0.8443
905.0,0.8219
906.0,0.7749
907.0,0.6602
908.0,0.6695
909.0,0.7097
910.0,0.6544
911.0,0.6821
912.0,0.706
913.0,0.6653
914.0,0.6554
915.0,0.7058
916.0,0.6081
917.0,0.7396
918.0,0.6237
919.0,0.7471
920.0,0.7427
921.0,0.7678
922.0,0.7056
923.0,0.7411
924.0,0.7234
925.0,0.7088
926.0,0.7158
927.0,0.7831
928.0,0.6272
929.0,0.5869
930.0,0.4859
931.0,0.4558
932.0,0.3528
933.0,0.3017
934.0,0.1969
935.0,0.2964
936.0,0.2045
937.0,0.2108
938.0,0.2508
939.0,0.4418
940.0,0.5146
941.0,0.4119
942.0,0.4608
943.0,0.3223
944.0,0.3236
945.0,0.421
946.0,0.2405
947.0,0.4291
948.0,0.3207
949.0,0.5477
950.0,0.1959
951.0,0.535
952.0,0.3231
953.0,0.394
954.0,0.458
955.0,0.3955
956.0,0.3757
957.0,0.3273
958.0,0.4943
959.0,0.4187
960.0,0.4677
961.0,0.5056
962.0,0.4816
963.0,0.5379
964.0,0.4991
965.0,0.5334
966.0,0.538
967.0,0.5371
968.0,0.664
969.0,0.696
970.0,0.6481
971.0,0.7175
972.0,0.6911
973.0,0.6259
974.0,0.5985
975.0,0.6112
976.0,0.5928
977.0,0.6501
978.0,0.6278
979.0,0.6493
980.0,0.6163
981.0,0.7124
982.0,0.6897
983.0,0.6675
984.0,0.7248
985.0,0.6868
986.0,0.7321
987.0,0.7233
988.0,0.7222
989.0,0.7265
990.0,0.7171
991.0,0.7294
992.0,0.733
993.0,0.7223
994.0,0.7323
995.0,0.7306
996.0,0.7282
997.0,0.7289
998.0,0.7258
999.0,0.7229
1000.0,0.7192
1001.0,0.7267
1002.0,0.7123
1003.0,0.7142
1004.0,0.6983
1005.0,0.6707
1006.0,0.698
1007.0,0.7122
1008.0,0.7094
1009.0,0.7068
1010.0,0.7044
1011.0,0.7085
1012.0,0.7035
1013.0,0.7065
1014.0,0.7016
1015.0,0.6972
1016.0,0.6942
1017.0,0.6962
1018.0,0.6929
1019.0,0.6802
1020.0,0.6896
1021.0,0.6883
1022.0,0.6838
1023.0,0.6912
1024.0,0.6844
1025.0,0.69
1026.0,0.6876
1027.0,0.6859
1028.0,0.6847
1029.0,0.6768
1030.0,0.6807
1031.0,0.6783
1032.0,0.6761
1033.0,0.666
1034.0,0.6659
1035.0,0.668
1036.0,0.6718
1037.0,0.6608
1038.0,0.6638
1039.0,0.6636
1040.0,0.6609
1041.0,0.6638
1042.0,0.6592
1043.0,0.6572
1044.0,0.6597
1045.0,0.6509
1046.0,0.6438
1047.0,0.6498
1048.0,0.6535
1049.0,0.6513
1050.0,0.6486
1051.0,0.6479
1052.0,0.6455
1053.0,0.6406
1054.0,0.6423
1055.0,0.643
1056.0,0.6411
1057.0,0.6394
1058.0,0.624
1059.0,0.625
1060.0,0.6242
1061.0,0.6237
1062.0,0.6273
1063.0,0.6214
1064.0,0.6287
1065.0,0.6249
1066.0,0.612
1067.0,0.6202
1068.0,0.6072
1069.0,0.588
1070.0,0.6086
1071.0,0.6161
1072.0,0.6105
1073.0,0.6014
1074.0,0.6148
1075.0,0.59
1076.0,0.6147
1077.0,0.6071
1078.0,0.5969
1079.0,0.6039
1080.0,0.598
1081.0,0.5815
1082.0,0.5858
1083.0,0.5864
1084.0,0.582
1085.0,0.5987
1086.0,0.5567
1087.0,0.5666
1088.0,0.587
1089.0,0.5746
1090.0,0.5664
1091.0,0.5867
1092.0,0.5839
1093.0,0.5135
1094.0,0.5364
1095.0,0.5317
1096.0,0.5149
1097.0,0.5701
1098.0,0.5085
1099.0,0.5275
1100.0,0.4993
1101.0,0.5028
1102.0,0.4852
1103.0,0.4843
1104.0,0.4845
1105.0,0.5173
1106.0,0.4282
1107.0,0.4977
1108.0,0.4417
1109.0,0.4388
1110.0,0.4955
1111.0,0.3637
1112.0,0.4339
1113.0,0.3058
1114.0,0.3375
1115.0,0.2808
1116.0,0.2433
1117.0,0.1128
1118.0,0.2567
1119.0,0.1452
1120.0,0.1822
1121.0,0.23
1122.0,0.1126
1123.0,0.1643
1124.0,0.1389
1125.0,0.177
1126.0,0.0777
1127.0,0.1982
1128.0,0.1356
1129.0,0.1407
1130.0,0.1017
1131.0,0.3368
1132.0,0.2717
1133.0,0.1924
1134.0,0.0639
1135.0,0.02351
1136.0,0.1678
1137.0,0.3358
1138.0,0.2422
1139.0,0.325
1140.0,0.2854
1141.0,0.2302
1142.0,0.2567
1143.0,0.3494
1144.0,0.1421
1145.0,0.1848
1146.0,0.1995
1147.0,0.08758
1148.0,0.3027
1149.0,0.2534
1150.0,0.1528
1151.0,0.2407
1152.0,0.2826
1153.0,0.2657
1154.0,0.1839
1155.0,0.3396
1156.0,0.3126
1157.0,0.3417
1158.0,0.3372
1159.0,0.3543
1160.0,0.315
1161.0,0.3673
1162.0,0.3705
1163.0,0.4671
1164.0,0.4131
1165.0,0.4005
1166.0,0.3909
1167.0,0.4193
1168.0,0.4259
1169.0,0.4316
1170.0,0.4598
1171.0,0.4502
1172.0,0.4533
1173.0,0.4589
1174.0,0.3547
1175.0,0.4448
1176.0,0.4769
1177.0,0.4654
1178.0,0.3702
1179.0,0.4802
1180.0,0.4423
1181.0,0.4546
1182.0,0.3361
1183.0,0.4446
1184.0,0.424
1185.0,0.4152
1186.0,0.4716
1187.0,0.4554
1188.0,0.343
1189.0,0.426
1190.0,0.4611
1191.0,0.4479
1192.0,0.4662
1193.0,0.4507
1194.0,0.4618
1195.0,0.4439
1196.0,0.4324
1197.0,0.4578
1198.0,0.4252
1199.0,0.3787
1200.0,0.4457
1201.0,0.4355
1202.0,0.43
1203.0,0.4261
1204.0,0.383
1205.0,0.435
1206.0,0.4707
1207.0,0.4303
1208.0,0.4186
1209.0,0.4259
1210.0,0.4398
1211.0,0.4255
1212.0,0.4269
1213.0,0.4586
1214.0,0.4337
1215.0,0.4273
1216.0,0.4569
1217.0,0.4481
1218.0,0.4535
1219.0,0.4494
1220.0,0.4536
1221.0,0.4563
1222.0,0.4466
1223.0,0.4437
1224.0,0.4431
1225.0,0.4535
1226.0,0.4546
1227.0,0.4276
1228.0,0.4553
1229.0,0.4546
1230.0,0.4484
1231.0,0.4561
1232.0,0.4536
1233.0,0.4443
1234.0,0.4544
1235.0,0.4525
1236.0,0.455
1237.0,0.4511
1238.0,0.4535
1239.0,0.4477
1240.0,0.4491
1241.0,0.4486
1242.0,0.4462
1243.0,0.4425
1244.0,0.4461
1245.0,0.4478
1246.0,0.4451
1247.0,0.4438
1248.0,0.4443
1249.0,0.445
1250.0,0.4427
1251.0,0.438
1252.0,0.4369
1253.0,0.4355
1254.0,0.4328
1255.0,0.437
1256.0,0.4288
1257.0,0.4272
1258.0,0.432
1259.0,0.4226
1260.0,0.4241
1261.0,0.4082
1262.0,0.4002
1263.0,0.4013
1264.0,0.3804
1265.0,0.3985
1266.0,0.3894
1267.0,0.3921
1268.0,0.3784
1269.0,0.2823
1270.0,0.3923
1271.0,0.4059
1272.0,0.4063
1273.0,0.4029
1274.0,0.403
1275.0,0.4073
1276.0,0.4097
1277.0,0.4107
1278.0,0.4153
1279.0,0.4118
1280.0,0.4064
1281.0,0.3864
1282.0,0.3698
1283.0,0.3988
1284.0,0.4089
1285.0,0.4112
1286.0,0.4154
1287.0,0.4115
1288.0,0.4108
1289.0,0.4026
1290.0,0.4068
1291.0,0.4116
1292.0,0.396
1293.0,0.4059
1294.0,0.4036
1295.0,0.4038
1296.0,0.3917
1297.0,0.3757
1298.0,0.3944
1299.0,0.4056
1300.0,0.3608
1301.0,0.3681
1302.0,0.3928
1303.0,0.3542
1304.0,0.3188
1305.0,0.3863
1306.0,0.3871
1307.0,0.3201
1308.0,0.3522
1309.0,0.3852
1310.0,0.3147
1311.0,0.3414
1312.0,0.3348
1313.0,0.3309
1314.0,0.3024
1315.0,0.3021
1316.0,0.3387
1317.0,0.3228
1318.0,0.3439
1319.0,0.2892
1320.0,0.2758
1321.0,0.3141
1322.0,0.3199
1323.0,0.2581
1324.0,0.2837
1325.0,0.3346
1326.0,0.2982
1327.0,0.2872
1328.0,0.2533
1329.0,0.2051
1330.0,0.2589
1331.0,0.1758
1332.0,0.1747
1333.0,0.2371
1334.0,0.1945
1335.0,0.2566
1336.0,0.2122
1337.0,0.1942
1338.0,0.2086
1339.0,0.2055
1340.0,0.1954
1341.0,0.201
1342.0,0.2105
1343.0,0.167
1344.0,0.1005
1345.0,0.1403
1346.0,0.08816
1347.0,0.09254
1348.0,0.01122
1349.0,0.03306
1350.0,0.02997
1351.0,0.01254
1352.0,0.005645
1353.0,0.0005758
1354.0,0.001333
1355.0,3.949e-05
1356.0,0.0003013
1357.0,0.0004448
1358.0,4.442e-05
1359.0,1.389e-05
1360.0,2.816e-05
1361.0,2.42e-07
1362.0,1.794e-09
1363.0,4.425e-05
1364.0,2.168e-05
1365.0,1.718e-09
1366.0,0.0001492
1367.0,5.847e-05
1368.0,1.053e-10
1369.0,8.861e-06
1370.0,6.362e-06
1371.0,6.287e-07
1372.0,3.298e-05
1373.0,0.0003337
1374.0,0.0009919
1375.0,0.001706
1376.0,0.001178
1377.0,0.0006076
1378.0,0.004463
1379.0,0.0002673
1380.0,0.0004816
1381.0,1.82e-05
1382.0,3.291e-05
1383.0,8.011e-07
1384.0,1.143e-05
1385.0,2.103e-05
1386.0,3.737e-05
1387.0,0.001236
1388.0,3.03e-05
1389.0,0.002715
1390.0,0.002285
1391.0,0.001749
1392.0,0.0001457
1393.0,0.0005873
1394.0,0.0005718
1395.0,8.133e-06
1396.0,2.705e-07
1397.0,0.0002834
1398.0,0.005105
1399.0,0.003301
1400.0,1.912e-07
1401.0,4.011e-07
1402.0,0.005365
1403.0,0.007348
1404.0,0.002359
1405.0,5.521e-06
1406.0,0.007013
1407.0,0.0006245
1408.0,0.005645
1409.0,0.002597
1410.0,0.001838
1411.0,0.006377
1412.0,0.007399
1413.0,0.04487
1414.0,0.001411
1415.0,0.0008019
1416.0,0.05801
1417.0,0.02433
1418.0,0.02723
1419.0,0.004663
1420.0,0.01704
1421.0,0.0195
1422.0,0.07316
1423.0,0.01633
1424.0,0.02889
1425.0,0.044
1426.0,0.04487
1427.0,0.07012
1428.0,0.01095
1429.0,0.05743
1430.0,0.08586
1431.0,0.09127
1432.0,0.008885
1433.0,0.06272
1434.0,0.03434
1435.0,0.04227
1436.0,0.06819
1437.0,0.05278
1438.0,0.02614
1439.0,0.08672
1440.0,0.06618
1441.0,0.05634
1442.0,0.06041
1443.0,0.06704
1444.0,0.09001
1445.0,0.07696
1446.0,0.03675
1447.0,0.05841
1448.0,0.1461
1449.0,0.1339
1450.0,0.04332
1451.0,0.01958
1452.0,0.08695
1453.0,0.1097
1454.0,0.1658
1455.0,0.08681
1456.0,0.1202
1457.0,0.1472
1458.0,0.1608
1459.0,0.1919
1460.0,0.1074
1461.0,0.1172
1462.0,0.161
1463.0,0.06053
1464.0,0.1803
1465.0,0.1108
1466.0,0.09082
1467.0,0.0551
1468.0,0.1032
1469.0,0.1225
1470.0,0.07199
