interpolation:linear
wavelength,value
280.0,2.348e-19
280.5,3.98e-18
281.0,1.706e-17
281.5,2.865e-16
282.0,1.566e-15
282.5,4.663e-15
283.0,1.556e-14
283.5,2.553e-14
284.0,3.388e-13
284.5,8.633e-13
285.0,1.458e-12
285.5,7.612e-12
286.0,3.053e-11
286.5,1.269e-10
287.0,3.367e-10
287.5,1.129e-09
288.0,3.429e-09
288.5,1.104e-08
289.0,2.976e-08
289.5,8.713e-08
290.0,2.322e-07
290.5,4.553e-07
291.0,9.162e-07
291.5,2.37e-06
292.0,4.937e-06
292.5,6.653e-06
293.0,1.339e-05
293.5,2.94e-05
294.0,4.332e-05
294.5,6.922e-05
295.0,0.0001078
295.5,0.0002241
296.0,0.0003633
296.5,0.0004287
297.0,0.0005058
297.5,0.001108
298.0,0.001475
298.5,0.001306
299.0,0.002546
299.5,0.003416
300.0,0.003356
300.5,0.00433
301.0,0.006525
301.5,0.008868
302.0,0.007031
302.5,0.01252
303.0,0.01999
303.5,0.02345
304.0,0.0211
304.5,0.02794
305.0,0.03591
305.5,0.0372
306.0,0.03474
306.5,0.04069
307.0,0.0526
307.5,0.0615
308.0,0.06383
308.5,0.07102
309.0,0.06209
309.5,0.06585
310.0,0.06395
310.5,0.102
311.0,0.1245
311.5,0.1189
312.0,0.1112
312.5,0.1295
313.0,0.1375
313.5,0.1372
314.0,0.1625
314.5,0.1339
315.0,0.1741
315.5,0.1517
316.0,0.1248
316.5,0.1703
317.0,0.2125
317.5,0.2252
318.0,0.1698
318.5,0.1969
319.0,0.2261
319.5,0.1958
320.0,0.2394
320.5,0.2795
321.0,0.2339
321.5,0.2235
322.0,0.2562
322.5,0.2227
323.0,0.2125
323.5,0.2424
324.0,0.2813
324.5,0.2929
325.0,0.2684
325.5,0.3336
326.0,0.3902
326.5,0.381
327.0,0.3847
327.5,0.3776
328.0,0.3503
328.5,0.3526
329.0,0.4088
329.5,0.4605
330.0,0.4697
330.5,0.3872
331.0,0.3992
331.5,0.3987
332.0,0.4196
332.5,0.411
333.0,0.414
333.5,0.3837
334.0,0.3954
334.5,0.4466
335.0,0.4151
335.5,0.471
336.0,0.3266
336.5,0.3984
337.0,0.3308
337.5,0.414
338.0,0.3975
338.5,0.4483
339.0,0.447
339.5,0.4293
340.0,0.518
340.5,0.4672
341.0,0.4477
341.5,0.4153
342.0,0.4983
342.5,0.468
343.0,0.5138
343.5,0.4835
344.0,0.3636
344.5,0.3597
345.0,0.4817
345.5,0.4943
346.0,0.4217
346.5,0.4789
347.0,0.5137
347.5,0.4156
348.0,0.4766
348.5,0.4783
349.0,0.4447
349.5,0.4409
350.0,0.5465
350.5,0.5775
351.0,0.5163
351.5,0.5006
352.0,0.5402
352.5,0.4231
353.0,0.5343
353.5,0.5728
354.0,0.5961
354.5,0.6059
355.0,0.6048
355.5,0.5473
356.0,0.5738
356.5,0.491
357.0,0.4066
357.5,0.4988
358.0,0.3961
358.5,0.3392
359.0,0.4753
359.5,0.6066
360.0,0.6444
360.5,0.5161
361.0,0.4713
361.5,0.5432
362.0,0.4701
362.5,0.6513
363.0,0.5856
363.5,0.54
364.0,0.6613
364.5,0.5662
365.0,0.5775
365.5,0.726
366.0,0.7701
366.5,0.7245
367.0,0.7067
367.5,0.7345
368.0,0.6437
368.5,0.6504
369.0,0.7034
369.5,0.7508
370.0,0.8015
370.5,0.6229
371.0,0.6665
371.5,0.8351
372.0,0.5552
372.5,0.6666
373.0,0.6788
373.5,0.4422
374.0,0.6435
374.5,0.5335
375.0,0.5194
375.5,0.7767
376.0,0.6448
376.5,0.6693
377.0,0.7094
377.5,0.831
378.0,0.9023
378.5,0.8543
379.0,0.7063
379.5,0.6463
380.0,0.6731
380.5,0.8161
381.0,0.8187
381.5,0.6497
382.0,0.5776
382.5,0.4928
383.0,0.4567
383.5,0.4404
384.0,0.4864
384.5,0.7162
385.0,0.7111
385.5,0.6629
386.0,0.5684
386.5,0.7474
387.0,0.6219
387.5,0.6995
388.0,0.6466
388.5,0.6398
389.0,0.6915
389.5,0.8385
390.0,0.8425
390.5,0.7763
391.0,0.9147
391.5,0.9342
392.0,0.7878
392.5,0.706
393.0,0.3932
393.5,0.2861
394.0,0.5828
394.5,0.7416
395.0,0.906
395.5,0.9215
396.0,0.7998
396.5,0.4679
397.0,0.3515
397.5,0.7156
398.0,1.004
398.5,1.038
399.0,1.125
399.5,1.122
400.0,1.167
401.0,1.2
402.0,1.269
403.0,1.207
404.0,1.19
405.0,1.192
406.0,1.175
407.0,1.157
408.0,1.205
409.0,1.292
410.0,1.13
411.0,1.226
412.0,1.318
413.0,1.288
414.0,1.305
415.0,1.31
416.0,1.335
417.0,1.304
418.0,1.282
419.0,1.301
420.0,1.297
421.0,1.359
422.0,1.293
423.0,1.265
424.0,1.34
425.0,1.339
426.0,1.305
427.0,1.283
428.0,1.251
429.0,1.186
430.0,1.039
431.0,1.032
432.0,1.333
433.0,1.342
434.0,1.248
435.0,1.306
436.0,1.472
437.0,1.452
438.0,1.323
439.0,1.372
440.0,1.417
441.0,1.469
442.0,1.577
443.0,1.539
444.0,1.574
445.0,1.542
446.0,1.472
447.0,1.592
448.0,1.62
449.0,1.626
450.0,1.673
451.0,1.737
452.0,1.675
453.0,1.576
454.0,1.646
455.0,1.658
456.0,1.699
457.0,1.729
458.0,1.673
459.0,1.666
460.0,1.673
461.0,1.713
462.0,1.726
463.0,1.717
464.0,1.688
465.0,1.667
466.0,1.683
467.0,1.655
468.0,1.677
469.0,1.687
470.0,1.635
471.0,1.634
472.0,1.724
473.0,1.703
474.0,1.709
475.0,1.727
476.0,1.679
477.0,1.687
478.0,1.734
479.0,1.724
480.0,1.727
481.0,1.76
482.0,1.768
483.0,1.747
484.0,1.711
485.0,1.631
486.0,1.426
487.0,1.495
488.0,1.641
489.0,1.649
490.0,1.735
491.0,1.705
492.0,1.611
493.0,1.665
494.0,1.683
495.0,1.698
496.0,1.71
497.0,1.738
498.0,1.658
499.0,1.681
500.0,1.634
501.0,1.607
502.0,1.587
503.0,1.656
504.0,1.623
505.0,1.675
506.0,1.731
507.0,1.648
508.0,1.596
509.0,1.64
510.0,1.631
511.0,1.674
512.0,1.693
513.0,1.603
514.0,1.592
515.0,1.577
516.0,1.575
517.0,1.4
518.0,1.472
519.0,1.546
520.0,1.603
521.0,1.619
522.0,1.622
523.0,1.595
524.0,1.654
525.0,1.676
526.0,1.602
527.0,1.512
528.0,1.601
529.0,1.69
530.0,1.667
531.0,1.693
532.0,1.636
533.0,1.589
534.0,1.636
535.0,1.672
536.0,1.687
537.0,1.621
538.0,1.65
539.0,1.637
540.0,1.571
541.0,1.584
542.0,1.635
543.0,1.617
544.0,1.648
545.0,1.643
546.0,1.653
547.0,1.651
548.0,1.631
549.0,1.637
550.0,1.657
551.0,1.637
552.0,1.649
553.0,1.621
554.0,1.66
555.0,1.665
556.0,1.644
557.0,1.595
558.0,1.584
559.0,1.557
560.0,1.577
561.0,1.599
562.0,1.59
563.0,1.635
564.0,1.593
565.0,1.581
566.0,1.559
567.0,1.591
568.0,1.581
569.0,1.551
570.0,1.55
571.0,1.54
572.0,1.582
573.0,1.6
574.0,1.597
575.0,1.569
576.0,1.555
577.0,1.572
578.0,1.547
579.0,1.551
580.0,1.576
581.0,1.581
582.0,1.608
583.0,1.609
584.0,1.622
585.0,1.582
586.0,1.55
587.0,1.587
588.0,1.558
589.0,1.399
590.0,1.462
591.0,1.537
592.0,1.524
593.0,1.539
594.0,1.533
595.0,1.501
596.0,1.546
597.0,1.533
598.0,1.525
599.0,1.525
600.0,1.524
601.0,1.509
602.0,1.499
603.0,1.523
604.0,1.548
605.0,1.54
606.0,1.533
607.0,1.547
608.0,1.529
609.0,1.531
610.0,1.519
611.0,1.526
612.0,1.521
613.0,1.502
614.0,1.481
615.0,1.512
616.0,1.462
617.0,1.459
618.0,1.514
619.0,1.499
620.0,1.509
621.0,1.512
622.0,1.496
623.0,1.475
624.0,1.449
625.0,1.446
626.0,1.468
627.0,1.488
628.0,1.428
629.0,1.467
630.0,1.435
631.0,1.454
632.0,1.435
633.0,1.474
634.0,1.456
635.0,1.477
636.0,1.455
637.0,1.478
638.0,1.489
639.0,1.472
640.0,1.456
641.0,1.454
642.0,1.447
643.0,1.466
644.0,1.46
645.0,1.464
646.0,1.435
647.0,1.428
648.0,1.432
649.0,1.405
650.0,1.398
651.0,1.457
652.0,1.411
653.0,1.438
654.0,1.42
655.0,1.375
656.0,1.214
657.0,1.246
658.0,1.393
659.0,1.401
660.0,1.407
661.0,1.417
662.0,1.422
663.0,1.393
664.0,1.406
665.0,1.405
666.0,1.405
667.0,1.403
668.0,1.402
669.0,1.423
670.0,1.417
671.0,1.416
672.0,1.404
673.0,1.425
674.0,1.419
675.0,1.406
676.0,1.415
677.0,1.401
678.0,1.405
679.0,1.382
680.0,1.393
681.0,1.384
682.0,1.382
683.0,1.38
684.0,1.373
685.0,1.384
686.0,1.377
687.0,1.085
688.0,1.187
689.0,1.189
690.0,1.22
691.0,1.254
692.0,1.276
693.0,1.269
694.0,1.26
695.0,1.292
696.0,1.294
697.0,1.347
698.0,1.327
699.0,1.312
700.0,1.297
701.0,1.289
702.0,1.291
703.0,1.294
704.0,1.326
705.0,1.328
706.0,1.323
707.0,1.323
708.0,1.326
709.0,1.322
710.0,1.325
711.0,1.321
712.0,1.315
713.0,1.304
714.0,1.309
715.0,1.274
716.0,1.277
717.0,1.171
718.0,1.089
719.0,1.007
720.0,1.058
721.0,1.126
722.0,1.244
723.0,1.182
724.0,1.092
725.0,1.083
726.0,1.127
727.0,1.13
728.0,1.083
729.0,1.101
730.0,1.162
731.0,1.121
732.0,1.174
733.0,1.219
734.0,1.242
735.0,1.22
736.0,1.218
737.0,1.224
738.0,1.228
739.0,1.204
740.0,1.231
741.0,1.216
742.0,1.215
743.0,1.245
744.0,1.24
745.0,1.239
746.0,1.245
747.0,1.248
748.0,1.245
749.0,1.231
750.0,1.23
751.0,1.218
752.0,1.223
753.0,1.229
754.0,1.232
755.0,1.226
756.0,1.225
757.0,1.227
758.0,1.212
759.0,1.196
760.0,0.409
761.0,0.2772
762.0,0.7943
763.0,0.5274
764.0,0.6725
765.0,0.7954
766.0,0.8848
767.0,1.031
768.0,1.125
769.0,1.135
770.0,1.158
771.0,1.161
772.0,1.161
773.0,1.169
774.0,1.163
775.0,1.154
776.0,1.168
777.0,1.153
778.0,1.146
779.0,1.147
780.0,1.14
781.0,1.142
782.0,1.149
783.0,1.129
784.0,1.134
785.0,1.126
786.0,1.139
787.0,1.126
788.0,1.115
789.0,1.116
790.0,1.096
791.0,1.096
792.0,1.087
793.0,1.071
794.0,1.079
795.0,1.1
796.0,1.079
797.0,1.081
798.0,1.1
799.0,1.096
800.0,1.08
801.0,1.079
802.0,1.076
803.0,1.07
804.0,1.07
805.0,1.063
806.0,1.087
807.0,1.075
808.0,1.075
809.0,1.06
810.0,1.055
811.0,1.062
812.0,1.041
813.0,1.026
814.0,0.9362
815.0,0.9298
816.0,0.8716
817.0,0.8827
818.0,0.8573
819.0,0.9284
820.0,0.8865
821.0,0.9961
822.0,0.9745
823.0,0.7294
824.0,0.9592
825.0,0.9818
826.0,0.9564
827.0,0.9963
828.0,0.8808
829.0,0.9483
830.0,0.94
831.0,0.9417
832.0,0.9197
833.0,0.9588
834.0,0.9369
835.0,1.004
836.0,0.9766
837.0,1.006
838.0,0.9812
839.0,0.9897
840.0,1.01
841.0,0.9984
842.0,0.9962
843.0,0.9912
844.0,0.98
845.0,1.01
846.0,1.005
847.0,0.9846
848.0,0.9805
849.0,0.9528
850.0,0.9126
851.0,0.9685
852.0,0.9608
853.0,0.9232
854.0,0.7986
855.0,0.8754
856.0,0.9576
857.0,0.9776
858.0,0.9711
859.0,0.9711
860.0,0.9723
861.0,0.9673
862.0,0.9822
863.0,1.005
864.0,0.9551
865.0,0.9467
866.0,0.8513
867.0,0.8884
868.0,0.9667
869.0,0.9466
870.0,0.9736
871.0,0.9604
872.0,0.957
873.0,0.9551
874.0,0.9438
875.0,0.9248
876.0,0.9346
877.0,0.9439
878.0,0.9546
879.0,0.9399
880.0,0.9197
881.0,0.9069
882.0,0.9269
883.0,0.929
884.0,0.9251
885.0,0.9322
886.0,0.8919
887.0,0.8988
888.0,0.9139
889.0,0.9212
890.0,0.9172
891.0,0.9138
892.0,0.892
893.0,0.8705
894.0,0.8511
895.0,0.8189
896.0,0.7798
897.0,0.6917
898.0,0.7416
899.0,0.5922
900.0,0.7467
901.0,0.6185
902.0,0.6903
903.0,0.708
904.0,0.8452
905.0,0.8231
906.0,0.7762
907.0,0.6624
908.0,0.6716
909.0,0.7113
910.0,0.6568
911.0,0.6842
912.0,0.7078
913.0,0.6678
914.0,0.6577
915.0,0.708
916.0,0.6105
917.0,0.7413
918.0,0.6261
919.0,0.7487
920.0,0.744
921.0,0.7689
922.0,0.7073
923.0,0.7421
924.0,0.725
925.0,0.7105
926.0,0.7175
927.0,0.7843
928.0,0.63
929.0,0.59
930.0,0.4894
931.0,0.4588
932.0,0.356
933.0,0.3049
934.0,0.2001
935.0,0.2992
936.0,0.2071
937.0,0.2136
938.0,0.2539
939.0,0.4448
940.0,0.5174
941.0,0.415
942.0,0.4637
943.0,0.325
944.0,0.3259
945.0,0.4241
946.0,0.2432
947.0,0.4324
948.0,0.3235
949.0,0.5509
950.0,0.1989
951.0,0.5381
952.0,0.3263
953.0,0.3972
954.0,0.4608
955.0,0.3986
956.0,0.3785
957.0,0.3307
958.0,0.4965
959.0,0.4215
960.0,0.4707
961.0,0.5083
962.0,0.4843
963.0,0.5402
964.0,0.5015
965.0,0.5356
966.0,0.5404
967.0,0.5395
968.0,0.6652
969.0,0.6973
970.0,0.6497
971.0,0.7183
972.0,0.692
973.0,0.6277
974.0,0.6003
975.0,0.6127
976.0,0.5947
977.0,0.6514
978.0,0.6294
979.0,0.6506
980.0,0.6178
981.0,0.7131
982.0,0.6907
983.0,0.6687
984.0,0.7252
985.0,0.6878
986.0,0.7323
987.0,0.7237
988.0,0.7226
989.0,0.7267
990.0,0.7175
991.0,0.7296
992.0,0.7332
993.0,0.7227
994.0,0.7324
995.0,0.7307
996.0,0.7284
997.0,0.729
998.0,0.726
999.0,0.7231
1000.0,0.7194
1001.0,0.7268
1002.0,0.7127
1003.0,0.7144
1004.0,0.6985
1005.0,0.6708
1006.0,0.6981
1007.0,0.7123
1008.0,0.7096
1009.0,0.707
1010.0,0.7046
1011.0,0.7087
1012.0,0.7037
1013.0,0.7067
1014.0,0.7017
1015.0,0.6973
1016.0,0.6943
1017.0,0.6963
1018.0,0.693
1019.0,0.6804
1020.0,0.6897
1021.0,0.6884
1022.0,0.6839
1023.0,0.6913
1024.0,0.6846
1025.0,0.6901
1026.0,0.6877
1027.0,0.6861
1028.0,0.6848
1029.0,0.677
1030.0,0.6808
1031.0,0.6784
1032.0,0.6762
1033.0,0.6661
1034.0,0.6661
1035.0,0.6682
1036.0,0.6719
1037.0,0.6609
1038.0,0.6639
1039.0,0.6637
1040.0,0.6611
1041.0,0.6639
1042.0,0.6593
1043.0,0.6574
1044.0,0.6598
1045.0,0.651
1046.0,0.644
1047.0,0.6499
1048.0,0.6537
1049.0,0.6515
1050.0,0.6487
1051.0,0.6481
1052.0,0.6456
1053.0,0.6408
1054.0,0.6425
1055.0,0.6432
1056.0,0.6413
1057.0,0.6396
1058.0,0.6242
1059.0,0.6252
1060.0,0.6245
1061.0,0.6239
1062.0,0.6276
1063.0,0.6217
1064.0,0.6289
1065.0,0.6252
1066.0,0.6123
1067.0,0.6204
1068.0,0.6075
1069.0,0.5883
1070.0,0.6089
1071.0,0.6163
1072.0,0.6108
1073.0,0.6017
1074.0,0.615
1075.0,0.5904
1076.0,0.6149
1077.0,0.6075
1078.0,0.5972
1079.0,0.6041
1080.0,0.5983
1081.0,0.5819
1082.0,0.586
1083.0,0.5866
1084.0,0.5825
1085.0,0.599
1086.0,0.5573
1087.0,0.567
1088.0,0.5872
1089.0,0.575
1090.0,0.567
1091.0,0.587
1092.0,0.5841
1093.0,0.5144
1094.0,0.5367
1095.0,0.5325
1096.0,0.5158
1097.0,0.5703
1098.0,0.5095
1099.0,0.5284
1100.0,0.5005
1101.0,0.5039
1102.0,0.4864
1103.0,0.4856
1104.0,0.4858
1105.0,0.5183
1106.0,0.4302
1107.0,0.4988
1108.0,0.4435
1109.0,0.4404
1110.0,0.4967
1111.0,0.3657
1112.0,0.4354
1113.0,0.3081
1114.0,0.3397
1115.0,0.2827
1116.0,0.2457
1117.0,0.1148
1118.0,0.2588
1119.0,0.1471
1120.0,0.1845
1121.0,0.2325
1122.0,0.1144
1123.0,0.1664
1124.0,0.1407
1125.0,0.1791
1126.0,0.07921
1127.0,0.2005
1128.0,0.1378
1129.0,0.1429
1130.0,0.1036
1131.0,0.3394
1132.0,0.2741
1133.0,0.1948
1134.0,0.0653
1135.0,0.02403
1136.0,0.1702
1137.0,0.3384
1138.0,0.2444
1139.0,0.3268
1140.0,0.2875
1141.0,0.2323
1142.0,0.2588
1143.0,0.3516
1144.0,0.1438
1145.0,0.1871
1146.0,0.202
1147.0,0.08931
1148.0,0.3047
1149.0,0.2556
1150.0,0.1547
1151.0,0.2429
1152.0,0.2848
1153.0,0.2674
1154.0,0.1864
1155.0,0.3414
1156.0,0.3145
1157.0,0.3436
1158.0,0.339
1159.0,0.3559
1160.0,0.3169
1161.0,0.3688
1162.0,0.3721
1163.0,0.4679
1164.0,0.4143
1165.0,0.402
1166.0,0.3921
1167.0,0.4204
1168.0,0.4271
1169.0,0.4326
1170.0,0.4606
1171.0,0.4511
1172.0,0.454
1173.0,0.4597
1174.0,0.3563
1175.0,0.4455
1176.0,0.4773
1177.0,0.466
1178.0,0.3714
1179.0,0.4806
1180.0,0.443
1181.0,0.4554
1182.0,0.3374
1183.0,0.4452
1184.0,0.4249
1185.0,0.4162
1186.0,0.4721
1187.0,0.4561
1188.0,0.3444
1189.0,0.4267
1190.0,0.4616
1191.0,0.4487
1192.0,0.4667
1193.0,0.4513
1194.0,0.4623
1195.0,0.4446
1196.0,0.4332
1197.0,0.4582
1198.0,0.4258
1199.0,0.3797
1200.0,0.4462
1201.0,0.4362
1202.0,0.4307
1203.0,0.4267
1204.0,0.3839
1205.0,0.4355
1206.0,0.4709
1207.0,0.431
1208.0,0.4191
1209.0,0.4264
1210.0,0.4402
1211.0,0.4261
1212.0,0.4277
1213.0,0.4589
1214.0,0.4343
1215.0,0.428
1216.0,0.4572
1217.0,0.4485
1218.0,0.4539
1219.0,0.4497
1220.0,0.4539
1221.0,0.4566
1222.0,0.4469
1223.0,0.444
1224.0,0.4435
1225.0,0.4537
1226.0,0.4548
1227.0,0.4281
1228.0,0.4554
1229.0,0.4548
1230.0,0.4486
1231.0,0.4562
1232.0,0.4537
1233.0,0.4445
1234.0,0.4545
1235.0,0.4525
1236.0,0.4551
1237.0,0.4513
1238.0,0.4536
1239.0,0.4478
1240.0,0.4492
1241.0,0.4487
1242.0,0.4463
1243.0,0.4426
1244.0,0.4462
1245.0,0.4478
1246.0,0.4451
1247.0,0.4439
1248.0,0.4444
1249.0,0.445
1250.0,0.4428
1251.0,0.4381
1252.0,0.437
1253.0,0.4357
1254.0,0.433
1255.0,0.4371
1256.0,0.429
1257.0,0.4275
1258.0,0.4322
1259.0,0.4229
1260.0,0.4243
1261.0,0.4087
1262.0,0.4009
1263.0,0.4019
1264.0,0.3813
1265.0,0.3991
1266.0,0.3901
1267.0,0.3928
1268.0,0.3792
1269.0,0.2844
1270.0,0.393
1271.0,0.4064
1272.0,0.4067
1273.0,0.4034
1274.0,0.4035
1275.0,0.4077
1276.0,0.4101
1277.0,0.411
1278.0,0.4155
1279.0,0.412
1280.0,0.4066
1281.0,0.3865
1282.0,0.3699
1283.0,0.3989
1284.0,0.409
1285.0,0.4113
1286.0,0.4155
1287.0,0.4117
1288.0,0.4109
1289.0,0.4029
1290.0,0.4069
1291.0,0.4117
1292.0,0.3964
1293.0,0.4061
1294.0,0.4038
1295.0,0.404
1296.0,0.3921
1297.0,0.3762
1298.0,0.3947
1299.0,0.4057
1300.0,0.3615
1301.0,0.3687
1302.0,0.3931
1303.0,0.3548
1304.0,0.3199
1305.0,0.3866
1306.0,0.3874
1307.0,0.321
1308.0,0.3528
1309.0,0.3855
1310.0,0.3156
1311.0,0.3421
1312.0,0.3356
1313.0,0.3316
1314.0,0.3034
1315.0,0.3031
1316.0,0.3394
1317.0,0.3235
1318.0,0.3444
1319.0,0.2904
1320.0,0.2768
1321.0,0.315
1322.0,0.3209
1323.0,0.2595
1324.0,0.2848
1325.0,0.3353
1326.0,0.2992
1327.0,0.2883
1328.0,0.2544
1329.0,0.2065
1330.0,0.2604
1331.0,0.1775
1332.0,0.1762
1333.0,0.2388
1334.0,0.1959
1335.0,0.2579
1336.0,0.2136
1337.0,0.1958
1338.0,0.2101
1339.0,0.207
1340.0,0.1966
1341.0,0.2026
1342.0,0.2122
1343.0,0.1691
1344.0,0.1019
1345.0,0.142
1346.0,0.08986
1347.0,0.09438
1348.0,0.01169
1349.0,0.03419
1350.0,0.03084
1351.0,0.01313
1352.0,0.005995
1353.0,0.0006267
1354.0,0.001433
1355.0,4.425e-05
1356.0,0.0003289
1357.0,0.0004848
1358.0,4.97e-05
1359.0,1.596e-05
1360.0,3.181e-05
1361.0,2.913e-07
1362.0,2.239e-09
1363.0,4.996e-05
1364.0,2.47e-05
1365.0,2.203e-09
1366.0,0.0001671
1367.0,6.567e-05
1368.0,1.434e-10
1369.0,1.014e-05
1370.0,7.358e-06
1371.0,7.414e-07
1372.0,3.711e-05
1373.0,0.000367
1374.0,0.001075
1375.0,0.001841
1376.0,0.001266
1377.0,0.0006558
1378.0,0.004758
1379.0,0.0002893
1380.0,0.0005239
1381.0,2.01e-05
1382.0,3.713e-05
1383.0,9.218e-07
1384.0,1.312e-05
1385.0,2.35e-05
1386.0,4.242e-05
1387.0,0.001343
1388.0,3.342e-05
1389.0,0.002918
1390.0,0.002451
1391.0,0.001886
1392.0,0.000159
1393.0,0.0006346
1394.0,0.0006281
1395.0,9.171e-06
1396.0,3.234e-07
1397.0,0.0003082
1398.0,0.00544
1399.0,0.003524
1400.0,2.316e-07
1401.0,4.767e-07
1402.0,0.005646
1403.0,0.007745
1404.0,0.002492
1405.0,6.287e-06
1406.0,0.007419
1407.0,0.0006644
1408.0,0.005972
1409.0,0.002772
1410.0,0.001961
1411.0,0.00672
1412.0,0.007764
1413.0,0.04619
1414.0,0.001505
1415.0,0.0008604
1416.0,0.05934
1417.0,0.02519
1418.0,0.02812
1419.0,0.004837
1420.0,0.01762
1421.0,0.02023
1422.0,0.0747
1423.0,0.01679
1424.0,0.02963
1425.0,0.04514
1426.0,0.04589
1427.0,0.07127
1428.0,0.01142
1429.0,0.05856
1430.0,0.08715
1431.0,0.09253
1432.0,0.009276
1433.0,0.06379
1434.0,0.03504
1435.0,0.0434
1436.0,0.06957
1437.0,0.0539
1438.0,0.02685
1439.0,0.08825
1440.0,0.06742
1441.0,0.05762
1442.0,0.06165
1443.0,0.06812
1444.0,0.09143
1445.0,0.07838
1446.0,0.03749
1447.0,0.05966
1448.0,0.1475
1449.0,0.1355
1450.0,0.04427
1451.0,0.02011
1452.0,0.08826
1453.0,0.1112
1454.0,0.1672
1455.0,0.08792
1456.0,0.1219
1457.0,0.1487
1458.0,0.162
1459.0,0.1934
1460.0,0.1086
1461.0,0.1186
1462.0,0.1625
1463.0,0.06152
1464.0,0.1816
1465.0,0.1117
1466.0,0.09217
1467.0,0.05624
1468.0,0.1046
1469.0,0.124
1470.0,0.07325
