interpolation:linear
wavelength,value
280.0,1.2020000000000001e-26
280.5,5.920000000000001e-25
281.0,3.749e-24
281.5,1.7679999999999998e-22
282.0,1.8100000000000002e-21
282.5,8.223e-21
283.0,4.369e-20
283.5,9.036000000000001e-20
284.0,3.521e-18
284.5,1.466e-17
285.0,4.207e-17
285.5,4.106e-16
286.0,2.121e-15
286.5,1.483e-14
287.0,5.773e-14
287.5,3.201e-13
288.0,1.832e-12
288.5,8.259e-12
289.0,3.151e-11
289.5,1.351e-10
290.0,4.922e-10
290.5,1.253e-09
291.0,3.456e-09
291.5,1.334e-08
292.0,3.852e-08
292.5,6.236e-08
293.0,1.588e-07
293.5,4.807e-07
294.0,8.797e-07
294.5,1.655e-06
295.0,3.167e-06
295.5,8.492e-06
296.0,1.638e-05
296.5,2.28e-05
297.0,3.067e-05
297.5,8.07e-05
298.0,0.0001246
298.5,0.0001232
299.0,0.0002662
299.5,0.0004208
300.0,0.0004506
300.5,0.0006324
301.0,0.001076
301.5,0.001614
302.0,0.001342
302.5,0.002603
303.0,0.004608
303.5,0.005737
304.0,0.005314
304.5,0.007537
305.0,0.01059
305.5,0.01158
306.0,0.01105
306.5,0.01339
307.0,0.01851
307.5,0.02299
308.0,0.02416
308.5,0.02769
309.0,0.02478
309.5,0.02797
310.0,0.02796
310.5,0.04532
311.0,0.05662
311.5,0.05475
312.0,0.05353
312.5,0.06421
313.0,0.06929
313.5,0.06849
314.0,0.08385
314.5,0.07194
315.0,0.09445
315.5,0.08111
316.0,0.06894
316.5,0.0966
317.0,0.1207
317.5,0.1275
318.0,0.09797
318.5,0.1172
319.0,0.1368
319.5,0.1163
320.0,0.142
320.5,0.1709
321.0,0.1467
321.5,0.1408
322.0,0.158
322.5,0.1379
323.0,0.1341
323.5,0.1572
324.0,0.1836
324.5,0.1899
325.0,0.1715
325.5,0.2163
326.0,0.2578
326.5,0.2549
327.0,0.2571
327.5,0.2518
328.0,0.2306
328.5,0.2369
329.0,0.2785
329.5,0.3154
330.0,0.3217
330.5,0.2635
331.0,0.2715
331.5,0.2736
332.0,0.2912
332.5,0.2868
333.0,0.2889
333.5,0.2667
334.0,0.2751
334.5,0.3137
335.0,0.2932
335.5,0.334
336.0,0.2321
336.5,0.2827
337.0,0.2347
337.5,0.2939
338.0,0.2843
338.5,0.3219
339.0,0.3219
339.5,0.3097
340.0,0.3735
340.5,0.3376
341.0,0.3249
341.5,0.3023
342.0,0.3635
342.5,0.3421
343.0,0.3761
343.5,0.3543
344.0,0.2663
344.5,0.2644
345.0,0.3553
345.5,0.3654
346.0,0.3124
346.5,0.3555
347.0,0.3819
347.5,0.3095
348.0,0.3557
348.5,0.3576
349.0,0.3332
349.5,0.3309
350.0,0.4109
350.5,0.435
351.0,0.3894
351.5,0.3779
352.0,0.4087
352.5,0.3207
353.0,0.4058
353.5,0.4357
354.0,0.4541
354.5,0.4622
355.0,0.462
355.5,0.4189
356.0,0.4398
356.5,0.3768
357.0,0.3124
357.5,0.3838
358.0,0.3052
358.5,0.2617
359.0,0.3672
359.5,0.4691
360.0,0.499
360.5,0.4002
361.0,0.366
361.5,0.4227
362.0,0.3666
362.5,0.5087
363.0,0.4582
363.5,0.4233
364.0,0.5191
364.5,0.445
365.0,0.4546
365.5,0.5722
366.0,0.6079
366.5,0.5727
367.0,0.5594
367.5,0.5821
368.0,0.5108
368.5,0.5168
369.0,0.5597
369.5,0.5982
370.0,0.6394
370.5,0.4976
371.0,0.5331
371.5,0.6687
372.0,0.445
372.5,0.535
373.0,0.5455
373.5,0.3558
374.0,0.5184
374.5,0.4304
375.0,0.4194
375.5,0.6278
376.0,0.5218
376.5,0.5421
377.0,0.5753
377.5,0.6747
378.0,0.7332
378.5,0.6948
379.0,0.575
379.5,0.5266
380.0,0.5489
380.5,0.6664
381.0,0.6694
381.5,0.5319
382.0,0.4735
382.5,0.4046
383.0,0.3754
383.5,0.3624
384.0,0.4006
384.5,0.5906
385.0,0.587
385.5,0.5478
386.0,0.4702
386.5,0.619
387.0,0.5155
387.5,0.5803
388.0,0.537
388.5,0.532
389.0,0.5755
389.5,0.6985
390.0,0.7025
390.5,0.6479
391.0,0.7642
391.5,0.7811
392.0,0.6593
392.5,0.5914
393.0,0.3297
393.5,0.2401
394.0,0.4896
394.5,0.6237
395.0,0.7625
395.5,0.7762
396.0,0.6743
396.5,0.3949
397.0,0.2969
397.5,0.605
398.0,0.849
398.5,0.8791
399.0,0.9535
399.5,0.9521
400.0,0.9906
401.0,1.021
402.0,1.081
403.0,1.03
404.0,1.017
405.0,1.021
406.0,1.007
407.0,0.9941
408.0,1.036
409.0,1.112
410.0,0.9748
411.0,1.059
412.0,1.14
413.0,1.116
414.0,1.132
415.0,1.138
416.0,1.162
417.0,1.136
418.0,1.118
419.0,1.136
420.0,1.134
421.0,1.19
422.0,1.134
423.0,1.111
424.0,1.178
425.0,1.179
426.0,1.151
427.0,1.132
428.0,1.105
429.0,1.049
430.0,0.9201
431.0,0.9144
432.0,1.183
433.0,1.192
434.0,1.11
435.0,1.162
436.0,1.311
437.0,1.296
438.0,1.182
439.0,1.226
440.0,1.268
441.0,1.316
442.0,1.414
443.0,1.381
444.0,1.413
445.0,1.386
446.0,1.324
447.0,1.434
448.0,1.46
449.0,1.468
450.0,1.512
451.0,1.571
452.0,1.516
453.0,1.428
454.0,1.493
455.0,1.505
456.0,1.543
457.0,1.572
458.0,1.522
459.0,1.516
460.0,1.523
461.0,1.561
462.0,1.575
463.0,1.566
464.0,1.542
465.0,1.524
466.0,1.541
467.0,1.516
468.0,1.536
469.0,1.547
470.0,1.5
471.0,1.5
472.0,1.583
473.0,1.565
474.0,1.57
475.0,1.586
476.0,1.542
477.0,1.549
478.0,1.594
479.0,1.586
480.0,1.591
481.0,1.623
482.0,1.633
483.0,1.614
484.0,1.583
485.0,1.51
486.0,1.321
487.0,1.386
488.0,1.522
489.0,1.529
490.0,1.61
491.0,1.584
492.0,1.498
493.0,1.548
494.0,1.566
495.0,1.581
496.0,1.592
497.0,1.619
498.0,1.545
499.0,1.567
500.0,1.524
501.0,1.498
502.0,1.479
503.0,1.542
504.0,1.508
505.0,1.561
506.0,1.613
507.0,1.536
508.0,1.489
509.0,1.532
510.0,1.525
511.0,1.566
512.0,1.585
513.0,1.501
514.0,1.492
515.0,1.479
516.0,1.476
517.0,1.313
518.0,1.382
519.0,1.451
520.0,1.505
521.0,1.521
522.0,1.524
523.0,1.498
524.0,1.553
525.0,1.573
526.0,1.504
527.0,1.419
528.0,1.503
529.0,1.586
530.0,1.565
531.0,1.589
532.0,1.536
533.0,1.492
534.0,1.537
535.0,1.572
536.0,1.587
537.0,1.525
538.0,1.553
539.0,1.541
540.0,1.479
541.0,1.491
542.0,1.539
543.0,1.523
544.0,1.551
545.0,1.547
546.0,1.556
547.0,1.555
548.0,1.538
549.0,1.543
550.0,1.562
551.0,1.544
552.0,1.556
553.0,1.529
554.0,1.567
555.0,1.571
556.0,1.552
557.0,1.505
558.0,1.495
559.0,1.469
560.0,1.488
561.0,1.509
562.0,1.499
563.0,1.542
564.0,1.501
565.0,1.49
566.0,1.469
567.0,1.498
568.0,1.487
569.0,1.455
570.0,1.455
571.0,1.447
572.0,1.484
573.0,1.501
574.0,1.497
575.0,1.471
576.0,1.458
577.0,1.474
578.0,1.452
579.0,1.457
580.0,1.484
581.0,1.491
582.0,1.519
583.0,1.522
584.0,1.535
585.0,1.498
586.0,1.468
587.0,1.502
588.0,1.469
589.0,1.309
590.0,1.369
591.0,1.445
592.0,1.43
593.0,1.449
594.0,1.441
595.0,1.408
596.0,1.459
597.0,1.445
598.0,1.44
599.0,1.441
600.0,1.443
601.0,1.431
602.0,1.421
603.0,1.445
604.0,1.469
605.0,1.462
606.0,1.456
607.0,1.47
608.0,1.454
609.0,1.457
610.0,1.446
611.0,1.454
612.0,1.45
613.0,1.432
614.0,1.412
615.0,1.443
616.0,1.396
617.0,1.393
618.0,1.447
619.0,1.433
620.0,1.442
621.0,1.445
622.0,1.429
623.0,1.408
624.0,1.384
625.0,1.381
626.0,1.402
627.0,1.419
628.0,1.34
629.0,1.392
630.0,1.361
631.0,1.387
632.0,1.37
633.0,1.41
634.0,1.395
635.0,1.417
636.0,1.397
637.0,1.42
638.0,1.433
639.0,1.417
640.0,1.403
641.0,1.402
642.0,1.395
643.0,1.415
644.0,1.41
645.0,1.413
646.0,1.382
647.0,1.37
648.0,1.372
649.0,1.346
650.0,1.348
651.0,1.406
652.0,1.353
653.0,1.388
654.0,1.372
655.0,1.324
656.0,1.172
657.0,1.204
658.0,1.348
659.0,1.357
660.0,1.363
661.0,1.372
662.0,1.377
663.0,1.349
664.0,1.364
665.0,1.365
666.0,1.366
667.0,1.364
668.0,1.364
669.0,1.386
670.0,1.38
671.0,1.379
672.0,1.368
673.0,1.388
674.0,1.383
675.0,1.371
676.0,1.38
677.0,1.367
678.0,1.371
679.0,1.349
680.0,1.36
681.0,1.351
682.0,1.35
683.0,1.347
684.0,1.341
685.0,1.353
686.0,1.345
687.0,0.9548
688.0,1.09
689.0,1.093
690.0,1.137
691.0,1.185
692.0,1.22
693.0,1.211
694.0,1.201
695.0,1.244
696.0,1.246
697.0,1.313
698.0,1.293
699.0,1.268
700.0,1.254
701.0,1.243
702.0,1.249
703.0,1.252
704.0,1.289
705.0,1.291
706.0,1.288
707.0,1.289
708.0,1.292
709.0,1.292
710.0,1.293
711.0,1.291
712.0,1.286
713.0,1.275
714.0,1.279
715.0,1.242
716.0,1.243
717.0,1.101
718.0,1.016
719.0,0.9332
720.0,0.9792
721.0,1.067
722.0,1.205
723.0,1.13
724.0,1.028
725.0,1.015
726.0,1.06
727.0,1.071
728.0,1.014
729.0,1.043
730.0,1.104
731.0,1.059
732.0,1.124
733.0,1.182
734.0,1.208
735.0,1.184
736.0,1.183
737.0,1.188
738.0,1.201
739.0,1.178
740.0,1.207
741.0,1.194
742.0,1.195
743.0,1.225
744.0,1.221
745.0,1.221
746.0,1.227
747.0,1.23
748.0,1.227
749.0,1.213
750.0,1.213
751.0,1.201
752.0,1.206
753.0,1.212
754.0,1.215
755.0,1.208
756.0,1.208
757.0,1.21
758.0,1.195
759.0,1.174
760.0,0.2565
761.0,0.148
762.0,0.6631
763.0,0.3682
764.0,0.5209
765.0,0.6637
766.0,0.7854
767.0,0.9621
768.0,1.087
769.0,1.105
770.0,1.137
771.0,1.144
772.0,1.146
773.0,1.154
774.0,1.148
775.0,1.14
776.0,1.154
777.0,1.139
778.0,1.132
779.0,1.133
780.0,1.127
781.0,1.128
782.0,1.135
783.0,1.115
784.0,1.121
785.0,1.113
786.0,1.125
787.0,1.108
788.0,1.096
789.0,1.096
790.0,1.07
791.0,1.076
792.0,1.068
793.0,1.051
794.0,1.066
795.0,1.085
796.0,1.056
797.0,1.058
798.0,1.084
799.0,1.079
800.0,1.061
801.0,1.059
802.0,1.056
803.0,1.049
804.0,1.05
805.0,1.045
806.0,1.072
807.0,1.06
808.0,1.061
809.0,1.043
810.0,1.036
811.0,1.039
812.0,1.013
813.0,0.994
814.0,0.8857
815.0,0.88
816.0,0.8209
817.0,0.8346
818.0,0.806
819.0,0.8914
820.0,0.8434
821.0,0.9726
822.0,0.9471
823.0,0.6655
824.0,0.9242
825.0,0.9567
826.0,0.9245
827.0,0.9714
828.0,0.8357
829.0,0.9183
830.0,0.9077
831.0,0.9105
832.0,0.8849
833.0,0.9353
834.0,0.9062
835.0,0.9872
836.0,0.9502
837.0,0.9898
838.0,0.9614
839.0,0.9745
840.0,0.9953
841.0,0.9823
842.0,0.983
843.0,0.9809
844.0,0.9682
845.0,0.9998
846.0,0.9953
847.0,0.9764
848.0,0.9711
849.0,0.9436
850.0,0.904
851.0,0.958
852.0,0.951
853.0,0.9149
854.0,0.7905
855.0,0.8679
856.0,0.9488
857.0,0.9696
858.0,0.9627
859.0,0.9633
860.0,0.9649
861.0,0.9598
862.0,0.9749
863.0,0.9979
864.0,0.9481
865.0,0.9398
866.0,0.8451
867.0,0.882
868.0,0.9598
869.0,0.94
870.0,0.9668
871.0,0.9537
872.0,0.9504
873.0,0.9486
874.0,0.9373
875.0,0.9184
876.0,0.9281
877.0,0.9375
878.0,0.9479
879.0,0.9333
880.0,0.9134
881.0,0.9001
882.0,0.9197
883.0,0.9224
884.0,0.9183
885.0,0.9253
886.0,0.8831
887.0,0.8917
888.0,0.9054
889.0,0.9148
890.0,0.9084
891.0,0.9063
892.0,0.8817
893.0,0.856
894.0,0.8295
895.0,0.7883
896.0,0.7447
897.0,0.6459
898.0,0.7013
899.0,0.541
900.0,0.7145
901.0,0.5667
902.0,0.6553
903.0,0.665
904.0,0.8237
905.0,0.7974
906.0,0.7479
907.0,0.6168
908.0,0.6278
909.0,0.6758
910.0,0.6053
911.0,0.6405
912.0,0.668
913.0,0.6147
914.0,0.6082
915.0,0.6586
916.0,0.5599
917.0,0.7021
918.0,0.5743
919.0,0.713
920.0,0.7164
921.0,0.7442
922.0,0.6708
923.0,0.7187
924.0,0.6879
925.0,0.6732
926.0,0.6806
927.0,0.7567
928.0,0.5699
929.0,0.5241
930.0,0.4181
931.0,0.3952
932.0,0.2908
933.0,0.2396
934.0,0.1383
935.0,0.2426
936.0,0.1558
937.0,0.1584
938.0,0.1931
939.0,0.3831
940.0,0.4566
941.0,0.3503
942.0,0.4021
943.0,0.269
944.0,0.2793
945.0,0.3603
946.0,0.1894
947.0,0.3635
948.0,0.268
949.0,0.4806
950.0,0.1428
951.0,0.4722
952.0,0.2616
953.0,0.3327
954.0,0.4023
955.0,0.3359
956.0,0.3233
957.0,0.2628
958.0,0.4501
959.0,0.3638
960.0,0.4075
961.0,0.4528
962.0,0.429
963.0,0.4904
964.0,0.4507
965.0,0.4882
966.0,0.4893
967.0,0.4876
968.0,0.6396
969.0,0.6691
970.0,0.6165
971.0,0.6995
972.0,0.6704
973.0,0.59
974.0,0.5609
975.0,0.5798
976.0,0.5539
977.0,0.6238
978.0,0.5953
979.0,0.6216
980.0,0.5857
981.0,0.6955
982.0,0.6673
983.0,0.642
984.0,0.7142
985.0,0.6648
986.0,0.7253
987.0,0.7128
988.0,0.7115
989.0,0.7223
990.0,0.7072
991.0,0.7247
992.0,0.7287
993.0,0.7141
994.0,0.7284
995.0,0.7273
996.0,0.7243
997.0,0.7253
998.0,0.722
999.0,0.7193
1000.0,0.7147
1001.0,0.7232
1002.0,0.7049
1003.0,0.7106
1004.0,0.6936
1005.0,0.6677
1006.0,0.6941
1007.0,0.7087
1008.0,0.7051
1009.0,0.7017
1010.0,0.6989
1011.0,0.7052
1012.0,0.6994
1013.0,0.7034
1014.0,0.6985
1015.0,0.694
1016.0,0.6909
1017.0,0.6927
1018.0,0.69
1019.0,0.6759
1020.0,0.6865
1021.0,0.6855
1022.0,0.6804
1023.0,0.6876
1024.0,0.6793
1025.0,0.687
1026.0,0.6843
1027.0,0.6827
1028.0,0.6813
1029.0,0.6733
1030.0,0.6778
1031.0,0.6752
1032.0,0.6732
1033.0,0.6631
1034.0,0.6631
1035.0,0.6652
1036.0,0.6687
1037.0,0.6579
1038.0,0.6608
1039.0,0.6605
1040.0,0.6579
1041.0,0.6606
1042.0,0.656
1043.0,0.6539
1044.0,0.6563
1045.0,0.6474
1046.0,0.6404
1047.0,0.6462
1048.0,0.6498
1049.0,0.6475
1050.0,0.6446
1051.0,0.6438
1052.0,0.6412
1053.0,0.6362
1054.0,0.6377
1055.0,0.6382
1056.0,0.636
1057.0,0.6342
1058.0,0.6187
1059.0,0.6194
1060.0,0.6186
1061.0,0.6179
1062.0,0.6212
1063.0,0.6152
1064.0,0.6225
1065.0,0.6182
1066.0,0.6059
1067.0,0.6138
1068.0,0.6005
1069.0,0.5819
1070.0,0.6018
1071.0,0.6107
1072.0,0.604
1073.0,0.5953
1074.0,0.6101
1075.0,0.5812
1076.0,0.6097
1077.0,0.5997
1078.0,0.5887
1079.0,0.5998
1080.0,0.5906
1081.0,0.5724
1082.0,0.5803
1083.0,0.5817
1084.0,0.5715
1085.0,0.5918
1086.0,0.5426
1087.0,0.5582
1088.0,0.5815
1089.0,0.5652
1090.0,0.5538
1091.0,0.58
1092.0,0.5782
1093.0,0.495
1094.0,0.5297
1095.0,0.515
1096.0,0.4946
1097.0,0.5648
1098.0,0.4873
1099.0,0.5076
1100.0,0.474
1101.0,0.4793
1102.0,0.4591
1103.0,0.4555
1104.0,0.456
1105.0,0.4965
1106.0,0.3878
1107.0,0.4732
1108.0,0.4059
1109.0,0.4057
1110.0,0.4697
1111.0,0.325
1112.0,0.4022
1113.0,0.2627
1114.0,0.2929
1115.0,0.2431
1116.0,0.1981
1117.0,0.07719
1118.0,0.2141
1119.0,0.1097
1120.0,0.1383
1121.0,0.1813
1122.0,0.07934
1123.0,0.1248
1124.0,0.1054
1125.0,0.1367
1126.0,0.05058
1127.0,0.1539
1128.0,0.09531
1129.0,0.1007
1130.0,0.06758
1131.0,0.2842
1132.0,0.2244
1133.0,0.1463
1134.0,0.03987
1135.0,0.01482
1136.0,0.1235
1137.0,0.2804
1138.0,0.1985
1139.0,0.2882
1140.0,0.2438
1141.0,0.1886
1142.0,0.2153
1143.0,0.3025
1144.0,0.1096
1145.0,0.141
1146.0,0.1522
1147.0,0.05665
1148.0,0.2619
1149.0,0.2116
1150.0,0.1176
1151.0,0.197
1152.0,0.2397
1153.0,0.2315
1154.0,0.1373
1155.0,0.3008
1156.0,0.2724
1157.0,0.3033
1158.0,0.3
1159.0,0.3215
1160.0,0.2772
1161.0,0.3367
1162.0,0.3388
1163.0,0.4491
1164.0,0.3884
1165.0,0.3693
1166.0,0.3647
1167.0,0.3956
1168.0,0.4006
1169.0,0.4091
1170.0,0.442
1171.0,0.4314
1172.0,0.4377
1173.0,0.4411
1174.0,0.3222
1175.0,0.4297
1176.0,0.4688
1177.0,0.4524
1178.0,0.3454
1179.0,0.4725
1180.0,0.4258
1181.0,0.439
1182.0,0.309
1183.0,0.4314
1184.0,0.4063
1185.0,0.3939
1186.0,0.4609
1187.0,0.441
1188.0,0.3149
1189.0,0.4112
1190.0,0.4505
1191.0,0.431
1192.0,0.4564
1193.0,0.4385
1194.0,0.4512
1195.0,0.4291
1196.0,0.4147
1197.0,0.4502
1198.0,0.4136
1199.0,0.3572
1200.0,0.4333
1201.0,0.4197
1202.0,0.4161
1203.0,0.4128
1204.0,0.3639
1205.0,0.4243
1206.0,0.4657
1207.0,0.4157
1208.0,0.4075
1209.0,0.4155
1210.0,0.4316
1211.0,0.4131
1212.0,0.4106
1213.0,0.4516
1214.0,0.4193
1215.0,0.4119
1216.0,0.45
1217.0,0.4392
1218.0,0.4465
1219.0,0.4415
1220.0,0.4468
1221.0,0.4507
1222.0,0.4396
1223.0,0.436
1224.0,0.4341
1225.0,0.4479
1226.0,0.4502
1227.0,0.4181
1228.0,0.4519
1229.0,0.4503
1230.0,0.4431
1231.0,0.454
1232.0,0.4514
1233.0,0.4381
1234.0,0.4532
1235.0,0.4506
1236.0,0.4536
1237.0,0.4482
1238.0,0.4521
1239.0,0.4464
1240.0,0.4479
1241.0,0.4464
1242.0,0.4449
1243.0,0.4413
1244.0,0.4446
1245.0,0.4464
1246.0,0.4438
1247.0,0.4422
1248.0,0.4422
1249.0,0.4433
1250.0,0.4408
1251.0,0.4355
1252.0,0.4352
1253.0,0.4324
1254.0,0.4287
1255.0,0.4349
1256.0,0.4242
1257.0,0.4221
1258.0,0.4289
1259.0,0.4156
1260.0,0.4175
1261.0,0.3968
1262.0,0.3864
1263.0,0.3872
1264.0,0.3608
1265.0,0.3847
1266.0,0.3721
1267.0,0.3773
1268.0,0.36
1269.0,0.2383
1270.0,0.3765
1271.0,0.3952
1272.0,0.3962
1273.0,0.3923
1274.0,0.3931
1275.0,0.3983
1276.0,0.4016
1277.0,0.4037
1278.0,0.4103
1279.0,0.4067
1280.0,0.4015
1281.0,0.3826
1282.0,0.3678
1283.0,0.3963
1284.0,0.4059
1285.0,0.4085
1286.0,0.4135
1287.0,0.408
1288.0,0.4077
1289.0,0.3965
1290.0,0.404
1291.0,0.4093
1292.0,0.3878
1293.0,0.4022
1294.0,0.3995
1295.0,0.3984
1296.0,0.3825
1297.0,0.3634
1298.0,0.3879
1299.0,0.4024
1300.0,0.3463
1301.0,0.3558
1302.0,0.3866
1303.0,0.3411
1304.0,0.2962
1305.0,0.379
1306.0,0.3794
1307.0,0.3007
1308.0,0.3408
1309.0,0.377
1310.0,0.2953
1311.0,0.328
1312.0,0.3199
1313.0,0.3146
1314.0,0.2834
1315.0,0.2809
1316.0,0.3237
1317.0,0.3072
1318.0,0.3317
1319.0,0.2654
1320.0,0.2559
1321.0,0.2959
1322.0,0.2998
1323.0,0.2306
1324.0,0.2603
1325.0,0.3194
1326.0,0.2773
1327.0,0.2653
1328.0,0.2304
1329.0,0.1772
1330.0,0.2285
1331.0,0.1429
1332.0,0.1459
1333.0,0.2018
1334.0,0.1687
1335.0,0.2298
1336.0,0.1842
1337.0,0.1643
1338.0,0.1777
1339.0,0.1762
1340.0,0.1702
1341.0,0.169
1342.0,0.1773
1343.0,0.1261
1344.0,0.07527
1345.0,0.108
1346.0,0.05763
1347.0,0.05928
1348.0,0.00461
1349.0,0.01571
1350.0,0.01571
1351.0,0.004491
1352.0,0.00144
1353.0,8.946e-05
1354.0,0.0002724
1355.0,3.269e-06
1356.0,4.44e-05
1357.0,6.724e-05
1358.0,3.811e-06
1359.0,6.45e-07
1360.0,1.937e-06
1361.0,4.077e-09
1362.0,1.478e-11
1363.0,2.839e-06
1364.0,1.207e-06
1365.0,7.275e-12
1366.0,1.147e-05
1367.0,4.502e-06
1368.0,1.103e-13
1369.0,4.599e-07
1370.0,2.567e-07
1371.0,1.71e-08
1372.0,2.48e-06
1373.0,4.083e-05
1374.0,0.0001655
1375.0,0.0003009
1376.0,0.0002434
1377.0,0.0001152
1378.0,0.001054
1379.0,4.875e-05
1380.0,7.615e-05
1381.0,2.179e-06
1382.0,2.316e-06
1383.0,3.927e-08
1384.0,5.458e-07
1385.0,1.912e-06
1386.0,2.247e-06
1387.0,0.0001854
1388.0,3.735e-06
1389.0,0.0005432
1390.0,0.0004675
1391.0,0.0003223
1392.0,2.212e-05
1393.0,0.0001087
1394.0,6.97e-05
1395.0,6.08e-07
1396.0,5.405e-09
1397.0,4.581e-05
1398.0,0.001199
1399.0,0.0007599
1400.0,2.749e-09
1401.0,9.157e-09
1402.0,0.001767
1403.0,0.002295
1404.0,0.00071
1405.0,3.295e-07
1406.0,0.001952
1407.0,0.0001672
1408.0,0.001582
1409.0,0.0005875
1410.0,0.0004436
1411.0,0.002006
1412.0,0.002581
1413.0,0.02305
1414.0,0.000346
1415.0,0.0001744
1416.0,0.03519
1417.0,0.01151
1418.0,0.01321
1419.0,0.002092
1420.0,0.008114
1421.0,0.008807
1422.0,0.0457
1423.0,0.009086
1424.0,0.01682
1425.0,0.02506
1426.0,0.02766
1427.0,0.04907
1428.0,0.00439
1429.0,0.03749
1430.0,0.06194
1431.0,0.06755
1432.0,0.003479
1433.0,0.04363
1434.0,0.02253
1435.0,0.02364
1436.0,0.04386
1437.0,0.03361
1438.0,0.01468
1439.0,0.05888
1440.0,0.04418
1441.0,0.0345
1442.0,0.03812
1443.0,0.04662
1444.0,0.06402
1445.0,0.0511
1446.0,0.02329
1447.0,0.03664
1448.0,0.1171
1449.0,0.1026
1450.0,0.02713
1451.0,0.01113
1452.0,0.06266
1453.0,0.08175
1454.0,0.1373
1455.0,0.06587
1456.0,0.08899
1457.0,0.1176
1458.0,0.1369
1459.0,0.1622
1460.0,0.08536
1461.0,0.0899
1462.0,0.1304
