interpolation:linear
wavelength,value
280.0,2.432e-25
280.5,9.897e-24
281.0,5.842999999999999e-23
281.5,2.29e-21
282.0,2.095e-20
282.5,8.827e-20
283.0,4.315e-19
283.5,8.562e-19
284.0,2.75e-17
284.5,1.049e-16
285.0,2.737e-16
285.5,2.388e-15
286.0,1.179e-14
286.5,7.512e-14
287.0,2.729e-13
287.5,1.383e-12
288.0,7.067e-12
288.5,2.999e-11
289.0,1.075e-10
289.5,4.306e-10
290.0,1.483e-09
290.5,3.604e-09
291.0,9.393e-09
291.5,3.375e-08
292.0,9.19e-08
292.5,1.44e-07
293.0,3.515e-07
293.5,1.005e-06
294.0,1.768e-06
294.5,3.232e-06
295.0,5.959e-06
295.5,1.527e-05
296.0,2.855e-05
296.5,3.858e-05
297.0,5.068e-05
297.5,0.000129
298.0,0.0001941
298.5,0.0001881
299.0,0.000399
299.5,0.0006124
300.0,0.0006457
300.5,0.0008929
301.0,0.001486
301.5,0.002191
302.0,0.001806
302.5,0.00345
303.0,0.005995
303.5,0.007385
304.0,0.006805
304.5,0.009533
305.0,0.01318
305.5,0.01427
306.0,0.01357
306.5,0.01634
307.0,0.02232
307.5,0.02742
308.0,0.02876
308.5,0.03278
309.0,0.02922
309.5,0.03261
310.0,0.03243
310.5,0.05242
311.0,0.06522
311.5,0.06292
312.0,0.06104
312.5,0.07282
313.0,0.07836
313.5,0.07758
314.0,0.09441
314.5,0.08042
315.0,0.1054
315.5,0.09076
316.0,0.07669
316.5,0.1069
317.0,0.1336
317.5,0.1412
318.0,0.1081
318.5,0.1287
319.0,0.1497
319.5,0.1277
320.0,0.156
320.5,0.1867
321.0,0.1595
321.5,0.153
322.0,0.1723
322.5,0.1503
323.0,0.1456
323.5,0.1699
324.0,0.1982
324.5,0.2053
325.0,0.1858
325.5,0.2338
326.0,0.2777
326.5,0.274
327.0,0.2764
327.5,0.2708
328.0,0.2486
328.5,0.2544
329.0,0.2984
329.5,0.3376
330.0,0.3443
330.5,0.2824
331.0,0.2909
331.5,0.2927
332.0,0.3109
332.5,0.3059
333.0,0.3082
333.5,0.2847
334.0,0.2936
334.5,0.3342
335.0,0.3121
335.5,0.3552
336.0,0.2467
336.5,0.3007
337.0,0.2496
337.5,0.3126
338.0,0.302
338.5,0.3417
339.0,0.3414
339.5,0.3284
340.0,0.3961
340.5,0.3579
341.0,0.3442
341.5,0.32
342.0,0.3847
342.5,0.3619
343.0,0.3978
343.5,0.3746
344.0,0.2816
344.5,0.2794
345.0,0.3752
345.5,0.3858
346.0,0.3297
346.5,0.3751
347.0,0.4027
347.5,0.3263
348.0,0.3749
348.5,0.3767
349.0,0.3509
349.5,0.3484
350.0,0.4325
350.5,0.4577
351.0,0.4096
351.5,0.3974
352.0,0.4297
352.5,0.3371
353.0,0.4264
353.5,0.4577
354.0,0.4769
354.5,0.4852
355.0,0.4849
355.5,0.4395
356.0,0.4613
356.5,0.3952
357.0,0.3275
357.5,0.4023
358.0,0.3198
358.5,0.2742
359.0,0.3846
359.5,0.4913
360.0,0.5225
360.5,0.4189
361.0,0.383
361.5,0.4422
362.0,0.3833
362.5,0.5318
363.0,0.4789
363.5,0.4422
364.0,0.5422
364.5,0.4647
365.0,0.4745
365.5,0.5971
366.0,0.6343
366.5,0.5974
367.0,0.5833
367.5,0.6069
368.0,0.5325
368.5,0.5386
369.0,0.5831
369.5,0.6231
370.0,0.6659
370.5,0.518
371.0,0.5549
371.5,0.6959
372.0,0.463
372.5,0.5565
373.0,0.5674
373.5,0.37
374.0,0.5389
374.5,0.4473
375.0,0.4358
375.5,0.6523
376.0,0.542
376.5,0.563
377.0,0.5974
377.5,0.7004
378.0,0.761
378.5,0.7211
379.0,0.5966
379.5,0.5463
380.0,0.5694
380.5,0.6911
381.0,0.6941
381.5,0.5513
382.0,0.4907
382.5,0.4191
383.0,0.3889
383.5,0.3753
384.0,0.4148
384.5,0.6114
385.0,0.6075
385.5,0.5669
386.0,0.4865
386.5,0.6403
387.0,0.5332
387.5,0.6001
388.0,0.5552
388.5,0.5499
389.0,0.5948
389.5,0.7218
390.0,0.7258
390.5,0.6692
391.0,0.7893
391.5,0.8066
392.0,0.6807
392.5,0.6105
393.0,0.3403
393.5,0.2478
394.0,0.5052
394.5,0.6434
395.0,0.7865
395.5,0.8005
396.0,0.6952
396.5,0.4071
397.0,0.306
397.5,0.6235
398.0,0.8748
398.5,0.9058
399.0,0.9822
399.5,0.9806
400.0,1.02
401.0,1.051
402.0,1.112
403.0,1.06
404.0,1.047
405.0,1.05
406.0,1.035
407.0,1.022
408.0,1.065
409.0,1.143
410.0,1.001
411.0,1.087
412.0,1.17
413.0,1.145
414.0,1.162
415.0,1.168
416.0,1.191
417.0,1.165
418.0,1.146
419.0,1.164
420.0,1.162
421.0,1.219
422.0,1.161
423.0,1.137
424.0,1.206
425.0,1.206
426.0,1.177
427.0,1.158
428.0,1.13
429.0,1.072
430.0,0.9404
431.0,0.9345
432.0,1.209
433.0,1.218
434.0,1.134
435.0,1.186
436.0,1.339
437.0,1.323
438.0,1.207
439.0,1.251
440.0,1.293
441.0,1.342
442.0,1.442
443.0,1.408
444.0,1.441
445.0,1.412
446.0,1.35
447.0,1.461
448.0,1.487
449.0,1.495
450.0,1.539
451.0,1.599
452.0,1.543
453.0,1.454
454.0,1.519
455.0,1.532
456.0,1.57
457.0,1.599
458.0,1.548
459.0,1.542
460.0,1.549
461.0,1.587
462.0,1.601
463.0,1.592
464.0,1.567
465.0,1.549
466.0,1.566
467.0,1.54
468.0,1.56
469.0,1.571
470.0,1.523
471.0,1.523
472.0,1.607
473.0,1.589
474.0,1.594
475.0,1.61
476.0,1.565
477.0,1.573
478.0,1.618
479.0,1.61
480.0,1.615
481.0,1.646
482.0,1.656
483.0,1.637
484.0,1.605
485.0,1.531
486.0,1.339
487.0,1.405
488.0,1.543
489.0,1.55
490.0,1.632
491.0,1.605
492.0,1.517
493.0,1.569
494.0,1.586
495.0,1.601
496.0,1.613
497.0,1.64
498.0,1.565
499.0,1.587
500.0,1.543
501.0,1.517
502.0,1.498
503.0,1.562
504.0,1.528
505.0,1.581
506.0,1.634
507.0,1.556
508.0,1.508
509.0,1.551
510.0,1.543
511.0,1.585
512.0,1.603
513.0,1.519
514.0,1.51
515.0,1.496
516.0,1.494
517.0,1.328
518.0,1.398
519.0,1.467
520.0,1.522
521.0,1.538
522.0,1.541
523.0,1.515
524.0,1.571
525.0,1.591
526.0,1.522
527.0,1.436
528.0,1.52
529.0,1.604
530.0,1.582
531.0,1.607
532.0,1.554
533.0,1.509
534.0,1.555
535.0,1.589
536.0,1.604
537.0,1.542
538.0,1.57
539.0,1.558
540.0,1.495
541.0,1.507
542.0,1.556
543.0,1.54
544.0,1.568
545.0,1.564
546.0,1.573
547.0,1.572
548.0,1.554
549.0,1.559
550.0,1.579
551.0,1.561
552.0,1.572
553.0,1.545
554.0,1.583
555.0,1.588
556.0,1.568
557.0,1.521
558.0,1.511
559.0,1.484
560.0,1.504
561.0,1.525
562.0,1.515
563.0,1.558
564.0,1.517
565.0,1.506
566.0,1.485
567.0,1.514
568.0,1.504
569.0,1.472
570.0,1.472
571.0,1.463
572.0,1.501
573.0,1.518
574.0,1.515
575.0,1.488
576.0,1.475
577.0,1.492
578.0,1.469
579.0,1.474
580.0,1.5
581.0,1.507
582.0,1.534
583.0,1.537
584.0,1.55
585.0,1.513
586.0,1.482
587.0,1.517
588.0,1.485
589.0,1.325
590.0,1.385
591.0,1.461
592.0,1.446
593.0,1.465
594.0,1.457
595.0,1.424
596.0,1.474
597.0,1.46
598.0,1.455
599.0,1.456
600.0,1.457
601.0,1.444
602.0,1.435
603.0,1.459
604.0,1.483
605.0,1.476
606.0,1.469
607.0,1.484
608.0,1.467
609.0,1.47
610.0,1.459
611.0,1.467
612.0,1.463
613.0,1.444
614.0,1.424
615.0,1.455
616.0,1.407
617.0,1.405
618.0,1.459
619.0,1.444
620.0,1.454
621.0,1.457
622.0,1.441
623.0,1.42
624.0,1.395
625.0,1.393
626.0,1.414
627.0,1.431
628.0,1.356
629.0,1.405
630.0,1.374
631.0,1.399
632.0,1.381
633.0,1.421
634.0,1.406
635.0,1.427
636.0,1.408
637.0,1.43
638.0,1.443
639.0,1.427
640.0,1.412
641.0,1.411
642.0,1.404
643.0,1.424
644.0,1.419
645.0,1.422
646.0,1.391
647.0,1.38
648.0,1.382
649.0,1.356
650.0,1.357
651.0,1.415
652.0,1.363
653.0,1.396
654.0,1.381
655.0,1.333
656.0,1.179
657.0,1.211
658.0,1.356
659.0,1.365
660.0,1.37
661.0,1.38
662.0,1.385
663.0,1.357
664.0,1.372
665.0,1.372
666.0,1.373
667.0,1.371
668.0,1.371
669.0,1.392
670.0,1.386
671.0,1.386
672.0,1.374
673.0,1.395
674.0,1.39
675.0,1.377
676.0,1.387
677.0,1.373
678.0,1.377
679.0,1.355
680.0,1.366
681.0,1.357
682.0,1.355
683.0,1.353
684.0,1.347
685.0,1.358
686.0,1.351
687.0,0.9771
688.0,1.106
689.0,1.109
690.0,1.151
691.0,1.197
692.0,1.23
693.0,1.221
694.0,1.212
695.0,1.252
696.0,1.254
697.0,1.319
698.0,1.299
699.0,1.276
700.0,1.261
701.0,1.251
702.0,1.257
703.0,1.259
704.0,1.295
705.0,1.297
706.0,1.295
707.0,1.295
708.0,1.298
709.0,1.297
710.0,1.299
711.0,1.296
712.0,1.291
713.0,1.28
714.0,1.285
715.0,1.247
716.0,1.249
717.0,1.113
718.0,1.028
719.0,0.9453
720.0,0.9922
721.0,1.077
722.0,1.212
723.0,1.139
724.0,1.039
725.0,1.026
726.0,1.072
727.0,1.081
728.0,1.025
729.0,1.053
730.0,1.114
731.0,1.07
732.0,1.133
733.0,1.189
734.0,1.214
735.0,1.191
736.0,1.189
737.0,1.194
738.0,1.206
739.0,1.183
740.0,1.211
741.0,1.198
742.0,1.198
743.0,1.229
744.0,1.225
745.0,1.224
746.0,1.23
747.0,1.233
748.0,1.23
749.0,1.216
750.0,1.216
751.0,1.204
752.0,1.209
753.0,1.215
754.0,1.218
755.0,1.211
756.0,1.211
757.0,1.213
758.0,1.198
759.0,1.178
760.0,0.2789
761.0,0.1657
762.0,0.685
763.0,0.3928
764.0,0.5453
765.0,0.6856
766.0,0.8024
767.0,0.9741
768.0,1.094
769.0,1.111
770.0,1.141
771.0,1.147
772.0,1.149
773.0,1.157
774.0,1.151
775.0,1.142
776.0,1.156
777.0,1.141
778.0,1.134
779.0,1.135
780.0,1.129
781.0,1.13
782.0,1.138
783.0,1.118
784.0,1.123
785.0,1.115
786.0,1.128
787.0,1.111
788.0,1.099
789.0,1.099
790.0,1.075
791.0,1.08
792.0,1.071
793.0,1.055
794.0,1.068
795.0,1.088
796.0,1.06
797.0,1.062
798.0,1.087
799.0,1.082
800.0,1.064
801.0,1.063
802.0,1.06
803.0,1.052
804.0,1.053
805.0,1.048
806.0,1.075
807.0,1.063
808.0,1.063
809.0,1.046
810.0,1.039
811.0,1.043
812.0,1.018
813.0,0.9996
814.0,0.8942
815.0,0.8884
816.0,0.8292
817.0,0.8426
818.0,0.8144
819.0,0.8976
820.0,0.8506
821.0,0.9767
822.0,0.9518
823.0,0.6757
824.0,0.9302
825.0,0.961
826.0,0.9299
827.0,0.9757
828.0,0.8432
829.0,0.9234
830.0,0.9131
831.0,0.9158
832.0,0.8907
833.0,0.9394
834.0,0.9115
835.0,0.9902
836.0,0.9548
837.0,0.9927
838.0,0.9649
839.0,0.9772
840.0,0.9979
841.0,0.9852
842.0,0.9853
843.0,0.9828
844.0,0.9703
845.0,1.002
846.0,0.997
847.0,0.9779
848.0,0.9728
849.0,0.9452
850.0,0.9056
851.0,0.9598
852.0,0.9527
853.0,0.9164
854.0,0.7919
855.0,0.8692
856.0,0.9504
857.0,0.971
858.0,0.9642
859.0,0.9647
860.0,0.9663
861.0,0.9611
862.0,0.9762
863.0,0.9993
864.0,0.9494
865.0,0.9411
866.0,0.8462
867.0,0.8831
868.0,0.9611
869.0,0.9412
870.0,0.968
871.0,0.9549
872.0,0.9516
873.0,0.9497
874.0,0.9385
875.0,0.9196
876.0,0.9293
877.0,0.9387
878.0,0.9491
879.0,0.9345
880.0,0.9145
881.0,0.9013
882.0,0.921
883.0,0.9236
884.0,0.9195
885.0,0.9266
886.0,0.8847
887.0,0.8929
888.0,0.9069
889.0,0.9159
890.0,0.9099
891.0,0.9076
892.0,0.8835
893.0,0.8585
894.0,0.8332
895.0,0.7936
896.0,0.7505
897.0,0.6533
898.0,0.708
899.0,0.5491
900.0,0.7198
901.0,0.5751
902.0,0.6611
903.0,0.6721
904.0,0.8274
905.0,0.8018
906.0,0.7527
907.0,0.6243
908.0,0.6349
909.0,0.6817
910.0,0.6137
911.0,0.6476
912.0,0.6746
913.0,0.6234
914.0,0.6162
915.0,0.6669
916.0,0.568
917.0,0.7088
918.0,0.5827
919.0,0.719
920.0,0.7209
921.0,0.7485
922.0,0.6769
923.0,0.7227
924.0,0.6943
925.0,0.6794
926.0,0.6869
927.0,0.7616
928.0,0.5798
929.0,0.5349
930.0,0.4294
931.0,0.4054
932.0,0.3011
933.0,0.2497
934.0,0.1474
935.0,0.2514
936.0,0.1636
937.0,0.1667
938.0,0.2023
939.0,0.393
940.0,0.4665
941.0,0.3606
942.0,0.4121
943.0,0.2778
944.0,0.2867
945.0,0.3704
946.0,0.1976
947.0,0.3744
948.0,0.2766
949.0,0.4921
950.0,0.151
951.0,0.4831
952.0,0.2716
953.0,0.3429
954.0,0.4118
955.0,0.3459
956.0,0.3317
957.0,0.2732
958.0,0.4576
959.0,0.3729
960.0,0.4176
961.0,0.4617
962.0,0.4378
963.0,0.4985
964.0,0.4588
965.0,0.496
966.0,0.4976
967.0,0.4961
968.0,0.6438
969.0,0.674
970.0,0.622
971.0,0.7028
972.0,0.6741
973.0,0.5962
974.0,0.5674
975.0,0.5852
976.0,0.5606
977.0,0.6283
978.0,0.601
979.0,0.6265
980.0,0.591
981.0,0.6986
982.0,0.6713
983.0,0.6465
984.0,0.7162
985.0,0.6688
986.0,0.7265
987.0,0.7148
988.0,0.7135
989.0,0.7231
990.0,0.7091
991.0,0.7255
992.0,0.7295
993.0,0.7157
994.0,0.7291
995.0,0.7279
996.0,0.7251
997.0,0.726
998.0,0.7227
999.0,0.72
1000.0,0.7155
1001.0,0.7239
1002.0,0.7062
1003.0,0.7113
1004.0,0.6945
1005.0,0.6683
1006.0,0.6948
1007.0,0.7093
1008.0,0.7059
1009.0,0.7026
1010.0,0.6999
1011.0,0.7058
1012.0,0.7001
1013.0,0.704
1014.0,0.6991
1015.0,0.6946
1016.0,0.6915
1017.0,0.6934
1018.0,0.6905
1019.0,0.6767
1020.0,0.6871
1021.0,0.686
1022.0,0.681
1023.0,0.6883
1024.0,0.6803
1025.0,0.6876
1026.0,0.6849
1027.0,0.6833
1028.0,0.6819
1029.0,0.674
1030.0,0.6783
1031.0,0.6758
1032.0,0.6737
1033.0,0.6636
1034.0,0.6636
1035.0,0.6657
1036.0,0.6693
1037.0,0.6584
1038.0,0.6614
1039.0,0.6611
1040.0,0.6584
1041.0,0.6612
1042.0,0.6566
1043.0,0.6546
1044.0,0.6569
1045.0,0.6481
1046.0,0.641
1047.0,0.6468
1048.0,0.6505
1049.0,0.6482
1050.0,0.6453
1051.0,0.6445
1052.0,0.642
1053.0,0.637
1054.0,0.6385
1055.0,0.6391
1056.0,0.637
1057.0,0.6351
1058.0,0.6197
1059.0,0.6205
1060.0,0.6196
1061.0,0.619
1062.0,0.6224
1063.0,0.6164
1064.0,0.6236
1065.0,0.6195
1066.0,0.607
1067.0,0.615
1068.0,0.6018
1069.0,0.583
1070.0,0.6031
1071.0,0.6117
1072.0,0.6052
1073.0,0.5964
1074.0,0.611
1075.0,0.5828
1076.0,0.6106
1077.0,0.6011
1078.0,0.5903
1079.0,0.6005
1080.0,0.5919
1081.0,0.5741
1082.0,0.5813
1083.0,0.5826
1084.0,0.5734
1085.0,0.5931
1086.0,0.5451
1087.0,0.5598
1088.0,0.5825
1089.0,0.5669
1090.0,0.5561
1091.0,0.5813
1092.0,0.5793
1093.0,0.4982
1094.0,0.5309
1095.0,0.518
1096.0,0.4982
1097.0,0.5658
1098.0,0.4911
1099.0,0.5112
1100.0,0.4785
1101.0,0.4835
1102.0,0.4637
1103.0,0.4606
1104.0,0.461
1105.0,0.5002
1106.0,0.3948
1107.0,0.4775
1108.0,0.4121
1109.0,0.4114
1110.0,0.4743
1111.0,0.3316
1112.0,0.4077
1113.0,0.2699
1114.0,0.3004
1115.0,0.2494
1116.0,0.2054
1117.0,0.0826
1118.0,0.2212
1119.0,0.1154
1120.0,0.1454
1121.0,0.1894
1122.0,0.0846
1123.0,0.1312
1124.0,0.1108
1125.0,0.1432
1126.0,0.05473
1127.0,0.1611
1128.0,0.1016
1129.0,0.107
1130.0,0.07271
1131.0,0.2932
1132.0,0.2324
1133.0,0.1538
1134.0,0.0434
1135.0,0.01607
1136.0,0.1307
1137.0,0.29
1138.0,0.2058
1139.0,0.2946
1140.0,0.2508
1141.0,0.1955
1142.0,0.2223
1143.0,0.3106
1144.0,0.1148
1145.0,0.1482
1146.0,0.1599
1147.0,0.06137
1148.0,0.269
1149.0,0.2186
1150.0,0.1231
1151.0,0.2043
1152.0,0.247
1153.0,0.2374
1154.0,0.1447
1155.0,0.3075
1156.0,0.2793
1157.0,0.3098
1158.0,0.3064
1159.0,0.3272
1160.0,0.2835
1161.0,0.342
1162.0,0.3442
1163.0,0.4524
1164.0,0.3927
1165.0,0.3748
1166.0,0.3692
1167.0,0.3997
1168.0,0.4051
1169.0,0.4131
1170.0,0.4452
1171.0,0.4347
1172.0,0.4404
1173.0,0.4443
1174.0,0.3277
1175.0,0.4324
1176.0,0.4703
1177.0,0.4547
1178.0,0.3495
1179.0,0.4739
1180.0,0.4287
1181.0,0.4418
1182.0,0.3136
1183.0,0.4338
1184.0,0.4094
1185.0,0.3976
1186.0,0.4629
1187.0,0.4435
1188.0,0.3197
1189.0,0.4138
1190.0,0.4523
1191.0,0.4341
1192.0,0.4582
1193.0,0.4407
1194.0,0.4531
1195.0,0.4317
1196.0,0.4179
1197.0,0.4516
1198.0,0.4157
1199.0,0.3609
1200.0,0.4355
1201.0,0.4225
1202.0,0.4186
1203.0,0.4152
1204.0,0.3672
1205.0,0.4261
1206.0,0.4666
1207.0,0.4182
1208.0,0.4095
1209.0,0.4173
1210.0,0.4331
1211.0,0.4153
1212.0,0.4135
1213.0,0.4529
1214.0,0.4219
1215.0,0.4146
1216.0,0.4513
1217.0,0.4408
1218.0,0.4478
1219.0,0.443
1220.0,0.4481
1221.0,0.4517
1222.0,0.4409
1223.0,0.4373
1224.0,0.4357
1225.0,0.4489
1226.0,0.451
1227.0,0.4198
1228.0,0.4525
1229.0,0.4511
1230.0,0.4441
1231.0,0.4544
1232.0,0.4518
1233.0,0.4393
1234.0,0.4534
1235.0,0.451
1236.0,0.4539
1237.0,0.4488
1238.0,0.4524
1239.0,0.4466
1240.0,0.4482
1241.0,0.4468
1242.0,0.4452
1243.0,0.4415
1244.0,0.4449
1245.0,0.4467
1246.0,0.444
1247.0,0.4425
1248.0,0.4426
1249.0,0.4436
1250.0,0.4412
1251.0,0.436
1252.0,0.4355
1253.0,0.433
1254.0,0.4295
1255.0,0.4353
1256.0,0.425
1257.0,0.4231
1258.0,0.4295
1259.0,0.4169
1260.0,0.4187
1261.0,0.3989
1262.0,0.3889
1263.0,0.3898
1264.0,0.3644
1265.0,0.3872
1266.0,0.3753
1267.0,0.38
1268.0,0.3634
1269.0,0.246
1270.0,0.3794
1271.0,0.3972
1272.0,0.398
1273.0,0.3942
1274.0,0.395
1275.0,0.4
1276.0,0.4031
1277.0,0.405
1278.0,0.4112
1279.0,0.4077
1280.0,0.4024
1281.0,0.3833
1282.0,0.3682
1283.0,0.3968
1284.0,0.4065
1285.0,0.409
1286.0,0.4139
1287.0,0.4087
1288.0,0.4083
1289.0,0.3977
1290.0,0.4045
1291.0,0.4098
1292.0,0.3893
1293.0,0.4029
1294.0,0.4003
1295.0,0.3994
1296.0,0.3842
1297.0,0.3656
1298.0,0.3891
1299.0,0.403
1300.0,0.3488
1301.0,0.358
1302.0,0.3877
1303.0,0.3434
1304.0,0.3001
1305.0,0.3803
1306.0,0.3808
1307.0,0.3041
1308.0,0.3428
1309.0,0.3785
1310.0,0.2986
1311.0,0.3303
1312.0,0.3225
1313.0,0.3174
1314.0,0.2867
1315.0,0.2846
1316.0,0.3263
1317.0,0.3099
1318.0,0.3339
1319.0,0.2695
1320.0,0.2593
1321.0,0.2991
1322.0,0.3033
1323.0,0.2353
1324.0,0.2643
1325.0,0.3221
1326.0,0.2809
1327.0,0.2691
1328.0,0.2343
1329.0,0.1819
1330.0,0.2337
1331.0,0.1483
1332.0,0.1507
1333.0,0.2078
1334.0,0.173
1335.0,0.2344
1336.0,0.189
1337.0,0.1692
1338.0,0.1829
1339.0,0.1811
1340.0,0.1744
1341.0,0.1744
1342.0,0.1829
1343.0,0.1328
1344.0,0.0792
1345.0,0.1133
1346.0,0.06231
1347.0,0.06437
1348.0,0.005409
1349.0,0.01799
1350.0,0.0177
1351.0,0.005417
1352.0,0.001856
1353.0,0.0001255
1354.0,0.0003633
1355.0,5.13e-06
1356.0,6.276e-05
1357.0,9.472e-05
1358.0,5.941e-06
1359.0,1.129e-06
1360.0,3.148e-06
1361.0,8.562e-09
1362.0,3.5e-11
1363.0,4.725e-06
1364.0,2.042e-06
1365.0,1.962e-11
1366.0,1.847e-05
1367.0,7.179e-06
1368.0,3.874e-13
1369.0,7.861e-07
1370.0,4.605e-07
1371.0,3.282e-08
1372.0,3.964e-06
1373.0,5.99e-05
1374.0,0.0002295
1375.0,0.0004156
1376.0,0.0003239
1377.0,0.0001554
1378.0,0.001376
1379.0,6.609e-05
1380.0,0.0001064
1381.0,3.177e-06
1382.0,3.751e-06
1383.0,6.728e-08
1384.0,9.497e-07
1385.0,2.939e-06
1386.0,3.756e-06
1387.0,0.0002639
1388.0,5.422e-06
1389.0,0.0007305
1390.0,0.0006275
1391.0,0.0004395
1392.0,3.101e-05
1393.0,0.0001474
1394.0,0.0001026
1395.0,9.677e-07
1396.0,1.098e-08
1397.0,6.359e-05
1398.0,0.001571
1399.0,0.0009966
1400.0,5.952e-09
1401.0,1.816e-08
1402.0,0.002159
1403.0,0.002838
1404.0,0.0008835
1405.0,5.471e-07
1406.0,0.002476
1407.0,0.0002112
1408.0,0.002002
1409.0,0.0007748
1410.0,0.0005736
1411.0,0.002476
1412.0,0.003124
1413.0,0.0261
1414.0,0.0004456
1415.0,0.0002294
1416.0,0.03853
1417.0,0.01316
1418.0,0.0151
1419.0,0.002419
1420.0,0.0093
1421.0,0.01014
1422.0,0.04985
1423.0,0.01007
1424.0,0.01852
1425.0,0.02775
1426.0,0.03016
1427.0,0.05237
1428.0,0.005178
1429.0,0.04052
1430.0,0.06572
1431.0,0.07136
1432.0,0.004119
1433.0,0.04656
1434.0,0.02427
1435.0,0.02627
1436.0,0.04751
1437.0,0.03642
1438.0,0.01627
1439.0,0.06321
1440.0,0.04752
1441.0,0.03771
1442.0,0.04152
1443.0,0.04987
1444.0,0.06809
1445.0,0.0551
1446.0,0.02535
1447.0,0.03986
1448.0,0.1219
1449.0,0.1077
1450.0,0.02949
1451.0,0.01229
1452.0,0.0665
1453.0,0.08629
1454.0,0.142
1455.0,0.06924
1456.0,0.09399
1457.0,0.1225
1458.0,0.141
1459.0,0.1673
1460.0,0.08894
1461.0,0.09438
1462.0,0.1355
1463.0,0.04575
1464.0,0.1578
1465.0,0.09561
1466.0,0.06968
