interpolation:linear
wavelength,value
280.0,1.713e-19
280.5,2.962e-18
281.0,1.279e-17
281.5,2.19e-16
282.0,1.211e-15
282.5,3.636e-15
283.0,1.224e-14
283.5,2.017e-14
284.0,2.731e-13
284.5,7.023e-13
285.0,1.198e-12
285.5,6.329e-12
286.0,2.551e-11
286.5,1.071e-10
287.0,2.861e-10
287.5,9.684e-10
288.0,2.976e-09
288.5,9.643e-09
289.0,2.617e-08
289.5,7.716e-08
290.0,2.069e-07
290.5,4.076e-07
291.0,8.251e-07
291.5,2.15e-06
292.0,4.507e-06
292.5,6.095e-06
293.0,1.232e-05
293.5,2.722e-05
294.0,4.026e-05
294.5,6.453e-05
295.0,0.0001009
295.5,0.0002108
296.0,0.0003428
296.5,0.0004057
297.0,0.0004798
297.5,0.001055
298.0,0.001408
298.5,0.001249
299.0,0.002441
299.5,0.003284
300.0,0.003232
300.5,0.004177
301.0,0.006307
301.5,0.008589
302.0,0.006815
302.5,0.01216
303.0,0.01945
303.5,0.02284
304.0,0.02056
304.5,0.02726
305.0,0.03509
305.5,0.0364
306.0,0.03401
306.5,0.03985
307.0,0.05158
307.5,0.06037
308.0,0.06268
308.5,0.06977
309.0,0.06103
309.5,0.0648
310.0,0.06296
310.5,0.1005
311.0,0.1227
311.5,0.1172
312.0,0.1097
312.5,0.1278
313.0,0.1358
313.5,0.1354
314.0,0.1605
314.5,0.1323
315.0,0.1721
315.5,0.1499
316.0,0.1235
316.5,0.1685
317.0,0.2102
317.5,0.2229
318.0,0.1681
318.5,0.195
319.0,0.224
319.5,0.1939
320.0,0.2371
320.5,0.2769
321.0,0.2319
321.5,0.2215
322.0,0.2538
322.5,0.2207
323.0,0.2106
323.5,0.2404
324.0,0.2791
324.5,0.2906
325.0,0.2661
325.5,0.3309
326.0,0.3872
326.5,0.3781
327.0,0.3818
327.5,0.3747
328.0,0.3475
328.5,0.3499
329.0,0.4058
329.5,0.4573
330.0,0.4664
330.5,0.3844
331.0,0.3963
331.5,0.3959
332.0,0.4168
332.5,0.4082
333.0,0.4112
333.5,0.3811
334.0,0.3927
334.5,0.4436
335.0,0.4124
335.5,0.4679
336.0,0.3245
336.5,0.3958
337.0,0.3287
337.5,0.4113
338.0,0.395
338.5,0.4456
339.0,0.4443
339.5,0.4267
340.0,0.5148
340.5,0.4643
341.0,0.445
341.5,0.4128
342.0,0.4954
342.5,0.4652
343.0,0.5108
343.5,0.4807
344.0,0.3615
344.5,0.3577
345.0,0.479
345.5,0.4915
346.0,0.4193
346.5,0.4762
347.0,0.5108
347.5,0.4133
348.0,0.474
348.5,0.4757
349.0,0.4423
349.5,0.4386
350.0,0.5436
350.5,0.5745
351.0,0.5136
351.5,0.4979
352.0,0.5374
352.5,0.4209
353.0,0.5316
353.5,0.5699
354.0,0.5931
354.5,0.6028
355.0,0.6018
355.5,0.5446
356.0,0.5709
356.5,0.4885
357.0,0.4046
357.5,0.4964
358.0,0.3942
358.5,0.3376
359.0,0.473
359.5,0.6037
360.0,0.6413
360.5,0.5137
361.0,0.4691
361.5,0.5406
362.0,0.468
362.5,0.6483
363.0,0.5829
363.5,0.5376
364.0,0.6583
364.5,0.5636
365.0,0.5749
365.5,0.7227
366.0,0.7667
366.5,0.7213
367.0,0.7036
367.5,0.7313
368.0,0.6409
368.5,0.6476
369.0,0.7004
369.5,0.7476
370.0,0.7981
370.5,0.6203
371.0,0.6637
371.5,0.8317
372.0,0.5529
372.5,0.6639
373.0,0.6761
373.5,0.4404
374.0,0.6409
374.5,0.5314
375.0,0.5173
375.5,0.7736
376.0,0.6423
376.5,0.6666
377.0,0.7066
377.5,0.8278
378.0,0.8988
378.5,0.851
379.0,0.7035
379.5,0.6439
380.0,0.6705
380.5,0.8131
381.0,0.8156
381.5,0.6472
382.0,0.5754
382.5,0.491
383.0,0.4551
383.5,0.4388
384.0,0.4846
384.5,0.7137
385.0,0.7085
385.5,0.6606
386.0,0.5664
386.5,0.7448
387.0,0.6197
387.5,0.697
388.0,0.6443
388.5,0.6376
389.0,0.6892
389.5,0.8357
390.0,0.8396
390.5,0.7736
391.0,0.9116
391.5,0.9311
392.0,0.7852
392.5,0.7037
393.0,0.3919
393.5,0.2851
394.0,0.5809
394.5,0.7392
395.0,0.9031
395.5,0.9185
396.0,0.7972
396.5,0.4664
397.0,0.3504
397.5,0.7134
398.0,1.0
398.5,1.035
399.0,1.121
399.5,1.119
400.0,1.163
401.0,1.197
402.0,1.265
403.0,1.203
404.0,1.187
405.0,1.189
406.0,1.171
407.0,1.154
408.0,1.202
409.0,1.288
410.0,1.127
411.0,1.223
412.0,1.315
413.0,1.285
414.0,1.302
415.0,1.307
416.0,1.331
417.0,1.301
418.0,1.279
419.0,1.297
420.0,1.294
421.0,1.355
422.0,1.29
423.0,1.262
424.0,1.337
425.0,1.336
426.0,1.302
427.0,1.28
428.0,1.249
429.0,1.183
430.0,1.037
431.0,1.029
432.0,1.33
433.0,1.339
434.0,1.245
435.0,1.303
436.0,1.468
437.0,1.449
438.0,1.321
439.0,1.369
440.0,1.414
441.0,1.466
442.0,1.574
443.0,1.536
444.0,1.57
445.0,1.539
446.0,1.469
447.0,1.589
448.0,1.617
449.0,1.623
450.0,1.67
451.0,1.733
452.0,1.672
453.0,1.574
454.0,1.643
455.0,1.655
456.0,1.696
457.0,1.726
458.0,1.67
459.0,1.663
460.0,1.67
461.0,1.71
462.0,1.723
463.0,1.714
464.0,1.685
465.0,1.664
466.0,1.681
467.0,1.653
468.0,1.674
469.0,1.684
470.0,1.632
471.0,1.632
472.0,1.721
473.0,1.701
474.0,1.706
475.0,1.724
476.0,1.676
477.0,1.684
478.0,1.732
479.0,1.721
480.0,1.725
481.0,1.757
482.0,1.766
483.0,1.744
484.0,1.709
485.0,1.629
486.0,1.424
487.0,1.493
488.0,1.639
489.0,1.646
490.0,1.732
491.0,1.703
492.0,1.609
493.0,1.663
494.0,1.681
495.0,1.696
496.0,1.708
497.0,1.736
498.0,1.656
499.0,1.679
500.0,1.632
501.0,1.604
502.0,1.585
503.0,1.654
504.0,1.62
505.0,1.673
506.0,1.729
507.0,1.646
508.0,1.593
509.0,1.638
510.0,1.629
511.0,1.672
512.0,1.691
513.0,1.601
514.0,1.59
515.0,1.575
516.0,1.573
517.0,1.398
518.0,1.471
519.0,1.544
520.0,1.601
521.0,1.618
522.0,1.621
523.0,1.593
524.0,1.652
525.0,1.674
526.0,1.6
527.0,1.51
528.0,1.599
529.0,1.688
530.0,1.665
531.0,1.691
532.0,1.634
533.0,1.587
534.0,1.634
535.0,1.67
536.0,1.685
537.0,1.619
538.0,1.648
539.0,1.635
540.0,1.569
541.0,1.582
542.0,1.634
543.0,1.615
544.0,1.646
545.0,1.641
546.0,1.651
547.0,1.649
548.0,1.63
549.0,1.635
550.0,1.655
551.0,1.635
552.0,1.647
553.0,1.619
554.0,1.659
555.0,1.663
556.0,1.643
557.0,1.593
558.0,1.583
559.0,1.555
560.0,1.576
561.0,1.598
562.0,1.588
563.0,1.634
564.0,1.591
565.0,1.579
566.0,1.557
567.0,1.589
568.0,1.579
569.0,1.549
570.0,1.548
571.0,1.538
572.0,1.58
573.0,1.598
574.0,1.595
575.0,1.567
576.0,1.554
577.0,1.57
578.0,1.545
579.0,1.549
580.0,1.574
581.0,1.579
582.0,1.606
583.0,1.608
584.0,1.62
585.0,1.58
586.0,1.548
587.0,1.585
588.0,1.556
589.0,1.397
590.0,1.46
591.0,1.535
592.0,1.522
593.0,1.537
594.0,1.531
595.0,1.499
596.0,1.544
597.0,1.531
598.0,1.524
599.0,1.524
600.0,1.523
601.0,1.508
602.0,1.498
603.0,1.522
604.0,1.547
605.0,1.538
606.0,1.531
607.0,1.545
608.0,1.527
609.0,1.529
610.0,1.517
611.0,1.525
612.0,1.52
613.0,1.501
614.0,1.479
615.0,1.511
616.0,1.461
617.0,1.457
618.0,1.513
619.0,1.498
620.0,1.508
621.0,1.511
622.0,1.495
623.0,1.474
624.0,1.448
625.0,1.445
626.0,1.467
627.0,1.487
628.0,1.427
629.0,1.465
630.0,1.433
631.0,1.453
632.0,1.434
633.0,1.473
634.0,1.455
635.0,1.476
636.0,1.454
637.0,1.477
638.0,1.488
639.0,1.471
640.0,1.455
641.0,1.453
642.0,1.446
643.0,1.465
644.0,1.459
645.0,1.463
646.0,1.434
647.0,1.427
648.0,1.43
649.0,1.403
650.0,1.397
651.0,1.456
652.0,1.41
653.0,1.437
654.0,1.42
655.0,1.374
656.0,1.213
657.0,1.245
658.0,1.392
659.0,1.4
660.0,1.406
661.0,1.416
662.0,1.421
663.0,1.392
664.0,1.406
665.0,1.404
666.0,1.404
667.0,1.402
668.0,1.401
669.0,1.423
670.0,1.416
671.0,1.415
672.0,1.403
673.0,1.424
674.0,1.418
675.0,1.405
676.0,1.414
677.0,1.4
678.0,1.404
679.0,1.381
680.0,1.392
681.0,1.383
682.0,1.381
683.0,1.379
684.0,1.372
685.0,1.384
686.0,1.376
687.0,1.083
688.0,1.185
689.0,1.187
690.0,1.218
691.0,1.252
692.0,1.275
693.0,1.268
694.0,1.259
695.0,1.291
696.0,1.293
697.0,1.346
698.0,1.326
699.0,1.311
700.0,1.296
701.0,1.288
702.0,1.291
703.0,1.293
704.0,1.325
705.0,1.327
706.0,1.322
707.0,1.322
708.0,1.325
709.0,1.321
710.0,1.324
711.0,1.321
712.0,1.314
713.0,1.304
714.0,1.308
715.0,1.273
716.0,1.276
717.0,1.169
718.0,1.088
719.0,1.005
720.0,1.056
721.0,1.125
722.0,1.243
723.0,1.181
724.0,1.09
725.0,1.082
726.0,1.126
727.0,1.129
728.0,1.082
729.0,1.099
730.0,1.161
731.0,1.119
732.0,1.173
733.0,1.218
734.0,1.242
735.0,1.219
736.0,1.217
737.0,1.223
738.0,1.227
739.0,1.204
740.0,1.231
741.0,1.216
742.0,1.215
743.0,1.245
744.0,1.24
745.0,1.239
746.0,1.245
747.0,1.248
748.0,1.245
749.0,1.231
750.0,1.23
751.0,1.218
752.0,1.223
753.0,1.229
754.0,1.232
755.0,1.225
756.0,1.225
757.0,1.227
758.0,1.212
759.0,1.196
760.0,0.4055
761.0,0.274
762.0,0.7916
763.0,0.5239
764.0,0.6693
765.0,0.7927
766.0,0.8828
767.0,1.03
768.0,1.125
769.0,1.135
770.0,1.158
771.0,1.161
772.0,1.161
773.0,1.169
774.0,1.163
775.0,1.154
776.0,1.168
777.0,1.152
778.0,1.146
779.0,1.147
780.0,1.14
781.0,1.141
782.0,1.148
783.0,1.128
784.0,1.134
785.0,1.126
786.0,1.139
787.0,1.125
788.0,1.115
789.0,1.115
790.0,1.095
791.0,1.096
792.0,1.087
793.0,1.07
794.0,1.079
795.0,1.099
796.0,1.079
797.0,1.08
798.0,1.1
799.0,1.095
800.0,1.08
801.0,1.079
802.0,1.076
803.0,1.069
804.0,1.069
805.0,1.062
806.0,1.086
807.0,1.075
808.0,1.075
809.0,1.059
810.0,1.054
811.0,1.061
812.0,1.041
813.0,1.025
814.0,0.9352
815.0,0.9288
816.0,0.8705
817.0,0.8817
818.0,0.8562
819.0,0.9276
820.0,0.8856
821.0,0.9956
822.0,0.974
823.0,0.7281
824.0,0.9585
825.0,0.9813
826.0,0.9557
827.0,0.9958
828.0,0.8799
829.0,0.9477
830.0,0.9393
831.0,0.9411
832.0,0.9189
833.0,0.9584
834.0,0.9363
835.0,1.004
836.0,0.9761
837.0,1.006
838.0,0.9809
839.0,0.9894
840.0,1.009
841.0,0.9981
842.0,0.9959
843.0,0.991
844.0,0.9798
845.0,1.009
846.0,1.004
847.0,0.9845
848.0,0.9804
849.0,0.9527
850.0,0.9125
851.0,0.9683
852.0,0.9606
853.0,0.923
854.0,0.7984
855.0,0.8753
856.0,0.9574
857.0,0.9775
858.0,0.9709
859.0,0.971
860.0,0.9722
861.0,0.9671
862.0,0.9821
863.0,1.005
864.0,0.955
865.0,0.9466
866.0,0.8512
867.0,0.8882
868.0,0.9666
869.0,0.9465
870.0,0.9735
871.0,0.9603
872.0,0.9569
873.0,0.955
874.0,0.9436
875.0,0.9247
876.0,0.9345
877.0,0.9438
878.0,0.9544
879.0,0.9397
880.0,0.9196
881.0,0.9068
882.0,0.9268
883.0,0.9289
884.0,0.925
885.0,0.9321
886.0,0.8917
887.0,0.8987
888.0,0.9138
889.0,0.921
890.0,0.917
891.0,0.9136
892.0,0.8918
893.0,0.8702
894.0,0.8507
895.0,0.8183
896.0,0.7791
897.0,0.6907
898.0,0.7408
899.0,0.5911
900.0,0.7461
901.0,0.6174
902.0,0.6896
903.0,0.7071
904.0,0.8448
905.0,0.8226
906.0,0.7756
907.0,0.6614
908.0,0.6707
909.0,0.7106
910.0,0.6557
911.0,0.6833
912.0,0.707
913.0,0.6667
914.0,0.6566
915.0,0.707
916.0,0.6094
917.0,0.7405
918.0,0.625
919.0,0.748
920.0,0.7434
921.0,0.7684
922.0,0.7065
923.0,0.7416
924.0,0.7243
925.0,0.7098
926.0,0.7167
927.0,0.7838
928.0,0.6287
929.0,0.5886
930.0,0.4878
931.0,0.4575
932.0,0.3546
933.0,0.3034
934.0,0.1987
935.0,0.298
936.0,0.206
937.0,0.2123
938.0,0.2525
939.0,0.4434
940.0,0.5161
941.0,0.4136
942.0,0.4624
943.0,0.3238
944.0,0.3249
945.0,0.4227
946.0,0.242
947.0,0.4309
948.0,0.3222
949.0,0.5495
950.0,0.1975
951.0,0.5367
952.0,0.3249
953.0,0.3957
954.0,0.4595
955.0,0.3972
956.0,0.3772
957.0,0.3292
958.0,0.4955
959.0,0.4202
960.0,0.4694
961.0,0.5071
962.0,0.4831
963.0,0.5391
964.0,0.5004
965.0,0.5346
966.0,0.5393
967.0,0.5384
968.0,0.6647
969.0,0.6967
970.0,0.649
971.0,0.718
972.0,0.6916
973.0,0.6269
974.0,0.5995
975.0,0.612
976.0,0.5939
977.0,0.6508
978.0,0.6287
979.0,0.65
980.0,0.6172
981.0,0.7128
982.0,0.6902
983.0,0.6682
984.0,0.725
985.0,0.6873
986.0,0.7322
987.0,0.7235
988.0,0.7224
989.0,0.7266
990.0,0.7174
991.0,0.7295
992.0,0.7332
993.0,0.7225
994.0,0.7324
995.0,0.7306
996.0,0.7283
997.0,0.729
998.0,0.7259
999.0,0.723
1000.0,0.7194
1001.0,0.7268
1002.0,0.7125
1003.0,0.7143
1004.0,0.6984
1005.0,0.6708
1006.0,0.698
1007.0,0.7123
1008.0,0.7095
1009.0,0.7069
1010.0,0.7045
1011.0,0.7086
1012.0,0.7036
1013.0,0.7066
1014.0,0.7017
1015.0,0.6972
1016.0,0.6942
1017.0,0.6962
1018.0,0.693
1019.0,0.6803
1020.0,0.6897
1021.0,0.6884
1022.0,0.6838
1023.0,0.6913
1024.0,0.6845
1025.0,0.6901
1026.0,0.6877
1027.0,0.686
1028.0,0.6848
1029.0,0.6769
1030.0,0.6808
1031.0,0.6784
1032.0,0.6762
1033.0,0.666
1034.0,0.666
1035.0,0.6681
1036.0,0.6718
1037.0,0.6608
1038.0,0.6639
1039.0,0.6636
1040.0,0.661
1041.0,0.6639
1042.0,0.6593
1043.0,0.6573
1044.0,0.6597
1045.0,0.6509
1046.0,0.6439
1047.0,0.6499
1048.0,0.6536
1049.0,0.6514
1050.0,0.6487
1051.0,0.648
1052.0,0.6456
1053.0,0.6407
1054.0,0.6424
1055.0,0.6431
1056.0,0.6412
1057.0,0.6395
1058.0,0.6241
1059.0,0.6251
1060.0,0.6243
1061.0,0.6238
1062.0,0.6275
1063.0,0.6216
1064.0,0.6288
1065.0,0.6251
1066.0,0.6121
1067.0,0.6203
1068.0,0.6073
1069.0,0.5881
1070.0,0.6088
1071.0,0.6162
1072.0,0.6107
1073.0,0.6016
1074.0,0.6149
1075.0,0.5903
1076.0,0.6148
1077.0,0.6073
1078.0,0.5971
1079.0,0.604
1080.0,0.5982
1081.0,0.5817
1082.0,0.5859
1083.0,0.5865
1084.0,0.5823
1085.0,0.5989
1086.0,0.557
1087.0,0.5668
1088.0,0.5871
1089.0,0.5748
1090.0,0.5668
1091.0,0.5869
1092.0,0.584
1093.0,0.514
1094.0,0.5366
1095.0,0.5322
1096.0,0.5154
1097.0,0.5702
1098.0,0.509
1099.0,0.528
1100.0,0.4999
1101.0,0.5034
1102.0,0.4859
1103.0,0.485
1104.0,0.4852
1105.0,0.5178
1106.0,0.4293
1107.0,0.4983
1108.0,0.4427
1109.0,0.4397
1110.0,0.4962
1111.0,0.3648
1112.0,0.4347
1113.0,0.3071
1114.0,0.3387
1115.0,0.2818
1116.0,0.2446
1117.0,0.1139
1118.0,0.2578
1119.0,0.1462
1120.0,0.1835
1121.0,0.2314
1122.0,0.1136
1123.0,0.1654
1124.0,0.1399
1125.0,0.1781
1126.0,0.07853
1127.0,0.1994
1128.0,0.1368
1129.0,0.1419
1130.0,0.1027
1131.0,0.3382
1132.0,0.2731
1133.0,0.1937
1134.0,0.06466
1135.0,0.02379
1136.0,0.1691
1137.0,0.3372
1138.0,0.2434
1139.0,0.326
1140.0,0.2866
1141.0,0.2313
1142.0,0.2578
1143.0,0.3506
1144.0,0.143
1145.0,0.1861
1146.0,0.2009
1147.0,0.08853
1148.0,0.3038
1149.0,0.2546
1150.0,0.1538
1151.0,0.2419
1152.0,0.2838
1153.0,0.2666
1154.0,0.1853
1155.0,0.3406
1156.0,0.3137
1157.0,0.3427
1158.0,0.3382
1159.0,0.3552
1160.0,0.316
1161.0,0.3682
1162.0,0.3714
1163.0,0.4676
1164.0,0.4138
1165.0,0.4013
1166.0,0.3916
1167.0,0.4199
1168.0,0.4266
1169.0,0.4321
1170.0,0.4603
1171.0,0.4507
1172.0,0.4537
1173.0,0.4593
1174.0,0.3556
1175.0,0.4452
1176.0,0.4772
1177.0,0.4657
1178.0,0.3709
1179.0,0.4804
1180.0,0.4427
1181.0,0.455
1182.0,0.3368
1183.0,0.4449
1184.0,0.4245
1185.0,0.4158
1186.0,0.4719
1187.0,0.4558
1188.0,0.3438
1189.0,0.4264
1190.0,0.4613
1191.0,0.4483
1192.0,0.4665
1193.0,0.451
1194.0,0.4621
1195.0,0.4443
1196.0,0.4328
1197.0,0.458
1198.0,0.4255
1199.0,0.3793
1200.0,0.446
1201.0,0.4359
1202.0,0.4304
1203.0,0.4265
1204.0,0.3835
1205.0,0.4353
1206.0,0.4708
1207.0,0.4307
1208.0,0.4189
1209.0,0.4262
1210.0,0.4401
1211.0,0.4258
1212.0,0.4273
1213.0,0.4588
1214.0,0.434
1215.0,0.4277
1216.0,0.4571
1217.0,0.4483
1218.0,0.4537
1219.0,0.4496
1220.0,0.4538
1221.0,0.4565
1222.0,0.4468
1223.0,0.4439
1224.0,0.4433
1225.0,0.4536
1226.0,0.4547
1227.0,0.4279
1228.0,0.4553
1229.0,0.4547
1230.0,0.4485
1231.0,0.4562
1232.0,0.4537
1233.0,0.4444
1234.0,0.4545
1235.0,0.4525
1236.0,0.4551
1237.0,0.4512
1238.0,0.4535
1239.0,0.4478
1240.0,0.4492
1241.0,0.4486
1242.0,0.4463
1243.0,0.4425
1244.0,0.4462
1245.0,0.4478
1246.0,0.4451
1247.0,0.4438
1248.0,0.4443
1249.0,0.445
1250.0,0.4428
1251.0,0.4381
1252.0,0.4369
1253.0,0.4356
1254.0,0.4329
1255.0,0.4371
1256.0,0.4289
1257.0,0.4274
1258.0,0.4321
1259.0,0.4228
1260.0,0.4242
1261.0,0.4085
1262.0,0.4006
1263.0,0.4016
1264.0,0.3809
1265.0,0.3988
1266.0,0.3898
1267.0,0.3925
1268.0,0.3789
1269.0,0.2834
1270.0,0.3927
1271.0,0.4062
1272.0,0.4065
1273.0,0.4032
1274.0,0.4033
1275.0,0.4076
1276.0,0.4099
1277.0,0.4109
1278.0,0.4154
1279.0,0.4119
1280.0,0.4065
1281.0,0.3865
1282.0,0.3699
1283.0,0.3989
1284.0,0.409
1285.0,0.4113
1286.0,0.4154
1287.0,0.4116
1288.0,0.4109
1289.0,0.4028
1290.0,0.4069
1291.0,0.4116
1292.0,0.3962
1293.0,0.406
1294.0,0.4037
1295.0,0.4039
1296.0,0.3919
1297.0,0.376
1298.0,0.3946
1299.0,0.4056
1300.0,0.3612
1301.0,0.3684
1302.0,0.3929
1303.0,0.3545
1304.0,0.3194
1305.0,0.3864
1306.0,0.3873
1307.0,0.3206
1308.0,0.3525
1309.0,0.3854
1310.0,0.3152
1311.0,0.3418
1312.0,0.3352
1313.0,0.3313
1314.0,0.3029
1315.0,0.3027
1316.0,0.339
1317.0,0.3232
1318.0,0.3442
1319.0,0.2899
1320.0,0.2764
1321.0,0.3146
1322.0,0.3204
1323.0,0.2589
1324.0,0.2843
1325.0,0.335
1326.0,0.2988
1327.0,0.2878
1328.0,0.2539
1329.0,0.2059
1330.0,0.2597
1331.0,0.1767
1332.0,0.1755
1333.0,0.238
1334.0,0.1953
1335.0,0.2573
1336.0,0.213
1337.0,0.1951
1338.0,0.2094
1339.0,0.2063
1340.0,0.1961
1341.0,0.2019
1342.0,0.2114
1343.0,0.1681
1344.0,0.1012
1345.0,0.1412
1346.0,0.08909
1347.0,0.09355
1348.0,0.01147
1349.0,0.03368
1350.0,0.03045
1351.0,0.01286
1352.0,0.005835
1353.0,0.0006033
1354.0,0.001387
1355.0,4.204e-05
1356.0,0.0003162
1357.0,0.0004663
1358.0,4.725e-05
1359.0,1.499e-05
1360.0,3.012e-05
1361.0,2.68e-07
1362.0,2.026e-09
1363.0,4.73e-05
1364.0,2.329e-05
1365.0,1.97e-09
1366.0,0.0001588
1367.0,6.232e-05
1368.0,1.248e-10
1369.0,9.544e-06
1370.0,6.892e-06
1371.0,6.884e-07
1372.0,3.519e-05
1373.0,0.0003516
1374.0,0.001037
1375.0,0.001779
1376.0,0.001225
1377.0,0.0006336
1378.0,0.004623
1379.0,0.0002792
1380.0,0.0005044
1381.0,1.922e-05
1382.0,3.517e-05
1383.0,8.654e-07
1384.0,1.233e-05
1385.0,2.235e-05
1386.0,4.007e-05
1387.0,0.001294
1388.0,3.198e-05
1389.0,0.002825
1390.0,0.002375
1391.0,0.001823
1392.0,0.0001529
1393.0,0.0006128
1394.0,0.0006021
1395.0,8.688e-06
1396.0,2.984e-07
1397.0,0.0002968
1398.0,0.005287
1399.0,0.003422
1400.0,2.125e-07
1401.0,4.411e-07
1402.0,0.005518
1403.0,0.007564
1404.0,0.002431
1405.0,5.93e-06
1406.0,0.007234
1407.0,0.0006461
1408.0,0.005823
1409.0,0.002692
1410.0,0.001904
1411.0,0.006564
1412.0,0.007598
1413.0,0.04559
1414.0,0.001462
1415.0,0.0008335
1416.0,0.05874
1417.0,0.0248
1418.0,0.02772
1419.0,0.004758
1420.0,0.01736
1421.0,0.0199
1422.0,0.074
1423.0,0.01658
1424.0,0.0293
1425.0,0.04463
1426.0,0.04543
1427.0,0.07075
1428.0,0.0112
1429.0,0.05805
1430.0,0.08656
1431.0,0.09196
1432.0,0.009098
1433.0,0.06331
1434.0,0.03472
1435.0,0.04289
1436.0,0.06895
1437.0,0.05339
1438.0,0.02653
1439.0,0.08756
1440.0,0.06686
1441.0,0.05704
1442.0,0.06109
1443.0,0.06763
1444.0,0.09079
1445.0,0.07774
1446.0,0.03716
1447.0,0.05909
1448.0,0.1469
1449.0,0.1348
1450.0,0.04384
1451.0,0.01987
1452.0,0.08766
1453.0,0.1105
1454.0,0.1666
1455.0,0.08742
1456.0,0.1211
1457.0,0.148
1458.0,0.1615
1459.0,0.1927
1460.0,0.1081
1461.0,0.118
1462.0,0.1618
1463.0,0.06107
1464.0,0.181
1465.0,0.1113
1466.0,0.09156
1467.0,0.05572
1468.0,0.104
1469.0,0.1233
1470.0,0.07268
