interpolation:linear
wavelength,value
280.0,4.915e-25
280.5,1.912e-23
281.0,1.1109999999999998e-22
281.5,4.17e-21
282.0,3.7160000000000005e-20
282.5,1.538e-19
283.0,7.372e-19
283.5,1.449e-18
284.0,4.448e-17
284.5,1.661e-16
285.0,4.242e-16
285.5,3.605e-15
286.0,1.761e-14
286.5,1.098e-13
287.0,3.925e-13
287.5,1.947e-12
288.0,9.69e-12
288.5,4.055e-11
289.0,1.433e-10
289.5,5.647e-10
290.0,1.92e-09
290.5,4.614e-09
291.0,1.187e-08
291.5,4.193e-08
292.0,1.126e-07
292.5,1.751e-07
293.0,4.232e-07
293.5,1.194e-06
294.0,2.082e-06
294.5,3.779e-06
295.0,6.908e-06
295.5,1.751e-05
296.0,3.251e-05
296.5,4.362e-05
297.0,5.7e-05
297.5,0.000144
298.0,0.0002152
298.5,0.0002076
299.0,0.0004386
299.5,0.0006686
300.0,0.0007024
300.5,0.0009678
301.0,0.001603
301.5,0.002353
302.0,0.001936
302.5,0.003685
303.0,0.006375
303.5,0.007834
304.0,0.00721
304.5,0.01007
305.0,0.01387
305.5,0.01499
306.0,0.01424
306.5,0.01712
307.0,0.02332
307.5,0.02858
308.0,0.02995
308.5,0.0341
309.0,0.03037
309.5,0.03381
310.0,0.03358
310.5,0.05424
311.0,0.06741
311.5,0.065
312.0,0.06294
312.5,0.075
313.0,0.08065
313.5,0.07987
314.0,0.09707
314.5,0.08254
315.0,0.1081
315.5,0.09317
316.0,0.07862
316.5,0.1095
317.0,0.1368
317.5,0.1447
318.0,0.1107
318.5,0.1315
319.0,0.1529
319.5,0.1305
320.0,0.1594
320.5,0.1906
321.0,0.1627
321.5,0.156
322.0,0.1758
322.5,0.1533
323.0,0.1485
323.5,0.1731
324.0,0.2018
324.5,0.2091
325.0,0.1894
325.5,0.2381
326.0,0.2826
326.5,0.2786
327.0,0.2811
327.5,0.2754
328.0,0.253
328.5,0.2587
329.0,0.3032
329.5,0.343
330.0,0.3498
330.5,0.287
331.0,0.2957
331.5,0.2974
332.0,0.3157
332.5,0.3106
333.0,0.3129
333.5,0.289
334.0,0.2981
334.5,0.3392
335.0,0.3167
335.5,0.3604
336.0,0.2503
336.5,0.305
337.0,0.2532
337.5,0.3171
338.0,0.3062
338.5,0.3464
339.0,0.3461
339.5,0.3329
340.0,0.4015
340.5,0.3628
341.0,0.3488
341.5,0.3243
342.0,0.3898
342.5,0.3667
343.0,0.403
343.5,0.3796
344.0,0.2853
344.5,0.2831
345.0,0.38
345.5,0.3907
346.0,0.3339
346.5,0.3798
347.0,0.4078
347.5,0.3304
348.0,0.3795
348.5,0.3814
349.0,0.3552
349.5,0.3526
350.0,0.4377
350.5,0.4631
351.0,0.4145
351.5,0.4021
352.0,0.4347
352.5,0.341
353.0,0.4313
353.5,0.4629
354.0,0.4823
354.5,0.4907
355.0,0.4904
355.5,0.4444
356.0,0.4665
356.5,0.3996
357.0,0.3312
357.5,0.4067
358.0,0.3234
358.5,0.2772
359.0,0.3888
359.5,0.4966
360.0,0.5281
360.5,0.4234
361.0,0.3871
361.5,0.4468
362.0,0.3873
362.5,0.5374
363.0,0.4838
363.5,0.4467
364.0,0.5477
364.5,0.4694
365.0,0.4793
365.5,0.6031
366.0,0.6406
366.5,0.6033
367.0,0.5891
367.5,0.6129
368.0,0.5377
368.5,0.5438
369.0,0.5887
369.5,0.6291
370.0,0.6722
370.5,0.5229
371.0,0.5601
371.5,0.7024
372.0,0.4674
372.5,0.5617
373.0,0.5726
373.5,0.3734
374.0,0.5438
374.5,0.4513
375.0,0.4398
375.5,0.6581
376.0,0.5468
376.5,0.568
377.0,0.6026
377.5,0.7066
378.0,0.7677
378.5,0.7274
379.0,0.6018
379.5,0.551
380.0,0.5743
380.5,0.697
381.0,0.7
381.5,0.556
382.0,0.4948
382.5,0.4226
383.0,0.3921
383.5,0.3784
384.0,0.4182
384.5,0.6164
385.0,0.6124
385.5,0.5715
386.0,0.4904
386.5,0.6454
387.0,0.5374
387.5,0.6048
388.0,0.5596
388.5,0.5542
389.0,0.5994
389.5,0.7273
390.0,0.7313
390.5,0.6743
391.0,0.7952
391.5,0.8127
392.0,0.6858
392.5,0.6151
393.0,0.3429
393.5,0.2496
394.0,0.5089
394.5,0.6481
395.0,0.7922
395.5,0.8062
396.0,0.7002
396.5,0.41
397.0,0.3082
397.5,0.6279
398.0,0.881
398.5,0.9121
399.0,0.9891
399.5,0.9874
400.0,1.027
401.0,1.058
402.0,1.12
403.0,1.067
404.0,1.053
405.0,1.056
406.0,1.042
407.0,1.028
408.0,1.072
409.0,1.15
410.0,1.007
411.0,1.094
412.0,1.178
413.0,1.152
414.0,1.169
415.0,1.174
416.0,1.198
417.0,1.171
418.0,1.153
419.0,1.171
420.0,1.169
421.0,1.225
422.0,1.168
423.0,1.143
424.0,1.212
425.0,1.213
426.0,1.183
427.0,1.164
428.0,1.136
429.0,1.078
430.0,0.9452
431.0,0.9392
432.0,1.215
433.0,1.224
434.0,1.139
435.0,1.192
436.0,1.345
437.0,1.329
438.0,1.212
439.0,1.257
440.0,1.299
441.0,1.348
442.0,1.449
443.0,1.414
444.0,1.447
445.0,1.419
446.0,1.356
447.0,1.468
448.0,1.494
449.0,1.502
450.0,1.546
451.0,1.606
452.0,1.55
453.0,1.46
454.0,1.526
455.0,1.538
456.0,1.577
457.0,1.606
458.0,1.554
459.0,1.548
460.0,1.555
461.0,1.593
462.0,1.607
463.0,1.598
464.0,1.573
465.0,1.555
466.0,1.571
467.0,1.546
468.0,1.566
469.0,1.577
470.0,1.529
471.0,1.529
472.0,1.613
473.0,1.594
474.0,1.6
475.0,1.616
476.0,1.571
477.0,1.578
478.0,1.624
479.0,1.616
480.0,1.62
481.0,1.652
482.0,1.662
483.0,1.643
484.0,1.61
485.0,1.536
486.0,1.343
487.0,1.409
488.0,1.548
489.0,1.555
490.0,1.637
491.0,1.61
492.0,1.522
493.0,1.574
494.0,1.591
495.0,1.606
496.0,1.618
497.0,1.645
498.0,1.569
499.0,1.591
500.0,1.547
501.0,1.521
502.0,1.503
503.0,1.567
504.0,1.533
505.0,1.586
506.0,1.639
507.0,1.561
508.0,1.512
509.0,1.555
510.0,1.547
511.0,1.59
512.0,1.608
513.0,1.523
514.0,1.514
515.0,1.5
516.0,1.498
517.0,1.332
518.0,1.401
519.0,1.471
520.0,1.526
521.0,1.542
522.0,1.545
523.0,1.519
524.0,1.575
525.0,1.595
526.0,1.526
527.0,1.439
528.0,1.524
529.0,1.608
530.0,1.587
531.0,1.612
532.0,1.558
533.0,1.513
534.0,1.559
535.0,1.593
536.0,1.609
537.0,1.546
538.0,1.574
539.0,1.562
540.0,1.499
541.0,1.511
542.0,1.56
543.0,1.543
544.0,1.572
545.0,1.568
546.0,1.577
547.0,1.576
548.0,1.558
549.0,1.563
550.0,1.583
551.0,1.564
552.0,1.576
553.0,1.549
554.0,1.587
555.0,1.592
556.0,1.572
557.0,1.525
558.0,1.515
559.0,1.488
560.0,1.508
561.0,1.529
562.0,1.519
563.0,1.562
564.0,1.521
565.0,1.509
566.0,1.489
567.0,1.518
568.0,1.507
569.0,1.476
570.0,1.476
571.0,1.467
572.0,1.505
573.0,1.523
574.0,1.519
575.0,1.492
576.0,1.479
577.0,1.496
578.0,1.473
579.0,1.478
580.0,1.504
581.0,1.51
582.0,1.538
583.0,1.541
584.0,1.554
585.0,1.516
586.0,1.486
587.0,1.52
588.0,1.488
589.0,1.328
590.0,1.389
591.0,1.465
592.0,1.45
593.0,1.468
594.0,1.461
595.0,1.428
596.0,1.478
597.0,1.464
598.0,1.459
599.0,1.46
600.0,1.46
601.0,1.448
602.0,1.438
603.0,1.462
604.0,1.486
605.0,1.479
606.0,1.473
607.0,1.487
608.0,1.47
609.0,1.473
610.0,1.462
611.0,1.47
612.0,1.465
613.0,1.447
614.0,1.427
615.0,1.458
616.0,1.41
617.0,1.407
618.0,1.462
619.0,1.447
620.0,1.457
621.0,1.459
622.0,1.443
623.0,1.422
624.0,1.398
625.0,1.395
626.0,1.416
627.0,1.434
628.0,1.359
629.0,1.408
630.0,1.377
631.0,1.402
632.0,1.384
633.0,1.424
634.0,1.408
635.0,1.43
636.0,1.41
637.0,1.433
638.0,1.445
639.0,1.429
640.0,1.414
641.0,1.413
642.0,1.407
643.0,1.426
644.0,1.421
645.0,1.424
646.0,1.393
647.0,1.382
648.0,1.385
649.0,1.359
650.0,1.359
651.0,1.417
652.0,1.366
653.0,1.399
654.0,1.383
655.0,1.335
656.0,1.181
657.0,1.213
658.0,1.358
659.0,1.367
660.0,1.372
661.0,1.382
662.0,1.387
663.0,1.359
664.0,1.373
665.0,1.373
666.0,1.374
667.0,1.373
668.0,1.373
669.0,1.394
670.0,1.388
671.0,1.388
672.0,1.376
673.0,1.396
674.0,1.391
675.0,1.379
676.0,1.388
677.0,1.374
678.0,1.378
679.0,1.356
680.0,1.367
681.0,1.358
682.0,1.357
683.0,1.354
684.0,1.348
685.0,1.36
686.0,1.352
687.0,0.9823
688.0,1.11
689.0,1.113
690.0,1.154
691.0,1.2
692.0,1.232
693.0,1.224
694.0,1.214
695.0,1.254
696.0,1.256
697.0,1.32
698.0,1.3
699.0,1.278
700.0,1.263
701.0,1.253
702.0,1.259
703.0,1.261
704.0,1.297
705.0,1.299
706.0,1.296
707.0,1.296
708.0,1.3
709.0,1.299
710.0,1.3
711.0,1.298
712.0,1.293
713.0,1.281
714.0,1.286
715.0,1.249
716.0,1.251
717.0,1.116
718.0,1.031
719.0,0.9482
720.0,0.9953
721.0,1.079
722.0,1.214
723.0,1.141
724.0,1.041
725.0,1.029
726.0,1.075
727.0,1.083
728.0,1.028
729.0,1.055
730.0,1.116
731.0,1.072
732.0,1.135
733.0,1.19
734.0,1.216
735.0,1.192
736.0,1.191
737.0,1.196
738.0,1.207
739.0,1.184
740.0,1.212
741.0,1.199
742.0,1.199
743.0,1.229
744.0,1.225
745.0,1.225
746.0,1.231
747.0,1.234
748.0,1.231
749.0,1.217
750.0,1.217
751.0,1.204
752.0,1.21
753.0,1.216
754.0,1.219
755.0,1.212
756.0,1.212
757.0,1.214
758.0,1.199
759.0,1.179
760.0,0.2845
761.0,0.1701
762.0,0.6902
763.0,0.3987
764.0,0.5512
765.0,0.6908
766.0,0.8064
767.0,0.9769
768.0,1.096
769.0,1.112
770.0,1.142
771.0,1.148
772.0,1.149
773.0,1.157
774.0,1.152
775.0,1.143
776.0,1.157
777.0,1.142
778.0,1.135
779.0,1.136
780.0,1.13
781.0,1.131
782.0,1.138
783.0,1.118
784.0,1.124
785.0,1.116
786.0,1.129
787.0,1.112
788.0,1.1
789.0,1.1
790.0,1.076
791.0,1.081
792.0,1.072
793.0,1.056
794.0,1.069
795.0,1.088
796.0,1.061
797.0,1.063
798.0,1.088
799.0,1.082
800.0,1.065
801.0,1.063
802.0,1.06
803.0,1.053
804.0,1.054
805.0,1.049
806.0,1.075
807.0,1.063
808.0,1.064
809.0,1.047
810.0,1.04
811.0,1.044
812.0,1.019
813.0,1.001
814.0,0.8962
815.0,0.8903
816.0,0.8312
817.0,0.8445
818.0,0.8165
819.0,0.8991
820.0,0.8523
821.0,0.9776
822.0,0.9529
823.0,0.6782
824.0,0.9316
825.0,0.962
826.0,0.9312
827.0,0.9767
828.0,0.845
829.0,0.9246
830.0,0.9144
831.0,0.917
832.0,0.8921
833.0,0.9404
834.0,0.9127
835.0,0.9909
836.0,0.9559
837.0,0.9934
838.0,0.9658
839.0,0.9778
840.0,0.9985
841.0,0.9858
842.0,0.9859
843.0,0.9832
844.0,0.9708
845.0,1.002
846.0,0.9974
847.0,0.9782
848.0,0.9732
849.0,0.9456
850.0,0.9059
851.0,0.9603
852.0,0.9531
853.0,0.9167
854.0,0.7923
855.0,0.8695
856.0,0.9507
857.0,0.9714
858.0,0.9645
859.0,0.9651
860.0,0.9666
861.0,0.9614
862.0,0.9765
863.0,0.9996
864.0,0.9497
865.0,0.9413
866.0,0.8465
867.0,0.8834
868.0,0.9613
869.0,0.9414
870.0,0.9683
871.0,0.9552
872.0,0.9519
873.0,0.95
874.0,0.9388
875.0,0.9198
876.0,0.9295
877.0,0.9389
878.0,0.9494
879.0,0.9348
880.0,0.9148
881.0,0.9016
882.0,0.9213
883.0,0.9238
884.0,0.9198
885.0,0.9269
886.0,0.885
887.0,0.8932
888.0,0.9073
889.0,0.9162
890.0,0.9103
891.0,0.9079
892.0,0.8839
893.0,0.8591
894.0,0.8341
895.0,0.7948
896.0,0.7519
897.0,0.6551
898.0,0.7096
899.0,0.5511
900.0,0.7211
901.0,0.5771
902.0,0.6625
903.0,0.6738
904.0,0.8283
905.0,0.8028
906.0,0.7538
907.0,0.6261
908.0,0.6366
909.0,0.6831
910.0,0.6157
911.0,0.6493
912.0,0.6761
913.0,0.6255
914.0,0.6182
915.0,0.6689
916.0,0.5699
917.0,0.7103
918.0,0.5847
919.0,0.7204
920.0,0.722
921.0,0.7495
922.0,0.6783
923.0,0.7236
924.0,0.6958
925.0,0.6809
926.0,0.6884
927.0,0.7627
928.0,0.5821
929.0,0.5375
930.0,0.4321
931.0,0.4079
932.0,0.3036
933.0,0.2521
934.0,0.1496
935.0,0.2536
936.0,0.1655
937.0,0.1687
938.0,0.2046
939.0,0.3954
940.0,0.4688
941.0,0.3631
942.0,0.4145
943.0,0.28
944.0,0.2884
945.0,0.3728
946.0,0.1996
947.0,0.377
948.0,0.2787
949.0,0.4949
950.0,0.153
951.0,0.4856
952.0,0.274
953.0,0.3453
954.0,0.414
955.0,0.3482
956.0,0.3337
957.0,0.2757
958.0,0.4594
959.0,0.3751
960.0,0.4201
961.0,0.4638
962.0,0.4399
963.0,0.5004
964.0,0.4608
965.0,0.4978
966.0,0.4996
967.0,0.4981
968.0,0.6448
969.0,0.6752
970.0,0.6234
971.0,0.7035
972.0,0.6749
973.0,0.5977
974.0,0.5689
975.0,0.5865
976.0,0.5623
977.0,0.6294
978.0,0.6023
979.0,0.6276
980.0,0.5923
981.0,0.6993
982.0,0.6723
983.0,0.6476
984.0,0.7166
985.0,0.6697
986.0,0.7268
987.0,0.7153
988.0,0.714
989.0,0.7232
990.0,0.7095
991.0,0.7257
992.0,0.7297
993.0,0.7161
994.0,0.7293
995.0,0.728
996.0,0.7252
997.0,0.7261
998.0,0.7229
999.0,0.7202
1000.0,0.7157
1001.0,0.724
1002.0,0.7066
1003.0,0.7114
1004.0,0.6947
1005.0,0.6684
1006.0,0.695
1007.0,0.7095
1008.0,0.7061
1009.0,0.7029
1010.0,0.7002
1011.0,0.7059
1012.0,0.7003
1013.0,0.7041
1014.0,0.6992
1015.0,0.6947
1016.0,0.6916
1017.0,0.6935
1018.0,0.6906
1019.0,0.6769
1020.0,0.6872
1021.0,0.6861
1022.0,0.6812
1023.0,0.6885
1024.0,0.6805
1025.0,0.6877
1026.0,0.685
1027.0,0.6834
1028.0,0.6821
1029.0,0.6741
1030.0,0.6784
1031.0,0.6759
1032.0,0.6738
1033.0,0.6637
1034.0,0.6638
1035.0,0.6658
1036.0,0.6694
1037.0,0.6585
1038.0,0.6615
1039.0,0.6612
1040.0,0.6586
1041.0,0.6613
1042.0,0.6567
1043.0,0.6547
1044.0,0.6571
1045.0,0.6482
1046.0,0.6412
1047.0,0.647
1048.0,0.6506
1049.0,0.6484
1050.0,0.6455
1051.0,0.6447
1052.0,0.6422
1053.0,0.6372
1054.0,0.6387
1055.0,0.6393
1056.0,0.6372
1057.0,0.6354
1058.0,0.6199
1059.0,0.6207
1060.0,0.6199
1061.0,0.6192
1062.0,0.6226
1063.0,0.6166
1064.0,0.6239
1065.0,0.6198
1066.0,0.6073
1067.0,0.6152
1068.0,0.6021
1069.0,0.5833
1070.0,0.6034
1071.0,0.6119
1072.0,0.6055
1073.0,0.5967
1074.0,0.6112
1075.0,0.5832
1076.0,0.6108
1077.0,0.6014
1078.0,0.5906
1079.0,0.6007
1080.0,0.5922
1081.0,0.5745
1082.0,0.5815
1083.0,0.5828
1084.0,0.5738
1085.0,0.5934
1086.0,0.5457
1087.0,0.5601
1088.0,0.5827
1089.0,0.5673
1090.0,0.5566
1091.0,0.5815
1092.0,0.5795
1093.0,0.499
1094.0,0.5312
1095.0,0.5188
1096.0,0.499
1097.0,0.566
1098.0,0.492
1099.0,0.5121
1100.0,0.4795
1101.0,0.4845
1102.0,0.4648
1103.0,0.4618
1104.0,0.4622
1105.0,0.5011
1106.0,0.3965
1107.0,0.4785
1108.0,0.4136
1109.0,0.4128
1110.0,0.4754
1111.0,0.3332
1112.0,0.409
1113.0,0.2716
1114.0,0.3022
1115.0,0.2509
1116.0,0.2072
1117.0,0.08393
1118.0,0.2229
1119.0,0.1167
1120.0,0.1471
1121.0,0.1914
1122.0,0.08588
1123.0,0.1327
1124.0,0.1121
1125.0,0.1448
1126.0,0.05575
1127.0,0.1628
1128.0,0.1032
1129.0,0.1086
1130.0,0.07398
1131.0,0.2954
1132.0,0.2343
1133.0,0.1556
1134.0,0.04428
1135.0,0.01638
1136.0,0.1324
1137.0,0.2922
1138.0,0.2075
1139.0,0.2961
1140.0,0.2525
1141.0,0.1972
1142.0,0.224
1143.0,0.3125
1144.0,0.1161
1145.0,0.1499
1146.0,0.1618
1147.0,0.06253
1148.0,0.2706
1149.0,0.2203
1150.0,0.1245
1151.0,0.2061
1152.0,0.2487
1153.0,0.2388
1154.0,0.1465
1155.0,0.3091
1156.0,0.281
1157.0,0.3114
1158.0,0.3079
1159.0,0.3286
1160.0,0.285
1161.0,0.3432
1162.0,0.3455
1163.0,0.4531
1164.0,0.3937
1165.0,0.3761
1166.0,0.3703
1167.0,0.4007
1168.0,0.4061
1169.0,0.414
1170.0,0.446
1171.0,0.4355
1172.0,0.441
1173.0,0.445
1174.0,0.329
1175.0,0.433
1176.0,0.4706
1177.0,0.4553
1178.0,0.3505
1179.0,0.4742
1180.0,0.4293
1181.0,0.4425
1182.0,0.3147
1183.0,0.4343
1184.0,0.4102
1185.0,0.3985
1186.0,0.4633
1187.0,0.4442
1188.0,0.3209
1189.0,0.4145
1190.0,0.4528
1191.0,0.4348
1192.0,0.4586
1193.0,0.4412
1194.0,0.4535
1195.0,0.4324
1196.0,0.4186
1197.0,0.4519
1198.0,0.4161
1199.0,0.3618
1200.0,0.436
1201.0,0.4232
1202.0,0.4191
1203.0,0.4158
1204.0,0.368
1205.0,0.4266
1206.0,0.4668
1207.0,0.4188
1208.0,0.4099
1209.0,0.4178
1210.0,0.4334
1211.0,0.4158
1212.0,0.4142
1213.0,0.4532
1214.0,0.4225
1215.0,0.4153
1216.0,0.4516
1217.0,0.4412
1218.0,0.4481
1219.0,0.4433
1220.0,0.4484
1221.0,0.452
1222.0,0.4412
1223.0,0.4377
1224.0,0.4361
1225.0,0.4492
1226.0,0.4512
1227.0,0.4202
1228.0,0.4527
1229.0,0.4513
1230.0,0.4443
1231.0,0.4545
1232.0,0.4519
1233.0,0.4395
1234.0,0.4535
1235.0,0.451
1236.0,0.454
1237.0,0.4489
1238.0,0.4524
1239.0,0.4467
1240.0,0.4482
1241.0,0.4469
1242.0,0.4452
1243.0,0.4416
1244.0,0.445
1245.0,0.4467
1246.0,0.4441
1247.0,0.4426
1248.0,0.4427
1249.0,0.4437
1250.0,0.4413
1251.0,0.4361
1252.0,0.4356
1253.0,0.4332
1254.0,0.4297
1255.0,0.4354
1256.0,0.4252
1257.0,0.4233
1258.0,0.4296
1259.0,0.4172
1260.0,0.419
1261.0,0.3994
1262.0,0.3895
1263.0,0.3904
1264.0,0.3652
1265.0,0.3878
1266.0,0.376
1267.0,0.3807
1268.0,0.3642
1269.0,0.2478
1270.0,0.3801
1271.0,0.3976
1272.0,0.3985
1273.0,0.3947
1274.0,0.3954
1275.0,0.4004
1276.0,0.4035
1277.0,0.4053
1278.0,0.4114
1279.0,0.4079
1280.0,0.4026
1281.0,0.3835
1282.0,0.3683
1283.0,0.3969
1284.0,0.4066
1285.0,0.4091
1286.0,0.414
1287.0,0.4088
1288.0,0.4084
1289.0,0.3979
1290.0,0.4046
1291.0,0.4099
1292.0,0.3897
1293.0,0.403
1294.0,0.4004
1295.0,0.3997
1296.0,0.3846
1297.0,0.3662
1298.0,0.3894
1299.0,0.4031
1300.0,0.3494
1301.0,0.3585
1302.0,0.388
1303.0,0.3439
1304.0,0.3011
1305.0,0.3806
1306.0,0.3811
1307.0,0.3049
1308.0,0.3433
1309.0,0.3789
1310.0,0.2994
1311.0,0.3308
1312.0,0.3231
1313.0,0.3181
1314.0,0.2875
1315.0,0.2855
1316.0,0.3269
1317.0,0.3106
1318.0,0.3344
1319.0,0.2705
1320.0,0.2601
1321.0,0.2998
1322.0,0.3042
1323.0,0.2364
1324.0,0.2653
1325.0,0.3227
1326.0,0.2818
1327.0,0.27
1328.0,0.2352
1329.0,0.183
1330.0,0.235
1331.0,0.1496
1332.0,0.1518
1333.0,0.2093
1334.0,0.174
1335.0,0.2355
1336.0,0.1901
1337.0,0.1704
1338.0,0.1842
1339.0,0.1823
1340.0,0.1754
1341.0,0.1757
1342.0,0.1843
1343.0,0.1344
1344.0,0.08016
1345.0,0.1146
1346.0,0.06346
1347.0,0.06563
1348.0,0.005617
1349.0,0.01858
1350.0,0.01821
1351.0,0.005661
1352.0,0.00197
1353.0,0.0001359
1354.0,0.0003888
1355.0,5.705e-06
1356.0,6.809e-05
1357.0,0.0001027
1358.0,6.597e-06
1359.0,1.288e-06
1360.0,3.53e-06
1361.0,1.02e-08
1362.0,4.29e-11
1363.0,5.324e-06
1364.0,2.312e-06
1365.0,2.479e-11
1366.0,2.066e-05
1367.0,8.013e-06
1368.0,5.205e-13
1369.0,8.92e-07
1370.0,5.284e-07
1371.0,3.827e-08
1372.0,4.427e-06
1373.0,6.556e-05
1374.0,0.0002478
1375.0,0.0004482
1376.0,0.0003464
1377.0,0.0001668
1378.0,0.001465
1379.0,7.102e-05
1380.0,0.0001151
1381.0,3.473e-06
1382.0,4.202e-06
1383.0,7.642e-08
1384.0,1.082e-06
1385.0,3.253e-06
1386.0,4.239e-06
1387.0,0.0002866
1388.0,5.923e-06
1389.0,0.0007831
1390.0,0.0006724
1391.0,0.0004727
1392.0,3.358e-05
1393.0,0.0001584
1394.0,0.0001124
1395.0,1.08e-06
1396.0,1.298e-08
1397.0,6.871e-05
1398.0,0.001674
1399.0,0.001062
1400.0,7.14e-09
1401.0,2.134e-08
1402.0,0.002264
1403.0,0.002983
1404.0,0.0009301
1405.0,6.167e-07
1406.0,0.002618
1407.0,0.0002232
1408.0,0.002116
1409.0,0.0008266
1410.0,0.0006094
1411.0,0.002602
1412.0,0.003267
1413.0,0.02687
1414.0,0.000473
1415.0,0.0002448
1416.0,0.03936
1417.0,0.01358
1418.0,0.01558
1419.0,0.002504
1420.0,0.009603
1421.0,0.01049
1422.0,0.05088
1423.0,0.01032
1424.0,0.01895
1425.0,0.02843
1426.0,0.03079
1427.0,0.05318
1428.0,0.005384
1429.0,0.04127
1430.0,0.06665
1431.0,0.07229
1432.0,0.004287
1433.0,0.04728
1434.0,0.02471
1435.0,0.02693
1436.0,0.04842
1437.0,0.03712
1438.0,0.01667
1439.0,0.06428
1440.0,0.04834
1441.0,0.03851
1442.0,0.04236
1443.0,0.05066
1444.0,0.06909
1445.0,0.05608
1446.0,0.02585
1447.0,0.04066
1448.0,0.1231
1449.0,0.1089
1450.0,0.03008
1451.0,0.01259
1452.0,0.06744
1453.0,0.08739
1454.0,0.1432
1455.0,0.07007
1456.0,0.0952
1457.0,0.1237
1458.0,0.142
1459.0,0.1685
1460.0,0.08981
1461.0,0.09546
1462.0,0.1367
1463.0,0.0464
1464.0,0.1589
1465.0,0.09635
