interpolation:linear
wavelength,value
280.0,9.455e-23
280.5,2.634e-21
281.0,1.3540000000000001e-20
281.5,3.677e-19
282.0,2.692e-18
282.5,9.759e-18
283.0,4.045e-17
283.5,7.391e-17
284.0,1.62e-15
284.5,5.187e-15
285.0,1.121e-14
285.5,7.836e-14
286.0,3.536e-13
286.5,1.873e-12
287.0,5.938e-12
287.5,2.517e-11
288.0,1.027e-10
288.5,3.867e-10
289.0,1.225e-09
289.5,4.285e-09
290.0,1.321e-08
290.5,2.925e-08
291.0,6.817e-08
291.5,2.125e-07
292.0,5.153e-07
292.5,7.563e-07
293.0,1.698e-06
293.5,4.331e-06
294.0,7.059e-06
294.5,1.217e-05
295.0,2.086e-05
295.5,4.883e-05
296.0,8.584e-05
296.5,0.0001094
297.0,0.0001372
297.5,0.0003272
298.0,0.0004669
298.5,0.0004351
299.0,0.00089
299.5,0.001289
300.0,0.001318
300.5,0.001768
301.0,0.00282
301.5,0.004013
302.0,0.003253
302.5,0.006028
303.0,0.0101
303.5,0.01218
304.0,0.01111
304.5,0.01518
305.0,0.02034
305.5,0.02161
306.0,0.02039
306.5,0.02426
307.0,0.03235
307.5,0.0389
308.0,0.04061
308.5,0.04581
309.0,0.0405
309.5,0.04421
310.0,0.04352
310.5,0.06995
311.0,0.08629
311.5,0.0829
312.0,0.07914
312.5,0.09344
313.0,0.09997
313.5,0.0993
314.0,0.1194
314.5,0.1003
315.0,0.131
315.5,0.1134
316.0,0.09471
316.5,0.1308
317.0,0.1633
317.5,0.1729
318.0,0.1315
318.5,0.1547
319.0,0.179
319.5,0.1537
320.0,0.1878
320.5,0.2223
321.0,0.1883
321.5,0.1803
322.0,0.2046
322.5,0.1782
323.0,0.1715
323.5,0.1982
324.0,0.2307
324.5,0.2395
325.0,0.2179
325.5,0.2727
326.0,0.3218
326.5,0.316
327.0,0.319
327.5,0.3127
328.0,0.2884
328.5,0.293
329.0,0.3419
329.5,0.3862
330.0,0.3939
330.5,0.3238
331.0,0.3337
331.5,0.3346
332.0,0.354
332.5,0.3476
333.0,0.3502
333.5,0.324
334.0,0.334
334.5,0.3789
335.0,0.3531
335.5,0.4014
336.0,0.2786
336.5,0.3396
337.0,0.282
337.5,0.353
338.0,0.3401
338.5,0.3843
339.0,0.3837
339.5,0.3688
340.0,0.4449
340.5,0.4017
341.0,0.3857
341.5,0.3583
342.0,0.4303
342.5,0.4045
343.0,0.4444
343.5,0.4184
344.0,0.3145
344.5,0.3117
345.0,0.4181
345.5,0.4295
346.0,0.3668
346.5,0.4169
347.0,0.4475
347.5,0.3624
348.0,0.4159
348.5,0.4178
349.0,0.3888
349.5,0.3858
350.0,0.4786
350.5,0.5062
351.0,0.4528
351.5,0.4392
352.0,0.4744
352.5,0.372
353.0,0.4702
353.5,0.5044
354.0,0.5253
354.5,0.5342
355.0,0.5336
355.5,0.4833
356.0,0.507
356.5,0.4341
357.0,0.3597
357.5,0.4416
358.0,0.3509
358.5,0.3006
359.0,0.4216
359.5,0.5383
360.0,0.5722
360.5,0.4586
361.0,0.419
361.5,0.4834
362.0,0.4188
362.5,0.5806
363.0,0.5225
363.5,0.4822
364.0,0.5909
364.5,0.5062
365.0,0.5167
365.5,0.6499
366.0,0.6899
366.5,0.6495
367.0,0.6339
367.5,0.6592
368.0,0.5781
368.5,0.5844
369.0,0.6324
369.5,0.6755
370.0,0.7215
370.5,0.5611
371.0,0.6007
371.5,0.7531
372.0,0.5009
372.5,0.6018
373.0,0.6132
373.5,0.3997
374.0,0.5819
374.5,0.4828
375.0,0.4702
375.5,0.7035
376.0,0.5843
376.5,0.6068
377.0,0.6435
377.5,0.7543
378.0,0.8193
378.5,0.776
379.0,0.6418
379.5,0.5876
380.0,0.6122
380.5,0.7427
381.0,0.7455
381.5,0.592
382.0,0.5266
382.5,0.4496
383.0,0.4169
383.5,0.4022
384.0,0.4444
384.5,0.6548
385.0,0.6504
385.5,0.6067
386.0,0.5204
386.5,0.6847
387.0,0.57
387.5,0.6413
388.0,0.5931
388.5,0.5872
389.0,0.6349
389.5,0.7702
390.0,0.7742
390.5,0.7136
391.0,0.8413
391.5,0.8596
392.0,0.7252
392.5,0.6502
393.0,0.3623
393.5,0.2637
394.0,0.5374
394.5,0.6842
395.0,0.8362
395.5,0.8508
396.0,0.7387
396.5,0.4324
397.0,0.325
397.5,0.6619
398.0,0.9284
398.5,0.961
399.0,1.042
399.5,1.04
400.0,1.081
401.0,1.113
402.0,1.177
403.0,1.121
404.0,1.107
405.0,1.109
406.0,1.094
407.0,1.078
408.0,1.124
409.0,1.205
410.0,1.055
411.0,1.145
412.0,1.232
413.0,1.205
414.0,1.222
415.0,1.227
416.0,1.251
417.0,1.223
418.0,1.203
419.0,1.221
420.0,1.219
421.0,1.277
422.0,1.217
423.0,1.191
424.0,1.262
425.0,1.262
426.0,1.231
427.0,1.21
428.0,1.181
429.0,1.12
430.0,0.9819
431.0,0.9754
432.0,1.261
433.0,1.27
434.0,1.182
435.0,1.237
436.0,1.395
437.0,1.377
438.0,1.256
439.0,1.302
440.0,1.345
441.0,1.396
442.0,1.499
443.0,1.463
444.0,1.497
445.0,1.467
446.0,1.401
447.0,1.516
448.0,1.543
449.0,1.551
450.0,1.596
451.0,1.657
452.0,1.599
453.0,1.506
454.0,1.573
455.0,1.585
456.0,1.625
457.0,1.654
458.0,1.601
459.0,1.595
460.0,1.601
461.0,1.64
462.0,1.654
463.0,1.645
464.0,1.618
465.0,1.599
466.0,1.616
467.0,1.589
468.0,1.61
469.0,1.62
470.0,1.571
471.0,1.57
472.0,1.657
473.0,1.637
474.0,1.643
475.0,1.66
476.0,1.614
477.0,1.621
478.0,1.668
479.0,1.658
480.0,1.663
481.0,1.694
482.0,1.704
483.0,1.684
484.0,1.65
485.0,1.573
486.0,1.376
487.0,1.443
488.0,1.585
489.0,1.592
490.0,1.676
491.0,1.648
492.0,1.557
493.0,1.61
494.0,1.627
495.0,1.643
496.0,1.654
497.0,1.682
498.0,1.604
499.0,1.627
500.0,1.582
501.0,1.555
502.0,1.536
503.0,1.602
504.0,1.568
505.0,1.621
506.0,1.675
507.0,1.595
508.0,1.545
509.0,1.589
510.0,1.58
511.0,1.623
512.0,1.641
513.0,1.555
514.0,1.545
515.0,1.531
516.0,1.528
517.0,1.359
518.0,1.429
519.0,1.501
520.0,1.557
521.0,1.573
522.0,1.576
523.0,1.549
524.0,1.606
525.0,1.627
526.0,1.556
527.0,1.468
528.0,1.555
529.0,1.641
530.0,1.618
531.0,1.644
532.0,1.589
533.0,1.543
534.0,1.589
535.0,1.624
536.0,1.64
537.0,1.576
538.0,1.604
539.0,1.592
540.0,1.527
541.0,1.54
542.0,1.59
543.0,1.573
544.0,1.602
545.0,1.598
546.0,1.607
547.0,1.606
548.0,1.587
549.0,1.592
550.0,1.612
551.0,1.593
552.0,1.605
553.0,1.578
554.0,1.616
555.0,1.621
556.0,1.601
557.0,1.552
558.0,1.542
559.0,1.515
560.0,1.535
561.0,1.557
562.0,1.547
563.0,1.591
564.0,1.55
565.0,1.538
566.0,1.517
567.0,1.547
568.0,1.537
569.0,1.506
570.0,1.505
571.0,1.496
572.0,1.536
573.0,1.553
574.0,1.55
575.0,1.523
576.0,1.509
577.0,1.526
578.0,1.502
579.0,1.507
580.0,1.532
581.0,1.538
582.0,1.566
583.0,1.568
584.0,1.581
585.0,1.542
586.0,1.511
587.0,1.547
588.0,1.516
589.0,1.356
590.0,1.418
591.0,1.493
592.0,1.479
593.0,1.496
594.0,1.489
595.0,1.457
596.0,1.505
597.0,1.491
598.0,1.485
599.0,1.486
600.0,1.486
601.0,1.472
602.0,1.462
603.0,1.486
604.0,1.511
605.0,1.503
606.0,1.496
607.0,1.511
608.0,1.493
609.0,1.496
610.0,1.484
611.0,1.492
612.0,1.488
613.0,1.469
614.0,1.449
615.0,1.48
616.0,1.431
617.0,1.428
618.0,1.483
619.0,1.468
620.0,1.478
621.0,1.48
622.0,1.464
623.0,1.443
624.0,1.418
625.0,1.415
626.0,1.437
627.0,1.456
628.0,1.387
629.0,1.431
630.0,1.4
631.0,1.423
632.0,1.404
633.0,1.444
634.0,1.427
635.0,1.448
636.0,1.428
637.0,1.451
638.0,1.463
639.0,1.446
640.0,1.431
641.0,1.43
642.0,1.423
643.0,1.442
644.0,1.437
645.0,1.44
646.0,1.41
647.0,1.401
648.0,1.403
649.0,1.377
650.0,1.375
651.0,1.433
652.0,1.384
653.0,1.414
654.0,1.398
655.0,1.351
656.0,1.194
657.0,1.226
658.0,1.372
659.0,1.38
660.0,1.386
661.0,1.396
662.0,1.401
663.0,1.373
664.0,1.387
665.0,1.386
666.0,1.387
667.0,1.385
668.0,1.385
669.0,1.406
670.0,1.399
671.0,1.399
672.0,1.387
673.0,1.408
674.0,1.402
675.0,1.389
676.0,1.399
677.0,1.385
678.0,1.389
679.0,1.366
680.0,1.377
681.0,1.368
682.0,1.367
683.0,1.364
684.0,1.358
685.0,1.369
686.0,1.362
687.0,1.023
688.0,1.141
689.0,1.143
690.0,1.18
691.0,1.221
692.0,1.249
693.0,1.241
694.0,1.232
695.0,1.269
696.0,1.271
697.0,1.331
698.0,1.311
699.0,1.291
700.0,1.276
701.0,1.267
702.0,1.272
703.0,1.274
704.0,1.308
705.0,1.31
706.0,1.307
707.0,1.307
708.0,1.31
709.0,1.308
710.0,1.31
711.0,1.307
712.0,1.302
713.0,1.29
714.0,1.295
715.0,1.259
716.0,1.261
717.0,1.137
718.0,1.053
719.0,0.9705
720.0,1.019
721.0,1.098
722.0,1.225
723.0,1.157
724.0,1.061
725.0,1.05
726.0,1.095
727.0,1.101
728.0,1.049
729.0,1.073
730.0,1.134
731.0,1.091
732.0,1.15
733.0,1.202
734.0,1.226
735.0,1.203
736.0,1.201
737.0,1.207
738.0,1.215
739.0,1.192
740.0,1.22
741.0,1.206
742.0,1.206
743.0,1.236
744.0,1.231
745.0,1.231
746.0,1.237
747.0,1.239
748.0,1.237
749.0,1.223
750.0,1.222
751.0,1.21
752.0,1.215
753.0,1.221
754.0,1.224
755.0,1.218
756.0,1.217
757.0,1.219
758.0,1.204
759.0,1.186
760.0,0.3292
761.0,0.207
762.0,0.7304
763.0,0.4463
764.0,0.5972
765.0,0.7312
766.0,0.8371
767.0,0.9983
768.0,1.108
769.0,1.121
770.0,1.149
771.0,1.153
772.0,1.154
773.0,1.162
774.0,1.156
775.0,1.147
776.0,1.161
777.0,1.146
778.0,1.139
779.0,1.14
780.0,1.134
781.0,1.135
782.0,1.142
783.0,1.122
784.0,1.128
785.0,1.12
786.0,1.133
787.0,1.118
788.0,1.106
789.0,1.106
790.0,1.084
791.0,1.087
792.0,1.078
793.0,1.062
794.0,1.073
795.0,1.093
796.0,1.068
797.0,1.07
798.0,1.093
799.0,1.088
800.0,1.071
801.0,1.07
802.0,1.067
803.0,1.06
804.0,1.06
805.0,1.054
806.0,1.08
807.0,1.068
808.0,1.069
809.0,1.052
810.0,1.046
811.0,1.051
812.0,1.028
813.0,1.011
814.0,0.9117
815.0,0.9056
816.0,0.8466
817.0,0.8591
818.0,0.8321
819.0,0.9105
820.0,0.8654
821.0,0.9849
822.0,0.9613
823.0,0.6975
824.0,0.9424
825.0,0.9697
826.0,0.9409
827.0,0.9844
828.0,0.8588
829.0,0.9338
830.0,0.9243
831.0,0.9266
832.0,0.9027
833.0,0.9477
834.0,0.9222
835.0,0.9962
836.0,0.9641
837.0,0.9985
838.0,0.972
839.0,0.9826
840.0,1.003
841.0,0.9908
842.0,0.99
843.0,0.9864
844.0,0.9745
845.0,1.005
846.0,1.0
847.0,0.9808
848.0,0.9761
849.0,0.9485
850.0,0.9086
851.0,0.9636
852.0,0.9562
853.0,0.9193
854.0,0.7948
855.0,0.8719
856.0,0.9535
857.0,0.9739
858.0,0.9672
859.0,0.9675
860.0,0.9689
861.0,0.9638
862.0,0.9788
863.0,1.002
864.0,0.9519
865.0,0.9435
866.0,0.8484
867.0,0.8854
868.0,0.9635
869.0,0.9435
870.0,0.9704
871.0,0.9573
872.0,0.9539
873.0,0.9521
874.0,0.9408
875.0,0.9218
876.0,0.9316
877.0,0.9409
878.0,0.9515
879.0,0.9368
880.0,0.9168
881.0,0.9037
882.0,0.9236
883.0,0.9259
884.0,0.922
885.0,0.929
886.0,0.8878
887.0,0.8955
888.0,0.9099
889.0,0.9182
890.0,0.913
891.0,0.9103
892.0,0.8872
893.0,0.8636
894.0,0.8408
895.0,0.8043
896.0,0.7626
897.0,0.669
898.0,0.7219
899.0,0.5665
900.0,0.731
901.0,0.5928
902.0,0.6732
903.0,0.6869
904.0,0.835
905.0,0.8107
906.0,0.7624
907.0,0.6399
908.0,0.6499
909.0,0.694
910.0,0.6313
911.0,0.6626
912.0,0.6883
913.0,0.6416
914.0,0.6332
915.0,0.6841
916.0,0.5852
917.0,0.7224
918.0,0.6004
919.0,0.7314
920.0,0.7304
921.0,0.7571
922.0,0.6895
923.0,0.7309
924.0,0.7072
925.0,0.6924
926.0,0.6998
927.0,0.7713
928.0,0.6005
929.0,0.5575
930.0,0.4536
931.0,0.4271
932.0,0.3231
933.0,0.2715
934.0,0.1678
935.0,0.2705
936.0,0.1806
937.0,0.1849
938.0,0.2225
939.0,0.414
940.0,0.4873
941.0,0.3825
942.0,0.4332
943.0,0.2968
944.0,0.3024
945.0,0.392
946.0,0.2156
947.0,0.3977
948.0,0.2952
949.0,0.5163
950.0,0.1693
951.0,0.5057
952.0,0.2932
953.0,0.3646
954.0,0.4317
955.0,0.367
956.0,0.35
957.0,0.2959
958.0,0.4734
959.0,0.3924
960.0,0.4391
961.0,0.4806
962.0,0.4565
963.0,0.5155
964.0,0.476
965.0,0.5122
966.0,0.5151
967.0,0.5138
968.0,0.6526
969.0,0.6839
970.0,0.6335
971.0,0.7093
972.0,0.6816
973.0,0.6093
974.0,0.5809
975.0,0.5966
976.0,0.5747
977.0,0.6378
978.0,0.6127
979.0,0.6365
980.0,0.602
981.0,0.7048
982.0,0.6795
983.0,0.6558
984.0,0.72
985.0,0.6768
986.0,0.729
987.0,0.7187
988.0,0.7174
989.0,0.7246
990.0,0.7128
991.0,0.7273
992.0,0.7311
993.0,0.7187
994.0,0.7305
995.0,0.7291
996.0,0.7265
997.0,0.7273
998.0,0.7241
999.0,0.7213
1000.0,0.7172
1001.0,0.7251
1002.0,0.709
1003.0,0.7126
1004.0,0.6962
1005.0,0.6694
1006.0,0.6962
1007.0,0.7106
1008.0,0.7075
1009.0,0.7045
1010.0,0.7019
1011.0,0.707
1012.0,0.7017
1013.0,0.7052
1014.0,0.7002
1015.0,0.6957
1016.0,0.6927
1017.0,0.6946
1018.0,0.6916
1019.0,0.6783
1020.0,0.6882
1021.0,0.687
1022.0,0.6823
1023.0,0.6896
1024.0,0.6821
1025.0,0.6887
1026.0,0.6861
1027.0,0.6845
1028.0,0.6832
1029.0,0.6753
1030.0,0.6794
1031.0,0.6769
1032.0,0.6748
1033.0,0.6647
1034.0,0.6647
1035.0,0.6668
1036.0,0.6704
1037.0,0.6595
1038.0,0.6625
1039.0,0.6622
1040.0,0.6596
1041.0,0.6624
1042.0,0.6578
1043.0,0.6558
1044.0,0.6582
1045.0,0.6494
1046.0,0.6423
1047.0,0.6482
1048.0,0.6519
1049.0,0.6496
1050.0,0.6468
1051.0,0.6461
1052.0,0.6436
1053.0,0.6387
1054.0,0.6402
1055.0,0.6408
1056.0,0.6388
1057.0,0.6371
1058.0,0.6216
1059.0,0.6225
1060.0,0.6217
1061.0,0.6211
1062.0,0.6246
1063.0,0.6187
1064.0,0.6259
1065.0,0.622
1066.0,0.6093
1067.0,0.6173
1068.0,0.6042
1069.0,0.5853
1070.0,0.6056
1071.0,0.6137
1072.0,0.6076
1073.0,0.5987
1074.0,0.6127
1075.0,0.5861
1076.0,0.6125
1077.0,0.6038
1078.0,0.5933
1079.0,0.6021
1080.0,0.5946
1081.0,0.5774
1082.0,0.5833
1083.0,0.5843
1084.0,0.5772
1085.0,0.5956
1086.0,0.5502
1087.0,0.5629
1088.0,0.5845
1089.0,0.5704
1090.0,0.5607
1091.0,0.5837
1092.0,0.5813
1093.0,0.5049
1094.0,0.5334
1095.0,0.5242
1096.0,0.5056
1097.0,0.5677
1098.0,0.4989
1099.0,0.5185
1100.0,0.4876
1101.0,0.492
1102.0,0.4732
1103.0,0.471
1104.0,0.4714
1105.0,0.5078
1106.0,0.4094
1107.0,0.4864
1108.0,0.425
1109.0,0.4234
1110.0,0.4837
1111.0,0.3455
1112.0,0.4191
1113.0,0.2852
1114.0,0.3163
1115.0,0.2629
1116.0,0.2214
1117.0,0.09484
1118.0,0.2363
1119.0,0.1277
1120.0,0.1608
1121.0,0.2067
1122.0,0.09621
1123.0,0.1451
1124.0,0.1226
1125.0,0.1574
1126.0,0.06409
1127.0,0.1767
1128.0,0.1156
1129.0,0.121
1130.0,0.0844
1131.0,0.3121
1132.0,0.2492
1133.0,0.1701
1134.0,0.05157
1135.0,0.01899
1136.0,0.1463
1137.0,0.3099
1138.0,0.2213
1139.0,0.3078
1140.0,0.2657
1141.0,0.2103
1142.0,0.2371
1143.0,0.3274
1144.0,0.1262
1145.0,0.1637
1146.0,0.1766
1147.0,0.07203
1148.0,0.2837
1149.0,0.2335
1150.0,0.1353
1151.0,0.2198
1152.0,0.2624
1153.0,0.2497
1154.0,0.161
1155.0,0.3215
1156.0,0.2938
1157.0,0.3236
1158.0,0.3198
1159.0,0.3391
1160.0,0.297
1161.0,0.353
1162.0,0.3557
1163.0,0.459
1164.0,0.4017
1165.0,0.3861
1166.0,0.3786
1167.0,0.4083
1168.0,0.4142
1169.0,0.4213
1170.0,0.4517
1171.0,0.4415
1172.0,0.446
1173.0,0.4508
1174.0,0.3393
1175.0,0.4379
1176.0,0.4732
1177.0,0.4595
1178.0,0.3584
1179.0,0.4767
1180.0,0.4346
1181.0,0.4475
1182.0,0.3232
1183.0,0.4386
1184.0,0.4158
1185.0,0.4053
1186.0,0.4668
1187.0,0.4488
1188.0,0.3298
1189.0,0.4192
1190.0,0.4562
1191.0,0.4402
1192.0,0.4618
1193.0,0.4451
1194.0,0.457
1195.0,0.4372
1196.0,0.4243
1197.0,0.4544
1198.0,0.4198
1199.0,0.3687
1200.0,0.44
1201.0,0.4282
1202.0,0.4236
1203.0,0.4201
1204.0,0.3741
1205.0,0.43
1206.0,0.4684
1207.0,0.4236
1208.0,0.4135
1209.0,0.4211
1210.0,0.4361
1211.0,0.4198
1212.0,0.4195
1213.0,0.4555
1214.0,0.4271
1215.0,0.4203
1216.0,0.4538
1217.0,0.4441
1218.0,0.4504
1219.0,0.4459
1220.0,0.4506
1221.0,0.4538
1222.0,0.4434
1223.0,0.4402
1224.0,0.439
1225.0,0.451
1226.0,0.4527
1227.0,0.4233
1228.0,0.4538
1229.0,0.4527
1230.0,0.4461
1231.0,0.4552
1232.0,0.4526
1233.0,0.4415
1234.0,0.4539
1235.0,0.4516
1236.0,0.4544
1237.0,0.4499
1238.0,0.4529
1239.0,0.4471
1240.0,0.4486
1241.0,0.4476
1242.0,0.4457
1243.0,0.442
1244.0,0.4455
1245.0,0.4472
1246.0,0.4445
1247.0,0.4431
1248.0,0.4434
1249.0,0.4442
1250.0,0.4419
1251.0,0.4369
1252.0,0.4361
1253.0,0.4342
1254.0,0.431
1255.0,0.4361
1256.0,0.4267
1257.0,0.425
1258.0,0.4306
1259.0,0.4195
1260.0,0.4211
1261.0,0.4031
1262.0,0.3941
1263.0,0.395
1264.0,0.3716
1265.0,0.3923
1266.0,0.3817
1267.0,0.3855
1268.0,0.3702
1269.0,0.2619
1270.0,0.3852
1271.0,0.4011
1272.0,0.4018
1273.0,0.3982
1274.0,0.3986
1275.0,0.4033
1276.0,0.4061
1277.0,0.4076
1278.0,0.4131
1279.0,0.4096
1280.0,0.4042
1281.0,0.3847
1282.0,0.3689
1283.0,0.3977
1284.0,0.4076
1285.0,0.41
1286.0,0.4146
1287.0,0.41
1288.0,0.4094
1289.0,0.3999
1290.0,0.4055
1291.0,0.4106
1292.0,0.3923
1293.0,0.4043
1294.0,0.4018
1295.0,0.4014
1296.0,0.3876
1297.0,0.3701
1298.0,0.3915
1299.0,0.4041
1300.0,0.3541
1301.0,0.3625
1302.0,0.39
1303.0,0.3481
1304.0,0.3083
1305.0,0.383
1306.0,0.3836
1307.0,0.311
1308.0,0.3469
1309.0,0.3815
1310.0,0.3056
1311.0,0.3351
1312.0,0.3279
1313.0,0.3233
1314.0,0.2935
1315.0,0.2923
1316.0,0.3317
1317.0,0.3155
1318.0,0.3383
1319.0,0.2781
1320.0,0.2665
1321.0,0.3056
1322.0,0.3106
1323.0,0.2452
1324.0,0.2727
1325.0,0.3276
1326.0,0.2884
1327.0,0.2769
1328.0,0.2425
1329.0,0.1918
1330.0,0.2446
1331.0,0.1599
1332.0,0.1609
1333.0,0.2205
1334.0,0.1821
1335.0,0.2441
1336.0,0.199
1337.0,0.1798
1338.0,0.194
1339.0,0.1916
1340.0,0.1833
1341.0,0.1858
1342.0,0.1948
1343.0,0.1472
1344.0,0.08794
1345.0,0.1247
1346.0,0.07286
1347.0,0.07588
1348.0,0.007486
1349.0,0.02366
1350.0,0.02246
1351.0,0.007899
1352.0,0.003077
1353.0,0.0002485
1354.0,0.0006503
1355.0,1.278e-05
1356.0,0.0001265
1357.0,0.0001894
1358.0,1.461e-05
1359.0,3.489e-06
1360.0,8.401e-06
1361.0,3.829e-08
1362.0,2.021e-10
1363.0,1.303e-05
1364.0,5.9e-06
1365.0,1.456e-10
1366.0,4.771e-05
1367.0,1.84e-05
1368.0,4.836e-12
1369.0,2.325e-06
1370.0,1.496e-06
1371.0,1.229e-07
1372.0,1.023e-05
1373.0,0.0001296
1374.0,0.0004432
1375.0,0.0007895
1376.0,0.0005771
1377.0,0.0002855
1378.0,0.002343
1379.0,0.0001229
1380.0,0.0002091
1381.0,6.875e-06
1382.0,9.928e-06
1383.0,2.02e-07
1384.0,2.901e-06
1385.0,7.055e-06
1386.0,1.056e-05
1387.0,0.0005323
1388.0,1.162e-05
1389.0,0.001322
1390.0,0.001128
1391.0,0.000819
1392.0,6.171e-05
1393.0,0.0002732
1394.0,0.0002229
1395.0,2.494e-06
1396.0,4.608e-08
1397.0,0.0001238
1398.0,0.002686
1399.0,0.001713
1400.0,2.825e-08
1401.0,7.254e-08
1402.0,0.003243
1403.0,0.004353
1404.0,0.001372
1405.0,1.533e-06
1406.0,0.003974
1407.0,0.000341
1408.0,0.003201
1409.0,0.001343
1410.0,0.0009653
1411.0,0.003785
1412.0,0.004595
1413.0,0.0334
1414.0,0.0007449
1415.0,0.0004007
1416.0,0.04628
1417.0,0.01728
1418.0,0.01972
1419.0,0.003245
1420.0,0.01222
1421.0,0.01355
1422.0,0.05932
1423.0,0.01246
1424.0,0.02255
1425.0,0.03411
1426.0,0.03599
1427.0,0.0597
1428.0,0.007236
1429.0,0.04739
1430.0,0.07408
1431.0,0.07969
1432.0,0.005804
1433.0,0.05315
1434.0,0.02829
1435.0,0.03251
1436.0,0.05586
1437.0,0.04293
1438.0,0.02008
1439.0,0.07289
1440.0,0.05509
1441.0,0.04514
1442.0,0.04922
1443.0,0.05703
1444.0,0.07714
1445.0,0.06407
1446.0,0.03
1447.0,0.04729
1448.0,0.1323
1449.0,0.1187
1450.0,0.03498
1451.0,0.0151
1452.0,0.07498
1453.0,0.09615
1454.0,0.1522
1455.0,0.07661
1456.0,0.1049
1457.0,0.133
1458.0,0.1496
1459.0,0.178
1460.0,0.0967
1461.0,0.104
1462.0,0.1464
1463.0,0.05175
1464.0,0.1675
1465.0,0.1021
1466.0,0.07849
1467.0,0.04505
1468.0,0.09041
