interpolation:linear
wavelength,value
280.0,2.05e-24
280.5,7.286e-23
281.0,4.0939999999999996e-22
281.5,1.408e-20
282.0,1.189e-19
282.5,4.747e-19
283.0,2.188e-18
283.5,4.215e-18
284.0,1.181e-16
284.5,4.23e-16
285.0,1.032e-15
285.5,8.319e-15
286.0,3.978e-14
286.5,2.372e-13
287.0,8.209e-13
287.5,3.902e-12
288.0,1.84e-11
288.5,7.481e-11
289.0,2.566e-10
289.5,9.792e-10
290.0,3.241e-09
290.5,7.619e-09
291.0,1.908e-08
291.5,6.515e-08
292.0,1.702e-07
292.5,2.605e-07
293.0,6.173e-07
293.5,1.694e-06
294.0,2.901e-06
294.5,5.192e-06
295.0,9.326e-06
295.5,2.313e-05
296.0,4.232e-05
296.5,5.6e-05
297.0,7.236e-05
297.5,0.00018
298.0,0.0002656
298.5,0.0002538
299.0,0.0005316
299.5,0.0007991
300.0,0.0008334
300.5,0.00114
301.0,0.001869
301.5,0.00272
302.0,0.002229
302.5,0.004212
303.0,0.007224
303.5,0.008831
304.0,0.008107
304.5,0.01126
305.0,0.01539
305.5,0.01655
306.0,0.0157
306.5,0.01882
307.0,0.02549
307.5,0.03108
308.0,0.03254
308.5,0.03695
309.0,0.03284
309.5,0.03636
310.0,0.03603
310.5,0.05812
311.0,0.07209
311.5,0.06944
312.0,0.06698
312.5,0.07961
313.0,0.08549
313.5,0.08474
314.0,0.1027
314.5,0.08702
315.0,0.1139
315.5,0.09827
316.0,0.0827
316.5,0.1149
317.0,0.1436
317.5,0.1518
318.0,0.116
318.5,0.1374
319.0,0.1596
319.5,0.1364
320.0,0.1667
320.5,0.1987
321.0,0.1693
321.5,0.1622
322.0,0.1832
322.5,0.1597
323.0,0.1544
323.5,0.1796
324.0,0.2093
324.5,0.2169
325.0,0.1967
325.5,0.247
326.0,0.2927
326.5,0.2883
327.0,0.2909
327.5,0.2851
328.0,0.2621
328.5,0.2676
329.0,0.3133
329.5,0.3542
330.0,0.3613
330.5,0.2965
331.0,0.3055
331.5,0.3071
332.0,0.3257
332.5,0.3202
333.0,0.3226
333.5,0.2981
334.0,0.3075
334.5,0.3496
335.0,0.3262
335.5,0.3711
336.0,0.2577
336.5,0.3141
337.0,0.2607
337.5,0.3265
338.0,0.3151
338.5,0.3563
339.0,0.356
339.5,0.3423
340.0,0.4129
340.5,0.373
341.0,0.3585
341.5,0.3332
342.0,0.4004
342.5,0.3766
343.0,0.4139
343.5,0.3897
344.0,0.293
344.5,0.2906
345.0,0.39
345.5,0.4009
346.0,0.3425
346.5,0.3895
347.0,0.4182
347.5,0.3388
348.0,0.3891
348.5,0.3909
349.0,0.364
349.5,0.3614
350.0,0.4484
350.5,0.4745
351.0,0.4246
351.5,0.4119
352.0,0.4452
352.5,0.3492
353.0,0.4415
353.5,0.4738
354.0,0.4936
354.5,0.5022
355.0,0.5018
355.5,0.4547
356.0,0.4772
356.5,0.4087
357.0,0.3387
357.5,0.4159
358.0,0.3306
358.5,0.2834
359.0,0.3974
359.5,0.5076
360.0,0.5397
360.5,0.4327
361.0,0.3955
361.5,0.4565
362.0,0.3956
362.5,0.5488
363.0,0.494
363.5,0.4561
364.0,0.5591
364.5,0.4791
365.0,0.4892
365.5,0.6155
366.0,0.6536
366.5,0.6155
367.0,0.6009
367.5,0.6252
368.0,0.5483
368.5,0.5546
369.0,0.6003
369.5,0.6413
370.0,0.6853
370.5,0.5331
371.0,0.5708
371.5,0.7159
372.0,0.4763
372.5,0.5723
373.0,0.5834
373.5,0.3804
374.0,0.5539
374.5,0.4597
375.0,0.4478
375.5,0.6702
376.0,0.5568
376.5,0.5783
377.0,0.6135
377.5,0.7192
378.0,0.7814
378.5,0.7403
379.0,0.6124
379.5,0.5608
380.0,0.5843
380.5,0.7092
381.0,0.7121
381.5,0.5655
382.0,0.5032
382.5,0.4298
383.0,0.3987
383.5,0.3847
384.0,0.4252
384.5,0.6266
385.0,0.6225
385.5,0.5808
386.0,0.4984
386.5,0.6558
387.0,0.5461
387.5,0.6145
388.0,0.5685
388.5,0.5629
389.0,0.6088
389.5,0.7387
390.0,0.7427
390.5,0.6848
391.0,0.8075
391.5,0.8252
392.0,0.6963
392.5,0.6244
393.0,0.348
393.5,0.2534
394.0,0.5165
394.5,0.6577
395.0,0.8039
395.5,0.8181
396.0,0.7105
396.5,0.416
397.0,0.3127
397.5,0.637
398.0,0.8936
398.5,0.9252
399.0,1.003
399.5,1.001
400.0,1.042
401.0,1.073
402.0,1.135
403.0,1.081
404.0,1.068
405.0,1.07
406.0,1.056
407.0,1.042
408.0,1.085
409.0,1.165
410.0,1.02
411.0,1.108
412.0,1.192
413.0,1.166
414.0,1.183
415.0,1.189
416.0,1.212
417.0,1.185
418.0,1.166
419.0,1.184
420.0,1.182
421.0,1.239
422.0,1.181
423.0,1.156
424.0,1.226
425.0,1.226
426.0,1.196
427.0,1.176
428.0,1.148
429.0,1.089
430.0,0.9551
431.0,0.9489
432.0,1.227
433.0,1.236
434.0,1.151
435.0,1.204
436.0,1.359
437.0,1.342
438.0,1.224
439.0,1.269
440.0,1.312
441.0,1.361
442.0,1.462
443.0,1.428
444.0,1.461
445.0,1.432
446.0,1.368
447.0,1.481
448.0,1.507
449.0,1.515
450.0,1.559
451.0,1.62
452.0,1.563
453.0,1.472
454.0,1.538
455.0,1.551
456.0,1.59
457.0,1.619
458.0,1.567
459.0,1.561
460.0,1.567
461.0,1.606
462.0,1.62
463.0,1.611
464.0,1.585
465.0,1.567
466.0,1.583
467.0,1.557
468.0,1.578
469.0,1.588
470.0,1.54
471.0,1.54
472.0,1.625
473.0,1.606
474.0,1.611
475.0,1.628
476.0,1.583
477.0,1.59
478.0,1.636
479.0,1.627
480.0,1.632
481.0,1.663
482.0,1.673
483.0,1.654
484.0,1.621
485.0,1.546
486.0,1.352
487.0,1.418
488.0,1.558
489.0,1.565
490.0,1.647
491.0,1.62
492.0,1.532
493.0,1.583
494.0,1.601
495.0,1.616
496.0,1.628
497.0,1.655
498.0,1.579
499.0,1.601
500.0,1.557
501.0,1.53
502.0,1.512
503.0,1.576
504.0,1.542
505.0,1.595
506.0,1.648
507.0,1.57
508.0,1.521
509.0,1.564
510.0,1.556
511.0,1.599
512.0,1.617
513.0,1.532
514.0,1.522
515.0,1.508
516.0,1.506
517.0,1.339
518.0,1.409
519.0,1.479
520.0,1.534
521.0,1.55
522.0,1.553
523.0,1.527
524.0,1.583
525.0,1.604
526.0,1.534
527.0,1.447
528.0,1.532
529.0,1.617
530.0,1.595
531.0,1.62
532.0,1.566
533.0,1.521
534.0,1.567
535.0,1.602
536.0,1.617
537.0,1.554
538.0,1.582
539.0,1.57
540.0,1.506
541.0,1.519
542.0,1.568
543.0,1.551
544.0,1.58
545.0,1.576
546.0,1.585
547.0,1.584
548.0,1.566
549.0,1.571
550.0,1.591
551.0,1.572
552.0,1.584
553.0,1.557
554.0,1.595
555.0,1.599
556.0,1.58
557.0,1.532
558.0,1.522
559.0,1.495
560.0,1.515
561.0,1.536
562.0,1.527
563.0,1.57
564.0,1.529
565.0,1.517
566.0,1.496
567.0,1.526
568.0,1.515
569.0,1.484
570.0,1.484
571.0,1.475
572.0,1.513
573.0,1.531
574.0,1.527
575.0,1.5
576.0,1.487
577.0,1.504
578.0,1.481
579.0,1.485
580.0,1.511
581.0,1.518
582.0,1.545
583.0,1.548
584.0,1.561
585.0,1.523
586.0,1.493
587.0,1.527
588.0,1.496
589.0,1.336
590.0,1.397
591.0,1.473
592.0,1.458
593.0,1.476
594.0,1.468
595.0,1.436
596.0,1.485
597.0,1.471
598.0,1.466
599.0,1.467
600.0,1.467
601.0,1.454
602.0,1.445
603.0,1.468
604.0,1.493
605.0,1.485
606.0,1.479
607.0,1.493
608.0,1.476
609.0,1.479
610.0,1.468
611.0,1.476
612.0,1.471
613.0,1.453
614.0,1.433
615.0,1.464
616.0,1.416
617.0,1.413
618.0,1.467
619.0,1.453
620.0,1.463
621.0,1.465
622.0,1.449
623.0,1.428
624.0,1.404
625.0,1.401
626.0,1.422
627.0,1.44
628.0,1.367
629.0,1.414
630.0,1.383
631.0,1.407
632.0,1.39
633.0,1.429
634.0,1.413
635.0,1.435
636.0,1.415
637.0,1.437
638.0,1.45
639.0,1.433
640.0,1.419
641.0,1.418
642.0,1.411
643.0,1.43
644.0,1.425
645.0,1.428
646.0,1.398
647.0,1.387
648.0,1.39
649.0,1.364
650.0,1.363
651.0,1.421
652.0,1.371
653.0,1.403
654.0,1.387
655.0,1.34
656.0,1.185
657.0,1.216
658.0,1.361
659.0,1.37
660.0,1.376
661.0,1.386
662.0,1.39
663.0,1.363
664.0,1.377
665.0,1.377
666.0,1.378
667.0,1.376
668.0,1.376
669.0,1.397
670.0,1.391
671.0,1.391
672.0,1.379
673.0,1.399
674.0,1.394
675.0,1.381
676.0,1.391
677.0,1.377
678.0,1.381
679.0,1.359
680.0,1.37
681.0,1.361
682.0,1.36
683.0,1.357
684.0,1.351
685.0,1.362
686.0,1.355
687.0,0.9931
688.0,1.119
689.0,1.121
690.0,1.161
691.0,1.206
692.0,1.237
693.0,1.228
694.0,1.219
695.0,1.258
696.0,1.26
697.0,1.323
698.0,1.303
699.0,1.282
700.0,1.267
701.0,1.257
702.0,1.262
703.0,1.265
704.0,1.3
705.0,1.302
706.0,1.299
707.0,1.299
708.0,1.302
709.0,1.301
710.0,1.303
711.0,1.3
712.0,1.295
713.0,1.284
714.0,1.288
715.0,1.251
716.0,1.253
717.0,1.122
718.0,1.037
719.0,0.9541
720.0,1.002
721.0,1.084
722.0,1.217
723.0,1.145
724.0,1.046
725.0,1.034
726.0,1.08
727.0,1.088
728.0,1.034
729.0,1.06
730.0,1.121
731.0,1.077
732.0,1.139
733.0,1.193
734.0,1.218
735.0,1.195
736.0,1.194
737.0,1.199
738.0,1.209
739.0,1.186
740.0,1.214
741.0,1.201
742.0,1.201
743.0,1.231
744.0,1.227
745.0,1.227
746.0,1.232
747.0,1.235
748.0,1.233
749.0,1.219
750.0,1.218
751.0,1.206
752.0,1.211
753.0,1.217
754.0,1.22
755.0,1.214
756.0,1.213
757.0,1.215
758.0,1.2
759.0,1.181
760.0,0.296
761.0,0.1794
762.0,0.7009
763.0,0.4111
764.0,0.5633
765.0,0.7016
766.0,0.8146
767.0,0.9827
768.0,1.099
769.0,1.114
770.0,1.144
771.0,1.149
772.0,1.151
773.0,1.159
774.0,1.153
775.0,1.144
776.0,1.158
777.0,1.143
778.0,1.136
779.0,1.137
780.0,1.131
781.0,1.132
782.0,1.139
783.0,1.119
784.0,1.125
785.0,1.117
786.0,1.13
787.0,1.114
788.0,1.102
789.0,1.102
790.0,1.078
791.0,1.082
792.0,1.074
793.0,1.057
794.0,1.07
795.0,1.089
796.0,1.063
797.0,1.065
798.0,1.089
799.0,1.084
800.0,1.067
801.0,1.065
802.0,1.062
803.0,1.055
804.0,1.056
805.0,1.05
806.0,1.077
807.0,1.065
808.0,1.065
809.0,1.048
810.0,1.041
811.0,1.046
812.0,1.021
813.0,1.004
814.0,0.9004
815.0,0.8944
816.0,0.8353
817.0,0.8484
818.0,0.8206
819.0,0.9022
820.0,0.8558
821.0,0.9796
822.0,0.9551
823.0,0.6833
824.0,0.9345
825.0,0.964
826.0,0.9338
827.0,0.9788
828.0,0.8487
829.0,0.9271
830.0,0.917
831.0,0.9196
832.0,0.8949
833.0,0.9423
834.0,0.9153
835.0,0.9923
836.0,0.9581
837.0,0.9947
838.0,0.9674
839.0,0.9791
840.0,0.9997
841.0,0.9872
842.0,0.987
843.0,0.9841
844.0,0.9718
845.0,1.003
846.0,0.9981
847.0,0.9789
848.0,0.974
849.0,0.9464
850.0,0.9067
851.0,0.9612
852.0,0.954
853.0,0.9174
854.0,0.793
855.0,0.8702
856.0,0.9515
857.0,0.972
858.0,0.9653
859.0,0.9657
860.0,0.9672
861.0,0.9621
862.0,0.9771
863.0,1.0
864.0,0.9503
865.0,0.9419
866.0,0.847
867.0,0.8839
868.0,0.9619
869.0,0.942
870.0,0.9689
871.0,0.9558
872.0,0.9524
873.0,0.9506
874.0,0.9393
875.0,0.9204
876.0,0.9301
877.0,0.9395
878.0,0.9499
879.0,0.9353
880.0,0.9153
881.0,0.9022
882.0,0.9219
883.0,0.9244
884.0,0.9204
885.0,0.9274
886.0,0.8858
887.0,0.8938
888.0,0.908
889.0,0.9167
890.0,0.911
891.0,0.9086
892.0,0.8848
893.0,0.8603
894.0,0.8359
895.0,0.7974
896.0,0.7548
897.0,0.6588
898.0,0.7128
899.0,0.5551
900.0,0.7237
901.0,0.5813
902.0,0.6654
903.0,0.6773
904.0,0.8301
905.0,0.8049
906.0,0.7561
907.0,0.6297
908.0,0.6401
909.0,0.686
910.0,0.6198
911.0,0.6528
912.0,0.6794
913.0,0.6297
914.0,0.6221
915.0,0.6729
916.0,0.574
917.0,0.7136
918.0,0.5889
919.0,0.7233
920.0,0.7242
921.0,0.7515
922.0,0.6813
923.0,0.7256
924.0,0.6988
925.0,0.684
926.0,0.6914
927.0,0.7651
928.0,0.587
929.0,0.5428
930.0,0.4378
931.0,0.4129
932.0,0.3087
933.0,0.2572
934.0,0.1543
935.0,0.258
936.0,0.1694
937.0,0.1729
938.0,0.2092
939.0,0.4003
940.0,0.4737
941.0,0.3682
942.0,0.4195
943.0,0.2844
944.0,0.2921
945.0,0.3779
946.0,0.2038
947.0,0.3825
948.0,0.283
949.0,0.5006
950.0,0.1572
951.0,0.491
952.0,0.279
953.0,0.3504
954.0,0.4187
955.0,0.3532
956.0,0.3379
957.0,0.281
958.0,0.4631
959.0,0.3796
960.0,0.4251
961.0,0.4682
962.0,0.4443
963.0,0.5044
964.0,0.4648
965.0,0.5016
966.0,0.5037
967.0,0.5022
968.0,0.6469
969.0,0.6775
970.0,0.626
971.0,0.7051
972.0,0.6767
973.0,0.6008
974.0,0.5721
975.0,0.5892
976.0,0.5656
977.0,0.6317
978.0,0.6051
979.0,0.63
980.0,0.5949
981.0,0.7008
982.0,0.6742
983.0,0.6498
984.0,0.7175
985.0,0.6716
986.0,0.7274
987.0,0.7162
988.0,0.7149
989.0,0.7236
990.0,0.7104
991.0,0.7262
992.0,0.7301
993.0,0.7168
994.0,0.7296
995.0,0.7283
996.0,0.7256
997.0,0.7264
998.0,0.7232
999.0,0.7205
1000.0,0.7161
1001.0,0.7243
1002.0,0.7072
1003.0,0.7117
1004.0,0.6951
1005.0,0.6687
1006.0,0.6953
1007.0,0.7098
1008.0,0.7065
1009.0,0.7033
1010.0,0.7006
1011.0,0.7062
1012.0,0.7007
1013.0,0.7044
1014.0,0.6995
1015.0,0.695
1016.0,0.6919
1017.0,0.6938
1018.0,0.6909
1019.0,0.6772
1020.0,0.6875
1021.0,0.6864
1022.0,0.6815
1023.0,0.6888
1024.0,0.6809
1025.0,0.688
1026.0,0.6853
1027.0,0.6837
1028.0,0.6824
1029.0,0.6745
1030.0,0.6787
1031.0,0.6762
1032.0,0.6741
1033.0,0.664
1034.0,0.664
1035.0,0.6661
1036.0,0.6697
1037.0,0.6588
1038.0,0.6618
1039.0,0.6615
1040.0,0.6588
1041.0,0.6616
1042.0,0.657
1043.0,0.655
1044.0,0.6574
1045.0,0.6485
1046.0,0.6415
1047.0,0.6473
1048.0,0.651
1049.0,0.6487
1050.0,0.6459
1051.0,0.6451
1052.0,0.6426
1053.0,0.6376
1054.0,0.6391
1055.0,0.6397
1056.0,0.6376
1057.0,0.6358
1058.0,0.6204
1059.0,0.6212
1060.0,0.6204
1061.0,0.6197
1062.0,0.6232
1063.0,0.6172
1064.0,0.6244
1065.0,0.6204
1066.0,0.6078
1067.0,0.6158
1068.0,0.6026
1069.0,0.5838
1070.0,0.604
1071.0,0.6124
1072.0,0.6061
1073.0,0.5972
1074.0,0.6116
1075.0,0.584
1076.0,0.6113
1077.0,0.6021
1078.0,0.5913
1079.0,0.6011
1080.0,0.5929
1081.0,0.5753
1082.0,0.582
1083.0,0.5832
1084.0,0.5747
1085.0,0.594
1086.0,0.5469
1087.0,0.5609
1088.0,0.5832
1089.0,0.5681
1090.0,0.5577
1091.0,0.5821
1092.0,0.58
1093.0,0.5006
1094.0,0.5318
1095.0,0.5202
1096.0,0.5008
1097.0,0.5665
1098.0,0.4939
1099.0,0.5138
1100.0,0.4817
1101.0,0.4865
1102.0,0.467
1103.0,0.4643
1104.0,0.4647
1105.0,0.5029
1106.0,0.3999
1107.0,0.4807
1108.0,0.4166
1109.0,0.4156
1110.0,0.4776
1111.0,0.3364
1112.0,0.4117
1113.0,0.2751
1114.0,0.3059
1115.0,0.2541
1116.0,0.2109
1117.0,0.08672
1118.0,0.2264
1119.0,0.1196
1120.0,0.1507
1121.0,0.1954
1122.0,0.08855
1123.0,0.1359
1124.0,0.1148
1125.0,0.1481
1126.0,0.05789
1127.0,0.1665
1128.0,0.1064
1129.0,0.1118
1130.0,0.07664
1131.0,0.2998
1132.0,0.2382
1133.0,0.1594
1134.0,0.04613
1135.0,0.01704
1136.0,0.136
1137.0,0.2969
1138.0,0.2112
1139.0,0.2992
1140.0,0.256
1141.0,0.2006
1142.0,0.2275
1143.0,0.3164
1144.0,0.1187
1145.0,0.1535
1146.0,0.1657
1147.0,0.06496
1148.0,0.2741
1149.0,0.2238
1150.0,0.1273
1151.0,0.2097
1152.0,0.2523
1153.0,0.2417
1154.0,0.1502
1155.0,0.3124
1156.0,0.2844
1157.0,0.3146
1158.0,0.311
1159.0,0.3314
1160.0,0.2882
1161.0,0.3458
1162.0,0.3482
1163.0,0.4547
1164.0,0.3958
1165.0,0.3787
1166.0,0.3725
1167.0,0.4027
1168.0,0.4083
1169.0,0.416
1170.0,0.4475
1171.0,0.4371
1172.0,0.4424
1173.0,0.4466
1174.0,0.3317
1175.0,0.4343
1176.0,0.4713
1177.0,0.4564
1178.0,0.3526
1179.0,0.4749
1180.0,0.4308
1181.0,0.4438
1182.0,0.3169
1183.0,0.4355
1184.0,0.4117
1185.0,0.4003
1186.0,0.4643
1187.0,0.4454
1188.0,0.3232
1189.0,0.4157
1190.0,0.4537
1191.0,0.4362
1192.0,0.4594
1193.0,0.4422
1194.0,0.4545
1195.0,0.4337
1196.0,0.4201
1197.0,0.4526
1198.0,0.4171
1199.0,0.3636
1200.0,0.437
1201.0,0.4245
1202.0,0.4203
1203.0,0.4169
1204.0,0.3696
1205.0,0.4275
1206.0,0.4673
1207.0,0.4201
1208.0,0.4109
1209.0,0.4187
1210.0,0.4341
1211.0,0.4169
1212.0,0.4156
1213.0,0.4538
1214.0,0.4237
1215.0,0.4166
1216.0,0.4522
1217.0,0.442
1218.0,0.4487
1219.0,0.444
1220.0,0.4489
1221.0,0.4525
1222.0,0.4418
1223.0,0.4383
1224.0,0.4369
1225.0,0.4497
1226.0,0.4516
1227.0,0.4211
1228.0,0.453
1229.0,0.4517
1230.0,0.4448
1231.0,0.4547
1232.0,0.4521
1233.0,0.4401
1234.0,0.4536
1235.0,0.4512
1236.0,0.4541
1237.0,0.4492
1238.0,0.4526
1239.0,0.4468
1240.0,0.4483
1241.0,0.4471
1242.0,0.4453
1243.0,0.4417
1244.0,0.4451
1245.0,0.4468
1246.0,0.4442
1247.0,0.4427
1248.0,0.4429
1249.0,0.4439
1250.0,0.4414
1251.0,0.4363
1252.0,0.4357
1253.0,0.4334
1254.0,0.43
1255.0,0.4356
1256.0,0.4256
1257.0,0.4238
1258.0,0.4299
1259.0,0.4178
1260.0,0.4196
1261.0,0.4004
1262.0,0.3908
1263.0,0.3916
1264.0,0.367
1265.0,0.389
1266.0,0.3776
1267.0,0.382
1268.0,0.3658
1269.0,0.2516
1270.0,0.3815
1271.0,0.3986
1272.0,0.3994
1273.0,0.3956
1274.0,0.3963
1275.0,0.4012
1276.0,0.4042
1277.0,0.4059
1278.0,0.4119
1279.0,0.4083
1280.0,0.403
1281.0,0.3838
1282.0,0.3684
1283.0,0.3971
1284.0,0.4069
1285.0,0.4094
1286.0,0.4141
1287.0,0.4091
1288.0,0.4087
1289.0,0.3985
1290.0,0.4049
1291.0,0.4101
1292.0,0.3904
1293.0,0.4034
1294.0,0.4008
1295.0,0.4001
1296.0,0.3854
1297.0,0.3672
1298.0,0.39
1299.0,0.4034
1300.0,0.3507
1301.0,0.3595
1302.0,0.3885
1303.0,0.3451
1304.0,0.303
1305.0,0.3813
1306.0,0.3818
1307.0,0.3065
1308.0,0.3442
1309.0,0.3796
1310.0,0.3011
1311.0,0.332
1312.0,0.3244
1313.0,0.3195
1314.0,0.2891
1315.0,0.2873
1316.0,0.3282
1317.0,0.3119
1318.0,0.3354
1319.0,0.2725
1320.0,0.2618
1321.0,0.3014
1322.0,0.3059
1323.0,0.2387
1324.0,0.2672
1325.0,0.324
1326.0,0.2835
1327.0,0.2718
1328.0,0.2371
1329.0,0.1853
1330.0,0.2375
1331.0,0.1523
1332.0,0.1542
1333.0,0.2122
1334.0,0.1761
1335.0,0.2378
1336.0,0.1925
1337.0,0.1729
1338.0,0.1867
1339.0,0.1848
1340.0,0.1775
1341.0,0.1784
1342.0,0.187
1343.0,0.1377
1344.0,0.08217
1345.0,0.1172
1346.0,0.06587
1347.0,0.06826
1348.0,0.006067
1349.0,0.01983
1350.0,0.01927
1351.0,0.006193
1352.0,0.002223
1353.0,0.0001599
1354.0,0.0004465
1355.0,7.087e-06
1356.0,8.044e-05
1357.0,0.0001211
1358.0,8.17e-06
1359.0,1.686e-06
1360.0,4.458e-06
1361.0,1.456e-08
1362.0,6.505e-11
1363.0,6.785e-06
1364.0,2.976e-06
1365.0,3.993e-11
1366.0,2.592e-05
1367.0,1.003e-05
1368.0,9.501e-13
1369.0,1.154e-06
1370.0,6.996e-07
1371.0,5.238e-08
1372.0,5.546e-06
1373.0,7.879e-05
1374.0,0.0002899
1375.0,0.0005226
1376.0,0.0003974
1377.0,0.0001927
1378.0,0.001663
1379.0,8.227e-05
1380.0,0.0001352
1381.0,4.17e-06
1382.0,5.297e-06
1383.0,9.917e-08
1384.0,1.411e-06
1385.0,4.005e-06
1386.0,5.423e-06
1387.0,0.000339
1388.0,7.095e-06
1389.0,0.0009022
1390.0,0.0007735
1391.0,0.0005484
1392.0,3.954e-05
1393.0,0.0001834
1394.0,0.0001353
1395.0,1.352e-06
1396.0,1.825e-08
1397.0,8.048e-05
1398.0,0.001903
1399.0,0.001209
1400.0,1.034e-08
1401.0,2.966e-08
1402.0,0.002494
1403.0,0.003303
1404.0,0.001033
1405.0,7.876e-07
1406.0,0.002932
1407.0,0.00025
1408.0,0.002367
1409.0,0.0009428
1410.0,0.0006897
1411.0,0.002878
1412.0,0.003581
1413.0,0.02851
1414.0,0.0005344
1415.0,0.0002794
1416.0,0.04112
1417.0,0.01448
1418.0,0.0166
1419.0,0.002685
1420.0,0.01025
1421.0,0.01123
1422.0,0.05304
1423.0,0.01086
1424.0,0.01985
1425.0,0.02986
1426.0,0.03211
1427.0,0.05486
1428.0,0.00583
1429.0,0.04284
1430.0,0.06857
1431.0,0.07421
1432.0,0.00465
1433.0,0.04879
1434.0,0.02562
1435.0,0.02833
1436.0,0.05032
1437.0,0.0386
1438.0,0.01752
1439.0,0.0665
1440.0,0.05007
1441.0,0.04019
1442.0,0.04412
1443.0,0.05231
1444.0,0.07117
1445.0,0.05814
1446.0,0.02692
1447.0,0.04235
1448.0,0.1255
1449.0,0.1114
1450.0,0.03133
1451.0,0.01322
1452.0,0.06939
1453.0,0.08968
1454.0,0.1456
1455.0,0.07177
1456.0,0.09773
1457.0,0.1261
1458.0,0.144
1459.0,0.171
1460.0,0.09161
1461.0,0.09771
1462.0,0.1392
1463.0,0.04777
1464.0,0.1611
1465.0,0.09786
1466.0,0.07269
