interpolation:linear
wavelength,value
280.0,4.943e-19
280.5,7.991e-18
281.0,3.366e-17
281.5,5.401e-16
282.0,2.871e-15
282.5,8.39e-15
283.0,2.743e-14
283.5,4.454e-14
284.0,5.635e-13
284.5,1.405e-12
285.0,2.317e-12
285.5,1.177e-11
286.0,4.668e-11
286.5,1.896e-10
287.0,4.945e-10
287.5,1.622e-09
288.0,4.789e-09
288.5,1.519e-08
289.0,4.033e-08
289.5,1.161e-07
290.0,3.051e-07
290.5,5.913e-07
291.0,1.173e-06
291.5,2.981e-06
292.0,6.123e-06
292.5,8.184e-06
293.0,1.63e-05
293.5,3.529e-05
294.0,5.149e-05
294.5,8.167e-05
295.0,0.000126
295.5,0.0002591
296.0,0.0004168
296.5,0.0004882
297.0,0.0005727
297.5,0.001244
298.0,0.001646
298.5,0.00145
299.0,0.002814
299.5,0.003748
300.0,0.003668
300.5,0.004716
301.0,0.007067
301.5,0.009564
302.0,0.007566
302.5,0.01343
303.0,0.02133
303.5,0.02497
304.0,0.02243
304.5,0.02961
305.0,0.03791
305.5,0.03918
306.0,0.03655
306.5,0.04275
307.0,0.05509
307.5,0.06424
308.0,0.06664
308.5,0.07405
309.0,0.06467
309.5,0.0684
310.0,0.06634
310.5,0.1058
311.0,0.1289
311.5,0.1231
312.0,0.1149
312.5,0.1336
313.0,0.1418
313.5,0.1415
314.0,0.1673
314.5,0.1376
315.0,0.1789
315.5,0.156
316.0,0.1282
316.5,0.1747
317.0,0.2178
317.5,0.231
318.0,0.174
318.5,0.2015
319.0,0.2312
319.5,0.2004
320.0,0.245
320.5,0.2856
321.0,0.2388
321.5,0.2281
322.0,0.2617
322.5,0.2274
323.0,0.2168
323.5,0.2471
324.0,0.2867
324.5,0.2986
325.0,0.2737
325.5,0.34
326.0,0.3974
326.5,0.3878
327.0,0.3916
327.5,0.3844
328.0,0.3568
328.5,0.3588
329.0,0.4158
329.5,0.4683
330.0,0.4777
330.5,0.3939
331.0,0.4061
331.5,0.4054
332.0,0.4265
332.5,0.4176
333.0,0.4206
333.5,0.3899
334.0,0.4018
334.5,0.4536
335.0,0.4215
335.5,0.4782
336.0,0.3315
336.5,0.4045
337.0,0.3359
337.5,0.4203
338.0,0.4035
338.5,0.455
339.0,0.4535
339.5,0.4356
340.0,0.5255
340.5,0.4739
341.0,0.4541
341.5,0.4212
342.0,0.5053
342.5,0.4745
343.0,0.521
343.5,0.4902
344.0,0.3687
344.5,0.3647
345.0,0.4882
345.5,0.5009
346.0,0.4273
346.5,0.4853
347.0,0.5204
347.5,0.4211
348.0,0.4828
348.5,0.4845
349.0,0.4505
349.5,0.4466
350.0,0.5534
350.5,0.5848
351.0,0.5228
351.5,0.5068
352.0,0.5469
352.5,0.4284
353.0,0.5409
353.5,0.5798
354.0,0.6034
354.5,0.6132
355.0,0.6121
355.5,0.5539
356.0,0.5806
356.5,0.4968
357.0,0.4113
357.5,0.5046
358.0,0.4007
358.5,0.3431
359.0,0.4808
359.5,0.6136
360.0,0.6518
360.5,0.522
361.0,0.4766
361.5,0.5493
362.0,0.4753
362.5,0.6585
363.0,0.592
363.5,0.5459
364.0,0.6684
364.5,0.5722
365.0,0.5837
365.5,0.7336
366.0,0.7782
366.5,0.7321
367.0,0.714
367.5,0.7421
368.0,0.6503
368.5,0.657
369.0,0.7105
369.5,0.7584
370.0,0.8096
370.5,0.6291
371.0,0.6731
371.5,0.8434
372.0,0.5606
372.5,0.6731
373.0,0.6854
373.5,0.4465
374.0,0.6496
374.5,0.5386
375.0,0.5243
375.5,0.784
376.0,0.6509
376.5,0.6756
377.0,0.716
377.5,0.8387
378.0,0.9106
378.5,0.8621
379.0,0.7127
379.5,0.6522
380.0,0.6792
380.5,0.8235
381.0,0.8261
381.5,0.6554
382.0,0.5827
382.5,0.4971
383.0,0.4607
383.5,0.4442
384.0,0.4906
384.5,0.7224
385.0,0.7172
385.5,0.6686
386.0,0.5732
386.5,0.7537
387.0,0.6271
387.5,0.7053
388.0,0.6519
388.5,0.6451
389.0,0.6972
389.5,0.8453
390.0,0.8493
390.5,0.7825
391.0,0.922
391.5,0.9416
392.0,0.7941
392.5,0.7115
393.0,0.3963
393.5,0.2883
394.0,0.5873
394.5,0.7473
395.0,0.9129
395.5,0.9285
396.0,0.8059
396.5,0.4714
397.0,0.3541
397.5,0.7209
398.0,1.011
398.5,1.046
399.0,1.133
399.5,1.131
400.0,1.176
401.0,1.209
402.0,1.278
403.0,1.215
404.0,1.199
405.0,1.201
406.0,1.183
407.0,1.165
408.0,1.213
409.0,1.3
410.0,1.138
411.0,1.234
412.0,1.327
413.0,1.296
414.0,1.314
415.0,1.319
416.0,1.343
417.0,1.312
418.0,1.29
419.0,1.309
420.0,1.305
421.0,1.367
422.0,1.301
423.0,1.272
424.0,1.348
425.0,1.347
426.0,1.313
427.0,1.29
428.0,1.258
429.0,1.192
430.0,1.045
431.0,1.037
432.0,1.34
433.0,1.349
434.0,1.255
435.0,1.312
436.0,1.479
437.0,1.46
438.0,1.33
439.0,1.379
440.0,1.424
441.0,1.476
442.0,1.585
443.0,1.547
444.0,1.581
445.0,1.549
446.0,1.479
447.0,1.599
448.0,1.627
449.0,1.634
450.0,1.68
451.0,1.744
452.0,1.682
453.0,1.583
454.0,1.653
455.0,1.666
456.0,1.707
457.0,1.737
458.0,1.68
459.0,1.673
460.0,1.68
461.0,1.72
462.0,1.733
463.0,1.723
464.0,1.695
465.0,1.673
466.0,1.69
467.0,1.662
468.0,1.683
469.0,1.694
470.0,1.641
471.0,1.64
472.0,1.73
473.0,1.71
474.0,1.716
475.0,1.733
476.0,1.685
477.0,1.693
478.0,1.741
479.0,1.73
480.0,1.734
481.0,1.766
482.0,1.775
483.0,1.753
484.0,1.717
485.0,1.637
486.0,1.431
487.0,1.5
488.0,1.647
489.0,1.654
490.0,1.74
491.0,1.711
492.0,1.617
493.0,1.671
494.0,1.689
495.0,1.704
496.0,1.716
497.0,1.744
498.0,1.663
499.0,1.686
500.0,1.639
501.0,1.612
502.0,1.592
503.0,1.661
504.0,1.628
505.0,1.681
506.0,1.736
507.0,1.653
508.0,1.6
509.0,1.645
510.0,1.636
511.0,1.679
512.0,1.698
513.0,1.608
514.0,1.597
515.0,1.582
516.0,1.579
517.0,1.404
518.0,1.477
519.0,1.55
520.0,1.608
521.0,1.624
522.0,1.627
523.0,1.599
524.0,1.658
525.0,1.68
526.0,1.607
527.0,1.516
528.0,1.606
529.0,1.694
530.0,1.671
531.0,1.698
532.0,1.64
533.0,1.593
534.0,1.641
535.0,1.676
536.0,1.692
537.0,1.625
538.0,1.654
539.0,1.641
540.0,1.575
541.0,1.588
542.0,1.64
543.0,1.621
544.0,1.652
545.0,1.647
546.0,1.657
547.0,1.656
548.0,1.636
549.0,1.641
550.0,1.661
551.0,1.641
552.0,1.653
553.0,1.625
554.0,1.665
555.0,1.669
556.0,1.649
557.0,1.599
558.0,1.588
559.0,1.561
560.0,1.581
561.0,1.604
562.0,1.594
563.0,1.64
564.0,1.597
565.0,1.585
566.0,1.563
567.0,1.595
568.0,1.585
569.0,1.556
570.0,1.555
571.0,1.544
572.0,1.587
573.0,1.605
574.0,1.601
575.0,1.574
576.0,1.56
577.0,1.577
578.0,1.552
579.0,1.555
580.0,1.58
581.0,1.585
582.0,1.612
583.0,1.613
584.0,1.626
585.0,1.586
586.0,1.554
587.0,1.591
588.0,1.562
589.0,1.403
590.0,1.466
591.0,1.541
592.0,1.528
593.0,1.543
594.0,1.537
595.0,1.505
596.0,1.55
597.0,1.537
598.0,1.529
599.0,1.529
600.0,1.528
601.0,1.513
602.0,1.503
603.0,1.527
604.0,1.552
605.0,1.543
606.0,1.536
607.0,1.55
608.0,1.532
609.0,1.534
610.0,1.522
611.0,1.529
612.0,1.525
613.0,1.505
614.0,1.484
615.0,1.515
616.0,1.465
617.0,1.462
618.0,1.518
619.0,1.502
620.0,1.512
621.0,1.515
622.0,1.499
623.0,1.478
624.0,1.452
625.0,1.449
626.0,1.471
627.0,1.491
628.0,1.432
629.0,1.47
630.0,1.438
631.0,1.458
632.0,1.438
633.0,1.477
634.0,1.458
635.0,1.48
636.0,1.458
637.0,1.48
638.0,1.492
639.0,1.474
640.0,1.458
641.0,1.457
642.0,1.449
643.0,1.469
644.0,1.463
645.0,1.466
646.0,1.437
647.0,1.431
648.0,1.434
649.0,1.407
650.0,1.401
651.0,1.459
652.0,1.414
653.0,1.44
654.0,1.423
655.0,1.378
656.0,1.216
657.0,1.248
658.0,1.395
659.0,1.403
660.0,1.409
661.0,1.418
662.0,1.424
663.0,1.395
664.0,1.408
665.0,1.407
666.0,1.407
667.0,1.404
668.0,1.404
669.0,1.425
670.0,1.419
671.0,1.418
672.0,1.405
673.0,1.426
674.0,1.421
675.0,1.407
676.0,1.417
677.0,1.402
678.0,1.406
679.0,1.383
680.0,1.394
681.0,1.385
682.0,1.384
683.0,1.381
684.0,1.374
685.0,1.386
686.0,1.378
687.0,1.091
688.0,1.192
689.0,1.193
690.0,1.224
691.0,1.257
692.0,1.278
693.0,1.271
694.0,1.262
695.0,1.294
696.0,1.297
697.0,1.348
698.0,1.328
699.0,1.314
700.0,1.299
701.0,1.291
702.0,1.293
703.0,1.296
704.0,1.327
705.0,1.329
706.0,1.324
707.0,1.324
708.0,1.327
709.0,1.323
710.0,1.326
711.0,1.323
712.0,1.316
713.0,1.305
714.0,1.31
715.0,1.275
716.0,1.278
717.0,1.174
718.0,1.093
719.0,1.01
720.0,1.061
721.0,1.129
722.0,1.245
723.0,1.184
724.0,1.095
725.0,1.087
726.0,1.13
727.0,1.133
728.0,1.087
729.0,1.103
730.0,1.164
731.0,1.123
732.0,1.176
733.0,1.221
734.0,1.244
735.0,1.221
736.0,1.219
737.0,1.225
738.0,1.229
739.0,1.206
740.0,1.232
741.0,1.217
742.0,1.216
743.0,1.246
744.0,1.241
745.0,1.24
746.0,1.246
747.0,1.249
748.0,1.246
749.0,1.232
750.0,1.231
751.0,1.219
752.0,1.224
753.0,1.23
754.0,1.233
755.0,1.226
756.0,1.226
757.0,1.228
758.0,1.213
759.0,1.197
760.0,0.4176
761.0,0.285
762.0,0.8007
763.0,0.5359
764.0,0.6802
765.0,0.8018
766.0,0.8894
767.0,1.034
768.0,1.127
769.0,1.137
770.0,1.159
771.0,1.162
772.0,1.162
773.0,1.17
774.0,1.164
775.0,1.155
776.0,1.169
777.0,1.153
778.0,1.146
779.0,1.147
780.0,1.141
781.0,1.142
782.0,1.149
783.0,1.129
784.0,1.134
785.0,1.127
786.0,1.14
787.0,1.127
788.0,1.116
789.0,1.117
790.0,1.097
791.0,1.097
792.0,1.088
793.0,1.072
794.0,1.079
795.0,1.1
796.0,1.08
797.0,1.082
798.0,1.101
799.0,1.096
800.0,1.081
801.0,1.08
802.0,1.077
803.0,1.07
804.0,1.071
805.0,1.064
806.0,1.087
807.0,1.076
808.0,1.076
809.0,1.061
810.0,1.056
811.0,1.063
812.0,1.042
813.0,1.027
814.0,0.9386
815.0,0.9322
816.0,0.8741
817.0,0.8851
818.0,0.8598
819.0,0.9302
820.0,0.8886
821.0,0.9972
822.0,0.9758
823.0,0.7327
824.0,0.9609
825.0,0.983
826.0,0.9579
827.0,0.9975
828.0,0.883
829.0,0.9498
830.0,0.9415
831.0,0.9432
832.0,0.9214
833.0,0.9599
834.0,0.9383
835.0,1.005
836.0,0.9778
837.0,1.007
838.0,0.9821
839.0,0.9904
840.0,1.01
841.0,0.9991
842.0,0.9968
843.0,0.9917
844.0,0.9805
845.0,1.01
846.0,1.005
847.0,0.985
848.0,0.981
849.0,0.9532
850.0,0.913
851.0,0.9689
852.0,0.9612
853.0,0.9236
854.0,0.7989
855.0,0.8757
856.0,0.958
857.0,0.978
858.0,0.9714
859.0,0.9715
860.0,0.9727
861.0,0.9676
862.0,0.9825
863.0,1.006
864.0,0.9555
865.0,0.947
866.0,0.8515
867.0,0.8886
868.0,0.967
869.0,0.9469
870.0,0.9739
871.0,0.9607
872.0,0.9573
873.0,0.9554
874.0,0.9441
875.0,0.9251
876.0,0.9349
877.0,0.9442
878.0,0.9549
879.0,0.9401
880.0,0.92
881.0,0.9073
882.0,0.9273
883.0,0.9293
884.0,0.9254
885.0,0.9325
886.0,0.8923
887.0,0.8991
888.0,0.9143
889.0,0.9214
890.0,0.9176
891.0,0.9141
892.0,0.8924
893.0,0.8712
894.0,0.8521
895.0,0.8203
896.0,0.7815
897.0,0.694
898.0,0.7436
899.0,0.5949
900.0,0.7483
901.0,0.6211
902.0,0.692
903.0,0.7101
904.0,0.8462
905.0,0.8243
906.0,0.7776
907.0,0.6646
908.0,0.6738
909.0,0.7131
910.0,0.6594
911.0,0.6864
912.0,0.7098
913.0,0.6705
914.0,0.6602
915.0,0.7104
916.0,0.6131
917.0,0.7432
918.0,0.6288
919.0,0.7504
920.0,0.7453
921.0,0.77
922.0,0.7091
923.0,0.7432
924.0,0.7268
925.0,0.7123
926.0,0.7192
927.0,0.7856
928.0,0.6329
929.0,0.5933
930.0,0.4931
931.0,0.4621
932.0,0.3594
933.0,0.3084
934.0,0.2036
935.0,0.3022
936.0,0.21
937.0,0.2167
938.0,0.2573
939.0,0.4479
940.0,0.5205
941.0,0.4184
942.0,0.4668
943.0,0.3279
944.0,0.3283
945.0,0.4274
946.0,0.2461
947.0,0.436
948.0,0.3265
949.0,0.5544
950.0,0.2021
951.0,0.5414
952.0,0.3298
953.0,0.4006
954.0,0.4637
955.0,0.4018
956.0,0.3815
957.0,0.3344
958.0,0.4989
959.0,0.4246
960.0,0.474
961.0,0.5111
962.0,0.4872
963.0,0.5427
964.0,0.5041
965.0,0.538
966.0,0.543
967.0,0.5421
968.0,0.6665
969.0,0.6986
970.0,0.6513
971.0,0.7192
972.0,0.6931
973.0,0.6295
974.0,0.6023
975.0,0.6144
976.0,0.5967
977.0,0.6527
978.0,0.6311
979.0,0.652
980.0,0.6194
981.0,0.714
982.0,0.6918
983.0,0.67
984.0,0.7257
985.0,0.6888
986.0,0.7327
987.0,0.7242
988.0,0.7231
989.0,0.7269
990.0,0.718
991.0,0.7299
992.0,0.7334
993.0,0.7231
994.0,0.7326
995.0,0.7309
996.0,0.7286
997.0,0.7292
998.0,0.7262
999.0,0.7232
1000.0,0.7197
1001.0,0.727
1002.0,0.713
1003.0,0.7146
1004.0,0.6987
1005.0,0.671
1006.0,0.6983
1007.0,0.7125
1008.0,0.7098
1009.0,0.7072
1010.0,0.7049
1011.0,0.7088
1012.0,0.7039
1013.0,0.7068
1014.0,0.7019
1015.0,0.6975
1016.0,0.6945
1017.0,0.6965
1018.0,0.6931
1019.0,0.6806
1020.0,0.6899
1021.0,0.6885
1022.0,0.6841
1023.0,0.6915
1024.0,0.6849
1025.0,0.6902
1026.0,0.6879
1027.0,0.6862
1028.0,0.685
1029.0,0.6771
1030.0,0.6809
1031.0,0.6786
1032.0,0.6764
1033.0,0.6662
1034.0,0.6662
1035.0,0.6683
1036.0,0.672
1037.0,0.661
1038.0,0.6641
1039.0,0.6638
1040.0,0.6612
1041.0,0.6641
1042.0,0.6595
1043.0,0.6575
1044.0,0.66
1045.0,0.6512
1046.0,0.6441
1047.0,0.6501
1048.0,0.6539
1049.0,0.6517
1050.0,0.6489
1051.0,0.6482
1052.0,0.6458
1053.0,0.641
1054.0,0.6427
1055.0,0.6434
1056.0,0.6415
1057.0,0.6398
1058.0,0.6244
1059.0,0.6255
1060.0,0.6247
1061.0,0.6242
1062.0,0.6279
1063.0,0.622
1064.0,0.6292
1065.0,0.6255
1066.0,0.6125
1067.0,0.6207
1068.0,0.6078
1069.0,0.5885
1070.0,0.6092
1071.0,0.6166
1072.0,0.6111
1073.0,0.602
1074.0,0.6152
1075.0,0.5908
1076.0,0.6151
1077.0,0.6078
1078.0,0.5976
1079.0,0.6043
1080.0,0.5987
1081.0,0.5823
1082.0,0.5863
1083.0,0.5868
1084.0,0.583
1085.0,0.5993
1086.0,0.558
1087.0,0.5674
1088.0,0.5875
1089.0,0.5755
1090.0,0.5676
1091.0,0.5873
1092.0,0.5844
1093.0,0.5153
1094.0,0.5371
1095.0,0.5333
1096.0,0.5168
1097.0,0.5706
1098.0,0.5105
1099.0,0.5293
1100.0,0.5018
1101.0,0.5051
1102.0,0.4877
1103.0,0.4871
1104.0,0.4872
1105.0,0.5193
1106.0,0.4322
1107.0,0.5001
1108.0,0.4453
1109.0,0.4422
1110.0,0.498
1111.0,0.3677
1112.0,0.4371
1113.0,0.3104
1114.0,0.3421
1115.0,0.2847
1116.0,0.2482
1117.0,0.117
1118.0,0.2612
1119.0,0.1491
1120.0,0.187
1121.0,0.2352
1122.0,0.1163
1123.0,0.1686
1124.0,0.1426
1125.0,0.1814
1126.0,0.08086
1127.0,0.203
1128.0,0.1401
1129.0,0.1452
1130.0,0.1057
1131.0,0.3421
1132.0,0.2767
1133.0,0.1974
1134.0,0.06684
1135.0,0.02461
1136.0,0.1727
1137.0,0.3413
1138.0,0.2468
1139.0,0.3287
1140.0,0.2897
1141.0,0.2346
1142.0,0.261
1143.0,0.3541
1144.0,0.1457
1145.0,0.1895
1146.0,0.2046
1147.0,0.09119
1148.0,0.3068
1149.0,0.2578
1150.0,0.1568
1151.0,0.2453
1152.0,0.2871
1153.0,0.2692
1154.0,0.1891
1155.0,0.3434
1156.0,0.3166
1157.0,0.3456
1158.0,0.341
1159.0,0.3576
1160.0,0.319
1161.0,0.3705
1162.0,0.3738
1163.0,0.4688
1164.0,0.4156
1165.0,0.4036
1166.0,0.3935
1167.0,0.4216
1168.0,0.4284
1169.0,0.4337
1170.0,0.4615
1171.0,0.452
1172.0,0.4548
1173.0,0.4605
1174.0,0.3581
1175.0,0.4463
1176.0,0.4777
1177.0,0.4666
1178.0,0.3728
1179.0,0.4809
1180.0,0.4439
1181.0,0.4561
1182.0,0.3389
1183.0,0.4458
1184.0,0.4258
1185.0,0.4173
1186.0,0.4726
1187.0,0.4568
1188.0,0.3459
1189.0,0.4275
1190.0,0.4621
1191.0,0.4495
1192.0,0.4672
1193.0,0.4519
1194.0,0.4628
1195.0,0.4453
1196.0,0.4341
1197.0,0.4585
1198.0,0.4264
1199.0,0.3809
1200.0,0.4469
1201.0,0.437
1202.0,0.4314
1203.0,0.4274
1204.0,0.385
1205.0,0.4361
1206.0,0.4712
1207.0,0.4318
1208.0,0.4197
1209.0,0.427
1210.0,0.4407
1211.0,0.4267
1212.0,0.4285
1213.0,0.4593
1214.0,0.435
1215.0,0.4288
1216.0,0.4576
1217.0,0.449
1218.0,0.4542
1219.0,0.4501
1220.0,0.4542
1221.0,0.4568
1222.0,0.4473
1223.0,0.4444
1224.0,0.4439
1225.0,0.454
1226.0,0.455
1227.0,0.4285
1228.0,0.4556
1229.0,0.455
1230.0,0.4489
1231.0,0.4563
1232.0,0.4538
1233.0,0.4448
1234.0,0.4546
1235.0,0.4526
1236.0,0.4552
1237.0,0.4514
1238.0,0.4536
1239.0,0.4479
1240.0,0.4492
1241.0,0.4488
1242.0,0.4463
1243.0,0.4426
1244.0,0.4463
1245.0,0.4479
1246.0,0.4452
1247.0,0.4439
1248.0,0.4445
1249.0,0.4451
1250.0,0.4429
1251.0,0.4382
1252.0,0.437
1253.0,0.4358
1254.0,0.4332
1255.0,0.4372
1256.0,0.4292
1257.0,0.4277
1258.0,0.4323
1259.0,0.4233
1260.0,0.4247
1261.0,0.4093
1262.0,0.4015
1263.0,0.4025
1264.0,0.3822
1265.0,0.3998
1266.0,0.3909
1267.0,0.3935
1268.0,0.3801
1269.0,0.2866
1270.0,0.3937
1271.0,0.4069
1272.0,0.4072
1273.0,0.4039
1274.0,0.4039
1275.0,0.4082
1276.0,0.4105
1277.0,0.4114
1278.0,0.4157
1279.0,0.4123
1280.0,0.4069
1281.0,0.3867
1282.0,0.37
1283.0,0.3991
1284.0,0.4092
1285.0,0.4115
1286.0,0.4156
1287.0,0.4118
1288.0,0.4111
1289.0,0.4032
1290.0,0.407
1291.0,0.4118
1292.0,0.3968
1293.0,0.4063
1294.0,0.404
1295.0,0.4043
1296.0,0.3925
1297.0,0.3768
1298.0,0.3951
1299.0,0.4058
1300.0,0.3622
1301.0,0.3693
1302.0,0.3933
1303.0,0.3555
1304.0,0.3211
1305.0,0.3869
1306.0,0.3878
1307.0,0.322
1308.0,0.3534
1309.0,0.3859
1310.0,0.3166
1311.0,0.3428
1312.0,0.3363
1313.0,0.3325
1314.0,0.3043
1315.0,0.3042
1316.0,0.3401
1317.0,0.3243
1318.0,0.3451
1319.0,0.2917
1320.0,0.2779
1321.0,0.3159
1322.0,0.3219
1323.0,0.261
1324.0,0.286
1325.0,0.3361
1326.0,0.3003
1327.0,0.2894
1328.0,0.2557
1329.0,0.208
1330.0,0.262
1331.0,0.1793
1332.0,0.1778
1333.0,0.2407
1334.0,0.1973
1335.0,0.2593
1336.0,0.2151
1337.0,0.1975
1338.0,0.2118
1339.0,0.2085
1340.0,0.198
1341.0,0.2043
1342.0,0.214
1343.0,0.1714
1344.0,0.1034
1345.0,0.1438
1346.0,0.0917
1347.0,0.09638
1348.0,0.01221
1349.0,0.03543
1350.0,0.0318
1351.0,0.0138
1352.0,0.006391
1353.0,0.0006858
1354.0,0.001548
1355.0,4.997e-05
1356.0,0.0003612
1357.0,0.0005313
1358.0,5.603e-05
1359.0,1.85e-05
1360.0,3.623e-05
1361.0,3.55e-07
1362.0,2.836e-09
1363.0,5.684e-05
1364.0,2.839e-05
1365.0,2.871e-09
1366.0,0.0001884
1367.0,7.432e-05
1368.0,1.991e-10
1369.0,1.171e-05
1370.0,8.591e-06
1371.0,8.839e-07
1372.0,4.208e-05
1373.0,0.000406
1374.0,0.001172
1375.0,0.001996
1376.0,0.001367
1377.0,0.0007115
1378.0,0.005094
1379.0,0.0003148
1380.0,0.0005731
1381.0,2.236e-05
1382.0,4.223e-05
1383.0,1.071e-06
1384.0,1.519e-05
1385.0,2.645e-05
1386.0,4.855e-05
1387.0,0.001468
1388.0,3.71e-05
1389.0,0.003149
1390.0,0.002641
1391.0,0.002045
1392.0,0.0001746
1393.0,0.0006892
1394.0,0.0006942
1395.0,1.043e-05
1396.0,3.912e-07
1397.0,0.0003371
1398.0,0.005819
1399.0,0.003778
1400.0,2.843e-07
1401.0,5.729e-07
1402.0,0.005961
1403.0,0.00819
1404.0,0.002642
1405.0,7.221e-06
1406.0,0.007877
1407.0,0.0007099
1408.0,0.006342
1409.0,0.002972
1410.0,0.002102
1411.0,0.007107
1412.0,0.008172
1413.0,0.04765
1414.0,0.001613
1415.0,0.0009275
1416.0,0.0608
1417.0,0.02614
1418.0,0.0291
1419.0,0.00503
1420.0,0.01825
1421.0,0.02105
1422.0,0.07637
1423.0,0.0173
1424.0,0.03044
1425.0,0.0464
1426.0,0.047
1427.0,0.07251
1428.0,0.01194
1429.0,0.05978
1430.0,0.08854
1431.0,0.09389
1432.0,0.009713
1433.0,0.06495
1434.0,0.03579
1435.0,0.04464
1436.0,0.07108
1437.0,0.05513
1438.0,0.02764
1439.0,0.0899
1440.0,0.06878
1441.0,0.059
1442.0,0.063
1443.0,0.0693
1444.0,0.09296
1445.0,0.07992
1446.0,0.03831
1447.0,0.06104
1448.0,0.1491
1449.0,0.1373
1450.0,0.04531
1451.0,0.02069
1452.0,0.08967
1453.0,0.1127
1454.0,0.1687
1455.0,0.08911
1456.0,0.1237
1457.0,0.1503
1458.0,0.1633
1459.0,0.195
1460.0,0.1098
1461.0,0.1202
1462.0,0.1642
1463.0,0.06259
1464.0,0.1831
1465.0,0.1127
1466.0,0.09362
1467.0,0.05747
1468.0,0.1061
1469.0,0.1256
1470.0,0.07462
1471.0,0.0305
1472.0,0.07191
