interpolation:linear
wavelength,value
280.0,7.074999999999999e-22
280.5,1.7340000000000002e-20
281.0,8.506000000000001e-20
281.5,2.042e-18
282.0,1.386e-17
282.5,4.777e-17
283.0,1.873e-16
283.5,3.328e-16
284.0,6.41e-15
284.5,1.935e-14
285.0,3.926e-14
285.5,2.545e-13
286.0,1.114e-12
286.5,5.545e-12
287.0,1.679e-11
287.5,6.701e-11
288.0,2.534e-10
288.5,9.164e-10
289.0,2.786e-09
289.5,9.307e-09
290.0,2.763e-08
290.5,5.931e-08
291.0,1.331e-07
291.5,3.953e-07
292.0,9.22e-07
292.5,1.324e-06
293.0,2.89e-06
293.5,7.092e-06
294.0,1.126e-05
294.5,1.904e-05
295.0,3.184e-05
295.5,7.229e-05
296.0,0.0001245
296.5,0.0001555
297.0,0.0001919
297.5,0.0004479
298.0,0.0006279
298.5,0.0005774
299.0,0.001167
299.5,0.001656
300.0,0.001676
300.5,0.002227
301.0,0.0035
301.5,0.004922
302.0,0.003967
302.5,0.007277
303.0,0.01204
303.5,0.01442
304.0,0.0131
304.5,0.01776
305.0,0.02354
305.5,0.02485
306.0,0.02339
306.5,0.02771
307.0,0.03667
307.5,0.04377
308.0,0.04563
308.5,0.05129
309.0,0.04521
309.5,0.04899
310.0,0.04805
310.5,0.07709
311.0,0.09484
311.5,0.09098
312.0,0.08639
312.5,0.1016
313.0,0.1085
313.5,0.1079
314.0,0.1293
314.5,0.108
315.0,0.1409
315.5,0.1222
316.0,0.1017
316.5,0.14
317.0,0.1748
317.5,0.1851
318.0,0.1404
318.5,0.1646
319.0,0.1901
319.5,0.1636
320.0,0.1999
320.5,0.2358
321.0,0.1991
321.5,0.1905
322.0,0.2168
322.5,0.1887
323.0,0.1812
323.5,0.2087
324.0,0.2428
324.5,0.2522
325.0,0.2299
325.5,0.2872
326.0,0.3382
326.5,0.3316
327.0,0.3347
327.5,0.3283
328.0,0.3032
328.5,0.3073
329.0,0.358
329.5,0.4041
330.0,0.4122
330.5,0.339
331.0,0.3494
331.5,0.3501
332.0,0.3699
332.5,0.3629
333.0,0.3656
333.5,0.3384
334.0,0.3489
334.5,0.3953
335.0,0.3682
335.5,0.4183
336.0,0.2902
336.5,0.3539
337.0,0.2938
337.5,0.3678
338.0,0.3541
338.5,0.3999
339.0,0.3991
339.5,0.3835
340.0,0.4627
340.5,0.4176
341.0,0.4008
341.5,0.3722
342.0,0.4469
342.5,0.42
343.0,0.4613
343.5,0.4343
344.0,0.3265
344.5,0.3234
345.0,0.4336
345.5,0.4453
346.0,0.3802
346.5,0.4321
347.0,0.4637
347.5,0.3754
348.0,0.4308
348.5,0.4326
349.0,0.4025
349.5,0.3993
350.0,0.4952
350.5,0.5237
351.0,0.4684
351.5,0.4542
352.0,0.4906
352.5,0.3845
353.0,0.4859
353.5,0.5212
354.0,0.5427
354.5,0.5518
355.0,0.5511
355.5,0.499
356.0,0.5235
356.5,0.4481
357.0,0.3712
357.5,0.4557
358.0,0.362
358.5,0.3101
359.0,0.4348
359.5,0.5551
360.0,0.59
360.5,0.4727
361.0,0.4319
361.5,0.4981
362.0,0.4314
362.5,0.5981
363.0,0.5381
363.5,0.4965
364.0,0.6083
364.5,0.521
365.0,0.5317
365.5,0.6687
366.0,0.7097
366.5,0.668
367.0,0.6519
367.5,0.6779
368.0,0.5943
368.5,0.6008
369.0,0.65
369.5,0.6941
370.0,0.7413
370.5,0.5764
371.0,0.617
371.5,0.7734
372.0,0.5144
372.5,0.6179
373.0,0.6295
373.5,0.4103
374.0,0.5972
374.5,0.4954
375.0,0.4824
375.5,0.7217
376.0,0.5994
376.5,0.6223
377.0,0.6599
377.5,0.7733
378.0,0.8399
378.5,0.7955
379.0,0.6578
379.5,0.6022
380.0,0.6273
380.5,0.761
381.0,0.7638
381.5,0.6063
382.0,0.5393
382.5,0.4603
383.0,0.4268
383.5,0.4117
384.0,0.4549
384.5,0.6701
385.0,0.6655
385.5,0.6207
386.0,0.5324
386.5,0.7003
387.0,0.5829
387.5,0.6558
388.0,0.6064
388.5,0.6003
389.0,0.649
389.5,0.7873
390.0,0.7913
390.5,0.7293
391.0,0.8597
391.5,0.8782
392.0,0.7408
392.5,0.6641
393.0,0.37
393.5,0.2693
394.0,0.5488
394.5,0.6986
395.0,0.8536
395.5,0.8685
396.0,0.754
396.5,0.4413
397.0,0.3316
397.5,0.6753
398.0,0.9472
398.5,0.9804
399.0,1.062
399.5,1.06
400.0,1.103
401.0,1.135
402.0,1.2
403.0,1.143
404.0,1.128
405.0,1.13
406.0,1.114
407.0,1.098
408.0,1.144
409.0,1.227
410.0,1.074
411.0,1.166
412.0,1.254
413.0,1.226
414.0,1.243
415.0,1.248
416.0,1.272
417.0,1.244
418.0,1.223
419.0,1.241
420.0,1.238
421.0,1.298
422.0,1.236
423.0,1.21
424.0,1.282
425.0,1.282
426.0,1.25
427.0,1.229
428.0,1.199
429.0,1.137
430.0,0.9963
431.0,0.9897
432.0,1.279
433.0,1.288
434.0,1.199
435.0,1.254
436.0,1.414
437.0,1.396
438.0,1.273
439.0,1.32
440.0,1.363
441.0,1.414
442.0,1.519
443.0,1.483
444.0,1.516
445.0,1.486
446.0,1.419
447.0,1.535
448.0,1.563
449.0,1.57
450.0,1.615
451.0,1.677
452.0,1.618
453.0,1.524
454.0,1.592
455.0,1.604
456.0,1.644
457.0,1.673
458.0,1.619
459.0,1.613
460.0,1.619
461.0,1.659
462.0,1.672
463.0,1.663
464.0,1.636
465.0,1.616
466.0,1.633
467.0,1.606
468.0,1.627
469.0,1.637
470.0,1.587
471.0,1.586
472.0,1.674
473.0,1.654
474.0,1.66
475.0,1.677
476.0,1.63
477.0,1.638
478.0,1.684
479.0,1.675
480.0,1.679
481.0,1.711
482.0,1.72
483.0,1.7
484.0,1.666
485.0,1.588
486.0,1.389
487.0,1.456
488.0,1.599
489.0,1.606
490.0,1.691
491.0,1.662
492.0,1.571
493.0,1.624
494.0,1.642
495.0,1.657
496.0,1.669
497.0,1.696
498.0,1.618
499.0,1.641
500.0,1.595
501.0,1.568
502.0,1.549
503.0,1.616
504.0,1.582
505.0,1.635
506.0,1.689
507.0,1.609
508.0,1.558
509.0,1.602
510.0,1.593
511.0,1.636
512.0,1.655
513.0,1.567
514.0,1.557
515.0,1.542
516.0,1.54
517.0,1.369
518.0,1.44
519.0,1.512
520.0,1.568
521.0,1.585
522.0,1.588
523.0,1.56
524.0,1.618
525.0,1.64
526.0,1.568
527.0,1.479
528.0,1.567
529.0,1.653
530.0,1.631
531.0,1.656
532.0,1.601
533.0,1.555
534.0,1.601
535.0,1.636
536.0,1.652
537.0,1.587
538.0,1.616
539.0,1.603
540.0,1.538
541.0,1.551
542.0,1.601
543.0,1.584
544.0,1.614
545.0,1.609
546.0,1.618
547.0,1.617
548.0,1.598
549.0,1.604
550.0,1.623
551.0,1.604
552.0,1.616
553.0,1.589
554.0,1.628
555.0,1.632
556.0,1.612
557.0,1.563
558.0,1.553
559.0,1.526
560.0,1.546
561.0,1.568
562.0,1.558
563.0,1.603
564.0,1.561
565.0,1.549
566.0,1.527
567.0,1.558
568.0,1.548
569.0,1.517
570.0,1.517
571.0,1.507
572.0,1.548
573.0,1.565
574.0,1.562
575.0,1.535
576.0,1.521
577.0,1.538
578.0,1.514
579.0,1.518
580.0,1.543
581.0,1.549
582.0,1.576
583.0,1.579
584.0,1.591
585.0,1.552
586.0,1.521
587.0,1.557
588.0,1.527
589.0,1.367
590.0,1.429
591.0,1.504
592.0,1.491
593.0,1.507
594.0,1.5
595.0,1.468
596.0,1.515
597.0,1.502
598.0,1.495
599.0,1.496
600.0,1.496
601.0,1.482
602.0,1.472
603.0,1.496
604.0,1.52
605.0,1.512
606.0,1.506
607.0,1.52
608.0,1.502
609.0,1.505
610.0,1.493
611.0,1.501
612.0,1.496
613.0,1.477
614.0,1.457
615.0,1.488
616.0,1.439
617.0,1.436
618.0,1.491
619.0,1.476
620.0,1.486
621.0,1.488
622.0,1.473
623.0,1.451
624.0,1.426
625.0,1.423
626.0,1.445
627.0,1.464
628.0,1.397
629.0,1.44
630.0,1.409
631.0,1.431
632.0,1.412
633.0,1.451
634.0,1.434
635.0,1.456
636.0,1.435
637.0,1.458
638.0,1.47
639.0,1.453
640.0,1.437
641.0,1.436
642.0,1.429
643.0,1.448
644.0,1.443
645.0,1.446
646.0,1.416
647.0,1.408
648.0,1.411
649.0,1.384
650.0,1.381
651.0,1.439
652.0,1.391
653.0,1.42
654.0,1.404
655.0,1.357
656.0,1.199
657.0,1.231
658.0,1.377
659.0,1.386
660.0,1.391
661.0,1.401
662.0,1.406
663.0,1.378
664.0,1.392
665.0,1.391
666.0,1.391
667.0,1.389
668.0,1.389
669.0,1.41
670.0,1.404
671.0,1.403
672.0,1.391
673.0,1.412
674.0,1.407
675.0,1.394
676.0,1.403
677.0,1.389
678.0,1.393
679.0,1.37
680.0,1.381
681.0,1.372
682.0,1.371
683.0,1.368
684.0,1.362
685.0,1.373
686.0,1.366
687.0,1.038
688.0,1.153
689.0,1.155
690.0,1.19
691.0,1.23
692.0,1.256
693.0,1.248
694.0,1.239
695.0,1.275
696.0,1.277
697.0,1.335
698.0,1.315
699.0,1.297
700.0,1.281
701.0,1.273
702.0,1.277
703.0,1.279
704.0,1.313
705.0,1.315
706.0,1.311
707.0,1.311
708.0,1.314
709.0,1.312
710.0,1.314
711.0,1.311
712.0,1.305
713.0,1.294
714.0,1.299
715.0,1.263
716.0,1.265
717.0,1.146
718.0,1.062
719.0,0.9794
720.0,1.029
721.0,1.105
722.0,1.23
723.0,1.163
724.0,1.068
725.0,1.058
726.0,1.103
727.0,1.109
728.0,1.058
729.0,1.08
730.0,1.141
731.0,1.098
732.0,1.156
733.0,1.206
734.0,1.23
735.0,1.207
736.0,1.206
737.0,1.211
738.0,1.219
739.0,1.195
740.0,1.223
741.0,1.209
742.0,1.208
743.0,1.238
744.0,1.234
745.0,1.233
746.0,1.239
747.0,1.242
748.0,1.239
749.0,1.225
750.0,1.224
751.0,1.212
752.0,1.217
753.0,1.223
754.0,1.226
755.0,1.22
756.0,1.219
757.0,1.221
758.0,1.206
759.0,1.188
760.0,0.3482
761.0,0.2232
762.0,0.7463
763.0,0.4659
764.0,0.6157
765.0,0.7472
766.0,0.8491
767.0,1.007
768.0,1.112
769.0,1.125
770.0,1.151
771.0,1.155
772.0,1.156
773.0,1.164
774.0,1.158
775.0,1.149
776.0,1.163
777.0,1.148
778.0,1.141
779.0,1.142
780.0,1.136
781.0,1.137
782.0,1.144
783.0,1.124
784.0,1.129
785.0,1.122
786.0,1.134
787.0,1.12
788.0,1.108
789.0,1.109
790.0,1.087
791.0,1.089
792.0,1.08
793.0,1.064
794.0,1.074
795.0,1.095
796.0,1.071
797.0,1.073
798.0,1.095
799.0,1.09
800.0,1.073
801.0,1.072
802.0,1.069
803.0,1.062
804.0,1.063
805.0,1.057
806.0,1.082
807.0,1.07
808.0,1.07
809.0,1.054
810.0,1.048
811.0,1.054
812.0,1.031
813.0,1.015
814.0,0.9178
815.0,0.9116
816.0,0.8528
817.0,0.865
818.0,0.8383
819.0,0.915
820.0,0.8707
821.0,0.9877
822.0,0.9647
823.0,0.7053
824.0,0.9467
825.0,0.9727
826.0,0.9448
827.0,0.9874
828.0,0.8643
829.0,0.9374
830.0,0.9282
831.0,0.9304
832.0,0.907
833.0,0.9505
834.0,0.9259
835.0,0.9982
836.0,0.9673
837.0,1.0
838.0,0.9744
839.0,0.9844
840.0,1.005
841.0,0.9928
842.0,0.9916
843.0,0.9876
844.0,0.9759
845.0,1.006
846.0,1.001
847.0,0.9818
848.0,0.9773
849.0,0.9496
850.0,0.9096
851.0,0.9648
852.0,0.9574
853.0,0.9203
854.0,0.7958
855.0,0.8728
856.0,0.9545
857.0,0.9748
858.0,0.9682
859.0,0.9684
860.0,0.9698
861.0,0.9647
862.0,0.9797
863.0,1.003
864.0,0.9527
865.0,0.9443
866.0,0.8491
867.0,0.8862
868.0,0.9643
869.0,0.9443
870.0,0.9712
871.0,0.9581
872.0,0.9547
873.0,0.9528
874.0,0.9415
875.0,0.9226
876.0,0.9323
877.0,0.9417
878.0,0.9523
879.0,0.9376
880.0,0.9176
881.0,0.9046
882.0,0.9244
883.0,0.9267
884.0,0.9228
885.0,0.9298
886.0,0.8888
887.0,0.8963
888.0,0.9109
889.0,0.919
890.0,0.9141
891.0,0.9112
892.0,0.8884
893.0,0.8653
894.0,0.8434
895.0,0.808
896.0,0.7669
897.0,0.6746
898.0,0.7268
899.0,0.5727
900.0,0.7349
901.0,0.5991
902.0,0.6774
903.0,0.6922
904.0,0.8376
905.0,0.8138
906.0,0.7659
907.0,0.6454
908.0,0.6552
909.0,0.6983
910.0,0.6376
911.0,0.6679
912.0,0.6931
913.0,0.648
914.0,0.6392
915.0,0.6901
916.0,0.5914
917.0,0.7272
918.0,0.6067
919.0,0.7357
920.0,0.7337
921.0,0.7601
922.0,0.6939
923.0,0.7337
924.0,0.7117
925.0,0.6969
926.0,0.7042
927.0,0.7747
928.0,0.6078
929.0,0.5656
930.0,0.4623
931.0,0.4348
932.0,0.3311
933.0,0.2796
934.0,0.1754
935.0,0.2775
936.0,0.187
937.0,0.1917
938.0,0.23
939.0,0.4215
940.0,0.4947
941.0,0.3905
942.0,0.4407
943.0,0.3036
944.0,0.3081
945.0,0.3998
946.0,0.2222
947.0,0.4062
948.0,0.302
949.0,0.5249
950.0,0.1763
951.0,0.5137
952.0,0.3012
953.0,0.3725
954.0,0.4388
955.0,0.3747
956.0,0.3568
957.0,0.3042
958.0,0.4791
959.0,0.3994
960.0,0.4468
961.0,0.4874
962.0,0.4633
963.0,0.5215
964.0,0.4822
965.0,0.518
966.0,0.5213
967.0,0.5201
968.0,0.6558
969.0,0.6873
970.0,0.6375
971.0,0.7116
972.0,0.6842
973.0,0.6138
974.0,0.5857
975.0,0.6006
976.0,0.5797
977.0,0.6412
978.0,0.6169
979.0,0.64
980.0,0.6059
981.0,0.7069
982.0,0.6823
983.0,0.6591
984.0,0.7214
985.0,0.6796
986.0,0.7299
987.0,0.72
988.0,0.7188
989.0,0.7252
990.0,0.714
991.0,0.7279
992.0,0.7317
993.0,0.7198
994.0,0.731
995.0,0.7295
996.0,0.727
997.0,0.7277
998.0,0.7246
999.0,0.7218
1000.0,0.7178
1001.0,0.7256
1002.0,0.7099
1003.0,0.7131
1004.0,0.6968
1005.0,0.6697
1006.0,0.6967
1007.0,0.7111
1008.0,0.708
1009.0,0.7051
1010.0,0.7026
1011.0,0.7075
1012.0,0.7022
1013.0,0.7055
1014.0,0.7006
1015.0,0.6961
1016.0,0.6931
1017.0,0.6951
1018.0,0.692
1019.0,0.6788
1020.0,0.6886
1021.0,0.6874
1022.0,0.6827
1023.0,0.6901
1024.0,0.6828
1025.0,0.689
1026.0,0.6865
1027.0,0.6849
1028.0,0.6836
1029.0,0.6757
1030.0,0.6798
1031.0,0.6773
1032.0,0.6752
1033.0,0.665
1034.0,0.665
1035.0,0.6671
1036.0,0.6708
1037.0,0.6598
1038.0,0.6628
1039.0,0.6626
1040.0,0.66
1041.0,0.6628
1042.0,0.6582
1043.0,0.6562
1044.0,0.6586
1045.0,0.6498
1046.0,0.6427
1047.0,0.6486
1048.0,0.6523
1049.0,0.6501
1050.0,0.6473
1051.0,0.6466
1052.0,0.6441
1053.0,0.6392
1054.0,0.6408
1055.0,0.6414
1056.0,0.6395
1057.0,0.6377
1058.0,0.6223
1059.0,0.6232
1060.0,0.6224
1061.0,0.6218
1062.0,0.6254
1063.0,0.6194
1064.0,0.6267
1065.0,0.6228
1066.0,0.61
1067.0,0.6181
1068.0,0.6051
1069.0,0.586
1070.0,0.6064
1071.0,0.6144
1072.0,0.6084
1073.0,0.5994
1074.0,0.6133
1075.0,0.5872
1076.0,0.6131
1077.0,0.6048
1078.0,0.5943
1079.0,0.6026
1080.0,0.5956
1081.0,0.5786
1082.0,0.584
1083.0,0.5849
1084.0,0.5786
1085.0,0.5965
1086.0,0.552
1087.0,0.5639
1088.0,0.5852
1089.0,0.5716
1090.0,0.5623
1091.0,0.5845
1092.0,0.582
1093.0,0.5073
1094.0,0.5342
1095.0,0.5263
1096.0,0.5082
1097.0,0.5684
1098.0,0.5016
1099.0,0.521
1100.0,0.4908
1101.0,0.495
1102.0,0.4765
1103.0,0.4747
1104.0,0.475
1105.0,0.5105
1106.0,0.4146
1107.0,0.4896
1108.0,0.4296
1109.0,0.4276
1110.0,0.487
1111.0,0.3504
1112.0,0.4232
1113.0,0.2907
1114.0,0.322
1115.0,0.2677
1116.0,0.2272
1117.0,0.0995
1118.0,0.2418
1119.0,0.1323
1120.0,0.1665
1121.0,0.213
1122.0,0.1005
1123.0,0.1502
1124.0,0.1269
1125.0,0.1626
1126.0,0.06764
1127.0,0.1824
1128.0,0.1209
1129.0,0.1262
1130.0,0.08888
1131.0,0.3189
1132.0,0.2553
1133.0,0.176
1134.0,0.05473
1135.0,0.02014
1136.0,0.152
1137.0,0.317
1138.0,0.227
1139.0,0.3125
1140.0,0.2711
1141.0,0.2157
1142.0,0.2424
1143.0,0.3334
1144.0,0.1304
1145.0,0.1693
1146.0,0.1828
1147.0,0.07608
1148.0,0.2889
1149.0,0.2389
1150.0,0.1399
1151.0,0.2255
1152.0,0.2679
1153.0,0.2541
1154.0,0.167
1155.0,0.3264
1156.0,0.2989
1157.0,0.3285
1158.0,0.3245
1159.0,0.3433
1160.0,0.3018
1161.0,0.3569
1162.0,0.3597
1163.0,0.4613
1164.0,0.4048
1165.0,0.3901
1166.0,0.3819
1167.0,0.4113
1168.0,0.4175
1169.0,0.4241
1170.0,0.454
1171.0,0.4439
1172.0,0.448
1173.0,0.453
1174.0,0.3435
1175.0,0.4398
1176.0,0.4743
1177.0,0.4611
1178.0,0.3616
1179.0,0.4777
1180.0,0.4367
1181.0,0.4495
1182.0,0.3267
1183.0,0.4403
1184.0,0.4181
1185.0,0.408
1186.0,0.4681
1187.0,0.4507
1188.0,0.3334
1189.0,0.4211
1190.0,0.4575
1191.0,0.4424
1192.0,0.463
1193.0,0.4467
1194.0,0.4583
1195.0,0.4391
1196.0,0.4265
1197.0,0.4554
1198.0,0.4213
1199.0,0.3714
1200.0,0.4416
1201.0,0.4302
1202.0,0.4253
1203.0,0.4218
1204.0,0.3765
1205.0,0.4314
1206.0,0.4691
1207.0,0.4254
1208.0,0.4149
1209.0,0.4224
1210.0,0.4371
1211.0,0.4214
1212.0,0.4216
1213.0,0.4564
1214.0,0.429
1215.0,0.4222
1216.0,0.4547
1217.0,0.4452
1218.0,0.4513
1219.0,0.4468
1220.0,0.4514
1221.0,0.4545
1222.0,0.4443
1223.0,0.4411
1224.0,0.4402
1225.0,0.4517
1226.0,0.4532
1227.0,0.4245
1228.0,0.4542
1229.0,0.4532
1230.0,0.4467
1231.0,0.4555
1232.0,0.4529
1233.0,0.4423
1234.0,0.454
1235.0,0.4519
1236.0,0.4546
1237.0,0.4502
1238.0,0.4531
1239.0,0.4473
1240.0,0.4488
1241.0,0.4479
1242.0,0.4458
1243.0,0.4421
1244.0,0.4457
1245.0,0.4473
1246.0,0.4447
1247.0,0.4433
1248.0,0.4436
1249.0,0.4445
1250.0,0.4421
1251.0,0.4372
1252.0,0.4363
1253.0,0.4346
1254.0,0.4315
1255.0,0.4364
1256.0,0.4273
1257.0,0.4256
1258.0,0.431
1259.0,0.4204
1260.0,0.422
1261.0,0.4046
1262.0,0.3958
1263.0,0.3967
1264.0,0.3741
1265.0,0.3941
1266.0,0.3838
1267.0,0.3874
1268.0,0.3725
1269.0,0.2675
1270.0,0.3872
1271.0,0.4025
1272.0,0.4031
1273.0,0.3995
1274.0,0.3999
1275.0,0.4045
1276.0,0.4071
1277.0,0.4085
1278.0,0.4137
1279.0,0.4102
1280.0,0.4048
1281.0,0.3852
1282.0,0.3692
1283.0,0.398
1284.0,0.408
1285.0,0.4103
1286.0,0.4148
1287.0,0.4104
1288.0,0.4098
1289.0,0.4007
1290.0,0.4059
1291.0,0.4109
1292.0,0.3934
1293.0,0.4047
1294.0,0.4023
1295.0,0.4021
1296.0,0.3887
1297.0,0.3717
1298.0,0.3923
1299.0,0.4045
1300.0,0.3559
1301.0,0.364
1302.0,0.3908
1303.0,0.3498
1304.0,0.3112
1305.0,0.3839
1306.0,0.3846
1307.0,0.3135
1308.0,0.3484
1309.0,0.3826
1310.0,0.3081
1311.0,0.3369
1312.0,0.3298
1313.0,0.3254
1314.0,0.296
1315.0,0.295
1316.0,0.3336
1317.0,0.3175
1318.0,0.3398
1319.0,0.2811
1320.0,0.269
1321.0,0.308
1322.0,0.3132
1323.0,0.2487
1324.0,0.2757
1325.0,0.3295
1326.0,0.2911
1327.0,0.2797
1328.0,0.2454
1329.0,0.1954
1330.0,0.2485
1331.0,0.1642
1332.0,0.1646
1333.0,0.225
1334.0,0.1854
1335.0,0.2475
1336.0,0.2026
1337.0,0.1837
1338.0,0.1979
1339.0,0.1953
1340.0,0.1866
1341.0,0.19
1342.0,0.199
1343.0,0.1525
1344.0,0.09122
1345.0,0.1289
1346.0,0.07686
1347.0,0.08024
1348.0,0.008377
1349.0,0.02598
1350.0,0.02436
1351.0,0.008989
1352.0,0.003651
1353.0,0.0003142
1354.0,0.0007944
1355.0,1.75e-05
1356.0,0.0001611
1357.0,0.0002403
1358.0,1.991e-05
1359.0,5.135e-06
1360.0,1.177e-05
1361.0,6.407e-08
1362.0,3.707e-10
1363.0,1.839e-05
1364.0,8.488e-06
1365.0,2.9e-10
1366.0,6.58e-05
1367.0,2.542e-05
1368.0,1.146e-11
1369.0,3.377e-06
1370.0,2.242e-06
1371.0,1.936e-07
1372.0,1.418e-05
1373.0,0.0001689
1374.0,0.0005553
1375.0,0.0009811
1376.0,0.0007041
1377.0,0.0003523
1378.0,0.002808
1379.0,0.0001525
1380.0,0.0002639
1381.0,8.998e-06
1382.0,1.387e-05
1383.0,2.959e-07
1384.0,4.256e-06
1385.0,9.555e-06
1386.0,1.504e-05
1387.0,0.000675
1388.0,1.515e-05
1389.0,0.001618
1390.0,0.001376
1391.0,0.001013
1392.0,7.833e-05
1393.0,0.0003381
1394.0,0.0002904
1395.0,3.463e-06
1396.0,7.549e-08
1397.0,0.0001559
1398.0,0.00322
1399.0,0.00206
1400.0,4.821e-08
1401.0,1.169e-07
1402.0,0.003731
1403.0,0.005039
1404.0,0.001596
1405.0,2.189e-06
1406.0,0.004664
1407.0,0.000403
1408.0,0.003755
1409.0,0.001617
1410.0,0.001155
1411.0,0.004379
1412.0,0.005247
1413.0,0.03631
1414.0,0.0008896
1415.0,0.0004859
1416.0,0.04929
1417.0,0.019
1418.0,0.02159
1419.0,0.00359
1420.0,0.01342
1421.0,0.01499
1422.0,0.06292
1423.0,0.01342
1424.0,0.02415
1425.0,0.03662
1426.0,0.03826
1427.0,0.06244
1428.0,0.008121
1429.0,0.05
1430.0,0.07719
1431.0,0.08276
1432.0,0.006533
1433.0,0.05564
1434.0,0.02984
1435.0,0.03498
1436.0,0.05905
1437.0,0.04545
1438.0,0.0216
1439.0,0.07653
1440.0,0.05797
1441.0,0.04802
1442.0,0.05214
1443.0,0.05969
1444.0,0.08053
1445.0,0.06746
1446.0,0.03176
1447.0,0.05015
1448.0,0.136
1449.0,0.1227
1450.0,0.03712
1451.0,0.01622
1452.0,0.07814
1453.0,0.09977
1454.0,0.1559
1455.0,0.07933
1456.0,0.109
1457.0,0.1368
1458.0,0.1526
1459.0,0.1818
1460.0,0.09956
1461.0,0.1076
1462.0,0.1503
1463.0,0.05403
1464.0,0.1709
1465.0,0.1045
1466.0,0.08176
1467.0,0.04764
