interpolation:linear
wavelength,value
280.0,4.7250000000000004e-26
280.5,2.133e-24
281.0,1.309e-23
281.5,5.673e-22
282.0,5.517e-21
282.5,2.422e-20
283.0,1.239e-19
283.5,2.515e-19
284.0,8.974e-18
284.5,3.589e-17
285.0,9.867e-17
285.5,9.151e-16
286.0,4.631e-15
286.5,3.104e-14
287.0,1.171e-13
287.5,6.231e-13
288.0,3.387e-12
288.5,1.485e-11
289.0,5.509e-11
289.5,2.29e-10
290.0,8.131e-10
290.5,2.027e-09
291.0,5.448e-09
291.5,2.035e-08
292.0,5.722e-08
292.5,9.127e-08
293.0,2.28e-07
293.5,6.724e-07
294.0,1.209e-06
294.5,2.245e-06
295.0,4.223e-06
295.5,1.109e-05
296.0,2.11e-05
296.5,2.897e-05
297.0,3.855e-05
297.5,9.993e-05
298.0,0.0001525
298.5,0.0001494
299.0,0.0003201
299.5,0.0004992
300.0,0.0005308
300.5,0.0007399
301.0,0.001247
301.5,0.001855
302.0,0.001537
302.5,0.002959
303.0,0.005195
303.5,0.006436
304.0,0.005947
304.5,0.008388
305.0,0.0117
305.5,0.01273
306.0,0.01214
306.5,0.01466
307.0,0.02016
307.5,0.02491
308.0,0.02615
308.5,0.0299
309.0,0.02671
309.5,0.03
310.0,0.02992
310.5,0.04843
311.0,0.06039
311.5,0.05833
312.0,0.05683
312.5,0.06799
313.0,0.07328
313.5,0.07249
314.0,0.0885
314.5,0.07568
315.0,0.09929
315.5,0.08537
316.0,0.07236
316.5,0.1012
317.0,0.1265
317.5,0.1336
318.0,0.1025
318.5,0.1223
319.0,0.1425
319.5,0.1213
320.0,0.1482
320.5,0.1779
321.0,0.1524
321.5,0.1462
322.0,0.1644
322.5,0.1434
323.0,0.1392
323.5,0.1629
324.0,0.1901
324.5,0.1968
325.0,0.1779
325.5,0.2241
326.0,0.2667
326.5,0.2634
327.0,0.2657
327.5,0.2603
328.0,0.2386
328.5,0.2447
329.0,0.2874
329.5,0.3253
330.0,0.3318
330.5,0.2719
331.0,0.2801
331.5,0.2821
332.0,0.3
332.5,0.2953
333.0,0.2975
333.5,0.2747
334.0,0.2834
334.5,0.3229
335.0,0.3017
335.5,0.3435
336.0,0.2386
336.5,0.2908
337.0,0.2414
337.5,0.3023
338.0,0.2922
338.5,0.3308
339.0,0.3306
339.5,0.3181
340.0,0.3836
340.5,0.3467
341.0,0.3336
341.5,0.3102
342.0,0.373
342.5,0.351
343.0,0.3858
343.5,0.3634
344.0,0.2731
344.5,0.2711
345.0,0.3642
345.5,0.3746
346.0,0.3202
346.5,0.3643
347.0,0.3912
347.5,0.3171
348.0,0.3643
348.5,0.3662
349.0,0.3411
349.5,0.3388
350.0,0.4206
350.5,0.4452
351.0,0.3985
351.5,0.3867
352.0,0.4181
352.5,0.3281
353.0,0.415
353.5,0.4456
354.0,0.4643
354.5,0.4725
355.0,0.4723
355.5,0.4281
356.0,0.4495
356.5,0.3851
357.0,0.3192
357.5,0.3921
358.0,0.3118
358.5,0.2673
359.0,0.375
359.5,0.4791
360.0,0.5095
360.5,0.4086
361.0,0.3737
361.5,0.4314
362.0,0.3741
362.5,0.5191
363.0,0.4675
363.5,0.4318
364.0,0.5295
364.5,0.4539
365.0,0.4635
365.5,0.5834
366.0,0.6198
366.5,0.5838
367.0,0.5701
367.5,0.5933
368.0,0.5206
368.5,0.5266
369.0,0.5702
369.5,0.6094
370.0,0.6513
370.5,0.5068
371.0,0.5429
371.5,0.681
372.0,0.4531
372.5,0.5447
373.0,0.5554
373.5,0.3622
374.0,0.5276
374.5,0.438
375.0,0.4268
375.5,0.6388
376.0,0.5309
376.5,0.5515
377.0,0.5852
377.5,0.6863
378.0,0.7457
378.5,0.7067
379.0,0.5847
379.5,0.5355
380.0,0.5581
380.5,0.6776
381.0,0.6805
381.5,0.5407
382.0,0.4812
382.5,0.4111
383.0,0.3815
383.5,0.3682
384.0,0.407
384.5,0.6
385.0,0.5962
385.5,0.5564
386.0,0.4776
386.5,0.6286
387.0,0.5235
387.5,0.5893
388.0,0.5452
388.5,0.54
389.0,0.5842
389.5,0.709
390.0,0.713
390.5,0.6575
391.0,0.7755
391.5,0.7926
392.0,0.669
392.5,0.6001
393.0,0.3345
393.5,0.2436
394.0,0.4967
394.5,0.6326
395.0,0.7734
395.5,0.7871
396.0,0.6837
396.5,0.4004
397.0,0.301
397.5,0.6134
398.0,0.8606
398.5,0.8912
399.0,0.9665
399.5,0.965
400.0,1.004
401.0,1.034
402.0,1.095
403.0,1.043
404.0,1.031
405.0,1.034
406.0,1.02
407.0,1.007
408.0,1.049
409.0,1.126
410.0,0.9867
411.0,1.072
412.0,1.154
413.0,1.129
414.0,1.146
415.0,1.152
416.0,1.175
417.0,1.149
418.0,1.131
419.0,1.149
420.0,1.147
421.0,1.203
422.0,1.146
423.0,1.123
424.0,1.19
425.0,1.191
426.0,1.163
427.0,1.144
428.0,1.117
429.0,1.06
430.0,0.9293
431.0,0.9235
432.0,1.195
433.0,1.204
434.0,1.121
435.0,1.173
436.0,1.324
437.0,1.308
438.0,1.193
439.0,1.237
440.0,1.279
441.0,1.328
442.0,1.427
443.0,1.393
444.0,1.426
445.0,1.398
446.0,1.336
447.0,1.446
448.0,1.472
449.0,1.48
450.0,1.524
451.0,1.584
452.0,1.528
453.0,1.44
454.0,1.505
455.0,1.517
456.0,1.556
457.0,1.584
458.0,1.533
459.0,1.528
460.0,1.535
461.0,1.573
462.0,1.587
463.0,1.578
464.0,1.553
465.0,1.535
466.0,1.552
467.0,1.527
468.0,1.547
469.0,1.558
470.0,1.51
471.0,1.51
472.0,1.594
473.0,1.575
474.0,1.581
475.0,1.597
476.0,1.552
477.0,1.56
478.0,1.605
479.0,1.597
480.0,1.602
481.0,1.633
482.0,1.643
483.0,1.625
484.0,1.593
485.0,1.519
486.0,1.329
487.0,1.394
488.0,1.532
489.0,1.539
490.0,1.62
491.0,1.594
492.0,1.507
493.0,1.558
494.0,1.575
495.0,1.59
496.0,1.602
497.0,1.628
498.0,1.554
499.0,1.576
500.0,1.532
501.0,1.506
502.0,1.488
503.0,1.551
504.0,1.517
505.0,1.57
506.0,1.623
507.0,1.545
508.0,1.498
509.0,1.54
510.0,1.533
511.0,1.575
512.0,1.593
513.0,1.509
514.0,1.5
515.0,1.486
516.0,1.484
517.0,1.32
518.0,1.389
519.0,1.458
520.0,1.513
521.0,1.528
522.0,1.531
523.0,1.505
524.0,1.561
525.0,1.581
526.0,1.512
527.0,1.427
528.0,1.511
529.0,1.594
530.0,1.573
531.0,1.598
532.0,1.544
533.0,1.5
534.0,1.545
535.0,1.58
536.0,1.595
537.0,1.533
538.0,1.561
539.0,1.549
540.0,1.486
541.0,1.498
542.0,1.546
543.0,1.531
544.0,1.559
545.0,1.555
546.0,1.563
547.0,1.563
548.0,1.545
549.0,1.55
550.0,1.57
551.0,1.552
552.0,1.564
553.0,1.537
554.0,1.575
555.0,1.579
556.0,1.559
557.0,1.512
558.0,1.502
559.0,1.476
560.0,1.495
561.0,1.516
562.0,1.507
563.0,1.549
564.0,1.509
565.0,1.497
566.0,1.476
567.0,1.506
568.0,1.495
569.0,1.463
570.0,1.463
571.0,1.454
572.0,1.492
573.0,1.509
574.0,1.505
575.0,1.479
576.0,1.466
577.0,1.482
578.0,1.46
579.0,1.465
580.0,1.491
581.0,1.498
582.0,1.526
583.0,1.529
584.0,1.542
585.0,1.505
586.0,1.474
587.0,1.508
588.0,1.476
589.0,1.316
590.0,1.376
591.0,1.452
592.0,1.437
593.0,1.456
594.0,1.448
595.0,1.415
596.0,1.466
597.0,1.452
598.0,1.447
599.0,1.448
600.0,1.449
601.0,1.437
602.0,1.428
603.0,1.451
604.0,1.476
605.0,1.468
606.0,1.462
607.0,1.476
608.0,1.46
609.0,1.463
610.0,1.452
611.0,1.46
612.0,1.456
613.0,1.438
614.0,1.418
615.0,1.449
616.0,1.401
617.0,1.398
618.0,1.453
619.0,1.438
620.0,1.448
621.0,1.45
622.0,1.434
623.0,1.413
624.0,1.389
625.0,1.386
626.0,1.407
627.0,1.425
628.0,1.347
629.0,1.398
630.0,1.366
631.0,1.392
632.0,1.375
633.0,1.415
634.0,1.4
635.0,1.421
636.0,1.402
637.0,1.425
638.0,1.438
639.0,1.421
640.0,1.407
641.0,1.406
642.0,1.4
643.0,1.419
644.0,1.414
645.0,1.417
646.0,1.386
647.0,1.374
648.0,1.377
649.0,1.351
650.0,1.352
651.0,1.41
652.0,1.358
653.0,1.392
654.0,1.376
655.0,1.328
656.0,1.175
657.0,1.207
658.0,1.351
659.0,1.36
660.0,1.366
661.0,1.376
662.0,1.38
663.0,1.353
664.0,1.368
665.0,1.368
666.0,1.369
667.0,1.367
668.0,1.368
669.0,1.389
670.0,1.383
671.0,1.382
672.0,1.371
673.0,1.391
674.0,1.386
675.0,1.374
676.0,1.383
677.0,1.37
678.0,1.374
679.0,1.351
680.0,1.362
681.0,1.354
682.0,1.352
683.0,1.35
684.0,1.344
685.0,1.355
686.0,1.348
687.0,0.9649
688.0,1.097
689.0,1.1
690.0,1.143
691.0,1.191
692.0,1.224
693.0,1.216
694.0,1.206
695.0,1.248
696.0,1.25
697.0,1.316
698.0,1.296
699.0,1.272
700.0,1.257
701.0,1.247
702.0,1.253
703.0,1.255
704.0,1.292
705.0,1.294
706.0,1.291
707.0,1.292
708.0,1.295
709.0,1.295
710.0,1.296
711.0,1.294
712.0,1.289
713.0,1.277
714.0,1.282
715.0,1.244
716.0,1.246
717.0,1.107
718.0,1.021
719.0,0.9387
720.0,0.9851
721.0,1.071
722.0,1.208
723.0,1.134
724.0,1.033
725.0,1.02
726.0,1.066
727.0,1.075
728.0,1.019
729.0,1.048
730.0,1.109
731.0,1.064
732.0,1.128
733.0,1.185
734.0,1.211
735.0,1.187
736.0,1.186
737.0,1.191
738.0,1.203
739.0,1.18
740.0,1.209
741.0,1.196
742.0,1.196
743.0,1.227
744.0,1.223
745.0,1.223
746.0,1.228
747.0,1.231
748.0,1.229
749.0,1.215
750.0,1.214
751.0,1.202
752.0,1.207
753.0,1.213
754.0,1.216
755.0,1.21
756.0,1.209
757.0,1.211
758.0,1.196
759.0,1.176
760.0,0.2665
761.0,0.1558
762.0,0.673
763.0,0.3792
764.0,0.5319
765.0,0.6736
766.0,0.7931
767.0,0.9675
768.0,1.091
769.0,1.108
770.0,1.139
771.0,1.146
772.0,1.147
773.0,1.155
774.0,1.15
775.0,1.141
776.0,1.155
777.0,1.14
778.0,1.133
779.0,1.134
780.0,1.128
781.0,1.129
782.0,1.136
783.0,1.117
784.0,1.122
785.0,1.114
786.0,1.127
787.0,1.11
788.0,1.097
789.0,1.097
790.0,1.072
791.0,1.078
792.0,1.07
793.0,1.053
794.0,1.067
795.0,1.086
796.0,1.058
797.0,1.06
798.0,1.086
799.0,1.08
800.0,1.063
801.0,1.061
802.0,1.058
803.0,1.05
804.0,1.051
805.0,1.047
806.0,1.073
807.0,1.061
808.0,1.062
809.0,1.044
810.0,1.037
811.0,1.041
812.0,1.015
813.0,0.9965
814.0,0.8896
815.0,0.8838
816.0,0.8246
817.0,0.8382
818.0,0.8098
819.0,0.8942
820.0,0.8466
821.0,0.9744
822.0,0.9492
823.0,0.6701
824.0,0.9269
825.0,0.9586
826.0,0.9269
827.0,0.9734
828.0,0.8391
829.0,0.9206
830.0,0.9101
831.0,0.9129
832.0,0.8875
833.0,0.9371
834.0,0.9086
835.0,0.9885
836.0,0.9523
837.0,0.9911
838.0,0.963
839.0,0.9757
840.0,0.9965
841.0,0.9836
842.0,0.984
843.0,0.9818
844.0,0.9692
845.0,1.001
846.0,0.9961
847.0,0.977
848.0,0.9719
849.0,0.9444
850.0,0.9047
851.0,0.9588
852.0,0.9518
853.0,0.9156
854.0,0.7912
855.0,0.8685
856.0,0.9495
857.0,0.9702
858.0,0.9634
859.0,0.964
860.0,0.9655
861.0,0.9604
862.0,0.9755
863.0,0.9986
864.0,0.9487
865.0,0.9404
866.0,0.8456
867.0,0.8825
868.0,0.9604
869.0,0.9405
870.0,0.9674
871.0,0.9543
872.0,0.9509
873.0,0.9491
874.0,0.9379
875.0,0.919
876.0,0.9286
877.0,0.938
878.0,0.9484
879.0,0.9339
880.0,0.9139
881.0,0.9006
882.0,0.9203
883.0,0.9229
884.0,0.9189
885.0,0.9259
886.0,0.8838
887.0,0.8922
888.0,0.9061
889.0,0.9153
890.0,0.9091
891.0,0.9069
892.0,0.8825
893.0,0.8571
894.0,0.8312
895.0,0.7907
896.0,0.7473
897.0,0.6492
898.0,0.7043
899.0,0.5446
900.0,0.7169
901.0,0.5705
902.0,0.658
903.0,0.6682
904.0,0.8254
905.0,0.7994
906.0,0.7501
907.0,0.6202
908.0,0.631
909.0,0.6784
910.0,0.6091
911.0,0.6437
912.0,0.6709
913.0,0.6186
914.0,0.6118
915.0,0.6624
916.0,0.5635
917.0,0.7051
918.0,0.5781
919.0,0.7157
920.0,0.7184
921.0,0.7461
922.0,0.6735
923.0,0.7205
924.0,0.6908
925.0,0.676
926.0,0.6834
927.0,0.7589
928.0,0.5743
929.0,0.529
930.0,0.4232
931.0,0.3998
932.0,0.2954
933.0,0.2441
934.0,0.1423
935.0,0.2465
936.0,0.1593
937.0,0.1621
938.0,0.1972
939.0,0.3875
940.0,0.461
941.0,0.355
942.0,0.4066
943.0,0.273
944.0,0.2826
945.0,0.3648
946.0,0.1931
947.0,0.3684
948.0,0.2719
949.0,0.4858
950.0,0.1464
951.0,0.4771
952.0,0.2661
953.0,0.3373
954.0,0.4066
955.0,0.3404
956.0,0.327
957.0,0.2675
958.0,0.4535
959.0,0.3679
960.0,0.4121
961.0,0.4568
962.0,0.4329
963.0,0.4941
964.0,0.4544
965.0,0.4917
966.0,0.493
967.0,0.4914
968.0,0.6415
969.0,0.6713
970.0,0.619
971.0,0.701
972.0,0.6721
973.0,0.5928
974.0,0.5638
975.0,0.5823
976.0,0.5569
977.0,0.6258
978.0,0.5979
979.0,0.6238
980.0,0.5881
981.0,0.6969
982.0,0.6691
983.0,0.6441
984.0,0.7151
985.0,0.6666
986.0,0.7259
987.0,0.7137
988.0,0.7124
989.0,0.7226
990.0,0.7081
991.0,0.7251
992.0,0.7291
993.0,0.7149
994.0,0.7287
995.0,0.7276
996.0,0.7247
997.0,0.7256
998.0,0.7223
999.0,0.7196
1000.0,0.7151
1001.0,0.7235
1002.0,0.7055
1003.0,0.7109
1004.0,0.694
1005.0,0.668
1006.0,0.6944
1007.0,0.709
1008.0,0.7055
1009.0,0.7021
1010.0,0.6994
1011.0,0.7054
1012.0,0.6997
1013.0,0.7037
1014.0,0.6988
1015.0,0.6942
1016.0,0.6912
1017.0,0.693
1018.0,0.6902
1019.0,0.6762
1020.0,0.6867
1021.0,0.6857
1022.0,0.6807
1023.0,0.6879
1024.0,0.6798
1025.0,0.6873
1026.0,0.6846
1027.0,0.683
1028.0,0.6816
1029.0,0.6736
1030.0,0.678
1031.0,0.6754
1032.0,0.6734
1033.0,0.6633
1034.0,0.6633
1035.0,0.6654
1036.0,0.669
1037.0,0.6581
1038.0,0.6611
1039.0,0.6607
1040.0,0.6581
1041.0,0.6608
1042.0,0.6562
1043.0,0.6542
1044.0,0.6566
1045.0,0.6477
1046.0,0.6407
1047.0,0.6465
1048.0,0.6501
1049.0,0.6478
1050.0,0.6449
1051.0,0.6441
1052.0,0.6416
1053.0,0.6366
1054.0,0.6381
1055.0,0.6386
1056.0,0.6365
1057.0,0.6346
1058.0,0.6191
1059.0,0.6199
1060.0,0.619
1061.0,0.6184
1062.0,0.6218
1063.0,0.6157
1064.0,0.623
1065.0,0.6188
1066.0,0.6064
1067.0,0.6143
1068.0,0.6011
1069.0,0.5824
1070.0,0.6024
1071.0,0.6111
1072.0,0.6046
1073.0,0.5958
1074.0,0.6105
1075.0,0.5819
1076.0,0.6101
1077.0,0.6004
1078.0,0.5894
1079.0,0.6001
1080.0,0.5912
1081.0,0.5732
1082.0,0.5807
1083.0,0.5821
1084.0,0.5723
1085.0,0.5924
1086.0,0.5437
1087.0,0.5589
1088.0,0.5819
1089.0,0.566
1090.0,0.5548
1091.0,0.5806
1092.0,0.5787
1093.0,0.4964
1094.0,0.5302
1095.0,0.5164
1096.0,0.4962
1097.0,0.5653
1098.0,0.4891
1099.0,0.5093
1100.0,0.476
1101.0,0.4812
1102.0,0.4612
1103.0,0.4578
1104.0,0.4583
1105.0,0.4982
1106.0,0.391
1107.0,0.4751
1108.0,0.4087
1109.0,0.4083
1110.0,0.4718
1111.0,0.328
1112.0,0.4047
1113.0,0.2659
1114.0,0.2963
1115.0,0.2459
1116.0,0.2014
1117.0,0.07959
1118.0,0.2173
1119.0,0.1122
1120.0,0.1414
1121.0,0.1849
1122.0,0.08169
1123.0,0.1277
1124.0,0.1078
1125.0,0.1396
1126.0,0.05242
1127.0,0.1571
1128.0,0.09812
1129.0,0.1035
1130.0,0.06986
1131.0,0.2882
1132.0,0.228
1133.0,0.1497
1134.0,0.04143
1135.0,0.01537
1136.0,0.1267
1137.0,0.2847
1138.0,0.2017
1139.0,0.2911
1140.0,0.247
1141.0,0.1917
1142.0,0.2185
1143.0,0.3061
1144.0,0.1119
1145.0,0.1442
1146.0,0.1556
1147.0,0.05875
1148.0,0.2651
1149.0,0.2147
1150.0,0.1201
1151.0,0.2003
1152.0,0.243
1153.0,0.2341
1154.0,0.1406
1155.0,0.3038
1156.0,0.2755
1157.0,0.3062
1158.0,0.3028
1159.0,0.3241
1160.0,0.28
1161.0,0.3391
1162.0,0.3412
1163.0,0.4506
1164.0,0.3903
1165.0,0.3718
1166.0,0.3667
1167.0,0.3975
1168.0,0.4026
1169.0,0.4109
1170.0,0.4435
1171.0,0.4329
1172.0,0.4389
1173.0,0.4425
1174.0,0.3247
1175.0,0.4309
1176.0,0.4695
1177.0,0.4535
1178.0,0.3472
1179.0,0.4731
1180.0,0.4271
1181.0,0.4403
1182.0,0.3111
1183.0,0.4325
1184.0,0.4077
1185.0,0.3956
1186.0,0.4618
1187.0,0.4421
1188.0,0.3171
1189.0,0.4124
1190.0,0.4513
1191.0,0.4324
1192.0,0.4572
1193.0,0.4395
1194.0,0.4521
1195.0,0.4303
1196.0,0.4161
1197.0,0.4508
1198.0,0.4146
1199.0,0.3588
1200.0,0.4342
1201.0,0.421
1202.0,0.4172
1203.0,0.4139
1204.0,0.3654
1205.0,0.4251
1206.0,0.4661
1207.0,0.4168
1208.0,0.4084
1209.0,0.4163
1210.0,0.4323
1211.0,0.4141
1212.0,0.4119
1213.0,0.4522
1214.0,0.4204
1215.0,0.4131
1216.0,0.4506
1217.0,0.44
1218.0,0.4471
1219.0,0.4422
1220.0,0.4474
1221.0,0.4512
1222.0,0.4402
1223.0,0.4366
1224.0,0.4348
1225.0,0.4484
1226.0,0.4506
1227.0,0.4189
1228.0,0.4522
1229.0,0.4507
1230.0,0.4436
1231.0,0.4542
1232.0,0.4516
1233.0,0.4386
1234.0,0.4533
1235.0,0.4508
1236.0,0.4538
1237.0,0.4485
1238.0,0.4522
1239.0,0.4465
1240.0,0.448
1241.0,0.4466
1242.0,0.445
1243.0,0.4414
1244.0,0.4447
1245.0,0.4465
1246.0,0.4439
1247.0,0.4424
1248.0,0.4424
1249.0,0.4435
1250.0,0.441
1251.0,0.4357
1252.0,0.4353
1253.0,0.4327
1254.0,0.4291
1255.0,0.4351
1256.0,0.4246
1257.0,0.4226
1258.0,0.4292
1259.0,0.4162
1260.0,0.418
1261.0,0.3978
1262.0,0.3875
1263.0,0.3884
1264.0,0.3624
1265.0,0.3858
1266.0,0.3736
1267.0,0.3785
1268.0,0.3616
1269.0,0.2418
1270.0,0.3778
1271.0,0.3961
1272.0,0.397
1273.0,0.3932
1274.0,0.394
1275.0,0.3991
1276.0,0.4023
1277.0,0.4043
1278.0,0.4107
1279.0,0.4071
1280.0,0.4019
1281.0,0.3829
1282.0,0.368
1283.0,0.3965
1284.0,0.4062
1285.0,0.4087
1286.0,0.4137
1287.0,0.4083
1288.0,0.408
1289.0,0.397
1290.0,0.4042
1291.0,0.4095
1292.0,0.3885
1293.0,0.4025
1294.0,0.3999
1295.0,0.3989
1296.0,0.3832
1297.0,0.3644
1298.0,0.3884
1299.0,0.4027
1300.0,0.3474
1301.0,0.3568
1302.0,0.3871
1303.0,0.3422
1304.0,0.298
1305.0,0.3796
1306.0,0.38
1307.0,0.3022
1308.0,0.3417
1309.0,0.3777
1310.0,0.2968
1311.0,0.329
1312.0,0.3211
1313.0,0.3159
1314.0,0.2849
1315.0,0.2826
1316.0,0.3248
1317.0,0.3084
1318.0,0.3327
1319.0,0.2673
1320.0,0.2574
1321.0,0.2973
1322.0,0.3014
1323.0,0.2327
1324.0,0.2621
1325.0,0.3206
1326.0,0.2789
1327.0,0.267
1328.0,0.2321
1329.0,0.1793
1330.0,0.2309
1331.0,0.1453
1332.0,0.148
1333.0,0.2045
1334.0,0.1706
1335.0,0.2318
1336.0,0.1864
1337.0,0.1665
1338.0,0.18
1339.0,0.1785
1340.0,0.172
1341.0,0.1715
1342.0,0.1798
1343.0,0.1291
1344.0,0.07702
1345.0,0.1104
1346.0,0.05971
1347.0,0.06154
1348.0,0.004956
1349.0,0.01671
1350.0,0.01659
1351.0,0.00489
1352.0,0.001616
1353.0,0.0001043
1354.0,0.0003104
1355.0,4.01e-06
1356.0,5.194e-05
1357.0,7.855e-05
1358.0,4.661e-06
1359.0,8.317e-07
1360.0,2.414e-06
1361.0,5.709e-09
1362.0,2.184e-11
1363.0,3.579e-06
1364.0,1.532e-06
1365.0,1.141e-11
1366.0,1.425e-05
1367.0,5.564e-06
1368.0,1.951e-13
1369.0,5.865e-07
1370.0,3.347e-07
1371.0,2.298e-08
1372.0,3.068e-06
1373.0,4.859e-05
1374.0,0.000192
1375.0,0.0003485
1376.0,0.0002771
1377.0,0.0001319
1378.0,0.00119
1379.0,5.595e-05
1380.0,8.862e-05
1381.0,2.585e-06
1382.0,2.882e-06
1383.0,5.012e-08
1384.0,7.018e-07
1385.0,2.323e-06
1386.0,2.837e-06
1387.0,0.0002177
1388.0,4.422e-06
1389.0,0.0006215
1390.0,0.0005345
1391.0,0.000371
1392.0,2.578e-05
1393.0,0.0001248
1394.0,8.31e-05
1395.0,7.505e-07
1396.0,7.455e-09
1397.0,5.315e-05
1398.0,0.001356
1399.0,0.0008596
1400.0,3.904e-09
1401.0,1.249e-08
1402.0,0.001935
1403.0,0.002527
1404.0,0.0007841
1405.0,4.146e-07
1406.0,0.002175
1407.0,0.0001858
1408.0,0.001761
1409.0,0.0006663
1410.0,0.0004984
1411.0,0.002207
1412.0,0.002815
1413.0,0.02439
1414.0,0.0003881
1415.0,0.0001975
1416.0,0.03667
1417.0,0.01223
1418.0,0.01403
1419.0,0.002234
1420.0,0.008633
1421.0,0.009389
1422.0,0.04754
1423.0,0.00952
1424.0,0.01757
1425.0,0.02625
1426.0,0.02877
1427.0,0.05054
1428.0,0.004732
1429.0,0.03884
1430.0,0.06363
1431.0,0.06926
1432.0,0.003756
1433.0,0.04494
1434.0,0.0233
1435.0,0.0248
1436.0,0.04548
1437.0,0.03485
1438.0,0.01538
1439.0,0.06081
1440.0,0.04566
1441.0,0.03592
1442.0,0.03963
1443.0,0.04807
1444.0,0.06584
1445.0,0.05288
1446.0,0.0242
1447.0,0.03807
1448.0,0.1193
1449.0,0.1049
1450.0,0.02818
1451.0,0.01164
1452.0,0.06437
1453.0,0.08378
1454.0,0.1394
1455.0,0.06738
1456.0,0.09122
1457.0,0.1198
1458.0,0.1388
1459.0,0.1645
1460.0,0.08697
1461.0,0.09191
1462.0,0.1327
1463.0,0.04427
1464.0,0.1552
1465.0,0.09393
1466.0,0.06747
