interpolation:linear
wavelength,value
280.0,1.211e-19
280.5,2.141e-18
281.0,9.32e-18
281.5,1.631e-16
282.0,9.136e-16
282.5,2.766e-15
283.0,9.401e-15
283.5,1.556e-14
284.0,2.155e-13
284.5,5.599e-13
285.0,9.653e-13
285.5,5.167e-12
286.0,2.093e-11
286.5,8.883e-11
287.0,2.392e-10
287.5,8.182e-10
288.0,2.548e-09
288.5,8.312e-09
289.0,2.272e-08
289.5,6.752e-08
290.0,1.822e-07
290.5,3.609e-07
291.0,7.353e-07
291.5,1.932e-06
292.0,4.078e-06
292.5,5.535e-06
293.0,1.124e-05
293.5,2.5e-05
294.0,3.715e-05
294.5,5.974e-05
295.0,9.38e-05
295.5,0.000197
296.0,0.0003215
296.5,0.0003819
297.0,0.0004529
297.5,0.000999
298.0,0.001338
298.5,0.00119
299.0,0.00233
299.5,0.003145
300.0,0.003101
300.5,0.004014
301.0,0.006077
301.5,0.008292
302.0,0.006587
302.5,0.01177
303.0,0.01887
303.5,0.02219
304.0,0.01998
304.5,0.02653
305.0,0.03422
305.5,0.03553
306.0,0.03321
306.5,0.03895
307.0,0.05048
307.5,0.05916
308.0,0.06143
308.5,0.06843
309.0,0.05989
309.5,0.06367
310.0,0.0619
310.5,0.09884
311.0,0.1207
311.5,0.1154
312.0,0.1081
312.5,0.126
313.0,0.1339
313.5,0.1335
314.0,0.1583
314.5,0.1306
315.0,0.17
315.5,0.148
316.0,0.122
316.5,0.1666
317.0,0.2078
317.5,0.2203
318.0,0.1662
318.5,0.1929
319.0,0.2217
319.5,0.1919
320.0,0.2346
320.5,0.2741
321.0,0.2297
321.5,0.2194
322.0,0.2513
322.5,0.2185
323.0,0.2086
323.5,0.2383
324.0,0.2766
324.5,0.288
325.0,0.2637
325.5,0.3279
326.0,0.3839
326.5,0.375
327.0,0.3786
327.5,0.3716
328.0,0.3446
328.5,0.3471
329.0,0.4026
329.5,0.4537
330.0,0.4628
330.5,0.3814
331.0,0.3932
331.5,0.3928
332.0,0.4136
332.5,0.4052
333.0,0.4081
333.5,0.3782
334.0,0.3898
334.5,0.4404
335.0,0.4095
335.5,0.4646
336.0,0.3222
336.5,0.393
337.0,0.3264
337.5,0.4084
338.0,0.3923
338.5,0.4425
339.0,0.4413
339.5,0.4238
340.0,0.5114
340.5,0.4612
341.0,0.4421
341.5,0.4102
342.0,0.4922
342.5,0.4622
343.0,0.5075
343.5,0.4776
344.0,0.3592
344.5,0.3554
345.0,0.476
345.5,0.4884
346.0,0.4167
346.5,0.4733
347.0,0.5077
347.5,0.4108
348.0,0.4711
348.5,0.4728
349.0,0.4397
349.5,0.436
350.0,0.5404
350.5,0.5711
351.0,0.5106
351.5,0.4951
352.0,0.5343
352.5,0.4185
353.0,0.5286
353.5,0.5667
354.0,0.5898
354.5,0.5995
355.0,0.5984
355.5,0.5416
356.0,0.5678
356.5,0.4859
357.0,0.4024
357.5,0.4937
358.0,0.3921
358.5,0.3358
359.0,0.4705
359.5,0.6005
360.0,0.638
360.5,0.511
361.0,0.4666
361.5,0.5379
362.0,0.4656
362.5,0.645
363.0,0.58
363.5,0.5349
364.0,0.6551
364.5,0.5608
365.0,0.5721
365.5,0.7192
366.0,0.763
366.5,0.7178
367.0,0.7002
367.5,0.7278
368.0,0.6379
368.5,0.6445
369.0,0.6971
369.5,0.7441
370.0,0.7944
370.5,0.6174
371.0,0.6606
371.5,0.8279
372.0,0.5504
372.5,0.6609
373.0,0.673
373.5,0.4385
374.0,0.638
374.5,0.529
375.0,0.515
375.5,0.7702
376.0,0.6395
376.5,0.6638
377.0,0.7036
377.5,0.8243
378.0,0.8949
378.5,0.8474
379.0,0.7006
379.5,0.6412
380.0,0.6677
380.5,0.8097
381.0,0.8123
381.5,0.6446
382.0,0.5731
382.5,0.489
383.0,0.4532
383.5,0.437
384.0,0.4827
384.5,0.7108
385.0,0.7058
385.5,0.658
386.0,0.5642
386.5,0.7419
387.0,0.6174
387.5,0.6943
388.0,0.6419
388.5,0.6352
389.0,0.6866
389.5,0.8325
390.0,0.8365
390.5,0.7707
391.0,0.9083
391.5,0.9276
392.0,0.7823
392.5,0.7011
393.0,0.3905
393.5,0.2841
394.0,0.5788
394.5,0.7366
395.0,0.8999
395.5,0.9153
396.0,0.7944
396.5,0.4648
397.0,0.3492
397.5,0.7109
398.0,0.997
398.5,1.032
399.0,1.118
399.5,1.115
400.0,1.16
401.0,1.193
402.0,1.261
403.0,1.199
404.0,1.183
405.0,1.185
406.0,1.168
407.0,1.151
408.0,1.198
409.0,1.284
410.0,1.124
411.0,1.219
412.0,1.311
413.0,1.281
414.0,1.298
415.0,1.303
416.0,1.328
417.0,1.297
418.0,1.275
419.0,1.294
420.0,1.29
421.0,1.352
422.0,1.287
423.0,1.259
424.0,1.334
425.0,1.333
426.0,1.299
427.0,1.276
428.0,1.245
429.0,1.18
430.0,1.034
431.0,1.027
432.0,1.327
433.0,1.336
434.0,1.242
435.0,1.3
436.0,1.465
437.0,1.446
438.0,1.318
439.0,1.366
440.0,1.411
441.0,1.463
442.0,1.57
443.0,1.533
444.0,1.567
445.0,1.536
446.0,1.466
447.0,1.585
448.0,1.613
449.0,1.62
450.0,1.666
451.0,1.73
452.0,1.668
453.0,1.57
454.0,1.64
455.0,1.652
456.0,1.693
457.0,1.723
458.0,1.667
459.0,1.66
460.0,1.667
461.0,1.706
462.0,1.72
463.0,1.71
464.0,1.682
465.0,1.661
466.0,1.678
467.0,1.65
468.0,1.671
469.0,1.681
470.0,1.63
471.0,1.629
472.0,1.718
473.0,1.698
474.0,1.703
475.0,1.721
476.0,1.673
477.0,1.681
478.0,1.728
479.0,1.718
480.0,1.722
481.0,1.754
482.0,1.763
483.0,1.741
484.0,1.706
485.0,1.626
486.0,1.422
487.0,1.49
488.0,1.636
489.0,1.644
490.0,1.73
491.0,1.7
492.0,1.607
493.0,1.661
494.0,1.678
495.0,1.694
496.0,1.705
497.0,1.733
498.0,1.653
499.0,1.676
500.0,1.63
501.0,1.602
502.0,1.583
503.0,1.651
504.0,1.618
505.0,1.671
506.0,1.726
507.0,1.643
508.0,1.591
509.0,1.635
510.0,1.626
511.0,1.67
512.0,1.688
513.0,1.599
514.0,1.588
515.0,1.573
516.0,1.571
517.0,1.396
518.0,1.469
519.0,1.542
520.0,1.599
521.0,1.615
522.0,1.618
523.0,1.591
524.0,1.65
525.0,1.672
526.0,1.598
527.0,1.508
528.0,1.597
529.0,1.685
530.0,1.663
531.0,1.689
532.0,1.632
533.0,1.585
534.0,1.632
535.0,1.668
536.0,1.683
537.0,1.617
538.0,1.646
539.0,1.633
540.0,1.567
541.0,1.58
542.0,1.631
543.0,1.613
544.0,1.644
545.0,1.639
546.0,1.649
547.0,1.647
548.0,1.628
549.0,1.633
550.0,1.653
551.0,1.633
552.0,1.645
553.0,1.617
554.0,1.657
555.0,1.661
556.0,1.641
557.0,1.591
558.0,1.581
559.0,1.553
560.0,1.574
561.0,1.596
562.0,1.586
563.0,1.632
564.0,1.589
565.0,1.577
566.0,1.555
567.0,1.587
568.0,1.577
569.0,1.547
570.0,1.546
571.0,1.536
572.0,1.578
573.0,1.596
574.0,1.593
575.0,1.565
576.0,1.551
577.0,1.568
578.0,1.543
579.0,1.547
580.0,1.572
581.0,1.577
582.0,1.604
583.0,1.606
584.0,1.619
585.0,1.579
586.0,1.547
587.0,1.583
588.0,1.554
589.0,1.395
590.0,1.458
591.0,1.533
592.0,1.52
593.0,1.536
594.0,1.529
595.0,1.497
596.0,1.543
597.0,1.53
598.0,1.522
599.0,1.522
600.0,1.521
601.0,1.506
602.0,1.496
603.0,1.52
604.0,1.545
605.0,1.537
606.0,1.529
607.0,1.544
608.0,1.526
609.0,1.528
610.0,1.516
611.0,1.523
612.0,1.518
613.0,1.499
614.0,1.478
615.0,1.509
616.0,1.459
617.0,1.456
618.0,1.512
619.0,1.496
620.0,1.506
621.0,1.509
622.0,1.493
623.0,1.472
624.0,1.446
625.0,1.443
626.0,1.465
627.0,1.485
628.0,1.425
629.0,1.464
630.0,1.432
631.0,1.452
632.0,1.433
633.0,1.471
634.0,1.453
635.0,1.474
636.0,1.453
637.0,1.475
638.0,1.487
639.0,1.469
640.0,1.454
641.0,1.452
642.0,1.445
643.0,1.464
644.0,1.458
645.0,1.462
646.0,1.433
647.0,1.426
648.0,1.429
649.0,1.402
650.0,1.396
651.0,1.454
652.0,1.409
653.0,1.436
654.0,1.419
655.0,1.373
656.0,1.212
657.0,1.245
658.0,1.391
659.0,1.4
660.0,1.405
661.0,1.415
662.0,1.42
663.0,1.392
664.0,1.405
665.0,1.403
666.0,1.404
667.0,1.401
668.0,1.401
669.0,1.422
670.0,1.415
671.0,1.415
672.0,1.402
673.0,1.423
674.0,1.418
675.0,1.404
676.0,1.414
677.0,1.4
678.0,1.403
679.0,1.38
680.0,1.391
681.0,1.382
682.0,1.381
683.0,1.378
684.0,1.372
685.0,1.383
686.0,1.376
687.0,1.08
688.0,1.183
689.0,1.185
690.0,1.216
691.0,1.251
692.0,1.274
693.0,1.266
694.0,1.257
695.0,1.29
696.0,1.292
697.0,1.345
698.0,1.325
699.0,1.31
700.0,1.295
701.0,1.287
702.0,1.29
703.0,1.292
704.0,1.324
705.0,1.326
706.0,1.321
707.0,1.321
708.0,1.325
709.0,1.321
710.0,1.324
711.0,1.32
712.0,1.314
713.0,1.303
714.0,1.308
715.0,1.273
716.0,1.275
717.0,1.168
718.0,1.086
719.0,1.003
720.0,1.054
721.0,1.124
722.0,1.242
723.0,1.18
724.0,1.089
725.0,1.08
726.0,1.124
727.0,1.128
728.0,1.08
729.0,1.098
730.0,1.159
731.0,1.118
732.0,1.172
733.0,1.218
734.0,1.241
735.0,1.218
736.0,1.216
737.0,1.222
738.0,1.227
739.0,1.203
740.0,1.23
741.0,1.216
742.0,1.214
743.0,1.245
744.0,1.24
745.0,1.239
746.0,1.245
747.0,1.247
748.0,1.245
749.0,1.23
750.0,1.23
751.0,1.217
752.0,1.223
753.0,1.229
754.0,1.232
755.0,1.225
756.0,1.224
757.0,1.226
758.0,1.211
759.0,1.195
760.0,0.4016
761.0,0.2705
762.0,0.7887
763.0,0.52
764.0,0.6658
765.0,0.7897
766.0,0.8806
767.0,1.028
768.0,1.124
769.0,1.134
770.0,1.157
771.0,1.16
772.0,1.161
773.0,1.168
774.0,1.162
775.0,1.153
776.0,1.167
777.0,1.152
778.0,1.145
779.0,1.146
780.0,1.14
781.0,1.141
782.0,1.148
783.0,1.128
784.0,1.133
785.0,1.126
786.0,1.139
787.0,1.125
788.0,1.114
789.0,1.115
790.0,1.095
791.0,1.095
792.0,1.086
793.0,1.07
794.0,1.078
795.0,1.099
796.0,1.078
797.0,1.08
798.0,1.099
799.0,1.095
800.0,1.079
801.0,1.079
802.0,1.075
803.0,1.069
804.0,1.069
805.0,1.062
806.0,1.086
807.0,1.074
808.0,1.075
809.0,1.059
810.0,1.054
811.0,1.061
812.0,1.04
813.0,1.025
814.0,0.934
815.0,0.9277
816.0,0.8694
817.0,0.8807
818.0,0.855
819.0,0.9268
820.0,0.8846
821.0,0.9951
822.0,0.9734
823.0,0.7266
824.0,0.9578
825.0,0.9807
826.0,0.955
827.0,0.9953
828.0,0.8789
829.0,0.9471
830.0,0.9386
831.0,0.9404
832.0,0.9182
833.0,0.9579
834.0,0.9356
835.0,1.003
836.0,0.9755
837.0,1.005
838.0,0.9804
839.0,0.9891
840.0,1.009
841.0,0.9977
842.0,0.9956
843.0,0.9908
844.0,0.9795
845.0,1.009
846.0,1.004
847.0,0.9843
848.0,0.9802
849.0,0.9525
850.0,0.9123
851.0,0.968
852.0,0.9604
853.0,0.9229
854.0,0.7983
855.0,0.8751
856.0,0.9572
857.0,0.9773
858.0,0.9707
859.0,0.9708
860.0,0.972
861.0,0.967
862.0,0.9819
863.0,1.005
864.0,0.9549
865.0,0.9464
866.0,0.851
867.0,0.8881
868.0,0.9664
869.0,0.9463
870.0,0.9733
871.0,0.9602
872.0,0.9567
873.0,0.9548
874.0,0.9435
875.0,0.9245
876.0,0.9343
877.0,0.9437
878.0,0.9543
879.0,0.9396
880.0,0.9195
881.0,0.9067
882.0,0.9267
883.0,0.9287
884.0,0.9249
885.0,0.9319
886.0,0.8915
887.0,0.8985
888.0,0.9136
889.0,0.9209
890.0,0.9168
891.0,0.9135
892.0,0.8916
893.0,0.8699
894.0,0.8502
895.0,0.8176
896.0,0.7783
897.0,0.6896
898.0,0.7398
899.0,0.5899
900.0,0.7453
901.0,0.6162
902.0,0.6888
903.0,0.7061
904.0,0.8443
905.0,0.822
906.0,0.775
907.0,0.6604
908.0,0.6696
909.0,0.7098
910.0,0.6545
911.0,0.6822
912.0,0.7061
913.0,0.6655
914.0,0.6555
915.0,0.7059
916.0,0.6082
917.0,0.7397
918.0,0.6238
919.0,0.7472
920.0,0.7428
921.0,0.7679
922.0,0.7057
923.0,0.7411
924.0,0.7235
925.0,0.7089
926.0,0.7159
927.0,0.7832
928.0,0.6273
929.0,0.5871
930.0,0.4861
931.0,0.456
932.0,0.353
933.0,0.3018
934.0,0.1971
935.0,0.2966
936.0,0.2047
937.0,0.2109
938.0,0.251
939.0,0.442
940.0,0.5147
941.0,0.4121
942.0,0.461
943.0,0.3224
944.0,0.3237
945.0,0.4212
946.0,0.2406
947.0,0.4293
948.0,0.3209
949.0,0.5479
950.0,0.1961
951.0,0.5352
952.0,0.3233
953.0,0.3942
954.0,0.4582
955.0,0.3957
956.0,0.3758
957.0,0.3275
958.0,0.4944
959.0,0.4189
960.0,0.4679
961.0,0.5058
962.0,0.4818
963.0,0.538
964.0,0.4992
965.0,0.5335
966.0,0.5382
967.0,0.5372
968.0,0.6641
969.0,0.6961
970.0,0.6482
971.0,0.7176
972.0,0.6911
973.0,0.626
974.0,0.5986
975.0,0.6113
976.0,0.5929
977.0,0.6502
978.0,0.6279
979.0,0.6493
980.0,0.6164
981.0,0.7124
982.0,0.6897
983.0,0.6676
984.0,0.7248
985.0,0.6868
986.0,0.7321
987.0,0.7233
988.0,0.7222
989.0,0.7265
990.0,0.7171
991.0,0.7294
992.0,0.7331
993.0,0.7224
994.0,0.7323
995.0,0.7306
996.0,0.7283
997.0,0.7289
998.0,0.7258
999.0,0.7229
1000.0,0.7193
1001.0,0.7267
1002.0,0.7124
1003.0,0.7142
1004.0,0.6983
1005.0,0.6707
1006.0,0.698
1007.0,0.7122
1008.0,0.7094
1009.0,0.7068
1010.0,0.7044
1011.0,0.7085
1012.0,0.7035
1013.0,0.7065
1014.0,0.7016
1015.0,0.6972
1016.0,0.6942
1017.0,0.6962
1018.0,0.6929
1019.0,0.6802
1020.0,0.6896
1021.0,0.6883
1022.0,0.6838
1023.0,0.6912
1024.0,0.6844
1025.0,0.69
1026.0,0.6876
1027.0,0.6859
1028.0,0.6847
1029.0,0.6768
1030.0,0.6807
1031.0,0.6783
1032.0,0.6761
1033.0,0.666
1034.0,0.666
1035.0,0.668
1036.0,0.6718
1037.0,0.6608
1038.0,0.6638
1039.0,0.6636
1040.0,0.6609
1041.0,0.6638
1042.0,0.6592
1043.0,0.6572
1044.0,0.6597
1045.0,0.6509
1046.0,0.6438
1047.0,0.6498
1048.0,0.6535
1049.0,0.6514
1050.0,0.6486
1051.0,0.6479
1052.0,0.6455
1053.0,0.6406
1054.0,0.6423
1055.0,0.643
1056.0,0.6411
1057.0,0.6394
1058.0,0.624
1059.0,0.625
1060.0,0.6242
1061.0,0.6237
1062.0,0.6273
1063.0,0.6214
1064.0,0.6287
1065.0,0.6249
1066.0,0.612
1067.0,0.6202
1068.0,0.6072
1069.0,0.588
1070.0,0.6086
1071.0,0.6161
1072.0,0.6105
1073.0,0.6014
1074.0,0.6148
1075.0,0.5901
1076.0,0.6147
1077.0,0.6072
1078.0,0.5969
1079.0,0.6039
1080.0,0.598
1081.0,0.5815
1082.0,0.5858
1083.0,0.5864
1084.0,0.582
1085.0,0.5987
1086.0,0.5567
1087.0,0.5667
1088.0,0.587
1089.0,0.5746
1090.0,0.5665
1091.0,0.5867
1092.0,0.5839
1093.0,0.5135
1094.0,0.5364
1095.0,0.5318
1096.0,0.5149
1097.0,0.5701
1098.0,0.5086
1099.0,0.5275
1100.0,0.4994
1101.0,0.5029
1102.0,0.4853
1103.0,0.4844
1104.0,0.4845
1105.0,0.5174
1106.0,0.4283
1107.0,0.4978
1108.0,0.4418
1109.0,0.4389
1110.0,0.4956
1111.0,0.3638
1112.0,0.434
1113.0,0.306
1114.0,0.3376
1115.0,0.2809
1116.0,0.2434
1117.0,0.1129
1118.0,0.2568
1119.0,0.1453
1120.0,0.1823
1121.0,0.2302
1122.0,0.1127
1123.0,0.1644
1124.0,0.139
1125.0,0.1771
1126.0,0.07778
1127.0,0.1983
1128.0,0.1357
1129.0,0.1409
1130.0,0.1018
1131.0,0.337
1132.0,0.2719
1133.0,0.1926
1134.0,0.06397
1135.0,0.02353
1136.0,0.168
1137.0,0.3359
1138.0,0.2423
1139.0,0.3251
1140.0,0.2856
1141.0,0.2303
1142.0,0.2568
1143.0,0.3495
1144.0,0.1422
1145.0,0.1849
1146.0,0.1997
1147.0,0.08767
1148.0,0.3028
1149.0,0.2536
1150.0,0.1529
1151.0,0.2408
1152.0,0.2828
1153.0,0.2658
1154.0,0.1841
1155.0,0.3397
1156.0,0.3127
1157.0,0.3418
1158.0,0.3373
1159.0,0.3544
1160.0,0.3151
1161.0,0.3674
1162.0,0.3706
1163.0,0.4672
1164.0,0.4132
1165.0,0.4006
1166.0,0.3909
1167.0,0.4194
1168.0,0.426
1169.0,0.4316
1170.0,0.4599
1171.0,0.4502
1172.0,0.4533
1173.0,0.4589
1174.0,0.3548
1175.0,0.4448
1176.0,0.477
1177.0,0.4654
1178.0,0.3702
1179.0,0.4802
1180.0,0.4423
1181.0,0.4547
1182.0,0.3361
1183.0,0.4446
1184.0,0.4241
1185.0,0.4153
1186.0,0.4716
1187.0,0.4555
1188.0,0.3431
1189.0,0.4261
1190.0,0.4611
1191.0,0.448
1192.0,0.4663
1193.0,0.4507
1194.0,0.4619
1195.0,0.444
1196.0,0.4324
1197.0,0.4579
1198.0,0.4253
1199.0,0.3788
1200.0,0.4457
1201.0,0.4355
1202.0,0.4301
1203.0,0.4262
1204.0,0.3831
1205.0,0.435
1206.0,0.4707
1207.0,0.4304
1208.0,0.4186
1209.0,0.426
1210.0,0.4399
1211.0,0.4255
1212.0,0.427
1213.0,0.4586
1214.0,0.4337
1215.0,0.4273
1216.0,0.4569
1217.0,0.4481
1218.0,0.4536
1219.0,0.4494
1220.0,0.4536
1221.0,0.4563
1222.0,0.4466
1223.0,0.4437
1224.0,0.4431
1225.0,0.4535
1226.0,0.4546
1227.0,0.4276
1228.0,0.4553
1229.0,0.4546
1230.0,0.4484
1231.0,0.4561
1232.0,0.4536
1233.0,0.4443
1234.0,0.4544
1235.0,0.4525
1236.0,0.455
1237.0,0.4512
1238.0,0.4535
1239.0,0.4477
1240.0,0.4491
1241.0,0.4486
1242.0,0.4462
1243.0,0.4425
1244.0,0.4461
1245.0,0.4478
1246.0,0.4451
1247.0,0.4438
1248.0,0.4443
1249.0,0.445
1250.0,0.4427
1251.0,0.438
1252.0,0.4369
1253.0,0.4355
1254.0,0.4329
1255.0,0.437
1256.0,0.4288
1257.0,0.4272
1258.0,0.432
1259.0,0.4226
1260.0,0.4241
1261.0,0.4083
1262.0,0.4003
1263.0,0.4013
1264.0,0.3805
1265.0,0.3985
1266.0,0.3894
1267.0,0.3922
1268.0,0.3785
1269.0,0.2824
1270.0,0.3923
1271.0,0.4059
1272.0,0.4063
1273.0,0.4029
1274.0,0.4031
1275.0,0.4074
1276.0,0.4098
1277.0,0.4107
1278.0,0.4153
1279.0,0.4118
1280.0,0.4064
1281.0,0.3864
1282.0,0.3699
1283.0,0.3988
1284.0,0.4089
1285.0,0.4112
1286.0,0.4154
1287.0,0.4115
1288.0,0.4108
1289.0,0.4027
1290.0,0.4068
1291.0,0.4116
1292.0,0.396
1293.0,0.4059
1294.0,0.4036
1295.0,0.4038
1296.0,0.3917
1297.0,0.3757
1298.0,0.3945
1299.0,0.4056
1300.0,0.3608
1301.0,0.3682
1302.0,0.3928
1303.0,0.3542
1304.0,0.3189
1305.0,0.3863
1306.0,0.3871
1307.0,0.3201
1308.0,0.3523
1309.0,0.3852
1310.0,0.3147
1311.0,0.3414
1312.0,0.3349
1313.0,0.3309
1314.0,0.3025
1315.0,0.3022
1316.0,0.3387
1317.0,0.3228
1318.0,0.3439
1319.0,0.2893
1320.0,0.2759
1321.0,0.3142
1322.0,0.32
1323.0,0.2582
1324.0,0.2837
1325.0,0.3346
1326.0,0.2983
1327.0,0.2873
1328.0,0.2534
1329.0,0.2052
1330.0,0.259
1331.0,0.1759
1332.0,0.1748
1333.0,0.2372
1334.0,0.1946
1335.0,0.2567
1336.0,0.2123
1337.0,0.1943
1338.0,0.2087
1339.0,0.2056
1340.0,0.1954
1341.0,0.2011
1342.0,0.2106
1343.0,0.1671
1344.0,0.1005
1345.0,0.1404
1346.0,0.08825
1347.0,0.09264
1348.0,0.01124
1349.0,0.03312
1350.0,0.03002
1351.0,0.01257
1352.0,0.005664
1353.0,0.0005786
1354.0,0.001338
1355.0,3.974e-05
1356.0,0.0003028
1357.0,0.000447
1358.0,4.47e-05
1359.0,1.4e-05
1360.0,2.836e-05
1361.0,2.445e-07
1362.0,1.817e-09
1363.0,4.455e-05
1364.0,2.184e-05
1365.0,1.742e-09
1366.0,0.0001502
1367.0,5.885e-05
1368.0,1.072e-10
1369.0,8.929e-06
1370.0,6.414e-06
1371.0,6.346e-07
1372.0,3.32e-05
1373.0,0.0003355
1374.0,0.0009965
1375.0,0.001713
1376.0,0.001183
1377.0,0.0006102
1378.0,0.004479
1379.0,0.0002685
1380.0,0.0004839
1381.0,1.83e-05
1382.0,3.314e-05
1383.0,8.075e-07
1384.0,1.152e-05
1385.0,2.116e-05
1386.0,3.764e-05
1387.0,0.001241
1388.0,3.047e-05
1389.0,0.002727
1390.0,0.002294
1391.0,0.001756
1392.0,0.0001465
1393.0,0.0005899
1394.0,0.0005748
1395.0,8.188e-06
1396.0,2.733e-07
1397.0,0.0002847
1398.0,0.005123
1399.0,0.003314
1400.0,1.932e-07
1401.0,4.051e-07
1402.0,0.005381
1403.0,0.00737
1404.0,0.002367
1405.0,5.562e-06
1406.0,0.007035
1407.0,0.0006266
1408.0,0.005663
1409.0,0.002607
1410.0,0.001844
1411.0,0.006396
1412.0,0.007419
1413.0,0.04494
1414.0,0.001416
1415.0,0.0008051
1416.0,0.05808
1417.0,0.02438
1418.0,0.02728
1419.0,0.004672
1420.0,0.01707
1421.0,0.01954
1422.0,0.07325
1423.0,0.01635
1424.0,0.02893
1425.0,0.04406
1426.0,0.04493
1427.0,0.07018
1428.0,0.01098
1429.0,0.0575
1430.0,0.08593
1431.0,0.09134
1432.0,0.008906
1433.0,0.06278
1434.0,0.03438
1435.0,0.04233
1436.0,0.06826
1437.0,0.05284
1438.0,0.02618
1439.0,0.08681
1440.0,0.06625
1441.0,0.05641
1442.0,0.06048
1443.0,0.0671
1444.0,0.09009
1445.0,0.07704
1446.0,0.03679
1447.0,0.05848
1448.0,0.1462
1449.0,0.1339
1450.0,0.04337
1451.0,0.01961
1452.0,0.08702
1453.0,0.1098
1454.0,0.1658
1455.0,0.08687
1456.0,0.1203
1457.0,0.1473
1458.0,0.1609
1459.0,0.192
1460.0,0.1075
1461.0,0.1173
1462.0,0.1611
1463.0,0.06059
1464.0,0.1804
1465.0,0.1109
1466.0,0.0909
1467.0,0.05516
1468.0,0.1033
1469.0,0.1225
1470.0,0.07206
1471.0,0.02911
