interpolation:linear
wavelength,value
280.0,6.389e-27
280.5,3.276e-25
281.0,2.105e-24
281.5,1.032e-22
282.0,1.082e-21
282.5,4.994e-21
283.0,2.7000000000000003e-20
283.5,5.634e-20
284.0,2.286e-18
284.5,9.694e-18
285.0,2.839e-17
285.5,2.836e-16
286.0,1.479e-15
286.5,1.055e-14
287.0,4.165e-14
287.5,2.354e-13
288.0,1.38e-12
288.5,6.299e-12
289.0,2.435e-11
289.5,1.059e-10
290.0,3.903e-10
290.5,1.004e-09
291.0,2.801e-09
291.5,1.098e-08
292.0,3.208e-08
292.5,5.23e-08
293.0,1.344e-07
293.5,4.118e-07
294.0,7.596e-07
294.5,1.438e-06
295.0,2.773e-06
295.5,7.507e-06
296.0,1.458e-05
296.5,2.042e-05
297.0,2.76e-05
297.5,7.312e-05
298.0,0.0001135
298.5,0.0001127
299.0,0.0002445
299.5,0.0003889
300.0,0.0004177
300.5,0.0005882
301.0,0.001005
301.5,0.001514
302.0,0.001261
302.5,0.002454
303.0,0.004361
303.5,0.005441
304.0,0.005045
304.5,0.007174
305.0,0.01011
305.5,0.01108
306.0,0.01059
306.5,0.01284
307.0,0.0178
307.5,0.02215
308.0,0.02329
308.5,0.02672
309.0,0.02394
309.5,0.02708
310.0,0.0271
310.5,0.04396
311.0,0.05496
311.5,0.05317
312.0,0.05208
312.5,0.06253
313.0,0.06753
313.5,0.06672
314.0,0.08178
314.5,0.07027
315.0,0.0923
315.5,0.07922
316.0,0.06741
316.5,0.09455
317.0,0.1182
317.5,0.1248
318.0,0.09596
318.5,0.1149
319.0,0.1342
319.5,0.114
320.0,0.1393
320.5,0.1678
321.0,0.1441
321.5,0.1384
322.0,0.1552
322.5,0.1354
323.0,0.1318
323.5,0.1547
324.0,0.1807
324.5,0.1869
325.0,0.1686
325.5,0.2128
326.0,0.2538
326.5,0.2511
327.0,0.2533
327.5,0.248
328.0,0.227
328.5,0.2334
329.0,0.2745
329.5,0.311
330.0,0.3172
330.5,0.2597
331.0,0.2675
331.5,0.2697
332.0,0.2872
332.5,0.2829
333.0,0.285
333.5,0.263
334.0,0.2714
334.5,0.3095
335.0,0.2894
335.5,0.3297
336.0,0.2291
336.5,0.2791
337.0,0.2316
337.5,0.2902
338.0,0.2807
338.5,0.3179
339.0,0.3179
339.5,0.3059
340.0,0.3689
340.5,0.3335
341.0,0.321
341.5,0.2987
342.0,0.3592
342.5,0.3381
343.0,0.3717
343.5,0.3502
344.0,0.2631
344.5,0.2613
345.0,0.3512
345.5,0.3613
346.0,0.3089
346.5,0.3516
347.0,0.3776
347.5,0.3061
348.0,0.3518
348.5,0.3537
349.0,0.3295
349.5,0.3274
350.0,0.4065
350.5,0.4303
351.0,0.3853
351.5,0.3739
352.0,0.4044
352.5,0.3174
353.0,0.4016
353.5,0.4312
354.0,0.4495
354.5,0.4575
355.0,0.4573
355.5,0.4146
356.0,0.4354
356.5,0.3731
357.0,0.3093
357.5,0.38
358.0,0.3022
358.5,0.2591
359.0,0.3636
359.5,0.4646
360.0,0.4942
360.5,0.3964
361.0,0.3626
361.5,0.4187
362.0,0.3631
362.5,0.504
363.0,0.454
363.5,0.4194
364.0,0.5144
364.5,0.441
365.0,0.4505
365.5,0.567
366.0,0.6025
366.5,0.5677
367.0,0.5544
367.5,0.577
368.0,0.5064
368.5,0.5124
369.0,0.5549
369.5,0.5931
370.0,0.634
370.5,0.4934
371.0,0.5286
371.5,0.6631
372.0,0.4413
372.5,0.5306
373.0,0.5411
373.5,0.3529
374.0,0.5142
374.5,0.4269
375.0,0.4161
375.5,0.6228
376.0,0.5176
376.5,0.5378
377.0,0.5708
377.5,0.6694
378.0,0.7275
378.5,0.6895
379.0,0.5705
379.5,0.5225
380.0,0.5447
380.5,0.6614
381.0,0.6644
381.5,0.5279
382.0,0.4699
382.5,0.4016
383.0,0.3726
383.5,0.3597
384.0,0.3977
384.5,0.5863
385.0,0.5827
385.5,0.5439
386.0,0.4669
386.5,0.6146
387.0,0.5119
387.5,0.5763
388.0,0.5333
388.5,0.5283
389.0,0.5715
389.5,0.6937
390.0,0.6977
390.5,0.6435
391.0,0.759
391.5,0.7759
392.0,0.6549
392.5,0.5875
393.0,0.3276
393.5,0.2386
394.0,0.4864
394.5,0.6196
395.0,0.7576
395.5,0.7712
396.0,0.6699
396.5,0.3924
397.0,0.295
397.5,0.6012
398.0,0.8436
398.5,0.8736
399.0,0.9476
399.5,0.9462
400.0,0.9844
401.0,1.015
402.0,1.074
403.0,1.024
404.0,1.011
405.0,1.015
406.0,1.001
407.0,0.9884
408.0,1.03
409.0,1.106
410.0,0.9694
411.0,1.053
412.0,1.134
413.0,1.11
414.0,1.126
415.0,1.132
416.0,1.155
417.0,1.13
418.0,1.113
419.0,1.13
420.0,1.129
421.0,1.184
422.0,1.128
423.0,1.105
424.0,1.172
425.0,1.173
426.0,1.145
427.0,1.127
428.0,1.1
429.0,1.044
430.0,0.9159
431.0,0.9103
432.0,1.178
433.0,1.187
434.0,1.105
435.0,1.157
436.0,1.306
437.0,1.29
438.0,1.177
439.0,1.221
440.0,1.262
441.0,1.311
442.0,1.409
443.0,1.375
444.0,1.408
445.0,1.38
446.0,1.319
447.0,1.428
448.0,1.454
449.0,1.462
450.0,1.506
451.0,1.565
452.0,1.51
453.0,1.423
454.0,1.488
455.0,1.5
456.0,1.538
457.0,1.566
458.0,1.516
459.0,1.511
460.0,1.518
461.0,1.555
462.0,1.569
463.0,1.561
464.0,1.537
465.0,1.519
466.0,1.536
467.0,1.511
468.0,1.531
469.0,1.542
470.0,1.495
471.0,1.495
472.0,1.577
473.0,1.559
474.0,1.565
475.0,1.581
476.0,1.537
477.0,1.544
478.0,1.589
479.0,1.581
480.0,1.586
481.0,1.618
482.0,1.628
483.0,1.609
484.0,1.578
485.0,1.505
486.0,1.317
487.0,1.382
488.0,1.518
489.0,1.525
490.0,1.606
491.0,1.58
492.0,1.493
493.0,1.544
494.0,1.561
495.0,1.576
496.0,1.588
497.0,1.615
498.0,1.541
499.0,1.563
500.0,1.519
501.0,1.494
502.0,1.475
503.0,1.538
504.0,1.504
505.0,1.557
506.0,1.609
507.0,1.532
508.0,1.485
509.0,1.528
510.0,1.521
511.0,1.562
512.0,1.581
513.0,1.497
514.0,1.488
515.0,1.475
516.0,1.473
517.0,1.31
518.0,1.378
519.0,1.447
520.0,1.501
521.0,1.517
522.0,1.52
523.0,1.494
524.0,1.549
525.0,1.57
526.0,1.501
527.0,1.416
528.0,1.499
529.0,1.582
530.0,1.561
531.0,1.586
532.0,1.532
533.0,1.489
534.0,1.534
535.0,1.568
536.0,1.583
537.0,1.522
538.0,1.55
539.0,1.538
540.0,1.475
541.0,1.487
542.0,1.535
543.0,1.52
544.0,1.548
545.0,1.544
546.0,1.552
547.0,1.552
548.0,1.534
549.0,1.54
550.0,1.559
551.0,1.541
552.0,1.553
553.0,1.526
554.0,1.564
555.0,1.568
556.0,1.549
557.0,1.502
558.0,1.492
559.0,1.466
560.0,1.485
561.0,1.506
562.0,1.496
563.0,1.539
564.0,1.498
565.0,1.486
566.0,1.466
567.0,1.495
568.0,1.484
569.0,1.452
570.0,1.452
571.0,1.443
572.0,1.481
573.0,1.497
574.0,1.494
575.0,1.467
576.0,1.455
577.0,1.471
578.0,1.449
579.0,1.454
580.0,1.481
581.0,1.488
582.0,1.515
583.0,1.519
584.0,1.532
585.0,1.495
586.0,1.465
587.0,1.499
588.0,1.466
589.0,1.306
590.0,1.366
591.0,1.442
592.0,1.427
593.0,1.446
594.0,1.437
595.0,1.405
596.0,1.456
597.0,1.442
598.0,1.437
599.0,1.438
600.0,1.44
601.0,1.428
602.0,1.419
603.0,1.442
604.0,1.466
605.0,1.459
606.0,1.453
607.0,1.467
608.0,1.451
609.0,1.454
610.0,1.444
611.0,1.451
612.0,1.447
613.0,1.429
614.0,1.41
615.0,1.441
616.0,1.393
617.0,1.391
618.0,1.445
619.0,1.43
620.0,1.44
621.0,1.442
622.0,1.426
623.0,1.405
624.0,1.381
625.0,1.379
626.0,1.4
627.0,1.417
628.0,1.337
629.0,1.389
630.0,1.358
631.0,1.384
632.0,1.368
633.0,1.408
634.0,1.393
635.0,1.414
636.0,1.395
637.0,1.418
638.0,1.431
639.0,1.415
640.0,1.401
641.0,1.4
642.0,1.394
643.0,1.413
644.0,1.408
645.0,1.411
646.0,1.38
647.0,1.368
648.0,1.37
649.0,1.344
650.0,1.346
651.0,1.404
652.0,1.351
653.0,1.386
654.0,1.37
655.0,1.322
656.0,1.17
657.0,1.202
658.0,1.346
659.0,1.355
660.0,1.361
661.0,1.371
662.0,1.375
663.0,1.348
664.0,1.363
665.0,1.363
666.0,1.364
667.0,1.363
668.0,1.363
669.0,1.384
670.0,1.378
671.0,1.378
672.0,1.366
673.0,1.387
674.0,1.382
675.0,1.37
676.0,1.379
677.0,1.366
678.0,1.37
679.0,1.348
680.0,1.359
681.0,1.35
682.0,1.348
683.0,1.346
684.0,1.34
685.0,1.351
686.0,1.344
687.0,0.9502
688.0,1.086
689.0,1.089
690.0,1.134
691.0,1.183
692.0,1.218
693.0,1.209
694.0,1.199
695.0,1.242
696.0,1.244
697.0,1.312
698.0,1.292
699.0,1.267
700.0,1.252
701.0,1.241
702.0,1.248
703.0,1.25
704.0,1.287
705.0,1.289
706.0,1.287
707.0,1.288
708.0,1.291
709.0,1.291
710.0,1.292
711.0,1.29
712.0,1.285
713.0,1.274
714.0,1.278
715.0,1.24
716.0,1.242
717.0,1.099
718.0,1.013
719.0,0.9307
720.0,0.9765
721.0,1.065
722.0,1.204
723.0,1.129
724.0,1.026
725.0,1.012
726.0,1.058
727.0,1.069
728.0,1.011
729.0,1.041
730.0,1.102
731.0,1.057
732.0,1.123
733.0,1.181
734.0,1.207
735.0,1.183
736.0,1.182
737.0,1.187
738.0,1.2
739.0,1.177
740.0,1.206
741.0,1.193
742.0,1.194
743.0,1.224
744.0,1.22
745.0,1.22
746.0,1.226
747.0,1.229
748.0,1.226
749.0,1.213
750.0,1.212
751.0,1.2
752.0,1.205
753.0,1.211
754.0,1.214
755.0,1.208
756.0,1.207
757.0,1.209
758.0,1.194
759.0,1.173
760.0,0.2521
761.0,0.1445
762.0,0.6586
763.0,0.3633
764.0,0.5159
765.0,0.6592
766.0,0.7819
767.0,0.9595
768.0,1.086
769.0,1.104
770.0,1.137
771.0,1.144
772.0,1.145
773.0,1.153
774.0,1.148
775.0,1.139
776.0,1.153
777.0,1.138
778.0,1.131
779.0,1.132
780.0,1.126
781.0,1.127
782.0,1.135
783.0,1.115
784.0,1.12
785.0,1.112
786.0,1.125
787.0,1.108
788.0,1.095
789.0,1.095
790.0,1.069
791.0,1.076
792.0,1.067
793.0,1.051
794.0,1.065
795.0,1.084
796.0,1.056
797.0,1.057
798.0,1.084
799.0,1.078
800.0,1.06
801.0,1.058
802.0,1.055
803.0,1.048
804.0,1.049
805.0,1.044
806.0,1.072
807.0,1.059
808.0,1.06
809.0,1.042
810.0,1.035
811.0,1.038
812.0,1.012
813.0,0.9929
814.0,0.884
815.0,0.8783
816.0,0.8192
817.0,0.833
818.0,0.8042
819.0,0.8901
820.0,0.8419
821.0,0.9717
822.0,0.9461
823.0,0.6634
824.0,0.923
825.0,0.9558
826.0,0.9234
827.0,0.9706
828.0,0.8342
829.0,0.9173
830.0,0.9066
831.0,0.9094
832.0,0.8837
833.0,0.9344
834.0,0.9051
835.0,0.9865
836.0,0.9493
837.0,0.9892
838.0,0.9606
839.0,0.9739
840.0,0.9948
841.0,0.9817
842.0,0.9825
843.0,0.9806
844.0,0.9678
845.0,0.9995
846.0,0.9949
847.0,0.9761
848.0,0.9707
849.0,0.9433
850.0,0.9037
851.0,0.9576
852.0,0.9506
853.0,0.9146
854.0,0.7902
855.0,0.8676
856.0,0.9485
857.0,0.9693
858.0,0.9624
859.0,0.963
860.0,0.9647
861.0,0.9595
862.0,0.9746
863.0,0.9977
864.0,0.9478
865.0,0.9396
866.0,0.8449
867.0,0.8818
868.0,0.9596
869.0,0.9397
870.0,0.9666
871.0,0.9535
872.0,0.9501
873.0,0.9483
874.0,0.9371
875.0,0.9182
876.0,0.9279
877.0,0.9373
878.0,0.9476
879.0,0.9331
880.0,0.9132
881.0,0.8998
882.0,0.9194
883.0,0.9221
884.0,0.9181
885.0,0.9251
886.0,0.8828
887.0,0.8914
888.0,0.9051
889.0,0.9146
890.0,0.908
891.0,0.906
892.0,0.8813
893.0,0.8555
894.0,0.8287
895.0,0.7872
896.0,0.7435
897.0,0.6443
898.0,0.6999
899.0,0.5393
900.0,0.7133
901.0,0.565
902.0,0.6541
903.0,0.6635
904.0,0.823
905.0,0.7965
906.0,0.747
907.0,0.6153
908.0,0.6263
909.0,0.6745
910.0,0.6036
911.0,0.6391
912.0,0.6666
913.0,0.613
914.0,0.6066
915.0,0.6569
916.0,0.5582
917.0,0.7007
918.0,0.5726
919.0,0.7117
920.0,0.7154
921.0,0.7433
922.0,0.6695
923.0,0.7178
924.0,0.6866
925.0,0.6719
926.0,0.6793
927.0,0.7557
928.0,0.5678
929.0,0.5219
930.0,0.4157
931.0,0.3931
932.0,0.2887
933.0,0.2376
934.0,0.1364
935.0,0.2407
936.0,0.1542
937.0,0.1568
938.0,0.1913
939.0,0.381
940.0,0.4545
941.0,0.3482
942.0,0.4
943.0,0.2672
944.0,0.2778
945.0,0.3582
946.0,0.1877
947.0,0.3612
948.0,0.2663
949.0,0.4782
950.0,0.1411
951.0,0.47
952.0,0.2596
953.0,0.3307
954.0,0.4004
955.0,0.3339
956.0,0.3216
957.0,0.2607
958.0,0.4486
959.0,0.3619
960.0,0.4055
961.0,0.4509
962.0,0.4272
963.0,0.4888
964.0,0.4491
965.0,0.4866
966.0,0.4876
967.0,0.4859
968.0,0.6387
969.0,0.6681
970.0,0.6154
971.0,0.6988
972.0,0.6696
973.0,0.5887
974.0,0.5596
975.0,0.5787
976.0,0.5525
977.0,0.6228
978.0,0.5942
979.0,0.6206
980.0,0.5846
981.0,0.6949
982.0,0.6665
983.0,0.6411
984.0,0.7138
985.0,0.664
986.0,0.725
987.0,0.7124
988.0,0.7111
989.0,0.7221
990.0,0.7068
991.0,0.7245
992.0,0.7285
993.0,0.7138
994.0,0.7282
995.0,0.7272
996.0,0.7242
997.0,0.7252
998.0,0.7219
999.0,0.7192
1000.0,0.7145
1001.0,0.7231
1002.0,0.7046
1003.0,0.7104
1004.0,0.6934
1005.0,0.6676
1006.0,0.6939
1007.0,0.7085
1008.0,0.705
1009.0,0.7015
1010.0,0.6987
1011.0,0.705
1012.0,0.6992
1013.0,0.7033
1014.0,0.6984
1015.0,0.6938
1016.0,0.6908
1017.0,0.6926
1018.0,0.6899
1019.0,0.6757
1020.0,0.6864
1021.0,0.6853
1022.0,0.6802
1023.0,0.6875
1024.0,0.6791
1025.0,0.6869
1026.0,0.6841
1027.0,0.6825
1028.0,0.6812
1029.0,0.6732
1030.0,0.6777
1031.0,0.675
1032.0,0.6731
1033.0,0.6629
1034.0,0.663
1035.0,0.6651
1036.0,0.6686
1037.0,0.6577
1038.0,0.6607
1039.0,0.6604
1040.0,0.6577
1041.0,0.6604
1042.0,0.6558
1043.0,0.6538
1044.0,0.6562
1045.0,0.6473
1046.0,0.6402
1047.0,0.646
1048.0,0.6496
1049.0,0.6474
1050.0,0.6444
1051.0,0.6436
1052.0,0.6411
1053.0,0.6361
1054.0,0.6375
1055.0,0.638
1056.0,0.6358
1057.0,0.6339
1058.0,0.6185
1059.0,0.6192
1060.0,0.6183
1061.0,0.6177
1062.0,0.621
1063.0,0.615
1064.0,0.6222
1065.0,0.618
1066.0,0.6056
1067.0,0.6135
1068.0,0.6003
1069.0,0.5816
1070.0,0.6016
1071.0,0.6105
1072.0,0.6038
1073.0,0.595
1074.0,0.6099
1075.0,0.5808
1076.0,0.6095
1077.0,0.5995
1078.0,0.5884
1079.0,0.5996
1080.0,0.5903
1081.0,0.5721
1082.0,0.58
1083.0,0.5815
1084.0,0.5711
1085.0,0.5916
1086.0,0.5421
1087.0,0.5579
1088.0,0.5813
1089.0,0.5648
1090.0,0.5533
1091.0,0.5798
1092.0,0.578
1093.0,0.4943
1094.0,0.5294
1095.0,0.5144
1096.0,0.4938
1097.0,0.5646
1098.0,0.4866
1099.0,0.5069
1100.0,0.4731
1101.0,0.4785
1102.0,0.4581
1103.0,0.4545
1104.0,0.455
1105.0,0.4958
1106.0,0.3863
1107.0,0.4723
1108.0,0.4046
1109.0,0.4045
1110.0,0.4687
1111.0,0.3237
1112.0,0.4011
1113.0,0.2613
1114.0,0.2913
1115.0,0.2418
1116.0,0.1966
1117.0,0.07611
1118.0,0.2126
1119.0,0.1086
1120.0,0.1368
1121.0,0.1797
1122.0,0.07829
1123.0,0.1236
1124.0,0.1043
1125.0,0.1354
1126.0,0.04975
1127.0,0.1524
1128.0,0.09405
1129.0,0.09937
1130.0,0.06656
1131.0,0.2823
1132.0,0.2228
1133.0,0.1448
1134.0,0.03917
1135.0,0.01457
1136.0,0.1221
1137.0,0.2785
1138.0,0.197
1139.0,0.2869
1140.0,0.2423
1141.0,0.1872
1142.0,0.2139
1143.0,0.3008
1144.0,0.1086
1145.0,0.1396
1146.0,0.1506
1147.0,0.05571
1148.0,0.2605
1149.0,0.2101
1150.0,0.1165
1151.0,0.1955
1152.0,0.2382
1153.0,0.2303
1154.0,0.1358
1155.0,0.2994
1156.0,0.271
1157.0,0.302
1158.0,0.2986
1159.0,0.3203
1160.0,0.2759
1161.0,0.3356
1162.0,0.3377
1163.0,0.4484
1164.0,0.3875
1165.0,0.3682
1166.0,0.3638
1167.0,0.3948
1168.0,0.3997
1169.0,0.4082
1170.0,0.4413
1171.0,0.4307
1172.0,0.4371
1173.0,0.4404
1174.0,0.3211
1175.0,0.4292
1176.0,0.4685
1177.0,0.4519
1178.0,0.3445
1179.0,0.4722
1180.0,0.4252
1181.0,0.4384
1182.0,0.3081
1183.0,0.4309
1184.0,0.4057
1185.0,0.3931
1186.0,0.4605
1187.0,0.4404
1188.0,0.3139
1189.0,0.4107
1190.0,0.4501
1191.0,0.4304
1192.0,0.456
1193.0,0.4381
1194.0,0.4508
1195.0,0.4285
1196.0,0.4141
1197.0,0.4499
1198.0,0.4132
1199.0,0.3564
1200.0,0.4328
1201.0,0.4191
1202.0,0.4157
1203.0,0.4123
1204.0,0.3633
1205.0,0.4239
1206.0,0.4655
1207.0,0.4151
1208.0,0.4071
1209.0,0.4151
1210.0,0.4313
1211.0,0.4127
1212.0,0.4099
1213.0,0.4513
1214.0,0.4187
1215.0,0.4113
1216.0,0.4498
1217.0,0.4389
1218.0,0.4463
1219.0,0.4412
1220.0,0.4466
1221.0,0.4505
1222.0,0.4394
1223.0,0.4357
1224.0,0.4337
1225.0,0.4477
1226.0,0.4501
1227.0,0.4177
1228.0,0.4518
1229.0,0.4501
1230.0,0.4429
1231.0,0.4539
1232.0,0.4513
1233.0,0.4379
1234.0,0.4531
1235.0,0.4505
1236.0,0.4536
1237.0,0.4481
1238.0,0.4521
1239.0,0.4463
1240.0,0.4479
1241.0,0.4463
1242.0,0.4449
1243.0,0.4412
1244.0,0.4446
1245.0,0.4464
1246.0,0.4437
1247.0,0.4422
1248.0,0.4421
1249.0,0.4433
1250.0,0.4408
1251.0,0.4354
1252.0,0.4351
1253.0,0.4323
1254.0,0.4285
1255.0,0.4349
1256.0,0.424
1257.0,0.4219
1258.0,0.4288
1259.0,0.4153
1260.0,0.4172
1261.0,0.3964
1262.0,0.3858
1263.0,0.3866
1264.0,0.36
1265.0,0.3841
1266.0,0.3715
1267.0,0.3767
1268.0,0.3593
1269.0,0.2367
1270.0,0.3759
1271.0,0.3948
1272.0,0.3958
1273.0,0.3919
1274.0,0.3927
1275.0,0.398
1276.0,0.4013
1277.0,0.4034
1278.0,0.4101
1279.0,0.4065
1280.0,0.4013
1281.0,0.3824
1282.0,0.3677
1283.0,0.3962
1284.0,0.4058
1285.0,0.4084
1286.0,0.4135
1287.0,0.4079
1288.0,0.4076
1289.0,0.3963
1290.0,0.4039
1291.0,0.4093
1292.0,0.3875
1293.0,0.402
1294.0,0.3994
1295.0,0.3982
1296.0,0.3821
1297.0,0.363
1298.0,0.3877
1299.0,0.4023
1300.0,0.3457
1301.0,0.3553
1302.0,0.3863
1303.0,0.3406
1304.0,0.2954
1305.0,0.3788
1306.0,0.3791
1307.0,0.3001
1308.0,0.3404
1309.0,0.3766
1310.0,0.2946
1311.0,0.3275
1312.0,0.3194
1313.0,0.314
1314.0,0.2828
1315.0,0.2802
1316.0,0.3231
1317.0,0.3066
1318.0,0.3313
1319.0,0.2646
1320.0,0.2552
1321.0,0.2953
1322.0,0.2991
1323.0,0.2297
1324.0,0.2595
1325.0,0.3188
1326.0,0.2766
1327.0,0.2645
1328.0,0.2296
1329.0,0.1762
1330.0,0.2275
1331.0,0.1418
1332.0,0.1449
1333.0,0.2006
1334.0,0.1679
1335.0,0.2288
1336.0,0.1832
1337.0,0.1633
1338.0,0.1766
1339.0,0.1752
1340.0,0.1693
1341.0,0.1679
1342.0,0.1762
1343.0,0.1248
1344.0,0.07448
1345.0,0.107
1346.0,0.0567
1347.0,0.05826
1348.0,0.004459
1349.0,0.01527
1350.0,0.01532
1351.0,0.004319
1352.0,0.001365
1353.0,8.336e-05
1354.0,0.0002565
1355.0,2.976e-06
1356.0,4.131e-05
1357.0,6.261e-05
1358.0,3.474e-06
1359.0,5.737e-07
1360.0,1.75e-06
1361.0,3.493e-09
1362.0,1.235e-11
1363.0,2.552e-06
1364.0,1.081e-06
1365.0,5.914e-12
1366.0,1.038e-05
1367.0,4.084e-06
1368.0,8.48e-14
1369.0,4.112e-07
1370.0,2.272e-07
1371.0,1.493e-08
1372.0,2.249e-06
1373.0,3.769e-05
1374.0,0.0001545
1375.0,0.0002812
1376.0,0.0002294
1377.0,0.0001082
1378.0,0.0009968
1379.0,4.576e-05
1380.0,7.102e-05
1381.0,2.015e-06
1382.0,2.095e-06
1383.0,3.512e-08
1384.0,4.862e-07
1385.0,1.748e-06
1386.0,2.018e-06
1387.0,0.0001722
1388.0,3.457e-06
1389.0,0.0005106
1390.0,0.0004395
1391.0,0.000302
1392.0,2.062e-05
1393.0,0.0001021
1394.0,6.427e-05
1395.0,5.52e-07
1396.0,4.662e-09
1397.0,4.279e-05
1398.0,0.001133
1399.0,0.0007179
1400.0,2.34e-09
1401.0,7.939e-09
1402.0,0.001695
1403.0,0.002195
1404.0,0.0006783
1405.0,2.965e-07
1406.0,0.001856
1407.0,0.0001593
1408.0,0.001506
1409.0,0.0005544
1410.0,0.0004204
1411.0,0.00192
1412.0,0.002481
1413.0,0.02246
1414.0,0.0003283
1415.0,0.0001647
1416.0,0.03453
1417.0,0.0112
1418.0,0.01284
1419.0,0.002029
1420.0,0.007886
1421.0,0.008552
1422.0,0.04487
1423.0,0.008893
1424.0,0.01649
1425.0,0.02454
1426.0,0.02716
1427.0,0.0484
1428.0,0.004242
1429.0,0.03689
1430.0,0.06118
1431.0,0.06679
1432.0,0.003359
1433.0,0.04305
1434.0,0.02218
1435.0,0.02313
1436.0,0.04314
1437.0,0.03305
1438.0,0.01437
1439.0,0.05801
1440.0,0.04352
1441.0,0.03386
1442.0,0.03745
1443.0,0.04597
1444.0,0.0632
1445.0,0.05029
1446.0,0.02288
1447.0,0.036
1448.0,0.1161
1449.0,0.1016
1450.0,0.02666
1451.0,0.0109
1452.0,0.06189
1453.0,0.08084
1454.0,0.1363
1455.0,0.06518
1456.0,0.08798
1457.0,0.1166
1458.0,0.1361
1459.0,0.1612
1460.0,0.08464
1461.0,0.089
1462.0,0.1294
1463.0,0.04255
1464.0,0.1522
1465.0,0.09194
