interpolation:linear
wavelength,value
280.0,1.402e-27
280.5,7.918000000000001e-26
281.0,5.27e-25
281.5,2.836e-23
282.0,3.1459999999999997e-22
282.5,1.509e-21
283.0,8.509e-21
283.5,1.8130000000000002e-20
284.0,8.107e-19
284.5,3.594e-18
285.0,1.104e-17
285.5,1.167e-16
286.0,6.229e-16
286.5,4.655e-15
287.0,1.903e-14
287.5,1.125e-13
288.0,6.984e-13
288.5,3.287e-12
289.0,1.311e-11
289.5,5.904e-11
290.0,2.238e-10
290.5,5.893e-10
291.0,1.692e-09
291.5,6.874e-09
292.0,2.069e-08
292.5,3.43e-08
293.0,9e-08
293.5,2.839e-07
294.0,5.342e-07
294.5,1.026e-06
295.0,2.016e-06
295.5,5.585e-06
296.0,1.102e-05
296.5,1.566e-05
297.0,2.142e-05
297.5,5.771e-05
298.0,9.082e-05
298.5,9.104e-05
299.0,0.0001994
299.5,0.0003218
300.0,0.0003484
300.5,0.0004943
301.0,0.0008543
301.5,0.001298
302.0,0.001086
302.5,0.002129
303.0,0.003819
303.5,0.00479
304.0,0.004454
304.5,0.006373
305.0,0.009053
305.5,0.009968
306.0,0.009546
306.5,0.01161
307.0,0.01619
307.5,0.02026
308.0,0.02133
308.5,0.02454
309.0,0.02203
309.5,0.02506
310.0,0.02515
310.5,0.04084
311.0,0.05118
311.5,0.04956
312.0,0.04874
312.5,0.05868
313.0,0.06346
313.5,0.06265
314.0,0.07703
314.5,0.06643
315.0,0.08733
315.5,0.07486
316.0,0.06388
316.5,0.08982
317.0,0.1123
317.5,0.1186
318.0,0.0913
318.5,0.1097
319.0,0.1283
319.5,0.1087
320.0,0.1328
320.5,0.1605
321.0,0.1382
321.5,0.1327
322.0,0.1485
322.5,0.1297
323.0,0.1264
323.5,0.1488
324.0,0.1738
324.5,0.1797
325.0,0.1619
325.5,0.2046
326.0,0.2445
326.5,0.2421
327.0,0.2442
327.5,0.239
328.0,0.2185
328.5,0.2251
329.0,0.2651
329.5,0.3005
330.0,0.3065
330.5,0.2508
331.0,0.2583
331.5,0.2607
332.0,0.2778
332.5,0.2738
333.0,0.2759
333.5,0.2545
334.0,0.2626
334.5,0.2998
335.0,0.2804
335.5,0.3195
336.0,0.2221
336.5,0.2706
337.0,0.2246
337.5,0.2813
338.0,0.2723
338.5,0.3085
339.0,0.3086
339.5,0.297
340.0,0.3581
340.5,0.3239
341.0,0.3118
341.5,0.2902
342.0,0.3491
342.5,0.3286
343.0,0.3613
343.5,0.3404
344.0,0.2558
344.5,0.2541
345.0,0.3416
345.5,0.3515
346.0,0.3006
346.5,0.3422
347.0,0.3676
347.5,0.298
348.0,0.3426
348.5,0.3445
349.0,0.321
349.5,0.319
350.0,0.3961
350.5,0.4194
351.0,0.3755
351.5,0.3645
352.0,0.3943
352.5,0.3095
353.0,0.3917
353.5,0.4207
354.0,0.4385
354.5,0.4464
355.0,0.4463
355.5,0.4047
356.0,0.425
356.5,0.3642
357.0,0.302
357.5,0.3711
358.0,0.2952
358.5,0.2531
359.0,0.3552
359.5,0.4539
360.0,0.4829
360.5,0.3874
361.0,0.3544
361.5,0.4093
362.0,0.355
362.5,0.4929
363.0,0.444
363.5,0.4102
364.0,0.5033
364.5,0.4315
365.0,0.4408
365.5,0.5549
366.0,0.5897
366.5,0.5557
367.0,0.5428
367.5,0.565
368.0,0.4959
368.5,0.5018
369.0,0.5435
369.5,0.581
370.0,0.6211
370.5,0.4834
371.0,0.518
371.5,0.6499
372.0,0.4326
372.5,0.5201
373.0,0.5305
373.5,0.3461
374.0,0.5042
374.5,0.4187
375.0,0.4081
375.5,0.6109
376.0,0.5078
376.5,0.5276
377.0,0.56
377.5,0.6569
378.0,0.7139
378.5,0.6767
379.0,0.56
379.5,0.5129
380.0,0.5347
380.5,0.6493
381.0,0.6524
381.5,0.5184
382.0,0.4616
382.5,0.3944
383.0,0.3661
383.5,0.3534
384.0,0.3908
384.5,0.5761
385.0,0.5727
385.5,0.5346
386.0,0.4589
386.5,0.6042
387.0,0.5033
387.5,0.5666
388.0,0.5244
388.5,0.5195
389.0,0.5621
389.5,0.6823
390.0,0.6863
390.5,0.633
391.0,0.7468
391.5,0.7634
392.0,0.6444
392.5,0.5782
393.0,0.3224
393.5,0.2348
394.0,0.4788
394.5,0.61
395.0,0.7459
395.5,0.7593
396.0,0.6596
396.5,0.3864
397.0,0.2906
397.5,0.5921
398.0,0.8309
398.5,0.8605
399.0,0.9335
399.5,0.9322
400.0,0.9699
401.0,0.9997
402.0,1.059
403.0,1.009
404.0,0.9971
405.0,1.0
406.0,0.9875
407.0,0.9749
408.0,1.016
409.0,1.091
410.0,0.9564
411.0,1.039
412.0,1.119
413.0,1.095
414.0,1.112
415.0,1.118
416.0,1.141
417.0,1.116
418.0,1.099
419.0,1.117
420.0,1.115
421.0,1.17
422.0,1.115
423.0,1.092
424.0,1.159
425.0,1.16
426.0,1.132
427.0,1.114
428.0,1.088
429.0,1.033
430.0,0.9059
431.0,0.9003
432.0,1.165
433.0,1.175
434.0,1.093
435.0,1.145
436.0,1.292
437.0,1.277
438.0,1.166
439.0,1.209
440.0,1.25
441.0,1.298
442.0,1.395
443.0,1.362
444.0,1.394
445.0,1.367
446.0,1.307
447.0,1.415
448.0,1.441
449.0,1.449
450.0,1.492
451.0,1.55
452.0,1.497
453.0,1.41
454.0,1.474
455.0,1.486
456.0,1.525
457.0,1.553
458.0,1.503
459.0,1.498
460.0,1.505
461.0,1.542
462.0,1.556
463.0,1.548
464.0,1.524
465.0,1.507
466.0,1.524
467.0,1.499
468.0,1.519
469.0,1.53
470.0,1.483
471.0,1.483
472.0,1.565
473.0,1.548
474.0,1.553
475.0,1.569
476.0,1.525
477.0,1.532
478.0,1.577
479.0,1.569
480.0,1.574
481.0,1.606
482.0,1.616
483.0,1.598
484.0,1.567
485.0,1.495
486.0,1.308
487.0,1.372
488.0,1.507
489.0,1.514
490.0,1.595
491.0,1.569
492.0,1.484
493.0,1.534
494.0,1.551
495.0,1.566
496.0,1.578
497.0,1.604
498.0,1.531
499.0,1.553
500.0,1.51
501.0,1.484
502.0,1.466
503.0,1.528
504.0,1.494
505.0,1.547
506.0,1.599
507.0,1.523
508.0,1.476
509.0,1.518
510.0,1.511
511.0,1.553
512.0,1.571
513.0,1.489
514.0,1.48
515.0,1.466
516.0,1.464
517.0,1.302
518.0,1.37
519.0,1.439
520.0,1.493
521.0,1.508
522.0,1.511
523.0,1.486
524.0,1.541
525.0,1.561
526.0,1.492
527.0,1.408
528.0,1.491
529.0,1.573
530.0,1.552
531.0,1.577
532.0,1.524
533.0,1.48
534.0,1.525
535.0,1.559
536.0,1.575
537.0,1.513
538.0,1.541
539.0,1.529
540.0,1.467
541.0,1.479
542.0,1.527
543.0,1.511
544.0,1.539
545.0,1.535
546.0,1.544
547.0,1.544
548.0,1.526
549.0,1.531
550.0,1.551
551.0,1.533
552.0,1.545
553.0,1.518
554.0,1.556
555.0,1.56
556.0,1.541
557.0,1.494
558.0,1.484
559.0,1.458
560.0,1.477
561.0,1.498
562.0,1.488
563.0,1.53
564.0,1.49
565.0,1.478
566.0,1.458
567.0,1.487
568.0,1.476
569.0,1.444
570.0,1.444
571.0,1.435
572.0,1.472
573.0,1.489
574.0,1.485
575.0,1.459
576.0,1.446
577.0,1.462
578.0,1.441
579.0,1.446
580.0,1.473
581.0,1.48
582.0,1.508
583.0,1.511
584.0,1.524
585.0,1.487
586.0,1.458
587.0,1.491
588.0,1.458
589.0,1.298
590.0,1.357
591.0,1.434
592.0,1.418
593.0,1.438
594.0,1.429
595.0,1.397
596.0,1.448
597.0,1.434
598.0,1.43
599.0,1.431
600.0,1.433
601.0,1.421
602.0,1.412
603.0,1.435
604.0,1.459
605.0,1.452
606.0,1.446
607.0,1.461
608.0,1.445
609.0,1.447
610.0,1.437
611.0,1.445
612.0,1.441
613.0,1.423
614.0,1.404
615.0,1.435
616.0,1.388
617.0,1.385
618.0,1.439
619.0,1.424
620.0,1.434
621.0,1.436
622.0,1.42
623.0,1.4
624.0,1.376
625.0,1.373
626.0,1.394
627.0,1.411
628.0,1.329
629.0,1.382
630.0,1.351
631.0,1.379
632.0,1.362
633.0,1.402
634.0,1.388
635.0,1.409
636.0,1.39
637.0,1.413
638.0,1.426
639.0,1.41
640.0,1.396
641.0,1.395
642.0,1.389
643.0,1.408
644.0,1.403
645.0,1.406
646.0,1.375
647.0,1.362
648.0,1.364
649.0,1.339
650.0,1.342
651.0,1.399
652.0,1.346
653.0,1.381
654.0,1.366
655.0,1.318
656.0,1.167
657.0,1.198
658.0,1.342
659.0,1.351
660.0,1.357
661.0,1.367
662.0,1.371
663.0,1.344
664.0,1.359
665.0,1.36
666.0,1.361
667.0,1.359
668.0,1.36
669.0,1.381
670.0,1.375
671.0,1.375
672.0,1.363
673.0,1.384
674.0,1.379
675.0,1.366
676.0,1.376
677.0,1.363
678.0,1.367
679.0,1.345
680.0,1.356
681.0,1.347
682.0,1.346
683.0,1.343
684.0,1.337
685.0,1.348
686.0,1.341
687.0,0.9393
688.0,1.078
689.0,1.081
690.0,1.126
691.0,1.177
692.0,1.213
693.0,1.204
694.0,1.194
695.0,1.238
696.0,1.24
697.0,1.309
698.0,1.289
699.0,1.263
700.0,1.248
701.0,1.237
702.0,1.244
703.0,1.247
704.0,1.284
705.0,1.286
706.0,1.284
707.0,1.285
708.0,1.288
709.0,1.288
710.0,1.289
711.0,1.287
712.0,1.283
713.0,1.271
714.0,1.276
715.0,1.238
716.0,1.239
717.0,1.093
718.0,1.007
719.0,0.9249
720.0,0.9701
721.0,1.06
722.0,1.2
723.0,1.124
724.0,1.02
725.0,1.007
726.0,1.052
727.0,1.064
728.0,1.005
729.0,1.037
730.0,1.097
731.0,1.052
732.0,1.118
733.0,1.177
734.0,1.204
735.0,1.18
736.0,1.179
737.0,1.184
738.0,1.198
739.0,1.175
740.0,1.204
741.0,1.191
742.0,1.192
743.0,1.222
744.0,1.219
745.0,1.219
746.0,1.224
747.0,1.227
748.0,1.225
749.0,1.211
750.0,1.21
751.0,1.198
752.0,1.204
753.0,1.21
754.0,1.213
755.0,1.206
756.0,1.206
757.0,1.208
758.0,1.193
759.0,1.171
760.0,0.2416
761.0,0.1365
762.0,0.6479
763.0,0.3516
764.0,0.5041
765.0,0.6485
766.0,0.7735
767.0,0.9535
768.0,1.083
769.0,1.102
770.0,1.135
771.0,1.142
772.0,1.144
773.0,1.152
774.0,1.147
775.0,1.138
776.0,1.152
777.0,1.137
778.0,1.13
779.0,1.131
780.0,1.125
781.0,1.126
782.0,1.133
783.0,1.114
784.0,1.119
785.0,1.111
786.0,1.124
787.0,1.106
788.0,1.093
789.0,1.093
790.0,1.067
791.0,1.074
792.0,1.066
793.0,1.049
794.0,1.064
795.0,1.083
796.0,1.054
797.0,1.055
798.0,1.082
799.0,1.076
800.0,1.059
801.0,1.056
802.0,1.053
803.0,1.046
804.0,1.047
805.0,1.043
806.0,1.071
807.0,1.058
808.0,1.059
809.0,1.041
810.0,1.033
811.0,1.036
812.0,1.009
813.0,0.9901
814.0,0.8798
815.0,0.8742
816.0,0.8151
817.0,0.8291
818.0,0.8001
819.0,0.887
820.0,0.8384
821.0,0.9697
822.0,0.9438
823.0,0.6584
824.0,0.92
825.0,0.9537
826.0,0.9208
827.0,0.9684
828.0,0.8305
829.0,0.9148
830.0,0.9039
831.0,0.9068
832.0,0.8808
833.0,0.9324
834.0,0.9025
835.0,0.985
836.0,0.947
837.0,0.9877
838.0,0.9588
839.0,0.9726
840.0,0.9935
841.0,0.9803
842.0,0.9813
843.0,0.9796
844.0,0.9668
845.0,0.9986
846.0,0.9941
847.0,0.9753
848.0,0.9699
849.0,0.9424
850.0,0.9029
851.0,0.9566
852.0,0.9498
853.0,0.9139
854.0,0.7895
855.0,0.8669
856.0,0.9477
857.0,0.9686
858.0,0.9616
859.0,0.9623
860.0,0.964
861.0,0.9588
862.0,0.9739
863.0,0.997
864.0,0.9472
865.0,0.939
866.0,0.8443
867.0,0.8812
868.0,0.959
869.0,0.9391
870.0,0.9659
871.0,0.9529
872.0,0.9496
873.0,0.9477
874.0,0.9365
875.0,0.9176
876.0,0.9273
877.0,0.9367
878.0,0.947
879.0,0.9325
880.0,0.9126
881.0,0.8992
882.0,0.9188
883.0,0.9215
884.0,0.9175
885.0,0.9245
886.0,0.882
887.0,0.8908
888.0,0.9043
889.0,0.914
890.0,0.9072
891.0,0.9053
892.0,0.8803
893.0,0.8542
894.0,0.8268
895.0,0.7846
896.0,0.7406
897.0,0.6407
898.0,0.6966
899.0,0.5354
900.0,0.7107
901.0,0.5609
902.0,0.6513
903.0,0.66
904.0,0.8211
905.0,0.7944
906.0,0.7446
907.0,0.6116
908.0,0.6228
909.0,0.6716
910.0,0.5995
911.0,0.6356
912.0,0.6633
913.0,0.6087
914.0,0.6026
915.0,0.6528
916.0,0.5543
917.0,0.6974
918.0,0.5685
919.0,0.7087
920.0,0.7132
921.0,0.7412
922.0,0.6665
923.0,0.7158
924.0,0.6835
925.0,0.6688
926.0,0.6761
927.0,0.7533
928.0,0.563
929.0,0.5167
930.0,0.4103
931.0,0.3881
932.0,0.2837
933.0,0.2328
934.0,0.1322
935.0,0.2365
936.0,0.1505
937.0,0.1529
938.0,0.1869
939.0,0.3762
940.0,0.4497
941.0,0.3433
942.0,0.3951
943.0,0.2629
944.0,0.2742
945.0,0.3533
946.0,0.1838
947.0,0.356
948.0,0.2622
949.0,0.4726
950.0,0.1373
951.0,0.4647
952.0,0.2548
953.0,0.3258
954.0,0.3958
955.0,0.3292
956.0,0.3177
957.0,0.2558
958.0,0.445
959.0,0.3575
960.0,0.4006
961.0,0.4466
962.0,0.4229
963.0,0.4849
964.0,0.4451
965.0,0.4829
966.0,0.4836
967.0,0.4818
968.0,0.6366
969.0,0.6657
970.0,0.6127
971.0,0.6972
972.0,0.6678
973.0,0.5856
974.0,0.5564
975.0,0.576
976.0,0.5491
977.0,0.6206
978.0,0.5914
979.0,0.6181
980.0,0.582
981.0,0.6933
982.0,0.6645
983.0,0.6388
984.0,0.7128
985.0,0.662
986.0,0.7244
987.0,0.7114
988.0,0.7101
989.0,0.7217
990.0,0.7058
991.0,0.724
992.0,0.7281
993.0,0.713
994.0,0.7279
995.0,0.7269
996.0,0.7238
997.0,0.7248
998.0,0.7215
999.0,0.7189
1000.0,0.7141
1001.0,0.7227
1002.0,0.7039
1003.0,0.7101
1004.0,0.693
1005.0,0.6673
1006.0,0.6936
1007.0,0.7082
1008.0,0.7046
1009.0,0.701
1010.0,0.6982
1011.0,0.7047
1012.0,0.6988
1013.0,0.703
1014.0,0.6981
1015.0,0.6935
1016.0,0.6905
1017.0,0.6923
1018.0,0.6896
1019.0,0.6753
1020.0,0.6861
1021.0,0.6851
1022.0,0.6799
1023.0,0.6872
1024.0,0.6787
1025.0,0.6866
1026.0,0.6838
1027.0,0.6822
1028.0,0.6809
1029.0,0.6729
1030.0,0.6774
1031.0,0.6748
1032.0,0.6728
1033.0,0.6627
1034.0,0.6627
1035.0,0.6648
1036.0,0.6683
1037.0,0.6575
1038.0,0.6604
1039.0,0.6601
1040.0,0.6574
1041.0,0.6601
1042.0,0.6555
1043.0,0.6535
1044.0,0.6558
1045.0,0.647
1046.0,0.6399
1047.0,0.6457
1048.0,0.6493
1049.0,0.647
1050.0,0.6441
1051.0,0.6432
1052.0,0.6407
1053.0,0.6356
1054.0,0.6371
1055.0,0.6375
1056.0,0.6354
1057.0,0.6335
1058.0,0.618
1059.0,0.6187
1060.0,0.6178
1061.0,0.6171
1062.0,0.6204
1063.0,0.6144
1064.0,0.6217
1065.0,0.6173
1066.0,0.6051
1067.0,0.6129
1068.0,0.5996
1069.0,0.5811
1070.0,0.6009
1071.0,0.6099
1072.0,0.6032
1073.0,0.5945
1074.0,0.6095
1075.0,0.58
1076.0,0.6091
1077.0,0.5988
1078.0,0.5877
1079.0,0.5992
1080.0,0.5896
1081.0,0.5712
1082.0,0.5795
1083.0,0.5811
1084.0,0.5701
1085.0,0.5909
1086.0,0.5409
1087.0,0.5571
1088.0,0.5808
1089.0,0.5639
1090.0,0.5522
1091.0,0.5792
1092.0,0.5775
1093.0,0.4927
1094.0,0.5288
1095.0,0.5129
1096.0,0.492
1097.0,0.5642
1098.0,0.4847
1099.0,0.5051
1100.0,0.4709
1101.0,0.4764
1102.0,0.4558
1103.0,0.452
1104.0,0.4525
1105.0,0.4939
1106.0,0.3829
1107.0,0.4701
1108.0,0.4016
1109.0,0.4017
1110.0,0.4664
1111.0,0.3205
1112.0,0.3984
1113.0,0.2578
1114.0,0.2877
1115.0,0.2387
1116.0,0.1931
1117.0,0.0736
1118.0,0.2092
1119.0,0.1059
1120.0,0.1334
1121.0,0.1758
1122.0,0.07581
1123.0,0.1205
1124.0,0.1018
1125.0,0.1322
1126.0,0.04782
1127.0,0.149
1128.0,0.09108
1129.0,0.09637
1130.0,0.06419
1131.0,0.278
1132.0,0.219
1133.0,0.1412
1134.0,0.03754
1135.0,0.014
1136.0,0.1187
1137.0,0.2738
1138.0,0.1935
1139.0,0.2837
1140.0,0.2389
1141.0,0.1838
1142.0,0.2105
1143.0,0.2969
1144.0,0.1061
1145.0,0.1362
1146.0,0.1469
1147.0,0.05353
1148.0,0.2571
1149.0,0.2067
1150.0,0.1139
1151.0,0.192
1152.0,0.2346
1153.0,0.2274
1154.0,0.1323
1155.0,0.2961
1156.0,0.2676
1157.0,0.2988
1158.0,0.2955
1159.0,0.3175
1160.0,0.2729
1161.0,0.3331
1162.0,0.335
1163.0,0.4468
1164.0,0.3854
1165.0,0.3655
1166.0,0.3616
1167.0,0.3928
1168.0,0.3975
1169.0,0.4063
1170.0,0.4398
1171.0,0.4291
1172.0,0.4358
1173.0,0.4388
1174.0,0.3184
1175.0,0.4279
1176.0,0.4678
1177.0,0.4508
1178.0,0.3425
1179.0,0.4715
1180.0,0.4237
1181.0,0.437
1182.0,0.3059
1183.0,0.4297
1184.0,0.4042
1185.0,0.3913
1186.0,0.4596
1187.0,0.4391
1188.0,0.3116
1189.0,0.4094
1190.0,0.4491
1191.0,0.4289
1192.0,0.4551
1193.0,0.437
1194.0,0.4498
1195.0,0.4272
1196.0,0.4125
1197.0,0.4492
1198.0,0.4123
1199.0,0.3546
1200.0,0.4317
1201.0,0.4177
1202.0,0.4145
1203.0,0.4111
1204.0,0.3617
1205.0,0.423
1206.0,0.465
1207.0,0.4138
1208.0,0.4062
1209.0,0.4142
1210.0,0.4306
1211.0,0.4116
1212.0,0.4085
1213.0,0.4507
1214.0,0.4174
1215.0,0.4099
1216.0,0.4492
1217.0,0.4381
1218.0,0.4456
1219.0,0.4405
1220.0,0.446
1221.0,0.45
1222.0,0.4387
1223.0,0.435
1224.0,0.4329
1225.0,0.4472
1226.0,0.4497
1227.0,0.4169
1228.0,0.4515
1229.0,0.4497
1230.0,0.4425
1231.0,0.4537
1232.0,0.4511
1233.0,0.4373
1234.0,0.453
1235.0,0.4504
1236.0,0.4535
1237.0,0.4478
1238.0,0.4519
1239.0,0.4462
1240.0,0.4478
1241.0,0.4461
1242.0,0.4448
1243.0,0.4411
1244.0,0.4444
1245.0,0.4462
1246.0,0.4436
1247.0,0.442
1248.0,0.4419
1249.0,0.4431
1250.0,0.4406
1251.0,0.4352
1252.0,0.4349
1253.0,0.432
1254.0,0.4282
1255.0,0.4347
1256.0,0.4236
1257.0,0.4214
1258.0,0.4285
1259.0,0.4146
1260.0,0.4166
1261.0,0.3953
1262.0,0.3845
1263.0,0.3853
1264.0,0.3582
1265.0,0.3828
1266.0,0.3699
1267.0,0.3754
1268.0,0.3576
1269.0,0.233
1270.0,0.3744
1271.0,0.3938
1272.0,0.3948
1273.0,0.3909
1274.0,0.3918
1275.0,0.3971
1276.0,0.4005
1277.0,0.4027
1278.0,0.4096
1279.0,0.406
1280.0,0.4008
1281.0,0.3821
1282.0,0.3675
1283.0,0.3959
1284.0,0.4056
1285.0,0.4081
1286.0,0.4133
1287.0,0.4076
1288.0,0.4073
1289.0,0.3957
1290.0,0.4036
1291.0,0.409
1292.0,0.3867
1293.0,0.4017
1294.0,0.399
1295.0,0.3977
1296.0,0.3813
1297.0,0.3619
1298.0,0.3871
1299.0,0.402
1300.0,0.3445
1301.0,0.3542
1302.0,0.3857
1303.0,0.3395
1304.0,0.2935
1305.0,0.3781
1306.0,0.3784
1307.0,0.2984
1308.0,0.3394
1309.0,0.3759
1310.0,0.293
1311.0,0.3263
1312.0,0.3181
1313.0,0.3126
1314.0,0.2812
1315.0,0.2784
1316.0,0.3218
1317.0,0.3053
1318.0,0.3302
1319.0,0.2626
1320.0,0.2535
1321.0,0.2937
1322.0,0.2973
1323.0,0.2274
1324.0,0.2576
1325.0,0.3175
1326.0,0.2748
1327.0,0.2627
1328.0,0.2277
1329.0,0.174
1330.0,0.225
1331.0,0.1392
1332.0,0.1426
1333.0,0.1977
1334.0,0.1659
1335.0,0.2265
1336.0,0.1809
1337.0,0.1609
1338.0,0.1741
1339.0,0.1729
1340.0,0.1673
1341.0,0.1653
1342.0,0.1735
1343.0,0.1216
1344.0,0.07263
1345.0,0.1044
1346.0,0.05453
1347.0,0.05589
1348.0,0.004119
1349.0,0.01426
1350.0,0.01443
1351.0,0.003933
1352.0,0.001201
1353.0,7.042e-05
1354.0,0.0002222
1355.0,2.378e-06
1356.0,3.478e-05
1357.0,5.278e-05
1358.0,2.784e-06
1359.0,4.336e-07
1360.0,1.374e-06
1361.0,2.412e-09
1362.0,8.051e-12
1363.0,1.975e-06
1364.0,8.311e-07
1365.0,3.606e-12
1366.0,8.161e-06
1367.0,3.235e-06
1368.0,4.522e-14
1369.0,3.148e-07
1370.0,1.697e-07
1371.0,1.079e-08
1372.0,1.781e-06
1373.0,3.112e-05
1374.0,0.0001312
1375.0,0.0002391
1376.0,0.000199
1377.0,9.322e-05
1378.0,0.0008718
1379.0,3.936e-05
1380.0,6.012e-05
1381.0,1.673e-06
1382.0,1.647e-06
1383.0,2.689e-08
1384.0,3.688e-07
1385.0,1.412e-06
1386.0,1.561e-06
1387.0,0.0001441
1388.0,2.875e-06
1389.0,0.0004401
1390.0,0.000379
1391.0,0.0002586
1392.0,1.744e-05
1393.0,8.772e-05
1394.0,5.293e-05
1395.0,4.383e-07
1396.0,3.274e-09
1397.0,3.636e-05
1398.0,0.000989
1399.0,0.0006265
1400.0,1.591e-09
1401.0,5.645e-09
1402.0,0.001534
1403.0,0.001974
1404.0,0.0006081
1405.0,2.304e-07
1406.0,0.001647
1407.0,0.000142
1408.0,0.001338
1409.0,0.0004823
1410.0,0.0003699
1411.0,0.001728
1412.0,0.002256
1413.0,0.02109
1414.0,0.0002895
1415.0,0.0001438
1416.0,0.033
1417.0,0.01048
1418.0,0.012
1419.0,0.001887
1420.0,0.007364
1421.0,0.007975
1422.0,0.04295
1423.0,0.008451
1424.0,0.01572
1425.0,0.02332
1426.0,0.02602
1427.0,0.04685
1428.0,0.003907
1429.0,0.03548
1430.0,0.05939
1431.0,0.06498
1432.0,0.003089
1433.0,0.04168
1434.0,0.02137
1435.0,0.02194
1436.0,0.04145
1437.0,0.03176
1438.0,0.01366
1439.0,0.05599
1440.0,0.04197
1441.0,0.0324
1442.0,0.03587
1443.0,0.04444
1444.0,0.06129
1445.0,0.04843
1446.0,0.02192
1447.0,0.03452
1448.0,0.1137
1449.0,0.09917
1450.0,0.02558
1451.0,0.01037
1452.0,0.06007
1453.0,0.07868
1454.0,0.134
1455.0,0.06357
1456.0,0.08562
1457.0,0.1143
1458.0,0.1341
1459.0,0.1587
1460.0,0.08293
1461.0,0.08686
1462.0,0.1269
1463.0,0.04131
