interpolation:linear
wavelength,value
280.0,9.316e-19
280.5,1.446e-17
281.0,6.004e-17
281.5,9.266e-16
282.0,4.811e-15
282.5,1.383e-14
283.0,4.444e-14
283.5,7.153e-14
284.0,8.689e-13
284.5,2.127e-12
285.0,3.438e-12
285.5,1.706e-11
286.0,6.7e-11
286.5,2.669e-10
287.0,6.86e-10
287.5,2.207e-09
288.0,6.364e-09
288.5,1.993e-08
289.0,5.223e-08
289.5,1.482e-07
290.0,3.849e-07
290.5,7.386e-07
291.0,1.448e-06
291.5,3.625e-06
292.0,7.354e-06
292.5,9.761e-06
293.0,1.926e-05
293.5,4.121e-05
294.0,5.964e-05
294.5,9.403e-05
295.0,0.000144
295.5,0.0002932
296.0,0.0004685
296.5,0.0005454
297.0,0.0006365
297.5,0.001373
298.0,0.001807
298.5,0.001585
299.0,0.003065
299.5,0.004056
300.0,0.003957
300.5,0.005071
301.0,0.007564
301.5,0.0102
302.0,0.008054
302.5,0.01425
303.0,0.02255
303.5,0.02633
304.0,0.02362
304.5,0.03111
305.0,0.03969
305.5,0.04094
306.0,0.03817
306.5,0.04458
307.0,0.0573
307.5,0.06667
308.0,0.06912
308.5,0.07672
309.0,0.06695
309.5,0.07064
310.0,0.06844
310.5,0.1091
311.0,0.1328
311.5,0.1268
312.0,0.1181
312.5,0.1372
313.0,0.1455
313.5,0.1452
314.0,0.1715
314.5,0.1408
315.0,0.183
315.5,0.1597
316.0,0.1311
316.5,0.1784
317.0,0.2225
317.5,0.236
318.0,0.1776
318.5,0.2055
319.0,0.2356
319.5,0.2044
320.0,0.2499
320.5,0.291
321.0,0.243
321.5,0.2321
322.0,0.2665
322.5,0.2316
323.0,0.2206
323.5,0.2511
324.0,0.2913
324.5,0.3035
325.0,0.2784
325.5,0.3456
326.0,0.4037
326.5,0.3937
327.0,0.3976
327.5,0.3903
328.0,0.3625
328.5,0.3642
329.0,0.4218
329.5,0.475
330.0,0.4845
330.5,0.3996
331.0,0.412
331.5,0.4111
332.0,0.4324
332.5,0.4232
333.0,0.4263
333.5,0.3953
334.0,0.4073
334.5,0.4597
335.0,0.4271
335.5,0.4844
336.0,0.3358
336.5,0.4097
337.0,0.3403
337.5,0.4257
338.0,0.4086
338.5,0.4607
339.0,0.4592
339.5,0.441
340.0,0.5321
340.5,0.4798
341.0,0.4596
341.5,0.4263
342.0,0.5114
342.5,0.4801
343.0,0.5271
343.5,0.4959
344.0,0.373
344.5,0.3689
345.0,0.4939
345.5,0.5066
346.0,0.4321
346.5,0.4907
347.0,0.5263
347.5,0.4258
348.0,0.4881
348.5,0.4898
349.0,0.4554
349.5,0.4514
350.0,0.5594
350.5,0.5911
351.0,0.5284
351.5,0.5122
352.0,0.5527
352.5,0.4328
353.0,0.5465
353.5,0.5858
354.0,0.6096
354.5,0.6195
355.0,0.6183
355.5,0.5595
356.0,0.5864
356.5,0.5017
357.0,0.4154
357.5,0.5096
358.0,0.4047
358.5,0.3465
359.0,0.4855
359.5,0.6196
360.0,0.6581
360.5,0.527
361.0,0.4812
361.5,0.5545
362.0,0.4798
362.5,0.6646
363.0,0.5975
363.5,0.5509
364.0,0.6746
364.5,0.5774
365.0,0.589
365.5,0.7403
366.0,0.7852
366.5,0.7386
367.0,0.7203
367.5,0.7487
368.0,0.656
368.5,0.6627
369.0,0.7167
369.5,0.7649
370.0,0.8165
370.5,0.6345
371.0,0.6788
371.5,0.8505
372.0,0.5653
372.5,0.6787
373.0,0.6911
373.5,0.4502
374.0,0.655
374.5,0.543
375.0,0.5286
375.5,0.7904
376.0,0.6561
376.5,0.6809
377.0,0.7217
377.5,0.8454
378.0,0.9178
378.5,0.8689
379.0,0.7183
379.5,0.6573
380.0,0.6844
380.5,0.8298
381.0,0.8323
381.5,0.6604
382.0,0.587
382.5,0.5008
383.0,0.4641
383.5,0.4475
384.0,0.4942
384.5,0.7277
385.0,0.7224
385.5,0.6734
386.0,0.5773
386.5,0.759
387.0,0.6316
387.5,0.7102
388.0,0.6565
388.5,0.6496
389.0,0.702
389.5,0.8512
390.0,0.8551
390.5,0.7878
391.0,0.9283
391.5,0.948
392.0,0.7994
392.5,0.7163
393.0,0.3989
393.5,0.2902
394.0,0.5911
394.5,0.7522
395.0,0.9189
395.5,0.9345
396.0,0.8111
396.5,0.4744
397.0,0.3564
397.5,0.7255
398.0,1.017
398.5,1.053
399.0,1.14
399.5,1.138
400.0,1.183
401.0,1.217
402.0,1.285
403.0,1.223
404.0,1.206
405.0,1.208
406.0,1.19
407.0,1.172
408.0,1.22
409.0,1.308
410.0,1.144
411.0,1.241
412.0,1.334
413.0,1.303
414.0,1.321
415.0,1.326
416.0,1.35
417.0,1.319
418.0,1.297
419.0,1.315
420.0,1.311
421.0,1.374
422.0,1.307
423.0,1.279
424.0,1.355
425.0,1.354
426.0,1.319
427.0,1.296
428.0,1.264
429.0,1.198
430.0,1.049
431.0,1.042
432.0,1.346
433.0,1.355
434.0,1.26
435.0,1.318
436.0,1.486
437.0,1.466
438.0,1.336
439.0,1.385
440.0,1.43
441.0,1.482
442.0,1.591
443.0,1.553
444.0,1.587
445.0,1.556
446.0,1.485
447.0,1.605
448.0,1.634
449.0,1.64
450.0,1.687
451.0,1.751
452.0,1.689
453.0,1.589
454.0,1.66
455.0,1.672
456.0,1.713
457.0,1.743
458.0,1.686
459.0,1.679
460.0,1.686
461.0,1.726
462.0,1.739
463.0,1.729
464.0,1.701
465.0,1.679
466.0,1.696
467.0,1.667
468.0,1.689
469.0,1.699
470.0,1.647
471.0,1.646
472.0,1.736
473.0,1.715
474.0,1.721
475.0,1.739
476.0,1.691
477.0,1.698
478.0,1.746
479.0,1.736
480.0,1.739
481.0,1.771
482.0,1.78
483.0,1.758
484.0,1.722
485.0,1.641
486.0,1.435
487.0,1.504
488.0,1.652
489.0,1.659
490.0,1.745
491.0,1.716
492.0,1.621
493.0,1.675
494.0,1.693
495.0,1.708
496.0,1.72
497.0,1.748
498.0,1.668
499.0,1.691
500.0,1.644
501.0,1.616
502.0,1.597
503.0,1.665
504.0,1.632
505.0,1.685
506.0,1.741
507.0,1.657
508.0,1.605
509.0,1.649
510.0,1.64
511.0,1.683
512.0,1.702
513.0,1.611
514.0,1.601
515.0,1.586
516.0,1.583
517.0,1.407
518.0,1.48
519.0,1.554
520.0,1.611
521.0,1.628
522.0,1.631
523.0,1.603
524.0,1.662
525.0,1.684
526.0,1.611
527.0,1.52
528.0,1.61
529.0,1.698
530.0,1.675
531.0,1.702
532.0,1.644
533.0,1.597
534.0,1.644
535.0,1.68
536.0,1.696
537.0,1.629
538.0,1.658
539.0,1.645
540.0,1.578
541.0,1.592
542.0,1.644
543.0,1.625
544.0,1.656
545.0,1.651
546.0,1.661
547.0,1.659
548.0,1.639
549.0,1.644
550.0,1.665
551.0,1.645
552.0,1.657
553.0,1.628
554.0,1.668
555.0,1.673
556.0,1.652
557.0,1.602
558.0,1.592
559.0,1.564
560.0,1.585
561.0,1.607
562.0,1.597
563.0,1.643
564.0,1.6
565.0,1.588
566.0,1.567
567.0,1.599
568.0,1.589
569.0,1.559
570.0,1.558
571.0,1.547
572.0,1.59
573.0,1.609
574.0,1.605
575.0,1.578
576.0,1.564
577.0,1.581
578.0,1.555
579.0,1.559
580.0,1.583
581.0,1.588
582.0,1.615
583.0,1.617
584.0,1.629
585.0,1.589
586.0,1.557
587.0,1.594
588.0,1.566
589.0,1.407
590.0,1.47
591.0,1.545
592.0,1.532
593.0,1.547
594.0,1.54
595.0,1.509
596.0,1.554
597.0,1.541
598.0,1.533
599.0,1.532
600.0,1.531
601.0,1.516
602.0,1.506
603.0,1.53
604.0,1.555
605.0,1.546
606.0,1.539
607.0,1.553
608.0,1.535
609.0,1.537
610.0,1.525
611.0,1.532
612.0,1.527
613.0,1.508
614.0,1.486
615.0,1.518
616.0,1.467
617.0,1.464
618.0,1.52
619.0,1.505
620.0,1.515
621.0,1.518
622.0,1.502
623.0,1.481
624.0,1.454
625.0,1.451
626.0,1.474
627.0,1.494
628.0,1.436
629.0,1.473
630.0,1.441
631.0,1.46
632.0,1.441
633.0,1.479
634.0,1.461
635.0,1.482
636.0,1.46
637.0,1.483
638.0,1.494
639.0,1.476
640.0,1.461
641.0,1.459
642.0,1.451
643.0,1.471
644.0,1.465
645.0,1.468
646.0,1.439
647.0,1.433
648.0,1.437
649.0,1.41
650.0,1.403
651.0,1.461
652.0,1.416
653.0,1.442
654.0,1.424
655.0,1.38
656.0,1.217
657.0,1.25
658.0,1.397
659.0,1.405
660.0,1.41
661.0,1.42
662.0,1.426
663.0,1.397
664.0,1.41
665.0,1.408
666.0,1.408
667.0,1.406
668.0,1.405
669.0,1.426
670.0,1.42
671.0,1.419
672.0,1.407
673.0,1.428
674.0,1.422
675.0,1.409
676.0,1.418
677.0,1.404
678.0,1.407
679.0,1.384
680.0,1.395
681.0,1.386
682.0,1.385
683.0,1.382
684.0,1.376
685.0,1.387
686.0,1.38
687.0,1.097
688.0,1.196
689.0,1.197
690.0,1.227
691.0,1.259
692.0,1.281
693.0,1.273
694.0,1.265
695.0,1.296
696.0,1.299
697.0,1.349
698.0,1.329
699.0,1.316
700.0,1.3
701.0,1.292
702.0,1.295
703.0,1.298
704.0,1.329
705.0,1.331
706.0,1.326
707.0,1.325
708.0,1.329
709.0,1.325
710.0,1.328
711.0,1.324
712.0,1.317
713.0,1.307
714.0,1.311
715.0,1.277
716.0,1.279
717.0,1.177
718.0,1.096
719.0,1.013
720.0,1.065
721.0,1.132
722.0,1.247
723.0,1.186
724.0,1.098
725.0,1.09
726.0,1.133
727.0,1.136
728.0,1.089
729.0,1.106
730.0,1.167
731.0,1.126
732.0,1.178
733.0,1.222
734.0,1.245
735.0,1.223
736.0,1.221
737.0,1.227
738.0,1.23
739.0,1.207
740.0,1.233
741.0,1.218
742.0,1.217
743.0,1.247
744.0,1.242
745.0,1.241
746.0,1.247
747.0,1.249
748.0,1.247
749.0,1.233
750.0,1.232
751.0,1.219
752.0,1.225
753.0,1.231
754.0,1.234
755.0,1.227
756.0,1.226
757.0,1.228
758.0,1.214
759.0,1.198
760.0,0.425
761.0,0.2919
762.0,0.8062
763.0,0.5432
764.0,0.6867
765.0,0.8073
766.0,0.8934
767.0,1.037
768.0,1.129
769.0,1.138
770.0,1.16
771.0,1.162
772.0,1.163
773.0,1.17
774.0,1.164
775.0,1.155
776.0,1.169
777.0,1.154
778.0,1.147
779.0,1.148
780.0,1.142
781.0,1.143
782.0,1.15
783.0,1.13
784.0,1.135
785.0,1.127
786.0,1.14
787.0,1.127
788.0,1.117
789.0,1.117
790.0,1.098
791.0,1.098
792.0,1.089
793.0,1.072
794.0,1.08
795.0,1.101
796.0,1.081
797.0,1.083
798.0,1.101
799.0,1.097
800.0,1.082
801.0,1.081
802.0,1.078
803.0,1.071
804.0,1.071
805.0,1.064
806.0,1.088
807.0,1.076
808.0,1.076
809.0,1.061
810.0,1.056
811.0,1.064
812.0,1.043
813.0,1.029
814.0,0.9407
815.0,0.9343
816.0,0.8763
817.0,0.8872
818.0,0.862
819.0,0.9317
820.0,0.8904
821.0,0.9981
822.0,0.9769
823.0,0.7356
824.0,0.9623
825.0,0.984
826.0,0.9592
827.0,0.9985
828.0,0.8849
829.0,0.951
830.0,0.9429
831.0,0.9445
832.0,0.9228
833.0,0.9608
834.0,0.9396
835.0,1.006
836.0,0.9789
837.0,1.007
838.0,0.9829
839.0,0.991
840.0,1.011
841.0,0.9997
842.0,0.9973
843.0,0.9921
844.0,0.981
845.0,1.01
846.0,1.005
847.0,0.9853
848.0,0.9813
849.0,0.9536
850.0,0.9133
851.0,0.9693
852.0,0.9616
853.0,0.9239
854.0,0.7993
855.0,0.876
856.0,0.9583
857.0,0.9783
858.0,0.9718
859.0,0.9718
860.0,0.9729
861.0,0.9679
862.0,0.9828
863.0,1.006
864.0,0.9557
865.0,0.9473
866.0,0.8518
867.0,0.8889
868.0,0.9673
869.0,0.9472
870.0,0.9742
871.0,0.961
872.0,0.9575
873.0,0.9556
874.0,0.9443
875.0,0.9253
876.0,0.9351
877.0,0.9445
878.0,0.9551
879.0,0.9404
880.0,0.9203
881.0,0.9075
882.0,0.9275
883.0,0.9296
884.0,0.9257
885.0,0.9328
886.0,0.8926
887.0,0.8994
888.0,0.9146
889.0,0.9217
890.0,0.9179
891.0,0.9144
892.0,0.8928
893.0,0.8717
894.0,0.853
895.0,0.8216
896.0,0.783
897.0,0.696
898.0,0.7453
899.0,0.5972
900.0,0.7497
901.0,0.6234
902.0,0.6935
903.0,0.712
904.0,0.8471
905.0,0.8254
906.0,0.7788
907.0,0.6666
908.0,0.6757
909.0,0.7146
910.0,0.6616
911.0,0.6883
912.0,0.7115
913.0,0.6727
914.0,0.6623
915.0,0.7125
916.0,0.6154
917.0,0.7448
918.0,0.631
919.0,0.7519
920.0,0.7465
921.0,0.771
922.0,0.7106
923.0,0.7442
924.0,0.7283
925.0,0.7139
926.0,0.7207
927.0,0.7866
928.0,0.6355
929.0,0.5961
930.0,0.4962
931.0,0.4649
932.0,0.3624
933.0,0.3115
934.0,0.2066
935.0,0.3048
936.0,0.2124
937.0,0.2194
938.0,0.2602
939.0,0.4507
940.0,0.5231
941.0,0.4213
942.0,0.4695
943.0,0.3305
944.0,0.3305
945.0,0.4303
946.0,0.2487
947.0,0.4391
948.0,0.3291
949.0,0.5574
950.0,0.2049
951.0,0.5442
952.0,0.3329
953.0,0.4035
954.0,0.4663
955.0,0.4047
956.0,0.3842
957.0,0.3376
958.0,0.501
959.0,0.4272
960.0,0.4768
961.0,0.5135
962.0,0.4896
963.0,0.5449
964.0,0.5064
965.0,0.5401
966.0,0.5453
967.0,0.5444
968.0,0.6676
969.0,0.6997
970.0,0.6527
971.0,0.72
972.0,0.694
973.0,0.6311
974.0,0.6039
975.0,0.6158
976.0,0.5984
977.0,0.6539
978.0,0.6325
979.0,0.6532
980.0,0.6208
981.0,0.7146
982.0,0.6927
983.0,0.6711
984.0,0.7262
985.0,0.6897
986.0,0.7329
987.0,0.7246
988.0,0.7235
989.0,0.7271
990.0,0.7184
991.0,0.73
992.0,0.7336
993.0,0.7234
994.0,0.7328
995.0,0.731
996.0,0.7288
997.0,0.7293
998.0,0.7263
999.0,0.7234
1000.0,0.7198
1001.0,0.7271
1002.0,0.7133
1003.0,0.7147
1004.0,0.6989
1005.0,0.6711
1006.0,0.6985
1007.0,0.7126
1008.0,0.71
1009.0,0.7074
1010.0,0.7051
1011.0,0.709
1012.0,0.7041
1013.0,0.7069
1014.0,0.702
1015.0,0.6976
1016.0,0.6946
1017.0,0.6966
1018.0,0.6933
1019.0,0.6808
1020.0,0.69
1021.0,0.6887
1022.0,0.6842
1023.0,0.6916
1024.0,0.6851
1025.0,0.6904
1026.0,0.688
1027.0,0.6863
1028.0,0.6851
1029.0,0.6773
1030.0,0.6811
1031.0,0.6787
1032.0,0.6765
1033.0,0.6663
1034.0,0.6663
1035.0,0.6684
1036.0,0.6722
1037.0,0.6612
1038.0,0.6642
1039.0,0.664
1040.0,0.6613
1041.0,0.6642
1042.0,0.6596
1043.0,0.6576
1044.0,0.6601
1045.0,0.6513
1046.0,0.6443
1047.0,0.6502
1048.0,0.654
1049.0,0.6518
1050.0,0.6491
1051.0,0.6484
1052.0,0.646
1053.0,0.6412
1054.0,0.6429
1055.0,0.6436
1056.0,0.6417
1057.0,0.64
1058.0,0.6246
1059.0,0.6257
1060.0,0.6249
1061.0,0.6244
1062.0,0.6281
1063.0,0.6222
1064.0,0.6295
1065.0,0.6258
1066.0,0.6128
1067.0,0.621
1068.0,0.608
1069.0,0.5888
1070.0,0.6095
1071.0,0.6168
1072.0,0.6114
1073.0,0.6022
1074.0,0.6154
1075.0,0.5912
1076.0,0.6153
1077.0,0.6081
1078.0,0.5979
1079.0,0.6045
1080.0,0.599
1081.0,0.5827
1082.0,0.5865
1083.0,0.587
1084.0,0.5834
1085.0,0.5996
1086.0,0.5586
1087.0,0.5677
1088.0,0.5877
1089.0,0.5759
1090.0,0.5682
1091.0,0.5876
1092.0,0.5846
1093.0,0.5161
1094.0,0.5373
1095.0,0.534
1096.0,0.5177
1097.0,0.5708
1098.0,0.5114
1099.0,0.5302
1100.0,0.5029
1101.0,0.5061
1102.0,0.4889
1103.0,0.4883
1104.0,0.4885
1105.0,0.5202
1106.0,0.434
1107.0,0.5011
1108.0,0.4469
1109.0,0.4436
1110.0,0.4991
1111.0,0.3695
1112.0,0.4385
1113.0,0.3125
1114.0,0.3442
1115.0,0.2865
1116.0,0.2504
1117.0,0.1189
1118.0,0.2632
1119.0,0.1509
1120.0,0.1892
1121.0,0.2375
1122.0,0.118
1123.0,0.1706
1124.0,0.1443
1125.0,0.1833
1126.0,0.08229
1127.0,0.2051
1128.0,0.1422
1129.0,0.1472
1130.0,0.1076
1131.0,0.3445
1132.0,0.2789
1133.0,0.1997
1134.0,0.06819
1135.0,0.02511
1136.0,0.1749
1137.0,0.3437
1138.0,0.2489
1139.0,0.3304
1140.0,0.2917
1141.0,0.2365
1142.0,0.2629
1143.0,0.3562
1144.0,0.1473
1145.0,0.1917
1146.0,0.2069
1147.0,0.09283
1148.0,0.3086
1149.0,0.2598
1150.0,0.1586
1151.0,0.2473
1152.0,0.289
1153.0,0.2707
1154.0,0.1915
1155.0,0.3452
1156.0,0.3185
1157.0,0.3474
1158.0,0.3427
1159.0,0.359
1160.0,0.3207
1161.0,0.3718
1162.0,0.3752
1163.0,0.4695
1164.0,0.4167
1165.0,0.405
1166.0,0.3947
1167.0,0.4227
1168.0,0.4295
1169.0,0.4347
1170.0,0.4623
1171.0,0.4528
1172.0,0.4555
1173.0,0.4613
1174.0,0.3596
1175.0,0.4469
1176.0,0.4781
1177.0,0.4672
1178.0,0.3739
1179.0,0.4813
1180.0,0.4446
1181.0,0.4568
1182.0,0.3402
1183.0,0.4464
1184.0,0.4266
1185.0,0.4183
1186.0,0.473
1187.0,0.4574
1188.0,0.3472
1189.0,0.4281
1190.0,0.4625
1191.0,0.4502
1192.0,0.4676
1193.0,0.4524
1194.0,0.4633
1195.0,0.446
1196.0,0.4348
1197.0,0.4589
1198.0,0.4269
1199.0,0.3818
1200.0,0.4474
1201.0,0.4377
1202.0,0.4321
1203.0,0.4279
1204.0,0.3858
1205.0,0.4366
1206.0,0.4714
1207.0,0.4324
1208.0,0.4202
1209.0,0.4274
1210.0,0.441
1211.0,0.4273
1212.0,0.4292
1213.0,0.4595
1214.0,0.4356
1215.0,0.4294
1216.0,0.4579
1217.0,0.4493
1218.0,0.4545
1219.0,0.4504
1220.0,0.4545
1221.0,0.4571
1222.0,0.4475
1223.0,0.4447
1224.0,0.4443
1225.0,0.4542
1226.0,0.4552
1227.0,0.4289
1228.0,0.4557
1229.0,0.4551
1230.0,0.4491
1231.0,0.4564
1232.0,0.4539
1233.0,0.4451
1234.0,0.4546
1235.0,0.4527
1236.0,0.4552
1237.0,0.4515
1238.0,0.4537
1239.0,0.4479
1240.0,0.4493
1241.0,0.4489
1242.0,0.4464
1243.0,0.4427
1244.0,0.4463
1245.0,0.4479
1246.0,0.4453
1247.0,0.444
1248.0,0.4445
1249.0,0.4452
1250.0,0.443
1251.0,0.4383
1252.0,0.4371
1253.0,0.4359
1254.0,0.4334
1255.0,0.4373
1256.0,0.4294
1257.0,0.4279
1258.0,0.4324
1259.0,0.4235
1260.0,0.4249
1261.0,0.4097
1262.0,0.4021
1263.0,0.4031
1264.0,0.383
1265.0,0.4003
1266.0,0.3916
1267.0,0.3941
1268.0,0.3808
1269.0,0.2885
1270.0,0.3944
1271.0,0.4073
1272.0,0.4076
1273.0,0.4043
1274.0,0.4043
1275.0,0.4085
1276.0,0.4108
1277.0,0.4117
1278.0,0.4159
1279.0,0.4125
1280.0,0.4071
1281.0,0.3869
1282.0,0.3701
1283.0,0.3992
1284.0,0.4093
1285.0,0.4116
1286.0,0.4156
1287.0,0.412
1288.0,0.4112
1289.0,0.4034
1290.0,0.4071
1291.0,0.4119
1292.0,0.3971
1293.0,0.4064
1294.0,0.4042
1295.0,0.4045
1296.0,0.3929
1297.0,0.3774
1298.0,0.3953
1299.0,0.406
1300.0,0.3628
1301.0,0.3698
1302.0,0.3936
1303.0,0.356
1304.0,0.3221
1305.0,0.3872
1306.0,0.3881
1307.0,0.3229
1308.0,0.3539
1309.0,0.3862
1310.0,0.3175
1311.0,0.3434
1312.0,0.337
1313.0,0.3332
1314.0,0.3052
1315.0,0.3051
1316.0,0.3408
1317.0,0.325
1318.0,0.3456
1319.0,0.2927
1320.0,0.2788
1321.0,0.3168
1322.0,0.3228
1323.0,0.2622
1324.0,0.2871
1325.0,0.3367
1326.0,0.3012
1327.0,0.2904
1328.0,0.2567
1329.0,0.2093
1330.0,0.2633
1331.0,0.1809
1332.0,0.1792
1333.0,0.2423
1334.0,0.1986
1335.0,0.2606
1336.0,0.2164
1337.0,0.1989
1338.0,0.2132
1339.0,0.2099
1340.0,0.1992
1341.0,0.2058
1342.0,0.2155
1343.0,0.1734
1344.0,0.1047
1345.0,0.1453
1346.0,0.0933
1347.0,0.09811
1348.0,0.01268
1349.0,0.03653
1350.0,0.03264
1351.0,0.01439
1352.0,0.006748
1353.0,0.0007408
1354.0,0.001653
1355.0,5.544e-05
1356.0,0.0003912
1357.0,0.0005747
1358.0,6.207e-05
1359.0,2.098e-05
1360.0,4.048e-05
1361.0,4.204e-07
1362.0,3.472e-09
1363.0,6.346e-05
1364.0,3.198e-05
1365.0,3.601e-09
1366.0,0.0002087
1367.0,8.262e-05
1368.0,2.636e-10
1369.0,1.324e-05
1370.0,9.808e-06
1371.0,1.027e-06
1372.0,4.686e-05
1373.0,0.0004426
1374.0,0.001261
1375.0,0.002139
1376.0,0.00146
1377.0,0.000763
1378.0,0.0054
1379.0,0.0003384
1380.0,0.0006187
1381.0,2.449e-05
1382.0,4.713e-05
1383.0,1.218e-06
1384.0,1.722e-05
1385.0,2.927e-05
1386.0,5.447e-05
1387.0,0.001583
1388.0,4.057e-05
1389.0,0.003361
1390.0,0.002814
1391.0,0.002191
1392.0,0.0001891
1393.0,0.0007396
1394.0,0.0007561
1395.0,1.164e-05
1396.0,4.603e-07
1397.0,0.0003639
1398.0,0.006164
1399.0,0.004009
1400.0,3.386e-07
1401.0,6.705e-07
1402.0,0.006244
1403.0,0.008591
1404.0,0.002777
1405.0,8.131e-06
1406.0,0.008289
1407.0,0.0007514
1408.0,0.006675
1409.0,0.003153
1410.0,0.00223
1411.0,0.007454
1412.0,0.008538
1413.0,0.04892
1414.0,0.001711
1415.0,0.000989
1416.0,0.06208
1417.0,0.02699
1418.0,0.02996
1419.0,0.005201
1420.0,0.01881
1421.0,0.02178
1422.0,0.07783
1423.0,0.01775
1424.0,0.03116
1425.0,0.04749
1426.0,0.04797
1427.0,0.07359
1428.0,0.0124
1429.0,0.06084
1430.0,0.08975
1431.0,0.09507
1432.0,0.0101
1433.0,0.06597
1434.0,0.03645
1435.0,0.04573
1436.0,0.07239
1437.0,0.05621
1438.0,0.02832
1439.0,0.09133
1440.0,0.06995
1441.0,0.06022
1442.0,0.06417
1443.0,0.07031
1444.0,0.09429
1445.0,0.08126
1446.0,0.03901
1447.0,0.06223
1448.0,0.1505
1449.0,0.1388
1450.0,0.04622
1451.0,0.0212
1452.0,0.09091
1453.0,0.1141
1454.0,0.1701
1455.0,0.09014
1456.0,0.1252
1457.0,0.1517
1458.0,0.1644
1459.0,0.1963
1460.0,0.1109
1461.0,0.1215
1462.0,0.1656
1463.0,0.06353
1464.0,0.1843
1465.0,0.1136
1466.0,0.09488
1467.0,0.05856
1468.0,0.1074
1469.0,0.127
1470.0,0.0758
