interpolation:linear
wavelength,value
280.0,8.94e-25
280.5,3.3489999999999997e-23
281.0,1.9179999999999998e-22
281.5,6.941e-21
282.0,6.048e-20
282.5,2.466e-19
283.0,1.163e-18
283.5,2.266e-18
284.0,6.696e-17
284.5,2.458e-16
285.0,6.156e-16
285.5,5.117e-15
286.0,2.478e-14
286.5,1.516e-13
287.0,5.347e-13
287.5,2.606e-12
288.0,1.268e-11
288.5,5.241e-11
289.0,1.829e-10
289.5,7.111e-10
290.0,2.391e-09
290.5,5.693e-09
291.0,1.448e-08
291.5,5.043e-08
292.0,1.339e-07
292.5,2.068e-07
293.0,4.957e-07
293.5,1.382e-06
294.0,2.392e-06
294.5,4.317e-06
295.0,7.833e-06
295.5,1.968e-05
296.0,3.631e-05
296.5,4.843e-05
297.0,6.299e-05
297.5,0.0001581
298.0,0.0002351
298.5,0.0002259
299.0,0.0004754
299.5,0.0007205
300.0,0.0007546
300.5,0.001037
301.0,0.001709
301.5,0.0025
302.0,0.002054
302.5,0.003897
303.0,0.006718
303.5,0.008237
304.0,0.007573
304.5,0.01055
305.0,0.01449
305.5,0.01562
306.0,0.01484
306.5,0.01782
307.0,0.02421
307.5,0.0296
308.0,0.03101
308.5,0.03527
309.0,0.03138
309.5,0.03485
310.0,0.03458
310.5,0.05583
311.0,0.06933
311.5,0.06683
312.0,0.0646
312.5,0.0769
313.0,0.08264
313.5,0.08188
314.0,0.09939
314.5,0.08439
315.0,0.1105
315.5,0.09527
316.0,0.08031
316.5,0.1118
317.0,0.1396
317.5,0.1476
318.0,0.1129
318.5,0.1339
319.0,0.1557
319.5,0.1329
320.0,0.1624
320.5,0.1939
321.0,0.1654
321.5,0.1586
322.0,0.1789
322.5,0.156
323.0,0.1509
323.5,0.1758
324.0,0.2049
324.5,0.2123
325.0,0.1924
325.5,0.2418
326.0,0.2868
326.5,0.2827
327.0,0.2852
327.5,0.2794
328.0,0.2568
328.5,0.2624
329.0,0.3074
329.5,0.3477
330.0,0.3546
330.5,0.2909
331.0,0.2998
331.5,0.3014
332.0,0.3199
332.5,0.3146
333.0,0.3169
333.5,0.2928
334.0,0.302
334.5,0.3435
335.0,0.3206
335.5,0.3648
336.0,0.2534
336.5,0.3088
337.0,0.2563
337.5,0.321
338.0,0.3099
338.5,0.3506
339.0,0.3502
339.5,0.3368
340.0,0.4063
340.5,0.367
341.0,0.3529
341.5,0.328
342.0,0.3942
342.5,0.3708
343.0,0.4075
343.5,0.3838
344.0,0.2885
344.5,0.2862
345.0,0.3842
345.5,0.3949
346.0,0.3375
346.5,0.3838
347.0,0.4121
347.5,0.3339
348.0,0.3835
348.5,0.3853
349.0,0.3588
349.5,0.3563
350.0,0.4421
350.5,0.4679
351.0,0.4187
351.5,0.4062
352.0,0.4391
352.5,0.3444
353.0,0.4356
353.5,0.4675
354.0,0.487
354.5,0.4955
355.0,0.4951
355.5,0.4487
356.0,0.4709
356.5,0.4034
357.0,0.3343
357.5,0.4106
358.0,0.3264
358.5,0.2797
359.0,0.3924
359.5,0.5012
360.0,0.5329
360.5,0.4273
361.0,0.3906
361.5,0.4509
362.0,0.3908
362.5,0.5421
363.0,0.4881
363.5,0.4506
364.0,0.5525
364.5,0.4734
365.0,0.4834
365.5,0.6083
366.0,0.646
366.5,0.6084
367.0,0.594
367.5,0.618
368.0,0.5421
368.5,0.5483
369.0,0.5935
369.5,0.6342
370.0,0.6776
370.5,0.5272
371.0,0.5646
371.5,0.708
372.0,0.4711
372.5,0.5661
373.0,0.5771
373.5,0.3763
374.0,0.548
374.5,0.4548
375.0,0.4431
375.5,0.6631
376.0,0.551
376.5,0.5723
377.0,0.6072
377.5,0.7118
378.0,0.7734
378.5,0.7328
379.0,0.6062
379.5,0.5551
380.0,0.5785
380.5,0.7021
381.0,0.705
381.5,0.56
382.0,0.4983
382.5,0.4256
383.0,0.3948
383.5,0.381
384.0,0.4211
384.5,0.6206
385.0,0.6166
385.5,0.5754
386.0,0.4937
386.5,0.6498
387.0,0.541
387.5,0.6089
388.0,0.5633
388.5,0.5578
389.0,0.6033
389.5,0.7321
390.0,0.7361
390.5,0.6787
391.0,0.8004
391.5,0.8179
392.0,0.6902
392.5,0.619
393.0,0.345
393.5,0.2512
394.0,0.5121
394.5,0.6521
395.0,0.7971
395.5,0.8112
396.0,0.7045
396.5,0.4125
397.0,0.3101
397.5,0.6317
398.0,0.8863
398.5,0.9176
399.0,0.9949
399.5,0.9932
400.0,1.033
401.0,1.064
402.0,1.126
403.0,1.073
404.0,1.059
405.0,1.062
406.0,1.048
407.0,1.034
408.0,1.077
409.0,1.156
410.0,1.013
411.0,1.1
412.0,1.184
413.0,1.158
414.0,1.175
415.0,1.18
416.0,1.204
417.0,1.177
418.0,1.158
419.0,1.176
420.0,1.174
421.0,1.231
422.0,1.173
423.0,1.149
424.0,1.218
425.0,1.218
426.0,1.189
427.0,1.169
428.0,1.141
429.0,1.083
430.0,0.9493
431.0,0.9433
432.0,1.22
433.0,1.229
434.0,1.144
435.0,1.197
436.0,1.351
437.0,1.335
438.0,1.217
439.0,1.262
440.0,1.304
441.0,1.354
442.0,1.455
443.0,1.42
444.0,1.453
445.0,1.424
446.0,1.361
447.0,1.473
448.0,1.499
449.0,1.507
450.0,1.552
451.0,1.612
452.0,1.555
453.0,1.465
454.0,1.531
455.0,1.543
456.0,1.582
457.0,1.611
458.0,1.559
459.0,1.553
460.0,1.56
461.0,1.598
462.0,1.612
463.0,1.604
464.0,1.578
465.0,1.56
466.0,1.576
467.0,1.55
468.0,1.571
469.0,1.582
470.0,1.533
471.0,1.533
472.0,1.618
473.0,1.599
474.0,1.604
475.0,1.621
476.0,1.576
477.0,1.583
478.0,1.629
479.0,1.621
480.0,1.625
481.0,1.657
482.0,1.666
483.0,1.647
484.0,1.615
485.0,1.54
486.0,1.347
487.0,1.413
488.0,1.552
489.0,1.559
490.0,1.641
491.0,1.614
492.0,1.526
493.0,1.578
494.0,1.595
495.0,1.61
496.0,1.622
497.0,1.649
498.0,1.573
499.0,1.595
500.0,1.551
501.0,1.525
502.0,1.506
503.0,1.571
504.0,1.537
505.0,1.59
506.0,1.643
507.0,1.564
508.0,1.516
509.0,1.559
510.0,1.551
511.0,1.593
512.0,1.612
513.0,1.527
514.0,1.517
515.0,1.503
516.0,1.501
517.0,1.335
518.0,1.404
519.0,1.474
520.0,1.53
521.0,1.545
522.0,1.548
523.0,1.522
524.0,1.578
525.0,1.599
526.0,1.529
527.0,1.443
528.0,1.528
529.0,1.612
530.0,1.59
531.0,1.615
532.0,1.561
533.0,1.516
534.0,1.562
535.0,1.597
536.0,1.612
537.0,1.549
538.0,1.578
539.0,1.565
540.0,1.502
541.0,1.514
542.0,1.563
543.0,1.547
544.0,1.575
545.0,1.571
546.0,1.58
547.0,1.58
548.0,1.561
549.0,1.567
550.0,1.586
551.0,1.568
552.0,1.579
553.0,1.552
554.0,1.591
555.0,1.595
556.0,1.575
557.0,1.528
558.0,1.518
559.0,1.491
560.0,1.511
561.0,1.532
562.0,1.522
563.0,1.565
564.0,1.524
565.0,1.513
566.0,1.492
567.0,1.522
568.0,1.511
569.0,1.479
570.0,1.479
571.0,1.47
572.0,1.509
573.0,1.526
574.0,1.522
575.0,1.495
576.0,1.482
577.0,1.499
578.0,1.476
579.0,1.481
580.0,1.507
581.0,1.513
582.0,1.541
583.0,1.544
584.0,1.557
585.0,1.519
586.0,1.489
587.0,1.523
588.0,1.492
589.0,1.332
590.0,1.392
591.0,1.468
592.0,1.454
593.0,1.471
594.0,1.464
595.0,1.431
596.0,1.481
597.0,1.467
598.0,1.462
599.0,1.463
600.0,1.463
601.0,1.45
602.0,1.441
603.0,1.465
604.0,1.489
605.0,1.482
606.0,1.475
607.0,1.49
608.0,1.473
609.0,1.475
610.0,1.464
611.0,1.472
612.0,1.468
613.0,1.45
614.0,1.43
615.0,1.461
616.0,1.413
617.0,1.41
618.0,1.464
619.0,1.45
620.0,1.459
621.0,1.462
622.0,1.446
623.0,1.425
624.0,1.4
625.0,1.397
626.0,1.419
627.0,1.437
628.0,1.362
629.0,1.411
630.0,1.379
631.0,1.404
632.0,1.386
633.0,1.426
634.0,1.41
635.0,1.432
636.0,1.412
637.0,1.435
638.0,1.447
639.0,1.431
640.0,1.416
641.0,1.415
642.0,1.408
643.0,1.428
644.0,1.423
645.0,1.426
646.0,1.395
647.0,1.385
648.0,1.387
649.0,1.361
650.0,1.361
651.0,1.419
652.0,1.368
653.0,1.4
654.0,1.384
655.0,1.337
656.0,1.183
657.0,1.214
658.0,1.359
659.0,1.368
660.0,1.374
661.0,1.384
662.0,1.388
663.0,1.36
664.0,1.375
665.0,1.375
666.0,1.376
667.0,1.374
668.0,1.374
669.0,1.395
670.0,1.389
671.0,1.389
672.0,1.377
673.0,1.398
674.0,1.392
675.0,1.38
676.0,1.389
677.0,1.376
678.0,1.379
679.0,1.357
680.0,1.368
681.0,1.359
682.0,1.358
683.0,1.356
684.0,1.349
685.0,1.361
686.0,1.353
687.0,0.9868
688.0,1.114
689.0,1.117
690.0,1.157
691.0,1.203
692.0,1.234
693.0,1.226
694.0,1.216
695.0,1.256
696.0,1.258
697.0,1.321
698.0,1.301
699.0,1.279
700.0,1.264
701.0,1.254
702.0,1.26
703.0,1.263
704.0,1.298
705.0,1.3
706.0,1.297
707.0,1.298
708.0,1.301
709.0,1.3
710.0,1.301
711.0,1.299
712.0,1.294
713.0,1.282
714.0,1.287
715.0,1.25
716.0,1.252
717.0,1.118
718.0,1.033
719.0,0.9506
720.0,0.998
721.0,1.081
722.0,1.215
723.0,1.143
724.0,1.043
725.0,1.031
726.0,1.077
727.0,1.085
728.0,1.03
729.0,1.057
730.0,1.118
731.0,1.074
732.0,1.137
733.0,1.191
734.0,1.217
735.0,1.193
736.0,1.192
737.0,1.197
738.0,1.208
739.0,1.185
740.0,1.213
741.0,1.2
742.0,1.2
743.0,1.23
744.0,1.226
745.0,1.226
746.0,1.232
747.0,1.234
748.0,1.232
749.0,1.218
750.0,1.217
751.0,1.205
752.0,1.21
753.0,1.217
754.0,1.219
755.0,1.213
756.0,1.212
757.0,1.214
758.0,1.199
759.0,1.18
760.0,0.2892
761.0,0.1739
762.0,0.6946
763.0,0.4039
764.0,0.5563
765.0,0.6953
766.0,0.8098
767.0,0.9793
768.0,1.097
769.0,1.113
770.0,1.143
771.0,1.148
772.0,1.15
773.0,1.158
774.0,1.152
775.0,1.143
776.0,1.157
777.0,1.142
778.0,1.135
779.0,1.137
780.0,1.13
781.0,1.131
782.0,1.139
783.0,1.119
784.0,1.124
785.0,1.116
786.0,1.129
787.0,1.113
788.0,1.101
789.0,1.101
790.0,1.077
791.0,1.081
792.0,1.073
793.0,1.056
794.0,1.069
795.0,1.089
796.0,1.062
797.0,1.064
798.0,1.088
799.0,1.083
800.0,1.066
801.0,1.064
802.0,1.061
803.0,1.054
804.0,1.055
805.0,1.05
806.0,1.076
807.0,1.064
808.0,1.065
809.0,1.047
810.0,1.04
811.0,1.045
812.0,1.02
813.0,1.002
814.0,0.8979
815.0,0.892
816.0,0.8329
817.0,0.8461
818.0,0.8182
819.0,0.9004
820.0,0.8537
821.0,0.9784
822.0,0.9538
823.0,0.6803
824.0,0.9328
825.0,0.9628
826.0,0.9322
827.0,0.9776
828.0,0.8465
829.0,0.9256
830.0,0.9155
831.0,0.9181
832.0,0.8933
833.0,0.9412
834.0,0.9138
835.0,0.9915
836.0,0.9568
837.0,0.9939
838.0,0.9665
839.0,0.9784
840.0,0.999
841.0,0.9864
842.0,0.9863
843.0,0.9836
844.0,0.9712
845.0,1.002
846.0,0.9977
847.0,0.9785
848.0,0.9735
849.0,0.946
850.0,0.9062
851.0,0.9607
852.0,0.9535
853.0,0.917
854.0,0.7926
855.0,0.8698
856.0,0.951
857.0,0.9716
858.0,0.9648
859.0,0.9653
860.0,0.9668
861.0,0.9617
862.0,0.9767
863.0,0.9999
864.0,0.9499
865.0,0.9416
866.0,0.8467
867.0,0.8836
868.0,0.9616
869.0,0.9417
870.0,0.9685
871.0,0.9554
872.0,0.9521
873.0,0.9502
874.0,0.939
875.0,0.9201
876.0,0.9298
877.0,0.9392
878.0,0.9496
879.0,0.935
880.0,0.915
881.0,0.9018
882.0,0.9216
883.0,0.9241
884.0,0.9201
885.0,0.9271
886.0,0.8854
887.0,0.8935
888.0,0.9076
889.0,0.9164
890.0,0.9106
891.0,0.9082
892.0,0.8843
893.0,0.8596
894.0,0.8349
895.0,0.7959
896.0,0.7531
897.0,0.6566
898.0,0.7109
899.0,0.5528
900.0,0.7222
901.0,0.5788
902.0,0.6637
903.0,0.6753
904.0,0.8291
905.0,0.8037
906.0,0.7548
907.0,0.6276
908.0,0.6381
909.0,0.6843
910.0,0.6174
911.0,0.6508
912.0,0.6775
913.0,0.6272
914.0,0.6198
915.0,0.6706
916.0,0.5716
917.0,0.7117
918.0,0.5864
919.0,0.7216
920.0,0.7229
921.0,0.7503
922.0,0.6796
923.0,0.7244
924.0,0.6971
925.0,0.6822
926.0,0.6897
927.0,0.7637
928.0,0.5842
929.0,0.5397
930.0,0.4345
931.0,0.41
932.0,0.3057
933.0,0.2542
934.0,0.1516
935.0,0.2554
936.0,0.1671
937.0,0.1704
938.0,0.2065
939.0,0.3974
940.0,0.4709
941.0,0.3652
942.0,0.4166
943.0,0.2818
944.0,0.29
945.0,0.3749
946.0,0.2013
947.0,0.3793
948.0,0.2805
949.0,0.4972
950.0,0.1547
951.0,0.4879
952.0,0.2761
953.0,0.3474
954.0,0.416
955.0,0.3503
956.0,0.3355
957.0,0.2779
958.0,0.461
959.0,0.377
960.0,0.4221
961.0,0.4657
962.0,0.4417
963.0,0.5021
964.0,0.4624
965.0,0.4994
966.0,0.5013
967.0,0.4998
968.0,0.6457
969.0,0.6761
970.0,0.6245
971.0,0.7042
972.0,0.6757
973.0,0.599
974.0,0.5702
975.0,0.5876
976.0,0.5636
977.0,0.6304
978.0,0.6035
979.0,0.6286
980.0,0.5933
981.0,0.6999
982.0,0.6731
983.0,0.6485
984.0,0.717
985.0,0.6705
986.0,0.7271
987.0,0.7157
988.0,0.7144
989.0,0.7234
990.0,0.7099
991.0,0.7259
992.0,0.7299
993.0,0.7164
994.0,0.7294
995.0,0.7282
996.0,0.7254
997.0,0.7263
998.0,0.723
999.0,0.7203
1000.0,0.7159
1001.0,0.7241
1002.0,0.7068
1003.0,0.7116
1004.0,0.6949
1005.0,0.6685
1006.0,0.6951
1007.0,0.7096
1008.0,0.7063
1009.0,0.703
1010.0,0.7004
1011.0,0.7061
1012.0,0.7005
1013.0,0.7042
1014.0,0.6993
1015.0,0.6948
1016.0,0.6918
1017.0,0.6936
1018.0,0.6908
1019.0,0.677
1020.0,0.6873
1021.0,0.6862
1022.0,0.6813
1023.0,0.6886
1024.0,0.6807
1025.0,0.6878
1026.0,0.6852
1027.0,0.6835
1028.0,0.6822
1029.0,0.6743
1030.0,0.6786
1031.0,0.676
1032.0,0.674
1033.0,0.6638
1034.0,0.6639
1035.0,0.6659
1036.0,0.6695
1037.0,0.6586
1038.0,0.6616
1039.0,0.6613
1040.0,0.6587
1041.0,0.6614
1042.0,0.6568
1043.0,0.6548
1044.0,0.6572
1045.0,0.6484
1046.0,0.6413
1047.0,0.6471
1048.0,0.6508
1049.0,0.6485
1050.0,0.6457
1051.0,0.6449
1052.0,0.6424
1053.0,0.6374
1054.0,0.6389
1055.0,0.6394
1056.0,0.6374
1057.0,0.6355
1058.0,0.6201
1059.0,0.6209
1060.0,0.6201
1061.0,0.6194
1062.0,0.6229
1063.0,0.6169
1064.0,0.6241
1065.0,0.62
1066.0,0.6075
1067.0,0.6155
1068.0,0.6023
1069.0,0.5835
1070.0,0.6036
1071.0,0.6121
1072.0,0.6058
1073.0,0.5969
1074.0,0.6113
1075.0,0.5835
1076.0,0.611
1077.0,0.6017
1078.0,0.5909
1079.0,0.6009
1080.0,0.5925
1081.0,0.5748
1082.0,0.5817
1083.0,0.5829
1084.0,0.5742
1085.0,0.5936
1086.0,0.5462
1087.0,0.5604
1088.0,0.5829
1089.0,0.5677
1090.0,0.557
1091.0,0.5818
1092.0,0.5797
1093.0,0.4997
1094.0,0.5314
1095.0,0.5194
1096.0,0.4998
1097.0,0.5662
1098.0,0.4928
1099.0,0.5128
1100.0,0.4804
1101.0,0.4853
1102.0,0.4657
1103.0,0.4628
1104.0,0.4632
1105.0,0.5019
1106.0,0.3979
1107.0,0.4794
1108.0,0.4149
1109.0,0.414
1110.0,0.4763
1111.0,0.3345
1112.0,0.4102
1113.0,0.2731
1114.0,0.3037
1115.0,0.2522
1116.0,0.2088
1117.0,0.08509
1118.0,0.2243
1119.0,0.1179
1120.0,0.1486
1121.0,0.193
1122.0,0.08699
1123.0,0.1341
1124.0,0.1133
1125.0,0.1462
1126.0,0.05663
1127.0,0.1643
1128.0,0.1045
1129.0,0.1099
1130.0,0.07508
1131.0,0.2972
1132.0,0.2359
1133.0,0.1572
1134.0,0.04505
1135.0,0.01666
1136.0,0.1339
1137.0,0.2942
1138.0,0.209
1139.0,0.2974
1140.0,0.254
1141.0,0.1986
1142.0,0.2254
1143.0,0.3141
1144.0,0.1172
1145.0,0.1514
1146.0,0.1634
1147.0,0.06354
1148.0,0.2721
1149.0,0.2217
1150.0,0.1256
1151.0,0.2076
1152.0,0.2502
1153.0,0.24
1154.0,0.148
1155.0,0.3105
1156.0,0.2824
1157.0,0.3127
1158.0,0.3092
1159.0,0.3298
1160.0,0.2863
1161.0,0.3443
1162.0,0.3467
1163.0,0.4538
1164.0,0.3946
1165.0,0.3772
1166.0,0.3712
1167.0,0.4016
1168.0,0.407
1169.0,0.4148
1170.0,0.4466
1171.0,0.4362
1172.0,0.4416
1173.0,0.4457
1174.0,0.3301
1175.0,0.4336
1176.0,0.4709
1177.0,0.4558
1178.0,0.3514
1179.0,0.4745
1180.0,0.4299
1181.0,0.443
1182.0,0.3156
1183.0,0.4348
1184.0,0.4108
1185.0,0.3993
1186.0,0.4637
1187.0,0.4447
1188.0,0.3219
1189.0,0.415
1190.0,0.4532
1191.0,0.4354
1192.0,0.4589
1193.0,0.4416
1194.0,0.4539
1195.0,0.4329
1196.0,0.4193
1197.0,0.4522
1198.0,0.4165
1199.0,0.3625
1200.0,0.4364
1201.0,0.4237
1202.0,0.4196
1203.0,0.4163
1204.0,0.3687
1205.0,0.4269
1206.0,0.467
1207.0,0.4194
1208.0,0.4103
1209.0,0.4181
1210.0,0.4337
1211.0,0.4163
1212.0,0.4148
1213.0,0.4535
1214.0,0.423
1215.0,0.4158
1216.0,0.4518
1217.0,0.4415
1218.0,0.4484
1219.0,0.4436
1220.0,0.4486
1221.0,0.4522
1222.0,0.4414
1223.0,0.438
1224.0,0.4364
1225.0,0.4494
1226.0,0.4514
1227.0,0.4206
1228.0,0.4528
1229.0,0.4515
1230.0,0.4445
1231.0,0.4546
1232.0,0.452
1233.0,0.4398
1234.0,0.4535
1235.0,0.4511
1236.0,0.454
1237.0,0.449
1238.0,0.4525
1239.0,0.4467
1240.0,0.4483
1241.0,0.447
1242.0,0.4453
1243.0,0.4416
1244.0,0.445
1245.0,0.4468
1246.0,0.4441
1247.0,0.4427
1248.0,0.4428
1249.0,0.4438
1250.0,0.4413
1251.0,0.4362
1252.0,0.4356
1253.0,0.4333
1254.0,0.4298
1255.0,0.4355
1256.0,0.4254
1257.0,0.4235
1258.0,0.4297
1259.0,0.4174
1260.0,0.4192
1261.0,0.3998
1262.0,0.39
1263.0,0.3909
1264.0,0.366
1265.0,0.3883
1266.0,0.3767
1267.0,0.3812
1268.0,0.3649
1269.0,0.2494
1270.0,0.3807
1271.0,0.398
1272.0,0.3989
1273.0,0.3951
1274.0,0.3958
1275.0,0.4007
1276.0,0.4038
1277.0,0.4055
1278.0,0.4116
1279.0,0.4081
1280.0,0.4028
1281.0,0.3836
1282.0,0.3683
1283.0,0.397
1284.0,0.4067
1285.0,0.4092
1286.0,0.414
1287.0,0.409
1288.0,0.4085
1289.0,0.3982
1290.0,0.4047
1291.0,0.4099
1292.0,0.39
1293.0,0.4032
1294.0,0.4006
1295.0,0.3999
1296.0,0.3849
1297.0,0.3666
1298.0,0.3896
1299.0,0.4032
1300.0,0.3499
1301.0,0.3589
1302.0,0.3882
1303.0,0.3444
1304.0,0.3019
1305.0,0.3809
1306.0,0.3814
1307.0,0.3055
1308.0,0.3437
1309.0,0.3792
1310.0,0.3001
1311.0,0.3313
1312.0,0.3237
1313.0,0.3187
1314.0,0.2882
1315.0,0.2862
1316.0,0.3274
1317.0,0.3111
1318.0,0.3348
1319.0,0.2713
1320.0,0.2608
1321.0,0.3005
1322.0,0.3049
1323.0,0.2374
1324.0,0.2661
1325.0,0.3232
1326.0,0.2825
1327.0,0.2707
1328.0,0.236
1329.0,0.184
1330.0,0.236
1331.0,0.1507
1332.0,0.1528
1333.0,0.2105
1334.0,0.1749
1335.0,0.2364
1336.0,0.1911
1337.0,0.1715
1338.0,0.1852
1339.0,0.1833
1340.0,0.1763
1341.0,0.1768
1342.0,0.1854
1343.0,0.1358
1344.0,0.08099
1345.0,0.1157
1346.0,0.06446
1347.0,0.06672
1348.0,0.005801
1349.0,0.01909
1350.0,0.01864
1351.0,0.005878
1352.0,0.002072
1353.0,0.0001454
1354.0,0.000412
1355.0,6.247e-06
1356.0,7.301e-05
1357.0,0.00011
1358.0,7.214e-06
1359.0,1.442e-06
1360.0,3.892e-06
1361.0,1.184e-08
1362.0,5.105e-11
1363.0,5.893e-06
1364.0,2.569e-06
1365.0,3.026e-11
1366.0,2.272e-05
1367.0,8.8e-06
1368.0,6.695e-13
1369.0,9.935e-07
1370.0,5.942e-07
1371.0,4.364e-08
1372.0,4.864e-06
1373.0,7.08e-05
1374.0,0.0002646
1375.0,0.000478
1376.0,0.0003669
1377.0,0.0001772
1378.0,0.001545
1379.0,7.552e-05
1380.0,0.0001231
1381.0,3.749e-06
1382.0,4.629e-06
1383.0,8.521e-08
1384.0,1.209e-06
1385.0,3.548e-06
1386.0,4.699e-06
1387.0,0.0003075
1388.0,6.386e-06
1389.0,0.0008309
1390.0,0.000713
1391.0,0.000503
1392.0,3.595e-05
1393.0,0.0001684
1394.0,0.0001215
1395.0,1.186e-06
1396.0,1.497e-08
1397.0,7.34e-05
1398.0,0.001766
1399.0,0.001121
1400.0,8.337e-09
1401.0,2.449e-08
1402.0,0.002357
1403.0,0.003113
1404.0,0.0009718
1405.0,6.83e-07
1406.0,0.002745
1407.0,0.000234
1408.0,0.002217
1409.0,0.0008734
1410.0,0.0006418
1411.0,0.002714
1412.0,0.003395
1413.0,0.02755
1414.0,0.0004978
1415.0,0.0002587
1416.0,0.04009
1417.0,0.01395
1418.0,0.016
1419.0,0.002578
1420.0,0.009868
1421.0,0.01079
1422.0,0.05177
1423.0,0.01054
1424.0,0.01932
1425.0,0.02902
1426.0,0.03133
1427.0,0.05388
1428.0,0.005566
1429.0,0.04192
1430.0,0.06744
1431.0,0.07308
1432.0,0.004435
1433.0,0.04791
1434.0,0.02509
1435.0,0.02751
1436.0,0.0492
1437.0,0.03773
1438.0,0.01702
1439.0,0.0652
1440.0,0.04905
1441.0,0.0392
1442.0,0.04309
1443.0,0.05135
1444.0,0.06995
1445.0,0.05693
1446.0,0.02629
1447.0,0.04136
1448.0,0.1241
1449.0,0.1099
1450.0,0.0306
1451.0,0.01285
1452.0,0.06825
1453.0,0.08834
1454.0,0.1442
1455.0,0.07077
1456.0,0.09625
1457.0,0.1247
1458.0,0.1428
1459.0,0.1695
1460.0,0.09056
1461.0,0.0964
1462.0,0.1378
1463.0,0.04697
1464.0,0.1598
1465.0,0.09698
1466.0,0.0715
