interpolation:linear
wavelength,value
280.0,6.737e-23
280.5,1.9170000000000002e-21
281.0,9.933e-21
281.5,2.755e-19
282.0,2.043e-18
282.5,7.469e-18
283.0,3.125e-17
283.5,5.737e-17
284.0,1.285e-15
284.5,4.156e-15
285.0,9.08e-15
285.5,6.426e-14
286.0,2.915e-13
286.5,1.56e-12
287.0,4.985e-12
287.5,2.134e-11
288.0,8.819e-11
288.5,3.344e-10
289.0,1.067e-09
289.5,3.761e-09
290.0,1.167e-08
290.5,2.597e-08
291.0,6.091e-08
291.5,1.914e-07
292.0,4.672e-07
292.5,6.883e-07
293.0,1.553e-06
293.5,3.986e-06
294.0,6.525e-06
294.5,1.129e-05
295.0,1.943e-05
295.5,4.57e-05
296.0,8.063e-05
296.5,0.0001031
297.0,0.0001296
297.5,0.0003104
298.0,0.0004442
298.5,0.0004148
299.0,0.0008503
299.5,0.001235
300.0,0.001265
300.5,0.001701
301.0,0.002719
301.5,0.003877
302.0,0.003146
302.5,0.00584
303.0,0.009802
303.5,0.01184
304.0,0.0108
304.5,0.01479
305.0,0.01984
305.5,0.0211
306.0,0.01992
306.5,0.02372
307.0,0.03168
307.5,0.03814
308.0,0.03982
308.5,0.04495
309.0,0.03975
309.5,0.04345
310.0,0.0428
310.5,0.06881
311.0,0.08493
311.5,0.08161
312.0,0.07798
312.5,0.09213
313.0,0.0986
313.5,0.09792
314.0,0.1178
314.5,0.09902
315.0,0.1294
315.5,0.1119
316.0,0.09358
316.5,0.1293
317.0,0.1615
317.5,0.1709
318.0,0.13
318.5,0.1531
319.0,0.1772
319.5,0.152
320.0,0.1858
320.5,0.2201
321.0,0.1865
321.5,0.1786
322.0,0.2026
322.5,0.1765
323.0,0.1699
323.5,0.1965
324.0,0.2287
324.5,0.2374
325.0,0.2159
325.5,0.2703
326.0,0.3191
326.5,0.3135
327.0,0.3164
327.5,0.3102
328.0,0.2859
328.5,0.2907
329.0,0.3393
329.5,0.3833
330.0,0.3909
330.5,0.3212
331.0,0.3311
331.5,0.3321
332.0,0.3514
332.5,0.3451
333.0,0.3477
333.5,0.3216
334.0,0.3316
334.5,0.3762
335.0,0.3507
335.5,0.3986
336.0,0.2767
336.5,0.3373
337.0,0.2801
337.5,0.3506
338.0,0.3379
338.5,0.3818
339.0,0.3811
339.5,0.3664
340.0,0.442
340.5,0.3991
341.0,0.3832
341.5,0.356
342.0,0.4276
342.5,0.402
343.0,0.4416
343.5,0.4158
344.0,0.3126
344.5,0.3098
345.0,0.4155
345.5,0.4269
346.0,0.3646
346.5,0.4144
347.0,0.4448
347.5,0.3602
348.0,0.4135
348.5,0.4153
349.0,0.3866
349.5,0.3836
350.0,0.4758
350.5,0.5033
351.0,0.4502
351.5,0.4367
352.0,0.4718
352.5,0.3699
353.0,0.4675
353.5,0.5016
354.0,0.5224
354.5,0.5313
355.0,0.5307
355.5,0.4807
356.0,0.5043
356.5,0.4318
357.0,0.3578
357.5,0.4392
358.0,0.349
358.5,0.2991
359.0,0.4194
359.5,0.5355
360.0,0.5692
360.5,0.4562
361.0,0.4169
361.5,0.4809
362.0,0.4167
362.5,0.5777
363.0,0.5199
363.5,0.4798
364.0,0.588
364.5,0.5037
365.0,0.5142
365.5,0.6467
366.0,0.6866
366.5,0.6464
367.0,0.6309
367.5,0.6561
368.0,0.5754
368.5,0.5817
369.0,0.6295
369.5,0.6724
370.0,0.7183
370.5,0.5586
371.0,0.598
371.5,0.7498
372.0,0.4987
372.5,0.5991
373.0,0.6105
373.5,0.398
374.0,0.5794
374.5,0.4807
375.0,0.4682
375.5,0.7005
376.0,0.5819
376.5,0.6042
377.0,0.6408
377.5,0.7511
378.0,0.8159
378.5,0.7728
379.0,0.6392
379.5,0.5852
380.0,0.6096
380.5,0.7397
381.0,0.7425
381.5,0.5896
382.0,0.5245
382.5,0.4478
383.0,0.4153
383.5,0.4006
384.0,0.4427
384.5,0.6522
385.0,0.6479
385.5,0.6043
386.0,0.5185
386.5,0.6821
387.0,0.5678
387.5,0.6389
388.0,0.5909
388.5,0.585
389.0,0.6326
389.5,0.7674
390.0,0.7714
390.5,0.711
391.0,0.8383
391.5,0.8565
392.0,0.7226
392.5,0.6479
393.0,0.361
393.5,0.2628
394.0,0.5355
394.5,0.6819
395.0,0.8333
395.5,0.8479
396.0,0.7362
396.5,0.4309
397.0,0.3239
397.5,0.6596
398.0,0.9253
398.5,0.9578
399.0,1.038
399.5,1.036
400.0,1.078
401.0,1.11
402.0,1.174
403.0,1.117
404.0,1.103
405.0,1.106
406.0,1.09
407.0,1.075
408.0,1.12
409.0,1.201
410.0,1.052
411.0,1.142
412.0,1.229
413.0,1.201
414.0,1.218
415.0,1.224
416.0,1.248
417.0,1.22
418.0,1.2
419.0,1.218
420.0,1.215
421.0,1.274
422.0,1.213
423.0,1.188
424.0,1.259
425.0,1.259
426.0,1.228
427.0,1.207
428.0,1.178
429.0,1.117
430.0,0.9795
431.0,0.9731
432.0,1.258
433.0,1.267
434.0,1.179
435.0,1.234
436.0,1.392
437.0,1.374
438.0,1.253
439.0,1.299
440.0,1.342
441.0,1.393
442.0,1.496
443.0,1.46
444.0,1.494
445.0,1.464
446.0,1.398
447.0,1.513
448.0,1.54
449.0,1.547
450.0,1.593
451.0,1.654
452.0,1.596
453.0,1.503
454.0,1.57
455.0,1.582
456.0,1.622
457.0,1.651
458.0,1.598
459.0,1.591
460.0,1.598
461.0,1.637
462.0,1.651
463.0,1.642
464.0,1.616
465.0,1.596
466.0,1.613
467.0,1.586
468.0,1.607
469.0,1.617
470.0,1.568
471.0,1.568
472.0,1.654
473.0,1.635
474.0,1.64
475.0,1.657
476.0,1.611
477.0,1.618
478.0,1.665
479.0,1.656
480.0,1.66
481.0,1.692
482.0,1.701
483.0,1.681
484.0,1.648
485.0,1.571
486.0,1.374
487.0,1.441
488.0,1.582
489.0,1.59
490.0,1.673
491.0,1.645
492.0,1.555
493.0,1.608
494.0,1.625
495.0,1.64
496.0,1.652
497.0,1.679
498.0,1.602
499.0,1.625
500.0,1.58
501.0,1.553
502.0,1.534
503.0,1.6
504.0,1.566
505.0,1.619
506.0,1.673
507.0,1.593
508.0,1.543
509.0,1.586
510.0,1.578
511.0,1.621
512.0,1.639
513.0,1.553
514.0,1.543
515.0,1.529
516.0,1.526
517.0,1.357
518.0,1.428
519.0,1.499
520.0,1.555
521.0,1.571
522.0,1.574
523.0,1.547
524.0,1.604
525.0,1.625
526.0,1.554
527.0,1.466
528.0,1.553
529.0,1.638
530.0,1.616
531.0,1.642
532.0,1.587
533.0,1.541
534.0,1.587
535.0,1.622
536.0,1.638
537.0,1.574
538.0,1.602
539.0,1.59
540.0,1.525
541.0,1.538
542.0,1.588
543.0,1.571
544.0,1.6
545.0,1.596
546.0,1.605
547.0,1.604
548.0,1.585
549.0,1.59
550.0,1.61
551.0,1.591
552.0,1.603
553.0,1.576
554.0,1.614
555.0,1.619
556.0,1.599
557.0,1.551
558.0,1.54
559.0,1.513
560.0,1.533
561.0,1.555
562.0,1.545
563.0,1.589
564.0,1.548
565.0,1.536
566.0,1.515
567.0,1.545
568.0,1.535
569.0,1.504
570.0,1.503
571.0,1.494
572.0,1.534
573.0,1.551
574.0,1.548
575.0,1.521
576.0,1.507
577.0,1.524
578.0,1.5
579.0,1.505
580.0,1.53
581.0,1.536
582.0,1.564
583.0,1.566
584.0,1.579
585.0,1.541
586.0,1.51
587.0,1.545
588.0,1.514
589.0,1.355
590.0,1.416
591.0,1.492
592.0,1.478
593.0,1.495
594.0,1.487
595.0,1.455
596.0,1.503
597.0,1.49
598.0,1.483
599.0,1.484
600.0,1.484
601.0,1.471
602.0,1.461
603.0,1.485
604.0,1.509
605.0,1.502
606.0,1.495
607.0,1.509
608.0,1.492
609.0,1.494
610.0,1.483
611.0,1.491
612.0,1.486
613.0,1.468
614.0,1.447
615.0,1.478
616.0,1.429
617.0,1.427
618.0,1.481
619.0,1.467
620.0,1.476
621.0,1.479
622.0,1.463
623.0,1.442
624.0,1.417
625.0,1.414
626.0,1.436
627.0,1.454
628.0,1.385
629.0,1.43
630.0,1.398
631.0,1.421
632.0,1.403
633.0,1.442
634.0,1.426
635.0,1.447
636.0,1.427
637.0,1.449
638.0,1.462
639.0,1.445
640.0,1.43
641.0,1.429
642.0,1.422
643.0,1.441
644.0,1.436
645.0,1.439
646.0,1.409
647.0,1.399
648.0,1.402
649.0,1.376
650.0,1.374
651.0,1.432
652.0,1.383
653.0,1.413
654.0,1.397
655.0,1.35
656.0,1.193
657.0,1.225
658.0,1.371
659.0,1.38
660.0,1.385
661.0,1.395
662.0,1.4
663.0,1.372
664.0,1.386
665.0,1.385
666.0,1.386
667.0,1.384
668.0,1.384
669.0,1.405
670.0,1.399
671.0,1.398
672.0,1.386
673.0,1.407
674.0,1.402
675.0,1.389
676.0,1.398
677.0,1.384
678.0,1.388
679.0,1.366
680.0,1.377
681.0,1.368
682.0,1.366
683.0,1.364
684.0,1.357
685.0,1.369
686.0,1.361
687.0,1.02
688.0,1.139
689.0,1.141
690.0,1.179
691.0,1.22
692.0,1.248
693.0,1.24
694.0,1.231
695.0,1.268
696.0,1.27
697.0,1.33
698.0,1.31
699.0,1.291
700.0,1.275
701.0,1.266
702.0,1.271
703.0,1.273
704.0,1.307
705.0,1.31
706.0,1.306
707.0,1.306
708.0,1.309
709.0,1.307
710.0,1.31
711.0,1.307
712.0,1.301
713.0,1.29
714.0,1.294
715.0,1.258
716.0,1.26
717.0,1.136
718.0,1.052
719.0,0.969
720.0,1.018
721.0,1.096
722.0,1.225
723.0,1.156
724.0,1.059
725.0,1.049
726.0,1.094
727.0,1.1
728.0,1.048
729.0,1.072
730.0,1.133
731.0,1.09
732.0,1.149
733.0,1.201
734.0,1.225
735.0,1.202
736.0,1.201
737.0,1.206
738.0,1.215
739.0,1.191
740.0,1.219
741.0,1.206
742.0,1.205
743.0,1.235
744.0,1.231
745.0,1.23
746.0,1.236
747.0,1.239
748.0,1.236
749.0,1.222
750.0,1.222
751.0,1.21
752.0,1.215
753.0,1.221
754.0,1.224
755.0,1.217
756.0,1.217
757.0,1.219
758.0,1.204
759.0,1.185
760.0,0.3262
761.0,0.2044
762.0,0.7277
763.0,0.443
764.0,0.5941
765.0,0.7285
766.0,0.8351
767.0,0.9969
768.0,1.107
769.0,1.121
770.0,1.148
771.0,1.153
772.0,1.154
773.0,1.162
774.0,1.156
775.0,1.147
776.0,1.161
777.0,1.146
778.0,1.139
779.0,1.14
780.0,1.134
781.0,1.135
782.0,1.142
783.0,1.122
784.0,1.128
785.0,1.12
786.0,1.133
787.0,1.117
788.0,1.106
789.0,1.106
790.0,1.083
791.0,1.086
792.0,1.078
793.0,1.061
794.0,1.072
795.0,1.092
796.0,1.068
797.0,1.07
798.0,1.092
799.0,1.087
800.0,1.071
801.0,1.069
802.0,1.066
803.0,1.059
804.0,1.06
805.0,1.054
806.0,1.08
807.0,1.068
808.0,1.068
809.0,1.051
810.0,1.045
811.0,1.051
812.0,1.027
813.0,1.01
814.0,0.9107
815.0,0.9046
816.0,0.8456
817.0,0.8582
818.0,0.8311
819.0,0.9097
820.0,0.8646
821.0,0.9844
822.0,0.9608
823.0,0.6962
824.0,0.9417
825.0,0.9692
826.0,0.9403
827.0,0.9839
828.0,0.8579
829.0,0.9332
830.0,0.9236
831.0,0.926
832.0,0.902
833.0,0.9472
834.0,0.9216
835.0,0.9959
836.0,0.9636
837.0,0.9981
838.0,0.9716
839.0,0.9823
840.0,1.003
841.0,0.9905
842.0,0.9897
843.0,0.9862
844.0,0.9743
845.0,1.005
846.0,1.0
847.0,0.9806
848.0,0.9759
849.0,0.9483
850.0,0.9084
851.0,0.9634
852.0,0.956
853.0,0.9192
854.0,0.7946
855.0,0.8717
856.0,0.9533
857.0,0.9737
858.0,0.967
859.0,0.9673
860.0,0.9687
861.0,0.9636
862.0,0.9786
863.0,1.002
864.0,0.9517
865.0,0.9434
866.0,0.8483
867.0,0.8853
868.0,0.9634
869.0,0.9434
870.0,0.9703
871.0,0.9572
872.0,0.9538
873.0,0.9519
874.0,0.9406
875.0,0.9217
876.0,0.9314
877.0,0.9408
878.0,0.9513
879.0,0.9367
880.0,0.9167
881.0,0.9036
882.0,0.9234
883.0,0.9258
884.0,0.9218
885.0,0.9289
886.0,0.8876
887.0,0.8953
888.0,0.9098
889.0,0.9181
890.0,0.9129
891.0,0.9101
892.0,0.887
893.0,0.8633
894.0,0.8404
895.0,0.8037
896.0,0.7619
897.0,0.6681
898.0,0.721
899.0,0.5654
900.0,0.7303
901.0,0.5917
902.0,0.6725
903.0,0.6861
904.0,0.8345
905.0,0.8102
906.0,0.7619
907.0,0.639
908.0,0.649
909.0,0.6932
910.0,0.6303
911.0,0.6617
912.0,0.6875
913.0,0.6405
914.0,0.6322
915.0,0.6831
916.0,0.5842
917.0,0.7216
918.0,0.5993
919.0,0.7306
920.0,0.7298
921.0,0.7566
922.0,0.6888
923.0,0.7304
924.0,0.7065
925.0,0.6916
926.0,0.699
927.0,0.7708
928.0,0.5992
929.0,0.5562
930.0,0.4522
931.0,0.4258
932.0,0.3218
933.0,0.2702
934.0,0.1665
935.0,0.2694
936.0,0.1796
937.0,0.1838
938.0,0.2213
939.0,0.4127
940.0,0.4861
941.0,0.3812
942.0,0.432
943.0,0.2956
944.0,0.3015
945.0,0.3907
946.0,0.2145
947.0,0.3963
948.0,0.294
949.0,0.5149
950.0,0.1682
951.0,0.5043
952.0,0.2919
953.0,0.3633
954.0,0.4305
955.0,0.3658
956.0,0.3489
957.0,0.2945
958.0,0.4725
959.0,0.3912
960.0,0.4378
961.0,0.4795
962.0,0.4554
963.0,0.5145
964.0,0.475
965.0,0.5112
966.0,0.514
967.0,0.5127
968.0,0.6521
969.0,0.6833
970.0,0.6328
971.0,0.709
972.0,0.6812
973.0,0.6085
974.0,0.5801
975.0,0.5959
976.0,0.5739
977.0,0.6373
978.0,0.612
979.0,0.6359
980.0,0.6014
981.0,0.7044
982.0,0.679
983.0,0.6553
984.0,0.7198
985.0,0.6764
986.0,0.7289
987.0,0.7185
988.0,0.7172
989.0,0.7245
990.0,0.7126
991.0,0.7272
992.0,0.731
993.0,0.7186
994.0,0.7305
995.0,0.729
996.0,0.7264
997.0,0.7272
998.0,0.724
999.0,0.7213
1000.0,0.7171
1001.0,0.7251
1002.0,0.7089
1003.0,0.7125
1004.0,0.6961
1005.0,0.6693
1006.0,0.6962
1007.0,0.7106
1008.0,0.7074
1009.0,0.7044
1010.0,0.7018
1011.0,0.707
1012.0,0.7016
1013.0,0.7051
1014.0,0.7002
1015.0,0.6957
1016.0,0.6926
1017.0,0.6946
1018.0,0.6915
1019.0,0.6782
1020.0,0.6881
1021.0,0.687
1022.0,0.6822
1023.0,0.6895
1024.0,0.682
1025.0,0.6886
1026.0,0.6861
1027.0,0.6844
1028.0,0.6831
1029.0,0.6752
1030.0,0.6793
1031.0,0.6768
1032.0,0.6747
1033.0,0.6646
1034.0,0.6646
1035.0,0.6667
1036.0,0.6704
1037.0,0.6594
1038.0,0.6624
1039.0,0.6621
1040.0,0.6595
1041.0,0.6623
1042.0,0.6577
1043.0,0.6557
1044.0,0.6581
1045.0,0.6493
1046.0,0.6422
1047.0,0.6481
1048.0,0.6518
1049.0,0.6496
1050.0,0.6467
1051.0,0.646
1052.0,0.6435
1053.0,0.6386
1054.0,0.6401
1055.0,0.6407
1056.0,0.6387
1057.0,0.637
1058.0,0.6215
1059.0,0.6224
1060.0,0.6216
1061.0,0.621
1062.0,0.6245
1063.0,0.6185
1064.0,0.6258
1065.0,0.6218
1066.0,0.6091
1067.0,0.6172
1068.0,0.6041
1069.0,0.5852
1070.0,0.6054
1071.0,0.6136
1072.0,0.6075
1073.0,0.5985
1074.0,0.6126
1075.0,0.5859
1076.0,0.6124
1077.0,0.6037
1078.0,0.5931
1079.0,0.602
1080.0,0.5945
1081.0,0.5772
1082.0,0.5832
1083.0,0.5842
1084.0,0.577
1085.0,0.5955
1086.0,0.5499
1087.0,0.5627
1088.0,0.5844
1089.0,0.5702
1090.0,0.5604
1091.0,0.5836
1092.0,0.5812
1093.0,0.5046
1094.0,0.5332
1095.0,0.5238
1096.0,0.5052
1097.0,0.5676
1098.0,0.4984
1099.0,0.5181
1100.0,0.4871
1101.0,0.4915
1102.0,0.4726
1103.0,0.4704
1104.0,0.4708
1105.0,0.5074
1106.0,0.4085
1107.0,0.4859
1108.0,0.4243
1109.0,0.4227
1110.0,0.4832
1111.0,0.3446
1112.0,0.4185
1113.0,0.2842
1114.0,0.3154
1115.0,0.2621
1116.0,0.2204
1117.0,0.09408
1118.0,0.2354
1119.0,0.127
1120.0,0.1599
1121.0,0.2057
1122.0,0.0955
1123.0,0.1442
1124.0,0.1219
1125.0,0.1565
1126.0,0.06351
1127.0,0.1758
1128.0,0.1148
1129.0,0.1202
1130.0,0.08368
1131.0,0.311
1132.0,0.2482
1133.0,0.1691
1134.0,0.05106
1135.0,0.01881
1136.0,0.1453
1137.0,0.3087
1138.0,0.2204
1139.0,0.3071
1140.0,0.2649
1141.0,0.2094
1142.0,0.2362
1143.0,0.3264
1144.0,0.1255
1145.0,0.1627
1146.0,0.1756
1147.0,0.07137
1148.0,0.2828
1149.0,0.2326
1150.0,0.1345
1151.0,0.2189
1152.0,0.2615
1153.0,0.249
1154.0,0.16
1155.0,0.3207
1156.0,0.2929
1157.0,0.3228
1158.0,0.319
1159.0,0.3384
1160.0,0.2962
1161.0,0.3523
1162.0,0.355
1163.0,0.4586
1164.0,0.4011
1165.0,0.3854
1166.0,0.378
1167.0,0.4078
1168.0,0.4137
1169.0,0.4208
1170.0,0.4514
1171.0,0.4411
1172.0,0.4457
1173.0,0.4504
1174.0,0.3386
1175.0,0.4376
1176.0,0.4731
1177.0,0.4592
1178.0,0.3578
1179.0,0.4765
1180.0,0.4343
1181.0,0.4472
1182.0,0.3226
1183.0,0.4383
1184.0,0.4155
1185.0,0.4049
1186.0,0.4666
1187.0,0.4485
1188.0,0.3292
1189.0,0.4189
1190.0,0.456
1191.0,0.4399
1192.0,0.4615
1193.0,0.4449
1194.0,0.4568
1195.0,0.4369
1196.0,0.4239
1197.0,0.4543
1198.0,0.4196
1199.0,0.3682
1200.0,0.4397
1201.0,0.4279
1202.0,0.4233
1203.0,0.4198
1204.0,0.3737
1205.0,0.4298
1206.0,0.4683
1207.0,0.4233
1208.0,0.4133
1209.0,0.4209
1210.0,0.4359
1211.0,0.4195
1212.0,0.4192
1213.0,0.4553
1214.0,0.4268
1215.0,0.4199
1216.0,0.4537
1217.0,0.4439
1218.0,0.4502
1219.0,0.4457
1220.0,0.4504
1221.0,0.4537
1222.0,0.4433
1223.0,0.44
1224.0,0.4388
1225.0,0.4509
1226.0,0.4526
1227.0,0.4231
1228.0,0.4537
1229.0,0.4526
1230.0,0.4459
1231.0,0.4551
1232.0,0.4526
1233.0,0.4414
1234.0,0.4538
1235.0,0.4516
1236.0,0.4544
1237.0,0.4498
1238.0,0.4529
1239.0,0.4471
1240.0,0.4486
1241.0,0.4475
1242.0,0.4456
1243.0,0.4419
1244.0,0.4454
1245.0,0.4471
1246.0,0.4445
1247.0,0.4431
1248.0,0.4433
1249.0,0.4442
1250.0,0.4418
1251.0,0.4369
1252.0,0.4361
1253.0,0.4341
1254.0,0.4309
1255.0,0.4361
1256.0,0.4266
1257.0,0.4249
1258.0,0.4306
1259.0,0.4193
1260.0,0.421
1261.0,0.4029
1262.0,0.3938
1263.0,0.3947
1264.0,0.3712
1265.0,0.392
1266.0,0.3813
1267.0,0.3852
1268.0,0.3698
1269.0,0.261
1270.0,0.3849
1271.0,0.4009
1272.0,0.4016
1273.0,0.398
1274.0,0.3984
1275.0,0.4031
1276.0,0.406
1277.0,0.4074
1278.0,0.4129
1279.0,0.4094
1280.0,0.4041
1281.0,0.3846
1282.0,0.3689
1283.0,0.3976
1284.0,0.4075
1285.0,0.4099
1286.0,0.4145
1287.0,0.4099
1288.0,0.4093
1289.0,0.3998
1290.0,0.4055
1291.0,0.4105
1292.0,0.3922
1293.0,0.4042
1294.0,0.4017
1295.0,0.4013
1296.0,0.3874
1297.0,0.3699
1298.0,0.3914
1299.0,0.4041
1300.0,0.3538
1301.0,0.3622
1302.0,0.3899
1303.0,0.3479
1304.0,0.3078
1305.0,0.3828
1306.0,0.3835
1307.0,0.3106
1308.0,0.3467
1309.0,0.3814
1310.0,0.3052
1311.0,0.3349
1312.0,0.3276
1313.0,0.323
1314.0,0.2931
1315.0,0.2918
1316.0,0.3314
1317.0,0.3152
1318.0,0.338
1319.0,0.2776
1320.0,0.266
1321.0,0.3053
1322.0,0.3102
1323.0,0.2446
1324.0,0.2722
1325.0,0.3273
1326.0,0.288
1327.0,0.2765
1328.0,0.242
1329.0,0.1912
1330.0,0.244
1331.0,0.1592
1332.0,0.1603
1333.0,0.2197
1334.0,0.1815
1335.0,0.2435
1336.0,0.1984
1337.0,0.1792
1338.0,0.1933
1339.0,0.191
1340.0,0.1828
1341.0,0.1852
1342.0,0.1941
1343.0,0.1463
1344.0,0.0874
1345.0,0.124
1346.0,0.07221
1347.0,0.07517
1348.0,0.007347
1349.0,0.02329
1350.0,0.02216
1351.0,0.00773
1352.0,0.002989
1353.0,0.0002389
1354.0,0.0006288
1355.0,1.212e-05
1356.0,0.0001215
1357.0,0.0001819
1358.0,1.387e-05
1359.0,3.27e-06
1360.0,7.939e-06
1361.0,3.513e-08
1362.0,1.826e-10
1363.0,1.23e-05
1364.0,5.551e-06
1365.0,1.297e-10
1366.0,4.52e-05
1367.0,1.743e-05
1368.0,4.184e-12
1369.0,2.184e-06
1370.0,1.398e-06
1371.0,1.139e-07
1372.0,9.687e-06
1373.0,0.000124
1374.0,0.0004268
1375.0,0.0007611
1376.0,0.0005582
1377.0,0.0002757
1378.0,0.002273
1379.0,0.0001186
1380.0,0.0002012
1381.0,6.574e-06
1382.0,9.387e-06
1383.0,1.895e-07
1384.0,2.721e-06
1385.0,6.707e-06
1386.0,9.952e-06
1387.0,0.0005114
1388.0,1.112e-05
1389.0,0.001278
1390.0,0.001091
1391.0,0.0007903
1392.0,5.93e-05
1393.0,0.0002637
1394.0,0.0002132
1395.0,2.361e-06
1396.0,4.243e-08
1397.0,0.0001191
1398.0,0.002605
1399.0,0.001661
1400.0,2.584e-08
1401.0,6.698e-08
1402.0,0.003167
1403.0,0.004247
1404.0,0.001338
1405.0,1.445e-06
1406.0,0.003868
1407.0,0.0003316
1408.0,0.003117
1409.0,0.001301
1410.0,0.0009367
1411.0,0.003694
1412.0,0.004494
1413.0,0.03294
1414.0,0.0007231
1415.0,0.0003879
1416.0,0.04579
1417.0,0.01701
1418.0,0.01942
1419.0,0.003191
1420.0,0.01203
1421.0,0.01332
1422.0,0.05873
1423.0,0.01231
1424.0,0.0223
1425.0,0.03371
1426.0,0.03563
1427.0,0.05925
1428.0,0.007098
1429.0,0.04696
1430.0,0.07357
1431.0,0.07918
1432.0,0.00569
1433.0,0.05274
1434.0,0.02804
1435.0,0.03211
1436.0,0.05534
1437.0,0.04252
1438.0,0.01983
1439.0,0.0723
1440.0,0.05462
1441.0,0.04467
1442.0,0.04874
1443.0,0.0566
1444.0,0.07659
1445.0,0.06352
1446.0,0.02971
1447.0,0.04682
1448.0,0.1317
1449.0,0.118
1450.0,0.03464
1451.0,0.01492
1452.0,0.07446
1453.0,0.09556
1454.0,0.1516
1455.0,0.07617
1456.0,0.1043
1457.0,0.1324
1458.0,0.1491
1459.0,0.1773
1460.0,0.09624
1461.0,0.1035
1462.0,0.1457
1463.0,0.05138
1464.0,0.1669
1465.0,0.1017
1466.0,0.07795
1467.0,0.04463
1468.0,0.08985
