interpolation:linear
wavelength,value
280.0,9.254999999999999e-29
280.5,6.211e-27
281.0,4.4030000000000004e-26
281.5,2.801e-24
282.0,3.439e-23
282.5,1.7659999999999999e-22
283.0,1.074e-21
283.5,2.3750000000000002e-21
284.0,1.265e-19
284.5,6.07e-19
285.0,2.032e-18
285.5,2.377e-17
286.0,1.322e-16
286.5,1.074e-15
287.0,4.673e-15
287.5,2.998e-14
288.0,2.062e-13
288.5,1.025e-12
289.0,4.323e-12
289.5,2.071e-11
290.0,8.257e-11
290.5,2.268e-10
291.0,6.853e-10
291.5,2.971e-09
292.0,9.428e-09
292.5,1.61e-08
293.0,4.388e-08
293.5,1.458e-07
294.0,2.841e-07
294.5,5.606e-07
295.0,1.138e-06
295.5,3.286e-06
296.0,6.669e-06
296.5,9.737e-06
297.0,1.36e-05
297.5,3.775e-05
298.0,6.085e-05
298.5,6.21e-05
299.0,0.0001383
299.5,0.0002292
300.0,0.0002516
300.5,0.0003619
301.0,0.0006379
301.5,0.0009848
302.0,0.0008303
302.5,0.00165
303.0,0.00301
303.5,0.003812
304.0,0.003562
304.5,0.005153
305.0,0.007427
305.5,0.008248
306.0,0.007928
306.5,0.009697
307.0,0.01367
307.5,0.01727
308.0,0.01822
308.5,0.02106
309.0,0.01898
309.5,0.02181
310.0,0.02199
310.5,0.0358
311.0,0.04504
311.5,0.0437
312.0,0.04329
312.5,0.05236
313.0,0.05678
313.5,0.05597
314.0,0.06918
314.5,0.06006
315.0,0.07907
315.5,0.06762
316.0,0.05801
316.5,0.08191
317.0,0.1025
317.5,0.1081
318.0,0.08349
318.5,0.1008
319.0,0.1182
319.5,0.0999
320.0,0.122
320.5,0.1481
321.0,0.1281
321.5,0.1231
322.0,0.1373
322.5,0.12
323.0,0.1173
323.5,0.1387
324.0,0.1622
324.5,0.1675
325.0,0.1506
325.5,0.1907
326.0,0.2285
326.5,0.2268
327.0,0.2287
327.5,0.2238
328.0,0.2042
328.5,0.211
329.0,0.2491
329.5,0.2825
330.0,0.2882
330.5,0.2356
331.0,0.2426
331.5,0.2452
332.0,0.2618
332.5,0.2583
333.0,0.2602
333.5,0.2399
334.0,0.2476
334.5,0.283
335.0,0.265
335.5,0.3022
336.0,0.2101
336.5,0.2559
337.0,0.2124
337.5,0.2661
338.0,0.2579
338.5,0.2924
339.0,0.2925
339.5,0.2816
340.0,0.3396
340.5,0.3072
341.0,0.296
341.5,0.2756
342.0,0.3316
342.5,0.3123
343.0,0.3434
343.5,0.3237
344.0,0.2432
344.5,0.2417
345.0,0.3251
345.5,0.3347
346.0,0.2863
346.5,0.326
347.0,0.3503
347.5,0.2841
348.0,0.3266
348.5,0.3286
349.0,0.3063
349.5,0.3044
350.0,0.3782
350.5,0.4005
351.0,0.3587
351.5,0.3482
352.0,0.3768
352.5,0.2959
353.0,0.3746
353.5,0.4024
354.0,0.4196
354.5,0.4272
355.0,0.4272
355.5,0.3875
356.0,0.4071
356.5,0.3489
357.0,0.2894
357.5,0.3556
358.0,0.2829
358.5,0.2427
359.0,0.3406
359.5,0.4353
360.0,0.4632
360.5,0.3717
361.0,0.3401
361.5,0.3929
362.0,0.341
362.5,0.4735
363.0,0.4267
363.5,0.3943
364.0,0.4838
364.5,0.4149
365.0,0.424
365.5,0.5339
366.0,0.5675
366.5,0.5349
367.0,0.5226
367.5,0.544
368.0,0.4776
368.5,0.4834
369.0,0.5237
369.5,0.5599
370.0,0.5987
370.5,0.4661
371.0,0.4995
371.5,0.6268
372.0,0.4173
372.5,0.5018
373.0,0.5119
373.5,0.334
374.0,0.4868
374.5,0.4043
375.0,0.3941
375.5,0.5901
376.0,0.4906
376.5,0.5098
377.0,0.5413
377.5,0.635
378.0,0.6902
378.5,0.6543
379.0,0.5416
379.5,0.4961
380.0,0.5173
380.5,0.6283
381.0,0.6313
381.5,0.5018
382.0,0.4469
382.5,0.382
383.0,0.3546
383.5,0.3424
384.0,0.3787
384.5,0.5584
385.0,0.5551
385.5,0.5182
386.0,0.445
386.5,0.586
387.0,0.4882
387.5,0.5497
388.0,0.5088
388.5,0.5041
389.0,0.5455
389.5,0.6623
390.0,0.6663
390.5,0.6147
391.0,0.7252
391.5,0.7415
392.0,0.626
392.5,0.5618
393.0,0.3133
393.5,0.2282
394.0,0.4654
394.5,0.5931
395.0,0.7252
395.5,0.7384
396.0,0.6416
396.5,0.3759
397.0,0.2827
397.5,0.5762
398.0,0.8086
398.5,0.8375
399.0,0.9087
399.5,0.9076
400.0,0.9444
401.0,0.9737
402.0,1.031
403.0,0.9835
404.0,0.972
405.0,0.9754
406.0,0.9631
407.0,0.951
408.0,0.9918
409.0,1.065
410.0,0.9337
411.0,1.015
412.0,1.093
413.0,1.07
414.0,1.086
415.0,1.093
416.0,1.115
417.0,1.092
418.0,1.075
419.0,1.092
420.0,1.091
421.0,1.145
422.0,1.091
423.0,1.069
424.0,1.134
425.0,1.136
426.0,1.109
427.0,1.091
428.0,1.066
429.0,1.012
430.0,0.8882
431.0,0.8828
432.0,1.143
433.0,1.152
434.0,1.073
435.0,1.123
436.0,1.268
437.0,1.254
438.0,1.144
439.0,1.187
440.0,1.227
441.0,1.275
442.0,1.37
443.0,1.338
444.0,1.37
445.0,1.343
446.0,1.284
447.0,1.391
448.0,1.416
449.0,1.425
450.0,1.468
451.0,1.525
452.0,1.473
453.0,1.388
454.0,1.451
455.0,1.463
456.0,1.501
457.0,1.529
458.0,1.48
459.0,1.475
460.0,1.482
461.0,1.519
462.0,1.533
463.0,1.525
464.0,1.502
465.0,1.485
466.0,1.502
467.0,1.477
468.0,1.497
469.0,1.508
470.0,1.462
471.0,1.463
472.0,1.544
473.0,1.526
474.0,1.531
475.0,1.547
476.0,1.504
477.0,1.511
478.0,1.555
479.0,1.548
480.0,1.553
481.0,1.585
482.0,1.595
483.0,1.578
484.0,1.547
485.0,1.476
486.0,1.292
487.0,1.355
488.0,1.489
489.0,1.496
490.0,1.576
491.0,1.55
492.0,1.466
493.0,1.516
494.0,1.533
495.0,1.548
496.0,1.56
497.0,1.586
498.0,1.514
499.0,1.535
500.0,1.493
501.0,1.468
502.0,1.449
503.0,1.511
504.0,1.476
505.0,1.529
506.0,1.581
507.0,1.506
508.0,1.46
509.0,1.502
510.0,1.495
511.0,1.536
512.0,1.554
513.0,1.473
514.0,1.464
515.0,1.451
516.0,1.449
517.0,1.289
518.0,1.356
519.0,1.424
520.0,1.477
521.0,1.493
522.0,1.496
523.0,1.471
524.0,1.525
525.0,1.545
526.0,1.477
527.0,1.394
528.0,1.476
529.0,1.557
530.0,1.536
531.0,1.56
532.0,1.508
533.0,1.465
534.0,1.51
535.0,1.544
536.0,1.559
537.0,1.498
538.0,1.526
539.0,1.514
540.0,1.453
541.0,1.464
542.0,1.512
543.0,1.497
544.0,1.524
545.0,1.52
546.0,1.528
547.0,1.529
548.0,1.511
549.0,1.517
550.0,1.536
551.0,1.518
552.0,1.53
553.0,1.504
554.0,1.541
555.0,1.545
556.0,1.526
557.0,1.48
558.0,1.47
559.0,1.444
560.0,1.463
561.0,1.484
562.0,1.474
563.0,1.516
564.0,1.476
565.0,1.464
566.0,1.444
567.0,1.472
568.0,1.461
569.0,1.429
570.0,1.429
571.0,1.421
572.0,1.457
573.0,1.473
574.0,1.47
575.0,1.443
576.0,1.431
577.0,1.447
578.0,1.426
579.0,1.431
580.0,1.458
581.0,1.466
582.0,1.494
583.0,1.497
584.0,1.511
585.0,1.474
586.0,1.445
587.0,1.478
588.0,1.444
589.0,1.284
590.0,1.343
591.0,1.42
592.0,1.404
593.0,1.424
594.0,1.415
595.0,1.382
596.0,1.434
597.0,1.42
598.0,1.417
599.0,1.418
600.0,1.42
601.0,1.409
602.0,1.4
603.0,1.423
604.0,1.447
605.0,1.44
606.0,1.434
607.0,1.449
608.0,1.433
609.0,1.436
610.0,1.426
611.0,1.434
612.0,1.43
613.0,1.412
614.0,1.393
615.0,1.424
616.0,1.377
617.0,1.375
618.0,1.428
619.0,1.414
620.0,1.424
621.0,1.426
622.0,1.41
623.0,1.389
624.0,1.366
625.0,1.363
626.0,1.384
627.0,1.4
628.0,1.316
629.0,1.371
630.0,1.34
631.0,1.368
632.0,1.352
633.0,1.392
634.0,1.378
635.0,1.4
636.0,1.381
637.0,1.404
638.0,1.417
639.0,1.401
640.0,1.388
641.0,1.387
642.0,1.381
643.0,1.4
644.0,1.395
645.0,1.398
646.0,1.367
647.0,1.353
648.0,1.355
649.0,1.329
650.0,1.334
651.0,1.391
652.0,1.337
653.0,1.374
654.0,1.358
655.0,1.31
656.0,1.16
657.0,1.191
658.0,1.335
659.0,1.344
660.0,1.35
661.0,1.36
662.0,1.364
663.0,1.337
664.0,1.352
665.0,1.353
666.0,1.354
667.0,1.353
668.0,1.354
669.0,1.375
670.0,1.369
671.0,1.369
672.0,1.357
673.0,1.378
674.0,1.373
675.0,1.361
676.0,1.37
677.0,1.357
678.0,1.361
679.0,1.339
680.0,1.35
681.0,1.342
682.0,1.34
683.0,1.338
684.0,1.332
685.0,1.343
686.0,1.336
687.0,0.9199
688.0,1.063
689.0,1.066
690.0,1.113
691.0,1.166
692.0,1.204
693.0,1.195
694.0,1.185
695.0,1.231
696.0,1.233
697.0,1.303
698.0,1.283
699.0,1.256
700.0,1.242
701.0,1.23
702.0,1.238
703.0,1.24
704.0,1.278
705.0,1.28
706.0,1.279
707.0,1.28
708.0,1.283
709.0,1.284
710.0,1.284
711.0,1.282
712.0,1.278
713.0,1.266
714.0,1.271
715.0,1.233
716.0,1.234
717.0,1.082
718.0,0.9966
719.0,0.9145
720.0,0.9589
721.0,1.051
722.0,1.194
723.0,1.117
724.0,1.011
725.0,0.9967
726.0,1.043
727.0,1.055
728.0,0.9952
729.0,1.028
730.0,1.088
731.0,1.043
732.0,1.111
733.0,1.172
734.0,1.199
735.0,1.175
736.0,1.173
737.0,1.178
738.0,1.194
739.0,1.17
740.0,1.2
741.0,1.188
742.0,1.189
743.0,1.219
744.0,1.216
745.0,1.216
746.0,1.221
747.0,1.224
748.0,1.222
749.0,1.208
750.0,1.208
751.0,1.196
752.0,1.201
753.0,1.207
754.0,1.21
755.0,1.203
756.0,1.203
757.0,1.205
758.0,1.19
759.0,1.168
760.0,0.224
761.0,0.1233
762.0,0.6292
763.0,0.3317
764.0,0.4836
765.0,0.6297
766.0,0.7586
767.0,0.9429
768.0,1.077
769.0,1.097
770.0,1.131
771.0,1.139
772.0,1.142
773.0,1.15
774.0,1.144
775.0,1.136
776.0,1.15
777.0,1.135
778.0,1.128
779.0,1.129
780.0,1.123
781.0,1.124
782.0,1.131
783.0,1.112
784.0,1.117
785.0,1.109
786.0,1.122
787.0,1.103
788.0,1.09
789.0,1.09
790.0,1.063
791.0,1.071
792.0,1.063
793.0,1.046
794.0,1.062
795.0,1.081
796.0,1.05
797.0,1.052
798.0,1.08
799.0,1.074
800.0,1.056
801.0,1.053
802.0,1.05
803.0,1.043
804.0,1.044
805.0,1.04
806.0,1.068
807.0,1.056
808.0,1.057
809.0,1.038
810.0,1.03
811.0,1.033
812.0,1.005
813.0,0.9852
814.0,0.8725
815.0,0.8671
816.0,0.808
817.0,0.8222
818.0,0.7928
819.0,0.8815
820.0,0.8322
821.0,0.966
822.0,0.9396
823.0,0.6498
824.0,0.9148
825.0,0.95
826.0,0.9161
827.0,0.9647
828.0,0.824
829.0,0.9104
830.0,0.8992
831.0,0.9022
832.0,0.8757
833.0,0.9287
834.0,0.8979
835.0,0.9823
836.0,0.9429
837.0,0.9851
838.0,0.9556
839.0,0.9701
840.0,0.9912
841.0,0.9777
842.0,0.9792
843.0,0.978
844.0,0.9649
845.0,0.997
846.0,0.9926
847.0,0.974
848.0,0.9684
849.0,0.9409
850.0,0.9015
851.0,0.955
852.0,0.9482
853.0,0.9125
854.0,0.7882
855.0,0.8657
856.0,0.9463
857.0,0.9673
858.0,0.9603
859.0,0.9611
860.0,0.9628
861.0,0.9576
862.0,0.9727
863.0,0.9958
864.0,0.9461
865.0,0.9378
866.0,0.8433
867.0,0.8801
868.0,0.9578
869.0,0.938
870.0,0.9648
871.0,0.9518
872.0,0.9485
873.0,0.9467
874.0,0.9355
875.0,0.9166
876.0,0.9263
877.0,0.9357
878.0,0.9459
879.0,0.9315
880.0,0.9116
881.0,0.8981
882.0,0.9176
883.0,0.9205
884.0,0.9164
885.0,0.9234
886.0,0.8806
887.0,0.8896
888.0,0.903
889.0,0.913
890.0,0.9058
891.0,0.9041
892.0,0.8787
893.0,0.852
894.0,0.8235
895.0,0.78
896.0,0.7356
897.0,0.6343
898.0,0.6909
899.0,0.5285
900.0,0.7061
901.0,0.5538
902.0,0.6462
903.0,0.6539
904.0,0.8179
905.0,0.7906
906.0,0.7405
907.0,0.6053
908.0,0.6167
909.0,0.6665
910.0,0.5923
911.0,0.6296
912.0,0.6576
913.0,0.6014
914.0,0.5958
915.0,0.6456
916.0,0.5474
917.0,0.6916
918.0,0.5614
919.0,0.7035
920.0,0.7093
921.0,0.7374
922.0,0.6613
923.0,0.7123
924.0,0.678
925.0,0.6633
926.0,0.6706
927.0,0.7489
928.0,0.5545
929.0,0.5075
930.0,0.4007
931.0,0.3795
932.0,0.2751
933.0,0.2245
934.0,0.1249
935.0,0.2291
936.0,0.1442
937.0,0.1462
938.0,0.1794
939.0,0.3678
940.0,0.4413
941.0,0.3347
942.0,0.3866
943.0,0.2555
944.0,0.2681
945.0,0.3449
946.0,0.1771
947.0,0.3468
948.0,0.2551
949.0,0.4628
950.0,0.1308
951.0,0.4555
952.0,0.2467
953.0,0.3173
954.0,0.3878
955.0,0.3209
956.0,0.3108
957.0,0.2473
958.0,0.4386
959.0,0.3499
960.0,0.3921
961.0,0.439
962.0,0.4155
963.0,0.4781
964.0,0.4383
965.0,0.4763
966.0,0.4765
967.0,0.4746
968.0,0.633
969.0,0.6614
970.0,0.6079
971.0,0.6944
972.0,0.6646
973.0,0.5802
974.0,0.5509
975.0,0.5713
976.0,0.5433
977.0,0.6167
978.0,0.5865
979.0,0.6139
980.0,0.5775
981.0,0.6906
982.0,0.6609
983.0,0.6349
984.0,0.7111
985.0,0.6585
986.0,0.7233
987.0,0.7096
988.0,0.7083
989.0,0.721
990.0,0.7041
991.0,0.7232
992.0,0.7274
993.0,0.7116
994.0,0.7272
995.0,0.7263
996.0,0.7232
997.0,0.7242
998.0,0.7209
999.0,0.7182
1000.0,0.7133
1001.0,0.7222
1002.0,0.7026
1003.0,0.7095
1004.0,0.6922
1005.0,0.6668
1006.0,0.6929
1007.0,0.7076
1008.0,0.7039
1009.0,0.7002
1010.0,0.6973
1011.0,0.7041
1012.0,0.6981
1013.0,0.7025
1014.0,0.6976
1015.0,0.693
1016.0,0.6899
1017.0,0.6917
1018.0,0.6891
1019.0,0.6745
1020.0,0.6855
1021.0,0.6846
1022.0,0.6794
1023.0,0.6866
1024.0,0.6778
1025.0,0.6861
1026.0,0.6833
1027.0,0.6817
1028.0,0.6803
1029.0,0.6723
1030.0,0.6769
1031.0,0.6742
1032.0,0.6723
1033.0,0.6622
1034.0,0.6622
1035.0,0.6643
1036.0,0.6678
1037.0,0.657
1038.0,0.6599
1039.0,0.6596
1040.0,0.6569
1041.0,0.6596
1042.0,0.655
1043.0,0.653
1044.0,0.6553
1045.0,0.6464
1046.0,0.6393
1047.0,0.6451
1048.0,0.6487
1049.0,0.6463
1050.0,0.6434
1051.0,0.6425
1052.0,0.64
1053.0,0.6349
1054.0,0.6363
1055.0,0.6367
1056.0,0.6345
1057.0,0.6326
1058.0,0.6171
1059.0,0.6178
1060.0,0.6169
1061.0,0.6162
1062.0,0.6194
1063.0,0.6133
1064.0,0.6206
1065.0,0.6162
1066.0,0.604
1067.0,0.6118
1068.0,0.5985
1069.0,0.58
1070.0,0.5998
1071.0,0.609
1072.0,0.6021
1073.0,0.5934
1074.0,0.6087
1075.0,0.5785
1076.0,0.6082
1077.0,0.5975
1078.0,0.5863
1079.0,0.5985
1080.0,0.5884
1081.0,0.5697
1082.0,0.5786
1083.0,0.5803
1084.0,0.5684
1085.0,0.5898
1086.0,0.5387
1087.0,0.5557
1088.0,0.5799
1089.0,0.5624
1090.0,0.5502
1091.0,0.5781
1092.0,0.5766
1093.0,0.4898
1094.0,0.5277
1095.0,0.5102
1096.0,0.4889
1097.0,0.5633
1098.0,0.4813
1099.0,0.502
1100.0,0.4671
1101.0,0.4728
1102.0,0.4518
1103.0,0.4476
1104.0,0.4482
1105.0,0.4906
1106.0,0.3769
1107.0,0.4663
1108.0,0.3963
1109.0,0.3968
1110.0,0.4624
1111.0,0.3149
1112.0,0.3937
1113.0,0.2519
1114.0,0.2814
1115.0,0.2334
1116.0,0.187
1117.0,0.06935
1118.0,0.2032
1119.0,0.1014
1120.0,0.1276
1121.0,0.1691
1122.0,0.07159
1123.0,0.1153
1124.0,0.09737
1125.0,0.1269
1126.0,0.04456
1127.0,0.1431
1128.0,0.08604
1129.0,0.09124
1130.0,0.06019
1131.0,0.2703
1132.0,0.2123
1133.0,0.1351
1134.0,0.03482
1135.0,0.01304
1136.0,0.1129
1137.0,0.2657
1138.0,0.1873
1139.0,0.2783
1140.0,0.2329
1141.0,0.178
1142.0,0.2046
1143.0,0.29
1144.0,0.1019
1145.0,0.1303
1146.0,0.1405
1147.0,0.04983
1148.0,0.2511
1149.0,0.2008
1150.0,0.1095
1151.0,0.1859
1152.0,0.2285
1153.0,0.2224
1154.0,0.1264
1155.0,0.2904
1156.0,0.2617
1157.0,0.2933
1158.0,0.2901
1159.0,0.3125
1160.0,0.2676
1161.0,0.3286
1162.0,0.3304
1163.0,0.4439
1164.0,0.3816
1165.0,0.3609
1166.0,0.3578
1167.0,0.3892
1168.0,0.3937
1169.0,0.4028
1170.0,0.4369
1171.0,0.4262
1172.0,0.4334
1173.0,0.436
1174.0,0.3138
1175.0,0.4256
1176.0,0.4665
1177.0,0.4487
1178.0,0.339
1179.0,0.4703
1180.0,0.4212
1181.0,0.4346
1182.0,0.3021
1183.0,0.4276
1184.0,0.4015
1185.0,0.3881
1186.0,0.4578
1187.0,0.4369
1188.0,0.3075
1189.0,0.4071
1190.0,0.4475
1191.0,0.4262
1192.0,0.4536
1193.0,0.4351
1194.0,0.4482
1195.0,0.4248
1196.0,0.4098
1197.0,0.4479
1198.0,0.4105
1199.0,0.3514
1200.0,0.4298
1201.0,0.4153
1202.0,0.4124
1203.0,0.409
1204.0,0.3589
1205.0,0.4214
1206.0,0.4642
1207.0,0.4116
1208.0,0.4045
1209.0,0.4126
1210.0,0.4294
1211.0,0.4098
1212.0,0.4059
1213.0,0.4495
1214.0,0.4151
1215.0,0.4075
1216.0,0.448
1217.0,0.4367
1218.0,0.4445
1219.0,0.4392
1220.0,0.4449
1221.0,0.449
1222.0,0.4377
1223.0,0.4338
1224.0,0.4315
1225.0,0.4462
1226.0,0.4489
1227.0,0.4154
1228.0,0.4509
1229.0,0.449
1230.0,0.4416
1231.0,0.4534
1232.0,0.4507
1233.0,0.4362
1234.0,0.4528
1235.0,0.4501
1236.0,0.4532
1237.0,0.4473
1238.0,0.4517
1239.0,0.4459
1240.0,0.4476
1241.0,0.4457
1242.0,0.4446
1243.0,0.4409
1244.0,0.4442
1245.0,0.446
1246.0,0.4434
1247.0,0.4418
1248.0,0.4416
1249.0,0.4429
1250.0,0.4403
1251.0,0.4348
1252.0,0.4347
1253.0,0.4315
1254.0,0.4275
1255.0,0.4343
1256.0,0.4228
1257.0,0.4206
1258.0,0.428
1259.0,0.4134
1260.0,0.4155
1261.0,0.3934
1262.0,0.3823
1263.0,0.383
1264.0,0.355
1265.0,0.3805
1266.0,0.3671
1267.0,0.3729
1268.0,0.3546
1269.0,0.2264
1270.0,0.3718
1271.0,0.392
1272.0,0.3931
1273.0,0.3891
1274.0,0.3902
1275.0,0.3956
1276.0,0.3992
1277.0,0.4016
1278.0,0.4088
1279.0,0.4052
1280.0,0.4
1281.0,0.3814
1282.0,0.3672
1283.0,0.3955
1284.0,0.4051
1285.0,0.4077
1286.0,0.413
1287.0,0.407
1288.0,0.4068
1289.0,0.3947
1290.0,0.4032
1291.0,0.4087
1292.0,0.3854
1293.0,0.4011
1294.0,0.3983
1295.0,0.3968
1296.0,0.3798
1297.0,0.3599
1298.0,0.386
1299.0,0.4015
1300.0,0.3423
1301.0,0.3523
1302.0,0.3847
1303.0,0.3375
1304.0,0.2901
1305.0,0.377
1306.0,0.3772
1307.0,0.2956
1308.0,0.3377
1309.0,0.3745
1310.0,0.2901
1311.0,0.3243
1312.0,0.3159
1313.0,0.3101
1314.0,0.2784
1315.0,0.2752
1316.0,0.3195
1317.0,0.303
1318.0,0.3284
1319.0,0.2591
1320.0,0.2506
1321.0,0.291
1322.0,0.2943
1323.0,0.2234
1324.0,0.2542
1325.0,0.3151
1326.0,0.2717
1327.0,0.2595
1328.0,0.2244
1329.0,0.17
1330.0,0.2206
1331.0,0.1348
1332.0,0.1386
1333.0,0.1926
1334.0,0.1624
1335.0,0.2226
1336.0,0.1769
1337.0,0.1568
1338.0,0.1697
1339.0,0.1687
1340.0,0.1637
1341.0,0.1608
1342.0,0.1688
1343.0,0.1162
1344.0,0.06948
1345.0,0.1001
1346.0,0.05085
1347.0,0.0519
1348.0,0.003577
1349.0,0.01264
1350.0,0.01297
1351.0,0.003329
1352.0,0.0009553
1353.0,5.215e-05
1354.0,0.0001721
1355.0,1.596e-06
1356.0,2.561e-05
1357.0,3.895e-05
1358.0,1.88e-06
1359.0,2.634e-07
1360.0,8.931e-07
1361.0,1.249e-09
1362.0,3.767e-12
1363.0,1.249e-06
1364.0,5.204e-07
1365.0,1.495e-12
1366.0,5.31e-06
1367.0,2.136e-06
1368.0,1.474e-14
1369.0,1.958e-07
1370.0,1.01e-07
1371.0,6.062e-09
1372.0,1.176e-06
1373.0,2.213e-05
1374.0,9.808e-05
1375.0,0.0001787
1376.0,0.0001545
1377.0,7.156e-05
1378.0,0.0006862
1379.0,3.013e-05
1380.0,4.471e-05
1381.0,1.203e-06
1382.0,1.074e-06
1383.0,1.677e-08
1384.0,2.254e-07
1385.0,9.668e-07
1386.0,9.872e-07
1387.0,0.0001048
1388.0,2.074e-06
1389.0,0.0003376
1390.0,0.0002908
1391.0,0.000196
1392.0,1.296e-05
1393.0,6.705e-05
1394.0,3.743e-05
1395.0,2.913e-07
1396.0,1.747e-09
1397.0,2.723e-05
1398.0,0.000775
1399.0,0.0004912
1400.0,8.006e-10
1401.0,3.078e-09
1402.0,0.001285
1403.0,0.001634
1404.0,0.0005005
1405.0,1.473e-07
1406.0,0.001328
1407.0,0.0001158
1408.0,0.001083
1409.0,0.0003758
1410.0,0.0002947
1411.0,0.001434
1412.0,0.001906
1413.0,0.01885
1414.0,0.0002316
1415.0,0.0001129
1416.0,0.03044
1417.0,0.009329
1418.0,0.01064
1419.0,0.001657
1420.0,0.006517
1421.0,0.007048
1422.0,0.03972
1423.0,0.007722
1424.0,0.01445
1425.0,0.0213
1426.0,0.02411
1427.0,0.04421
1428.0,0.003377
1429.0,0.0331
1430.0,0.05634
1431.0,0.06188
1432.0,0.002661
1433.0,0.03936
1434.0,0.02001
1435.0,0.01998
1436.0,0.03862
1437.0,0.02959
1438.0,0.01248
1439.0,0.05255
1440.0,0.03936
1441.0,0.02994
1442.0,0.03322
1443.0,0.04182
1444.0,0.05802
1445.0,0.04527
1446.0,0.02031
1447.0,0.03203
1448.0,0.1097
1449.0,0.09504
1450.0,0.02377
1451.0,0.009506
1452.0,0.05698
1453.0,0.07497
1454.0,0.1299
1455.0,0.06081
1456.0,0.08158
1457.0,0.1102
1458.0,0.1307
1459.0,0.1544
1460.0,0.07999
1461.0,0.08317
1462.0,0.1227
