interpolation:linear
wavelength,value
280.0,2.9150000000000005e-20
280.5,5.641e-19
281.0,2.538e-18
281.5,4.846e-17
282.0,2.864e-16
282.5,8.987e-16
283.0,3.178e-15
283.5,5.365e-15
284.0,8.14e-14
284.5,2.205e-13
285.0,3.976e-13
285.5,2.244e-12
286.0,9.29e-12
286.5,4.12e-11
287.0,1.146e-10
287.5,4.091e-10
288.0,1.344e-09
288.5,4.513e-09
289.0,1.27e-08
289.5,3.9e-08
290.0,1.081e-07
290.5,2.188e-07
291.0,4.58e-07
291.5,1.245e-06
292.0,2.701e-06
292.5,3.724e-06
293.0,7.716e-06
293.5,1.764e-05
294.0,2.669e-05
294.5,4.353e-05
295.0,6.954e-05
295.5,0.0001492
296.0,0.0002472
296.5,0.0002977
297.0,0.000357
297.5,0.0008
298.0,0.001085
298.5,0.000974
299.0,0.001924
299.5,0.002633
300.0,0.002615
300.5,0.00341
301.0,0.005216
301.5,0.007177
302.0,0.005724
302.5,0.0103
303.0,0.01666
303.5,0.01969
304.0,0.01778
304.5,0.02374
305.0,0.03086
305.5,0.03218
306.0,0.03014
306.5,0.03545
307.0,0.0462
307.5,0.05442
308.0,0.05658
308.5,0.06318
309.0,0.0554
309.5,0.05921
310.0,0.05771
310.5,0.09226
311.0,0.1129
311.5,0.108
312.0,0.1016
312.5,0.1187
313.0,0.1263
313.5,0.1259
314.0,0.1497
314.5,0.1239
315.0,0.1614
315.5,0.1404
316.0,0.116
316.5,0.1588
317.0,0.1981
317.5,0.2099
318.0,0.1586
318.5,0.1846
319.0,0.2124
319.5,0.1836
320.0,0.2244
320.5,0.2629
321.0,0.2208
321.5,0.211
322.0,0.2412
322.5,0.2098
323.0,0.2007
323.5,0.2297
324.0,0.2668
324.5,0.2776
325.0,0.2538
325.5,0.3161
326.0,0.3706
326.5,0.3625
327.0,0.3659
327.5,0.3591
328.0,0.3326
328.5,0.3356
329.0,0.3898
329.5,0.4394
330.0,0.4482
330.5,0.3692
331.0,0.3806
331.5,0.3805
332.0,0.401
332.5,0.393
333.0,0.3959
333.5,0.3667
334.0,0.378
334.5,0.4274
335.0,0.3976
335.5,0.4513
336.0,0.313
336.5,0.3818
337.0,0.317
337.5,0.3967
338.0,0.3813
338.5,0.4303
339.0,0.4292
339.5,0.4123
340.0,0.4974
340.5,0.4487
341.0,0.4303
341.5,0.3993
342.0,0.4792
342.5,0.4501
343.0,0.4943
343.5,0.4652
344.0,0.3498
344.5,0.3462
345.0,0.4639
345.5,0.4761
346.0,0.4063
346.5,0.4615
347.0,0.4951
347.5,0.4007
348.0,0.4596
348.5,0.4613
349.0,0.4291
349.5,0.4255
350.0,0.5275
350.5,0.5576
351.0,0.4986
351.5,0.4834
352.0,0.5218
352.5,0.4088
353.0,0.5164
353.5,0.5537
354.0,0.5764
354.5,0.5859
355.0,0.5849
355.5,0.5295
356.0,0.5552
356.5,0.4751
357.0,0.3935
357.5,0.4829
358.0,0.3835
358.5,0.3285
359.0,0.4604
359.5,0.5876
360.0,0.6243
360.5,0.5001
361.0,0.4567
361.5,0.5266
362.0,0.4558
362.5,0.6317
363.0,0.5681
363.5,0.524
364.0,0.6418
364.5,0.5495
365.0,0.5606
365.5,0.7048
366.0,0.7478
366.5,0.7037
367.0,0.6865
367.5,0.7136
368.0,0.6255
368.5,0.6321
369.0,0.6837
369.5,0.7299
370.0,0.7793
370.5,0.6058
371.0,0.6482
371.5,0.8124
372.0,0.5402
372.5,0.6487
373.0,0.6607
373.5,0.4305
374.0,0.6264
374.5,0.5195
375.0,0.5058
375.5,0.7565
376.0,0.6281
376.5,0.652
377.0,0.6912
377.5,0.8098
378.0,0.8794
378.5,0.8327
379.0,0.6885
379.5,0.6301
380.0,0.6562
380.5,0.7959
381.0,0.7985
381.5,0.6337
382.0,0.5635
382.5,0.4809
383.0,0.4458
383.5,0.4299
384.0,0.4748
384.5,0.6993
385.0,0.6944
385.5,0.6474
386.0,0.5552
386.5,0.7301
387.0,0.6076
387.5,0.6835
388.0,0.6319
388.5,0.6253
389.0,0.676
389.5,0.8197
390.0,0.8237
390.5,0.759
391.0,0.8945
391.5,0.9137
392.0,0.7706
392.5,0.6907
393.0,0.3847
393.5,0.2799
394.0,0.5703
394.5,0.7259
395.0,0.8868
395.5,0.9021
396.0,0.783
396.5,0.4581
397.0,0.3442
397.5,0.7009
398.0,0.9829
398.5,1.017
399.0,1.102
399.5,1.1
400.0,1.144
401.0,1.177
402.0,1.244
403.0,1.183
404.0,1.168
405.0,1.17
406.0,1.153
407.0,1.136
408.0,1.183
409.0,1.268
410.0,1.11
411.0,1.204
412.0,1.295
413.0,1.265
414.0,1.283
415.0,1.288
416.0,1.312
417.0,1.282
418.0,1.261
419.0,1.279
420.0,1.276
421.0,1.337
422.0,1.272
423.0,1.245
424.0,1.319
425.0,1.318
426.0,1.285
427.0,1.263
428.0,1.232
429.0,1.168
430.0,1.023
431.0,1.016
432.0,1.314
433.0,1.323
434.0,1.23
435.0,1.287
436.0,1.451
437.0,1.432
438.0,1.305
439.0,1.353
440.0,1.397
441.0,1.449
442.0,1.556
443.0,1.519
444.0,1.553
445.0,1.522
446.0,1.453
447.0,1.571
448.0,1.599
449.0,1.606
450.0,1.652
451.0,1.715
452.0,1.654
453.0,1.557
454.0,1.626
455.0,1.639
456.0,1.679
457.0,1.709
458.0,1.654
459.0,1.647
460.0,1.653
461.0,1.693
462.0,1.707
463.0,1.697
464.0,1.669
465.0,1.648
466.0,1.665
467.0,1.637
468.0,1.658
469.0,1.669
470.0,1.618
471.0,1.617
472.0,1.706
473.0,1.686
474.0,1.691
475.0,1.709
476.0,1.661
477.0,1.669
478.0,1.716
479.0,1.706
480.0,1.71
481.0,1.742
482.0,1.751
483.0,1.73
484.0,1.695
485.0,1.615
486.0,1.412
487.0,1.481
488.0,1.626
489.0,1.633
490.0,1.719
491.0,1.69
492.0,1.597
493.0,1.65
494.0,1.668
495.0,1.683
496.0,1.695
497.0,1.723
498.0,1.644
499.0,1.666
500.0,1.62
501.0,1.593
502.0,1.574
503.0,1.641
504.0,1.608
505.0,1.661
506.0,1.716
507.0,1.634
508.0,1.582
509.0,1.626
510.0,1.617
511.0,1.66
512.0,1.679
513.0,1.59
514.0,1.579
515.0,1.565
516.0,1.562
517.0,1.389
518.0,1.461
519.0,1.533
520.0,1.591
521.0,1.607
522.0,1.61
523.0,1.582
524.0,1.641
525.0,1.663
526.0,1.59
527.0,1.5
528.0,1.589
529.0,1.676
530.0,1.654
531.0,1.68
532.0,1.623
533.0,1.576
534.0,1.623
535.0,1.659
536.0,1.674
537.0,1.609
538.0,1.638
539.0,1.625
540.0,1.559
541.0,1.572
542.0,1.623
543.0,1.605
544.0,1.635
545.0,1.631
546.0,1.64
547.0,1.639
548.0,1.619
549.0,1.625
550.0,1.645
551.0,1.625
552.0,1.637
553.0,1.609
554.0,1.649
555.0,1.653
556.0,1.633
557.0,1.583
558.0,1.573
559.0,1.545
560.0,1.566
561.0,1.588
562.0,1.578
563.0,1.624
564.0,1.581
565.0,1.569
566.0,1.548
567.0,1.579
568.0,1.569
569.0,1.539
570.0,1.538
571.0,1.528
572.0,1.57
573.0,1.588
574.0,1.584
575.0,1.557
576.0,1.543
577.0,1.56
578.0,1.535
579.0,1.539
580.0,1.564
581.0,1.569
582.0,1.596
583.0,1.598
584.0,1.611
585.0,1.571
586.0,1.54
587.0,1.576
588.0,1.547
589.0,1.388
590.0,1.45
591.0,1.525
592.0,1.512
593.0,1.528
594.0,1.521
595.0,1.489
596.0,1.535
597.0,1.522
598.0,1.515
599.0,1.515
600.0,1.514
601.0,1.499
602.0,1.489
603.0,1.513
604.0,1.538
605.0,1.53
606.0,1.523
607.0,1.537
608.0,1.519
609.0,1.521
610.0,1.509
611.0,1.517
612.0,1.512
613.0,1.493
614.0,1.472
615.0,1.503
616.0,1.454
617.0,1.45
618.0,1.506
619.0,1.491
620.0,1.501
621.0,1.504
622.0,1.488
623.0,1.466
624.0,1.441
625.0,1.438
626.0,1.46
627.0,1.479
628.0,1.417
629.0,1.457
630.0,1.425
631.0,1.446
632.0,1.427
633.0,1.466
634.0,1.448
635.0,1.469
636.0,1.448
637.0,1.47
638.0,1.482
639.0,1.465
640.0,1.449
641.0,1.448
642.0,1.44
643.0,1.46
644.0,1.454
645.0,1.457
646.0,1.428
647.0,1.421
648.0,1.424
649.0,1.397
650.0,1.392
651.0,1.45
652.0,1.404
653.0,1.431
654.0,1.414
655.0,1.369
656.0,1.209
657.0,1.241
658.0,1.387
659.0,1.396
660.0,1.401
661.0,1.411
662.0,1.416
663.0,1.388
664.0,1.401
665.0,1.4
666.0,1.4
667.0,1.398
668.0,1.397
669.0,1.419
670.0,1.412
671.0,1.412
672.0,1.399
673.0,1.42
674.0,1.414
675.0,1.401
676.0,1.411
677.0,1.397
678.0,1.4
679.0,1.378
680.0,1.389
681.0,1.38
682.0,1.378
683.0,1.376
684.0,1.369
685.0,1.38
686.0,1.373
687.0,1.068
688.0,1.175
689.0,1.177
690.0,1.209
691.0,1.245
692.0,1.269
693.0,1.261
694.0,1.252
695.0,1.286
696.0,1.288
697.0,1.342
698.0,1.322
699.0,1.306
700.0,1.291
701.0,1.283
702.0,1.286
703.0,1.289
704.0,1.321
705.0,1.323
706.0,1.318
707.0,1.318
708.0,1.322
709.0,1.318
710.0,1.321
711.0,1.318
712.0,1.311
713.0,1.3
714.0,1.305
715.0,1.27
716.0,1.272
717.0,1.162
718.0,1.079
719.0,0.9966
720.0,1.047
721.0,1.118
722.0,1.239
723.0,1.175
724.0,1.083
725.0,1.074
726.0,1.119
727.0,1.122
728.0,1.074
729.0,1.093
730.0,1.154
731.0,1.112
732.0,1.168
733.0,1.214
734.0,1.238
735.0,1.215
736.0,1.213
737.0,1.219
738.0,1.225
739.0,1.201
740.0,1.228
741.0,1.214
742.0,1.213
743.0,1.243
744.0,1.238
745.0,1.237
746.0,1.243
747.0,1.246
748.0,1.243
749.0,1.229
750.0,1.228
751.0,1.216
752.0,1.221
753.0,1.227
754.0,1.23
755.0,1.223
756.0,1.223
757.0,1.225
758.0,1.21
759.0,1.193
760.0,0.386
761.0,0.2565
762.0,0.7767
763.0,0.5044
764.0,0.6515
765.0,0.7777
766.0,0.8718
767.0,1.022
768.0,1.121
769.0,1.131
770.0,1.156
771.0,1.159
772.0,1.159
773.0,1.167
774.0,1.161
775.0,1.152
776.0,1.166
777.0,1.151
778.0,1.144
779.0,1.145
780.0,1.139
781.0,1.14
782.0,1.147
783.0,1.127
784.0,1.132
785.0,1.125
786.0,1.137
787.0,1.124
788.0,1.113
789.0,1.113
790.0,1.093
791.0,1.094
792.0,1.085
793.0,1.068
794.0,1.077
795.0,1.098
796.0,1.076
797.0,1.078
798.0,1.098
799.0,1.093
800.0,1.078
801.0,1.077
802.0,1.074
803.0,1.067
804.0,1.067
805.0,1.061
806.0,1.085
807.0,1.073
808.0,1.073
809.0,1.058
810.0,1.052
811.0,1.059
812.0,1.038
813.0,1.022
814.0,0.9295
815.0,0.9231
816.0,0.8646
817.0,0.8762
818.0,0.8503
819.0,0.9235
820.0,0.8807
821.0,0.9931
822.0,0.9709
823.0,0.7205
824.0,0.9547
825.0,0.9785
826.0,0.9521
827.0,0.9931
828.0,0.8747
829.0,0.9443
830.0,0.9357
831.0,0.9376
832.0,0.915
833.0,0.9558
834.0,0.9329
835.0,1.002
836.0,0.9732
837.0,1.004
838.0,0.9788
839.0,0.9878
840.0,1.008
841.0,0.9963
842.0,0.9945
843.0,0.9899
844.0,0.9785
845.0,1.008
846.0,1.003
847.0,0.9836
848.0,0.9794
849.0,0.9517
850.0,0.9116
851.0,0.9672
852.0,0.9596
853.0,0.9222
854.0,0.7976
855.0,0.8745
856.0,0.9565
857.0,0.9766
858.0,0.97
859.0,0.9701
860.0,0.9714
861.0,0.9663
862.0,0.9813
863.0,1.005
864.0,0.9543
865.0,0.9458
866.0,0.8505
867.0,0.8876
868.0,0.9658
869.0,0.9458
870.0,0.9728
871.0,0.9596
872.0,0.9562
873.0,0.9543
874.0,0.943
875.0,0.924
876.0,0.9338
877.0,0.9431
878.0,0.9537
879.0,0.939
880.0,0.919
881.0,0.9061
882.0,0.926
883.0,0.9282
884.0,0.9243
885.0,0.9313
886.0,0.8908
887.0,0.8979
888.0,0.9129
889.0,0.9204
890.0,0.9161
891.0,0.9129
892.0,0.8907
893.0,0.8686
894.0,0.8483
895.0,0.8149
896.0,0.7751
897.0,0.6853
898.0,0.7361
899.0,0.585
900.0,0.7424
901.0,0.6113
902.0,0.6856
903.0,0.7022
904.0,0.8424
905.0,0.8197
906.0,0.7724
907.0,0.6561
908.0,0.6655
909.0,0.7065
910.0,0.6497
911.0,0.6782
912.0,0.7024
913.0,0.6605
914.0,0.6508
915.0,0.7015
916.0,0.6034
917.0,0.7362
918.0,0.6189
919.0,0.7439
920.0,0.7402
921.0,0.7657
922.0,0.7024
923.0,0.7391
924.0,0.7202
925.0,0.7056
926.0,0.7127
927.0,0.7808
928.0,0.6218
929.0,0.581
930.0,0.4793
931.0,0.4499
932.0,0.3467
933.0,0.2954
934.0,0.1907
935.0,0.2911
936.0,0.1995
937.0,0.2053
938.0,0.2449
939.0,0.4361
940.0,0.509
941.0,0.4059
942.0,0.4552
943.0,0.317
944.0,0.3192
945.0,0.415
946.0,0.2353
947.0,0.4226
948.0,0.3154
949.0,0.5413
950.0,0.1903
951.0,0.5291
952.0,0.3169
953.0,0.388
954.0,0.4526
955.0,0.3897
956.0,0.3703
957.0,0.3207
958.0,0.4901
959.0,0.4133
960.0,0.4618
961.0,0.5005
962.0,0.4765
963.0,0.5333
964.0,0.4943
965.0,0.5291
966.0,0.5333
967.0,0.5323
968.0,0.6617
969.0,0.6936
970.0,0.6452
971.0,0.7159
972.0,0.6892
973.0,0.6226
974.0,0.5949
975.0,0.6082
976.0,0.5892
977.0,0.6476
978.0,0.6248
979.0,0.6467
980.0,0.6134
981.0,0.7109
982.0,0.6877
983.0,0.6652
984.0,0.7238
985.0,0.6848
986.0,0.7315
987.0,0.7224
988.0,0.7212
989.0,0.7262
990.0,0.7163
991.0,0.729
992.0,0.7327
993.0,0.7216
994.0,0.7319
995.0,0.7303
996.0,0.7279
997.0,0.7286
998.0,0.7255
999.0,0.7226
1000.0,0.7188
1001.0,0.7264
1002.0,0.7117
1003.0,0.7139
1004.0,0.6979
1005.0,0.6704
1006.0,0.6976
1007.0,0.7119
1008.0,0.709
1009.0,0.7063
1010.0,0.7039
1011.0,0.7082
1012.0,0.7032
1013.0,0.7063
1014.0,0.7013
1015.0,0.6969
1016.0,0.6939
1017.0,0.6959
1018.0,0.6926
1019.0,0.6798
1020.0,0.6893
1021.0,0.688
1022.0,0.6835
1023.0,0.6909
1024.0,0.684
1025.0,0.6897
1026.0,0.6873
1027.0,0.6856
1028.0,0.6844
1029.0,0.6765
1030.0,0.6804
1031.0,0.678
1032.0,0.6758
1033.0,0.6657
1034.0,0.6657
1035.0,0.6678
1036.0,0.6715
1037.0,0.6605
1038.0,0.6635
1039.0,0.6633
1040.0,0.6607
1041.0,0.6635
1042.0,0.6589
1043.0,0.6569
1044.0,0.6594
1045.0,0.6506
1046.0,0.6435
1047.0,0.6495
1048.0,0.6532
1049.0,0.651
1050.0,0.6482
1051.0,0.6475
1052.0,0.6451
1053.0,0.6402
1054.0,0.6419
1055.0,0.6425
1056.0,0.6406
1057.0,0.6389
1058.0,0.6235
1059.0,0.6245
1060.0,0.6237
1061.0,0.6232
1062.0,0.6268
1063.0,0.6209
1064.0,0.6281
1065.0,0.6244
1066.0,0.6115
1067.0,0.6196
1068.0,0.6066
1069.0,0.5875
1070.0,0.608
1071.0,0.6156
1072.0,0.61
1073.0,0.6009
1074.0,0.6144
1075.0,0.5893
1076.0,0.6142
1077.0,0.6065
1078.0,0.5962
1079.0,0.6036
1080.0,0.5973
1081.0,0.5807
1082.0,0.5853
1083.0,0.586
1084.0,0.5811
1085.0,0.5981
1086.0,0.5554
1087.0,0.5659
1088.0,0.5865
1089.0,0.5738
1090.0,0.5653
1091.0,0.5861
1092.0,0.5834
1093.0,0.5118
1094.0,0.5358
1095.0,0.5302
1096.0,0.513
1097.0,0.5696
1098.0,0.5066
1099.0,0.5257
1100.0,0.497
1101.0,0.5007
1102.0,0.4828
1103.0,0.4816
1104.0,0.4818
1105.0,0.5154
1106.0,0.4244
1107.0,0.4954
1108.0,0.4384
1109.0,0.4357
1110.0,0.4932
1111.0,0.36
1112.0,0.4309
1113.0,0.3016
1114.0,0.3331
1115.0,0.2771
1116.0,0.2388
1117.0,0.1089
1118.0,0.2525
1119.0,0.1415
1120.0,0.1778
1121.0,0.2252
1122.0,0.1091
1123.0,0.1603
1124.0,0.1355
1125.0,0.1729
1126.0,0.07481
1127.0,0.1937
1128.0,0.1314
1129.0,0.1366
1130.0,0.09798
1131.0,0.3318
1132.0,0.2671
1133.0,0.1878
1134.0,0.06123
1135.0,0.02252
1136.0,0.1633
1137.0,0.3305
1138.0,0.2379
1139.0,0.3215
1140.0,0.2814
1141.0,0.2261
1142.0,0.2527
1143.0,0.3449
1144.0,0.1387
1145.0,0.1804
1146.0,0.1948
1147.0,0.08427
1148.0,0.2988
1149.0,0.2494
1150.0,0.1491
1151.0,0.2364
1152.0,0.2785
1153.0,0.2625
1154.0,0.1791
1155.0,0.3359
1156.0,0.3088
1157.0,0.338
1158.0,0.3337
1159.0,0.3513
1160.0,0.3113
1161.0,0.3644
1162.0,0.3675
1163.0,0.4655
1164.0,0.4108
1165.0,0.3976
1166.0,0.3884
1167.0,0.4171
1168.0,0.4236
1169.0,0.4295
1170.0,0.4582
1171.0,0.4485
1172.0,0.4518
1173.0,0.4573
1174.0,0.3516
1175.0,0.4434
1176.0,0.4762
1177.0,0.4642
1178.0,0.3678
1179.0,0.4795
1180.0,0.4407
1181.0,0.4532
1182.0,0.3334
1183.0,0.4434
1184.0,0.4224
1185.0,0.4132
1186.0,0.4706
1187.0,0.4541
1188.0,0.3403
1189.0,0.4247
1190.0,0.4601
1191.0,0.4464
1192.0,0.4653
1193.0,0.4496
1194.0,0.4609
1195.0,0.4426
1196.0,0.4308
1197.0,0.4572
1198.0,0.4241
1199.0,0.3767
1200.0,0.4445
1201.0,0.434
1202.0,0.4287
1203.0,0.4249
1204.0,0.3812
1205.0,0.434
1206.0,0.4702
1207.0,0.429
1208.0,0.4176
1209.0,0.425
1210.0,0.4391
1211.0,0.4244
1212.0,0.4255
1213.0,0.458
1214.0,0.4324
1215.0,0.4259
1216.0,0.4563
1217.0,0.4473
1218.0,0.4529
1219.0,0.4487
1220.0,0.453
1221.0,0.4558
1222.0,0.446
1223.0,0.443
1224.0,0.4423
1225.0,0.453
1226.0,0.4542
1227.0,0.4268
1228.0,0.455
1229.0,0.4542
1230.0,0.4479
1231.0,0.4559
1232.0,0.4534
1233.0,0.4437
1234.0,0.4543
1235.0,0.4523
1236.0,0.4549
1237.0,0.4509
1238.0,0.4534
1239.0,0.4476
1240.0,0.449
1241.0,0.4484
1242.0,0.4461
1243.0,0.4424
1244.0,0.446
1245.0,0.4476
1246.0,0.445
1247.0,0.4437
1248.0,0.4441
1249.0,0.4448
1250.0,0.4426
1251.0,0.4378
1252.0,0.4367
1253.0,0.4353
1254.0,0.4325
1255.0,0.4368
1256.0,0.4284
1257.0,0.4268
1258.0,0.4318
1259.0,0.422
1260.0,0.4235
1261.0,0.4072
1262.0,0.399
1263.0,0.4
1264.0,0.3787
1265.0,0.3973
1266.0,0.3878
1267.0,0.3908
1268.0,0.3768
1269.0,0.2782
1270.0,0.3909
1271.0,0.405
1272.0,0.4054
1273.0,0.402
1274.0,0.4022
1275.0,0.4066
1276.0,0.409
1277.0,0.4101
1278.0,0.4148
1279.0,0.4114
1280.0,0.406
1281.0,0.386
1282.0,0.3697
1283.0,0.3986
1284.0,0.4086
1285.0,0.411
1286.0,0.4152
1287.0,0.4112
1288.0,0.4105
1289.0,0.4021
1290.0,0.4065
1291.0,0.4114
1292.0,0.3953
1293.0,0.4056
1294.0,0.4032
1295.0,0.4033
1296.0,0.3909
1297.0,0.3746
1298.0,0.3939
1299.0,0.4053
1300.0,0.3594
1301.0,0.367
1302.0,0.3922
1303.0,0.353
1304.0,0.3167
1305.0,0.3856
1306.0,0.3864
1307.0,0.3182
1308.0,0.3511
1309.0,0.3845
1310.0,0.3128
1311.0,0.3401
1312.0,0.3334
1313.0,0.3293
1314.0,0.3006
1315.0,0.3001
1316.0,0.3373
1317.0,0.3213
1318.0,0.3427
1319.0,0.287
1320.0,0.2739
1321.0,0.3124
1322.0,0.318
1323.0,0.2555
1324.0,0.2814
1325.0,0.3332
1326.0,0.2962
1327.0,0.2851
1328.0,0.2511
1329.0,0.2024
1330.0,0.256
1331.0,0.1725
1332.0,0.1718
1333.0,0.2337
1334.0,0.1919
1335.0,0.2541
1336.0,0.2095
1337.0,0.1913
1338.0,0.2056
1339.0,0.2026
1340.0,0.1929
1341.0,0.1979
1342.0,0.2073
1343.0,0.1629
1344.0,0.09782
1345.0,0.1371
1346.0,0.08491
1347.0,0.08901
1348.0,0.01035
1349.0,0.03095
1350.0,0.02832
1351.0,0.01145
1352.0,0.005014
1353.0,0.0004878
1354.0,0.001157
1355.0,3.158e-05
1356.0,0.0002537
1357.0,0.0003757
1358.0,3.564e-05
1359.0,1.058e-05
1360.0,2.217e-05
1361.0,1.681e-07
1362.0,1.163e-09
1363.0,3.484e-05
1364.0,1.677e-05
1365.0,1.055e-09
1366.0,0.0001194
1367.0,4.654e-05
1368.0,5.745e-11
1369.0,6.801e-06
1370.0,4.781e-06
1371.0,4.551e-07
1372.0,2.616e-05
1373.0,0.000277
1374.0,0.0008463
1375.0,0.001467
1376.0,0.001023
1377.0,0.0005231
1378.0,0.003933
1379.0,0.000229
1380.0,0.0004084
1381.0,1.498e-05
1382.0,2.597e-05
1383.0,6.088e-07
1384.0,8.72e-06
1385.0,1.693e-05
1386.0,2.914e-05
1387.0,0.001048
1388.0,2.503e-05
1389.0,0.002358
1390.0,0.001991
1391.0,0.001506
1392.0,0.0001228
1393.0,0.0005046
1394.0,0.0004752
1395.0,6.429e-06
1396.0,1.906e-07
1397.0,0.0002404
1398.0,0.004504
1399.0,0.002903
1400.0,1.311e-07
1401.0,2.86e-07
1402.0,0.004856
1403.0,0.006628
1404.0,0.00212
1405.0,4.281e-06
1406.0,0.006277
1407.0,0.0005533
1408.0,0.005051
1409.0,0.002283
1410.0,0.001618
1411.0,0.005753
1412.0,0.006734
1413.0,0.04236
1414.0,0.001243
1415.0,0.0006987
1416.0,0.05547
1417.0,0.02273
1418.0,0.02556
1419.0,0.00434
1420.0,0.01596
1421.0,0.01813
1422.0,0.07022
1423.0,0.01546
1424.0,0.0275
1425.0,0.04184
1426.0,0.04295
1427.0,0.06793
1428.0,0.01009
1429.0,0.05529
1430.0,0.08339
1431.0,0.08886
1432.0,0.008165
1433.0,0.06068
1434.0,0.03303
1435.0,0.04013
1436.0,0.06555
1437.0,0.05065
1438.0,0.0248
1439.0,0.08381
1440.0,0.06382
1441.0,0.05393
1442.0,0.05803
1443.0,0.06495
1444.0,0.0873
1445.0,0.07424
1446.0,0.03532
1447.0,0.05602
1448.0,0.1433
1449.0,0.1307
1450.0,0.04151
1451.0,0.01859
1452.0,0.08443
1453.0,0.1069
1454.0,0.163
1455.0,0.08469
1456.0,0.117
1457.0,0.1443
1458.0,0.1585
1459.0,0.1891
1460.0,0.1052
1461.0,0.1145
1462.0,0.158
1463.0,0.05866
1464.0,0.1777
1465.0,0.109
1466.0,0.08824
1467.0,0.05294
1468.0,0.1005
1469.0,0.1196
1470.0,0.06957
