interpolation:linear
wavelength,value
280.0,1.628e-23
280.5,5.071999999999999e-22
281.0,2.716e-21
281.5,8.221e-20
282.0,6.428e-19
282.5,2.436e-18
283.0,1.06e-17
283.5,1.984e-17
284.0,4.868e-16
284.5,1.641e-15
285.0,3.751e-15
285.5,2.798e-14
286.0,1.297e-13
286.5,7.253e-13
287.0,2.394e-12
287.5,1.07e-11
288.0,4.663e-11
288.5,1.819e-10
289.0,5.978e-10
289.5,2.176e-09
290.0,6.931e-09
290.5,1.577e-08
291.0,3.799e-08
291.5,1.235e-07
292.0,3.099e-07
292.5,4.637e-07
293.0,1.067e-06
293.5,2.815e-06
294.0,4.693e-06
294.5,8.231e-06
295.0,1.441e-05
295.5,3.465e-05
296.0,6.204e-05
296.5,8.043e-05
297.0,0.0001023
297.5,0.0002487
298.0,0.0003604
298.5,0.0003397
299.0,0.0007025
299.5,0.001035
300.0,0.001068
300.5,0.001446
301.0,0.002335
301.5,0.003357
302.0,0.002735
302.5,0.005113
303.0,0.008658
303.5,0.01051
304.0,0.009612
304.5,0.01324
305.0,0.0179
305.5,0.01912
306.0,0.01808
306.5,0.02159
307.0,0.029
307.5,0.03509
308.0,0.03668
308.5,0.04151
309.0,0.03678
309.5,0.04042
310.0,0.0399
310.5,0.06425
311.0,0.07945
311.5,0.07642
312.0,0.07331
312.5,0.08682
313.0,0.09304
313.5,0.09233
314.0,0.1114
314.5,0.09395
315.0,0.1229
315.5,0.1062
316.0,0.08899
316.5,0.1233
317.0,0.154
317.5,0.1629
318.0,0.1241
318.5,0.1465
319.0,0.1698
319.5,0.1455
320.0,0.1778
320.5,0.2112
321.0,0.1793
321.5,0.1718
322.0,0.1945
322.5,0.1694
323.0,0.1634
323.5,0.1894
324.0,0.2206
324.5,0.2288
325.0,0.2079
325.5,0.2606
326.0,0.3081
326.5,0.303
327.0,0.3058
327.5,0.2997
328.0,0.276
328.5,0.2811
329.0,0.3285
329.5,0.3712
330.0,0.3786
330.5,0.311
331.0,0.3204
331.5,0.3217
332.0,0.3407
332.5,0.3348
333.0,0.3372
333.5,0.3118
334.0,0.3216
334.5,0.3651
335.0,0.3405
335.5,0.3872
336.0,0.2688
336.5,0.3277
337.0,0.272
337.5,0.3406
338.0,0.3284
338.5,0.3712
339.0,0.3707
339.5,0.3564
340.0,0.4299
340.5,0.3882
341.0,0.373
341.5,0.3465
342.0,0.4163
342.5,0.3915
343.0,0.4301
343.5,0.405
344.0,0.3044
344.5,0.3018
345.0,0.405
345.5,0.4161
346.0,0.3554
346.5,0.4041
347.0,0.4338
347.5,0.3514
348.0,0.4034
348.5,0.4052
349.0,0.3772
349.5,0.3744
350.0,0.4645
350.5,0.4914
351.0,0.4396
351.5,0.4264
352.0,0.4608
352.5,0.3613
353.0,0.4568
353.5,0.4901
354.0,0.5105
354.5,0.5193
355.0,0.5188
355.5,0.4699
356.0,0.4931
356.5,0.4223
357.0,0.3499
357.5,0.4296
358.0,0.3414
358.5,0.2926
359.0,0.4103
359.5,0.524
360.0,0.557
360.5,0.4465
361.0,0.4081
361.5,0.4708
362.0,0.408
362.5,0.5658
363.0,0.5092
363.5,0.47
364.0,0.5761
364.5,0.4936
365.0,0.5039
365.5,0.6339
366.0,0.673
366.5,0.6337
367.0,0.6185
367.5,0.6434
368.0,0.5642
368.5,0.5705
369.0,0.6175
369.5,0.6596
370.0,0.7047
370.5,0.548
371.0,0.5868
371.5,0.7358
372.0,0.4894
372.5,0.5881
373.0,0.5993
373.5,0.3907
374.0,0.5689
374.5,0.472
375.0,0.4598
375.5,0.688
376.0,0.5715
376.5,0.5935
377.0,0.6296
377.5,0.738
378.0,0.8017
378.5,0.7594
379.0,0.6281
379.5,0.5751
380.0,0.5992
380.5,0.7271
381.0,0.73
381.5,0.5797
382.0,0.5157
382.5,0.4404
383.0,0.4085
383.5,0.3941
384.0,0.4355
384.5,0.6417
385.0,0.6375
385.5,0.5947
386.0,0.5102
386.5,0.6713
387.0,0.5589
387.5,0.6289
388.0,0.5817
388.5,0.5759
389.0,0.6228
389.5,0.7556
390.0,0.7596
390.5,0.7003
391.0,0.8256
391.5,0.8436
392.0,0.7118
392.5,0.6382
393.0,0.3557
393.5,0.2589
394.0,0.5277
394.5,0.6719
395.0,0.8212
395.5,0.8356
396.0,0.7256
396.5,0.4248
397.0,0.3193
397.5,0.6503
398.0,0.9123
398.5,0.9444
399.0,1.024
399.5,1.022
400.0,1.063
401.0,1.095
402.0,1.158
403.0,1.103
404.0,1.089
405.0,1.091
406.0,1.076
407.0,1.061
408.0,1.106
409.0,1.186
410.0,1.039
411.0,1.128
412.0,1.214
413.0,1.187
414.0,1.204
415.0,1.209
416.0,1.233
417.0,1.206
418.0,1.186
419.0,1.204
420.0,1.202
421.0,1.26
422.0,1.2
423.0,1.175
424.0,1.245
425.0,1.245
426.0,1.215
427.0,1.194
428.0,1.166
429.0,1.106
430.0,0.9695
431.0,0.9632
432.0,1.246
433.0,1.255
434.0,1.167
435.0,1.222
436.0,1.378
437.0,1.361
438.0,1.241
439.0,1.287
440.0,1.33
441.0,1.38
442.0,1.482
443.0,1.447
444.0,1.48
445.0,1.451
446.0,1.386
447.0,1.5
448.0,1.527
449.0,1.534
450.0,1.579
451.0,1.64
452.0,1.582
453.0,1.49
454.0,1.557
455.0,1.569
456.0,1.609
457.0,1.638
458.0,1.585
459.0,1.579
460.0,1.586
461.0,1.624
462.0,1.638
463.0,1.629
464.0,1.603
465.0,1.584
466.0,1.601
467.0,1.574
468.0,1.595
469.0,1.606
470.0,1.557
471.0,1.556
472.0,1.642
473.0,1.623
474.0,1.628
475.0,1.645
476.0,1.599
477.0,1.607
478.0,1.653
479.0,1.644
480.0,1.648
481.0,1.68
482.0,1.69
483.0,1.67
484.0,1.637
485.0,1.561
486.0,1.365
487.0,1.431
488.0,1.572
489.0,1.579
490.0,1.663
491.0,1.635
492.0,1.546
493.0,1.598
494.0,1.615
495.0,1.63
496.0,1.642
497.0,1.669
498.0,1.593
499.0,1.615
500.0,1.57
501.0,1.544
502.0,1.525
503.0,1.59
504.0,1.556
505.0,1.609
506.0,1.663
507.0,1.583
508.0,1.534
509.0,1.577
510.0,1.569
511.0,1.612
512.0,1.63
513.0,1.544
514.0,1.534
515.0,1.52
516.0,1.518
517.0,1.35
518.0,1.42
519.0,1.491
520.0,1.546
521.0,1.562
522.0,1.565
523.0,1.539
524.0,1.596
525.0,1.617
526.0,1.546
527.0,1.459
528.0,1.545
529.0,1.63
530.0,1.608
531.0,1.633
532.0,1.578
533.0,1.533
534.0,1.579
535.0,1.614
536.0,1.629
537.0,1.566
538.0,1.594
539.0,1.582
540.0,1.518
541.0,1.53
542.0,1.58
543.0,1.563
544.0,1.592
545.0,1.588
546.0,1.597
547.0,1.596
548.0,1.577
549.0,1.583
550.0,1.602
551.0,1.584
552.0,1.595
553.0,1.568
554.0,1.607
555.0,1.611
556.0,1.591
557.0,1.543
558.0,1.533
559.0,1.506
560.0,1.526
561.0,1.547
562.0,1.538
563.0,1.582
564.0,1.54
565.0,1.528
566.0,1.507
567.0,1.537
568.0,1.527
569.0,1.496
570.0,1.495
571.0,1.486
572.0,1.525
573.0,1.543
574.0,1.539
575.0,1.512
576.0,1.499
577.0,1.516
578.0,1.492
579.0,1.497
580.0,1.523
581.0,1.529
582.0,1.556
583.0,1.559
584.0,1.572
585.0,1.533
586.0,1.503
587.0,1.538
588.0,1.507
589.0,1.347
590.0,1.408
591.0,1.484
592.0,1.47
593.0,1.487
594.0,1.479
595.0,1.447
596.0,1.496
597.0,1.482
598.0,1.476
599.0,1.477
600.0,1.477
601.0,1.464
602.0,1.454
603.0,1.478
604.0,1.503
605.0,1.495
606.0,1.488
607.0,1.503
608.0,1.486
609.0,1.488
610.0,1.477
611.0,1.485
612.0,1.48
613.0,1.462
614.0,1.441
615.0,1.473
616.0,1.424
617.0,1.421
618.0,1.476
619.0,1.461
620.0,1.471
621.0,1.473
622.0,1.457
623.0,1.436
624.0,1.412
625.0,1.409
626.0,1.43
627.0,1.448
628.0,1.377
629.0,1.424
630.0,1.392
631.0,1.416
632.0,1.398
633.0,1.437
634.0,1.421
635.0,1.442
636.0,1.422
637.0,1.445
638.0,1.457
639.0,1.44
640.0,1.426
641.0,1.424
642.0,1.417
643.0,1.437
644.0,1.431
645.0,1.435
646.0,1.404
647.0,1.395
648.0,1.397
649.0,1.371
650.0,1.369
651.0,1.427
652.0,1.378
653.0,1.409
654.0,1.393
655.0,1.346
656.0,1.19
657.0,1.222
658.0,1.367
659.0,1.376
660.0,1.381
661.0,1.391
662.0,1.396
663.0,1.368
664.0,1.382
665.0,1.382
666.0,1.382
667.0,1.381
668.0,1.381
669.0,1.402
670.0,1.396
671.0,1.395
672.0,1.383
673.0,1.404
674.0,1.399
675.0,1.386
676.0,1.395
677.0,1.381
678.0,1.385
679.0,1.363
680.0,1.374
681.0,1.365
682.0,1.364
683.0,1.361
684.0,1.355
685.0,1.366
686.0,1.359
687.0,1.009
688.0,1.131
689.0,1.133
690.0,1.172
691.0,1.214
692.0,1.244
693.0,1.235
694.0,1.226
695.0,1.264
696.0,1.266
697.0,1.327
698.0,1.307
699.0,1.287
700.0,1.272
701.0,1.262
702.0,1.267
703.0,1.27
704.0,1.304
705.0,1.307
706.0,1.303
707.0,1.303
708.0,1.307
709.0,1.305
710.0,1.307
711.0,1.304
712.0,1.299
713.0,1.287
714.0,1.292
715.0,1.255
716.0,1.257
717.0,1.13
718.0,1.046
719.0,0.9629
720.0,1.011
721.0,1.091
722.0,1.221
723.0,1.152
724.0,1.054
725.0,1.043
726.0,1.088
727.0,1.095
728.0,1.042
729.0,1.067
730.0,1.128
731.0,1.085
732.0,1.145
733.0,1.198
734.0,1.223
735.0,1.199
736.0,1.198
737.0,1.203
738.0,1.213
739.0,1.189
740.0,1.217
741.0,1.204
742.0,1.203
743.0,1.234
744.0,1.229
745.0,1.229
746.0,1.235
747.0,1.237
748.0,1.235
749.0,1.221
750.0,1.22
751.0,1.208
752.0,1.213
753.0,1.219
754.0,1.222
755.0,1.216
756.0,1.215
757.0,1.217
758.0,1.202
759.0,1.184
760.0,0.3135
761.0,0.1939
762.0,0.7167
763.0,0.4298
764.0,0.5814
765.0,0.7174
766.0,0.8267
767.0,0.9911
768.0,1.104
769.0,1.118
770.0,1.146
771.0,1.151
772.0,1.153
773.0,1.16
774.0,1.155
775.0,1.146
776.0,1.16
777.0,1.145
778.0,1.138
779.0,1.139
780.0,1.133
781.0,1.134
782.0,1.141
783.0,1.121
784.0,1.126
785.0,1.119
786.0,1.131
787.0,1.116
788.0,1.104
789.0,1.104
790.0,1.081
791.0,1.085
792.0,1.076
793.0,1.06
794.0,1.071
795.0,1.091
796.0,1.066
797.0,1.068
798.0,1.091
799.0,1.086
800.0,1.069
801.0,1.068
802.0,1.065
803.0,1.058
804.0,1.058
805.0,1.053
806.0,1.078
807.0,1.066
808.0,1.067
809.0,1.05
810.0,1.044
811.0,1.049
812.0,1.025
813.0,1.007
814.0,0.9064
815.0,0.9004
816.0,0.8413
817.0,0.8541
818.0,0.8268
819.0,0.9066
820.0,0.8609
821.0,0.9825
822.0,0.9585
823.0,0.6908
824.0,0.9388
825.0,0.9671
826.0,0.9376
827.0,0.9818
828.0,0.8541
829.0,0.9307
830.0,0.9209
831.0,0.9234
832.0,0.8991
833.0,0.9452
834.0,0.919
835.0,0.9944
836.0,0.9613
837.0,0.9967
838.0,0.9699
839.0,0.981
840.0,1.001
841.0,0.9892
842.0,0.9886
843.0,0.9853
844.0,0.9733
845.0,1.004
846.0,0.9993
847.0,0.9799
848.0,0.9751
849.0,0.9476
850.0,0.9077
851.0,0.9625
852.0,0.9552
853.0,0.9185
854.0,0.794
855.0,0.8711
856.0,0.9526
857.0,0.973
858.0,0.9663
859.0,0.9667
860.0,0.9681
861.0,0.963
862.0,0.978
863.0,1.001
864.0,0.9511
865.0,0.9428
866.0,0.8478
867.0,0.8847
868.0,0.9628
869.0,0.9428
870.0,0.9697
871.0,0.9566
872.0,0.9532
873.0,0.9514
874.0,0.9401
875.0,0.9212
876.0,0.9309
877.0,0.9403
878.0,0.9508
879.0,0.9361
880.0,0.9161
881.0,0.903
882.0,0.9228
883.0,0.9252
884.0,0.9212
885.0,0.9283
886.0,0.8869
887.0,0.8947
888.0,0.909
889.0,0.9175
890.0,0.9121
891.0,0.9095
892.0,0.8861
893.0,0.8621
894.0,0.8386
895.0,0.8011
896.0,0.759
897.0,0.6642
898.0,0.7177
899.0,0.5612
900.0,0.7276
901.0,0.5874
902.0,0.6696
903.0,0.6825
904.0,0.8327
905.0,0.8081
906.0,0.7595
907.0,0.6351
908.0,0.6453
909.0,0.6903
910.0,0.626
911.0,0.658
912.0,0.6842
913.0,0.6361
914.0,0.628
915.0,0.6789
916.0,0.58
917.0,0.7183
918.0,0.595
919.0,0.7276
920.0,0.7275
921.0,0.7545
922.0,0.6857
923.0,0.7284
924.0,0.7033
925.0,0.6885
926.0,0.6959
927.0,0.7684
928.0,0.5942
929.0,0.5507
930.0,0.4462
931.0,0.4205
932.0,0.3164
933.0,0.2648
934.0,0.1614
935.0,0.2647
936.0,0.1753
937.0,0.1792
938.0,0.2163
939.0,0.4076
940.0,0.481
941.0,0.3759
942.0,0.4268
943.0,0.291
944.0,0.2976
945.0,0.3854
946.0,0.21
947.0,0.3906
948.0,0.2894
949.0,0.509
950.0,0.1636
951.0,0.4988
952.0,0.2865
953.0,0.3579
954.0,0.4256
955.0,0.3606
956.0,0.3443
957.0,0.2889
958.0,0.4686
959.0,0.3864
960.0,0.4325
961.0,0.4748
962.0,0.4508
963.0,0.5103
964.0,0.4708
965.0,0.5073
966.0,0.5097
967.0,0.5084
968.0,0.65
969.0,0.6809
970.0,0.63
971.0,0.7074
972.0,0.6793
973.0,0.6053
974.0,0.5768
975.0,0.5931
976.0,0.5705
977.0,0.635
978.0,0.6092
979.0,0.6335
980.0,0.5987
981.0,0.7029
982.0,0.6771
983.0,0.653
984.0,0.7189
985.0,0.6744
986.0,0.7283
987.0,0.7176
988.0,0.7163
989.0,0.7242
990.0,0.7117
991.0,0.7268
992.0,0.7307
993.0,0.7178
994.0,0.7301
995.0,0.7288
996.0,0.7261
997.0,0.7269
998.0,0.7237
999.0,0.7209
1000.0,0.7167
1001.0,0.7248
1002.0,0.7082
1003.0,0.7122
1004.0,0.6957
1005.0,0.669
1006.0,0.6958
1007.0,0.7102
1008.0,0.707
1009.0,0.7039
1010.0,0.7013
1011.0,0.7067
1012.0,0.7012
1013.0,0.7048
1014.0,0.6999
1015.0,0.6954
1016.0,0.6924
1017.0,0.6943
1018.0,0.6913
1019.0,0.6778
1020.0,0.6879
1021.0,0.6867
1022.0,0.6819
1023.0,0.6892
1024.0,0.6816
1025.0,0.6883
1026.0,0.6858
1027.0,0.6841
1028.0,0.6828
1029.0,0.6749
1030.0,0.6791
1031.0,0.6766
1032.0,0.6745
1033.0,0.6644
1034.0,0.6644
1035.0,0.6665
1036.0,0.6701
1037.0,0.6592
1038.0,0.6621
1039.0,0.6619
1040.0,0.6592
1041.0,0.662
1042.0,0.6574
1043.0,0.6554
1044.0,0.6578
1045.0,0.649
1046.0,0.6419
1047.0,0.6478
1048.0,0.6515
1049.0,0.6492
1050.0,0.6464
1051.0,0.6456
1052.0,0.6431
1053.0,0.6382
1054.0,0.6397
1055.0,0.6403
1056.0,0.6383
1057.0,0.6365
1058.0,0.621
1059.0,0.6219
1060.0,0.6211
1061.0,0.6205
1062.0,0.624
1063.0,0.618
1064.0,0.6252
1065.0,0.6212
1066.0,0.6086
1067.0,0.6166
1068.0,0.6035
1069.0,0.5846
1070.0,0.6048
1071.0,0.6131
1072.0,0.6069
1073.0,0.598
1074.0,0.6122
1075.0,0.5851
1076.0,0.6119
1077.0,0.603
1078.0,0.5924
1079.0,0.6016
1080.0,0.5938
1081.0,0.5764
1082.0,0.5827
1083.0,0.5838
1084.0,0.5761
1085.0,0.5949
1086.0,0.5486
1087.0,0.562
1088.0,0.5839
1089.0,0.5693
1090.0,0.5593
1091.0,0.583
1092.0,0.5807
1093.0,0.5029
1094.0,0.5326
1095.0,0.5223
1096.0,0.5034
1097.0,0.5672
1098.0,0.4966
1099.0,0.5163
1100.0,0.4849
1101.0,0.4895
1102.0,0.4703
1103.0,0.4679
1104.0,0.4683
1105.0,0.5056
1106.0,0.405
1107.0,0.4838
1108.0,0.4211
1109.0,0.4198
1110.0,0.4809
1111.0,0.3412
1112.0,0.4157
1113.0,0.2805
1114.0,0.3115
1115.0,0.2588
1116.0,0.2165
1117.0,0.091
1118.0,0.2317
1119.0,0.1239
1120.0,0.1561
1121.0,0.2014
1122.0,0.0926
1123.0,0.1408
1124.0,0.1189
1125.0,0.153
1126.0,0.06115
1127.0,0.1719
1128.0,0.1113
1129.0,0.1167
1130.0,0.08072
1131.0,0.3064
1132.0,0.2441
1133.0,0.1651
1134.0,0.04898
1135.0,0.01806
1136.0,0.1414
1137.0,0.3039
1138.0,0.2166
1139.0,0.3038
1140.0,0.2612
1141.0,0.2058
1142.0,0.2326
1143.0,0.3223
1144.0,0.1227
1145.0,0.1589
1146.0,0.1715
1147.0,0.06868
1148.0,0.2792
1149.0,0.229
1150.0,0.1315
1151.0,0.2151
1152.0,0.2577
1153.0,0.246
1154.0,0.1559
1155.0,0.3173
1156.0,0.2894
1157.0,0.3194
1158.0,0.3157
1159.0,0.3355
1160.0,0.2929
1161.0,0.3497
1162.0,0.3522
1163.0,0.457
1164.0,0.399
1165.0,0.3827
1166.0,0.3757
1167.0,0.4057
1168.0,0.4115
1169.0,0.4188
1170.0,0.4498
1171.0,0.4395
1172.0,0.4443
1173.0,0.4488
1174.0,0.3358
1175.0,0.4362
1176.0,0.4723
1177.0,0.4581
1178.0,0.3557
1179.0,0.4759
1180.0,0.4328
1181.0,0.4458
1182.0,0.3203
1183.0,0.4372
1184.0,0.4139
1185.0,0.403
1186.0,0.4656
1187.0,0.4473
1188.0,0.3267
1189.0,0.4176
1190.0,0.455
1191.0,0.4384
1192.0,0.4607
1193.0,0.4438
1194.0,0.4558
1195.0,0.4356
1196.0,0.4224
1197.0,0.4536
1198.0,0.4186
1199.0,0.3663
1200.0,0.4386
1201.0,0.4265
1202.0,0.422
1203.0,0.4186
1204.0,0.372
1205.0,0.4288
1206.0,0.4679
1207.0,0.422
1208.0,0.4123
1209.0,0.42
1210.0,0.4352
1211.0,0.4184
1212.0,0.4177
1213.0,0.4547
1214.0,0.4256
1215.0,0.4186
1216.0,0.4531
1217.0,0.4431
1218.0,0.4496
1219.0,0.445
1220.0,0.4498
1221.0,0.4532
1222.0,0.4426
1223.0,0.4393
1224.0,0.438
1225.0,0.4504
1226.0,0.4522
1227.0,0.4223
1228.0,0.4534
1229.0,0.4522
1230.0,0.4455
1231.0,0.4549
1232.0,0.4524
1233.0,0.4409
1234.0,0.4537
1235.0,0.4514
1236.0,0.4543
1237.0,0.4496
1238.0,0.4527
1239.0,0.447
1240.0,0.4485
1241.0,0.4474
1242.0,0.4455
1243.0,0.4418
1244.0,0.4453
1245.0,0.447
1246.0,0.4444
1247.0,0.4429
1248.0,0.4431
1249.0,0.4441
1250.0,0.4417
1251.0,0.4366
1252.0,0.4359
1253.0,0.4338
1254.0,0.4306
1255.0,0.4359
1256.0,0.4262
1257.0,0.4244
1258.0,0.4303
1259.0,0.4187
1260.0,0.4204
1261.0,0.4019
1262.0,0.3925
1263.0,0.3934
1264.0,0.3695
1265.0,0.3908
1266.0,0.3798
1267.0,0.3839
1268.0,0.3682
1269.0,0.2571
1270.0,0.3835
1271.0,0.4
1272.0,0.4007
1273.0,0.397
1274.0,0.3975
1275.0,0.4023
1276.0,0.4052
1277.0,0.4068
1278.0,0.4125
1279.0,0.409
1280.0,0.4037
1281.0,0.3843
1282.0,0.3687
1283.0,0.3974
1284.0,0.4073
1285.0,0.4097
1286.0,0.4144
1287.0,0.4096
1288.0,0.4091
1289.0,0.3993
1290.0,0.4052
1291.0,0.4103
1292.0,0.3914
1293.0,0.4038
1294.0,0.4013
1295.0,0.4008
1296.0,0.3866
1297.0,0.3688
1298.0,0.3908
1299.0,0.4038
1300.0,0.3525
1301.0,0.3611
1302.0,0.3893
1303.0,0.3467
1304.0,0.3058
1305.0,0.3822
1306.0,0.3828
1307.0,0.3089
1308.0,0.3457
1309.0,0.3806
1310.0,0.3035
1311.0,0.3337
1312.0,0.3263
1313.0,0.3216
1314.0,0.2915
1315.0,0.29
1316.0,0.3301
1317.0,0.3138
1318.0,0.3369
1319.0,0.2755
1320.0,0.2643
1321.0,0.3037
1322.0,0.3084
1323.0,0.2422
1324.0,0.2701
1325.0,0.3259
1326.0,0.2862
1327.0,0.2745
1328.0,0.24
1329.0,0.1888
1330.0,0.2413
1331.0,0.1564
1332.0,0.1577
1333.0,0.2166
1334.0,0.1793
1335.0,0.2411
1336.0,0.196
1337.0,0.1766
1338.0,0.1906
1339.0,0.1884
1340.0,0.1806
1341.0,0.1824
1342.0,0.1911
1343.0,0.1427
1344.0,0.08522
1345.0,0.1212
1346.0,0.06955
1347.0,0.07228
1348.0,0.006793
1349.0,0.02181
1350.0,0.02094
1351.0,0.007061
1352.0,0.00265
1353.0,0.0002027
1354.0,0.0005468
1355.0,9.734e-06
1356.0,0.0001027
1357.0,0.0001541
1358.0,1.117e-05
1359.0,2.495e-06
1360.0,6.272e-06
1361.0,2.452e-08
1362.0,1.197e-10
1363.0,9.653e-06
1364.0,4.303e-06
1365.0,8.017e-11
1366.0,3.604e-05
1367.0,1.391e-05
1368.0,2.285e-12
1369.0,1.683e-06
1370.0,1.054e-06
1371.0,8.29e-08
1372.0,7.713e-06
1373.0,0.000103
1374.0,0.0003645
1375.0,0.0006531
1376.0,0.0004858
1377.0,0.0002381
1378.0,0.002002
1379.0,0.0001021
1380.0,0.000171
1381.0,5.454e-06
1382.0,7.43e-06
1383.0,1.454e-07
1384.0,2.081e-06
1385.0,5.431e-06
1386.0,7.768e-06
1387.0,0.0004326
1388.0,9.25e-06
1389.0,0.001109
1390.0,0.0009484
1391.0,0.0006809
1392.0,5.023e-05
1393.0,0.0002273
1394.0,0.0001771
1395.0,1.879e-06
1396.0,3.006e-08
1397.0,0.0001015
1398.0,0.002293
1399.0,0.001459
1400.0,1.778e-08
1401.0,4.801e-08
1402.0,0.002872
1403.0,0.003833
1404.0,0.001204
1405.0,1.127e-06
1406.0,0.003456
1407.0,0.0002953
1408.0,0.002786
1409.0,0.001141
1410.0,0.0008265
1411.0,0.003336
1412.0,0.004096
1413.0,0.03106
1414.0,0.0006389
1415.0,0.0003392
1416.0,0.04382
1417.0,0.01593
1418.0,0.01822
1419.0,0.002973
1420.0,0.01127
1421.0,0.01242
1422.0,0.05634
1423.0,0.01169
1424.0,0.02126
1425.0,0.03208
1426.0,0.03414
1427.0,0.05742
1428.0,0.006549
1429.0,0.04523
1430.0,0.07148
1431.0,0.07711
1432.0,0.005239
1433.0,0.05109
1434.0,0.02702
1435.0,0.03051
1436.0,0.05323
1437.0,0.04087
1438.0,0.01885
1439.0,0.06987
1440.0,0.05271
1441.0,0.04278
1442.0,0.0468
1443.0,0.05481
1444.0,0.07433
1445.0,0.06127
1446.0,0.02854
1447.0,0.04494
1448.0,0.1291
1449.0,0.1153
1450.0,0.03324
1451.0,0.01419
1452.0,0.07235
1453.0,0.09311
1454.0,0.1491
1455.0,0.07434
1456.0,0.1016
1457.0,0.1298
1458.0,0.147
1459.0,0.1747
1460.0,0.09431
1461.0,0.1011
1462.0,0.143
1463.0,0.04987
1464.0,0.1645
1465.0,0.1001
1466.0,0.07576
1467.0,0.04292
