interpolation:linear
wavelength,value
280.0,8.256000000000001e-26
280.5,3.598e-24
281.0,2.1779999999999998e-23
281.5,9.124999999999998e-22
282.0,8.692e-21
282.5,3.762e-20
283.0,1.895e-19
283.5,3.817e-19
284.0,1.314e-17
284.5,5.171e-17
285.0,1.397e-16
285.5,1.269e-15
286.0,6.367e-15
286.5,4.194e-14
287.0,1.562e-13
287.5,8.175e-13
288.0,4.351e-12
288.5,1.887e-11
289.0,6.918e-11
289.5,2.839e-10
290.0,9.979e-10
290.5,2.466e-09
291.0,6.558e-09
291.5,2.418e-08
292.0,6.724e-08
292.5,1.066e-07
293.0,2.642e-07
293.5,7.71e-07
294.0,1.376e-06
294.5,2.541e-06
295.0,4.748e-06
295.5,1.237e-05
296.0,2.339e-05
296.5,3.194e-05
297.0,4.232e-05
297.5,0.000109
298.0,0.0001655
298.5,0.0001616
299.0,0.000345
299.5,0.0005352
300.0,0.0005674
300.5,0.0007888
301.0,0.001324
301.5,0.001963
302.0,0.001624
302.5,0.003118
303.0,0.005455
303.5,0.006744
304.0,0.006227
304.5,0.008762
305.0,0.01218
305.5,0.01324
306.0,0.01261
306.5,0.01521
307.0,0.02087
307.5,0.02574
308.0,0.02701
308.5,0.03085
309.0,0.02754
309.5,0.03086
310.0,0.03075
310.5,0.04975
311.0,0.06199
311.5,0.05985
312.0,0.05823
312.5,0.0696
313.0,0.07498
313.5,0.07418
314.0,0.09047
314.5,0.07726
315.0,0.1013
315.5,0.08717
316.0,0.07381
316.5,0.1031
317.0,0.1289
317.5,0.1362
318.0,0.1044
318.5,0.1244
319.0,0.145
319.5,0.1234
320.0,0.1508
320.5,0.1809
321.0,0.1548
321.5,0.1485
322.0,0.167
322.5,0.1457
323.0,0.1414
323.5,0.1653
324.0,0.1928
324.5,0.1996
325.0,0.1806
325.5,0.2273
326.0,0.2704
326.5,0.267
327.0,0.2693
327.5,0.2638
328.0,0.2419
328.5,0.248
329.0,0.2911
329.5,0.3295
330.0,0.336
330.5,0.2755
331.0,0.2838
331.5,0.2857
332.0,0.3037
332.5,0.2989
333.0,0.3011
333.5,0.2781
334.0,0.2869
334.5,0.3267
335.0,0.3052
335.5,0.3474
336.0,0.2414
336.5,0.2941
337.0,0.2441
337.5,0.3057
338.0,0.2955
338.5,0.3344
339.0,0.3343
339.5,0.3216
340.0,0.3878
340.5,0.3505
341.0,0.3371
341.5,0.3135
342.0,0.3769
342.5,0.3547
343.0,0.3898
343.5,0.3672
344.0,0.276
344.5,0.2739
345.0,0.3679
345.5,0.3783
346.0,0.3234
346.5,0.3679
347.0,0.3951
347.5,0.3202
348.0,0.3678
348.5,0.3697
349.0,0.3444
349.5,0.342
350.0,0.4246
350.5,0.4494
351.0,0.4022
351.5,0.3903
352.0,0.422
352.5,0.3311
353.0,0.4189
353.5,0.4496
354.0,0.4686
354.5,0.4768
355.0,0.4765
355.5,0.4319
356.0,0.4535
356.5,0.3885
357.0,0.322
357.5,0.3955
358.0,0.3145
358.5,0.2696
359.0,0.3782
359.5,0.4832
360.0,0.5139
360.5,0.4121
361.0,0.3768
361.5,0.4351
362.0,0.3772
362.5,0.5234
363.0,0.4713
363.5,0.4353
364.0,0.5338
364.5,0.4575
365.0,0.4672
365.5,0.588
366.0,0.6247
366.5,0.5884
367.0,0.5746
367.5,0.5979
368.0,0.5246
368.5,0.5307
369.0,0.5746
369.5,0.614
370.0,0.6562
370.5,0.5106
371.0,0.5469
371.5,0.686
372.0,0.4565
372.5,0.5487
373.0,0.5594
373.5,0.3649
374.0,0.5314
374.5,0.4411
375.0,0.4299
375.5,0.6434
376.0,0.5346
376.5,0.5554
377.0,0.5893
377.5,0.6911
378.0,0.7509
378.5,0.7116
379.0,0.5887
379.5,0.5392
380.0,0.5619
380.5,0.6822
381.0,0.6851
381.5,0.5443
382.0,0.4844
382.5,0.4138
383.0,0.384
383.5,0.3706
384.0,0.4097
384.5,0.6038
385.0,0.6001
385.5,0.56
386.0,0.4806
386.5,0.6326
387.0,0.5268
387.5,0.5929
388.0,0.5486
388.5,0.5434
389.0,0.5878
389.5,0.7133
390.0,0.7173
390.5,0.6615
391.0,0.7802
391.5,0.7974
392.0,0.673
392.5,0.6036
393.0,0.3365
393.5,0.245
394.0,0.4995
394.5,0.6363
395.0,0.7778
395.5,0.7916
396.0,0.6876
396.5,0.4027
397.0,0.3027
397.5,0.6168
398.0,0.8654
398.5,0.8961
399.0,0.9718
399.5,0.9703
400.0,1.009
401.0,1.04
402.0,1.101
403.0,1.049
404.0,1.036
405.0,1.039
406.0,1.025
407.0,1.012
408.0,1.054
409.0,1.132
410.0,0.9915
411.0,1.077
412.0,1.16
413.0,1.134
414.0,1.151
415.0,1.157
416.0,1.18
417.0,1.154
418.0,1.136
419.0,1.154
420.0,1.152
421.0,1.208
422.0,1.151
423.0,1.127
424.0,1.196
425.0,1.196
426.0,1.167
427.0,1.148
428.0,1.121
429.0,1.064
430.0,0.9331
431.0,0.9272
432.0,1.2
433.0,1.209
434.0,1.125
435.0,1.178
436.0,1.329
437.0,1.313
438.0,1.198
439.0,1.242
440.0,1.284
441.0,1.333
442.0,1.432
443.0,1.398
444.0,1.431
445.0,1.403
446.0,1.341
447.0,1.451
448.0,1.477
449.0,1.485
450.0,1.529
451.0,1.589
452.0,1.533
453.0,1.444
454.0,1.51
455.0,1.522
456.0,1.561
457.0,1.589
458.0,1.538
459.0,1.533
460.0,1.54
461.0,1.577
462.0,1.591
463.0,1.583
464.0,1.558
465.0,1.54
466.0,1.557
467.0,1.531
468.0,1.552
469.0,1.562
470.0,1.515
471.0,1.515
472.0,1.598
473.0,1.58
474.0,1.585
475.0,1.602
476.0,1.557
477.0,1.564
478.0,1.61
479.0,1.601
480.0,1.606
481.0,1.638
482.0,1.648
483.0,1.629
484.0,1.597
485.0,1.523
486.0,1.333
487.0,1.398
488.0,1.535
489.0,1.542
490.0,1.624
491.0,1.598
492.0,1.51
493.0,1.561
494.0,1.579
495.0,1.594
496.0,1.605
497.0,1.632
498.0,1.558
499.0,1.58
500.0,1.536
501.0,1.51
502.0,1.491
503.0,1.555
504.0,1.521
505.0,1.574
506.0,1.626
507.0,1.549
508.0,1.501
509.0,1.544
510.0,1.536
511.0,1.578
512.0,1.597
513.0,1.513
514.0,1.503
515.0,1.49
516.0,1.487
517.0,1.323
518.0,1.392
519.0,1.461
520.0,1.516
521.0,1.532
522.0,1.535
523.0,1.508
524.0,1.564
525.0,1.585
526.0,1.515
527.0,1.43
528.0,1.514
529.0,1.598
530.0,1.576
531.0,1.601
532.0,1.547
533.0,1.503
534.0,1.548
535.0,1.583
536.0,1.598
537.0,1.536
538.0,1.564
539.0,1.552
540.0,1.489
541.0,1.501
542.0,1.55
543.0,1.534
544.0,1.562
545.0,1.558
546.0,1.566
547.0,1.566
548.0,1.548
549.0,1.554
550.0,1.573
551.0,1.555
552.0,1.567
553.0,1.54
554.0,1.578
555.0,1.582
556.0,1.562
557.0,1.515
558.0,1.505
559.0,1.479
560.0,1.498
561.0,1.519
562.0,1.51
563.0,1.552
564.0,1.512
565.0,1.5
566.0,1.479
567.0,1.509
568.0,1.498
569.0,1.466
570.0,1.466
571.0,1.457
572.0,1.495
573.0,1.512
574.0,1.509
575.0,1.482
576.0,1.469
577.0,1.485
578.0,1.463
579.0,1.468
580.0,1.494
581.0,1.501
582.0,1.529
583.0,1.532
584.0,1.545
585.0,1.507
586.0,1.477
587.0,1.511
588.0,1.479
589.0,1.319
590.0,1.379
591.0,1.455
592.0,1.44
593.0,1.459
594.0,1.451
595.0,1.418
596.0,1.469
597.0,1.455
598.0,1.45
599.0,1.451
600.0,1.452
601.0,1.439
602.0,1.43
603.0,1.454
604.0,1.478
605.0,1.471
606.0,1.465
607.0,1.479
608.0,1.462
609.0,1.465
610.0,1.454
611.0,1.462
612.0,1.458
613.0,1.44
614.0,1.42
615.0,1.451
616.0,1.403
617.0,1.401
618.0,1.455
619.0,1.44
620.0,1.45
621.0,1.452
622.0,1.436
623.0,1.415
624.0,1.391
625.0,1.388
626.0,1.41
627.0,1.427
628.0,1.35
629.0,1.4
630.0,1.369
631.0,1.395
632.0,1.377
633.0,1.417
634.0,1.402
635.0,1.423
636.0,1.404
637.0,1.427
638.0,1.439
639.0,1.423
640.0,1.409
641.0,1.408
642.0,1.401
643.0,1.42
644.0,1.415
645.0,1.419
646.0,1.388
647.0,1.376
648.0,1.379
649.0,1.353
650.0,1.354
651.0,1.411
652.0,1.36
653.0,1.393
654.0,1.378
655.0,1.33
656.0,1.177
657.0,1.208
658.0,1.353
659.0,1.362
660.0,1.368
661.0,1.377
662.0,1.382
663.0,1.354
664.0,1.369
665.0,1.369
666.0,1.37
667.0,1.368
668.0,1.369
669.0,1.39
670.0,1.384
671.0,1.384
672.0,1.372
673.0,1.393
674.0,1.387
675.0,1.375
676.0,1.384
677.0,1.371
678.0,1.375
679.0,1.353
680.0,1.364
681.0,1.355
682.0,1.353
683.0,1.351
684.0,1.345
685.0,1.356
686.0,1.349
687.0,0.969
688.0,1.1
689.0,1.103
690.0,1.146
691.0,1.193
692.0,1.226
693.0,1.218
694.0,1.208
695.0,1.249
696.0,1.251
697.0,1.317
698.0,1.297
699.0,1.273
700.0,1.258
701.0,1.248
702.0,1.254
703.0,1.257
704.0,1.293
705.0,1.295
706.0,1.292
707.0,1.293
708.0,1.296
709.0,1.296
710.0,1.297
711.0,1.295
712.0,1.29
713.0,1.278
714.0,1.283
715.0,1.245
716.0,1.247
717.0,1.109
718.0,1.024
719.0,0.9409
720.0,0.9875
721.0,1.073
722.0,1.21
723.0,1.136
724.0,1.035
725.0,1.022
726.0,1.068
727.0,1.077
728.0,1.021
729.0,1.05
730.0,1.11
731.0,1.066
732.0,1.13
733.0,1.186
734.0,1.212
735.0,1.188
736.0,1.187
737.0,1.192
738.0,1.204
739.0,1.181
740.0,1.21
741.0,1.197
742.0,1.197
743.0,1.227
744.0,1.223
745.0,1.223
746.0,1.229
747.0,1.232
748.0,1.229
749.0,1.215
750.0,1.215
751.0,1.203
752.0,1.208
753.0,1.214
754.0,1.217
755.0,1.21
756.0,1.21
757.0,1.212
758.0,1.197
759.0,1.177
760.0,0.2707
761.0,0.1591
762.0,0.677
763.0,0.3838
764.0,0.5364
765.0,0.6777
766.0,0.7962
767.0,0.9697
768.0,1.092
769.0,1.109
770.0,1.14
771.0,1.146
772.0,1.148
773.0,1.156
774.0,1.15
775.0,1.141
776.0,1.155
777.0,1.14
778.0,1.133
779.0,1.135
780.0,1.128
781.0,1.13
782.0,1.137
783.0,1.117
784.0,1.122
785.0,1.114
786.0,1.127
787.0,1.11
788.0,1.098
789.0,1.098
790.0,1.073
791.0,1.079
792.0,1.07
793.0,1.054
794.0,1.067
795.0,1.087
796.0,1.059
797.0,1.061
798.0,1.086
799.0,1.08
800.0,1.063
801.0,1.061
802.0,1.058
803.0,1.051
804.0,1.052
805.0,1.047
806.0,1.074
807.0,1.062
808.0,1.063
809.0,1.045
810.0,1.038
811.0,1.042
812.0,1.016
813.0,0.9976
814.0,0.8911
815.0,0.8853
816.0,0.8262
817.0,0.8397
818.0,0.8114
819.0,0.8954
820.0,0.848
821.0,0.9752
822.0,0.9501
823.0,0.672
824.0,0.928
825.0,0.9594
826.0,0.9279
827.0,0.9742
828.0,0.8405
829.0,0.9216
830.0,0.9111
831.0,0.9139
832.0,0.8886
833.0,0.9379
834.0,0.9096
835.0,0.9891
836.0,0.9532
837.0,0.9916
838.0,0.9636
839.0,0.9762
840.0,0.997
841.0,0.9841
842.0,0.9845
843.0,0.9821
844.0,0.9696
845.0,1.001
846.0,0.9964
847.0,0.9773
848.0,0.9722
849.0,0.9447
850.0,0.905
851.0,0.9592
852.0,0.9521
853.0,0.9159
854.0,0.7914
855.0,0.8688
856.0,0.9498
857.0,0.9705
858.0,0.9637
859.0,0.9642
860.0,0.9658
861.0,0.9607
862.0,0.9757
863.0,0.9988
864.0,0.9489
865.0,0.9406
866.0,0.8458
867.0,0.8827
868.0,0.9606
869.0,0.9407
870.0,0.9676
871.0,0.9545
872.0,0.9512
873.0,0.9493
874.0,0.9381
875.0,0.9192
876.0,0.9289
877.0,0.9383
878.0,0.9486
879.0,0.9341
880.0,0.9141
881.0,0.9009
882.0,0.9205
883.0,0.9231
884.0,0.9191
885.0,0.9261
886.0,0.8841
887.0,0.8925
888.0,0.9064
889.0,0.9155
890.0,0.9094
891.0,0.9071
892.0,0.8828
893.0,0.8576
894.0,0.8319
895.0,0.7917
896.0,0.7484
897.0,0.6506
898.0,0.7056
899.0,0.5462
900.0,0.7179
901.0,0.5721
902.0,0.659
903.0,0.6695
904.0,0.8261
905.0,0.8002
906.0,0.751
907.0,0.6216
908.0,0.6323
909.0,0.6795
910.0,0.6106
911.0,0.6451
912.0,0.6722
913.0,0.6202
914.0,0.6133
915.0,0.6639
916.0,0.565
917.0,0.7063
918.0,0.5796
919.0,0.7168
920.0,0.7193
921.0,0.7469
922.0,0.6747
923.0,0.7212
924.0,0.692
925.0,0.6772
926.0,0.6846
927.0,0.7598
928.0,0.5762
929.0,0.531
930.0,0.4253
931.0,0.4017
932.0,0.2973
933.0,0.246
934.0,0.144
935.0,0.2482
936.0,0.1607
937.0,0.1636
938.0,0.199
939.0,0.3894
940.0,0.4629
941.0,0.3569
942.0,0.4085
943.0,0.2746
944.0,0.284
945.0,0.3667
946.0,0.1946
947.0,0.3704
948.0,0.2735
949.0,0.4879
950.0,0.1479
951.0,0.4791
952.0,0.2679
953.0,0.3392
954.0,0.4083
955.0,0.3422
956.0,0.3286
957.0,0.2694
958.0,0.4549
959.0,0.3695
960.0,0.4139
961.0,0.4584
962.0,0.4346
963.0,0.4956
964.0,0.4559
965.0,0.4932
966.0,0.4946
967.0,0.493
968.0,0.6423
969.0,0.6722
970.0,0.62
971.0,0.7016
972.0,0.6727
973.0,0.594
974.0,0.565
975.0,0.5833
976.0,0.5582
977.0,0.6267
978.0,0.5989
979.0,0.6247
980.0,0.5891
981.0,0.6975
982.0,0.6699
983.0,0.6449
984.0,0.7155
985.0,0.6673
986.0,0.7261
987.0,0.7141
988.0,0.7128
989.0,0.7228
990.0,0.7084
991.0,0.7252
992.0,0.7292
993.0,0.7151
994.0,0.7288
995.0,0.7277
996.0,0.7248
997.0,0.7257
998.0,0.7225
999.0,0.7198
1000.0,0.7152
1001.0,0.7236
1002.0,0.7057
1003.0,0.711
1004.0,0.6942
1005.0,0.6681
1006.0,0.6945
1007.0,0.7091
1008.0,0.7056
1009.0,0.7023
1010.0,0.6996
1011.0,0.7056
1012.0,0.6999
1013.0,0.7038
1014.0,0.6989
1015.0,0.6943
1016.0,0.6913
1017.0,0.6931
1018.0,0.6903
1019.0,0.6764
1020.0,0.6868
1021.0,0.6858
1022.0,0.6808
1023.0,0.6881
1024.0,0.6799
1025.0,0.6874
1026.0,0.6847
1027.0,0.6831
1028.0,0.6817
1029.0,0.6738
1030.0,0.6781
1031.0,0.6755
1032.0,0.6735
1033.0,0.6634
1034.0,0.6634
1035.0,0.6655
1036.0,0.6691
1037.0,0.6582
1038.0,0.6612
1039.0,0.6609
1040.0,0.6582
1041.0,0.6609
1042.0,0.6564
1043.0,0.6543
1044.0,0.6567
1045.0,0.6479
1046.0,0.6408
1047.0,0.6466
1048.0,0.6502
1049.0,0.648
1050.0,0.6451
1051.0,0.6443
1052.0,0.6417
1053.0,0.6367
1054.0,0.6382
1055.0,0.6387
1056.0,0.6366
1057.0,0.6348
1058.0,0.6193
1059.0,0.6201
1060.0,0.6192
1061.0,0.6186
1062.0,0.622
1063.0,0.6159
1064.0,0.6232
1065.0,0.619
1066.0,0.6066
1067.0,0.6145
1068.0,0.6013
1069.0,0.5826
1070.0,0.6026
1071.0,0.6113
1072.0,0.6048
1073.0,0.596
1074.0,0.6107
1075.0,0.5822
1076.0,0.6103
1077.0,0.6006
1078.0,0.5897
1079.0,0.6003
1080.0,0.5914
1081.0,0.5735
1082.0,0.5809
1083.0,0.5823
1084.0,0.5727
1085.0,0.5926
1086.0,0.5442
1087.0,0.5592
1088.0,0.5821
1089.0,0.5663
1090.0,0.5552
1091.0,0.5808
1092.0,0.5789
1093.0,0.497
1094.0,0.5304
1095.0,0.517
1096.0,0.4969
1097.0,0.5655
1098.0,0.4898
1099.0,0.5099
1100.0,0.4768
1101.0,0.482
1102.0,0.462
1103.0,0.4588
1104.0,0.4592
1105.0,0.4989
1106.0,0.3923
1107.0,0.4759
1108.0,0.4098
1109.0,0.4093
1110.0,0.4726
1111.0,0.3292
1112.0,0.4057
1113.0,0.2673
1114.0,0.2977
1115.0,0.2471
1116.0,0.2028
1117.0,0.0806
1118.0,0.2186
1119.0,0.1133
1120.0,0.1428
1121.0,0.1865
1122.0,0.08267
1123.0,0.1289
1124.0,0.1088
1125.0,0.1408
1126.0,0.0532
1127.0,0.1585
1128.0,0.0993
1129.0,0.1047
1130.0,0.07082
1131.0,0.2899
1132.0,0.2295
1133.0,0.1511
1134.0,0.04209
1135.0,0.01561
1136.0,0.128
1137.0,0.2865
1138.0,0.2031
1139.0,0.2922
1140.0,0.2483
1141.0,0.193
1142.0,0.2198
1143.0,0.3076
1144.0,0.1129
1145.0,0.1456
1146.0,0.1571
1147.0,0.05963
1148.0,0.2664
1149.0,0.216
1150.0,0.1211
1151.0,0.2016
1152.0,0.2443
1153.0,0.2352
1154.0,0.142
1155.0,0.3051
1156.0,0.2768
1157.0,0.3074
1158.0,0.304
1159.0,0.3251
1160.0,0.2812
1161.0,0.3401
1162.0,0.3423
1163.0,0.4512
1164.0,0.3911
1165.0,0.3728
1166.0,0.3676
1167.0,0.3983
1168.0,0.4035
1169.0,0.4116
1170.0,0.4441
1171.0,0.4335
1172.0,0.4394
1173.0,0.4431
1174.0,0.3257
1175.0,0.4314
1176.0,0.4697
1177.0,0.4539
1178.0,0.348
1179.0,0.4734
1180.0,0.4276
1181.0,0.4408
1182.0,0.3119
1183.0,0.4329
1184.0,0.4083
1185.0,0.3963
1186.0,0.4622
1187.0,0.4426
1188.0,0.318
1189.0,0.4129
1190.0,0.4517
1191.0,0.433
1192.0,0.4575
1193.0,0.4399
1194.0,0.4524
1195.0,0.4308
1196.0,0.4167
1197.0,0.4511
1198.0,0.4149
1199.0,0.3595
1200.0,0.4347
1201.0,0.4215
1202.0,0.4177
1203.0,0.4144
1204.0,0.366
1205.0,0.4254
1206.0,0.4663
1207.0,0.4173
1208.0,0.4088
1209.0,0.4167
1210.0,0.4326
1211.0,0.4145
1212.0,0.4124
1213.0,0.4524
1214.0,0.4209
1215.0,0.4136
1216.0,0.4508
1217.0,0.4402
1218.0,0.4473
1219.0,0.4424
1220.0,0.4476
1221.0,0.4514
1222.0,0.4404
1223.0,0.4368
1224.0,0.4351
1225.0,0.4486
1226.0,0.4508
1227.0,0.4192
1228.0,0.4523
1229.0,0.4508
1230.0,0.4438
1231.0,0.4542
1232.0,0.4516
1233.0,0.4388
1234.0,0.4533
1235.0,0.4508
1236.0,0.4538
1237.0,0.4486
1238.0,0.4523
1239.0,0.4465
1240.0,0.4481
1241.0,0.4466
1242.0,0.4451
1243.0,0.4414
1244.0,0.4448
1245.0,0.4466
1246.0,0.4439
1247.0,0.4424
1248.0,0.4425
1249.0,0.4435
1250.0,0.4411
1251.0,0.4358
1252.0,0.4354
1253.0,0.4328
1254.0,0.4292
1255.0,0.4352
1256.0,0.4247
1257.0,0.4227
1258.0,0.4293
1259.0,0.4164
1260.0,0.4183
1261.0,0.3982
1262.0,0.388
1263.0,0.3888
1264.0,0.3631
1265.0,0.3863
1266.0,0.3742
1267.0,0.379
1268.0,0.3622
1269.0,0.2432
1270.0,0.3783
1271.0,0.3965
1272.0,0.3974
1273.0,0.3935
1274.0,0.3943
1275.0,0.3994
1276.0,0.4026
1277.0,0.4045
1278.0,0.4109
1279.0,0.4073
1280.0,0.4021
1281.0,0.383
1282.0,0.368
1283.0,0.3966
1284.0,0.4063
1285.0,0.4088
1286.0,0.4137
1287.0,0.4085
1288.0,0.4081
1289.0,0.3973
1290.0,0.4043
1291.0,0.4096
1292.0,0.3888
1293.0,0.4026
1294.0,0.4
1295.0,0.3991
1296.0,0.3836
1297.0,0.3648
1298.0,0.3887
1299.0,0.4028
1300.0,0.3479
1301.0,0.3572
1302.0,0.3873
1303.0,0.3426
1304.0,0.2987
1305.0,0.3799
1306.0,0.3803
1307.0,0.3029
1308.0,0.3421
1309.0,0.3779
1310.0,0.2974
1311.0,0.3294
1312.0,0.3216
1313.0,0.3164
1314.0,0.2855
1315.0,0.2833
1316.0,0.3253
1317.0,0.3089
1318.0,0.3331
1319.0,0.268
1320.0,0.258
1321.0,0.2979
1322.0,0.302
1323.0,0.2336
1324.0,0.2629
1325.0,0.3211
1326.0,0.2796
1327.0,0.2677
1328.0,0.2329
1329.0,0.1802
1330.0,0.2318
1331.0,0.1463
1332.0,0.1489
1333.0,0.2056
1334.0,0.1714
1335.0,0.2327
1336.0,0.1872
1337.0,0.1674
1338.0,0.181
1339.0,0.1794
1340.0,0.1728
1341.0,0.1725
1342.0,0.1809
1343.0,0.1303
1344.0,0.07775
1345.0,0.1114
1346.0,0.06058
1347.0,0.06249
1348.0,0.005105
1349.0,0.01713
1350.0,0.01696
1351.0,0.005063
1352.0,0.001694
1353.0,0.0001111
1354.0,0.0003274
1355.0,4.36e-06
1356.0,5.539e-05
1357.0,8.371e-05
1358.0,5.061e-06
1359.0,9.229e-07
1360.0,2.642e-06
1361.0,6.552e-09
1362.0,2.564e-11
1363.0,3.934e-06
1364.0,1.689e-06
1365.0,1.372e-11
1366.0,1.556e-05
1367.0,6.067e-06
1368.0,2.464e-13
1369.0,6.479e-07
1370.0,3.73e-07
1371.0,2.594e-08
1372.0,3.347e-06
1373.0,5.218e-05
1374.0,0.000204
1375.0,0.0003701
1376.0,0.0002922
1377.0,0.0001395
1378.0,0.00125
1379.0,5.921e-05
1380.0,9.429e-05
1381.0,2.772e-06
1382.0,3.152e-06
1383.0,5.539e-08
1384.0,7.778e-07
1385.0,2.516e-06
1386.0,3.121e-06
1387.0,0.0002324
1388.0,4.739e-06
1389.0,0.0006566
1390.0,0.0005645
1391.0,0.000393
1392.0,2.745e-05
1393.0,0.0001321
1394.0,8.929e-05
1395.0,8.181e-07
1396.0,8.504e-09
1397.0,5.649e-05
1398.0,0.001426
1399.0,0.000904
1400.0,4.506e-09
1401.0,1.418e-08
1402.0,0.002009
1403.0,0.002629
1404.0,0.0008166
1405.0,4.555e-07
1406.0,0.002273
1407.0,0.0001941
1408.0,0.00184
1409.0,0.0007014
1410.0,0.0005228
1411.0,0.002295
1412.0,0.002916
1413.0,0.02496
1414.0,0.0004067
1415.0,0.0002078
1416.0,0.03729
1417.0,0.01254
1418.0,0.01439
1419.0,0.002296
1420.0,0.008854
1421.0,0.009638
1422.0,0.04832
1423.0,0.009705
1424.0,0.01789
1425.0,0.02675
1426.0,0.02923
1427.0,0.05115
1428.0,0.004879
1429.0,0.0394
1430.0,0.06433
1431.0,0.06996
1432.0,0.003876
1433.0,0.04548
1434.0,0.02363
1435.0,0.02529
1436.0,0.04616
1437.0,0.03538
1438.0,0.01568
1439.0,0.06162
1440.0,0.04628
1441.0,0.03652
1442.0,0.04026
1443.0,0.04868
1444.0,0.0666
1445.0,0.05362
1446.0,0.02459
1447.0,0.03867
1448.0,0.1202
1449.0,0.1058
1450.0,0.02862
1451.0,0.01186
1452.0,0.06509
1453.0,0.08463
1454.0,0.1403
1455.0,0.06801
1456.0,0.09215
1457.0,0.1207
1458.0,0.1395
1459.0,0.1654
1460.0,0.08763
1461.0,0.09274
1462.0,0.1336
1463.0,0.04476
1464.0,0.1561
