interpolation:linear
wavelength,value
280.0,1.307e-28
280.5,8.582e-27
281.0,6.036000000000001e-26
281.5,3.759e-24
282.0,4.556e-23
282.5,2.3199999999999997e-22
283.0,1.397e-21
283.5,3.075e-21
284.0,1.601e-19
284.5,7.609e-19
285.0,2.52e-18
285.5,2.91e-17
286.0,1.609e-16
286.5,1.294e-15
287.0,5.585e-15
287.5,3.546e-14
288.0,2.407e-13
288.5,1.188e-12
289.0,4.977e-12
289.5,2.366e-11
290.0,9.373e-11
290.5,2.561e-10
291.0,7.687e-10
291.5,3.305e-09
292.0,1.042e-08
292.5,1.772e-08
293.0,4.808e-08
293.5,1.587e-07
294.0,3.079e-07
294.5,6.054e-07
295.0,1.224e-06
295.5,3.515e-06
296.0,7.108e-06
296.5,1.034e-05
297.0,1.441e-05
297.5,3.984e-05
298.0,6.402e-05
298.5,6.519e-05
299.0,0.0001449
299.5,0.0002393
300.0,0.0002622
300.5,0.0003765
301.0,0.000662
301.5,0.00102
302.0,0.0008591
302.5,0.001704
303.0,0.003103
303.5,0.003924
304.0,0.003664
304.5,0.005294
305.0,0.007616
305.5,0.008449
306.0,0.008117
306.5,0.009922
307.0,0.01397
307.5,0.01763
308.0,0.01859
308.5,0.02147
309.0,0.01934
309.5,0.0222
310.0,0.02237
310.5,0.03641
311.0,0.04577
311.5,0.0444
312.0,0.04395
312.5,0.05313
313.0,0.05759
313.5,0.05678
314.0,0.07014
314.5,0.06083
315.0,0.08008
315.5,0.0685
316.0,0.05872
316.5,0.08288
317.0,0.1037
317.5,0.1094
318.0,0.08445
318.5,0.1019
319.0,0.1195
319.5,0.101
320.0,0.1234
320.5,0.1496
321.0,0.1293
321.5,0.1243
322.0,0.1387
322.5,0.1212
323.0,0.1184
323.5,0.1399
324.0,0.1636
324.5,0.169
325.0,0.1519
325.5,0.1924
326.0,0.2305
326.5,0.2287
327.0,0.2306
327.5,0.2257
328.0,0.206
328.5,0.2128
329.0,0.2511
329.5,0.2848
330.0,0.2904
330.5,0.2375
331.0,0.2446
331.5,0.2471
332.0,0.2638
332.5,0.2602
333.0,0.2621
333.5,0.2417
334.0,0.2494
334.5,0.2851
335.0,0.2669
335.5,0.3043
336.0,0.2116
336.5,0.2577
337.0,0.2139
337.5,0.268
338.0,0.2597
338.5,0.2944
339.0,0.2945
339.5,0.2835
340.0,0.3419
340.5,0.3093
341.0,0.298
341.5,0.2774
342.0,0.3338
342.5,0.3143
343.0,0.3457
343.5,0.3258
344.0,0.2447
344.5,0.2433
345.0,0.3272
345.5,0.3368
346.0,0.2881
346.5,0.328
347.0,0.3525
347.5,0.2858
348.0,0.3286
348.5,0.3305
349.0,0.3081
349.5,0.3062
350.0,0.3804
350.5,0.4029
351.0,0.3608
351.5,0.3502
352.0,0.379
352.5,0.2976
353.0,0.3767
353.5,0.4047
354.0,0.4219
354.5,0.4296
355.0,0.4296
355.5,0.3896
356.0,0.4093
356.5,0.3508
357.0,0.2909
357.5,0.3575
358.0,0.2844
358.5,0.244
359.0,0.3424
359.5,0.4376
360.0,0.4657
360.5,0.3736
361.0,0.3419
361.5,0.395
362.0,0.3427
362.5,0.4759
363.0,0.4288
363.5,0.3963
364.0,0.4863
364.5,0.417
365.0,0.4261
365.5,0.5365
366.0,0.5702
366.5,0.5375
367.0,0.5251
367.5,0.5467
368.0,0.4799
368.5,0.4857
369.0,0.5261
369.5,0.5625
370.0,0.6015
370.5,0.4682
371.0,0.5018
371.5,0.6297
372.0,0.4192
372.5,0.5041
373.0,0.5142
373.5,0.3355
374.0,0.489
374.5,0.4061
375.0,0.3959
375.5,0.5927
376.0,0.4927
376.5,0.5121
377.0,0.5436
377.5,0.6377
378.0,0.6932
378.5,0.6571
379.0,0.5439
379.5,0.4982
380.0,0.5195
380.5,0.6309
381.0,0.634
381.5,0.5039
382.0,0.4487
382.5,0.3835
383.0,0.356
383.5,0.3438
384.0,0.3802
384.5,0.5606
385.0,0.5573
385.5,0.5203
386.0,0.4467
386.5,0.5883
387.0,0.49
387.5,0.5518
388.0,0.5107
388.5,0.5061
389.0,0.5476
389.5,0.6648
390.0,0.6688
390.5,0.617
391.0,0.7279
391.5,0.7442
392.0,0.6283
392.5,0.5638
393.0,0.3144
393.5,0.2291
394.0,0.4671
394.5,0.5952
395.0,0.7278
395.5,0.741
396.0,0.6438
396.5,0.3772
397.0,0.2837
397.5,0.5782
398.0,0.8114
398.5,0.8404
399.0,0.9118
399.5,0.9107
400.0,0.9476
401.0,0.977
402.0,1.035
403.0,0.9867
404.0,0.9751
405.0,0.9786
406.0,0.9662
407.0,0.954
408.0,0.9949
409.0,1.068
410.0,0.9366
411.0,1.018
412.0,1.097
413.0,1.073
414.0,1.09
415.0,1.096
416.0,1.119
417.0,1.095
418.0,1.078
419.0,1.095
420.0,1.094
421.0,1.148
422.0,1.094
423.0,1.072
424.0,1.138
425.0,1.139
426.0,1.112
427.0,1.094
428.0,1.069
429.0,1.015
430.0,0.8904
431.0,0.885
432.0,1.146
433.0,1.155
434.0,1.075
435.0,1.126
436.0,1.271
437.0,1.257
438.0,1.147
439.0,1.189
440.0,1.23
441.0,1.278
442.0,1.373
443.0,1.341
444.0,1.373
445.0,1.346
446.0,1.287
447.0,1.394
448.0,1.419
449.0,1.428
450.0,1.471
451.0,1.529
452.0,1.476
453.0,1.39
454.0,1.454
455.0,1.466
456.0,1.504
457.0,1.532
458.0,1.483
459.0,1.478
460.0,1.485
461.0,1.522
462.0,1.536
463.0,1.528
464.0,1.505
465.0,1.488
466.0,1.505
467.0,1.48
468.0,1.5
469.0,1.511
470.0,1.465
471.0,1.465
472.0,1.546
473.0,1.529
474.0,1.534
475.0,1.55
476.0,1.507
477.0,1.514
478.0,1.558
479.0,1.551
480.0,1.556
481.0,1.587
482.0,1.598
483.0,1.58
484.0,1.55
485.0,1.478
486.0,1.294
487.0,1.357
488.0,1.491
489.0,1.498
490.0,1.578
491.0,1.553
492.0,1.468
493.0,1.518
494.0,1.535
495.0,1.55
496.0,1.562
497.0,1.588
498.0,1.516
499.0,1.537
500.0,1.495
501.0,1.47
502.0,1.452
503.0,1.513
504.0,1.478
505.0,1.532
506.0,1.583
507.0,1.508
508.0,1.462
509.0,1.504
510.0,1.497
511.0,1.538
512.0,1.557
513.0,1.475
514.0,1.466
515.0,1.453
516.0,1.451
517.0,1.29
518.0,1.358
519.0,1.426
520.0,1.479
521.0,1.495
522.0,1.498
523.0,1.472
524.0,1.527
525.0,1.547
526.0,1.479
527.0,1.395
528.0,1.478
529.0,1.559
530.0,1.538
531.0,1.562
532.0,1.51
533.0,1.467
534.0,1.512
535.0,1.546
536.0,1.561
537.0,1.5
538.0,1.528
539.0,1.516
540.0,1.455
541.0,1.466
542.0,1.514
543.0,1.499
544.0,1.526
545.0,1.522
546.0,1.53
547.0,1.531
548.0,1.513
549.0,1.519
550.0,1.538
551.0,1.52
552.0,1.532
553.0,1.506
554.0,1.543
555.0,1.547
556.0,1.528
557.0,1.482
558.0,1.472
559.0,1.446
560.0,1.465
561.0,1.485
562.0,1.476
563.0,1.518
564.0,1.478
565.0,1.466
566.0,1.446
567.0,1.474
568.0,1.463
569.0,1.431
570.0,1.431
571.0,1.423
572.0,1.459
573.0,1.475
574.0,1.472
575.0,1.445
576.0,1.433
577.0,1.449
578.0,1.428
579.0,1.433
580.0,1.46
581.0,1.468
582.0,1.495
583.0,1.499
584.0,1.512
585.0,1.476
586.0,1.446
587.0,1.479
588.0,1.446
589.0,1.286
590.0,1.345
591.0,1.422
592.0,1.406
593.0,1.425
594.0,1.417
595.0,1.384
596.0,1.436
597.0,1.422
598.0,1.418
599.0,1.42
600.0,1.422
601.0,1.41
602.0,1.401
603.0,1.425
604.0,1.449
605.0,1.442
606.0,1.436
607.0,1.45
608.0,1.435
609.0,1.437
610.0,1.427
611.0,1.435
612.0,1.431
613.0,1.414
614.0,1.395
615.0,1.425
616.0,1.379
617.0,1.376
618.0,1.429
619.0,1.415
620.0,1.425
621.0,1.427
622.0,1.411
623.0,1.39
624.0,1.367
625.0,1.364
626.0,1.385
627.0,1.401
628.0,1.317
629.0,1.372
630.0,1.341
631.0,1.369
632.0,1.353
633.0,1.393
634.0,1.379
635.0,1.401
636.0,1.382
637.0,1.405
638.0,1.418
639.0,1.402
640.0,1.389
641.0,1.388
642.0,1.382
643.0,1.401
644.0,1.396
645.0,1.399
646.0,1.368
647.0,1.354
648.0,1.356
649.0,1.331
650.0,1.335
651.0,1.392
652.0,1.338
653.0,1.375
654.0,1.359
655.0,1.311
656.0,1.161
657.0,1.192
658.0,1.336
659.0,1.345
660.0,1.351
661.0,1.361
662.0,1.364
663.0,1.338
664.0,1.353
665.0,1.354
666.0,1.355
667.0,1.354
668.0,1.354
669.0,1.376
670.0,1.37
671.0,1.37
672.0,1.358
673.0,1.379
674.0,1.374
675.0,1.362
676.0,1.371
677.0,1.358
678.0,1.362
679.0,1.34
680.0,1.351
681.0,1.342
682.0,1.341
683.0,1.339
684.0,1.332
685.0,1.344
686.0,1.336
687.0,0.9224
688.0,1.065
689.0,1.068
690.0,1.115
691.0,1.167
692.0,1.205
693.0,1.196
694.0,1.187
695.0,1.232
696.0,1.234
697.0,1.304
698.0,1.284
699.0,1.257
700.0,1.242
701.0,1.231
702.0,1.239
703.0,1.241
704.0,1.279
705.0,1.281
706.0,1.279
707.0,1.28
708.0,1.283
709.0,1.284
710.0,1.285
711.0,1.283
712.0,1.279
713.0,1.267
714.0,1.272
715.0,1.233
716.0,1.234
717.0,1.084
718.0,0.9979
719.0,0.9158
720.0,0.9603
721.0,1.052
722.0,1.195
723.0,1.118
724.0,1.012
725.0,0.9979
726.0,1.044
727.0,1.056
728.0,0.9965
729.0,1.029
730.0,1.089
731.0,1.044
732.0,1.112
733.0,1.172
734.0,1.199
735.0,1.175
736.0,1.174
737.0,1.179
738.0,1.194
739.0,1.171
740.0,1.201
741.0,1.188
742.0,1.189
743.0,1.22
744.0,1.216
745.0,1.216
746.0,1.222
747.0,1.225
748.0,1.222
749.0,1.209
750.0,1.208
751.0,1.196
752.0,1.201
753.0,1.207
754.0,1.21
755.0,1.204
756.0,1.203
757.0,1.205
758.0,1.191
759.0,1.168
760.0,0.2261
761.0,0.1249
762.0,0.6316
763.0,0.3341
764.0,0.4861
765.0,0.632
766.0,0.7605
767.0,0.9442
768.0,1.077
769.0,1.097
770.0,1.132
771.0,1.14
772.0,1.142
773.0,1.15
774.0,1.145
775.0,1.136
776.0,1.15
777.0,1.135
778.0,1.128
779.0,1.129
780.0,1.123
781.0,1.124
782.0,1.131
783.0,1.112
784.0,1.117
785.0,1.109
786.0,1.122
787.0,1.104
788.0,1.091
789.0,1.091
790.0,1.064
791.0,1.071
792.0,1.063
793.0,1.046
794.0,1.062
795.0,1.081
796.0,1.05
797.0,1.052
798.0,1.08
799.0,1.074
800.0,1.056
801.0,1.054
802.0,1.051
803.0,1.043
804.0,1.044
805.0,1.04
806.0,1.069
807.0,1.056
808.0,1.057
809.0,1.038
810.0,1.031
811.0,1.033
812.0,1.006
813.0,0.9858
814.0,0.8734
815.0,0.868
816.0,0.8089
817.0,0.8231
818.0,0.7937
819.0,0.8822
820.0,0.833
821.0,0.9665
822.0,0.9402
823.0,0.6509
824.0,0.9155
825.0,0.9505
826.0,0.9167
827.0,0.9652
828.0,0.8248
829.0,0.911
830.0,0.8998
831.0,0.9028
832.0,0.8764
833.0,0.9292
834.0,0.8984
835.0,0.9826
836.0,0.9434
837.0,0.9854
838.0,0.956
839.0,0.9704
840.0,0.9915
841.0,0.978
842.0,0.9794
843.0,0.9782
844.0,0.9651
845.0,0.9972
846.0,0.9928
847.0,0.9742
848.0,0.9686
849.0,0.9411
850.0,0.9017
851.0,0.9552
852.0,0.9484
853.0,0.9127
854.0,0.7883
855.0,0.8659
856.0,0.9465
857.0,0.9674
858.0,0.9605
859.0,0.9612
860.0,0.9629
861.0,0.9578
862.0,0.9729
863.0,0.9959
864.0,0.9462
865.0,0.938
866.0,0.8435
867.0,0.8803
868.0,0.958
869.0,0.9382
870.0,0.965
871.0,0.9519
872.0,0.9486
873.0,0.9468
874.0,0.9356
875.0,0.9167
876.0,0.9264
877.0,0.9358
878.0,0.9461
879.0,0.9316
880.0,0.9117
881.0,0.8982
882.0,0.9178
883.0,0.9206
884.0,0.9165
885.0,0.9235
886.0,0.8807
887.0,0.8897
888.0,0.9032
889.0,0.9131
890.0,0.906
891.0,0.9043
892.0,0.8789
893.0,0.8523
894.0,0.8239
895.0,0.7805
896.0,0.7362
897.0,0.6351
898.0,0.6916
899.0,0.5294
900.0,0.7066
901.0,0.5547
902.0,0.6469
903.0,0.6546
904.0,0.8183
905.0,0.791
906.0,0.741
907.0,0.6061
908.0,0.6175
909.0,0.6671
910.0,0.5932
911.0,0.6304
912.0,0.6584
913.0,0.6023
914.0,0.5967
915.0,0.6465
916.0,0.5483
917.0,0.6923
918.0,0.5623
919.0,0.7042
920.0,0.7098
921.0,0.7379
922.0,0.662
923.0,0.7128
924.0,0.6787
925.0,0.664
926.0,0.6713
927.0,0.7495
928.0,0.5556
929.0,0.5087
930.0,0.4019
931.0,0.3806
932.0,0.2762
933.0,0.2255
934.0,0.1258
935.0,0.23
936.0,0.1449
937.0,0.147
938.0,0.1803
939.0,0.3689
940.0,0.4423
941.0,0.3357
942.0,0.3877
943.0,0.2564
944.0,0.2688
945.0,0.3459
946.0,0.1779
947.0,0.348
948.0,0.256
949.0,0.464
950.0,0.1316
951.0,0.4566
952.0,0.2477
953.0,0.3184
954.0,0.3888
955.0,0.3219
956.0,0.3117
957.0,0.2483
958.0,0.4394
959.0,0.3508
960.0,0.3932
961.0,0.44
962.0,0.4165
963.0,0.4789
964.0,0.4392
965.0,0.4771
966.0,0.4774
967.0,0.4755
968.0,0.6334
969.0,0.6619
970.0,0.6085
971.0,0.6947
972.0,0.665
973.0,0.5808
974.0,0.5516
975.0,0.5719
976.0,0.544
977.0,0.6172
978.0,0.5872
979.0,0.6144
980.0,0.5781
981.0,0.691
982.0,0.6614
983.0,0.6354
984.0,0.7113
985.0,0.659
986.0,0.7234
987.0,0.7098
988.0,0.7085
989.0,0.7211
990.0,0.7043
991.0,0.7233
992.0,0.7275
993.0,0.7118
994.0,0.7273
995.0,0.7264
996.0,0.7232
997.0,0.7243
998.0,0.7209
999.0,0.7183
1000.0,0.7134
1001.0,0.7222
1002.0,0.7028
1003.0,0.7095
1004.0,0.6923
1005.0,0.6669
1006.0,0.693
1007.0,0.7077
1008.0,0.704
1009.0,0.7003
1010.0,0.6974
1011.0,0.7042
1012.0,0.6982
1013.0,0.7025
1014.0,0.6976
1015.0,0.6931
1016.0,0.69
1017.0,0.6918
1018.0,0.6892
1019.0,0.6746
1020.0,0.6856
1021.0,0.6847
1022.0,0.6794
1023.0,0.6867
1024.0,0.6779
1025.0,0.6862
1026.0,0.6833
1027.0,0.6818
1028.0,0.6804
1029.0,0.6724
1030.0,0.677
1031.0,0.6743
1032.0,0.6723
1033.0,0.6622
1034.0,0.6623
1035.0,0.6644
1036.0,0.6679
1037.0,0.657
1038.0,0.66
1039.0,0.6596
1040.0,0.657
1041.0,0.6596
1042.0,0.6551
1043.0,0.653
1044.0,0.6553
1045.0,0.6465
1046.0,0.6394
1047.0,0.6452
1048.0,0.6487
1049.0,0.6464
1050.0,0.6435
1051.0,0.6426
1052.0,0.64
1053.0,0.635
1054.0,0.6364
1055.0,0.6368
1056.0,0.6346
1057.0,0.6327
1058.0,0.6172
1059.0,0.6179
1060.0,0.617
1061.0,0.6163
1062.0,0.6195
1063.0,0.6135
1064.0,0.6207
1065.0,0.6163
1066.0,0.6042
1067.0,0.612
1068.0,0.5987
1069.0,0.5802
1070.0,0.5999
1071.0,0.6091
1072.0,0.6022
1073.0,0.5936
1074.0,0.6088
1075.0,0.5787
1076.0,0.6083
1077.0,0.5977
1078.0,0.5865
1079.0,0.5986
1080.0,0.5886
1081.0,0.5699
1082.0,0.5787
1083.0,0.5804
1084.0,0.5686
1085.0,0.5899
1086.0,0.539
1087.0,0.5559
1088.0,0.58
1089.0,0.5626
1090.0,0.5505
1091.0,0.5782
1092.0,0.5767
1093.0,0.4902
1094.0,0.5278
1095.0,0.5106
1096.0,0.4893
1097.0,0.5634
1098.0,0.4818
1099.0,0.5024
1100.0,0.4675
1101.0,0.4733
1102.0,0.4523
1103.0,0.4482
1104.0,0.4487
1105.0,0.4911
1106.0,0.3777
1107.0,0.4668
1108.0,0.3969
1109.0,0.3974
1110.0,0.4629
1111.0,0.3156
1112.0,0.3943
1113.0,0.2526
1114.0,0.2822
1115.0,0.234
1116.0,0.1877
1117.0,0.06988
1118.0,0.204
1119.0,0.1019
1120.0,0.1284
1121.0,0.1699
1122.0,0.07211
1123.0,0.116
1124.0,0.09791
1125.0,0.1276
1126.0,0.04497
1127.0,0.1438
1128.0,0.08666
1129.0,0.09188
1130.0,0.06068
1131.0,0.2713
1132.0,0.2131
1133.0,0.1358
1134.0,0.03515
1135.0,0.01315
1136.0,0.1136
1137.0,0.2667
1138.0,0.1881
1139.0,0.279
1140.0,0.2337
1141.0,0.1788
1142.0,0.2053
1143.0,0.2909
1144.0,0.1024
1145.0,0.131
1146.0,0.1413
1147.0,0.05028
1148.0,0.2518
1149.0,0.2016
1150.0,0.1101
1151.0,0.1867
1152.0,0.2292
1153.0,0.223
1154.0,0.1271
1155.0,0.2911
1156.0,0.2625
1157.0,0.294
1158.0,0.2908
1159.0,0.3131
1160.0,0.2682
1161.0,0.3292
1162.0,0.3309
1163.0,0.4443
1164.0,0.3821
1165.0,0.3614
1166.0,0.3582
1167.0,0.3897
1168.0,0.3942
1169.0,0.4032
1170.0,0.4373
1171.0,0.4265
1172.0,0.4337
1173.0,0.4364
1174.0,0.3144
1175.0,0.4259
1176.0,0.4667
1177.0,0.449
1178.0,0.3394
1179.0,0.4705
1180.0,0.4216
1181.0,0.4349
1182.0,0.3026
1183.0,0.4279
1184.0,0.4018
1185.0,0.3885
1186.0,0.4581
1187.0,0.4371
1188.0,0.308
1189.0,0.4074
1190.0,0.4477
1191.0,0.4265
1192.0,0.4538
1193.0,0.4354
1194.0,0.4484
1195.0,0.4251
1196.0,0.4101
1197.0,0.4481
1198.0,0.4107
1199.0,0.3518
1200.0,0.43
1201.0,0.4156
1202.0,0.4127
1203.0,0.4093
1204.0,0.3592
1205.0,0.4216
1206.0,0.4643
1207.0,0.4119
1208.0,0.4047
1209.0,0.4128
1210.0,0.4295
1211.0,0.41
1212.0,0.4062
1213.0,0.4497
1214.0,0.4154
1215.0,0.4078
1216.0,0.4482
1217.0,0.4369
1218.0,0.4446
1219.0,0.4394
1220.0,0.445
1221.0,0.4492
1222.0,0.4378
1223.0,0.4339
1224.0,0.4316
1225.0,0.4464
1226.0,0.449
1227.0,0.4156
1228.0,0.451
1229.0,0.4491
1230.0,0.4417
1231.0,0.4534
1232.0,0.4507
1233.0,0.4364
1234.0,0.4528
1235.0,0.4501
1236.0,0.4533
1237.0,0.4474
1238.0,0.4517
1239.0,0.446
1240.0,0.4476
1241.0,0.4458
1242.0,0.4446
1243.0,0.441
1244.0,0.4442
1245.0,0.446
1246.0,0.4434
1247.0,0.4418
1248.0,0.4416
1249.0,0.4429
1250.0,0.4403
1251.0,0.4348
1252.0,0.4347
1253.0,0.4316
1254.0,0.4275
1255.0,0.4344
1256.0,0.4229
1257.0,0.4207
1258.0,0.428
1259.0,0.4136
1260.0,0.4156
1261.0,0.3936
1262.0,0.3825
1263.0,0.3833
1264.0,0.3555
1265.0,0.3808
1266.0,0.3674
1267.0,0.3732
1268.0,0.355
1269.0,0.2272
1270.0,0.3721
1271.0,0.3922
1272.0,0.3933
1273.0,0.3893
1274.0,0.3904
1275.0,0.3958
1276.0,0.3994
1277.0,0.4017
1278.0,0.4089
1279.0,0.4053
1280.0,0.4001
1281.0,0.3815
1282.0,0.3672
1283.0,0.3956
1284.0,0.4051
1285.0,0.4077
1286.0,0.413
1287.0,0.4071
1288.0,0.4069
1289.0,0.3948
1290.0,0.4032
1291.0,0.4087
1292.0,0.3856
1293.0,0.4012
1294.0,0.3984
1295.0,0.3969
1296.0,0.3799
1297.0,0.3602
1298.0,0.3861
1299.0,0.4015
1300.0,0.3426
1301.0,0.3526
1302.0,0.3848
1303.0,0.3378
1304.0,0.2905
1305.0,0.3771
1306.0,0.3773
1307.0,0.296
1308.0,0.3379
1309.0,0.3747
1310.0,0.2905
1311.0,0.3246
1312.0,0.3161
1313.0,0.3104
1314.0,0.2787
1315.0,0.2756
1316.0,0.3198
1317.0,0.3033
1318.0,0.3286
1319.0,0.2596
1320.0,0.251
1321.0,0.2914
1322.0,0.2947
1323.0,0.2239
1324.0,0.2546
1325.0,0.3154
1326.0,0.2721
1327.0,0.2599
1328.0,0.2248
1329.0,0.1705
1330.0,0.2211
1331.0,0.1353
1332.0,0.1391
1333.0,0.1932
1334.0,0.1628
1335.0,0.2231
1336.0,0.1774
1337.0,0.1573
1338.0,0.1703
1339.0,0.1693
1340.0,0.1642
1341.0,0.1614
1342.0,0.1694
1343.0,0.1168
1344.0,0.06987
1345.0,0.1006
1346.0,0.05131
1347.0,0.05239
1348.0,0.003642
1349.0,0.01283
1350.0,0.01314
1351.0,0.0034
1352.0,0.0009835
1353.0,5.417e-05
1354.0,0.0001778
1355.0,1.678e-06
1356.0,2.662e-05
1357.0,4.048e-05
1358.0,1.975e-06
1359.0,2.805e-07
1360.0,9.431e-07
1361.0,1.357e-09
1362.0,4.147e-12
1363.0,1.324e-06
1364.0,5.522e-07
1365.0,1.671e-12
1366.0,5.608e-06
1367.0,2.252e-06
1368.0,1.699e-14
1369.0,2.079e-07
1370.0,1.078e-07
1371.0,6.52e-09
1372.0,1.239e-06
1373.0,2.31e-05
1374.0,0.0001018
1375.0,0.0001854
1376.0,0.0001595
1377.0,7.399e-05
1378.0,0.0007074
1379.0,3.116e-05
1380.0,4.642e-05
1381.0,1.255e-06
1382.0,1.134e-06
1383.0,1.78e-08
1384.0,2.399e-07
1385.0,1.014e-06
1386.0,1.046e-06
1387.0,0.0001091
1388.0,2.161e-06
1389.0,0.0003491
1390.0,0.0003007
1391.0,0.000203
1392.0,1.345e-05
1393.0,6.936e-05
1394.0,3.911e-05
1395.0,3.067e-07
1396.0,1.892e-09
1397.0,2.824e-05
1398.0,0.0007994
1399.0,0.0005066
1400.0,8.733e-10
1401.0,3.324e-09
1402.0,0.001314
1403.0,0.001673
1404.0,0.000513
1405.0,1.559e-07
1406.0,0.001365
1407.0,0.0001188
1408.0,0.001112
1409.0,0.0003879
1410.0,0.0003033
1411.0,0.001468
1412.0,0.001947
1413.0,0.01912
1414.0,0.0002382
1415.0,0.0001164
1416.0,0.03076
1417.0,0.009467
1418.0,0.01081
1419.0,0.001685
1420.0,0.006619
1421.0,0.007159
1422.0,0.04011
1423.0,0.00781
1424.0,0.01461
1425.0,0.02155
1426.0,0.02434
1427.0,0.04453
1428.0,0.00344
1429.0,0.03339
1430.0,0.05672
1431.0,0.06227
1432.0,0.002712
1433.0,0.03964
1434.0,0.02018
1435.0,0.02022
1436.0,0.03896
1437.0,0.02986
1438.0,0.01262
1439.0,0.05297
1440.0,0.03968
1441.0,0.03024
1442.0,0.03354
1443.0,0.04214
1444.0,0.05843
1445.0,0.04566
1446.0,0.02051
1447.0,0.03234
1448.0,0.1102
1449.0,0.09555
1450.0,0.02399
1451.0,0.009611
1452.0,0.05736
1453.0,0.07543
1454.0,0.1304
1455.0,0.06115
1456.0,0.08208
1457.0,0.1107
1458.0,0.1311
1459.0,0.155
1460.0,0.08035
1461.0,0.08363
1462.0,0.1232
1463.0,0.03946
