interpolation:linear
wavelength,value
280.0,2.955e-26
280.5,1.375e-24
281.0,8.524e-24
281.5,3.8029999999999995e-22
282.0,3.765e-21
282.5,1.6720000000000002e-20
283.0,8.666e-20
283.5,1.77e-19
284.0,6.511e-18
284.5,2.64e-17
285.0,7.367e-17
285.5,6.952e-16
286.0,3.543e-15
286.5,2.41e-14
287.0,9.187e-14
287.5,4.959e-13
288.0,2.743e-12
288.5,1.215e-11
289.0,4.548e-11
289.5,1.911e-10
290.0,6.845e-10
290.5,1.719e-09
291.0,4.661e-09
291.5,1.761e-08
292.0,4.996e-08
292.5,8.009e-08
293.0,2.014e-07
293.5,5.993e-07
294.0,1.084e-06
294.5,2.022e-06
295.0,3.826e-06
295.5,1.012e-05
296.0,1.934e-05
296.5,2.669e-05
297.0,3.564e-05
297.5,9.287e-05
298.0,0.0001423
298.5,0.0001398
299.0,0.0003005
299.5,0.0004708
300.0,0.0005018
300.5,0.0007012
301.0,0.001185
301.5,0.001769
302.0,0.001467
302.5,0.002832
303.0,0.004986
303.5,0.006187
304.0,0.005722
304.5,0.008086
305.0,0.0113
305.5,0.01232
306.0,0.01175
306.5,0.01421
307.0,0.01958
307.5,0.02423
308.0,0.02545
308.5,0.02912
309.0,0.02604
309.5,0.02928
310.0,0.02923
310.5,0.04734
311.0,0.05907
311.5,0.05707
312.0,0.05568
312.5,0.06667
313.0,0.07189
313.5,0.07109
314.0,0.08688
314.5,0.07438
315.0,0.0976
315.5,0.08389
316.0,0.07117
316.5,0.09958
317.0,0.1245
317.5,0.1315
318.0,0.1009
318.5,0.1205
319.0,0.1406
319.5,0.1196
320.0,0.1461
320.5,0.1755
321.0,0.1504
321.5,0.1444
322.0,0.1622
322.5,0.1415
323.0,0.1374
323.5,0.1609
324.0,0.1878
324.5,0.1944
325.0,0.1757
325.5,0.2214
326.0,0.2636
326.5,0.2605
327.0,0.2628
327.5,0.2573
328.0,0.2358
328.5,0.242
329.0,0.2843
329.5,0.3219
330.0,0.3283
330.5,0.269
331.0,0.2771
331.5,0.2792
332.0,0.297
332.5,0.2924
333.0,0.2945
333.5,0.2719
334.0,0.2805
334.5,0.3197
335.0,0.2987
335.5,0.3402
336.0,0.2364
336.5,0.288
337.0,0.239
337.5,0.2994
338.0,0.2895
338.5,0.3277
339.0,0.3276
339.5,0.3152
340.0,0.3801
340.5,0.3436
341.0,0.3306
341.5,0.3075
342.0,0.3697
342.5,0.3479
343.0,0.3824
343.5,0.3603
344.0,0.2707
344.5,0.2688
345.0,0.3611
345.5,0.3714
346.0,0.3175
346.5,0.3613
347.0,0.388
347.5,0.3144
348.0,0.3613
348.5,0.3632
349.0,0.3384
349.5,0.3361
350.0,0.4172
350.5,0.4416
351.0,0.3953
351.5,0.3836
352.0,0.4148
352.5,0.3255
353.0,0.4118
353.5,0.4422
354.0,0.4608
354.5,0.4689
355.0,0.4687
355.5,0.4249
356.0,0.4461
356.5,0.3822
357.0,0.3169
357.5,0.3892
358.0,0.3095
358.5,0.2654
359.0,0.3723
359.5,0.4756
360.0,0.5059
360.5,0.4057
361.0,0.371
361.5,0.4284
362.0,0.3715
362.5,0.5155
363.0,0.4643
363.5,0.4288
364.0,0.5259
364.5,0.4508
365.0,0.4604
365.5,0.5795
366.0,0.6157
366.5,0.58
367.0,0.5664
367.5,0.5894
368.0,0.5172
368.5,0.5232
369.0,0.5666
369.5,0.6055
370.0,0.6472
370.5,0.5036
371.0,0.5395
371.5,0.6767
372.0,0.4503
372.5,0.5413
373.0,0.552
373.5,0.36
374.0,0.5244
374.5,0.4354
375.0,0.4243
375.5,0.635
376.0,0.5277
376.5,0.5483
377.0,0.5818
377.5,0.6823
378.0,0.7414
378.5,0.7026
379.0,0.5813
379.5,0.5324
380.0,0.555
380.5,0.6737
381.0,0.6767
381.5,0.5376
382.0,0.4786
382.5,0.4089
383.0,0.3794
383.5,0.3662
384.0,0.4048
384.5,0.5967
385.0,0.593
385.5,0.5535
386.0,0.475
386.5,0.6253
387.0,0.5208
387.5,0.5862
388.0,0.5424
388.5,0.5373
389.0,0.5812
389.5,0.7054
390.0,0.7094
390.5,0.6542
391.0,0.7716
391.5,0.7887
392.0,0.6656
392.5,0.5971
393.0,0.3329
393.5,0.2424
394.0,0.4942
394.5,0.6295
395.0,0.7696
395.5,0.7834
396.0,0.6805
396.5,0.3985
397.0,0.2996
397.5,0.6105
398.0,0.8566
398.5,0.887
399.0,0.962
399.5,0.9605
400.0,0.9993
401.0,1.03
402.0,1.09
403.0,1.039
404.0,1.026
405.0,1.029
406.0,1.016
407.0,1.002
408.0,1.045
409.0,1.121
410.0,0.9826
411.0,1.067
412.0,1.149
413.0,1.124
414.0,1.141
415.0,1.147
416.0,1.17
417.0,1.145
418.0,1.127
419.0,1.144
420.0,1.143
421.0,1.198
422.0,1.142
423.0,1.118
424.0,1.186
425.0,1.187
426.0,1.158
427.0,1.14
428.0,1.113
429.0,1.056
430.0,0.9262
431.0,0.9204
432.0,1.191
433.0,1.2
434.0,1.117
435.0,1.169
436.0,1.32
437.0,1.304
438.0,1.19
439.0,1.234
440.0,1.275
441.0,1.324
442.0,1.423
443.0,1.389
444.0,1.421
445.0,1.394
446.0,1.332
447.0,1.442
448.0,1.468
449.0,1.476
450.0,1.52
451.0,1.579
452.0,1.524
453.0,1.436
454.0,1.501
455.0,1.513
456.0,1.551
457.0,1.58
458.0,1.529
459.0,1.524
460.0,1.531
461.0,1.568
462.0,1.582
463.0,1.574
464.0,1.55
465.0,1.532
466.0,1.548
467.0,1.523
468.0,1.543
469.0,1.554
470.0,1.507
471.0,1.507
472.0,1.59
473.0,1.572
474.0,1.577
475.0,1.593
476.0,1.549
477.0,1.556
478.0,1.601
479.0,1.593
480.0,1.598
481.0,1.63
482.0,1.64
483.0,1.621
484.0,1.589
485.0,1.516
486.0,1.326
487.0,1.391
488.0,1.528
489.0,1.535
490.0,1.617
491.0,1.59
492.0,1.504
493.0,1.555
494.0,1.572
495.0,1.587
496.0,1.598
497.0,1.625
498.0,1.551
499.0,1.573
500.0,1.529
501.0,1.503
502.0,1.485
503.0,1.548
504.0,1.514
505.0,1.567
506.0,1.619
507.0,1.542
508.0,1.495
509.0,1.537
510.0,1.53
511.0,1.572
512.0,1.59
513.0,1.506
514.0,1.497
515.0,1.484
516.0,1.482
517.0,1.317
518.0,1.386
519.0,1.456
520.0,1.51
521.0,1.526
522.0,1.529
523.0,1.503
524.0,1.558
525.0,1.579
526.0,1.51
527.0,1.424
528.0,1.508
529.0,1.591
530.0,1.57
531.0,1.595
532.0,1.541
533.0,1.497
534.0,1.542
535.0,1.577
536.0,1.592
537.0,1.53
538.0,1.558
539.0,1.546
540.0,1.484
541.0,1.495
542.0,1.544
543.0,1.528
544.0,1.556
545.0,1.552
546.0,1.561
547.0,1.56
548.0,1.543
549.0,1.548
550.0,1.567
551.0,1.549
552.0,1.561
553.0,1.534
554.0,1.572
555.0,1.576
556.0,1.557
557.0,1.51
558.0,1.5
559.0,1.473
560.0,1.493
561.0,1.514
562.0,1.504
563.0,1.547
564.0,1.506
565.0,1.494
566.0,1.474
567.0,1.503
568.0,1.492
569.0,1.46
570.0,1.46
571.0,1.452
572.0,1.489
573.0,1.506
574.0,1.503
575.0,1.476
576.0,1.463
577.0,1.48
578.0,1.457
579.0,1.462
580.0,1.489
581.0,1.496
582.0,1.523
583.0,1.527
584.0,1.54
585.0,1.502
586.0,1.472
587.0,1.506
588.0,1.474
589.0,1.314
590.0,1.374
591.0,1.45
592.0,1.435
593.0,1.454
594.0,1.446
595.0,1.413
596.0,1.463
597.0,1.45
598.0,1.445
599.0,1.446
600.0,1.447
601.0,1.435
602.0,1.425
603.0,1.449
604.0,1.473
605.0,1.466
606.0,1.46
607.0,1.474
608.0,1.458
609.0,1.461
610.0,1.45
611.0,1.458
612.0,1.454
613.0,1.436
614.0,1.416
615.0,1.447
616.0,1.399
617.0,1.397
618.0,1.451
619.0,1.436
620.0,1.446
621.0,1.448
622.0,1.432
623.0,1.411
624.0,1.387
625.0,1.385
626.0,1.406
627.0,1.423
628.0,1.345
629.0,1.396
630.0,1.364
631.0,1.39
632.0,1.373
633.0,1.413
634.0,1.398
635.0,1.42
636.0,1.4
637.0,1.423
638.0,1.436
639.0,1.42
640.0,1.406
641.0,1.405
642.0,1.398
643.0,1.417
644.0,1.412
645.0,1.415
646.0,1.385
647.0,1.373
648.0,1.375
649.0,1.349
650.0,1.351
651.0,1.408
652.0,1.356
653.0,1.39
654.0,1.375
655.0,1.327
656.0,1.174
657.0,1.206
658.0,1.35
659.0,1.359
660.0,1.365
661.0,1.375
662.0,1.379
663.0,1.352
664.0,1.366
665.0,1.367
666.0,1.368
667.0,1.366
668.0,1.366
669.0,1.388
670.0,1.382
671.0,1.381
672.0,1.37
673.0,1.39
674.0,1.385
675.0,1.373
676.0,1.382
677.0,1.369
678.0,1.373
679.0,1.351
680.0,1.362
681.0,1.353
682.0,1.351
683.0,1.349
684.0,1.343
685.0,1.354
686.0,1.347
687.0,0.9614
688.0,1.095
689.0,1.098
690.0,1.141
691.0,1.189
692.0,1.223
693.0,1.214
694.0,1.204
695.0,1.246
696.0,1.248
697.0,1.315
698.0,1.295
699.0,1.271
700.0,1.256
701.0,1.245
702.0,1.252
703.0,1.254
704.0,1.291
705.0,1.293
706.0,1.29
707.0,1.291
708.0,1.294
709.0,1.294
710.0,1.295
711.0,1.293
712.0,1.288
713.0,1.276
714.0,1.281
715.0,1.243
716.0,1.245
717.0,1.105
718.0,1.019
719.0,0.9368
720.0,0.983
721.0,1.07
722.0,1.207
723.0,1.133
724.0,1.031
725.0,1.018
726.0,1.064
727.0,1.074
728.0,1.017
729.0,1.046
730.0,1.107
731.0,1.062
732.0,1.127
733.0,1.184
734.0,1.21
735.0,1.186
736.0,1.185
737.0,1.19
738.0,1.203
739.0,1.179
740.0,1.208
741.0,1.195
742.0,1.196
743.0,1.226
744.0,1.222
745.0,1.222
746.0,1.228
747.0,1.231
748.0,1.228
749.0,1.214
750.0,1.214
751.0,1.202
752.0,1.207
753.0,1.213
754.0,1.216
755.0,1.209
756.0,1.209
757.0,1.211
758.0,1.196
759.0,1.175
760.0,0.263
761.0,0.1531
762.0,0.6696
763.0,0.3754
764.0,0.5281
765.0,0.6702
766.0,0.7904
767.0,0.9656
768.0,1.089
769.0,1.107
770.0,1.139
771.0,1.145
772.0,1.147
773.0,1.155
774.0,1.149
775.0,1.14
776.0,1.154
777.0,1.139
778.0,1.133
779.0,1.134
780.0,1.127
781.0,1.129
782.0,1.136
783.0,1.116
784.0,1.122
785.0,1.114
786.0,1.126
787.0,1.109
788.0,1.097
789.0,1.097
790.0,1.072
791.0,1.077
792.0,1.069
793.0,1.052
794.0,1.066
795.0,1.086
796.0,1.058
797.0,1.059
798.0,1.085
799.0,1.079
800.0,1.062
801.0,1.06
802.0,1.057
803.0,1.05
804.0,1.051
805.0,1.046
806.0,1.073
807.0,1.061
808.0,1.062
809.0,1.044
810.0,1.037
811.0,1.041
812.0,1.014
813.0,0.9957
814.0,0.8883
815.0,0.8825
816.0,0.8234
817.0,0.837
818.0,0.8085
819.0,0.8932
820.0,0.8455
821.0,0.9738
822.0,0.9485
823.0,0.6685
824.0,0.926
825.0,0.958
826.0,0.9261
827.0,0.9727
828.0,0.8379
829.0,0.9198
830.0,0.9093
831.0,0.9121
832.0,0.8866
833.0,0.9365
834.0,0.9078
835.0,0.9881
836.0,0.9516
837.0,0.9906
838.0,0.9624
839.0,0.9753
840.0,0.9961
841.0,0.9832
842.0,0.9837
843.0,0.9815
844.0,0.9689
845.0,1.0
846.0,0.9958
847.0,0.9768
848.0,0.9716
849.0,0.9441
850.0,0.9045
851.0,0.9585
852.0,0.9515
853.0,0.9154
854.0,0.7909
855.0,0.8683
856.0,0.9493
857.0,0.97
858.0,0.9632
859.0,0.9638
860.0,0.9653
861.0,0.9602
862.0,0.9752
863.0,0.9983
864.0,0.9485
865.0,0.9402
866.0,0.8454
867.0,0.8823
868.0,0.9602
869.0,0.9403
870.0,0.9672
871.0,0.9541
872.0,0.9507
873.0,0.9489
874.0,0.9377
875.0,0.9188
876.0,0.9285
877.0,0.9379
878.0,0.9482
879.0,0.9337
880.0,0.9137
881.0,0.9004
882.0,0.9201
883.0,0.9227
884.0,0.9187
885.0,0.9257
886.0,0.8836
887.0,0.892
888.0,0.9059
889.0,0.9151
890.0,0.9088
891.0,0.9067
892.0,0.8822
893.0,0.8567
894.0,0.8306
895.0,0.7899
896.0,0.7464
897.0,0.6481
898.0,0.7033
899.0,0.5434
900.0,0.716
901.0,0.5692
902.0,0.6571
903.0,0.6671
904.0,0.8248
905.0,0.7987
906.0,0.7493
907.0,0.619
908.0,0.6299
909.0,0.6775
910.0,0.6078
911.0,0.6426
912.0,0.6699
913.0,0.6173
914.0,0.6106
915.0,0.6611
916.0,0.5623
917.0,0.7041
918.0,0.5768
919.0,0.7147
920.0,0.7177
921.0,0.7455
922.0,0.6726
923.0,0.7199
924.0,0.6898
925.0,0.675
926.0,0.6824
927.0,0.7582
928.0,0.5728
929.0,0.5273
930.0,0.4214
931.0,0.3982
932.0,0.2938
933.0,0.2426
934.0,0.1409
935.0,0.2452
936.0,0.158
937.0,0.1608
938.0,0.1958
939.0,0.386
940.0,0.4595
941.0,0.3534
942.0,0.405
943.0,0.2716
944.0,0.2815
945.0,0.3633
946.0,0.1918
947.0,0.3667
948.0,0.2705
949.0,0.484
950.0,0.1452
951.0,0.4754
952.0,0.2645
953.0,0.3357
954.0,0.4051
955.0,0.3389
956.0,0.3258
957.0,0.2658
958.0,0.4523
959.0,0.3664
960.0,0.4105
961.0,0.4554
962.0,0.4316
963.0,0.4928
964.0,0.4531
965.0,0.4905
966.0,0.4917
967.0,0.4901
968.0,0.6408
969.0,0.6706
970.0,0.6182
971.0,0.7005
972.0,0.6715
973.0,0.5918
974.0,0.5628
975.0,0.5814
976.0,0.5559
977.0,0.6251
978.0,0.597
979.0,0.623
980.0,0.5873
981.0,0.6964
982.0,0.6685
983.0,0.6433
984.0,0.7148
985.0,0.666
986.0,0.7257
987.0,0.7134
988.0,0.7121
989.0,0.7225
990.0,0.7078
991.0,0.7249
992.0,0.729
993.0,0.7146
994.0,0.7286
995.0,0.7275
996.0,0.7246
997.0,0.7255
998.0,0.7222
999.0,0.7195
1000.0,0.7149
1001.0,0.7234
1002.0,0.7053
1003.0,0.7108
1004.0,0.6939
1005.0,0.6679
1006.0,0.6943
1007.0,0.7089
1008.0,0.7054
1009.0,0.702
1010.0,0.6992
1011.0,0.7053
1012.0,0.6996
1013.0,0.7036
1014.0,0.6987
1015.0,0.6941
1016.0,0.6911
1017.0,0.6929
1018.0,0.6901
1019.0,0.6761
1020.0,0.6866
1021.0,0.6856
1022.0,0.6806
1023.0,0.6878
1024.0,0.6796
1025.0,0.6872
1026.0,0.6845
1027.0,0.6829
1028.0,0.6815
1029.0,0.6735
1030.0,0.6779
1031.0,0.6753
1032.0,0.6733
1033.0,0.6632
1034.0,0.6633
1035.0,0.6653
1036.0,0.6689
1037.0,0.658
1038.0,0.661
1039.0,0.6607
1040.0,0.658
1041.0,0.6607
1042.0,0.6561
1043.0,0.6541
1044.0,0.6565
1045.0,0.6476
1046.0,0.6406
1047.0,0.6464
1048.0,0.65
1049.0,0.6477
1050.0,0.6448
1051.0,0.644
1052.0,0.6415
1053.0,0.6365
1054.0,0.6379
1055.0,0.6384
1056.0,0.6363
1057.0,0.6344
1058.0,0.619
1059.0,0.6198
1060.0,0.6189
1061.0,0.6182
1062.0,0.6216
1063.0,0.6156
1064.0,0.6228
1065.0,0.6186
1066.0,0.6062
1067.0,0.6141
1068.0,0.6009
1069.0,0.5822
1070.0,0.6022
1071.0,0.611
1072.0,0.6044
1073.0,0.5956
1074.0,0.6104
1075.0,0.5817
1076.0,0.61
1077.0,0.6001
1078.0,0.5892
1079.0,0.6
1080.0,0.591
1081.0,0.5729
1082.0,0.5806
1083.0,0.582
1084.0,0.572
1085.0,0.5922
1086.0,0.5433
1087.0,0.5587
1088.0,0.5818
1089.0,0.5657
1090.0,0.5545
1091.0,0.5804
1092.0,0.5786
1093.0,0.4959
1094.0,0.53
1095.0,0.5159
1096.0,0.4956
1097.0,0.5651
1098.0,0.4885
1099.0,0.5087
1100.0,0.4753
1101.0,0.4806
1102.0,0.4604
1103.0,0.457
1104.0,0.4575
1105.0,0.4976
1106.0,0.3899
1107.0,0.4745
1108.0,0.4077
1109.0,0.4074
1110.0,0.471
1111.0,0.327
1112.0,0.4039
1113.0,0.2648
1114.0,0.2951
1115.0,0.2449
1116.0,0.2002
1117.0,0.07876
1118.0,0.2162
1119.0,0.1114
1120.0,0.1403
1121.0,0.1837
1122.0,0.08088
1123.0,0.1267
1124.0,0.107
1125.0,0.1386
1126.0,0.05178
1127.0,0.156
1128.0,0.09715
1129.0,0.1025
1130.0,0.06907
1131.0,0.2868
1132.0,0.2268
1133.0,0.1485
1134.0,0.04089
1135.0,0.01518
1136.0,0.1256
1137.0,0.2832
1138.0,0.2006
1139.0,0.2901
1140.0,0.2459
1141.0,0.1906
1142.0,0.2174
1143.0,0.3049
1144.0,0.1111
1145.0,0.1431
1146.0,0.1544
1147.0,0.05802
1148.0,0.264
1149.0,0.2136
1150.0,0.1192
1151.0,0.1992
1152.0,0.2418
1153.0,0.2332
1154.0,0.1394
1155.0,0.3028
1156.0,0.2745
1157.0,0.3052
1158.0,0.3019
1159.0,0.3232
1160.0,0.2791
1161.0,0.3383
1162.0,0.3404
1163.0,0.4501
1164.0,0.3897
1165.0,0.371
1166.0,0.366
1167.0,0.3969
1168.0,0.402
1169.0,0.4103
1170.0,0.443
1171.0,0.4324
1172.0,0.4385
1173.0,0.442
1174.0,0.3238
1175.0,0.4305
1176.0,0.4693
1177.0,0.4531
1178.0,0.3466
1179.0,0.4729
1180.0,0.4266
1181.0,0.4398
1182.0,0.3104
1183.0,0.4321
1184.0,0.4073
1185.0,0.395
1186.0,0.4615
1187.0,0.4417
1188.0,0.3163
1189.0,0.412
1190.0,0.451
1191.0,0.4319
1192.0,0.4569
1193.0,0.4392
1194.0,0.4518
1195.0,0.4299
1196.0,0.4157
1197.0,0.4506
1198.0,0.4142
1199.0,0.3583
1200.0,0.4339
1201.0,0.4205
1202.0,0.4169
1203.0,0.4135
1204.0,0.3649
1205.0,0.4248
1206.0,0.466
1207.0,0.4164
1208.0,0.4081
1209.0,0.416
1210.0,0.4321
1211.0,0.4138
1212.0,0.4114
1213.0,0.452
1214.0,0.42
1215.0,0.4127
1216.0,0.4504
1217.0,0.4397
1218.0,0.4469
1219.0,0.442
1220.0,0.4472
1221.0,0.451
1222.0,0.44
1223.0,0.4364
1224.0,0.4346
1225.0,0.4482
1226.0,0.4505
1227.0,0.4186
1228.0,0.4521
1229.0,0.4505
1230.0,0.4434
1231.0,0.4541
1232.0,0.4515
1233.0,0.4384
1234.0,0.4532
1235.0,0.4507
1236.0,0.4537
1237.0,0.4484
1238.0,0.4522
1239.0,0.4464
1240.0,0.448
1241.0,0.4465
1242.0,0.445
1243.0,0.4414
1244.0,0.4447
1245.0,0.4465
1246.0,0.4439
1247.0,0.4423
1248.0,0.4423
1249.0,0.4434
1250.0,0.4409
1251.0,0.4357
1252.0,0.4353
1253.0,0.4326
1254.0,0.4289
1255.0,0.4351
1256.0,0.4244
1257.0,0.4224
1258.0,0.4291
1259.0,0.416
1260.0,0.4178
1261.0,0.3974
1262.0,0.3871
1263.0,0.388
1264.0,0.3619
1265.0,0.3854
1266.0,0.3731
1267.0,0.3781
1268.0,0.361
1269.0,0.2406
1270.0,0.3774
1271.0,0.3958
1272.0,0.3967
1273.0,0.3929
1274.0,0.3937
1275.0,0.3988
1276.0,0.4021
1277.0,0.4041
1278.0,0.4106
1279.0,0.407
1280.0,0.4017
1281.0,0.3828
1282.0,0.3679
1283.0,0.3964
1284.0,0.4061
1285.0,0.4086
1286.0,0.4136
1287.0,0.4082
1288.0,0.4079
1289.0,0.3969
1290.0,0.4042
1291.0,0.4095
1292.0,0.3883
1293.0,0.4024
1294.0,0.3997
1295.0,0.3987
1296.0,0.383
1297.0,0.3641
1298.0,0.3883
1299.0,0.4026
1300.0,0.347
1301.0,0.3564
1302.0,0.3869
1303.0,0.3418
1304.0,0.2974
1305.0,0.3794
1306.0,0.3798
1307.0,0.3017
1308.0,0.3414
1309.0,0.3774
1310.0,0.2963
1311.0,0.3286
1312.0,0.3207
1313.0,0.3154
1314.0,0.2844
1315.0,0.282
1316.0,0.3244
1317.0,0.308
1318.0,0.3324
1319.0,0.2667
1320.0,0.2569
1321.0,0.2969
1322.0,0.3008
1323.0,0.232
1324.0,0.2615
1325.0,0.3202
1326.0,0.2784
1327.0,0.2664
1328.0,0.2315
1329.0,0.1786
1330.0,0.2301
1331.0,0.1445
1332.0,0.1473
1333.0,0.2036
1334.0,0.17
1335.0,0.2311
1336.0,0.1856
1337.0,0.1658
1338.0,0.1792
1339.0,0.1777
1340.0,0.1714
1341.0,0.1706
1342.0,0.179
1343.0,0.1281
1344.0,0.07641
1345.0,0.1096
1346.0,0.05899
1347.0,0.06075
1348.0,0.004834
1349.0,0.01636
1350.0,0.01628
1351.0,0.004749
1352.0,0.001553
1353.0,9.895e-05
1354.0,0.0002968
1355.0,3.738e-06
1356.0,4.922e-05
1357.0,7.447e-05
1358.0,4.349e-06
1359.0,7.622e-07
1360.0,2.238e-06
1361.0,5.086e-09
1362.0,1.91e-11
1363.0,3.306e-06
1364.0,1.411e-06
1365.0,9.776e-12
1366.0,1.322e-05
1367.0,5.173e-06
1368.0,1.604e-13
1369.0,5.395e-07
1370.0,3.056e-07
1371.0,2.076e-08
1372.0,2.852e-06
1373.0,4.577e-05
1374.0,0.0001824
1375.0,0.0003314
1376.0,0.000265
1377.0,0.0001259
1378.0,0.001141
1379.0,5.336e-05
1380.0,8.412e-05
1381.0,2.437e-06
1382.0,2.674e-06
1383.0,4.609e-08
1384.0,6.438e-07
1385.0,2.172e-06
1386.0,2.619e-06
1387.0,0.000206
1388.0,4.172e-06
1389.0,0.0005935
1390.0,0.0005105
1391.0,0.0003535
1392.0,2.446e-05
1393.0,0.000119
1394.0,7.823e-05
1395.0,6.981e-07
1396.0,6.675e-09
1397.0,5.051e-05
1398.0,0.0013
1399.0,0.000824
1400.0,3.461e-09
1401.0,1.123e-08
1402.0,0.001876
1403.0,0.002445
1404.0,0.0007578
1405.0,3.831e-07
1406.0,0.002096
1407.0,0.0001792
1408.0,0.001697
1409.0,0.0006382
1410.0,0.0004788
1411.0,0.002136
1412.0,0.002732
1413.0,0.02392
1414.0,0.0003731
1415.0,0.0001892
1416.0,0.03615
1417.0,0.01198
1418.0,0.01374
1419.0,0.002184
1420.0,0.008451
1421.0,0.009184
1422.0,0.0469
1423.0,0.009369
1424.0,0.01731
1425.0,0.02584
1426.0,0.02838
1427.0,0.05003
1428.0,0.004612
1429.0,0.03837
1430.0,0.06304
1431.0,0.06867
1432.0,0.003658
1433.0,0.04449
1434.0,0.02303
1435.0,0.02439
1436.0,0.04492
1437.0,0.03442
1438.0,0.01514
1439.0,0.06014
1440.0,0.04515
1441.0,0.03543
1442.0,0.03911
1443.0,0.04757
1444.0,0.06521
1445.0,0.05226
1446.0,0.02389
1447.0,0.03757
1448.0,0.1185
1449.0,0.1041
1450.0,0.02781
1451.0,0.01146
1452.0,0.06378
1453.0,0.08308
1454.0,0.1387
1455.0,0.06685
1456.0,0.09045
1457.0,0.119
1458.0,0.1381
1459.0,0.1637
1460.0,0.08641
1461.0,0.09122
1462.0,0.1319
1463.0,0.04386
1464.0,0.1545
1465.0,0.09346
1466.0,0.06685
