interpolation:linear
wavelength,value
280.0,1.504e-21
280.5,3.514e-20
281.0,1.694e-19
281.5,3.881e-18
282.0,2.562e-17
282.5,8.663e-17
283.0,3.325e-16
283.5,5.849e-16
284.0,1.073e-14
284.5,3.17e-14
285.0,6.279e-14
285.5,3.958e-13
286.0,1.713e-12
286.5,8.329e-12
287.0,2.479e-11
287.5,9.672e-11
288.0,3.554e-10
288.5,1.266e-09
289.0,3.79e-09
289.5,1.245e-08
290.0,3.644e-08
290.5,7.729e-08
291.0,1.71e-07
291.5,4.989e-07
292.0,1.147e-06
292.5,1.633e-06
293.0,3.527e-06
293.5,8.532e-06
294.0,1.342e-05
294.5,2.252e-05
295.0,3.731e-05
295.5,8.374e-05
296.0,0.000143
296.5,0.0001774
297.0,0.0002177
297.5,0.0005038
298.0,0.0007016
298.5,0.000642
299.0,0.001291
299.5,0.00182
300.0,0.001835
300.5,0.002428
301.0,0.003795
301.5,0.005313
302.0,0.004273
302.5,0.007809
303.0,0.01286
303.5,0.01536
304.0,0.01394
304.5,0.01884
305.0,0.02487
305.5,0.02619
306.0,0.02462
306.5,0.02913
307.0,0.03843
307.5,0.04575
308.0,0.04766
308.5,0.0535
309.0,0.04711
309.5,0.05091
310.0,0.04987
310.5,0.07995
311.0,0.09825
311.5,0.0942
312.0,0.08927
312.5,0.1049
313.0,0.1119
313.5,0.1113
314.0,0.1332
314.5,0.1111
315.0,0.1449
315.5,0.1257
316.0,0.1044
316.5,0.1436
317.0,0.1793
317.5,0.1899
318.0,0.1439
318.5,0.1685
319.0,0.1944
319.5,0.1674
320.0,0.2047
320.5,0.2411
321.0,0.2033
321.5,0.1945
322.0,0.2215
322.5,0.1928
323.0,0.185
323.5,0.2128
324.0,0.2475
324.5,0.2572
325.0,0.2346
325.5,0.2929
326.0,0.3445
326.5,0.3377
327.0,0.3408
327.5,0.3343
328.0,0.3089
328.5,0.3129
329.0,0.3643
329.5,0.411
330.0,0.4192
330.5,0.3449
331.0,0.3555
331.5,0.356
332.0,0.376
332.5,0.3689
333.0,0.3716
333.5,0.344
334.0,0.3546
334.5,0.4016
335.0,0.3739
335.5,0.4248
336.0,0.2947
336.5,0.3594
337.0,0.2984
337.5,0.3735
338.0,0.3594
338.5,0.4059
339.0,0.405
339.5,0.3892
340.0,0.4695
340.5,0.4238
341.0,0.4066
341.5,0.3775
342.0,0.4533
342.5,0.4259
343.0,0.4678
343.5,0.4404
344.0,0.3311
344.5,0.328
345.0,0.4396
345.5,0.4514
346.0,0.3853
346.5,0.4379
347.0,0.4699
347.5,0.3804
348.0,0.4365
348.5,0.4383
349.0,0.4078
349.5,0.4045
350.0,0.5016
350.5,0.5304
351.0,0.4744
351.5,0.46
352.0,0.4968
352.5,0.3893
353.0,0.4919
353.5,0.5276
354.0,0.5494
354.5,0.5586
355.0,0.5578
355.5,0.5051
356.0,0.5297
356.5,0.4535
357.0,0.3756
357.5,0.461
358.0,0.3663
358.5,0.3138
359.0,0.4399
359.5,0.5616
360.0,0.5968
360.5,0.4782
361.0,0.4368
361.5,0.5038
362.0,0.4363
362.5,0.6047
363.0,0.544
363.5,0.5019
364.0,0.6149
364.5,0.5267
365.0,0.5374
365.5,0.6759
366.0,0.7173
366.5,0.6751
367.0,0.6587
367.5,0.685
368.0,0.6005
368.5,0.607
369.0,0.6567
369.5,0.7013
370.0,0.7489
370.5,0.5822
371.0,0.6232
371.5,0.7812
372.0,0.5195
372.5,0.624
373.0,0.6357
373.5,0.4143
374.0,0.603
374.5,0.5002
375.0,0.4871
375.5,0.7286
376.0,0.6051
376.5,0.6282
377.0,0.6661
377.5,0.7806
378.0,0.8478
378.5,0.8029
379.0,0.6639
379.5,0.6078
380.0,0.6331
380.5,0.7679
381.0,0.7707
381.5,0.6118
382.0,0.5441
382.5,0.4644
383.0,0.4306
383.5,0.4154
384.0,0.4589
384.5,0.6759
385.0,0.6713
385.5,0.626
386.0,0.537
386.5,0.7063
387.0,0.5878
387.5,0.6613
388.0,0.6115
388.5,0.6053
389.0,0.6544
389.5,0.7937
390.0,0.7977
390.5,0.7352
391.0,0.8666
391.5,0.8853
392.0,0.7468
392.5,0.6694
393.0,0.373
393.5,0.2714
394.0,0.5531
394.5,0.704
395.0,0.8603
395.5,0.8752
396.0,0.7598
396.5,0.4446
397.0,0.3341
397.5,0.6804
398.0,0.9544
398.5,0.9877
399.0,1.07
399.5,1.068
400.0,1.111
401.0,1.143
402.0,1.209
403.0,1.151
404.0,1.136
405.0,1.138
406.0,1.122
407.0,1.106
408.0,1.152
409.0,1.235
410.0,1.081
411.0,1.173
412.0,1.262
413.0,1.234
414.0,1.251
415.0,1.256
416.0,1.28
417.0,1.251
418.0,1.231
419.0,1.249
420.0,1.246
421.0,1.306
422.0,1.243
423.0,1.217
424.0,1.289
425.0,1.289
426.0,1.257
427.0,1.235
428.0,1.206
429.0,1.143
430.0,1.002
431.0,0.995
432.0,1.286
433.0,1.295
434.0,1.205
435.0,1.261
436.0,1.422
437.0,1.403
438.0,1.279
439.0,1.326
440.0,1.37
441.0,1.421
442.0,1.526
443.0,1.49
444.0,1.524
445.0,1.493
446.0,1.426
447.0,1.543
448.0,1.57
449.0,1.577
450.0,1.623
451.0,1.685
452.0,1.625
453.0,1.53
454.0,1.599
455.0,1.611
456.0,1.651
457.0,1.681
458.0,1.626
459.0,1.619
460.0,1.626
461.0,1.665
462.0,1.679
463.0,1.67
464.0,1.643
465.0,1.623
466.0,1.639
467.0,1.612
468.0,1.633
469.0,1.644
470.0,1.593
471.0,1.593
472.0,1.68
473.0,1.66
474.0,1.666
475.0,1.683
476.0,1.636
477.0,1.644
478.0,1.691
479.0,1.681
480.0,1.685
481.0,1.717
482.0,1.726
483.0,1.706
484.0,1.672
485.0,1.594
486.0,1.394
487.0,1.461
488.0,1.605
489.0,1.612
490.0,1.696
491.0,1.668
492.0,1.576
493.0,1.629
494.0,1.647
495.0,1.662
496.0,1.674
497.0,1.701
498.0,1.623
499.0,1.646
500.0,1.6
501.0,1.573
502.0,1.554
503.0,1.621
504.0,1.587
505.0,1.64
506.0,1.695
507.0,1.614
508.0,1.563
509.0,1.607
510.0,1.598
511.0,1.641
512.0,1.659
513.0,1.572
514.0,1.561
515.0,1.547
516.0,1.544
517.0,1.373
518.0,1.445
519.0,1.516
520.0,1.573
521.0,1.589
522.0,1.592
523.0,1.565
524.0,1.623
525.0,1.644
526.0,1.572
527.0,1.484
528.0,1.571
529.0,1.658
530.0,1.635
531.0,1.661
532.0,1.605
533.0,1.559
534.0,1.606
535.0,1.641
536.0,1.656
537.0,1.592
538.0,1.62
539.0,1.608
540.0,1.542
541.0,1.555
542.0,1.606
543.0,1.588
544.0,1.618
545.0,1.613
546.0,1.623
547.0,1.622
548.0,1.603
549.0,1.608
550.0,1.628
551.0,1.609
552.0,1.621
553.0,1.593
554.0,1.632
555.0,1.636
556.0,1.616
557.0,1.567
558.0,1.557
559.0,1.53
560.0,1.55
561.0,1.572
562.0,1.562
563.0,1.607
564.0,1.565
565.0,1.553
566.0,1.531
567.0,1.562
568.0,1.552
569.0,1.522
570.0,1.521
571.0,1.511
572.0,1.552
573.0,1.57
574.0,1.566
575.0,1.539
576.0,1.526
577.0,1.542
578.0,1.518
579.0,1.522
580.0,1.548
581.0,1.553
582.0,1.58
583.0,1.583
584.0,1.595
585.0,1.556
586.0,1.525
587.0,1.561
588.0,1.531
589.0,1.371
590.0,1.433
591.0,1.509
592.0,1.495
593.0,1.511
594.0,1.504
595.0,1.472
596.0,1.519
597.0,1.506
598.0,1.499
599.0,1.5
600.0,1.499
601.0,1.485
602.0,1.475
603.0,1.499
604.0,1.524
605.0,1.516
606.0,1.509
607.0,1.523
608.0,1.506
609.0,1.508
610.0,1.496
611.0,1.504
612.0,1.5
613.0,1.481
614.0,1.46
615.0,1.491
616.0,1.442
617.0,1.439
618.0,1.494
619.0,1.479
620.0,1.489
621.0,1.492
622.0,1.476
623.0,1.454
624.0,1.429
625.0,1.426
626.0,1.448
627.0,1.467
628.0,1.401
629.0,1.444
630.0,1.412
631.0,1.434
632.0,1.415
633.0,1.454
634.0,1.437
635.0,1.458
636.0,1.438
637.0,1.46
638.0,1.472
639.0,1.455
640.0,1.44
641.0,1.438
642.0,1.431
643.0,1.45
644.0,1.445
645.0,1.448
646.0,1.419
647.0,1.41
648.0,1.413
649.0,1.387
650.0,1.383
651.0,1.441
652.0,1.394
653.0,1.422
654.0,1.406
655.0,1.36
656.0,1.201
657.0,1.233
658.0,1.379
659.0,1.388
660.0,1.393
661.0,1.403
662.0,1.408
663.0,1.38
664.0,1.394
665.0,1.393
666.0,1.393
667.0,1.391
668.0,1.391
669.0,1.412
670.0,1.406
671.0,1.405
672.0,1.393
673.0,1.414
674.0,1.408
675.0,1.395
676.0,1.405
677.0,1.391
678.0,1.394
679.0,1.372
680.0,1.383
681.0,1.374
682.0,1.372
683.0,1.37
684.0,1.363
685.0,1.375
686.0,1.367
687.0,1.044
688.0,1.157
689.0,1.159
690.0,1.194
691.0,1.233
692.0,1.259
693.0,1.251
694.0,1.242
695.0,1.277
696.0,1.279
697.0,1.336
698.0,1.316
699.0,1.299
700.0,1.283
701.0,1.275
702.0,1.279
703.0,1.281
704.0,1.314
705.0,1.316
706.0,1.312
707.0,1.312
708.0,1.316
709.0,1.313
710.0,1.315
711.0,1.312
712.0,1.306
713.0,1.295
714.0,1.3
715.0,1.264
716.0,1.266
717.0,1.149
718.0,1.066
719.0,0.9828
720.0,1.032
721.0,1.107
722.0,1.232
723.0,1.166
724.0,1.071
725.0,1.061
726.0,1.106
727.0,1.111
728.0,1.061
729.0,1.083
730.0,1.144
731.0,1.101
732.0,1.159
733.0,1.208
734.0,1.232
735.0,1.209
736.0,1.207
737.0,1.213
738.0,1.22
739.0,1.196
740.0,1.224
741.0,1.21
742.0,1.209
743.0,1.239
744.0,1.235
745.0,1.234
746.0,1.24
747.0,1.242
748.0,1.24
749.0,1.226
750.0,1.225
751.0,1.213
752.0,1.218
753.0,1.224
754.0,1.227
755.0,1.22
756.0,1.22
757.0,1.222
758.0,1.207
759.0,1.189
760.0,0.3555
761.0,0.2296
762.0,0.7524
763.0,0.4735
764.0,0.6228
765.0,0.7533
766.0,0.8537
767.0,1.01
768.0,1.114
769.0,1.126
770.0,1.152
771.0,1.156
772.0,1.157
773.0,1.164
774.0,1.159
775.0,1.15
776.0,1.164
777.0,1.148
778.0,1.142
779.0,1.143
780.0,1.136
781.0,1.137
782.0,1.145
783.0,1.125
784.0,1.13
785.0,1.122
786.0,1.135
787.0,1.121
788.0,1.109
789.0,1.11
790.0,1.088
791.0,1.09
792.0,1.081
793.0,1.065
794.0,1.075
795.0,1.095
796.0,1.072
797.0,1.074
798.0,1.095
799.0,1.09
800.0,1.074
801.0,1.073
802.0,1.07
803.0,1.063
804.0,1.064
805.0,1.057
806.0,1.082
807.0,1.07
808.0,1.071
809.0,1.055
810.0,1.049
811.0,1.055
812.0,1.032
813.0,1.016
814.0,0.9201
815.0,0.9139
816.0,0.8551
817.0,0.8672
818.0,0.8407
819.0,0.9167
820.0,0.8727
821.0,0.9888
822.0,0.9659
823.0,0.7083
824.0,0.9483
825.0,0.9739
826.0,0.9463
827.0,0.9885
828.0,0.8663
829.0,0.9388
830.0,0.9297
831.0,0.9318
832.0,0.9086
833.0,0.9516
834.0,0.9273
835.0,0.999
836.0,0.9685
837.0,1.001
838.0,0.9752
839.0,0.9851
840.0,1.005
841.0,0.9935
842.0,0.9922
843.0,0.9881
844.0,0.9764
845.0,1.007
846.0,1.002
847.0,0.9821
848.0,0.9777
849.0,0.95
850.0,0.91
851.0,0.9653
852.0,0.9578
853.0,0.9207
854.0,0.7961
855.0,0.8731
856.0,0.9549
857.0,0.9752
858.0,0.9685
859.0,0.9688
860.0,0.9701
861.0,0.965
862.0,0.98
863.0,1.003
864.0,0.953
865.0,0.9446
866.0,0.8494
867.0,0.8864
868.0,0.9646
869.0,0.9446
870.0,0.9716
871.0,0.9584
872.0,0.955
873.0,0.9531
874.0,0.9418
875.0,0.9229
876.0,0.9326
877.0,0.942
878.0,0.9526
879.0,0.9379
880.0,0.9178
881.0,0.9049
882.0,0.9248
883.0,0.927
884.0,0.9231
885.0,0.9301
886.0,0.8892
887.0,0.8966
888.0,0.9113
889.0,0.9192
890.0,0.9145
891.0,0.9115
892.0,0.8889
893.0,0.866
894.0,0.8444
895.0,0.8094
896.0,0.7685
897.0,0.6767
898.0,0.7286
899.0,0.5752
900.0,0.7364
901.0,0.6015
902.0,0.6791
903.0,0.6941
904.0,0.8385
905.0,0.815
906.0,0.7672
907.0,0.6475
908.0,0.6573
909.0,0.6999
910.0,0.64
911.0,0.6699
912.0,0.695
913.0,0.6505
914.0,0.6415
915.0,0.6923
916.0,0.5938
917.0,0.729
918.0,0.6091
919.0,0.7373
920.0,0.735
921.0,0.7612
922.0,0.6956
923.0,0.7348
924.0,0.7134
925.0,0.6987
926.0,0.7059
927.0,0.7759
928.0,0.6106
929.0,0.5686
930.0,0.4657
931.0,0.4378
932.0,0.3342
933.0,0.2827
934.0,0.1784
935.0,0.2802
936.0,0.1894
937.0,0.1944
938.0,0.2329
939.0,0.4244
940.0,0.4975
941.0,0.3935
942.0,0.4436
943.0,0.3063
944.0,0.3103
945.0,0.4028
946.0,0.2247
947.0,0.4094
948.0,0.3046
949.0,0.5281
950.0,0.179
951.0,0.5168
952.0,0.3042
953.0,0.3755
954.0,0.4416
955.0,0.3777
956.0,0.3594
957.0,0.3074
958.0,0.4813
959.0,0.4022
960.0,0.4498
961.0,0.49
962.0,0.4659
963.0,0.5239
964.0,0.4846
965.0,0.5202
966.0,0.5237
967.0,0.5225
968.0,0.657
969.0,0.6886
970.0,0.639
971.0,0.7125
972.0,0.6852
973.0,0.6156
974.0,0.5875
975.0,0.6021
976.0,0.5816
977.0,0.6425
978.0,0.6185
979.0,0.6414
980.0,0.6074
981.0,0.7077
982.0,0.6834
983.0,0.6603
984.0,0.7219
985.0,0.6806
986.0,0.7302
987.0,0.7205
988.0,0.7193
989.0,0.7254
990.0,0.7145
991.0,0.7281
992.0,0.7319
993.0,0.7201
994.0,0.7312
995.0,0.7297
996.0,0.7272
997.0,0.7279
998.0,0.7248
999.0,0.722
1000.0,0.718
1001.0,0.7257
1002.0,0.7103
1003.0,0.7132
1004.0,0.697
1005.0,0.6699
1006.0,0.6969
1007.0,0.7112
1008.0,0.7082
1009.0,0.7054
1010.0,0.7029
1011.0,0.7076
1012.0,0.7024
1013.0,0.7057
1014.0,0.7008
1015.0,0.6963
1016.0,0.6933
1017.0,0.6952
1018.0,0.6921
1019.0,0.679
1020.0,0.6888
1021.0,0.6875
1022.0,0.6828
1023.0,0.6902
1024.0,0.683
1025.0,0.6892
1026.0,0.6867
1027.0,0.685
1028.0,0.6838
1029.0,0.6759
1030.0,0.6799
1031.0,0.6774
1032.0,0.6753
1033.0,0.6652
1034.0,0.6652
1035.0,0.6673
1036.0,0.6709
1037.0,0.66
1038.0,0.663
1039.0,0.6627
1040.0,0.6601
1041.0,0.6629
1042.0,0.6583
1043.0,0.6563
1044.0,0.6588
1045.0,0.6499
1046.0,0.6429
1047.0,0.6488
1048.0,0.6525
1049.0,0.6503
1050.0,0.6475
1051.0,0.6468
1052.0,0.6443
1053.0,0.6394
1054.0,0.641
1055.0,0.6417
1056.0,0.6397
1057.0,0.638
1058.0,0.6225
1059.0,0.6235
1060.0,0.6227
1061.0,0.6221
1062.0,0.6257
1063.0,0.6197
1064.0,0.627
1065.0,0.6231
1066.0,0.6103
1067.0,0.6184
1068.0,0.6054
1069.0,0.5863
1070.0,0.6067
1071.0,0.6146
1072.0,0.6088
1073.0,0.5997
1074.0,0.6135
1075.0,0.5876
1076.0,0.6133
1077.0,0.6051
1078.0,0.5947
1079.0,0.6028
1080.0,0.5959
1081.0,0.579
1082.0,0.5843
1083.0,0.5851
1084.0,0.5791
1085.0,0.5968
1086.0,0.5526
1087.0,0.5643
1088.0,0.5854
1089.0,0.572
1090.0,0.5629
1091.0,0.5849
1092.0,0.5823
1093.0,0.5082
1094.0,0.5346
1095.0,0.5271
1096.0,0.5091
1097.0,0.5687
1098.0,0.5026
1099.0,0.5219
1100.0,0.4921
1101.0,0.4962
1102.0,0.4778
1103.0,0.4761
1104.0,0.4763
1105.0,0.5115
1106.0,0.4165
1107.0,0.4907
1108.0,0.4314
1109.0,0.4292
1110.0,0.4882
1111.0,0.3523
1112.0,0.4247
1113.0,0.2929
1114.0,0.3242
1115.0,0.2696
1116.0,0.2295
1117.0,0.1013
1118.0,0.2439
1119.0,0.1341
1120.0,0.1687
1121.0,0.2154
1122.0,0.1022
1123.0,0.1521
1124.0,0.1286
1125.0,0.1646
1126.0,0.06903
1127.0,0.1846
1128.0,0.1229
1129.0,0.1283
1130.0,0.09063
1131.0,0.3214
1132.0,0.2577
1133.0,0.1783
1134.0,0.05598
1135.0,0.02059
1136.0,0.1542
1137.0,0.3197
1138.0,0.2291
1139.0,0.3143
1140.0,0.2731
1141.0,0.2177
1142.0,0.2445
1143.0,0.3357
1144.0,0.132
1145.0,0.1715
1146.0,0.1851
1147.0,0.07767
1148.0,0.2908
1149.0,0.241
1150.0,0.1417
1151.0,0.2276
1152.0,0.27
1153.0,0.2557
1154.0,0.1694
1155.0,0.3283
1156.0,0.3009
1157.0,0.3304
1158.0,0.3263
1159.0,0.3449
1160.0,0.3037
1161.0,0.3584
1162.0,0.3613
1163.0,0.4621
1164.0,0.406
1165.0,0.3916
1166.0,0.3832
1167.0,0.4125
1168.0,0.4187
1169.0,0.4252
1170.0,0.4548
1171.0,0.4448
1172.0,0.4488
1173.0,0.4539
1174.0,0.3451
1175.0,0.4405
1176.0,0.4746
1177.0,0.4617
1178.0,0.3628
1179.0,0.478
1180.0,0.4375
1181.0,0.4502
1182.0,0.328
1183.0,0.4409
1184.0,0.4189
1185.0,0.4091
1186.0,0.4686
1187.0,0.4514
1188.0,0.3348
1189.0,0.4218
1190.0,0.4581
1191.0,0.4432
1192.0,0.4635
1193.0,0.4472
1194.0,0.4588
1195.0,0.4398
1196.0,0.4274
1197.0,0.4557
1198.0,0.4219
1199.0,0.3725
1200.0,0.4421
1201.0,0.431
1202.0,0.426
1203.0,0.4224
1204.0,0.3774
1205.0,0.4319
1206.0,0.4693
1207.0,0.4261
1208.0,0.4154
1209.0,0.4229
1210.0,0.4375
1211.0,0.422
1212.0,0.4224
1213.0,0.4567
1214.0,0.4296
1215.0,0.423
1216.0,0.455
1217.0,0.4456
1218.0,0.4516
1219.0,0.4472
1220.0,0.4517
1221.0,0.4548
1222.0,0.4446
1223.0,0.4415
1224.0,0.4406
1225.0,0.452
1226.0,0.4534
1227.0,0.425
1228.0,0.4543
1229.0,0.4534
1230.0,0.447
1231.0,0.4556
1232.0,0.453
1233.0,0.4426
1234.0,0.4541
1235.0,0.452
1236.0,0.4547
1237.0,0.4504
1238.0,0.4531
1239.0,0.4474
1240.0,0.4488
1241.0,0.448
1242.0,0.4459
1243.0,0.4422
1244.0,0.4457
1245.0,0.4474
1246.0,0.4447
1247.0,0.4434
1248.0,0.4437
1249.0,0.4445
1250.0,0.4422
1251.0,0.4373
1252.0,0.4364
1253.0,0.4347
1254.0,0.4317
1255.0,0.4365
1256.0,0.4275
1257.0,0.4258
1258.0,0.4312
1259.0,0.4207
1260.0,0.4223
1261.0,0.4051
1262.0,0.3964
1263.0,0.3974
1264.0,0.375
1265.0,0.3947
1266.0,0.3846
1267.0,0.3881
1268.0,0.3734
1269.0,0.2697
1270.0,0.388
1271.0,0.403
1272.0,0.4035
1273.0,0.4
1274.0,0.4003
1275.0,0.4049
1276.0,0.4075
1277.0,0.4088
1278.0,0.4139
1279.0,0.4104
1280.0,0.4051
1281.0,0.3853
1282.0,0.3693
1283.0,0.3981
1284.0,0.4081
1285.0,0.4105
1286.0,0.4149
1287.0,0.4106
1288.0,0.4099
1289.0,0.401
1290.0,0.406
1291.0,0.411
1292.0,0.3937
1293.0,0.4049
1294.0,0.4025
1295.0,0.4023
1296.0,0.3892
1297.0,0.3723
1298.0,0.3926
1299.0,0.4047
1300.0,0.3566
1301.0,0.3646
1302.0,0.3911
1303.0,0.3504
1304.0,0.3123
1305.0,0.3842
1306.0,0.385
1307.0,0.3144
1308.0,0.3489
1309.0,0.3829
1310.0,0.309
1311.0,0.3375
1312.0,0.3305
1313.0,0.3262
1314.0,0.2969
1315.0,0.296
1316.0,0.3343
1317.0,0.3183
1318.0,0.3404
1319.0,0.2823
1320.0,0.27
1321.0,0.3088
1322.0,0.3141
1323.0,0.25
1324.0,0.2768
1325.0,0.3302
1326.0,0.2921
1327.0,0.2808
1328.0,0.2465
1329.0,0.1968
1330.0,0.25
1331.0,0.1658
1332.0,0.166
1333.0,0.2267
1334.0,0.1867
1335.0,0.2488
1336.0,0.204
1337.0,0.1852
1338.0,0.1994
1339.0,0.1968
1340.0,0.1878
1341.0,0.1915
1342.0,0.2007
1343.0,0.1545
1344.0,0.0925
1345.0,0.1305
1346.0,0.07842
1347.0,0.08194
1348.0,0.00874
1349.0,0.02691
1350.0,0.02511
1351.0,0.009437
1352.0,0.003893
1353.0,0.0003433
1354.0,0.0008568
1355.0,1.97e-05
1356.0,0.0001765
1357.0,0.0002629
1358.0,2.238e-05
1359.0,5.94e-06
1360.0,1.337e-05
1361.0,7.781e-08
1362.0,4.663e-10
1363.0,2.092e-05
1364.0,9.736e-06
1365.0,3.761e-10
1366.0,7.424e-05
1367.0,2.871e-05
1368.0,1.587e-11
1369.0,3.887e-06
1370.0,2.612e-06
1371.0,2.299e-07
1372.0,1.604e-05
1373.0,0.0001866
1374.0,0.0006045
1375.0,0.001064
1376.0,0.000759
1377.0,0.0003814
1378.0,0.003006
1379.0,0.0001654
1380.0,0.0002882
1381.0,9.964e-06
1382.0,1.574e-05
1383.0,3.42e-07
1384.0,4.917e-06
1385.0,1.072e-05
1386.0,1.719e-05
1387.0,0.0007379
1388.0,1.676e-05
1389.0,0.001746
1390.0,0.001483
1391.0,0.001098
1392.0,8.573e-05
1393.0,0.0003664
1394.0,0.0003208
1395.0,3.92e-06
1396.0,9.095e-08
1397.0,0.00017
1398.0,0.003447
1399.0,0.002208
1400.0,5.897e-08
1401.0,1.399e-07
1402.0,0.003934
1403.0,0.005326
1404.0,0.00169
1405.0,2.505e-06
1406.0,0.004953
1407.0,0.0004294
1408.0,0.003987
1409.0,0.001734
1410.0,0.001236
1411.0,0.004626
1412.0,0.005517
1413.0,0.03746
1414.0,0.0009514
1415.0,0.0005226
1416.0,0.05047
1417.0,0.01969
1418.0,0.02234
1419.0,0.003729
1420.0,0.01389
1421.0,0.01557
1422.0,0.06433
1423.0,0.01381
1424.0,0.02479
1425.0,0.03762
1426.0,0.03916
1427.0,0.06351
1428.0,0.008483
1429.0,0.05103
1430.0,0.0784
1431.0,0.08396
1432.0,0.006833
1433.0,0.05662
1434.0,0.03046
1435.0,0.03596
1436.0,0.0603
1437.0,0.04645
1438.0,0.02221
1439.0,0.07794
1440.0,0.0591
1441.0,0.04915
1442.0,0.05328
1443.0,0.06072
1444.0,0.08185
1445.0,0.06877
1446.0,0.03245
1447.0,0.05128
1448.0,0.1375
1449.0,0.1243
1450.0,0.03796
1451.0,0.01667
1452.0,0.07937
1453.0,0.1012
1454.0,0.1573
1455.0,0.08037
1456.0,0.1106
1457.0,0.1383
1458.0,0.1538
1459.0,0.1832
1460.0,0.1007
1461.0,0.1089
1462.0,0.1518
1463.0,0.05493
1464.0,0.1723
1465.0,0.1054
1466.0,0.08302
1467.0,0.04866
1468.0,0.09512
1469.0,0.1138
1470.0,0.06467
1471.0,0.02528
