interpolation:linear
wavelength,value
280.0,9.095000000000001e-28
280.5,5.278e-26
281.0,3.549e-25
281.5,1.961e-23
282.0,2.211e-22
282.5,1.072e-21
283.0,6.119e-21
283.5,1.311e-20
284.0,6.03e-19
284.5,2.707e-18
285.0,8.432e-18
285.5,9.059e-17
286.0,4.866e-16
286.5,3.685e-15
287.0,1.521e-14
287.5,9.114e-14
288.0,5.751e-13
288.5,2.73e-12
289.0,1.099e-11
289.5,4.996e-11
290.0,1.909e-10
290.5,5.062e-10
291.0,1.465e-09
291.5,6.014e-09
292.0,1.826e-08
292.5,3.04e-08
293.0,8.027e-08
293.5,2.553e-07
294.0,4.831e-07
294.5,9.321e-07
295.0,1.841e-06
295.5,5.132e-06
296.0,1.017e-05
296.5,1.452e-05
297.0,1.993e-05
297.5,5.394e-05
298.0,8.52e-05
298.5,8.566e-05
299.0,0.0001881
299.5,0.0003049
300.0,0.0003308
300.5,0.0004704
301.0,0.0008155
301.5,0.001242
302.0,0.00104
302.5,0.002044
303.0,0.003677
303.5,0.004619
304.0,0.004298
304.5,0.006161
305.0,0.008772
305.5,0.009672
306.0,0.009267
306.5,0.01128
307.0,0.01576
307.5,0.01975
308.0,0.0208
308.5,0.02395
309.0,0.02151
309.5,0.02451
310.0,0.02462
310.5,0.04
311.0,0.05015
311.5,0.04858
312.0,0.04783
312.5,0.05763
313.0,0.06235
313.5,0.06154
314.0,0.07572
314.5,0.06537
315.0,0.08596
315.5,0.07365
316.0,0.06291
316.5,0.08851
317.0,0.1107
317.5,0.1168
318.0,0.09001
318.5,0.1082
319.0,0.1266
319.5,0.1073
320.0,0.131
320.5,0.1584
321.0,0.1365
321.5,0.1311
322.0,0.1467
322.5,0.1281
323.0,0.1249
323.5,0.1471
324.0,0.1719
324.5,0.1777
325.0,0.16
325.5,0.2023
326.0,0.2419
326.5,0.2396
327.0,0.2416
327.5,0.2365
328.0,0.2162
328.5,0.2228
329.0,0.2625
329.5,0.2975
330.0,0.3035
330.5,0.2483
331.0,0.2558
331.5,0.2582
332.0,0.2752
332.5,0.2713
333.0,0.2733
333.5,0.2521
334.0,0.2602
334.5,0.297
335.0,0.2779
335.5,0.3167
336.0,0.2201
336.5,0.2682
337.0,0.2226
337.5,0.2788
338.0,0.27
338.5,0.3059
339.0,0.306
339.5,0.2945
340.0,0.3551
340.5,0.3211
341.0,0.3093
341.5,0.2878
342.0,0.3462
342.5,0.326
343.0,0.3584
343.5,0.3377
344.0,0.2538
344.5,0.2521
345.0,0.339
345.5,0.3488
346.0,0.2983
346.5,0.3396
347.0,0.3648
347.5,0.2957
348.0,0.34
348.5,0.3419
349.0,0.3186
349.5,0.3166
350.0,0.3932
350.5,0.4163
351.0,0.3728
351.5,0.3618
352.0,0.3914
352.5,0.3073
353.0,0.3889
353.5,0.4177
354.0,0.4355
354.5,0.4433
355.0,0.4432
355.5,0.4019
356.0,0.4221
356.5,0.3618
357.0,0.3
357.5,0.3686
358.0,0.2932
358.5,0.2514
359.0,0.3528
359.5,0.4509
360.0,0.4797
360.5,0.3848
361.0,0.352
361.5,0.4067
362.0,0.3528
362.5,0.4897
363.0,0.4412
363.5,0.4077
364.0,0.5001
364.5,0.4288
365.0,0.4381
365.5,0.5515
366.0,0.5861
366.5,0.5523
367.0,0.5395
367.5,0.5616
368.0,0.4929
368.5,0.4988
369.0,0.5403
369.5,0.5776
370.0,0.6175
370.5,0.4806
371.0,0.515
371.5,0.6462
372.0,0.4301
372.5,0.5171
373.0,0.5275
373.5,0.3441
374.0,0.5014
374.5,0.4163
375.0,0.4058
375.5,0.6075
376.0,0.505
376.5,0.5247
377.0,0.557
377.5,0.6533
378.0,0.7101
378.5,0.6731
379.0,0.557
379.5,0.5102
380.0,0.5319
380.5,0.6459
381.0,0.649
381.5,0.5157
382.0,0.4592
382.5,0.3924
383.0,0.3642
383.5,0.3516
384.0,0.3888
384.5,0.5733
385.0,0.5698
385.5,0.5319
386.0,0.4567
386.5,0.6013
387.0,0.5008
387.5,0.5639
388.0,0.5218
388.5,0.517
389.0,0.5594
389.5,0.6791
390.0,0.6831
390.5,0.63
391.0,0.7433
391.5,0.7599
392.0,0.6414
392.5,0.5755
393.0,0.3209
393.5,0.2338
394.0,0.4767
394.5,0.6073
395.0,0.7425
395.5,0.7559
396.0,0.6567
396.5,0.3847
397.0,0.2893
397.5,0.5895
398.0,0.8273
398.5,0.8568
399.0,0.9295
399.5,0.9282
400.0,0.9658
401.0,0.9955
402.0,1.054
403.0,1.005
404.0,0.9931
405.0,0.9964
406.0,0.9836
407.0,0.971
408.0,1.012
409.0,1.087
410.0,0.9528
411.0,1.035
412.0,1.115
413.0,1.091
414.0,1.108
415.0,1.114
416.0,1.137
417.0,1.112
418.0,1.095
419.0,1.113
420.0,1.111
421.0,1.166
422.0,1.111
423.0,1.089
424.0,1.155
425.0,1.156
426.0,1.128
427.0,1.11
428.0,1.084
429.0,1.029
430.0,0.903
431.0,0.8975
432.0,1.162
433.0,1.171
434.0,1.09
435.0,1.141
436.0,1.288
437.0,1.273
438.0,1.162
439.0,1.205
440.0,1.246
441.0,1.294
442.0,1.391
443.0,1.358
444.0,1.39
445.0,1.363
446.0,1.303
447.0,1.411
448.0,1.437
449.0,1.445
450.0,1.488
451.0,1.546
452.0,1.493
453.0,1.406
454.0,1.471
455.0,1.483
456.0,1.521
457.0,1.549
458.0,1.499
459.0,1.494
460.0,1.501
461.0,1.538
462.0,1.553
463.0,1.544
464.0,1.521
465.0,1.503
466.0,1.52
467.0,1.495
468.0,1.515
469.0,1.526
470.0,1.48
471.0,1.48
472.0,1.562
473.0,1.544
474.0,1.549
475.0,1.565
476.0,1.522
477.0,1.529
478.0,1.573
479.0,1.566
480.0,1.571
481.0,1.602
482.0,1.613
483.0,1.595
484.0,1.564
485.0,1.492
486.0,1.305
487.0,1.369
488.0,1.504
489.0,1.511
490.0,1.592
491.0,1.566
492.0,1.481
493.0,1.531
494.0,1.548
495.0,1.563
496.0,1.575
497.0,1.601
498.0,1.528
499.0,1.55
500.0,1.507
501.0,1.482
502.0,1.463
503.0,1.526
504.0,1.491
505.0,1.544
506.0,1.596
507.0,1.52
508.0,1.473
509.0,1.516
510.0,1.509
511.0,1.55
512.0,1.569
513.0,1.486
514.0,1.477
515.0,1.464
516.0,1.462
517.0,1.3
518.0,1.368
519.0,1.436
520.0,1.49
521.0,1.506
522.0,1.509
523.0,1.483
524.0,1.538
525.0,1.558
526.0,1.49
527.0,1.406
528.0,1.488
529.0,1.571
530.0,1.549
531.0,1.574
532.0,1.521
533.0,1.478
534.0,1.523
535.0,1.557
536.0,1.572
537.0,1.511
538.0,1.539
539.0,1.527
540.0,1.465
541.0,1.477
542.0,1.524
543.0,1.509
544.0,1.537
545.0,1.533
546.0,1.541
547.0,1.541
548.0,1.524
549.0,1.529
550.0,1.548
551.0,1.531
552.0,1.542
553.0,1.516
554.0,1.553
555.0,1.557
556.0,1.538
557.0,1.492
558.0,1.482
559.0,1.456
560.0,1.475
561.0,1.495
562.0,1.486
563.0,1.528
564.0,1.488
565.0,1.476
566.0,1.456
567.0,1.485
568.0,1.473
569.0,1.441
570.0,1.441
571.0,1.433
572.0,1.47
573.0,1.486
574.0,1.483
575.0,1.456
576.0,1.444
577.0,1.46
578.0,1.438
579.0,1.444
580.0,1.47
581.0,1.478
582.0,1.505
583.0,1.509
584.0,1.522
585.0,1.485
586.0,1.456
587.0,1.489
588.0,1.456
589.0,1.296
590.0,1.355
591.0,1.432
592.0,1.416
593.0,1.435
594.0,1.427
595.0,1.394
596.0,1.446
597.0,1.432
598.0,1.428
599.0,1.429
600.0,1.431
601.0,1.419
602.0,1.41
603.0,1.433
604.0,1.457
605.0,1.45
606.0,1.444
607.0,1.459
608.0,1.443
609.0,1.446
610.0,1.435
611.0,1.443
612.0,1.439
613.0,1.421
614.0,1.402
615.0,1.433
616.0,1.386
617.0,1.383
618.0,1.437
619.0,1.423
620.0,1.432
621.0,1.435
622.0,1.419
623.0,1.398
624.0,1.374
625.0,1.371
626.0,1.392
627.0,1.409
628.0,1.327
629.0,1.381
630.0,1.35
631.0,1.377
632.0,1.36
633.0,1.4
634.0,1.386
635.0,1.407
636.0,1.389
637.0,1.411
638.0,1.425
639.0,1.409
640.0,1.395
641.0,1.394
642.0,1.388
643.0,1.407
644.0,1.402
645.0,1.405
646.0,1.374
647.0,1.361
648.0,1.363
649.0,1.337
650.0,1.34
651.0,1.398
652.0,1.344
653.0,1.38
654.0,1.365
655.0,1.316
656.0,1.166
657.0,1.197
658.0,1.341
659.0,1.35
660.0,1.356
661.0,1.366
662.0,1.37
663.0,1.343
664.0,1.358
665.0,1.358
666.0,1.36
667.0,1.358
668.0,1.359
669.0,1.38
670.0,1.374
671.0,1.374
672.0,1.362
673.0,1.383
674.0,1.378
675.0,1.366
676.0,1.375
677.0,1.362
678.0,1.366
679.0,1.344
680.0,1.355
681.0,1.346
682.0,1.345
683.0,1.342
684.0,1.336
685.0,1.348
686.0,1.34
687.0,0.9362
688.0,1.075
689.0,1.079
690.0,1.124
691.0,1.175
692.0,1.212
693.0,1.203
694.0,1.193
695.0,1.237
696.0,1.239
697.0,1.308
698.0,1.288
699.0,1.262
700.0,1.247
701.0,1.236
702.0,1.243
703.0,1.246
704.0,1.283
705.0,1.285
706.0,1.283
707.0,1.284
708.0,1.287
709.0,1.288
710.0,1.289
711.0,1.287
712.0,1.282
713.0,1.27
714.0,1.275
715.0,1.237
716.0,1.238
717.0,1.091
718.0,1.005
719.0,0.9232
720.0,0.9683
721.0,1.058
722.0,1.199
723.0,1.123
724.0,1.019
725.0,1.005
726.0,1.051
727.0,1.062
728.0,1.004
729.0,1.035
730.0,1.096
731.0,1.05
732.0,1.117
733.0,1.177
734.0,1.203
735.0,1.179
736.0,1.178
737.0,1.183
738.0,1.197
739.0,1.174
740.0,1.203
741.0,1.191
742.0,1.192
743.0,1.222
744.0,1.218
745.0,1.218
746.0,1.224
747.0,1.227
748.0,1.224
749.0,1.211
750.0,1.21
751.0,1.198
752.0,1.203
753.0,1.209
754.0,1.212
755.0,1.206
756.0,1.205
757.0,1.207
758.0,1.192
759.0,1.171
760.0,0.2387
761.0,0.1343
762.0,0.6449
763.0,0.3484
764.0,0.5008
765.0,0.6454
766.0,0.7711
767.0,0.9518
768.0,1.082
769.0,1.101
770.0,1.134
771.0,1.142
772.0,1.144
773.0,1.152
774.0,1.146
775.0,1.138
776.0,1.151
777.0,1.136
778.0,1.13
779.0,1.131
780.0,1.125
781.0,1.126
782.0,1.133
783.0,1.113
784.0,1.119
785.0,1.111
786.0,1.123
787.0,1.106
788.0,1.093
789.0,1.093
790.0,1.067
791.0,1.073
792.0,1.065
793.0,1.048
794.0,1.064
795.0,1.083
796.0,1.053
797.0,1.055
798.0,1.082
799.0,1.076
800.0,1.058
801.0,1.056
802.0,1.053
803.0,1.045
804.0,1.047
805.0,1.042
806.0,1.07
807.0,1.058
808.0,1.059
809.0,1.04
810.0,1.033
811.0,1.036
812.0,1.009
813.0,0.9893
814.0,0.8787
815.0,0.8731
816.0,0.814
817.0,0.828
818.0,0.7989
819.0,0.8861
820.0,0.8374
821.0,0.9691
822.0,0.9431
823.0,0.657
824.0,0.9192
825.0,0.9531
826.0,0.92
827.0,0.9678
828.0,0.8294
829.0,0.9141
830.0,0.9031
831.0,0.9061
832.0,0.88
833.0,0.9318
834.0,0.9018
835.0,0.9846
836.0,0.9463
837.0,0.9873
838.0,0.9583
839.0,0.9722
840.0,0.9931
841.0,0.9799
842.0,0.981
843.0,0.9794
844.0,0.9665
845.0,0.9983
846.0,0.9939
847.0,0.9751
848.0,0.9696
849.0,0.9422
850.0,0.9027
851.0,0.9564
852.0,0.9495
853.0,0.9136
854.0,0.7893
855.0,0.8667
856.0,0.9475
857.0,0.9683
858.0,0.9614
859.0,0.9621
860.0,0.9638
861.0,0.9587
862.0,0.9737
863.0,0.9968
864.0,0.947
865.0,0.9388
866.0,0.8442
867.0,0.881
868.0,0.9588
869.0,0.9389
870.0,0.9658
871.0,0.9527
872.0,0.9494
873.0,0.9476
874.0,0.9364
875.0,0.9175
876.0,0.9271
877.0,0.9365
878.0,0.9469
879.0,0.9323
880.0,0.9124
881.0,0.899
882.0,0.9186
883.0,0.9214
884.0,0.9173
885.0,0.9243
886.0,0.8818
887.0,0.8906
888.0,0.9041
889.0,0.9138
890.0,0.907
891.0,0.9051
892.0,0.8801
893.0,0.8538
894.0,0.8263
895.0,0.7839
896.0,0.7398
897.0,0.6397
898.0,0.6957
899.0,0.5343
900.0,0.71
901.0,0.5598
902.0,0.6505
903.0,0.659
904.0,0.8206
905.0,0.7938
906.0,0.744
907.0,0.6106
908.0,0.6218
909.0,0.6708
910.0,0.5983
911.0,0.6347
912.0,0.6624
913.0,0.6075
914.0,0.6015
915.0,0.6517
916.0,0.5532
917.0,0.6965
918.0,0.5674
919.0,0.7079
920.0,0.7126
921.0,0.7406
922.0,0.6657
923.0,0.7153
924.0,0.6826
925.0,0.6679
926.0,0.6752
927.0,0.7526
928.0,0.5616
929.0,0.5152
930.0,0.4087
931.0,0.3867
932.0,0.2823
933.0,0.2314
934.0,0.131
935.0,0.2353
936.0,0.1495
937.0,0.1518
938.0,0.1857
939.0,0.3749
940.0,0.4483
941.0,0.3419
942.0,0.3937
943.0,0.2617
944.0,0.2732
945.0,0.352
946.0,0.1827
947.0,0.3545
948.0,0.261
949.0,0.471
950.0,0.1362
951.0,0.4632
952.0,0.2535
953.0,0.3244
954.0,0.3945
955.0,0.3278
956.0,0.3165
957.0,0.2544
958.0,0.4439
959.0,0.3563
960.0,0.3992
961.0,0.4454
962.0,0.4217
963.0,0.4838
964.0,0.444
965.0,0.4818
966.0,0.4824
967.0,0.4806
968.0,0.636
969.0,0.665
970.0,0.6119
971.0,0.6968
972.0,0.6673
973.0,0.5847
974.0,0.5555
975.0,0.5752
976.0,0.5482
977.0,0.62
978.0,0.5906
979.0,0.6175
980.0,0.5813
981.0,0.6929
982.0,0.6639
983.0,0.6382
984.0,0.7126
985.0,0.6614
986.0,0.7242
987.0,0.7111
988.0,0.7098
989.0,0.7216
990.0,0.7056
991.0,0.7239
992.0,0.728
993.0,0.7128
994.0,0.7278
995.0,0.7268
996.0,0.7237
997.0,0.7247
998.0,0.7214
999.0,0.7188
1000.0,0.7139
1001.0,0.7226
1002.0,0.7037
1003.0,0.71
1004.0,0.6929
1005.0,0.6672
1006.0,0.6935
1007.0,0.7081
1008.0,0.7045
1009.0,0.7009
1010.0,0.698
1011.0,0.7046
1012.0,0.6987
1013.0,0.7029
1014.0,0.698
1015.0,0.6934
1016.0,0.6904
1017.0,0.6922
1018.0,0.6895
1019.0,0.6752
1020.0,0.686
1021.0,0.685
1022.0,0.6798
1023.0,0.6871
1024.0,0.6785
1025.0,0.6866
1026.0,0.6837
1027.0,0.6822
1028.0,0.6808
1029.0,0.6728
1030.0,0.6773
1031.0,0.6747
1032.0,0.6727
1033.0,0.6626
1034.0,0.6626
1035.0,0.6647
1036.0,0.6682
1037.0,0.6574
1038.0,0.6603
1039.0,0.66
1040.0,0.6574
1041.0,0.66
1042.0,0.6554
1043.0,0.6534
1044.0,0.6557
1045.0,0.6469
1046.0,0.6398
1047.0,0.6456
1048.0,0.6492
1049.0,0.6469
1050.0,0.644
1051.0,0.6431
1052.0,0.6406
1053.0,0.6355
1054.0,0.637
1055.0,0.6374
1056.0,0.6352
1057.0,0.6333
1058.0,0.6178
1059.0,0.6186
1060.0,0.6177
1061.0,0.617
1062.0,0.6203
1063.0,0.6142
1064.0,0.6215
1065.0,0.6172
1066.0,0.6049
1067.0,0.6127
1068.0,0.5995
1069.0,0.5809
1070.0,0.6007
1071.0,0.6098
1072.0,0.603
1073.0,0.5943
1074.0,0.6093
1075.0,0.5798
1076.0,0.6089
1077.0,0.5986
1078.0,0.5875
1079.0,0.5991
1080.0,0.5894
1081.0,0.571
1082.0,0.5794
1083.0,0.581
1084.0,0.5698
1085.0,0.5907
1086.0,0.5405
1087.0,0.5569
1088.0,0.5806
1089.0,0.5637
1090.0,0.5519
1091.0,0.579
1092.0,0.5774
1093.0,0.4922
1094.0,0.5286
1095.0,0.5125
1096.0,0.4915
1097.0,0.564
1098.0,0.4841
1099.0,0.5046
1100.0,0.4703
1101.0,0.4758
1102.0,0.4552
1103.0,0.4513
1104.0,0.4518
1105.0,0.4934
1106.0,0.382
1107.0,0.4695
1108.0,0.4007
1109.0,0.4009
1110.0,0.4658
1111.0,0.3196
1112.0,0.3977
1113.0,0.2569
1114.0,0.2867
1115.0,0.2378
1116.0,0.1921
1117.0,0.0729
1118.0,0.2082
1119.0,0.1052
1120.0,0.1325
1121.0,0.1747
1122.0,0.07512
1123.0,0.1197
1124.0,0.1011
1125.0,0.1314
1126.0,0.04729
1127.0,0.1481
1128.0,0.09026
1129.0,0.09553
1130.0,0.06353
1131.0,0.2767
1132.0,0.2179
1133.0,0.1402
1134.0,0.03709
1135.0,0.01384
1136.0,0.1177
1137.0,0.2725
1138.0,0.1925
1139.0,0.2829
1140.0,0.2379
1141.0,0.1829
1142.0,0.2096
1143.0,0.2958
1144.0,0.1054
1145.0,0.1352
1146.0,0.1459
1147.0,0.05292
1148.0,0.2561
1149.0,0.2058
1150.0,0.1132
1151.0,0.191
1152.0,0.2336
1153.0,0.2266
1154.0,0.1313
1155.0,0.2952
1156.0,0.2667
1157.0,0.2979
1158.0,0.2947
1159.0,0.3167
1160.0,0.272
1161.0,0.3324
1162.0,0.3343
1163.0,0.4463
1164.0,0.3848
1165.0,0.3648
1166.0,0.361
1167.0,0.3922
1168.0,0.3969
1169.0,0.4057
1170.0,0.4393
1171.0,0.4286
1172.0,0.4354
1173.0,0.4384
1174.0,0.3177
1175.0,0.4275
1176.0,0.4676
1177.0,0.4505
1178.0,0.3419
1179.0,0.4713
1180.0,0.4233
1181.0,0.4366
1182.0,0.3053
1183.0,0.4294
1184.0,0.4038
1185.0,0.3908
1186.0,0.4593
1187.0,0.4388
1188.0,0.3109
1189.0,0.409
1190.0,0.4489
1191.0,0.4284
1192.0,0.4549
1193.0,0.4367
1194.0,0.4496
1195.0,0.4268
1196.0,0.4121
1197.0,0.449
1198.0,0.412
1199.0,0.354
1200.0,0.4314
1201.0,0.4173
1202.0,0.4141
1203.0,0.4108
1204.0,0.3612
1205.0,0.4227
1206.0,0.4649
1207.0,0.4135
1208.0,0.4059
1209.0,0.414
1210.0,0.4304
1211.0,0.4113
1212.0,0.4081
1213.0,0.4505
1214.0,0.4171
1215.0,0.4095
1216.0,0.449
1217.0,0.4379
1218.0,0.4454
1219.0,0.4403
1220.0,0.4458
1221.0,0.4498
1222.0,0.4386
1223.0,0.4348
1224.0,0.4327
1225.0,0.447
1226.0,0.4495
1227.0,0.4166
1228.0,0.4514
1229.0,0.4496
1230.0,0.4423
1231.0,0.4537
1232.0,0.451
1233.0,0.4371
1234.0,0.453
1235.0,0.4503
1236.0,0.4534
1237.0,0.4478
1238.0,0.4519
1239.0,0.4461
1240.0,0.4478
1241.0,0.446
1242.0,0.4447
1243.0,0.4411
1244.0,0.4444
1245.0,0.4462
1246.0,0.4436
1247.0,0.442
1248.0,0.4419
1249.0,0.4431
1250.0,0.4405
1251.0,0.4351
1252.0,0.4349
1253.0,0.432
1254.0,0.428
1255.0,0.4346
1256.0,0.4234
1257.0,0.4213
1258.0,0.4284
1259.0,0.4144
1260.0,0.4164
1261.0,0.395
1262.0,0.3842
1263.0,0.385
1264.0,0.3577
1265.0,0.3825
1266.0,0.3694
1267.0,0.375
1268.0,0.3572
1269.0,0.2319
1270.0,0.374
1271.0,0.3935
1272.0,0.3945
1273.0,0.3906
1274.0,0.3916
1275.0,0.3969
1276.0,0.4003
1277.0,0.4026
1278.0,0.4095
1279.0,0.4059
1280.0,0.4007
1281.0,0.382
1282.0,0.3675
1283.0,0.3959
1284.0,0.4055
1285.0,0.4081
1286.0,0.4132
1287.0,0.4075
1288.0,0.4072
1289.0,0.3956
1290.0,0.4036
1291.0,0.409
1292.0,0.3865
1293.0,0.4016
1294.0,0.3989
1295.0,0.3975
1296.0,0.381
1297.0,0.3616
1298.0,0.3869
1299.0,0.4019
1300.0,0.3441
1301.0,0.3539
1302.0,0.3856
1303.0,0.3392
1304.0,0.2929
1305.0,0.3779
1306.0,0.3782
1307.0,0.298
1308.0,0.3392
1309.0,0.3757
1310.0,0.2925
1311.0,0.326
1312.0,0.3177
1313.0,0.3122
1314.0,0.2807
1315.0,0.2779
1316.0,0.3215
1317.0,0.3049
1318.0,0.3299
1319.0,0.2621
1320.0,0.253
1321.0,0.2933
1322.0,0.2969
1323.0,0.2267
1324.0,0.257
1325.0,0.3171
1326.0,0.2743
1327.0,0.2622
1328.0,0.2271
1329.0,0.1733
1330.0,0.2242
1331.0,0.1385
1332.0,0.142
1333.0,0.1968
1334.0,0.1653
1335.0,0.2259
1336.0,0.1803
1337.0,0.1603
1338.0,0.1734
1339.0,0.1722
1340.0,0.1667
1341.0,0.1646
1342.0,0.1728
1343.0,0.1207
1344.0,0.07212
1345.0,0.1037
1346.0,0.05392
1347.0,0.05524
1348.0,0.004027
1349.0,0.01399
1350.0,0.01419
1351.0,0.00383
1352.0,0.001158
1353.0,6.711e-05
1354.0,0.0002133
1355.0,2.231e-06
1356.0,3.311e-05
1357.0,5.027e-05
1358.0,2.615e-06
1359.0,4.004e-07
1360.0,1.282e-06
1361.0,2.171e-09
1362.0,7.129e-12
1363.0,1.836e-06
1364.0,7.712e-07
1365.0,3.132e-12
1366.0,7.621e-06
1367.0,3.027e-06
1368.0,3.781e-14
1369.0,2.918e-07
1370.0,1.562e-07
1371.0,9.84e-09
1372.0,1.666e-06
1373.0,2.947e-05
1374.0,0.0001253
1375.0,0.0002282
1376.0,0.0001911
1377.0,8.936e-05
1378.0,0.0008392
1379.0,3.771e-05
1380.0,5.734e-05
1381.0,1.587e-06
1382.0,1.538e-06
1383.0,2.493e-08
1384.0,3.409e-07
1385.0,1.329e-06
1386.0,1.451e-06
1387.0,0.000137
1388.0,2.728e-06
1389.0,0.0004219
1390.0,0.0003633
1391.0,0.0002474
1392.0,1.663e-05
1393.0,8.402e-05
1394.0,5.009e-05
1395.0,4.105e-07
1396.0,2.961e-09
1397.0,3.471e-05
1398.0,0.0009513
1399.0,0.0006027
1400.0,1.425e-09
1401.0,5.123e-09
1402.0,0.001491
1403.0,0.001915
1404.0,0.0005895
1405.0,2.145e-07
1406.0,0.001591
1407.0,0.0001374
1408.0,0.001294
1409.0,0.0004635
1410.0,0.0003567
1411.0,0.001678
1412.0,0.002196
1413.0,0.02072
1414.0,0.0002793
1415.0,0.0001383
1416.0,0.03258
1417.0,0.01029
1418.0,0.01178
1419.0,0.001848
1420.0,0.007222
1421.0,0.007819
1422.0,0.04241
1423.0,0.008329
1424.0,0.01551
1425.0,0.02298
1426.0,0.0257
1427.0,0.04642
1428.0,0.003817
1429.0,0.03509
1430.0,0.05889
1431.0,0.06448
1432.0,0.003016
1433.0,0.0413
1434.0,0.02115
1435.0,0.02162
1436.0,0.04098
1437.0,0.0314
1438.0,0.01346
1439.0,0.05542
1440.0,0.04154
1441.0,0.03199
1442.0,0.03543
1443.0,0.04401
1444.0,0.06075
1445.0,0.04791
1446.0,0.02166
1447.0,0.03411
1448.0,0.1131
1449.0,0.0985
1450.0,0.02528
1451.0,0.01023
1452.0,0.05957
1453.0,0.07807
1454.0,0.1333
1455.0,0.06312
1456.0,0.08496
1457.0,0.1136
1458.0,0.1336
1459.0,0.158
1460.0,0.08245
1461.0,0.08626
1462.0,0.1262
1463.0,0.04096
1464.0,0.1494
1465.0,0.09005
