interpolation:linear
wavelength,value
280.0,6.116e-22
280.5,1.5130000000000002e-20
281.0,7.446000000000001e-20
281.5,1.804e-18
282.0,1.231e-17
282.5,4.259e-17
283.0,1.676e-16
283.5,2.985e-16
284.0,5.803e-15
284.5,1.76e-14
285.0,3.586e-14
285.5,2.337e-13
286.0,1.026e-12
286.5,5.126e-12
287.0,1.558e-11
287.5,6.243e-11
288.0,2.374e-10
288.5,8.61e-10
289.0,2.625e-09
289.5,8.799e-09
290.0,2.62e-08
290.5,5.635e-08
291.0,1.268e-07
291.5,3.779e-07
292.0,8.84e-07
292.5,1.271e-06
293.0,2.781e-06
293.5,6.844e-06
294.0,1.089e-05
294.5,1.843e-05
295.0,3.088e-05
295.5,7.026e-05
296.0,0.0001212
296.5,0.0001516
297.0,0.0001873
297.5,0.0004378
298.0,0.0006145
298.5,0.0005657
299.0,0.001144
299.5,0.001626
300.0,0.001647
300.5,0.00219
301.0,0.003445
301.5,0.00485
302.0,0.00391
302.5,0.007179
303.0,0.01189
303.5,0.01424
304.0,0.01295
304.5,0.01756
305.0,0.0233
305.5,0.0246
306.0,0.02316
306.5,0.02745
307.0,0.03633
307.5,0.0434
308.0,0.04525
308.5,0.05087
309.0,0.04485
309.5,0.04863
310.0,0.04771
310.5,0.07655
311.0,0.09419
311.5,0.09037
312.0,0.08584
312.5,0.101
313.0,0.1079
313.5,0.1073
314.0,0.1285
314.5,0.1074
315.0,0.1402
315.5,0.1215
316.0,0.1012
316.5,0.1393
317.0,0.1739
317.5,0.1842
318.0,0.1398
318.5,0.1639
319.0,0.1893
319.5,0.1628
320.0,0.199
320.5,0.2348
321.0,0.1983
321.5,0.1898
322.0,0.2159
322.5,0.1879
323.0,0.1805
323.5,0.208
324.0,0.2419
324.5,0.2513
325.0,0.229
325.5,0.2862
326.0,0.337
326.5,0.3305
327.0,0.3336
327.5,0.3271
328.0,0.3021
328.5,0.3063
329.0,0.3568
329.5,0.4028
330.0,0.4108
330.5,0.3379
331.0,0.3483
331.5,0.3489
332.0,0.3687
332.5,0.3618
333.0,0.3645
333.5,0.3373
334.0,0.3478
334.5,0.3941
335.0,0.3671
335.5,0.417
336.0,0.2894
336.5,0.3528
337.0,0.293
337.5,0.3667
338.0,0.3531
338.5,0.3988
339.0,0.3979
339.5,0.3825
340.0,0.4614
340.5,0.4164
341.0,0.3997
341.5,0.3711
342.0,0.4457
342.5,0.4189
343.0,0.4601
343.5,0.4331
344.0,0.3256
344.5,0.3226
345.0,0.4325
345.5,0.4442
346.0,0.3792
346.5,0.431
347.0,0.4625
347.5,0.3744
348.0,0.4297
348.5,0.4315
349.0,0.4015
349.5,0.3983
350.0,0.494
350.5,0.5224
351.0,0.4672
351.5,0.4531
352.0,0.4894
352.5,0.3836
353.0,0.4848
353.5,0.5199
354.0,0.5414
354.5,0.5505
355.0,0.5498
355.5,0.4979
356.0,0.5223
356.5,0.4471
357.0,0.3704
357.5,0.4546
358.0,0.3612
358.5,0.3094
359.0,0.4338
359.5,0.5539
360.0,0.5887
360.5,0.4717
361.0,0.431
361.5,0.4971
362.0,0.4305
362.5,0.5968
363.0,0.5369
363.5,0.4954
364.0,0.607
364.5,0.5199
365.0,0.5306
365.5,0.6673
366.0,0.7083
366.5,0.6667
367.0,0.6505
367.5,0.6765
368.0,0.5931
368.5,0.5996
369.0,0.6487
369.5,0.6928
370.0,0.7399
370.5,0.5753
371.0,0.6158
371.5,0.772
372.0,0.5134
372.5,0.6167
373.0,0.6283
373.5,0.4095
374.0,0.5961
374.5,0.4945
375.0,0.4815
375.5,0.7203
376.0,0.5983
376.5,0.6212
377.0,0.6587
377.5,0.7719
378.0,0.8384
378.5,0.7941
379.0,0.6567
379.5,0.6011
380.0,0.6262
380.5,0.7597
381.0,0.7624
381.5,0.6053
382.0,0.5383
382.5,0.4596
383.0,0.4261
383.5,0.411
384.0,0.4541
384.5,0.669
385.0,0.6644
385.5,0.6197
386.0,0.5315
386.5,0.6992
387.0,0.582
387.5,0.6547
388.0,0.6055
388.5,0.5993
389.0,0.648
389.5,0.786
390.0,0.79
390.5,0.7281
391.0,0.8583
391.5,0.8769
392.0,0.7397
392.5,0.6631
393.0,0.3695
393.5,0.2689
394.0,0.5479
394.5,0.6975
395.0,0.8524
395.5,0.8672
396.0,0.7529
396.5,0.4406
397.0,0.3311
397.5,0.6743
398.0,0.9458
398.5,0.979
399.0,1.061
399.5,1.059
400.0,1.101
401.0,1.134
402.0,1.199
403.0,1.141
404.0,1.126
405.0,1.129
406.0,1.112
407.0,1.097
408.0,1.143
409.0,1.225
410.0,1.073
411.0,1.164
412.0,1.252
413.0,1.224
414.0,1.241
415.0,1.247
416.0,1.271
417.0,1.242
418.0,1.222
419.0,1.24
420.0,1.237
421.0,1.296
422.0,1.235
423.0,1.208
424.0,1.28
425.0,1.28
426.0,1.248
427.0,1.227
428.0,1.198
429.0,1.136
430.0,0.9953
431.0,0.9886
432.0,1.278
433.0,1.287
434.0,1.197
435.0,1.253
436.0,1.413
437.0,1.395
438.0,1.272
439.0,1.319
440.0,1.362
441.0,1.413
442.0,1.518
443.0,1.481
444.0,1.515
445.0,1.485
446.0,1.418
447.0,1.534
448.0,1.561
449.0,1.568
450.0,1.614
451.0,1.676
452.0,1.617
453.0,1.522
454.0,1.59
455.0,1.602
456.0,1.642
457.0,1.672
458.0,1.618
459.0,1.611
460.0,1.618
461.0,1.657
462.0,1.671
463.0,1.662
464.0,1.635
465.0,1.615
466.0,1.632
467.0,1.604
468.0,1.625
469.0,1.636
470.0,1.586
471.0,1.585
472.0,1.672
473.0,1.653
474.0,1.658
475.0,1.676
476.0,1.629
477.0,1.637
478.0,1.683
479.0,1.674
480.0,1.678
481.0,1.71
482.0,1.719
483.0,1.699
484.0,1.665
485.0,1.587
486.0,1.388
487.0,1.455
488.0,1.598
489.0,1.605
490.0,1.69
491.0,1.661
492.0,1.57
493.0,1.623
494.0,1.641
495.0,1.656
496.0,1.668
497.0,1.695
498.0,1.617
499.0,1.64
500.0,1.594
501.0,1.567
502.0,1.548
503.0,1.615
504.0,1.581
505.0,1.634
506.0,1.688
507.0,1.608
508.0,1.557
509.0,1.601
510.0,1.592
511.0,1.635
512.0,1.654
513.0,1.566
514.0,1.556
515.0,1.542
516.0,1.539
517.0,1.368
518.0,1.44
519.0,1.511
520.0,1.568
521.0,1.584
522.0,1.587
523.0,1.56
524.0,1.617
525.0,1.639
526.0,1.567
527.0,1.479
528.0,1.566
529.0,1.652
530.0,1.63
531.0,1.655
532.0,1.6
533.0,1.554
534.0,1.6
535.0,1.636
536.0,1.651
537.0,1.586
538.0,1.615
539.0,1.602
540.0,1.537
541.0,1.55
542.0,1.601
543.0,1.583
544.0,1.613
545.0,1.608
546.0,1.618
547.0,1.617
548.0,1.598
549.0,1.603
550.0,1.623
551.0,1.604
552.0,1.616
553.0,1.588
554.0,1.627
555.0,1.631
556.0,1.611
557.0,1.562
558.0,1.552
559.0,1.525
560.0,1.545
561.0,1.567
562.0,1.557
563.0,1.602
564.0,1.56
565.0,1.548
566.0,1.527
567.0,1.557
568.0,1.547
569.0,1.517
570.0,1.516
571.0,1.506
572.0,1.547
573.0,1.564
574.0,1.561
575.0,1.534
576.0,1.52
577.0,1.537
578.0,1.513
579.0,1.517
580.0,1.543
581.0,1.548
582.0,1.576
583.0,1.578
584.0,1.591
585.0,1.552
586.0,1.52
587.0,1.556
588.0,1.526
589.0,1.366
590.0,1.428
591.0,1.504
592.0,1.49
593.0,1.507
594.0,1.499
595.0,1.467
596.0,1.515
597.0,1.501
598.0,1.495
599.0,1.495
600.0,1.495
601.0,1.481
602.0,1.471
603.0,1.495
604.0,1.52
605.0,1.512
606.0,1.505
607.0,1.519
608.0,1.502
609.0,1.504
610.0,1.493
611.0,1.5
612.0,1.496
613.0,1.477
614.0,1.456
615.0,1.487
616.0,1.438
617.0,1.435
618.0,1.49
619.0,1.475
620.0,1.485
621.0,1.488
622.0,1.472
623.0,1.451
624.0,1.426
625.0,1.423
626.0,1.444
627.0,1.463
628.0,1.397
629.0,1.44
630.0,1.408
631.0,1.43
632.0,1.412
633.0,1.451
634.0,1.434
635.0,1.455
636.0,1.434
637.0,1.457
638.0,1.469
639.0,1.452
640.0,1.437
641.0,1.436
642.0,1.428
643.0,1.448
644.0,1.442
645.0,1.446
646.0,1.416
647.0,1.407
648.0,1.41
649.0,1.383
650.0,1.38
651.0,1.438
652.0,1.39
653.0,1.42
654.0,1.403
655.0,1.357
656.0,1.199
657.0,1.231
658.0,1.377
659.0,1.385
660.0,1.391
661.0,1.401
662.0,1.406
663.0,1.378
664.0,1.391
665.0,1.391
666.0,1.391
667.0,1.389
668.0,1.389
669.0,1.41
670.0,1.404
671.0,1.403
672.0,1.391
673.0,1.412
674.0,1.406
675.0,1.393
676.0,1.403
677.0,1.389
678.0,1.393
679.0,1.37
680.0,1.381
681.0,1.372
682.0,1.371
683.0,1.368
684.0,1.362
685.0,1.373
686.0,1.366
687.0,1.037
688.0,1.152
689.0,1.154
690.0,1.19
691.0,1.229
692.0,1.256
693.0,1.248
694.0,1.239
695.0,1.274
696.0,1.277
697.0,1.335
698.0,1.314
699.0,1.296
700.0,1.281
701.0,1.272
702.0,1.276
703.0,1.279
704.0,1.312
705.0,1.314
706.0,1.31
707.0,1.311
708.0,1.314
709.0,1.311
710.0,1.314
711.0,1.311
712.0,1.305
713.0,1.294
714.0,1.298
715.0,1.262
716.0,1.265
717.0,1.145
718.0,1.062
719.0,0.9788
720.0,1.028
721.0,1.104
722.0,1.23
723.0,1.163
724.0,1.068
725.0,1.058
726.0,1.103
727.0,1.108
728.0,1.057
729.0,1.079
730.0,1.141
731.0,1.098
732.0,1.156
733.0,1.206
734.0,1.23
735.0,1.207
736.0,1.205
737.0,1.211
738.0,1.218
739.0,1.195
740.0,1.223
741.0,1.209
742.0,1.208
743.0,1.238
744.0,1.234
745.0,1.233
746.0,1.239
747.0,1.241
748.0,1.239
749.0,1.225
750.0,1.224
751.0,1.212
752.0,1.217
753.0,1.223
754.0,1.226
755.0,1.219
756.0,1.219
757.0,1.221
758.0,1.206
759.0,1.188
760.0,0.3468
761.0,0.222
762.0,0.7452
763.0,0.4644
764.0,0.6144
765.0,0.746
766.0,0.8482
767.0,1.006
768.0,1.112
769.0,1.125
770.0,1.151
771.0,1.155
772.0,1.156
773.0,1.164
774.0,1.158
775.0,1.149
776.0,1.163
777.0,1.148
778.0,1.141
779.0,1.142
780.0,1.136
781.0,1.137
782.0,1.144
783.0,1.124
784.0,1.129
785.0,1.121
786.0,1.134
787.0,1.12
788.0,1.108
789.0,1.109
790.0,1.087
791.0,1.089
792.0,1.08
793.0,1.064
794.0,1.074
795.0,1.094
796.0,1.071
797.0,1.073
798.0,1.094
799.0,1.09
800.0,1.073
801.0,1.072
802.0,1.069
803.0,1.062
804.0,1.062
805.0,1.056
806.0,1.081
807.0,1.07
808.0,1.07
809.0,1.054
810.0,1.048
811.0,1.054
812.0,1.031
813.0,1.014
814.0,0.9174
815.0,0.9112
816.0,0.8523
817.0,0.8646
818.0,0.8379
819.0,0.9146
820.0,0.8703
821.0,0.9875
822.0,0.9644
823.0,0.7047
824.0,0.9463
825.0,0.9725
826.0,0.9445
827.0,0.9872
828.0,0.8639
829.0,0.9372
830.0,0.9279
831.0,0.9301
832.0,0.9066
833.0,0.9503
834.0,0.9257
835.0,0.9981
836.0,0.9671
837.0,1.0
838.0,0.9742
839.0,0.9843
840.0,1.005
841.0,0.9926
842.0,0.9915
843.0,0.9875
844.0,0.9758
845.0,1.006
846.0,1.001
847.0,0.9817
848.0,0.9772
849.0,0.9495
850.0,0.9096
851.0,0.9647
852.0,0.9573
853.0,0.9203
854.0,0.7957
855.0,0.8727
856.0,0.9545
857.0,0.9748
858.0,0.9681
859.0,0.9684
860.0,0.9697
861.0,0.9646
862.0,0.9796
863.0,1.003
864.0,0.9526
865.0,0.9443
866.0,0.8491
867.0,0.8861
868.0,0.9643
869.0,0.9443
870.0,0.9712
871.0,0.958
872.0,0.9546
873.0,0.9528
874.0,0.9415
875.0,0.9225
876.0,0.9323
877.0,0.9417
878.0,0.9522
879.0,0.9375
880.0,0.9175
881.0,0.9045
882.0,0.9244
883.0,0.9267
884.0,0.9227
885.0,0.9298
886.0,0.8888
887.0,0.8963
888.0,0.9109
889.0,0.9189
890.0,0.914
891.0,0.9111
892.0,0.8883
893.0,0.8652
894.0,0.8432
895.0,0.8077
896.0,0.7666
897.0,0.6742
898.0,0.7264
899.0,0.5723
900.0,0.7346
901.0,0.5986
902.0,0.6771
903.0,0.6918
904.0,0.8374
905.0,0.8136
906.0,0.7656
907.0,0.645
908.0,0.6548
909.0,0.698
910.0,0.6372
911.0,0.6675
912.0,0.6928
913.0,0.6476
914.0,0.6388
915.0,0.6896
916.0,0.5909
917.0,0.7268
918.0,0.6063
919.0,0.7354
920.0,0.7335
921.0,0.7599
922.0,0.6936
923.0,0.7335
924.0,0.7114
925.0,0.6966
926.0,0.7039
927.0,0.7744
928.0,0.6072
929.0,0.565
930.0,0.4617
931.0,0.4343
932.0,0.3305
933.0,0.279
934.0,0.1748
935.0,0.277
936.0,0.1865
937.0,0.1912
938.0,0.2295
939.0,0.421
940.0,0.4942
941.0,0.3899
942.0,0.4402
943.0,0.3031
944.0,0.3077
945.0,0.3992
946.0,0.2217
947.0,0.4055
948.0,0.3015
949.0,0.5242
950.0,0.1757
951.0,0.5131
952.0,0.3006
953.0,0.3719
954.0,0.4383
955.0,0.3741
956.0,0.3563
957.0,0.3036
958.0,0.4787
959.0,0.3989
960.0,0.4463
961.0,0.4869
962.0,0.4628
963.0,0.5211
964.0,0.4818
965.0,0.5175
966.0,0.5208
967.0,0.5196
968.0,0.6555
969.0,0.687
970.0,0.6372
971.0,0.7115
972.0,0.684
973.0,0.6135
974.0,0.5853
975.0,0.6003
976.0,0.5793
977.0,0.6409
978.0,0.6166
979.0,0.6398
980.0,0.6057
981.0,0.7067
982.0,0.6821
983.0,0.6588
984.0,0.7213
985.0,0.6794
986.0,0.7298
987.0,0.7199
988.0,0.7187
989.0,0.7251
990.0,0.714
991.0,0.7279
992.0,0.7316
993.0,0.7197
994.0,0.731
995.0,0.7295
996.0,0.727
997.0,0.7277
998.0,0.7246
999.0,0.7218
1000.0,0.7177
1001.0,0.7255
1002.0,0.7099
1003.0,0.713
1004.0,0.6967
1005.0,0.6697
1006.0,0.6967
1007.0,0.711
1008.0,0.708
1009.0,0.7051
1010.0,0.7026
1011.0,0.7074
1012.0,0.7022
1013.0,0.7055
1014.0,0.7006
1015.0,0.6961
1016.0,0.6931
1017.0,0.695
1018.0,0.6919
1019.0,0.6788
1020.0,0.6886
1021.0,0.6874
1022.0,0.6827
1023.0,0.69
1024.0,0.6827
1025.0,0.689
1026.0,0.6865
1027.0,0.6849
1028.0,0.6836
1029.0,0.6757
1030.0,0.6797
1031.0,0.6773
1032.0,0.6751
1033.0,0.665
1034.0,0.665
1035.0,0.6671
1036.0,0.6708
1037.0,0.6598
1038.0,0.6628
1039.0,0.6626
1040.0,0.6599
1041.0,0.6627
1042.0,0.6581
1043.0,0.6562
1044.0,0.6586
1045.0,0.6497
1046.0,0.6427
1047.0,0.6486
1048.0,0.6523
1049.0,0.6501
1050.0,0.6473
1051.0,0.6465
1052.0,0.6441
1053.0,0.6392
1054.0,0.6408
1055.0,0.6414
1056.0,0.6394
1057.0,0.6377
1058.0,0.6222
1059.0,0.6232
1060.0,0.6224
1061.0,0.6218
1062.0,0.6253
1063.0,0.6194
1064.0,0.6266
1065.0,0.6227
1066.0,0.61
1067.0,0.6181
1068.0,0.605
1069.0,0.586
1070.0,0.6064
1071.0,0.6143
1072.0,0.6084
1073.0,0.5994
1074.0,0.6133
1075.0,0.5871
1076.0,0.613
1077.0,0.6047
1078.0,0.5942
1079.0,0.6026
1080.0,0.5955
1081.0,0.5785
1082.0,0.584
1083.0,0.5848
1084.0,0.5785
1085.0,0.5964
1086.0,0.5518
1087.0,0.5639
1088.0,0.5851
1089.0,0.5715
1090.0,0.5621
1091.0,0.5845
1092.0,0.582
1093.0,0.5071
1094.0,0.5342
1095.0,0.5261
1096.0,0.508
1097.0,0.5684
1098.0,0.5014
1099.0,0.5208
1100.0,0.4906
1101.0,0.4948
1102.0,0.4763
1103.0,0.4744
1104.0,0.4747
1105.0,0.5103
1106.0,0.4142
1107.0,0.4893
1108.0,0.4293
1109.0,0.4273
1110.0,0.4867
1111.0,0.3501
1112.0,0.4229
1113.0,0.2903
1114.0,0.3216
1115.0,0.2673
1116.0,0.2268
1117.0,0.09915
1118.0,0.2414
1119.0,0.132
1120.0,0.1661
1121.0,0.2125
1122.0,0.1002
1123.0,0.1498
1124.0,0.1266
1125.0,0.1622
1126.0,0.06738
1127.0,0.182
1128.0,0.1205
1129.0,0.1259
1130.0,0.08854
1131.0,0.3184
1132.0,0.2549
1133.0,0.1756
1134.0,0.05449
1135.0,0.02005
1136.0,0.1516
1137.0,0.3165
1138.0,0.2266
1139.0,0.3122
1140.0,0.2707
1141.0,0.2153
1142.0,0.242
1143.0,0.333
1144.0,0.1301
1145.0,0.1689
1146.0,0.1823
1147.0,0.07578
1148.0,0.2885
1149.0,0.2385
1150.0,0.1395
1151.0,0.225
1152.0,0.2675
1153.0,0.2537
1154.0,0.1666
1155.0,0.3261
1156.0,0.2985
1157.0,0.3281
1158.0,0.3242
1159.0,0.343
1160.0,0.3015
1161.0,0.3566
1162.0,0.3594
1163.0,0.4611
1164.0,0.4046
1165.0,0.3898
1166.0,0.3817
1167.0,0.4111
1168.0,0.4172
1169.0,0.4239
1170.0,0.4538
1171.0,0.4438
1172.0,0.4479
1173.0,0.4529
1174.0,0.3432
1175.0,0.4397
1176.0,0.4742
1177.0,0.461
1178.0,0.3613
1179.0,0.4776
1180.0,0.4366
1181.0,0.4494
1182.0,0.3264
1183.0,0.4402
1184.0,0.4179
1185.0,0.4078
1186.0,0.468
1187.0,0.4505
1188.0,0.3331
1189.0,0.4209
1190.0,0.4575
1191.0,0.4422
1192.0,0.4629
1193.0,0.4465
1194.0,0.4582
1195.0,0.4389
1196.0,0.4264
1197.0,0.4553
1198.0,0.4212
1199.0,0.3712
1200.0,0.4414
1201.0,0.4301
1202.0,0.4252
1203.0,0.4217
1204.0,0.3763
1205.0,0.4313
1206.0,0.469
1207.0,0.4253
1208.0,0.4148
1209.0,0.4223
1210.0,0.437
1211.0,0.4212
1212.0,0.4214
1213.0,0.4563
1214.0,0.4288
1215.0,0.4221
1216.0,0.4546
1217.0,0.4451
1218.0,0.4512
1219.0,0.4468
1220.0,0.4513
1221.0,0.4545
1222.0,0.4442
1223.0,0.4411
1224.0,0.4401
1225.0,0.4517
1226.0,0.4532
1227.0,0.4244
1228.0,0.4542
1229.0,0.4532
1230.0,0.4467
1231.0,0.4554
1232.0,0.4529
1233.0,0.4423
1234.0,0.454
1235.0,0.4519
1236.0,0.4546
1237.0,0.4502
1238.0,0.453
1239.0,0.4473
1240.0,0.4487
1241.0,0.4478
1242.0,0.4458
1243.0,0.4421
1244.0,0.4456
1245.0,0.4473
1246.0,0.4447
1247.0,0.4433
1248.0,0.4436
1249.0,0.4444
1250.0,0.4421
1251.0,0.4372
1252.0,0.4363
1253.0,0.4345
1254.0,0.4315
1255.0,0.4363
1256.0,0.4273
1257.0,0.4256
1258.0,0.431
1259.0,0.4203
1260.0,0.4219
1261.0,0.4045
1262.0,0.3957
1263.0,0.3966
1264.0,0.3739
1265.0,0.3939
1266.0,0.3837
1267.0,0.3872
1268.0,0.3723
1269.0,0.2671
1270.0,0.3871
1271.0,0.4024
1272.0,0.403
1273.0,0.3994
1274.0,0.3998
1275.0,0.4044
1276.0,0.4071
1277.0,0.4084
1278.0,0.4136
1279.0,0.4101
1280.0,0.4048
1281.0,0.3851
1282.0,0.3692
1283.0,0.398
1284.0,0.4079
1285.0,0.4103
1286.0,0.4148
1287.0,0.4104
1288.0,0.4098
1289.0,0.4006
1290.0,0.4059
1291.0,0.4108
1292.0,0.3933
1293.0,0.4047
1294.0,0.4022
1295.0,0.402
1296.0,0.3886
1297.0,0.3716
1298.0,0.3923
1299.0,0.4045
1300.0,0.3558
1301.0,0.3639
1302.0,0.3907
1303.0,0.3497
1304.0,0.311
1305.0,0.3838
1306.0,0.3845
1307.0,0.3133
1308.0,0.3483
1309.0,0.3825
1310.0,0.3079
1311.0,0.3367
1312.0,0.3297
1313.0,0.3252
1314.0,0.2958
1315.0,0.2948
1316.0,0.3335
1317.0,0.3174
1318.0,0.3397
1319.0,0.2809
1320.0,0.2688
1321.0,0.3078
1322.0,0.313
1323.0,0.2484
1324.0,0.2754
1325.0,0.3294
1326.0,0.2909
1327.0,0.2795
1328.0,0.2452
1329.0,0.1952
1330.0,0.2482
1331.0,0.1639
1332.0,0.1643
1333.0,0.2247
1334.0,0.1852
1335.0,0.2472
1336.0,0.2023
1337.0,0.1834
1338.0,0.1976
1339.0,0.1951
1340.0,0.1863
1341.0,0.1896
1342.0,0.1987
1343.0,0.1521
1344.0,0.09098
1345.0,0.1286
1346.0,0.07656
1347.0,0.07992
1348.0,0.008308
1349.0,0.0258
1350.0,0.02422
1351.0,0.008905
1352.0,0.003606
1353.0,0.0003089
1354.0,0.000783
1355.0,1.71e-05
1356.0,0.0001583
1357.0,0.0002362
1358.0,1.947e-05
1359.0,4.993e-06
1360.0,1.149e-05
1361.0,6.172e-08
1362.0,3.547e-10
1363.0,1.793e-05
1364.0,8.267e-06
1365.0,2.758e-10
1366.0,6.429e-05
1367.0,2.483e-05
1368.0,1.077e-11
1369.0,3.286e-06
1370.0,2.177e-06
1371.0,1.873e-07
1372.0,1.385e-05
1373.0,0.0001657
1374.0,0.0005463
1375.0,0.0009657
1376.0,0.000694
1377.0,0.0003469
1378.0,0.002772
1379.0,0.0001501
1380.0,0.0002595
1381.0,8.823e-06
1382.0,1.354e-05
1383.0,2.878e-07
1384.0,4.139e-06
1385.0,9.346e-06
1386.0,1.466e-05
1387.0,0.0006635
1388.0,1.486e-05
1389.0,0.001595
1390.0,0.001356
1391.0,0.0009976
1392.0,7.698e-05
1393.0,0.0003329
1394.0,0.0002849
1395.0,3.381e-06
1396.0,7.283e-08
1397.0,0.0001533
1398.0,0.003178
1399.0,0.002033
1400.0,4.638e-08
1401.0,1.129e-07
1402.0,0.003693
1403.0,0.004986
1404.0,0.001579
1405.0,2.133e-06
1406.0,0.004611
1407.0,0.0003981
1408.0,0.003712
1409.0,0.001596
1410.0,0.00114
1411.0,0.004333
1412.0,0.005197
1413.0,0.03609
1414.0,0.0008782
1415.0,0.0004791
1416.0,0.04906
1417.0,0.01887
1418.0,0.02145
1419.0,0.003564
1420.0,0.01332
1421.0,0.01488
1422.0,0.06265
1423.0,0.01335
1424.0,0.02403
1425.0,0.03643
1426.0,0.03809
1427.0,0.06224
1428.0,0.008053
1429.0,0.04981
1430.0,0.07696
1431.0,0.08254
1432.0,0.006477
1433.0,0.05546
1434.0,0.02973
1435.0,0.03479
1436.0,0.05881
1437.0,0.04526
1438.0,0.02149
1439.0,0.07626
1440.0,0.05776
1441.0,0.0478
1442.0,0.05192
1443.0,0.05949
1444.0,0.08028
1445.0,0.06721
1446.0,0.03163
1447.0,0.04994
1448.0,0.1358
1449.0,0.1224
1450.0,0.03696
1451.0,0.01614
1452.0,0.07791
1453.0,0.09951
1454.0,0.1556
1455.0,0.07912
1456.0,0.1087
1457.0,0.1365
1458.0,0.1524
1459.0,0.1815
1460.0,0.09935
1461.0,0.1073
1462.0,0.15
1463.0,0.05386
1464.0,0.1707
1465.0,0.1043
1466.0,0.08151
1467.0,0.04745
