interpolation:linear
wavelength,value
280.0,4.935e-21
280.5,1.069e-19
281.0,5.013e-19
281.5,1.068e-17
282.0,6.743e-17
282.5,2.213e-16
283.0,8.218e-16
283.5,1.422e-15
284.0,2.418e-14
284.5,6.898e-14
285.0,1.316e-13
285.5,7.936e-13
286.0,3.374e-12
286.5,1.581e-11
287.0,4.58e-11
287.5,1.724e-10
288.0,6.059e-10
288.5,2.108e-09
289.0,6.155e-09
289.5,1.967e-08
290.0,5.634e-08
290.5,1.173e-07
291.0,2.538e-07
291.5,7.198e-07
292.0,1.617e-06
292.5,2.272e-06
293.0,4.827e-06
293.5,1.141e-05
294.0,1.768e-05
294.5,2.933e-05
295.0,4.788e-05
295.5,0.0001056
296.0,0.0001781
296.5,0.0002183
297.0,0.0002654
297.5,0.0006064
298.0,0.0008356
298.5,0.0007588
299.0,0.001515
299.5,0.00211
300.0,0.002115
300.5,0.002782
301.0,0.004311
301.5,0.005994
302.0,0.004804
302.5,0.008727
303.0,0.01427
303.5,0.01697
304.0,0.01537
304.5,0.02067
305.0,0.02712
305.5,0.02844
306.0,0.0267
306.5,0.03152
307.0,0.04137
307.5,0.04905
308.0,0.05105
308.5,0.05719
309.0,0.05027
309.5,0.05409
310.0,0.05288
310.5,0.08468
311.0,0.1039
311.5,0.09952
312.0,0.09401
312.5,0.1102
313.0,0.1175
313.5,0.1169
314.0,0.1396
314.5,0.1161
315.0,0.1513
315.5,0.1314
316.0,0.1089
316.5,0.1495
317.0,0.1866
317.5,0.1976
318.0,0.1497
318.5,0.1748
319.0,0.2015
319.5,0.1737
320.0,0.2124
320.5,0.2496
321.0,0.2101
321.5,0.201
322.0,0.2292
322.5,0.1994
323.0,0.1911
323.5,0.2195
324.0,0.255
324.5,0.2652
325.0,0.2421
325.5,0.302
326.0,0.3548
326.5,0.3474
327.0,0.3507
327.5,0.344
328.0,0.3182
328.5,0.3218
329.0,0.3743
329.5,0.4222
330.0,0.4306
330.5,0.3544
331.0,0.3654
331.5,0.3656
332.0,0.3858
332.5,0.3784
333.0,0.3811
333.5,0.3529
334.0,0.3638
334.5,0.4118
335.0,0.3833
335.5,0.4352
336.0,0.3019
336.5,0.3682
337.0,0.3057
337.5,0.3826
338.0,0.3681
338.5,0.4155
339.0,0.4145
339.5,0.3983
340.0,0.4805
340.5,0.4336
341.0,0.4159
341.5,0.3861
342.0,0.4635
342.5,0.4355
343.0,0.4783
343.5,0.4502
344.0,0.3385
344.5,0.3352
345.0,0.4492
345.5,0.4611
346.0,0.3936
346.5,0.4472
347.0,0.4798
347.5,0.3884
348.0,0.4456
348.5,0.4474
349.0,0.4162
349.5,0.4128
350.0,0.5118
350.5,0.5411
351.0,0.4839
351.5,0.4693
352.0,0.5067
352.5,0.397
353.0,0.5016
353.5,0.5379
354.0,0.56
354.5,0.5694
355.0,0.5685
355.5,0.5147
356.0,0.5398
356.5,0.462
357.0,0.3827
357.5,0.4697
358.0,0.3731
358.5,0.3196
359.0,0.448
359.5,0.5719
360.0,0.6077
360.5,0.4869
361.0,0.4447
361.5,0.5128
362.0,0.444
362.5,0.6154
363.0,0.5535
363.5,0.5107
364.0,0.6256
364.5,0.5357
365.0,0.5466
365.5,0.6873
366.0,0.7294
366.5,0.6864
367.0,0.6697
367.5,0.6963
368.0,0.6104
368.5,0.6169
369.0,0.6674
369.5,0.7126
370.0,0.761
370.5,0.5916
371.0,0.6331
371.5,0.7936
372.0,0.5277
372.5,0.6338
373.0,0.6456
373.5,0.4207
374.0,0.6123
374.5,0.5078
375.0,0.4945
375.5,0.7396
376.0,0.6142
376.5,0.6377
377.0,0.6761
377.5,0.7922
378.0,0.8603
378.5,0.8147
379.0,0.6737
379.5,0.6166
380.0,0.6423
380.5,0.779
381.0,0.7817
381.5,0.6205
382.0,0.5518
382.5,0.471
383.0,0.4366
383.5,0.4211
384.0,0.4652
384.5,0.6852
385.0,0.6804
385.5,0.6345
386.0,0.5442
386.5,0.7157
387.0,0.5957
387.5,0.6701
388.0,0.6196
388.5,0.6133
389.0,0.663
389.5,0.8041
390.0,0.808
390.5,0.7447
391.0,0.8777
391.5,0.8966
392.0,0.7563
392.5,0.6779
393.0,0.3776
393.5,0.2748
394.0,0.5599
394.5,0.7127
395.0,0.8708
395.5,0.8859
396.0,0.769
396.5,0.45
397.0,0.3381
397.5,0.6885
398.0,0.9657
398.5,0.9994
399.0,1.083
399.5,1.081
400.0,1.124
401.0,1.157
402.0,1.223
403.0,1.164
404.0,1.148
405.0,1.151
406.0,1.134
407.0,1.118
408.0,1.164
409.0,1.248
410.0,1.093
411.0,1.185
412.0,1.275
413.0,1.246
414.0,1.263
415.0,1.269
416.0,1.293
417.0,1.264
418.0,1.243
419.0,1.261
420.0,1.258
421.0,1.318
422.0,1.255
423.0,1.228
424.0,1.301
425.0,1.301
426.0,1.268
427.0,1.246
428.0,1.216
429.0,1.153
430.0,1.01
431.0,1.004
432.0,1.297
433.0,1.306
434.0,1.215
435.0,1.271
436.0,1.433
437.0,1.415
438.0,1.29
439.0,1.337
440.0,1.381
441.0,1.432
442.0,1.538
443.0,1.501
444.0,1.535
445.0,1.505
446.0,1.437
447.0,1.554
448.0,1.582
449.0,1.588
450.0,1.634
451.0,1.697
452.0,1.637
453.0,1.541
454.0,1.61
455.0,1.622
456.0,1.662
457.0,1.692
458.0,1.637
459.0,1.63
460.0,1.637
461.0,1.676
462.0,1.69
463.0,1.681
464.0,1.653
465.0,1.633
466.0,1.65
467.0,1.622
468.0,1.643
469.0,1.654
470.0,1.603
471.0,1.602
472.0,1.69
473.0,1.67
474.0,1.676
475.0,1.693
476.0,1.646
477.0,1.654
478.0,1.701
479.0,1.691
480.0,1.695
481.0,1.727
482.0,1.736
483.0,1.715
484.0,1.681
485.0,1.602
486.0,1.401
487.0,1.469
488.0,1.613
489.0,1.62
490.0,1.705
491.0,1.677
492.0,1.585
493.0,1.638
494.0,1.655
495.0,1.671
496.0,1.682
497.0,1.71
498.0,1.631
499.0,1.654
500.0,1.608
501.0,1.581
502.0,1.562
503.0,1.629
504.0,1.595
505.0,1.648
506.0,1.703
507.0,1.622
508.0,1.57
509.0,1.614
510.0,1.606
511.0,1.649
512.0,1.667
513.0,1.579
514.0,1.569
515.0,1.554
516.0,1.552
517.0,1.379
518.0,1.451
519.0,1.523
520.0,1.58
521.0,1.596
522.0,1.599
523.0,1.572
524.0,1.63
525.0,1.652
526.0,1.579
527.0,1.49
528.0,1.578
529.0,1.665
530.0,1.643
531.0,1.668
532.0,1.612
533.0,1.566
534.0,1.613
535.0,1.648
536.0,1.664
537.0,1.598
538.0,1.627
539.0,1.614
540.0,1.549
541.0,1.562
542.0,1.613
543.0,1.595
544.0,1.625
545.0,1.62
546.0,1.63
547.0,1.629
548.0,1.609
549.0,1.615
550.0,1.634
551.0,1.615
552.0,1.627
553.0,1.599
554.0,1.638
555.0,1.643
556.0,1.623
557.0,1.574
558.0,1.563
559.0,1.536
560.0,1.556
561.0,1.578
562.0,1.569
563.0,1.613
564.0,1.571
565.0,1.559
566.0,1.538
567.0,1.569
568.0,1.559
569.0,1.529
570.0,1.528
571.0,1.518
572.0,1.559
573.0,1.577
574.0,1.573
575.0,1.546
576.0,1.533
577.0,1.549
578.0,1.525
579.0,1.529
580.0,1.554
581.0,1.56
582.0,1.587
583.0,1.589
584.0,1.602
585.0,1.562
586.0,1.531
587.0,1.567
588.0,1.537
589.0,1.378
590.0,1.44
591.0,1.515
592.0,1.502
593.0,1.518
594.0,1.511
595.0,1.479
596.0,1.526
597.0,1.512
598.0,1.505
599.0,1.506
600.0,1.505
601.0,1.491
602.0,1.481
603.0,1.505
604.0,1.53
605.0,1.522
606.0,1.515
607.0,1.529
608.0,1.511
609.0,1.513
610.0,1.502
611.0,1.509
612.0,1.505
613.0,1.486
614.0,1.465
615.0,1.496
616.0,1.446
617.0,1.443
618.0,1.499
619.0,1.484
620.0,1.494
621.0,1.496
622.0,1.48
623.0,1.459
624.0,1.434
625.0,1.431
626.0,1.453
627.0,1.472
628.0,1.408
629.0,1.449
630.0,1.417
631.0,1.439
632.0,1.42
633.0,1.459
634.0,1.442
635.0,1.463
636.0,1.442
637.0,1.464
638.0,1.476
639.0,1.459
640.0,1.444
641.0,1.442
642.0,1.435
643.0,1.454
644.0,1.449
645.0,1.452
646.0,1.422
647.0,1.415
648.0,1.418
649.0,1.391
650.0,1.387
651.0,1.445
652.0,1.398
653.0,1.426
654.0,1.409
655.0,1.363
656.0,1.204
657.0,1.236
658.0,1.382
659.0,1.391
660.0,1.396
661.0,1.406
662.0,1.412
663.0,1.383
664.0,1.397
665.0,1.396
666.0,1.396
667.0,1.394
668.0,1.393
669.0,1.415
670.0,1.408
671.0,1.408
672.0,1.395
673.0,1.416
674.0,1.411
675.0,1.398
676.0,1.407
677.0,1.393
678.0,1.397
679.0,1.374
680.0,1.385
681.0,1.376
682.0,1.375
683.0,1.372
684.0,1.366
685.0,1.377
686.0,1.37
687.0,1.054
688.0,1.164
689.0,1.166
690.0,1.2
691.0,1.238
692.0,1.263
693.0,1.255
694.0,1.246
695.0,1.28
696.0,1.283
697.0,1.339
698.0,1.319
699.0,1.302
700.0,1.287
701.0,1.278
702.0,1.282
703.0,1.284
704.0,1.317
705.0,1.319
706.0,1.315
707.0,1.315
708.0,1.318
709.0,1.315
710.0,1.318
711.0,1.314
712.0,1.308
713.0,1.297
714.0,1.302
715.0,1.266
716.0,1.269
717.0,1.154
718.0,1.071
719.0,0.9883
720.0,1.038
721.0,1.112
722.0,1.235
723.0,1.169
724.0,1.076
725.0,1.067
726.0,1.111
727.0,1.116
728.0,1.066
729.0,1.087
730.0,1.148
731.0,1.106
732.0,1.162
733.0,1.21
734.0,1.234
735.0,1.211
736.0,1.21
737.0,1.215
738.0,1.222
739.0,1.198
740.0,1.226
741.0,1.211
742.0,1.21
743.0,1.241
744.0,1.236
745.0,1.235
746.0,1.241
747.0,1.244
748.0,1.241
749.0,1.227
750.0,1.226
751.0,1.214
752.0,1.219
753.0,1.225
754.0,1.228
755.0,1.222
756.0,1.221
757.0,1.223
758.0,1.208
759.0,1.191
760.0,0.3675
761.0,0.24
762.0,0.7621
763.0,0.4856
764.0,0.6342
765.0,0.763
766.0,0.8609
767.0,1.015
768.0,1.117
769.0,1.128
770.0,1.153
771.0,1.157
772.0,1.158
773.0,1.166
774.0,1.16
775.0,1.151
776.0,1.165
777.0,1.149
778.0,1.143
779.0,1.144
780.0,1.137
781.0,1.138
782.0,1.146
783.0,1.126
784.0,1.131
785.0,1.123
786.0,1.136
787.0,1.122
788.0,1.111
789.0,1.111
790.0,1.09
791.0,1.092
792.0,1.083
793.0,1.066
794.0,1.076
795.0,1.096
796.0,1.074
797.0,1.075
798.0,1.096
799.0,1.092
800.0,1.076
801.0,1.075
802.0,1.071
803.0,1.065
804.0,1.065
805.0,1.059
806.0,1.083
807.0,1.072
808.0,1.072
809.0,1.056
810.0,1.05
811.0,1.057
812.0,1.034
813.0,1.018
814.0,0.9238
815.0,0.9176
816.0,0.8589
817.0,0.8708
818.0,0.8445
819.0,0.9194
820.0,0.8758
821.0,0.9905
822.0,0.9679
823.0,0.7131
824.0,0.9508
825.0,0.9757
826.0,0.9486
827.0,0.9904
828.0,0.8697
829.0,0.941
830.0,0.9321
831.0,0.9341
832.0,0.9111
833.0,0.9533
834.0,0.9296
835.0,1.0
836.0,0.9704
837.0,1.002
838.0,0.9767
839.0,0.9862
840.0,1.006
841.0,0.9946
842.0,0.9931
843.0,0.9888
844.0,0.9773
845.0,1.007
846.0,1.002
847.0,0.9827
848.0,0.9784
849.0,0.9507
850.0,0.9106
851.0,0.966
852.0,0.9585
853.0,0.9213
854.0,0.7967
855.0,0.8737
856.0,0.9555
857.0,0.9758
858.0,0.9691
859.0,0.9693
860.0,0.9706
861.0,0.9655
862.0,0.9805
863.0,1.004
864.0,0.9535
865.0,0.9451
866.0,0.8498
867.0,0.8869
868.0,0.9651
869.0,0.9451
870.0,0.972
871.0,0.9589
872.0,0.9555
873.0,0.9536
874.0,0.9423
875.0,0.9233
876.0,0.9331
877.0,0.9425
878.0,0.953
879.0,0.9384
880.0,0.9183
881.0,0.9054
882.0,0.9253
883.0,0.9275
884.0,0.9236
885.0,0.9306
886.0,0.8899
887.0,0.8972
888.0,0.9119
889.0,0.9197
890.0,0.9151
891.0,0.9121
892.0,0.8896
893.0,0.867
894.0,0.846
895.0,0.8116
896.0,0.7711
897.0,0.6801
898.0,0.7316
899.0,0.579
900.0,0.7388
901.0,0.6054
902.0,0.6816
903.0,0.6973
904.0,0.8401
905.0,0.8169
906.0,0.7693
907.0,0.6509
908.0,0.6605
909.0,0.7026
910.0,0.6439
911.0,0.6732
912.0,0.6979
913.0,0.6545
914.0,0.6452
915.0,0.696
916.0,0.5976
917.0,0.7318
918.0,0.613
919.0,0.74
920.0,0.7371
921.0,0.763
922.0,0.6983
923.0,0.7365
924.0,0.7161
925.0,0.7014
926.0,0.7086
927.0,0.7779
928.0,0.615
929.0,0.5735
930.0,0.4711
931.0,0.4426
932.0,0.3391
933.0,0.2877
934.0,0.1832
935.0,0.2845
936.0,0.1934
937.0,0.1986
938.0,0.2376
939.0,0.429
940.0,0.5021
941.0,0.3984
942.0,0.4482
943.0,0.3105
944.0,0.3138
945.0,0.4076
946.0,0.2289
947.0,0.4146
948.0,0.3088
949.0,0.5334
950.0,0.1834
951.0,0.5217
952.0,0.3092
953.0,0.3804
954.0,0.4459
955.0,0.3824
956.0,0.3637
957.0,0.3127
958.0,0.4847
959.0,0.4065
960.0,0.4545
961.0,0.4941
962.0,0.4701
963.0,0.5276
964.0,0.4885
965.0,0.5237
966.0,0.5275
967.0,0.5264
968.0,0.6589
969.0,0.6906
970.0,0.6415
971.0,0.7138
972.0,0.6868
973.0,0.6184
974.0,0.5905
975.0,0.6045
976.0,0.5846
977.0,0.6445
978.0,0.621
979.0,0.6435
980.0,0.6098
981.0,0.709
982.0,0.6851
983.0,0.6622
984.0,0.7227
985.0,0.6823
986.0,0.7307
987.0,0.7212
988.0,0.7201
989.0,0.7257
990.0,0.7152
991.0,0.7285
992.0,0.7322
993.0,0.7207
994.0,0.7315
995.0,0.7299
996.0,0.7275
997.0,0.7282
998.0,0.7251
999.0,0.7222
1000.0,0.7183
1001.0,0.726
1002.0,0.7109
1003.0,0.7135
1004.0,0.6973
1005.0,0.6701
1006.0,0.6972
1007.0,0.7115
1008.0,0.7086
1009.0,0.7057
1010.0,0.7033
1011.0,0.7079
1012.0,0.7027
1013.0,0.7059
1014.0,0.701
1015.0,0.6965
1016.0,0.6935
1017.0,0.6955
1018.0,0.6923
1019.0,0.6794
1020.0,0.689
1021.0,0.6877
1022.0,0.6831
1023.0,0.6905
1024.0,0.6834
1025.0,0.6894
1026.0,0.6869
1027.0,0.6853
1028.0,0.684
1029.0,0.6761
1030.0,0.6801
1031.0,0.6777
1032.0,0.6755
1033.0,0.6654
1034.0,0.6654
1035.0,0.6675
1036.0,0.6712
1037.0,0.6602
1038.0,0.6632
1039.0,0.663
1040.0,0.6603
1041.0,0.6631
1042.0,0.6586
1043.0,0.6566
1044.0,0.659
1045.0,0.6502
1046.0,0.6431
1047.0,0.6491
1048.0,0.6528
1049.0,0.6506
1050.0,0.6478
1051.0,0.6471
1052.0,0.6446
1053.0,0.6397
1054.0,0.6414
1055.0,0.642
1056.0,0.6401
1057.0,0.6383
1058.0,0.6229
1059.0,0.6239
1060.0,0.6231
1061.0,0.6225
1062.0,0.6261
1063.0,0.6202
1064.0,0.6274
1065.0,0.6236
1066.0,0.6108
1067.0,0.6189
1068.0,0.6059
1069.0,0.5868
1070.0,0.6072
1071.0,0.615
1072.0,0.6092
1073.0,0.6002
1074.0,0.6139
1075.0,0.5883
1076.0,0.6137
1077.0,0.6057
1078.0,0.5953
1079.0,0.6031
1080.0,0.5965
1081.0,0.5797
1082.0,0.5847
1083.0,0.5854
1084.0,0.5799
1085.0,0.5973
1086.0,0.5537
1087.0,0.565
1088.0,0.5859
1089.0,0.5727
1090.0,0.5638
1091.0,0.5854
1092.0,0.5827
1093.0,0.5096
1094.0,0.5351
1095.0,0.5283
1096.0,0.5107
1097.0,0.569
1098.0,0.5042
1099.0,0.5234
1100.0,0.494
1101.0,0.498
1102.0,0.4798
1103.0,0.4783
1104.0,0.4785
1105.0,0.5131
1106.0,0.4197
1107.0,0.4926
1108.0,0.4341
1109.0,0.4318
1110.0,0.4902
1111.0,0.3554
1112.0,0.4272
1113.0,0.2963
1114.0,0.3278
1115.0,0.2725
1116.0,0.2331
1117.0,0.1043
1118.0,0.2473
1119.0,0.137
1120.0,0.1723
1121.0,0.2193
1122.0,0.1049
1123.0,0.1553
1124.0,0.1313
1125.0,0.1679
1126.0,0.07128
1127.0,0.1882
1128.0,0.1262
1129.0,0.1315
1130.0,0.09349
1131.0,0.3255
1132.0,0.2614
1133.0,0.1821
1134.0,0.05801
1135.0,0.02133
1136.0,0.1578
1137.0,0.324
1138.0,0.2326
1139.0,0.3172
1140.0,0.2764
1141.0,0.221
1142.0,0.2477
1143.0,0.3394
1144.0,0.1346
1145.0,0.175
1146.0,0.1889
1147.0,0.08024
1148.0,0.294
1149.0,0.2443
1150.0,0.1445
1151.0,0.2311
1152.0,0.2734
1153.0,0.2584
1154.0,0.1732
1155.0,0.3313
1156.0,0.304
1157.0,0.3334
1158.0,0.3292
1159.0,0.3474
1160.0,0.3067
1161.0,0.3608
1162.0,0.3637
1163.0,0.4635
1164.0,0.4079
1165.0,0.394
1166.0,0.3853
1167.0,0.4143
1168.0,0.4206
1169.0,0.4269
1170.0,0.4562
1171.0,0.4463
1172.0,0.45
1173.0,0.4552
1174.0,0.3476
1175.0,0.4417
1176.0,0.4753
1177.0,0.4627
1178.0,0.3647
1179.0,0.4786
1180.0,0.4388
1181.0,0.4514
1182.0,0.3302
1183.0,0.4419
1184.0,0.4203
1185.0,0.4107
1186.0,0.4694
1187.0,0.4525
1188.0,0.337
1189.0,0.4229
1190.0,0.4589
1191.0,0.4445
1192.0,0.4642
1193.0,0.4482
1194.0,0.4596
1195.0,0.4409
1196.0,0.4287
1197.0,0.4563
1198.0,0.4228
1199.0,0.3741
1200.0,0.4431
1201.0,0.4322
1202.0,0.4271
1203.0,0.4234
1204.0,0.3789
1205.0,0.4327
1206.0,0.4697
1207.0,0.4273
1208.0,0.4163
1209.0,0.4237
1210.0,0.4381
1211.0,0.4229
1212.0,0.4236
1213.0,0.4572
1214.0,0.4307
1215.0,0.4241
1216.0,0.4555
1217.0,0.4463
1218.0,0.4521
1219.0,0.4478
1220.0,0.4522
1221.0,0.4552
1222.0,0.4452
1223.0,0.4421
1224.0,0.4413
1225.0,0.4524
1226.0,0.4537
1227.0,0.4257
1228.0,0.4546
1229.0,0.4537
1230.0,0.4474
1231.0,0.4557
1232.0,0.4532
1233.0,0.4431
1234.0,0.4542
1235.0,0.4521
1236.0,0.4548
1237.0,0.4506
1238.0,0.4532
1239.0,0.4475
1240.0,0.4489
1241.0,0.4481
1242.0,0.446
1243.0,0.4423
1244.0,0.4458
1245.0,0.4475
1246.0,0.4448
1247.0,0.4435
1248.0,0.4439
1249.0,0.4446
1250.0,0.4424
1251.0,0.4375
1252.0,0.4366
1253.0,0.4349
1254.0,0.432
1255.0,0.4366
1256.0,0.4279
1257.0,0.4262
1258.0,0.4314
1259.0,0.4212
1260.0,0.4228
1261.0,0.406
1262.0,0.3975
1263.0,0.3985
1264.0,0.3765
1265.0,0.3957
1266.0,0.3859
1267.0,0.3892
1268.0,0.3747
1269.0,0.2731
1270.0,0.3891
1271.0,0.4038
1272.0,0.4043
1273.0,0.4008
1274.0,0.4011
1275.0,0.4056
1276.0,0.4081
1277.0,0.4093
1278.0,0.4143
1279.0,0.4108
1280.0,0.4054
1281.0,0.3856
1282.0,0.3694
1283.0,0.3983
1284.0,0.4083
1285.0,0.4107
1286.0,0.415
1287.0,0.4108
1288.0,0.4102
1289.0,0.4014
1290.0,0.4062
1291.0,0.4111
1292.0,0.3944
1293.0,0.4052
1294.0,0.4028
1295.0,0.4027
1296.0,0.3898
1297.0,0.3732
1298.0,0.3931
1299.0,0.4049
1300.0,0.3577
1301.0,0.3656
1302.0,0.3915
1303.0,0.3514
1304.0,0.314
1305.0,0.3848
1306.0,0.3855
1307.0,0.3159
1308.0,0.3498
1309.0,0.3836
1310.0,0.3105
1311.0,0.3386
1312.0,0.3317
1313.0,0.3274
1314.0,0.2984
1315.0,0.2976
1316.0,0.3355
1317.0,0.3195
1318.0,0.3413
1319.0,0.2841
1320.0,0.2715
1321.0,0.3103
1322.0,0.3157
1323.0,0.2522
1324.0,0.2786
1325.0,0.3314
1326.0,0.2937
1327.0,0.2825
1328.0,0.2483
1329.0,0.199
1330.0,0.2524
1331.0,0.1684
1332.0,0.1683
1333.0,0.2295
1334.0,0.1888
1335.0,0.2509
1336.0,0.2062
1337.0,0.1876
1338.0,0.2019
1339.0,0.1991
1340.0,0.1898
1341.0,0.194
1342.0,0.2033
1343.0,0.1578
1344.0,0.09458
1345.0,0.1331
1346.0,0.08095
1347.0,0.0847
1348.0,0.00935
1349.0,0.02846
1350.0,0.02635
1351.0,0.01019
1352.0,0.004308
1353.0,0.0003949
1354.0,0.0009657
1355.0,2.378e-05
1356.0,0.000204
1357.0,0.0003031
1358.0,2.695e-05
1359.0,7.48e-06
1360.0,1.636e-05
1361.0,1.058e-07
1362.0,6.71e-10
1363.0,2.566e-05
1364.0,1.21e-05
1365.0,5.676e-10
1366.0,8.981e-05
1367.0,3.482e-05
1368.0,2.653e-11
1369.0,4.859e-06
1370.0,3.325e-06
1371.0,3.019e-07
1372.0,1.949e-05
1373.0,0.0002185
1374.0,0.0006915
1375.0,0.00121
1376.0,0.0008549
1377.0,0.0004326
1378.0,0.003347
1379.0,0.0001883
1380.0,0.0003312
1381.0,1.172e-05
1382.0,1.922e-05
1383.0,4.302e-07
1384.0,6.181e-06
1385.0,1.286e-05
1386.0,2.122e-05
1387.0,0.0008493
1388.0,1.966e-05
1389.0,0.001969
1390.0,0.001668
1391.0,0.001246
1392.0,9.893e-05
1393.0,0.0004163
1394.0,0.0003753
1395.0,4.774e-06
1396.0,1.222e-07
1397.0,0.0001952
1398.0,0.003837
1399.0,0.002463
1400.0,8.112e-08
1401.0,1.861e-07
1402.0,0.004278
1403.0,0.005812
1404.0,0.00185
1405.0,3.101e-06
1406.0,0.005446
1407.0,0.0004749
1408.0,0.004383
1409.0,0.001936
1410.0,0.001376
1411.0,0.005047
1412.0,0.005973
1413.0,0.03935
1414.0,0.001058
1415.0,0.0005867
1416.0,0.05241
1417.0,0.02085
1418.0,0.02357
1419.0,0.003962
1420.0,0.01469
1421.0,0.01654
1422.0,0.06663
1423.0,0.01444
1424.0,0.02583
1425.0,0.03925
1426.0,0.04063
1427.0,0.06524
1428.0,0.009089
1429.0,0.05269
1430.0,0.08035
1431.0,0.08588
1432.0,0.007335
1433.0,0.0582
1434.0,0.03146
1435.0,0.03757
1436.0,0.06234
1437.0,0.04807
1438.0,0.0232
1439.0,0.08024
1440.0,0.06094
1441.0,0.051
1442.0,0.05514
1443.0,0.06238
1444.0,0.08398
1445.0,0.07091
1446.0,0.03357
1447.0,0.05312
1448.0,0.1397
1449.0,0.1268
1450.0,0.03934
1451.0,0.0174
1452.0,0.08135
1453.0,0.1034
1454.0,0.1596
1455.0,0.08207
1456.0,0.1131
1457.0,0.1406
1458.0,0.1557
1459.0,0.1855
1460.0,0.1024
1461.0,0.1111
1462.0,0.1543
1463.0,0.05638
1464.0,0.1744
1465.0,0.1068
1466.0,0.08507
1467.0,0.05032
1468.0,0.09725
