interpolation:linear
wavelength,value
280.0,3.823e-20
280.5,1.083e-18
281.0,5.531e-18
281.5,4.408e-19
282.0,1.892e-18
282.5,5.34e-18
283.0,1.777e-17
283.5,2.931e-17
284.0,4.629e-16
284.5,1.307e-15
285.0,2.36e-15
285.5,1.426e-14
286.0,6.051e-14
286.5,2.898e-13
287.0,8.571e-13
287.5,3.38e-12
288.0,1.009e-11
288.5,3.966e-11
289.0,1.327e-10
289.5,4.966e-10
290.0,1.62e-09
290.5,3.764e-09
291.0,9.364e-09
291.5,3.207e-08
292.0,8.783e-08
292.5,1.386e-07
293.0,3.454e-07
293.5,1.036e-06
294.0,1.9e-06
294.5,2.494e-06
295.0,4.9e-06
295.5,1.2e-05
296.0,2.295e-05
296.5,3.179e-05
297.0,4.266e-05
297.5,0.0001128
298.0,0.0001756
298.5,0.0001749
299.0,0.0003817
299.5,0.0006214
300.0,0.0006764
300.5,0.0009689
301.0,0.001721
301.5,0.002698
302.0,0.00229
302.5,0.004332
303.0,0.007459
303.5,0.009138
304.0,0.00842
304.5,0.01194
305.0,0.01687
305.5,0.01848
306.0,0.01758
306.5,0.02128
307.0,0.02968
307.5,0.03721
308.0,0.03893
308.5,0.04468
309.0,0.04314
309.5,0.04744
310.0,0.04678
310.5,0.07506
311.0,0.09276
311.5,0.08894
312.0,0.08597
312.5,0.1023
313.0,0.1096
313.5,0.1076
314.0,0.1309
314.5,0.1119
315.0,0.1461
315.5,0.1244
316.0,0.1055
316.5,0.1476
317.0,0.1834
317.5,0.1922
318.0,0.1473
318.5,0.1769
319.0,0.2064
319.5,0.1728
320.0,0.2097
320.5,0.2536
321.0,0.2189
321.5,0.2092
322.0,0.2305
322.5,0.2001
323.0,0.1951
323.5,0.2348
324.0,0.2731
324.5,0.2797
325.0,0.2444
325.5,0.3089
326.0,0.3756
326.5,0.3718
327.0,0.3721
327.5,0.3613
328.0,0.3266
328.5,0.3369
329.0,0.3975
329.5,0.4491
330.0,0.4547
330.5,0.368
331.0,0.3764
331.5,0.3793
332.0,0.4047
332.5,0.3981
333.0,0.3981
333.5,0.3636
334.0,0.373
334.5,0.426
335.0,0.3979
335.5,0.4647
336.0,0.3215
336.5,0.3775
337.0,0.311
337.5,0.3874
338.0,0.3751
338.5,0.4328
339.0,0.4282
339.5,0.4119
340.0,0.4842
340.5,0.436
341.0,0.4253
341.5,0.3904
342.0,0.4664
342.5,0.4363
343.0,0.4799
343.5,0.4519
344.0,0.3339
344.5,0.3373
345.0,0.4462
345.5,0.4554
346.0,0.3869
346.5,0.4381
347.0,0.4703
347.5,0.3803
348.0,0.4334
348.5,0.4331
349.0,0.4017
349.5,0.3977
350.0,0.4918
350.5,0.5188
351.0,0.4635
351.5,0.4506
352.0,0.4838
352.5,0.3774
353.0,0.4753
353.5,0.5082
354.0,0.5275
354.5,0.535
355.0,0.5332
355.5,0.4816
356.0,0.5039
356.5,0.4302
357.0,0.3555
357.5,0.4352
358.0,0.3449
358.5,0.2947
359.0,0.4122
359.5,0.5254
360.0,0.5569
360.5,0.4451
361.0,0.4057
361.5,0.4671
362.0,0.4038
362.5,0.5588
363.0,0.5018
363.5,0.4622
364.0,0.5652
364.5,0.4831
365.0,0.492
365.5,0.6175
366.0,0.6542
366.5,0.6146
367.0,0.5985
367.5,0.6211
368.0,0.5435
368.5,0.5484
369.0,0.5922
369.5,0.6312
370.0,0.6729
370.5,0.5222
371.0,0.558
371.5,0.6981
372.0,0.4633
372.5,0.5556
373.0,0.5651
373.5,0.3677
374.0,0.5342
374.5,0.4424
375.0,0.4301
375.5,0.6421
376.0,0.5323
376.5,0.5516
377.0,0.584
377.5,0.6833
378.0,0.7407
378.5,0.7001
379.0,0.5778
379.5,0.5278
380.0,0.5488
380.5,0.6647
381.0,0.6661
381.5,0.528
382.0,0.4688
382.5,0.3996
383.0,0.37
383.5,0.3563
384.0,0.3931
384.5,0.5782
385.0,0.5733
385.5,0.5339
386.0,0.4573
386.5,0.6007
387.0,0.4992
387.5,0.5607
388.0,0.5177
388.5,0.5117
389.0,0.5524
389.5,0.669
390.0,0.6714
390.5,0.6179
391.0,0.7273
391.5,0.7419
392.0,0.6249
392.5,0.5594
393.0,0.3113
393.5,0.2263
394.0,0.4604
394.5,0.5854
395.0,0.7143
395.5,0.7257
396.0,0.6292
396.5,0.3678
397.0,0.276
397.5,0.5613
398.0,0.7861
398.5,0.8126
399.0,0.8798
399.5,0.8769
400.0,0.9107
401.0,0.9252
402.0,0.9761
403.0,0.9271
404.0,0.9129
405.0,0.9127
406.0,0.8978
407.0,0.8832
408.0,0.9178
409.0,0.9823
410.0,0.8582
411.0,0.9295
412.0,0.9982
413.0,0.9735
414.0,0.9853
415.0,0.9878
416.0,1.005
417.0,0.9803
418.0,0.9621
419.0,0.9747
420.0,0.9704
421.0,1.015
422.0,0.9648
423.0,0.9424
424.0,0.9967
425.0,0.9948
426.0,0.9688
427.0,0.9507
428.0,0.926
429.0,0.8769
430.0,0.7674
431.0,0.7607
432.0,0.982
433.0,0.9873
434.0,0.9168
435.0,0.9575
436.0,1.079
437.0,1.064
438.0,0.9686
439.0,1.002
440.0,1.034
441.0,1.071
442.0,1.149
443.0,1.119
444.0,1.143
445.0,1.118
446.0,1.067
447.0,1.153
448.0,1.171
449.0,1.176
450.0,1.208
451.0,1.253
452.0,1.207
453.0,1.135
454.0,1.185
455.0,1.192
456.0,1.22
457.0,1.241
458.0,1.199
459.0,1.192
460.0,1.196
461.0,1.223
462.0,1.232
463.0,1.224
464.0,1.203
465.0,1.187
466.0,1.199
467.0,1.177
468.0,1.191
469.0,1.197
470.0,1.159
471.0,1.157
472.0,1.219
473.0,1.204
474.0,1.206
475.0,1.216
476.0,1.181
477.0,1.184
478.0,1.217
479.0,1.209
480.0,1.211
481.0,1.233
482.0,1.239
483.0,1.224
484.0,1.199
485.0,1.142
486.0,0.9977
487.0,1.045
488.0,1.147
489.0,1.151
490.0,1.21
491.0,1.189
492.0,1.123
493.0,1.16
494.0,1.171
495.0,1.181
496.0,1.188
497.0,1.207
498.0,1.15
499.0,1.165
500.0,1.132
501.0,1.111
502.0,1.096
503.0,1.141
504.0,1.114
505.0,1.152
506.0,1.19
507.0,1.132
508.0,1.096
509.0,1.127
510.0,1.12
511.0,1.15
512.0,1.162
513.0,1.1
514.0,1.092
515.0,1.081
516.0,1.079
517.0,0.9584
518.0,1.008
519.0,1.057
520.0,1.095
521.0,1.106
522.0,1.107
523.0,1.087
524.0,1.126
525.0,1.14
526.0,1.089
527.0,1.027
528.0,1.086
529.0,1.145
530.0,1.129
531.0,1.146
532.0,1.106
533.0,1.074
534.0,1.106
535.0,1.129
536.0,1.14
537.0,1.095
538.0,1.114
539.0,1.104
540.0,1.059
541.0,1.066
542.0,1.1
543.0,1.088
544.0,1.107
545.0,1.104
546.0,1.109
547.0,1.108
548.0,1.095
549.0,1.098
550.0,1.111
551.0,1.097
552.0,1.105
553.0,1.085
554.0,1.111
555.0,1.114
556.0,1.099
557.0,1.065
558.0,1.058
559.0,1.038
560.0,1.051
561.0,1.065
562.0,1.058
563.0,1.087
564.0,1.058
565.0,1.049
566.0,1.034
567.0,1.053
568.0,1.045
569.0,1.022
570.0,1.021
571.0,1.015
572.0,1.04
573.0,1.051
574.0,1.048
575.0,1.029
576.0,1.02
577.0,1.031
578.0,1.015
579.0,1.018
580.0,1.036
581.0,1.041
582.0,1.059
583.0,1.061
584.0,1.07
585.0,1.044
586.0,1.022
587.0,1.045
588.0,1.022
589.0,0.9094
590.0,0.9507
591.0,1.004
592.0,0.9923
593.0,1.005
594.0,0.999
595.0,0.9757
596.0,1.011
597.0,1.001
598.0,0.9973
599.0,0.9977
600.0,0.9983
601.0,0.9896
602.0,0.9827
603.0,0.9987
604.0,1.015
605.0,1.01
606.0,1.005
607.0,1.015
608.0,1.003
609.0,1.005
610.0,0.9972
611.0,1.002
612.0,0.9991
613.0,0.9863
614.0,0.9726
615.0,0.9935
616.0,0.9605
617.0,0.9584
618.0,0.9952
619.0,0.985
620.0,0.9912
621.0,0.9924
622.0,0.9811
623.0,0.9664
624.0,0.9496
625.0,0.9475
626.0,0.9616
627.0,0.973
628.0,0.9172
629.0,0.9529
630.0,0.9313
631.0,0.9494
632.0,0.9375
633.0,0.9648
634.0,0.9545
635.0,0.9689
636.0,0.9556
637.0,0.9709
638.0,0.9795
639.0,0.9682
640.0,0.9584
641.0,0.9576
642.0,0.9529
643.0,0.9657
644.0,0.9622
645.0,0.964
646.0,0.9425
647.0,0.9336
648.0,0.9347
649.0,0.9168
650.0,0.9182
651.0,0.9574
652.0,0.9209
653.0,0.9446
654.0,0.9338
655.0,0.9007
656.0,0.7971
657.0,0.8184
658.0,0.9163
659.0,0.9225
660.0,0.9261
661.0,0.9326
662.0,0.935
663.0,0.9163
664.0,0.9263
665.0,0.9265
666.0,0.9269
667.0,0.9257
668.0,0.9258
669.0,0.9399
670.0,0.9357
671.0,0.9353
672.0,0.9272
673.0,0.9411
674.0,0.9374
675.0,0.9288
676.0,0.935
677.0,0.9256
678.0,0.9281
679.0,0.9131
680.0,0.9203
681.0,0.9142
682.0,0.913
683.0,0.9112
684.0,0.9067
685.0,0.9143
686.0,0.909
687.0,0.6405
688.0,0.7329
689.0,0.7349
690.0,0.7649
691.0,0.7984
692.0,0.8222
693.0,0.8161
694.0,0.8093
695.0,0.8383
696.0,0.8395
697.0,0.8852
698.0,0.8715
699.0,0.8544
700.0,0.8441
701.0,0.8367
702.0,0.8411
703.0,0.8427
704.0,0.8674
705.0,0.8687
706.0,0.8671
707.0,0.8674
708.0,0.8694
709.0,0.8693
710.0,0.8699
711.0,0.8682
712.0,0.865
713.0,0.8569
714.0,0.86
715.0,0.8342
716.0,0.8351
717.0,0.7378
718.0,0.68
719.0,0.6243
720.0,0.655
721.0,0.7146
722.0,0.8084
723.0,0.7574
724.0,0.6877
725.0,0.6786
726.0,0.7094
727.0,0.7163
728.0,0.6775
729.0,0.698
730.0,0.7385
731.0,0.7081
732.0,0.7523
733.0,0.7914
734.0,0.8088
735.0,0.7928
736.0,0.7917
737.0,0.795
738.0,0.804
739.0,0.7882
740.0,0.8077
741.0,0.7991
742.0,0.7993
743.0,0.8194
744.0,0.8167
745.0,0.8166
746.0,0.8203
747.0,0.8221
748.0,0.8203
749.0,0.8109
750.0,0.8104
751.0,0.8022
752.0,0.8056
753.0,0.8096
754.0,0.8115
755.0,0.8069
756.0,0.8065
757.0,0.8077
758.0,0.7977
759.0,0.7834
760.0,0.167
761.0,0.09559
762.0,0.438
763.0,0.2409
764.0,0.3426
765.0,0.4382
766.0,0.5203
767.0,0.6391
768.0,0.7239
769.0,0.736
770.0,0.7576
771.0,0.7623
772.0,0.7634
773.0,0.7686
774.0,0.7648
775.0,0.7589
776.0,0.7681
777.0,0.7579
778.0,0.7534
779.0,0.754
780.0,0.7497
781.0,0.7505
782.0,0.7551
783.0,0.7419
784.0,0.7455
785.0,0.7401
786.0,0.7483
787.0,0.7367
788.0,0.7282
789.0,0.7281
790.0,0.7108
791.0,0.7149
792.0,0.7094
793.0,0.6982
794.0,0.7079
795.0,0.7205
796.0,0.7011
797.0,0.7021
798.0,0.7199
799.0,0.7158
800.0,0.7041
801.0,0.7025
802.0,0.7004
803.0,0.6955
804.0,0.6961
805.0,0.6931
806.0,0.7112
807.0,0.703
808.0,0.7034
809.0,0.6913
810.0,0.6863
811.0,0.6886
812.0,0.6708
813.0,0.6581
814.0,0.5856
815.0,0.5817
816.0,0.5424
817.0,0.5515
818.0,0.5324
819.0,0.5894
820.0,0.5573
821.0,0.6436
822.0,0.6265
823.0,0.4386
824.0,0.611
825.0,0.6328
826.0,0.6111
827.0,0.6424
828.0,0.5518
829.0,0.6069
830.0,0.5997
831.0,0.6016
832.0,0.5844
833.0,0.6182
834.0,0.5986
835.0,0.6526
836.0,0.6278
837.0,0.6542
838.0,0.6353
839.0,0.644
840.0,0.6578
841.0,0.6491
842.0,0.6495
843.0,0.6482
844.0,0.6397
845.0,0.6606
846.0,0.6576
847.0,0.6451
848.0,0.6415
849.0,0.6233
850.0,0.5971
851.0,0.6326
852.0,0.6279
853.0,0.6041
854.0,0.5219
855.0,0.573
856.0,0.6263
857.0,0.64
858.0,0.6354
859.0,0.6358
860.0,0.6368
861.0,0.6334
862.0,0.6433
863.0,0.6584
864.0,0.6255
865.0,0.62
866.0,0.5575
867.0,0.5818
868.0,0.6331
869.0,0.6199
870.0,0.6376
871.0,0.6289
872.0,0.6266
873.0,0.6254
874.0,0.6179
875.0,0.6054
876.0,0.6118
877.0,0.6179
878.0,0.6247
879.0,0.6151
880.0,0.6019
881.0,0.593
882.0,0.6059
883.0,0.6076
884.0,0.6049
885.0,0.6095
886.0,0.5816
887.0,0.5872
888.0,0.5962
889.0,0.6024
890.0,0.598
891.0,0.5967
892.0,0.5803
893.0,0.5632
894.0,0.5455
895.0,0.5181
896.0,0.4892
897.0,0.4237
898.0,0.4604
899.0,0.3545
900.0,0.4692
901.0,0.3714
902.0,0.4301
903.0,0.4362
904.0,0.5414
905.0,0.5239
906.0,0.4912
907.0,0.4044
908.0,0.4116
909.0,0.4434
910.0,0.3966
911.0,0.42
912.0,0.4381
913.0,0.4027
914.0,0.3985
915.0,0.4316
916.0,0.3666
917.0,0.4604
918.0,0.376
919.0,0.4676
920.0,0.4701
921.0,0.4884
922.0,0.4398
923.0,0.4716
924.0,0.451
925.0,0.4413
926.0,0.4461
927.0,0.4964
928.0,0.3727
929.0,0.3425
930.0,0.2727
931.0,0.2578
932.0,0.1892
933.0,0.1556
934.0,0.08933
935.0,0.1577
936.0,0.101
937.0,0.1026
938.0,0.1253
939.0,0.2498
940.0,0.298
941.0,0.2282
942.0,0.2622
943.0,0.175
944.0,0.182
945.0,0.2347
946.0,0.1229
947.0,0.2367
948.0,0.1744
949.0,0.3134
950.0,0.09235
951.0,0.308
952.0,0.17
953.0,0.2166
954.0,0.2623
955.0,0.2187
956.0,0.2106
957.0,0.1707
958.0,0.2939
959.0,0.237
960.0,0.2656
961.0,0.2954
962.0,0.2798
963.0,0.3202
964.0,0.2941
965.0,0.3188
966.0,0.3194
967.0,0.3183
968.0,0.4186
969.0,0.4379
970.0,0.4032
971.0,0.458
972.0,0.4388
973.0,0.3856
974.0,0.3665
975.0,0.379
976.0,0.3618
977.0,0.408
978.0,0.3892
979.0,0.4065
980.0,0.3829
981.0,0.4552
982.0,0.4365
983.0,0.4198
984.0,0.4676
985.0,0.4348
986.0,0.4749
987.0,0.4666
988.0,0.4657
989.0,0.4729
990.0,0.4629
991.0,0.4744
992.0,0.4771
993.0,0.4674
994.0,0.4769
995.0,0.4761
996.0,0.4742
997.0,0.4748
998.0,0.4726
999.0,0.4708
1000.0,0.4677
1001.0,0.4733
1002.0,0.4612
1003.0,0.465
1004.0,0.4539
1005.0,0.4369
1006.0,0.4542
1007.0,0.4637
1008.0,0.4613
1009.0,0.4591
1010.0,0.4572
1011.0,0.4613
1012.0,0.4575
1013.0,0.4602
1014.0,0.4569
1015.0,0.4539
1016.0,0.4519
1017.0,0.4531
1018.0,0.4513
1019.0,0.442
1020.0,0.449
1021.0,0.4483
1022.0,0.4449
1023.0,0.4497
1024.0,0.4442
1025.0,0.4492
1026.0,0.4474
1027.0,0.4463
1028.0,0.4454
1029.0,0.4402
1030.0,0.4431
1031.0,0.4414
1032.0,0.4401
1033.0,0.4334
1034.0,0.4334
1035.0,0.4348
1036.0,0.4371
1037.0,0.43
1038.0,0.4319
1039.0,0.4317
1040.0,0.4299
1041.0,0.4317
1042.0,0.4286
1043.0,0.4273
1044.0,0.4288
1045.0,0.423
1046.0,0.4184
1047.0,0.4222
1048.0,0.4245
1049.0,0.423
1050.0,0.4211
1051.0,0.4205
1052.0,0.4188
1053.0,0.4156
1054.0,0.4165
1055.0,0.4168
1056.0,0.4154
1057.0,0.4141
1058.0,0.404
1059.0,0.4045
1060.0,0.4039
1061.0,0.4034
1062.0,0.4056
1063.0,0.4016
1064.0,0.4064
1065.0,0.4036
1066.0,0.3955
1067.0,0.4007
1068.0,0.392
1069.0,0.3798
1070.0,0.3928
1071.0,0.3986
1072.0,0.3942
1073.0,0.3885
1074.0,0.3982
1075.0,0.3792
1076.0,0.3979
1077.0,0.3913
1078.0,0.3841
1079.0,0.3914
1080.0,0.3853
1081.0,0.3734
1082.0,0.3786
1083.0,0.3796
1084.0,0.3727
1085.0,0.3861
1086.0,0.3538
1087.0,0.3641
1088.0,0.3793
1089.0,0.3686
1090.0,0.3611
1091.0,0.3783
1092.0,0.3772
1093.0,0.3225
1094.0,0.3454
1095.0,0.3356
1096.0,0.3222
1097.0,0.3684
1098.0,0.3174
1099.0,0.3307
1100.0,0.3086
1101.0,0.3121
1102.0,0.2988
1103.0,0.2964
1104.0,0.2968
1105.0,0.3234
1106.0,0.2519
1107.0,0.308
1108.0,0.2638
1109.0,0.2638
1110.0,0.3057
1111.0,0.211
1112.0,0.2615
1113.0,0.1703
1114.0,0.1899
1115.0,0.1576
1116.0,0.1281
1117.0,0.04958
1118.0,0.1385
1119.0,0.07075
1120.0,0.08915
1121.0,0.1171
1122.0,0.051
1123.0,0.08049
1124.0,0.06796
1125.0,0.08818
1126.0,0.03241
1127.0,0.09931
1128.0,0.06126
1129.0,0.06473
1130.0,0.04336
1131.0,0.184
1132.0,0.1451
1133.0,0.09432
1134.0,0.02551
1135.0,0.009486
1136.0,0.07952
1137.0,0.1814
1138.0,0.1283
1139.0,0.1869
1140.0,0.1579
1141.0,0.1219
1142.0,0.1393
1143.0,0.196
1144.0,0.0707
1145.0,0.09091
1146.0,0.09808
1147.0,0.03628
1148.0,0.1697
1149.0,0.1368
1150.0,0.07587
1151.0,0.1273
1152.0,0.1551
1153.0,0.15
1154.0,0.08843
1155.0,0.195
1156.0,0.1765
1157.0,0.1967
1158.0,0.1945
1159.0,0.2086
1160.0,0.1797
1161.0,0.2186
1162.0,0.2199
1163.0,0.2921
1164.0,0.2524
1165.0,0.2398
1166.0,0.2369
1167.0,0.2571
1168.0,0.2603
1169.0,0.2659
1170.0,0.2874
1171.0,0.2805
1172.0,0.2847
1173.0,0.2868
1174.0,0.2091
1175.0,0.2795
1176.0,0.3051
1177.0,0.2943
1178.0,0.2243
1179.0,0.3075
1180.0,0.2768
1181.0,0.2855
1182.0,0.2006
1183.0,0.2806
1184.0,0.2641
1185.0,0.256
1186.0,0.2999
1187.0,0.2867
1188.0,0.2043
1189.0,0.2674
1190.0,0.293
1191.0,0.2802
1192.0,0.2969
1193.0,0.2852
1194.0,0.2935
1195.0,0.279
1196.0,0.2695
1197.0,0.2929
1198.0,0.269
1199.0,0.232
1200.0,0.2817
1201.0,0.2728
1202.0,0.2706
1203.0,0.2684
1204.0,0.2364
1205.0,0.2759
1206.0,0.303
1207.0,0.2702
1208.0,0.265
1209.0,0.2702
1210.0,0.2807
1211.0,0.2686
1212.0,0.2668
1213.0,0.2937
1214.0,0.2725
1215.0,0.2677
1216.0,0.2927
1217.0,0.2856
1218.0,0.2904
1219.0,0.2871
1220.0,0.2906
1221.0,0.2932
1222.0,0.2859
1223.0,0.2835
1224.0,0.2822
1225.0,0.2913
1226.0,0.2929
1227.0,0.2718
1228.0,0.294
1229.0,0.2929
1230.0,0.2882
1231.0,0.2953
1232.0,0.2936
1233.0,0.2849
1234.0,0.2948
1235.0,0.2931
1236.0,0.2951
1237.0,0.2915
1238.0,0.2941
1239.0,0.2904
1240.0,0.2914
1241.0,0.2903
1242.0,0.2894
1243.0,0.2871
1244.0,0.2892
1245.0,0.2904
1246.0,0.2887
1247.0,0.2876
1248.0,0.2876
1249.0,0.2884
1250.0,0.2867
1251.0,0.2832
1252.0,0.283
1253.0,0.2812
1254.0,0.2787
1255.0,0.2828
1256.0,0.2758
1257.0,0.2744
1258.0,0.2789
1259.0,0.2701
1260.0,0.2713
1261.0,0.2578
1262.0,0.2509
1263.0,0.2515
1264.0,0.2342
1265.0,0.2498
1266.0,0.2416
1267.0,0.245
1268.0,0.2337
1269.0,0.154
1270.0,0.2444
1271.0,0.2567
1272.0,0.2574
1273.0,0.2548
1274.0,0.2554
1275.0,0.2588
1276.0,0.2609
1277.0,0.2623
1278.0,0.2667
1279.0,0.2643
1280.0,0.2609
1281.0,0.2487
1282.0,0.2391
1283.0,0.2576
1284.0,0.2639
1285.0,0.2655
1286.0,0.2688
1287.0,0.2652
1288.0,0.265
1289.0,0.2577
1290.0,0.2626
1291.0,0.2661
1292.0,0.2519
1293.0,0.2614
1294.0,0.2596
1295.0,0.2589
1296.0,0.2484
1297.0,0.236
1298.0,0.252
1299.0,0.2615
1300.0,0.2248
1301.0,0.231
1302.0,0.2511
1303.0,0.2214
1304.0,0.192
1305.0,0.2462
1306.0,0.2464
1307.0,0.195
1308.0,0.2213
1309.0,0.2448
1310.0,0.1915
1311.0,0.2128
1312.0,0.2076
1313.0,0.2041
1314.0,0.1838
1315.0,0.1821
1316.0,0.21
1317.0,0.1993
1318.0,0.2153
1319.0,0.172
1320.0,0.1658
1321.0,0.1919
1322.0,0.1944
1323.0,0.1492
1324.0,0.1686
1325.0,0.2072
1326.0,0.1797
1327.0,0.1719
1328.0,0.1492
1329.0,0.1145
1330.0,0.1478
1331.0,0.09216
1332.0,0.09416
1333.0,0.1303
1334.0,0.1091
1335.0,0.1487
1336.0,0.1191
1337.0,0.1061
1338.0,0.1148
1339.0,0.1139
1340.0,0.11
1341.0,0.1091
1342.0,0.1145
1343.0,0.08108
1344.0,0.04839
1345.0,0.0695
1346.0,0.03686
1347.0,0.03787
1348.0,0.002902
1349.0,0.009931
1350.0,0.009966
1351.0,0.002812
1352.0,0.0008898
1353.0,5.442e-05
1354.0,0.0001673
1355.0,1.947e-06
1356.0,2.697e-05
1357.0,4.087e-05
1358.0,2.272e-06
1359.0,3.762e-07
1360.0,1.146e-06
1361.0,2.298e-09
1362.0,8.149e-12
1363.0,1.671e-06
1364.0,7.083e-07
1365.0,3.912e-12
1366.0,6.791e-06
1367.0,2.672e-06
1368.0,5.641e-14
1369.0,2.695e-07
1370.0,1.491e-07
1371.0,9.806e-09
1372.0,1.472e-06
1373.0,2.463e-05
1374.0,0.0001009
1375.0,0.0001835
1376.0,0.0001496
1377.0,7.058e-05
1378.0,0.0006498
1379.0,2.985e-05
1380.0,4.636e-05
1381.0,1.317e-06
1382.0,1.371e-06
1383.0,2.301e-08
1384.0,3.188e-07
1385.0,1.143e-06
1386.0,1.322e-06
1387.0,0.0001124
1388.0,2.258e-06
1389.0,0.000333
1390.0,0.0002867
1391.0,0.000197
1392.0,1.346e-05
1393.0,6.657e-05
1394.0,4.199e-05
1395.0,3.612e-07
1396.0,3.066e-09
1397.0,2.793e-05
1398.0,0.0007388
1399.0,0.000468
1400.0,1.541e-09
1401.0,5.218e-09
1402.0,0.001103
1403.0,0.001429
1404.0,0.0004418
1405.0,1.941e-07
1406.0,0.00121
1407.0,0.0001038
1408.0,0.0009812
1409.0,0.0003615
1410.0,0.000274
1411.0,0.00125
1412.0,0.001615
1413.0,0.0146
1414.0,0.0002139
1415.0,0.0001074
1416.0,0.02244
1417.0,0.007283
1418.0,0.008349
1419.0,0.001319
1420.0,0.005128
1421.0,0.005562
1422.0,0.02916
1423.0,0.005779
1424.0,0.01071
1425.0,0.01595
1426.0,0.01765
1427.0,0.03144
1428.0,0.00276
1429.0,0.02396
1430.0,0.03973
1431.0,0.04337
1432.0,0.002185
1433.0,0.02796
1434.0,0.01441
1435.0,0.01503
1436.0,0.02802
1437.0,0.02147
1438.0,0.009339
1439.0,0.03768
1440.0,0.02827
1441.0,0.022
1442.0,0.02433
1443.0,0.02986
1444.0,0.04105
1445.0,0.03267
1446.0,0.01486
1447.0,0.02339
1448.0,0.07537
1449.0,0.06596
1450.0,0.01732
1451.0,0.00708
