interpolation:linear
wavelength,value
280.0,1.205e-21
280.5,3.865e-20
281.0,2.054e-19
281.5,5.129e-19
282.0,9.715e-19
282.5,2.426e-18
283.0,7.657e-18
283.5,1.244e-17
284.0,2.013e-16
284.5,5.818e-16
285.0,1.17e-15
285.5,5.629e-15
286.0,2.248e-14
286.5,9.935e-14
287.0,2.818e-13
287.5,1.071e-12
288.0,3.245e-12
288.5,1.021e-11
289.0,2.785e-11
289.5,8.549e-11
290.0,2.395e-10
290.5,4.912e-10
291.0,1.059e-09
291.5,3.052e-09
292.0,6.242e-09
292.5,9.051e-09
293.0,2.02e-08
293.5,5.17e-08
294.0,8.359e-08
294.5,1.097e-07
295.0,1.913e-07
295.5,4.48e-07
296.0,8.125e-07
296.5,1.177e-06
297.0,1.646e-06
297.5,4.677e-06
298.0,7.809e-06
298.5,8.258e-06
299.0,1.921e-05
299.5,3.546e-05
300.0,4.168e-05
300.5,6.507e-05
301.0,0.000135
301.5,0.0002498
302.0,0.0002339
302.5,0.0004688
303.0,0.0008718
303.5,0.001125
304.0,0.001077
304.5,0.001687
305.0,0.002736
305.5,0.003268
306.0,0.003216
306.5,0.004114
307.0,0.006472
307.5,0.009099
308.0,0.0097
308.5,0.01177
309.0,0.01178
309.5,0.01395
310.0,0.01423
310.5,0.02323
311.0,0.02953
311.5,0.02867
312.0,0.02946
312.5,0.03651
313.0,0.03997
313.5,0.0385
314.0,0.04917
314.5,0.04485
315.0,0.05924
315.5,0.04891
316.0,0.04369
316.5,0.06397
317.0,0.07941
317.5,0.08222
318.0,0.06499
318.5,0.08273
319.0,0.09942
319.5,0.07947
320.0,0.09576
320.5,0.1229
321.0,0.1119
321.5,0.1075
322.0,0.112
322.5,0.09756
323.0,0.09869
323.5,0.123
324.0,0.1439
324.5,0.1453
325.0,0.1246
325.5,0.1623
326.0,0.199
326.5,0.2009
327.0,0.1997
327.5,0.1923
328.0,0.1696
328.5,0.1804
329.0,0.2182
329.5,0.2485
330.0,0.2501
330.5,0.1988
331.0,0.2021
331.5,0.2066
332.0,0.225
332.5,0.2235
333.0,0.2224
333.5,0.2002
334.0,0.2049
334.5,0.2381
335.0,0.2247
335.5,0.2626
336.0,0.1818
336.5,0.2125
337.0,0.1739
337.5,0.2161
338.0,0.2122
338.5,0.2453
339.0,0.2429
339.5,0.2338
340.0,0.2746
340.5,0.2477
341.0,0.2417
341.5,0.2222
342.0,0.2657
342.5,0.2487
343.0,0.2735
343.5,0.2575
344.0,0.1904
344.5,0.1923
345.0,0.2548
345.5,0.2603
346.0,0.2214
346.5,0.2508
347.0,0.2693
347.5,0.2178
348.0,0.2485
348.5,0.2485
349.0,0.2307
349.5,0.2285
350.0,0.2828
350.5,0.2984
351.0,0.2666
351.5,0.2591
352.0,0.2785
352.5,0.2175
353.0,0.2741
353.5,0.2933
354.0,0.3046
354.5,0.309
355.0,0.308
355.5,0.2784
356.0,0.2915
356.5,0.249
357.0,0.2057
357.5,0.252
358.0,0.1998
358.5,0.1708
359.0,0.2389
359.5,0.3045
360.0,0.3229
360.5,0.2582
361.0,0.2355
361.5,0.2714
362.0,0.2349
362.5,0.3253
363.0,0.2923
363.5,0.2695
364.0,0.3297
364.5,0.2819
365.0,0.2873
365.5,0.3607
366.0,0.3824
366.5,0.3595
367.0,0.3503
367.5,0.3636
368.0,0.3184
368.5,0.3214
369.0,0.3472
369.5,0.3703
370.0,0.3949
370.5,0.3067
371.0,0.3278
371.5,0.4103
372.0,0.2724
372.5,0.3268
373.0,0.3326
373.5,0.2165
374.0,0.3147
374.5,0.2608
375.0,0.2536
375.5,0.3787
376.0,0.3141
376.5,0.3256
377.0,0.3449
377.5,0.4037
378.0,0.4377
378.5,0.4138
379.0,0.3416
379.5,0.3121
380.0,0.3246
380.5,0.3934
381.0,0.3945
381.5,0.3129
382.0,0.278
382.5,0.2372
383.0,0.2197
383.5,0.2117
384.0,0.2336
384.5,0.3438
385.0,0.3411
385.5,0.3178
386.0,0.2723
386.5,0.3579
387.0,0.2975
387.5,0.3343
388.0,0.3088
388.5,0.3054
389.0,0.3298
389.5,0.3996
390.0,0.4012
390.5,0.3694
391.0,0.435
391.5,0.4438
392.0,0.3739
392.5,0.335
393.0,0.1865
393.5,0.1356
394.0,0.2761
394.5,0.3512
395.0,0.4286
395.5,0.4355
396.0,0.3778
396.5,0.221
397.0,0.1659
397.5,0.3375
398.0,0.4727
398.5,0.4888
399.0,0.5297
399.5,0.5281
400.0,0.5485
401.0,0.5552
402.0,0.5863
403.0,0.5574
404.0,0.5492
405.0,0.5495
406.0,0.541
407.0,0.5327
408.0,0.5538
409.0,0.5931
410.0,0.5186
411.0,0.5622
412.0,0.6043
413.0,0.5896
414.0,0.5972
415.0,0.5993
416.0,0.6103
417.0,0.5956
418.0,0.5849
419.0,0.593
420.0,0.5906
421.0,0.6183
422.0,0.588
423.0,0.5747
424.0,0.608
425.0,0.6073
426.0,0.5921
427.0,0.5813
428.0,0.5665
429.0,0.537
430.0,0.4703
431.0,0.4662
432.0,0.6024
433.0,0.606
434.0,0.5629
435.0,0.588
436.0,0.663
437.0,0.6546
438.0,0.5964
439.0,0.6167
440.0,0.6367
441.0,0.6601
442.0,0.7082
443.0,0.6898
444.0,0.7052
445.0,0.69
446.0,0.6591
447.0,0.713
448.0,0.724
449.0,0.7275
450.0,0.7482
451.0,0.7762
452.0,0.7482
453.0,0.704
454.0,0.7353
455.0,0.74
456.0,0.7578
457.0,0.7705
458.0,0.7441
459.0,0.7405
460.0,0.7424
461.0,0.7597
462.0,0.7659
463.0,0.7607
464.0,0.7487
465.0,0.7398
466.0,0.7474
467.0,0.7336
468.0,0.7423
469.0,0.7463
470.0,0.7225
471.0,0.7217
472.0,0.7605
473.0,0.7507
474.0,0.7515
475.0,0.7576
476.0,0.7345
477.0,0.7362
478.0,0.7569
479.0,0.7526
480.0,0.7543
481.0,0.7688
482.0,0.7733
483.0,0.7645
484.0,0.7492
485.0,0.7141
486.0,0.6246
487.0,0.6549
488.0,0.7184
489.0,0.7205
490.0,0.7583
491.0,0.7455
492.0,0.7041
493.0,0.7272
494.0,0.7346
495.0,0.7409
496.0,0.7455
497.0,0.7571
498.0,0.7216
499.0,0.7307
500.0,0.7092
501.0,0.6959
502.0,0.6856
503.0,0.7129
504.0,0.693
505.0,0.7193
506.0,0.7425
507.0,0.7066
508.0,0.6852
509.0,0.7048
510.0,0.7014
511.0,0.7206
512.0,0.7287
513.0,0.6897
514.0,0.6852
515.0,0.6784
516.0,0.6767
517.0,0.6014
518.0,0.6322
519.0,0.6631
520.0,0.6871
521.0,0.6936
522.0,0.6941
523.0,0.6815
524.0,0.7056
525.0,0.7135
526.0,0.6814
527.0,0.6417
528.0,0.6784
529.0,0.7149
530.0,0.7045
531.0,0.7148
532.0,0.6901
533.0,0.6699
534.0,0.6899
535.0,0.7051
536.0,0.7118
537.0,0.6839
538.0,0.6961
539.0,0.6903
540.0,0.6617
541.0,0.6655
542.0,0.6861
543.0,0.6793
544.0,0.6907
545.0,0.6886
546.0,0.6913
547.0,0.6913
548.0,0.6832
549.0,0.6855
550.0,0.6936
551.0,0.6853
552.0,0.6901
553.0,0.6776
554.0,0.6938
555.0,0.6951
556.0,0.686
557.0,0.6645
558.0,0.6592
559.0,0.6466
560.0,0.6545
561.0,0.6627
562.0,0.6576
563.0,0.6752
564.0,0.6565
565.0,0.6506
566.0,0.6408
567.0,0.6525
568.0,0.6458
569.0,0.6287
570.0,0.6287
571.0,0.6254
572.0,0.6392
573.0,0.6458
574.0,0.6435
575.0,0.6311
576.0,0.6254
577.0,0.6324
578.0,0.6234
579.0,0.6267
580.0,0.6399
581.0,0.6442
582.0,0.6572
583.0,0.6596
584.0,0.6658
585.0,0.6498
586.0,0.6365
587.0,0.6499
588.0,0.6318
589.0,0.5554
590.0,0.5812
591.0,0.6176
592.0,0.6083
593.0,0.6193
594.0,0.6141
595.0,0.5974
596.0,0.6245
597.0,0.6169
598.0,0.6164
599.0,0.6174
600.0,0.6192
601.0,0.6149
602.0,0.6108
603.0,0.6212
604.0,0.6317
605.0,0.6286
606.0,0.6264
607.0,0.6331
608.0,0.6265
609.0,0.6279
610.0,0.6238
611.0,0.6273
612.0,0.6257
613.0,0.618
614.0,0.6099
615.0,0.6235
616.0,0.6032
617.0,0.6022
618.0,0.6255
619.0,0.6193
620.0,0.6232
621.0,0.6235
622.0,0.6159
623.0,0.6063
624.0,0.5962
625.0,0.5948
626.0,0.6036
627.0,0.6095
628.0,0.5593
629.0,0.5916
630.0,0.5777
631.0,0.5941
632.0,0.5876
633.0,0.6069
634.0,0.6021
635.0,0.612
636.0,0.6045
637.0,0.6149
638.0,0.6216
639.0,0.615
640.0,0.6095
641.0,0.6095
642.0,0.6071
643.0,0.6153
644.0,0.6138
645.0,0.6145
646.0,0.599
647.0,0.5892
648.0,0.5896
649.0,0.5779
650.0,0.5843
651.0,0.6102
652.0,0.5812
653.0,0.6023
654.0,0.5959
655.0,0.5719
656.0,0.5082
657.0,0.522
658.0,0.5861
659.0,0.5908
660.0,0.5935
661.0,0.5977
662.0,0.5983
663.0,0.5867
664.0,0.5947
665.0,0.5959
666.0,0.5967
667.0,0.5965
668.0,0.5972
669.0,0.6067
670.0,0.6042
671.0,0.6043
672.0,0.5993
673.0,0.6085
674.0,0.6064
675.0,0.601
676.0,0.6053
677.0,0.5994
678.0,0.6012
679.0,0.5916
680.0,0.5965
681.0,0.5926
682.0,0.5919
683.0,0.5907
684.0,0.5878
685.0,0.593
686.0,0.5893
687.0,0.3491
688.0,0.4283
689.0,0.4305
690.0,0.4583
691.0,0.4902
692.0,0.5143
693.0,0.5096
694.0,0.5058
695.0,0.532
696.0,0.5329
697.0,0.5719
698.0,0.5628
699.0,0.5452
700.0,0.5384
701.0,0.5314
702.0,0.5367
703.0,0.538
704.0,0.5577
705.0,0.5585
706.0,0.559
707.0,0.5599
708.0,0.5609
709.0,0.5634
710.0,0.5625
711.0,0.5624
712.0,0.5614
713.0,0.5551
714.0,0.5573
715.0,0.5381
716.0,0.5379
717.0,0.4511
718.0,0.4125
719.0,0.3766
720.0,0.393
721.0,0.443
722.0,0.5166
723.0,0.476
724.0,0.4229
725.0,0.4141
726.0,0.4342
727.0,0.4442
728.0,0.4123
729.0,0.4332
730.0,0.4578
731.0,0.4366
732.0,0.4728
733.0,0.5059
734.0,0.5195
735.0,0.5079
736.0,0.5072
737.0,0.5091
738.0,0.5209
739.0,0.5106
740.0,0.5252
741.0,0.5207
742.0,0.5219
743.0,0.5354
744.0,0.5343
745.0,0.5348
746.0,0.5372
747.0,0.5385
748.0,0.5374
749.0,0.5313
750.0,0.531
751.0,0.5257
752.0,0.528
753.0,0.5307
754.0,0.5319
755.0,0.5289
756.0,0.5287
757.0,0.5294
758.0,0.5228
759.0,0.5097
760.0,0.05138
761.0,0.02255
762.0,0.217
763.0,0.08851
764.0,0.1497
765.0,0.2168
766.0,0.2856
767.0,0.3815
768.0,0.4583
769.0,0.472
770.0,0.4928
771.0,0.4989
772.0,0.5006
773.0,0.5043
774.0,0.502
775.0,0.4983
776.0,0.5044
777.0,0.4978
778.0,0.4947
779.0,0.4952
780.0,0.4924
781.0,0.493
782.0,0.4961
783.0,0.4875
784.0,0.4899
785.0,0.4861
786.0,0.4913
787.0,0.4809
788.0,0.474
789.0,0.4736
790.0,0.4584
791.0,0.465
792.0,0.4619
793.0,0.4542
794.0,0.4647
795.0,0.4718
796.0,0.4536
797.0,0.454
798.0,0.4708
799.0,0.4671
800.0,0.4581
801.0,0.4559
802.0,0.4545
803.0,0.4506
804.0,0.4517
805.0,0.4513
806.0,0.4658
807.0,0.4598
808.0,0.4604
809.0,0.4503
810.0,0.4457
811.0,0.4443
812.0,0.4292
813.0,0.4189
814.0,0.3609
815.0,0.3591
816.0,0.3334
817.0,0.3402
818.0,0.3257
819.0,0.3707
820.0,0.3466
821.0,0.4146
822.0,0.4012
823.0,0.2584
824.0,0.3861
825.0,0.4072
826.0,0.3888
827.0,0.4134
828.0,0.3416
829.0,0.3871
830.0,0.3812
831.0,0.3827
832.0,0.3693
833.0,0.3972
834.0,0.3802
835.0,0.4242
836.0,0.4018
837.0,0.4256
838.0,0.4102
839.0,0.4196
840.0,0.4293
841.0,0.4223
842.0,0.4246
843.0,0.4259
844.0,0.4192
845.0,0.4344
846.0,0.4327
847.0,0.4251
848.0,0.4218
849.0,0.4098
850.0,0.3927
851.0,0.4151
852.0,0.4125
853.0,0.3976
854.0,0.3428
855.0,0.3773
856.0,0.4121
857.0,0.4217
858.0,0.4184
859.0,0.4191
860.0,0.42
861.0,0.4176
862.0,0.4243
863.0,0.4343
864.0,0.4127
865.0,0.4091
866.0,0.3679
867.0,0.3839
868.0,0.4178
869.0,0.4091
870.0,0.4208
871.0,0.4151
872.0,0.4137
873.0,0.4128
874.0,0.4079
875.0,0.3996
876.0,0.4038
877.0,0.4079
878.0,0.4122
879.0,0.4059
880.0,0.3972
881.0,0.3909
882.0,0.3992
883.0,0.4008
884.0,0.3989
885.0,0.4019
886.0,0.3818
887.0,0.3868
888.0,0.3919
889.0,0.3974
890.0,0.3928
891.0,0.3928
892.0,0.3798
893.0,0.3661
894.0,0.3496
895.0,0.3257
896.0,0.3054
897.0,0.2567
898.0,0.2831
899.0,0.2089
900.0,0.2934
901.0,0.2189
902.0,0.2657
903.0,0.2653
904.0,0.3469
905.0,0.3332
906.0,0.3103
907.0,0.2433
908.0,0.2497
909.0,0.2742
910.0,0.2354
911.0,0.2558
912.0,0.2684
913.0,0.2385
914.0,0.2379
915.0,0.2577
916.0,0.2168
917.0,0.2824
918.0,0.2218
919.0,0.2898
920.0,0.2973
921.0,0.3094
922.0,0.2714
923.0,0.2993
924.0,0.2771
925.0,0.2713
926.0,0.2737
927.0,0.3116
928.0,0.2138
929.0,0.1912
930.0,0.1441
931.0,0.1371
932.0,0.09237
933.0,0.07211
934.0,0.03349
935.0,0.0762
936.0,0.04362
937.0,0.04391
938.0,0.05546
939.0,0.1327
940.0,0.1642
941.0,0.1179
942.0,0.14
943.0,0.08742
944.0,0.0966
945.0,0.1229
946.0,0.05635
947.0,0.1217
948.0,0.08873
949.0,0.1691
950.0,0.0382
951.0,0.1675
952.0,0.08207
953.0,0.1112
954.0,0.1423
955.0,0.1131
956.0,0.1145
957.0,0.0816
958.0,0.1697
959.0,0.1278
960.0,0.1432
961.0,0.1663
962.0,0.1569
963.0,0.1857
964.0,0.1687
965.0,0.1852
966.0,0.1843
967.0,0.1829
968.0,0.2635
969.0,0.273
970.0,0.2488
971.0,0.2928
972.0,0.2784
973.0,0.2343
974.0,0.2215
975.0,0.2328
976.0,0.2166
977.0,0.2555
978.0,0.239
979.0,0.2527
980.0,0.2362
981.0,0.2913
982.0,0.2756
983.0,0.2629
984.0,0.3037
985.0,0.2745
986.0,0.3113
987.0,0.3026
988.0,0.3022
989.0,0.3117
990.0,0.3003
991.0,0.3124
992.0,0.3144
993.0,0.3049
994.0,0.3146
995.0,0.3146
996.0,0.3128
997.0,0.3135
998.0,0.3118
999.0,0.3108
1000.0,0.308
1001.0,0.3125
1002.0,0.3015
1003.0,0.3069
1004.0,0.2987
1005.0,0.2887
1006.0,0.2995
1007.0,0.3061
1008.0,0.304
1009.0,0.3019
1010.0,0.3003
1011.0,0.3046
1012.0,0.3015
1013.0,0.304
1014.0,0.3018
1015.0,0.2998
1016.0,0.2984
1017.0,0.299
1018.0,0.2982
1019.0,0.2909
1020.0,0.2965
1021.0,0.2963
1022.0,0.2936
1023.0,0.2967
1024.0,0.2918
1025.0,0.2968
1026.0,0.2953
1027.0,0.2946
1028.0,0.2939
1029.0,0.2904
1030.0,0.2927
1031.0,0.2914
1032.0,0.2907
1033.0,0.2863
1034.0,0.2863
1035.0,0.2872
1036.0,0.2886
1037.0,0.2839
1038.0,0.2851
1039.0,0.2849
1040.0,0.2838
1041.0,0.2848
1042.0,0.2828
1043.0,0.2819
1044.0,0.2828
1045.0,0.2789
1046.0,0.2758
1047.0,0.2782
1048.0,0.2796
1049.0,0.2785
1050.0,0.2772
1051.0,0.2767
1052.0,0.2755
1053.0,0.2732
1054.0,0.2736
1055.0,0.2736
1056.0,0.2725
1057.0,0.2716
1058.0,0.2647
1059.0,0.2649
1060.0,0.2644
1061.0,0.264
1062.0,0.2652
1063.0,0.2625
1064.0,0.2657
1065.0,0.2634
1066.0,0.2585
1067.0,0.2617
1068.0,0.2557
1069.0,0.248
1070.0,0.2562
1071.0,0.261
1072.0,0.2574
1073.0,0.2538
1074.0,0.2613
1075.0,0.2457
1076.0,0.2609
1077.0,0.2549
1078.0,0.2494
1079.0,0.2572
1080.0,0.251
1081.0,0.2417
1082.0,0.2477
1083.0,0.249
1084.0,0.2405
1085.0,0.2518
1086.0,0.2262
1087.0,0.2359
1088.0,0.2483
1089.0,0.2383
1090.0,0.2317
1091.0,0.2469
1092.0,0.2468
1093.0,0.2026
1094.0,0.2249
1095.0,0.2117
1096.0,0.2008
1097.0,0.2411
1098.0,0.1968
1099.0,0.2063
1100.0,0.1891
1101.0,0.1923
1102.0,0.1819
1103.0,0.1788
1104.0,0.1792
1105.0,0.201
1106.0,0.143
1107.0,0.1888
1108.0,0.1537
1109.0,0.1552
1110.0,0.1861
1111.0,0.1178
1112.0,0.1545
1113.0,0.08996
1114.0,0.1011
1115.0,0.08336
1116.0,0.06188
1117.0,0.01825
1118.0,0.06869
1119.0,0.03018
1120.0,0.03754
1121.0,0.05203
1122.0,0.01871
1123.0,0.0341
1124.0,0.02873
1125.0,0.03845
1126.0,0.01035
1127.0,0.04366
1128.0,0.02269
1129.0,0.02447
1130.0,0.01515
1131.0,0.09177
1132.0,0.07026
1133.0,0.03968
1134.0,0.007868
1135.0,0.003096
1136.0,0.03145
1137.0,0.08833
1138.0,0.06137
1139.0,0.1017
1140.0,0.08105
1141.0,0.05842
1142.0,0.06913
1143.0,0.1025
1144.0,0.03121
1145.0,0.03832
1146.0,0.04127
1147.0,0.01148
1148.0,0.08831
1149.0,0.06761
1150.0,0.0343
1151.0,0.06086
1152.0,0.0784
1153.0,0.07913
1154.0,0.03704
1155.0,0.1059
1156.0,0.09331
1157.0,0.1084
1158.0,0.1072
1159.0,0.118
1160.0,0.09852
1161.0,0.127
1162.0,0.1271
1163.0,0.1815
1164.0,0.1522
1165.0,0.14
1166.0,0.1418
1167.0,0.1562
1168.0,0.1571
1169.0,0.1619
1170.0,0.1789
1171.0,0.1742
1172.0,0.1793
1173.0,0.1786
1174.0,0.1206
1175.0,0.176
1176.0,0.1973
1177.0,0.1868
1178.0,0.1351
1179.0,0.199
1180.0,0.1735
1181.0,0.1792
1182.0,0.1179
1183.0,0.1774
1184.0,0.1643
1185.0,0.1568
1186.0,0.1917
1187.0,0.1808
1188.0,0.119
1189.0,0.1681
1190.0,0.1876
1191.0,0.1747
1192.0,0.1906
1193.0,0.1815
1194.0,0.1878
1195.0,0.1753
1196.0,0.1674
1197.0,0.189
1198.0,0.1716
1199.0,0.141
1200.0,0.1791
1201.0,0.1709
1202.0,0.1713
1203.0,0.1692
1204.0,0.1457
1205.0,0.1767
1206.0,0.1977
1207.0,0.1702
1208.0,0.169
1209.0,0.1728
1210.0,0.1812
1211.0,0.1707
1212.0,0.1661
1213.0,0.19
1214.0,0.1711
1215.0,0.1675
1216.0,0.1896
1217.0,0.1837
1218.0,0.188
1219.0,0.1851
1220.0,0.1883
1221.0,0.1907
1222.0,0.1853
1223.0,0.1831
1224.0,0.1811
1225.0,0.1894
1226.0,0.1913
1227.0,0.174
1228.0,0.1928
1229.0,0.1913
1230.0,0.1876
1231.0,0.1946
1232.0,0.1934
1233.0,0.1846
1234.0,0.1949
1235.0,0.1933
1236.0,0.195
1237.0,0.1914
1238.0,0.1944
1239.0,0.1918
1240.0,0.1927
1241.0,0.1912
1242.0,0.1913
1243.0,0.1898
1244.0,0.1909
1245.0,0.1919
1246.0,0.1908
1247.0,0.1899
1248.0,0.1895
1249.0,0.1903
1250.0,0.189
1251.0,0.1862
1252.0,0.1867
1253.0,0.1844
1254.0,0.182
1255.0,0.1863
1256.0,0.1797
1257.0,0.1784
1258.0,0.1829
1259.0,0.1741
1260.0,0.1752
1261.0,0.1627
1262.0,0.1564
1263.0,0.1567
1264.0,0.1414
1265.0,0.1557
1266.0,0.1479
1267.0,0.1519
1268.0,0.1419
1269.0,0.07545
1270.0,0.1508
1271.0,0.1625
1272.0,0.1634
1273.0,0.1613
1274.0,0.1622
1275.0,0.1651
1276.0,0.1672
1277.0,0.169
1278.0,0.1733
1279.0,0.1716
1280.0,0.1696
1281.0,0.1623
1282.0,0.1572
1283.0,0.1692
1284.0,0.173
1285.0,0.1743
1286.0,0.1771
1287.0,0.1735
1288.0,0.1737
1289.0,0.1666
1290.0,0.1723
1291.0,0.175
1292.0,0.1614
1293.0,0.1709
1294.0,0.1696
1295.0,0.1678
1296.0,0.1583
1297.0,0.1483
1298.0,0.1627
1299.0,0.1714
1300.0,0.1401
1301.0,0.1453
1302.0,0.1622
1303.0,0.1388
1304.0,0.1137
1305.0,0.1586
1306.0,0.1582
1307.0,0.1179
1308.0,0.1398
1309.0,0.1563
1310.0,0.1153
1311.0,0.1329
1312.0,0.1286
1313.0,0.1252
1314.0,0.1104
1315.0,0.1079
1316.0,0.13
1317.0,0.1225
1318.0,0.1351
1319.0,0.1
1320.0,0.09811
1321.0,0.1162
1322.0,0.1164
1323.0,0.08302
1324.0,0.09831
1325.0,0.1276
1326.0,0.1067
1327.0,0.101
1328.0,0.08554
1329.0,0.06028
1330.0,0.08049
1331.0,0.04417
1332.0,0.047
1333.0,0.06631
1334.0,0.05878
1335.0,0.08247
1336.0,0.06276
1337.0,0.05455
1338.0,0.05887
1339.0,0.05925
1340.0,0.05891
1341.0,0.05452
1342.0,0.05759
1343.0,0.03374
1344.0,0.02066
1345.0,0.02972
1346.0,0.01189
1347.0,0.01159
1348.0,0.0004673
1349.0,0.0019
1350.0,0.002156
1351.0,0.0003382
1352.0,5.359e-05
1353.0,1.716e-06
1354.0,8.33e-06
1355.0,2.365e-08
1356.0,8.204e-07
1357.0,1.254e-06
1358.0,2.921e-08
1359.0,1.674e-09
1360.0,1.005e-08
1361.0,2.628e-12
1362.0,4.789e-15
1363.0,9.86e-09
1364.0,4.235e-09
1365.0,1.106e-15
1366.0,5.271e-08
1367.0,2.683e-08
1368.0,6.428e-18
1369.0,1.552e-09
1370.0,5.532e-10
1371.0,2.257e-11
1372.0,1.506e-08
1373.0,5.071e-07
1374.0,3.414e-06
1375.0,5.797e-06
1376.0,7.675e-06
1377.0,3.272e-06
1378.0,3.563e-05
1379.0,1.382e-06
1380.0,1.535e-06
1381.0,3.396e-08
1382.0,1.226e-08
1383.0,1.468e-10
1384.0,1.514e-09
1385.0,1.748e-08
1386.0,8.509e-09
1387.0,2.663e-06
1388.0,5.922e-08
1389.0,1.426e-05
1390.0,1.19e-05
1391.0,7.566e-06
1392.0,4.611e-07
1393.0,2.946e-06
1394.0,7.886e-07
1395.0,4.138e-09
1396.0,4.423e-12
1397.0,1.017e-06
1398.0,3.779e-05
1399.0,2.459e-05
1400.0,1.344e-12
1401.0,9.051e-12
1402.0,0.0001221
1403.0,0.0001365
1404.0,3.935e-05
1405.0,1.504e-09
1406.0,8.384e-05
1407.0,9.195e-06
1408.0,7.137e-05
1409.0,1.75e-05
1410.0,1.82e-05
1411.0,0.000123
1412.0,0.0001931
1413.0,0.00296
1414.0,1.505e-05
1415.0,6.3e-06
1416.0,0.006507
1417.0,0.001514
1418.0,0.001574
1419.0,0.0002296
1420.0,0.000952
1421.0,0.001087
1422.0,0.008549
1423.0,0.001556
1424.0,0.003075
1425.0,0.004218
1426.0,0.005449
1427.0,0.01143
1428.0,0.0004177
1429.0,0.007757
1430.0,0.01533
1431.0,0.01738
1432.0,0.0003227
1433.0,0.01036
1434.0,0.004933
