interpolation:linear
wavelength,value
280.0,1.3550000000000001e-20
280.5,4.02e-19
281.0,2.084e-18
281.5,4.287e-19
282.0,1.544e-18
282.5,4.194e-18
283.0,1.371e-17
283.5,2.249e-17
284.0,3.573e-16
284.5,1.016e-15
285.0,1.896e-15
285.5,1.035e-14
286.0,4.255e-14
286.5,1.94e-13
287.0,5.572e-13
287.5,2.128e-12
288.0,5.764e-12
288.5,2.137e-11
289.0,6.686e-11
289.5,2.322e-10
290.0,7.115e-10
290.5,1.566e-09
291.0,3.658e-09
291.5,1.16e-08
292.0,3.005e-08
292.5,4.767e-08
293.0,1.2e-07
293.5,3.664e-07
294.0,6.795e-07
294.5,9.087e-07
295.0,1.824e-06
295.5,4.868e-06
296.0,9.566e-06
296.5,1.363e-05
297.0,1.872e-05
297.5,5.134e-05
298.0,8.247e-05
298.5,8.423e-05
299.0,0.0001885
299.5,0.0003209
300.0,0.0003586
300.5,0.0005283
301.0,0.0009844
301.5,0.001619
302.0,0.001412
302.5,0.002714
303.0,0.004768
303.5,0.005915
304.0,0.005496
304.5,0.007962
305.0,0.01157
305.5,0.01291
306.0,0.01236
306.5,0.01513
307.0,0.02161
307.5,0.0277
308.0,0.02908
308.5,0.03373
309.0,0.03283
309.5,0.03663
310.0,0.03637
310.5,0.05857
311.0,0.0728
311.5,0.06998
312.0,0.06848
312.5,0.08214
313.0,0.08842
313.5,0.08648
314.0,0.1062
314.5,0.09204
315.0,0.1204
315.5,0.1019
316.0,0.08732
316.5,0.1233
317.0,0.1532
317.5,0.1602
318.0,0.1235
318.5,0.1501
319.0,0.1761
319.5,0.1462
320.0,0.1771
320.5,0.2167
321.0,0.1891
321.5,0.1809
322.0,0.1971
322.5,0.1713
323.0,0.1682
323.5,0.2039
324.0,0.2375
324.5,0.2425
325.0,0.2111
325.5,0.2683
326.0,0.327
326.5,0.3249
327.0,0.3248
327.5,0.3148
328.0,0.2832
328.5,0.294
329.0,0.3485
329.5,0.3944
330.0,0.3989
330.5,0.3217
331.0,0.3286
331.5,0.3321
332.0,0.3558
332.5,0.3506
333.0,0.3504
333.5,0.3191
334.0,0.3273
334.5,0.375
335.0,0.3509
335.5,0.4099
336.0,0.2836
336.5,0.3328
337.0,0.2739
337.5,0.341
338.0,0.331
338.5,0.382
339.0,0.3781
339.5,0.3637
340.0,0.4275
340.5,0.3852
341.0,0.3757
341.5,0.3449
342.0,0.4121
342.5,0.3856
343.0,0.4241
343.5,0.3995
344.0,0.2952
344.5,0.2982
345.0,0.3946
345.5,0.4028
346.0,0.3423
346.5,0.3876
347.0,0.4162
347.5,0.3365
348.0,0.3836
348.5,0.3834
349.0,0.3557
349.5,0.3522
350.0,0.4356
350.5,0.4595
351.0,0.4105
351.5,0.3991
352.0,0.4286
352.5,0.3345
353.0,0.4213
353.5,0.4505
354.0,0.4676
354.5,0.4743
355.0,0.4728
355.5,0.4271
356.0,0.4469
356.5,0.3816
357.0,0.3153
357.5,0.3861
358.0,0.306
358.5,0.2615
359.0,0.3658
359.5,0.4662
360.0,0.4942
360.5,0.395
361.0,0.3601
361.5,0.4147
362.0,0.3586
362.5,0.4963
363.0,0.4458
363.5,0.4107
364.0,0.5023
364.5,0.4294
365.0,0.4373
365.5,0.5489
366.0,0.5816
366.5,0.5465
367.0,0.5323
367.5,0.5524
368.0,0.4835
368.5,0.4879
369.0,0.5269
369.5,0.5617
370.0,0.5988
370.5,0.4648
371.0,0.4967
371.5,0.6214
372.0,0.4125
372.5,0.4946
373.0,0.5032
373.5,0.3274
374.0,0.4758
374.5,0.3941
375.0,0.3831
375.5,0.5721
376.0,0.4743
376.5,0.4915
377.0,0.5204
377.5,0.6089
378.0,0.6602
378.5,0.624
379.0,0.515
379.5,0.4705
380.0,0.4892
380.5,0.5926
381.0,0.5939
381.5,0.4708
382.0,0.4182
382.5,0.3565
383.0,0.3301
383.5,0.318
384.0,0.3508
384.5,0.516
385.0,0.5118
385.5,0.4766
386.0,0.4083
386.5,0.5363
387.0,0.4457
387.5,0.5007
388.0,0.4623
388.5,0.457
389.0,0.4934
389.5,0.5977
390.0,0.5999
390.5,0.5521
391.0,0.65
391.5,0.663
392.0,0.5585
392.5,0.5
393.0,0.2783
393.5,0.2023
394.0,0.4117
394.5,0.5234
395.0,0.6388
395.5,0.649
396.0,0.5627
396.5,0.329
397.0,0.2469
397.5,0.5022
398.0,0.7033
398.5,0.727
399.0,0.7873
399.5,0.7848
400.0,0.815
401.0,0.8274
402.0,0.8731
403.0,0.8295
404.0,0.8168
405.0,0.8168
406.0,0.8036
407.0,0.7907
408.0,0.8217
409.0,0.8796
410.0,0.7686
411.0,0.8326
412.0,0.8943
413.0,0.8723
414.0,0.883
415.0,0.8854
416.0,0.901
417.0,0.8789
418.0,0.8628
419.0,0.8741
420.0,0.8704
421.0,0.9106
422.0,0.8656
423.0,0.8456
424.0,0.8944
425.0,0.8928
426.0,0.8697
427.0,0.8535
428.0,0.8315
429.0,0.7876
430.0,0.6893
431.0,0.6833
432.0,0.8822
433.0,0.8871
434.0,0.8238
435.0,0.8604
436.0,0.9694
437.0,0.9563
438.0,0.8709
439.0,0.9009
440.0,0.9296
441.0,0.9632
442.0,1.033
443.0,1.006
444.0,1.028
445.0,1.006
446.0,0.9599
447.0,1.038
448.0,1.054
449.0,1.058
450.0,1.088
451.0,1.128
452.0,1.087
453.0,1.022
454.0,1.067
455.0,1.074
456.0,1.099
457.0,1.117
458.0,1.079
459.0,1.074
460.0,1.077
461.0,1.102
462.0,1.11
463.0,1.102
464.0,1.084
465.0,1.07
466.0,1.08
467.0,1.061
468.0,1.073
469.0,1.079
470.0,1.045
471.0,1.043
472.0,1.099
473.0,1.085
474.0,1.087
475.0,1.096
476.0,1.064
477.0,1.067
478.0,1.096
479.0,1.09
480.0,1.091
481.0,1.112
482.0,1.117
483.0,1.104
484.0,1.081
485.0,1.03
486.0,0.9
487.0,0.9431
488.0,1.035
489.0,1.038
490.0,1.092
491.0,1.073
492.0,1.013
493.0,1.046
494.0,1.057
495.0,1.066
496.0,1.072
497.0,1.089
498.0,1.038
499.0,1.052
500.0,1.021
501.0,1.002
502.0,0.9886
503.0,1.029
504.0,1.004
505.0,1.039
506.0,1.073
507.0,1.021
508.0,0.9886
509.0,1.016
510.0,1.011
511.0,1.038
512.0,1.049
513.0,0.9926
514.0,0.9858
515.0,0.9759
516.0,0.9736
517.0,0.865
518.0,0.9095
519.0,0.9539
520.0,0.9887
521.0,0.9981
522.0,0.999
523.0,0.9811
524.0,1.016
525.0,1.028
526.0,0.9825
527.0,0.926
528.0,0.9795
529.0,1.033
530.0,1.018
531.0,1.033
532.0,0.9975
533.0,0.9682
534.0,0.9968
535.0,1.018
536.0,1.028
537.0,0.9871
538.0,1.005
539.0,0.9961
540.0,0.955
541.0,0.9616
542.0,0.9918
543.0,0.9812
544.0,0.9984
545.0,0.9953
546.0,0.9998
547.0,0.9992
548.0,0.9872
549.0,0.9901
550.0,1.002
551.0,0.9897
552.0,0.9965
553.0,0.9788
554.0,1.002
555.0,1.004
556.0,0.9912
557.0,0.9605
558.0,0.9534
559.0,0.9357
560.0,0.9474
561.0,0.9598
562.0,0.953
563.0,0.9792
564.0,0.9526
565.0,0.9445
566.0,0.9307
567.0,0.9485
568.0,0.9404
569.0,0.9187
570.0,0.9183
571.0,0.9126
572.0,0.935
573.0,0.9451
574.0,0.9421
575.0,0.9247
576.0,0.9162
577.0,0.9261
578.0,0.9121
579.0,0.9154
580.0,0.9323
581.0,0.9368
582.0,0.9542
583.0,0.9563
584.0,0.9644
585.0,0.9408
586.0,0.9214
587.0,0.9418
588.0,0.9197
589.0,0.8165
590.0,0.8537
591.0,0.9024
592.0,0.8916
593.0,0.904
594.0,0.8981
595.0,0.8765
596.0,0.9097
597.0,0.9002
598.0,0.8975
599.0,0.8981
600.0,0.8991
601.0,0.8915
602.0,0.8854
603.0,0.8999
604.0,0.9148
605.0,0.91
606.0,0.9061
607.0,0.9149
608.0,0.9047
609.0,0.9061
610.0,0.8995
611.0,0.9041
612.0,0.9014
613.0,0.89
614.0,0.8777
615.0,0.8967
616.0,0.8671
617.0,0.8653
618.0,0.8985
619.0,0.8894
620.0,0.895
621.0,0.896
622.0,0.8856
623.0,0.8722
624.0,0.8572
625.0,0.8553
626.0,0.8679
627.0,0.8779
628.0,0.8233
629.0,0.8583
630.0,0.8387
631.0,0.8564
632.0,0.846
633.0,0.8713
634.0,0.8624
635.0,0.8757
636.0,0.8639
637.0,0.8779
638.0,0.886
639.0,0.876
640.0,0.8673
641.0,0.8667
642.0,0.8626
643.0,0.8742
644.0,0.8712
645.0,0.8727
646.0,0.8528
647.0,0.8435
648.0,0.8444
649.0,0.8281
650.0,0.831
651.0,0.8667
652.0,0.8319
653.0,0.8552
654.0,0.8456
655.0,0.8147
656.0,0.7216
657.0,0.741
658.0,0.8301
659.0,0.8359
660.0,0.8393
661.0,0.8451
662.0,0.8471
663.0,0.8302
664.0,0.8397
665.0,0.8402
666.0,0.8407
667.0,0.8398
668.0,0.84
669.0,0.853
670.0,0.8492
671.0,0.849
672.0,0.8417
673.0,0.8543
674.0,0.851
675.0,0.8432
676.0,0.849
677.0,0.8405
678.0,0.8429
679.0,0.8292
680.0,0.8358
681.0,0.8303
682.0,0.8292
683.0,0.8276
684.0,0.8235
685.0,0.8305
686.0,0.8256
687.0,0.5626
688.0,0.6524
689.0,0.6546
690.0,0.6843
691.0,0.7176
692.0,0.7416
693.0,0.7358
694.0,0.7296
695.0,0.7581
696.0,0.7591
697.0,0.8034
698.0,0.7909
699.0,0.7735
700.0,0.7641
701.0,0.7569
702.0,0.7615
703.0,0.7629
704.0,0.7865
705.0,0.7877
706.0,0.7866
707.0,0.7871
708.0,0.7888
709.0,0.7894
710.0,0.7896
711.0,0.7884
712.0,0.7858
713.0,0.7781
714.0,0.781
715.0,0.7569
716.0,0.7574
717.0,0.6622
718.0,0.6091
719.0,0.5584
720.0,0.5854
721.0,0.643
722.0,0.7321
723.0,0.6834
724.0,0.6178
725.0,0.6086
726.0,0.6367
727.0,0.6445
728.0,0.6073
729.0,0.6281
730.0,0.6647
731.0,0.6365
732.0,0.6789
733.0,0.7167
734.0,0.7332
735.0,0.7183
736.0,0.7174
737.0,0.7203
738.0,0.7301
739.0,0.7157
740.0,0.734
741.0,0.7264
742.0,0.7269
743.0,0.7453
744.0,0.7431
745.0,0.7431
746.0,0.7465
747.0,0.7481
748.0,0.7465
749.0,0.738
750.0,0.7375
751.0,0.7301
752.0,0.7332
753.0,0.7369
754.0,0.7385
755.0,0.7344
756.0,0.734
757.0,0.7351
758.0,0.726
759.0,0.712
760.0,0.1312
761.0,0.0713
762.0,0.3777
763.0,0.196
764.0,0.2883
765.0,0.3778
766.0,0.4577
767.0,0.5713
768.0,0.6544
769.0,0.6671
770.0,0.6885
771.0,0.6936
772.0,0.6948
773.0,0.6997
774.0,0.6962
775.0,0.6909
776.0,0.6993
777.0,0.6901
778.0,0.6859
779.0,0.6865
780.0,0.6826
781.0,0.6833
782.0,0.6876
783.0,0.6756
784.0,0.6788
785.0,0.6738
786.0,0.6813
787.0,0.6699
788.0,0.6618
789.0,0.6617
790.0,0.6448
791.0,0.6496
792.0,0.6448
793.0,0.6344
794.0,0.6445
795.0,0.6556
796.0,0.6365
797.0,0.6373
798.0,0.6549
799.0,0.6509
800.0,0.6398
801.0,0.6381
802.0,0.6362
803.0,0.6315
804.0,0.6323
805.0,0.63
806.0,0.6472
807.0,0.6395
808.0,0.64
809.0,0.6284
810.0,0.6235
811.0,0.6248
812.0,0.6076
813.0,0.5954
814.0,0.5262
815.0,0.5229
816.0,0.487
817.0,0.4956
818.0,0.4776
819.0,0.5319
820.0,0.5017
821.0,0.5837
822.0,0.5674
823.0,0.3903
824.0,0.5519
825.0,0.5736
826.0,0.5527
827.0,0.5824
828.0,0.4963
829.0,0.5492
830.0,0.5423
831.0,0.5441
832.0,0.5278
833.0,0.5604
834.0,0.5413
835.0,0.593
836.0,0.5686
837.0,0.5945
838.0,0.5765
839.0,0.5855
840.0,0.5982
841.0,0.5899
842.0,0.5909
843.0,0.5902
844.0,0.5822
845.0,0.6016
846.0,0.5989
847.0,0.5877
848.0,0.5842
849.0,0.5676
850.0,0.5438
851.0,0.5758
852.0,0.5717
853.0,0.5502
854.0,0.4752
855.0,0.5219
856.0,0.5704
857.0,0.5831
858.0,0.5788
859.0,0.5793
860.0,0.5802
861.0,0.5771
862.0,0.5861
863.0,0.6
864.0,0.57
865.0,0.565
866.0,0.508
867.0,0.5301
868.0,0.5769
869.0,0.5649
870.0,0.581
871.0,0.5731
872.0,0.5711
873.0,0.5699
874.0,0.5632
875.0,0.5517
876.0,0.5575
877.0,0.5631
878.0,0.5692
879.0,0.5605
880.0,0.5485
881.0,0.5403
882.0,0.552
883.0,0.5537
884.0,0.5512
885.0,0.5553
886.0,0.5294
887.0,0.5349
888.0,0.5429
889.0,0.5489
890.0,0.5445
891.0,0.5435
892.0,0.528
893.0,0.5117
894.0,0.4942
895.0,0.4675
896.0,0.4407
897.0,0.3793
898.0,0.4135
899.0,0.3154
900.0,0.4229
901.0,0.3306
902.0,0.3867
903.0,0.391
904.0,0.4904
905.0,0.4738
906.0,0.4436
907.0,0.3616
908.0,0.3685
909.0,0.3987
910.0,0.3535
911.0,0.3763
912.0,0.3932
913.0,0.3588
914.0,0.3556
915.0,0.3854
916.0,0.3265
917.0,0.4134
918.0,0.3348
919.0,0.4207
920.0,0.4245
921.0,0.4415
922.0,0.3953
923.0,0.4264
924.0,0.4052
925.0,0.3963
926.0,0.4007
927.0,0.448
928.0,0.3301
929.0,0.3017
930.0,0.2375
931.0,0.2249
932.0,0.1624
933.0,0.1321
934.0,0.07276
935.0,0.1351
936.0,0.08452
937.0,0.08568
938.0,0.1053
939.0,0.2179
940.0,0.2619
941.0,0.198
942.0,0.2291
943.0,0.1508
944.0,0.1587
945.0,0.2041
946.0,0.1041
947.0,0.2051
948.0,0.1507
949.0,0.2743
950.0,0.07646
951.0,0.2701
952.0,0.1453
953.0,0.1875
954.0,0.2298
955.0,0.1897
956.0,0.184
957.0,0.1456
958.0,0.2606
959.0,0.2072
960.0,0.2322
961.0,0.2606
962.0,0.2465
963.0,0.2841
964.0,0.2603
965.0,0.2831
966.0,0.2831
967.0,0.2819
968.0,0.3777
969.0,0.3946
970.0,0.3624
971.0,0.4147
972.0,0.3967
973.0,0.3455
974.0,0.3279
975.0,0.3404
976.0,0.3233
977.0,0.3678
978.0,0.3494
979.0,0.3659
980.0,0.3441
981.0,0.4123
982.0,0.3943
983.0,0.3785
984.0,0.4248
985.0,0.3928
986.0,0.4322
987.0,0.4238
988.0,0.423
989.0,0.4309
990.0,0.4205
991.0,0.4322
992.0,0.4347
993.0,0.425
994.0,0.4345
995.0,0.434
996.0,0.4321
997.0,0.4327
998.0,0.4307
999.0,0.4291
1000.0,0.4261
1001.0,0.4314
1002.0,0.4195
1003.0,0.4238
1004.0,0.4134
1005.0,0.3982
1006.0,0.4138
1007.0,0.4226
1008.0,0.4203
1009.0,0.418
1010.0,0.4163
1011.0,0.4204
1012.0,0.4168
1013.0,0.4194
1014.0,0.4165
1015.0,0.4137
1016.0,0.4118
1017.0,0.4129
1018.0,0.4113
1019.0,0.4026
1020.0,0.4092
1021.0,0.4086
1022.0,0.4054
1023.0,0.4097
1024.0,0.4044
1025.0,0.4095
1026.0,0.4077
1027.0,0.4068
1028.0,0.4059
1029.0,0.4011
1030.0,0.4039
1031.0,0.4022
1032.0,0.4011
1033.0,0.395
1034.0,0.3951
1035.0,0.3963
1036.0,0.3983
1037.0,0.3919
1038.0,0.3936
1039.0,0.3934
1040.0,0.3918
1041.0,0.3933
1042.0,0.3906
1043.0,0.3894
1044.0,0.3907
1045.0,0.3854
1046.0,0.3812
1047.0,0.3846
1048.0,0.3867
1049.0,0.3853
1050.0,0.3835
1051.0,0.383
1052.0,0.3814
1053.0,0.3784
1054.0,0.3792
1055.0,0.3794
1056.0,0.3781
1057.0,0.3769
1058.0,0.3677
1059.0,0.3681
1060.0,0.3675
1061.0,0.3671
1062.0,0.369
1063.0,0.3653
1064.0,0.3697
1065.0,0.367
1066.0,0.3597
1067.0,0.3644
1068.0,0.3564
1069.0,0.3454
1070.0,0.3571
1071.0,0.3627
1072.0,0.3585
1073.0,0.3533
1074.0,0.3625
1075.0,0.3443
1076.0,0.3622
1077.0,0.3557
1078.0,0.349
1079.0,0.3564
1080.0,0.3502
1081.0,0.339
1082.0,0.3444
1083.0,0.3455
1084.0,0.3381
1085.0,0.351
1086.0,0.3203
1087.0,0.3306
1088.0,0.3451
1089.0,0.3345
1090.0,0.3272
1091.0,0.344
1092.0,0.3431
1093.0,0.2909
1094.0,0.3139
1095.0,0.3031
1096.0,0.2902
1097.0,0.3352
1098.0,0.2857
1099.0,0.298
1100.0,0.277
1101.0,0.2805
1102.0,0.2679
1103.0,0.2653
1104.0,0.2656
1105.0,0.2912
1106.0,0.2227
1107.0,0.2765
1108.0,0.2344
1109.0,0.2348
1110.0,0.2741
1111.0,0.1859
1112.0,0.233
1113.0,0.1482
1114.0,0.1657
1115.0,0.1374
1116.0,0.1096
1117.0,0.04013
1118.0,0.1193
1119.0,0.05907
1120.0,0.07435
1121.0,0.09876
1122.0,0.04145
1123.0,0.0672
1124.0,0.05672
1125.0,0.07402
1126.0,0.02565
1127.0,0.08351
1128.0,0.04983
1129.0,0.05289
1130.0,0.03474
1131.0,0.1587
1132.0,0.1244
1133.0,0.07868
1134.0,0.01999
1135.0,0.007499
1136.0,0.06557
1137.0,0.1558
1138.0,0.1097
1139.0,0.164
1140.0,0.1369
1141.0,0.1043
1142.0,0.12
1143.0,0.1706
1144.0,0.05943
1145.0,0.07589
1146.0,0.08185
1147.0,0.02865
1148.0,0.1476
1149.0,0.1178
1150.0,0.06393
1151.0,0.1089
1152.0,0.1341
1153.0,0.1308
1154.0,0.07353
1155.0,0.171
1156.0,0.154
1157.0,0.1728
1158.0,0.1709
1159.0,0.1844
1160.0,0.1576
1161.0,0.1941
1162.0,0.1951
1163.0,0.2631
1164.0,0.2258
1165.0,0.2132
1166.0,0.2116
1167.0,0.2304
1168.0,0.233
1169.0,0.2384
1170.0,0.2589
1171.0,0.2525
1172.0,0.2569
1173.0,0.2584
1174.0,0.1852
1175.0,0.2523
1176.0,0.2769
1177.0,0.2661
1178.0,0.2005
1179.0,0.2791
1180.0,0.2496
1181.0,0.2576
1182.0,0.1784
1183.0,0.2535
1184.0,0.2378
1185.0,0.2297
1186.0,0.2716
1187.0,0.2589
1188.0,0.1815
1189.0,0.2413
1190.0,0.2654
1191.0,0.2525
1192.0,0.269
1193.0,0.258
1194.0,0.2658
1195.0,0.2517
1196.0,0.2426
1197.0,0.2657
1198.0,0.2434
1199.0,0.2078
1200.0,0.2548
1201.0,0.246
1202.0,0.2444
1203.0,0.2424
1204.0,0.2124
1205.0,0.2498
1206.0,0.2755
1207.0,0.2438
1208.0,0.2398
1209.0,0.2446
1210.0,0.2546
1211.0,0.2428
1212.0,0.2403
1213.0,0.2666
1214.0,0.2459
1215.0,0.2413
1216.0,0.2658
1217.0,0.2589
1218.0,0.2636
1219.0,0.2605
1220.0,0.2639
1221.0,0.2664
1222.0,0.2596
1223.0,0.2572
1224.0,0.2558
1225.0,0.2647
1226.0,0.2663
1227.0,0.2462
1228.0,0.2676
1229.0,0.2664
1230.0,0.2619
1231.0,0.2691
1232.0,0.2675
1233.0,0.2587
1234.0,0.2687
1235.0,0.2671
1236.0,0.269
1237.0,0.2654
1238.0,0.2681
1239.0,0.2646
1240.0,0.2656
1241.0,0.2645
1242.0,0.2638
1243.0,0.2617
1244.0,0.2636
1245.0,0.2647
1246.0,0.2631
1247.0,0.2621
1248.0,0.262
1249.0,0.2628
1250.0,0.2612
1251.0,0.2579
1252.0,0.2579
1253.0,0.256
1254.0,0.2535
1255.0,0.2577
1256.0,0.2507
1257.0,0.2494
1258.0,0.2538
1259.0,0.245
1260.0,0.2463
1261.0,0.2329
1262.0,0.2262
1263.0,0.2266
1264.0,0.2098
1265.0,0.2252
1266.0,0.217
1267.0,0.2206
1268.0,0.2096
1269.0,0.1326
1270.0,0.2199
1271.0,0.2321
1272.0,0.2328
1273.0,0.2304
1274.0,0.231
1275.0,0.2343
1276.0,0.2365
1277.0,0.2379
1278.0,0.2423
1279.0,0.2401
1280.0,0.2371
1281.0,0.2261
1282.0,0.2177
1283.0,0.2345
1284.0,0.2402
1285.0,0.2417
1286.0,0.2449
1287.0,0.2413
1288.0,0.2412
1289.0,0.2339
1290.0,0.239
1291.0,0.2423
1292.0,0.2282
1293.0,0.2377
1294.0,0.2361
1295.0,0.2351
1296.0,0.2248
1297.0,0.2129
1298.0,0.2286
1299.0,0.238
1300.0,0.2024
1301.0,0.2084
1302.0,0.2279
1303.0,0.1996
1304.0,0.1711
1305.0,0.2233
1306.0,0.2233
1307.0,0.1745
1308.0,0.1998
1309.0,0.2217
1310.0,0.1712
1311.0,0.1918
1312.0,0.1867
1313.0,0.1832
1314.0,0.1643
1315.0,0.1623
1316.0,0.1889
1317.0,0.179
1318.0,0.1942
1319.0,0.1527
1320.0,0.1478
1321.0,0.1718
1322.0,0.1737
1323.0,0.1314
1324.0,0.1498
1325.0,0.1862
1326.0,0.1603
1327.0,0.153
1328.0,0.1321
1329.0,0.09972
1330.0,0.1296
1331.0,0.07873
1332.0,0.08113
1333.0,0.1128
1334.0,0.0953
1335.0,0.1309
1336.0,0.1038
1337.0,0.09188
1338.0,0.09943
1339.0,0.09893
1340.0,0.09609
1341.0,0.09412
1342.0,0.09884
1343.0,0.06745
1344.0,0.04036
1345.0,0.05818
1346.0,0.0292
1347.0,0.02974
1348.0,0.001991
1349.0,0.007091
1350.0,0.007321
1351.0,0.001831
1352.0,0.0005109
1353.0,2.704e-05
1354.0,9.104e-05
1355.0,7.926e-07
1356.0,1.325e-05
1357.0,2.017e-05
1358.0,9.359e-07
1359.0,1.251e-07
1360.0,4.373e-07
1361.0,5.531e-10
1362.0,1.597e-12
1363.0,6.033e-07
1364.0,2.506e-07
1365.0,6.007e-13
1366.0,2.598e-06
1367.0,1.053e-06
1368.0,5.321e-15
1369.0,9.4e-08
1370.0,4.754e-08
1371.0,2.784e-09
1372.0,5.795e-07
1373.0,1.127e-05
1374.0,5.105e-05
1375.0,9.296e-05
1376.0,8.182e-05
1377.0,3.77e-05
1378.0,0.0003653
1379.0,1.586e-05
1380.0,2.323e-05
1381.0,6.165e-07
1382.0,5.264e-07
1383.0,8.067e-09
1384.0,1.074e-07
1385.0,4.846e-07
1386.0,4.774e-07
1387.0,5.386e-05
1388.0,1.064e-06
1389.0,0.0001777
1390.0,0.000153
1391.0,0.0001026
1392.0,6.732e-06
1393.0,3.526e-05
1394.0,1.901e-05
1395.0,1.44e-07
1396.0,7.842e-10
1397.0,1.419e-05
1398.0,0.0004116
1399.0,0.000261
1400.0,3.501e-10
1401.0,1.395e-09
1402.0,0.0007033
1403.0,0.0008894
1404.0,0.0002718
1405.0,7.164e-08
1406.0,0.0007147
1407.0,6.266e-05
1408.0,0.0005836
1409.0,0.0001991
1410.0,0.0001578
1411.0,0.0007813
1412.0,0.001047
1413.0,0.01061
1414.0,0.0001243
1415.0,6.009e-05
1416.0,0.01739
1417.0,0.005245
1418.0,0.005973
1419.0,0.0009261
1420.0,0.003654
1421.0,0.003951
1422.0,0.02271
1423.0,0.004392
1424.0,0.008242
1425.0,0.01212
1426.0,0.0138
1427.0,0.0255
1428.0,0.001874
1429.0,0.019
1430.0,0.03258
1431.0,0.03585
1432.0,0.001475
1433.0,0.02271
1434.0,0.01151
1435.0,0.01135
1436.0,0.02215
1437.0,0.01698
1438.0,0.007098
1439.0,0.03024
1440.0,0.02264
1441.0,0.01711
1442.0,0.019
1443.0,0.02409
1444.0,0.03352
