interpolation:linear
wavelength,value
280.0,9.107000000000001e-21
280.5,2.746e-19
281.0,1.431e-18
281.5,4.725e-19
282.0,1.488e-18
282.5,3.94e-18
283.0,1.271e-17
283.5,2.077e-17
284.0,3.29e-16
284.5,9.373e-16
285.0,1.839e-15
285.5,9.709e-15
286.0,3.958e-14
286.5,1.784e-13
287.0,5.096e-13
287.5,1.936e-12
288.0,5.106e-12
288.5,1.829e-11
289.0,5.535e-11
289.5,1.857e-10
290.0,5.537e-10
290.5,1.191e-09
291.0,2.709e-09
291.5,8.496e-09
292.0,2.062e-08
292.5,3.252e-08
293.0,8.125e-08
293.5,2.458e-07
294.0,4.521e-07
294.5,6.026e-07
295.0,1.202e-06
295.5,3.286e-06
296.0,6.513e-06
296.5,9.365e-06
297.0,1.298e-05
297.5,3.606e-05
298.0,5.863e-05
298.5,6.047e-05
299.0,0.0001367
299.5,0.0002371
300.0,0.0002679
300.5,0.0003994
301.0,0.0007605
301.5,0.00128
302.0,0.001131
302.5,0.002188
303.0,0.003878
303.5,0.004837
304.0,0.004512
304.5,0.006602
305.0,0.009726
305.5,0.01094
306.0,0.01051
306.5,0.01293
307.0,0.01868
307.5,0.02419
308.0,0.02545
308.5,0.02967
309.0,0.02896
309.5,0.03254
310.0,0.03241
310.5,0.05228
311.0,0.06516
311.5,0.06271
312.0,0.06172
312.5,0.07432
313.0,0.08016
313.5,0.07826
314.0,0.09659
314.5,0.08418
315.0,0.1103
315.5,0.09305
316.0,0.08013
316.5,0.1136
317.0,0.1411
317.5,0.1474
318.0,0.114
318.5,0.1393
319.0,0.1639
319.5,0.1354
320.0,0.164
320.5,0.2018
321.0,0.177
321.5,0.1694
322.0,0.1836
322.5,0.1596
323.0,0.1572
323.5,0.1913
324.0,0.2229
324.5,0.2273
325.0,0.1975
325.5,0.2518
326.0,0.3071
326.5,0.3057
327.0,0.3054
327.5,0.2958
328.0,0.2655
328.5,0.2764
329.0,0.3284
329.5,0.372
330.0,0.376
330.5,0.3027
331.0,0.3091
331.5,0.3128
332.0,0.3357
332.5,0.3312
333.0,0.3308
333.5,0.3008
334.0,0.3085
334.5,0.354
335.0,0.3317
335.5,0.3874
336.0,0.2681
336.5,0.3144
337.0,0.2586
337.5,0.3219
338.0,0.3129
338.5,0.3611
339.0,0.3574
339.5,0.3439
340.0,0.4042
340.5,0.3642
341.0,0.3553
341.5,0.3262
342.0,0.3898
342.5,0.3647
343.0,0.4012
343.5,0.3778
344.0,0.2792
344.5,0.2821
345.0,0.3733
345.5,0.3811
346.0,0.3239
346.5,0.3668
347.0,0.3938
347.5,0.3185
348.0,0.3631
348.5,0.3629
349.0,0.3367
349.5,0.3334
350.0,0.4124
350.5,0.435
351.0,0.3887
351.5,0.3779
352.0,0.4059
352.5,0.3167
353.0,0.399
353.5,0.4266
354.0,0.4429
354.5,0.4492
355.0,0.4478
355.5,0.4046
356.0,0.4233
356.5,0.3615
357.0,0.2987
357.5,0.3658
358.0,0.2899
358.5,0.2478
359.0,0.3466
359.5,0.4417
360.0,0.4683
360.5,0.3743
361.0,0.3413
361.5,0.393
362.0,0.3399
362.5,0.4705
363.0,0.4226
363.5,0.3894
364.0,0.4762
364.5,0.4071
365.0,0.4147
365.5,0.5205
366.0,0.5516
366.5,0.5183
367.0,0.5048
367.5,0.524
368.0,0.4586
368.5,0.4628
369.0,0.4999
369.5,0.5329
370.0,0.5681
370.5,0.441
371.0,0.4713
371.5,0.5897
372.0,0.3914
372.5,0.4694
373.0,0.4776
373.5,0.3108
374.0,0.4516
374.5,0.3741
375.0,0.3637
375.5,0.543
376.0,0.4502
376.5,0.4666
377.0,0.4941
377.5,0.5781
378.0,0.6268
378.5,0.5925
379.0,0.489
379.5,0.4467
380.0,0.4645
380.5,0.5627
381.0,0.564
381.5,0.4472
382.0,0.3972
382.5,0.3386
383.0,0.3136
383.5,0.3021
384.0,0.3332
384.5,0.4902
385.0,0.4862
385.5,0.4529
386.0,0.3879
386.5,0.5096
387.0,0.4235
387.5,0.4758
388.0,0.4393
388.5,0.4344
389.0,0.4689
389.5,0.568
390.0,0.5702
390.5,0.5248
391.0,0.6178
391.5,0.6302
392.0,0.5309
392.5,0.4754
393.0,0.2645
393.5,0.1923
394.0,0.3914
394.5,0.4977
395.0,0.6074
395.5,0.6171
396.0,0.5351
396.5,0.3128
397.0,0.2348
397.5,0.4776
398.0,0.6689
398.5,0.6915
399.0,0.7489
399.5,0.7465
400.0,0.7752
401.0,0.7868
402.0,0.8303
403.0,0.7889
404.0,0.7769
405.0,0.7769
406.0,0.7645
407.0,0.7523
408.0,0.7818
409.0,0.8369
410.0,0.7314
411.0,0.7924
412.0,0.8512
413.0,0.8302
414.0,0.8405
415.0,0.8428
416.0,0.8577
417.0,0.8368
418.0,0.8214
419.0,0.8323
420.0,0.8288
421.0,0.8671
422.0,0.8243
423.0,0.8053
424.0,0.8519
425.0,0.8504
426.0,0.8285
427.0,0.8131
428.0,0.7921
429.0,0.7504
430.0,0.6568
431.0,0.651
432.0,0.8406
433.0,0.8454
434.0,0.785
435.0,0.8199
436.0,0.9239
437.0,0.9116
438.0,0.8302
439.0,0.8587
440.0,0.8861
441.0,0.9182
442.0,0.9849
443.0,0.9594
444.0,0.9802
445.0,0.9591
446.0,0.9153
447.0,0.9896
448.0,1.005
449.0,1.009
450.0,1.037
451.0,1.076
452.0,1.037
453.0,0.975
454.0,1.018
455.0,1.024
456.0,1.049
457.0,1.066
458.0,1.03
459.0,1.024
460.0,1.027
461.0,1.051
462.0,1.059
463.0,1.052
464.0,1.034
465.0,1.021
466.0,1.031
467.0,1.012
468.0,1.024
469.0,1.03
470.0,0.9969
471.0,0.9956
472.0,1.049
473.0,1.035
474.0,1.037
475.0,1.046
476.0,1.015
477.0,1.018
478.0,1.046
479.0,1.04
480.0,1.042
481.0,1.061
482.0,1.066
483.0,1.053
484.0,1.032
485.0,0.983
486.0,0.8593
487.0,0.9005
488.0,0.9879
489.0,0.9911
490.0,1.043
491.0,1.025
492.0,0.9676
493.0,0.9993
494.0,1.009
495.0,1.018
496.0,1.024
497.0,1.04
498.0,0.9914
499.0,1.004
500.0,0.975
501.0,0.9571
502.0,0.9438
503.0,0.9824
504.0,0.9578
505.0,0.9918
506.0,1.024
507.0,0.9742
508.0,0.9438
509.0,0.9701
510.0,0.9649
511.0,0.9907
512.0,1.001
513.0,0.9479
514.0,0.9413
515.0,0.932
516.0,0.9297
517.0,0.8261
518.0,0.8685
519.0,0.911
520.0,0.9441
521.0,0.9531
522.0,0.954
523.0,0.9368
524.0,0.9704
525.0,0.9819
526.0,0.938
527.0,0.884
528.0,0.935
529.0,0.9856
530.0,0.9715
531.0,0.9859
532.0,0.952
533.0,0.9241
534.0,0.9514
535.0,0.9721
536.0,0.9811
537.0,0.9423
538.0,0.9589
539.0,0.9509
540.0,0.9117
541.0,0.9178
542.0,0.9466
543.0,0.9366
544.0,0.9529
545.0,0.95
546.0,0.9542
547.0,0.9537
548.0,0.9423
549.0,0.9451
550.0,0.9563
551.0,0.9447
552.0,0.9513
553.0,0.9343
554.0,0.9566
555.0,0.9586
556.0,0.9461
557.0,0.9167
558.0,0.9099
559.0,0.8929
560.0,0.9041
561.0,0.9159
562.0,0.9093
563.0,0.9342
564.0,0.9088
565.0,0.901
566.0,0.8878
567.0,0.9047
568.0,0.8968
569.0,0.8757
570.0,0.8755
571.0,0.8701
572.0,0.8912
573.0,0.9008
574.0,0.8979
575.0,0.8812
576.0,0.8732
577.0,0.8826
578.0,0.8693
579.0,0.8726
580.0,0.8891
581.0,0.8935
582.0,0.9103
583.0,0.9124
584.0,0.9203
585.0,0.8977
586.0,0.8793
587.0,0.8986
588.0,0.8771
589.0,0.7778
590.0,0.8133
591.0,0.8602
592.0,0.8496
593.0,0.8619
594.0,0.856
595.0,0.8351
596.0,0.8675
597.0,0.8582
598.0,0.8559
599.0,0.8566
600.0,0.8577
601.0,0.8506
602.0,0.8448
603.0,0.8587
604.0,0.8729
605.0,0.8684
606.0,0.8648
607.0,0.8733
608.0,0.8636
609.0,0.865
610.0,0.8588
611.0,0.8632
612.0,0.8607
613.0,0.8498
614.0,0.8382
615.0,0.8564
616.0,0.8281
617.0,0.8264
618.0,0.8582
619.0,0.8495
620.0,0.8549
621.0,0.8558
622.0,0.8458
623.0,0.8329
624.0,0.8186
625.0,0.8168
626.0,0.8289
627.0,0.8383
628.0,0.7841
629.0,0.8189
630.0,0.8
631.0,0.8177
632.0,0.8078
633.0,0.8322
634.0,0.824
635.0,0.8367
636.0,0.8256
637.0,0.839
638.0,0.847
639.0,0.8375
640.0,0.8293
641.0,0.8287
642.0,0.8249
643.0,0.836
644.0,0.8332
645.0,0.8346
646.0,0.8153
647.0,0.806
648.0,0.8067
649.0,0.7911
650.0,0.7945
651.0,0.8289
652.0,0.7949
653.0,0.8179
654.0,0.8087
655.0,0.7789
656.0,0.6901
657.0,0.7087
658.0,0.7941
659.0,0.7997
660.0,0.803
661.0,0.8086
662.0,0.8104
663.0,0.7943
664.0,0.8036
665.0,0.8042
666.0,0.8047
667.0,0.8039
668.0,0.8042
669.0,0.8167
670.0,0.8131
671.0,0.8129
672.0,0.8059
673.0,0.818
674.0,0.815
675.0,0.8075
676.0,0.813
677.0,0.805
678.0,0.8072
679.0,0.7942
680.0,0.8005
681.0,0.7953
682.0,0.7942
683.0,0.7927
684.0,0.7888
685.0,0.7955
686.0,0.7908
687.0,0.5303
688.0,0.619
689.0,0.6212
690.0,0.6507
691.0,0.6839
692.0,0.708
693.0,0.7023
694.0,0.6964
695.0,0.7246
696.0,0.7256
697.0,0.7692
698.0,0.7573
699.0,0.7397
700.0,0.7308
701.0,0.7235
702.0,0.7283
703.0,0.7297
704.0,0.7527
705.0,0.7538
706.0,0.7531
707.0,0.7536
708.0,0.7552
709.0,0.7561
710.0,0.7562
711.0,0.7551
712.0,0.7527
713.0,0.7452
714.0,0.748
715.0,0.7246
716.0,0.725
717.0,0.6308
718.0,0.5797
719.0,0.5312
720.0,0.5566
721.0,0.6132
722.0,0.7003
723.0,0.6526
724.0,0.5887
725.0,0.5795
726.0,0.6065
727.0,0.6147
728.0,0.5782
729.0,0.5991
730.0,0.634
731.0,0.6067
732.0,0.6483
733.0,0.6856
734.0,0.7016
735.0,0.6872
736.0,0.6863
737.0,0.6891
738.0,0.6992
739.0,0.6855
740.0,0.7032
741.0,0.6961
742.0,0.6967
743.0,0.7144
744.0,0.7123
745.0,0.7124
746.0,0.7156
747.0,0.7172
748.0,0.7157
749.0,0.7075
750.0,0.7071
751.0,0.6999
752.0,0.7029
753.0,0.7065
754.0,0.7081
755.0,0.7041
756.0,0.7038
757.0,0.7048
758.0,0.696
759.0,0.6822
760.0,0.1174
761.0,0.06221
762.0,0.353
763.0,0.1782
764.0,0.2663
765.0,0.353
766.0,0.4318
767.0,0.5431
768.0,0.6255
769.0,0.6383
770.0,0.6597
771.0,0.6649
772.0,0.6662
773.0,0.6709
774.0,0.6676
775.0,0.6625
776.0,0.6706
777.0,0.6617
778.0,0.6577
779.0,0.6583
780.0,0.6546
781.0,0.6553
782.0,0.6594
783.0,0.6479
784.0,0.651
785.0,0.6462
786.0,0.6533
787.0,0.6421
788.0,0.6341
789.0,0.6339
790.0,0.6173
791.0,0.6224
792.0,0.6178
793.0,0.6078
794.0,0.618
795.0,0.6285
796.0,0.6095
797.0,0.6102
798.0,0.6277
799.0,0.6238
800.0,0.613
801.0,0.6112
802.0,0.6094
803.0,0.6048
804.0,0.6056
805.0,0.6036
806.0,0.6204
807.0,0.613
808.0,0.6135
809.0,0.6021
810.0,0.5973
811.0,0.5982
812.0,0.5813
813.0,0.5693
814.0,0.5015
815.0,0.4984
816.0,0.464
817.0,0.4724
818.0,0.4549
819.0,0.508
820.0,0.4786
821.0,0.5587
822.0,0.5428
823.0,0.3703
824.0,0.5273
825.0,0.549
826.0,0.5284
827.0,0.5574
828.0,0.4732
829.0,0.5252
830.0,0.5183
831.0,0.5201
832.0,0.5043
833.0,0.5362
834.0,0.5174
835.0,0.568
836.0,0.544
837.0,0.5696
838.0,0.552
839.0,0.561
840.0,0.5733
841.0,0.5652
842.0,0.5663
843.0,0.566
844.0,0.5581
845.0,0.577
846.0,0.5744
847.0,0.5637
848.0,0.5602
849.0,0.5443
850.0,0.5215
851.0,0.5521
852.0,0.5483
853.0,0.5277
854.0,0.4557
855.0,0.5006
856.0,0.5471
857.0,0.5593
858.0,0.5551
859.0,0.5556
860.0,0.5566
861.0,0.5536
862.0,0.5623
863.0,0.5756
864.0,0.5468
865.0,0.542
866.0,0.4874
867.0,0.5086
868.0,0.5534
869.0,0.542
870.0,0.5574
871.0,0.5498
872.0,0.5479
873.0,0.5468
874.0,0.5403
875.0,0.5293
876.0,0.5348
877.0,0.5402
878.0,0.5461
879.0,0.5377
880.0,0.5262
881.0,0.5183
882.0,0.5295
883.0,0.5312
884.0,0.5287
885.0,0.5327
886.0,0.5077
887.0,0.5131
888.0,0.5206
889.0,0.5266
890.0,0.5221
891.0,0.5213
892.0,0.5061
893.0,0.4902
894.0,0.4728
895.0,0.4465
896.0,0.4205
897.0,0.3609
898.0,0.394
899.0,0.2993
900.0,0.4036
901.0,0.3137
902.0,0.3687
903.0,0.3722
904.0,0.4692
905.0,0.453
906.0,0.4238
907.0,0.3438
908.0,0.3507
909.0,0.3802
910.0,0.3357
911.0,0.3582
912.0,0.3745
913.0,0.3407
914.0,0.3379
915.0,0.3663
916.0,0.3099
917.0,0.3939
918.0,0.3177
919.0,0.4012
920.0,0.4056
921.0,0.4219
922.0,0.3768
923.0,0.4076
924.0,0.3861
925.0,0.3777
926.0,0.3818
927.0,0.4278
928.0,0.3125
929.0,0.2849
930.0,0.2231
931.0,0.2115
932.0,0.1514
933.0,0.1226
934.0,0.06623
935.0,0.1259
936.0,0.07794
937.0,0.07892
938.0,0.09732
939.0,0.2049
940.0,0.2471
941.0,0.1856
942.0,0.2155
943.0,0.141
944.0,0.1492
945.0,0.1916
946.0,0.09649
947.0,0.1922
948.0,0.141
949.0,0.2583
950.0,0.07017
951.0,0.2545
952.0,0.1353
953.0,0.1757
954.0,0.2165
955.0,0.1778
956.0,0.1732
957.0,0.1354
958.0,0.2469
959.0,0.195
960.0,0.2186
961.0,0.2462
962.0,0.2329
963.0,0.2692
964.0,0.2464
965.0,0.2683
966.0,0.2681
967.0,0.2669
968.0,0.3607
969.0,0.3765
970.0,0.3454
971.0,0.3967
972.0,0.3792
973.0,0.3289
974.0,0.312
975.0,0.3243
976.0,0.3073
977.0,0.351
978.0,0.3329
979.0,0.3491
980.0,0.328
981.0,0.3944
982.0,0.3767
983.0,0.3613
984.0,0.4069
985.0,0.3752
986.0,0.4144
987.0,0.4059
988.0,0.4052
989.0,0.4133
990.0,0.4027
991.0,0.4145
992.0,0.4169
993.0,0.4073
994.0,0.4168
995.0,0.4164
996.0,0.4145
997.0,0.4151
998.0,0.4131
999.0,0.4116
1000.0,0.4087
1001.0,0.4139
1002.0,0.4021
1003.0,0.4065
1004.0,0.3965
1005.0,0.3821
1006.0,0.3969
1007.0,0.4054
1008.0,0.4031
1009.0,0.4009
1010.0,0.3992
1011.0,0.4034
1012.0,0.3998
1013.0,0.4024
1014.0,0.3996
1015.0,0.3969
1016.0,0.3951
1017.0,0.3961
1018.0,0.3947
1019.0,0.3861
1020.0,0.3926
1021.0,0.3921
1022.0,0.389
1023.0,0.3931
1024.0,0.3878
1025.0,0.3928
1026.0,0.3911
1027.0,0.3902
1028.0,0.3894
1029.0,0.3848
1030.0,0.3875
1031.0,0.3859
1032.0,0.3848
1033.0,0.379
1034.0,0.379
1035.0,0.3802
1036.0,0.3822
1037.0,0.376
1038.0,0.3776
1039.0,0.3774
1040.0,0.3759
1041.0,0.3773
1042.0,0.3747
1043.0,0.3735
1044.0,0.3748
1045.0,0.3697
1046.0,0.3656
1047.0,0.3689
1048.0,0.3709
1049.0,0.3696
1050.0,0.3679
1051.0,0.3673
1052.0,0.3658
1053.0,0.3629
1054.0,0.3637
1055.0,0.3638
1056.0,0.3625
1057.0,0.3614
1058.0,0.3525
1059.0,0.3528
1060.0,0.3523
1061.0,0.3519
1062.0,0.3537
1063.0,0.3502
1064.0,0.3543
1065.0,0.3517
1066.0,0.3448
1067.0,0.3492
1068.0,0.3416
1069.0,0.3311
1070.0,0.3423
1071.0,0.3477
1072.0,0.3436
1073.0,0.3387
1074.0,0.3476
1075.0,0.3297
1076.0,0.3473
1077.0,0.3408
1078.0,0.3343
1079.0,0.3418
1080.0,0.3356
1081.0,0.3246
1082.0,0.3302
1083.0,0.3313
1084.0,0.3237
1085.0,0.3364
1086.0,0.3063
1087.0,0.3166
1088.0,0.3309
1089.0,0.3203
1090.0,0.313
1091.0,0.3297
1092.0,0.3289
1093.0,0.2778
1094.0,0.3008
1095.0,0.2895
1096.0,0.2769
1097.0,0.3213
1098.0,0.2725
1099.0,0.2844
1100.0,0.2639
1101.0,0.2673
1102.0,0.255
1103.0,0.2523
1104.0,0.2527
1105.0,0.2778
1106.0,0.2106
1107.0,0.2635
1108.0,0.2222
1109.0,0.2228
1110.0,0.261
1111.0,0.1755
1112.0,0.2212
1113.0,0.1392
1114.0,0.1558
1115.0,0.1291
1116.0,0.1021
1117.0,0.03644
1118.0,0.1114
1119.0,0.05441
1120.0,0.06843
1121.0,0.09136
1122.0,0.03768
1123.0,0.06187
1124.0,0.05221
1125.0,0.06833
1126.0,0.02302
1127.0,0.07715
1128.0,0.04531
1129.0,0.0482
1130.0,0.0314
1131.0,0.1484
1132.0,0.116
1133.0,0.07241
1134.0,0.01787
1135.0,0.006734
1136.0,0.06001
1137.0,0.1454
1138.0,0.1022
1139.0,0.1545
1140.0,0.1283
1141.0,0.09712
1142.0,0.1122
1143.0,0.1602
1144.0,0.05491
1145.0,0.06986
1146.0,0.07533
1147.0,0.02569
1148.0,0.1386
1149.0,0.11
1150.0,0.05916
1151.0,0.1014
1152.0,0.1255
1153.0,0.1229
1154.0,0.06759
1155.0,0.1611
1156.0,0.1447
1157.0,0.163
1158.0,0.1612
1159.0,0.1744
1160.0,0.1485
1161.0,0.184
1162.0,0.1848
1163.0,0.251
1164.0,0.2148
1165.0,0.2022
1166.0,0.2011
1167.0,0.2193
1168.0,0.2216
1169.0,0.227
1170.0,0.247
1171.0,0.2408
1172.0,0.2454
1173.0,0.2465
1174.0,0.1754
1175.0,0.2409
1176.0,0.2651
1177.0,0.2543
1178.0,0.1906
1179.0,0.2673
1180.0,0.2383
1181.0,0.2459
1182.0,0.1693
1183.0,0.2422
1184.0,0.2269
1185.0,0.2188
1186.0,0.2597
1187.0,0.2473
1188.0,0.1721
1189.0,0.2304
1190.0,0.2539
1191.0,0.2409
1192.0,0.2574
1193.0,0.2466
1194.0,0.2542
1195.0,0.2404
1196.0,0.2315
1197.0,0.2544
1198.0,0.2327
1199.0,0.1978
1200.0,0.2435
1201.0,0.2348
1202.0,0.2335
1203.0,0.2315
1204.0,0.2024
1205.0,0.239
1206.0,0.264
1207.0,0.2329
1208.0,0.2293
1209.0,0.234
1210.0,0.2438
1211.0,0.2321
1212.0,0.2293
1213.0,0.2553
1214.0,0.2348
1215.0,0.2304
1216.0,0.2545
1217.0,0.2478
1218.0,0.2525
1219.0,0.2493
1220.0,0.2527
1221.0,0.2552
1222.0,0.2486
1223.0,0.2463
1224.0,0.2447
1225.0,0.2536
1226.0,0.2553
1227.0,0.2355
1228.0,0.2566
1229.0,0.2553
1230.0,0.251
1231.0,0.2581
1232.0,0.2565
1233.0,0.2478
1234.0,0.2579
1235.0,0.2562
1236.0,0.2581
1237.0,0.2545
1238.0,0.2572
1239.0,0.2539
1240.0,0.2549
1241.0,0.2537
1242.0,0.2531
1243.0,0.2511
1244.0,0.2529
1245.0,0.2539
1246.0,0.2525
1247.0,0.2515
1248.0,0.2513
1249.0,0.2521
1250.0,0.2506
1251.0,0.2474
1252.0,0.2474
1253.0,0.2454
1254.0,0.243
1255.0,0.2471
1256.0,0.2402
1257.0,0.2389
1258.0,0.2434
1259.0,0.2346
1260.0,0.2358
1261.0,0.2226
1262.0,0.2159
1263.0,0.2163
1264.0,0.1997
1265.0,0.2149
1266.0,0.2068
1267.0,0.2104
1268.0,0.1996
1269.0,0.1238
1270.0,0.2097
1271.0,0.2218
1272.0,0.2225
1273.0,0.2202
1274.0,0.2209
1275.0,0.2241
1276.0,0.2262
1277.0,0.2277
1278.0,0.2321
1279.0,0.23
1280.0,0.2271
1281.0,0.2167
1282.0,0.2088
1283.0,0.2249
1284.0,0.2303
1285.0,0.2318
1286.0,0.2349
1287.0,0.2313
1288.0,0.2312
1289.0,0.2239
1290.0,0.2292
1291.0,0.2324
1292.0,0.2184
1293.0,0.2279
1294.0,0.2263
1295.0,0.2252
1296.0,0.215
1297.0,0.2034
1298.0,0.2189
1299.0,0.2281
1300.0,0.1931
1301.0,0.1991
1302.0,0.2182
1303.0,0.1906
1304.0,0.1625
1305.0,0.2137
1306.0,0.2137
1307.0,0.166
1308.0,0.1909
1309.0,0.2121
1310.0,0.1629
1311.0,0.183
1312.0,0.178
1313.0,0.1746
1314.0,0.1562
1315.0,0.1542
1316.0,0.1801
1317.0,0.1706
1318.0,0.1854
1319.0,0.1448
1320.0,0.1403
1321.0,0.1635
1322.0,0.1651
1323.0,0.124
1324.0,0.142
1325.0,0.1775
1326.0,0.1522
1327.0,0.1451
1328.0,0.1251
1329.0,0.09367
1330.0,0.1221
1331.0,0.0733
1332.0,0.07583
1333.0,0.1056
1334.0,0.08968
1335.0,0.1235
1336.0,0.0975
1337.0,0.08609
1338.0,0.09317
1339.0,0.09282
1340.0,0.09039
1341.0,0.08799
1342.0,0.09245
1343.0,0.06199
1344.0,0.03716
1345.0,0.05363
1346.0,0.02623
1347.0,0.02659
1348.0,0.001673
1349.0,0.006066
1350.0,0.006342
1351.0,0.0015
1352.0,0.0003937
1353.0,1.952e-05
1354.0,6.86e-05
1355.0,5.216e-07
1356.0,9.521e-06
1357.0,1.452e-05
1358.0,6.193e-07
1359.0,7.476e-08
1360.0,2.791e-07
1361.0,2.843e-10
1362.0,7.49e-13
1363.0,3.732e-07
1364.0,1.542e-07
1365.0,2.502e-13
1366.0,1.651e-06
1367.0,6.818e-07
1368.0,1.757e-15
1369.0,5.753e-08
1370.0,2.787e-08
1371.0,1.548e-09
1372.0,3.753e-07
1373.0,7.821e-06
1374.0,3.715e-05
1375.0,6.749e-05
1376.0,6.181e-05
1377.0,2.818e-05
1378.0,0.0002789
1379.0,1.184e-05
1380.0,1.684e-05
1381.0,4.344e-07
1382.0,3.368e-07
1383.0,4.964e-09
1384.0,6.46e-08
1385.0,3.255e-07
1386.0,2.964e-07
1387.0,3.808e-05
1388.0,7.512e-07
1389.0,0.0001324
1390.0,0.0001139
1391.0,7.564e-05
1392.0,4.884e-06
1393.0,2.625e-05
1394.0,1.311e-05
1395.0,9.406e-08
1396.0,4.151e-10
1397.0,1.037e-05
1398.0,0.0003126
1399.0,0.0001984
1400.0,1.75e-10
1401.0,7.54e-10
1402.0,0.0005709
1403.0,0.0007132
1404.0,0.0002167
1405.0,4.507e-08
1406.0,0.0005581
1407.0,4.968e-05
1408.0,0.0004574
1409.0,0.0001504
1410.0,0.0001221
1411.0,0.000628
1412.0,0.0008563
1413.0,0.009146
1414.0,9.662e-05
1415.0,4.591e-05
1416.0,0.01546
1417.0,0.004511
1418.0,0.005109
1419.0,0.0007857
1420.0,0.00312
1421.0,0.003377
1422.0,0.02022
1423.0,0.003873
1424.0,0.007308
1425.0,0.01067
1426.0,0.01233
1427.0,0.02316
1428.0,0.001567
1429.0,0.01707
1430.0,0.02974
1431.0,0.03284
1432.0,0.00123
1433.0,0.02065
1434.0,0.01038
1435.0,0.009968
1436.0,0.01988
1437.0,0.01524
1438.0,0.006259
1439.0,0.02732
1440.0,0.02045
