interpolation:linear
wavelength,value
280.0,5.43e-21
280.5,1.669e-19
281.0,8.749e-19
281.5,5.153e-19
282.0,1.37e-18
282.5,3.535e-18
283.0,1.127e-17
283.5,1.836e-17
284.0,2.912e-16
284.5,8.323e-16
285.0,1.744e-15
285.5,8.809e-15
286.0,3.554e-14
286.5,1.581e-13
287.0,4.489e-13
287.5,1.699e-12
288.0,4.4e-12
288.5,1.519e-11
289.0,4.445e-11
289.5,1.445e-10
290.0,4.205e-10
290.5,8.872e-10
291.0,1.971e-09
291.5,5.877e-09
292.0,1.431e-08
292.5,2.212e-08
293.0,5.377e-08
293.5,1.56e-07
294.0,2.775e-07
294.5,3.626e-07
295.0,6.991e-07
295.5,1.907e-06
296.0,3.811e-06
296.5,5.533e-06
297.0,7.735e-06
297.5,2.182e-05
298.0,3.6e-05
298.5,3.759e-05
299.0,8.605e-05
299.5,0.0001529
300.0,0.0001753
300.5,0.0002656
301.0,0.0005207
301.5,0.0009047
302.0,0.0008155
302.5,0.001592
303.0,0.002856
303.5,0.003591
304.0,0.003369
304.5,0.005001
305.0,0.007518
305.5,0.00856
306.0,0.008267
306.5,0.01025
307.0,0.01506
307.5,0.01983
308.0,0.02091
308.5,0.02457
309.0,0.02408
309.5,0.02734
310.0,0.02736
310.5,0.04424
311.0,0.05535
311.5,0.05337
312.0,0.05298
312.5,0.06416
313.0,0.06941
313.5,0.06758
314.0,0.08399
314.5,0.07386
315.0,0.09693
315.5,0.08143
316.0,0.07064
316.5,0.1008
317.0,0.1252
317.5,0.1306
318.0,0.1014
318.5,0.1249
319.0,0.1476
319.5,0.1212
320.0,0.1466
320.5,0.1819
321.0,0.1607
321.5,0.154
322.0,0.1655
322.5,0.144
323.0,0.1426
323.5,0.1743
324.0,0.2033
324.5,0.2069
325.0,0.1793
325.5,0.2296
326.0,0.2804
326.5,0.2799
327.0,0.2793
327.5,0.2702
328.0,0.2417
328.5,0.2527
329.0,0.3013
329.5,0.3416
330.0,0.345
330.5,0.2771
331.0,0.2827
331.5,0.2866
332.0,0.3086
332.5,0.3048
333.0,0.3042
333.5,0.2761
334.0,0.2831
334.5,0.3256
335.0,0.3055
335.5,0.3568
336.0,0.2469
336.5,0.2895
337.0,0.2379
337.5,0.296
338.0,0.2883
338.5,0.3328
339.0,0.3294
339.5,0.317
340.0,0.3726
340.5,0.3358
341.0,0.3275
341.5,0.3008
342.0,0.3595
342.5,0.3364
343.0,0.37
343.5,0.3485
344.0,0.2576
344.5,0.2602
345.0,0.3444
345.5,0.3517
346.0,0.2989
346.5,0.3385
347.0,0.3635
347.5,0.294
348.0,0.3352
348.5,0.335
349.0,0.3109
349.5,0.3079
350.0,0.3809
350.5,0.4018
351.0,0.359
351.5,0.349
352.0,0.3749
352.5,0.2926
353.0,0.3686
353.5,0.3942
354.0,0.4093
354.5,0.4152
355.0,0.4138
355.5,0.3739
356.0,0.3913
356.5,0.3342
357.0,0.2762
357.5,0.3381
358.0,0.268
358.5,0.2291
359.0,0.3205
359.5,0.4084
360.0,0.433
360.5,0.3462
361.0,0.3156
361.5,0.3635
362.0,0.3145
362.5,0.4353
363.0,0.3911
363.5,0.3603
364.0,0.4408
364.5,0.3768
365.0,0.3839
365.5,0.4819
366.0,0.5107
366.5,0.4799
367.0,0.4675
367.5,0.4852
368.0,0.4247
368.5,0.4286
369.0,0.463
369.5,0.4936
370.0,0.5263
370.5,0.4086
371.0,0.4366
371.5,0.5464
372.0,0.3627
372.5,0.435
373.0,0.4426
373.5,0.288
374.0,0.4186
374.5,0.3467
375.0,0.3371
375.5,0.5034
376.0,0.4174
376.5,0.4326
377.0,0.4581
377.5,0.5361
378.0,0.5812
378.5,0.5494
379.0,0.4535
379.5,0.4143
380.0,0.4308
380.5,0.5219
381.0,0.5232
381.5,0.4148
382.0,0.3685
382.5,0.3142
383.0,0.291
383.5,0.2803
384.0,0.3093
384.5,0.455
385.0,0.4513
385.5,0.4204
386.0,0.3601
386.5,0.4731
387.0,0.3932
387.5,0.4418
388.0,0.4079
388.5,0.4033
389.0,0.4355
389.5,0.5275
390.0,0.5296
390.5,0.4874
391.0,0.5739
391.5,0.5854
392.0,0.4932
392.5,0.4416
393.0,0.2458
393.5,0.1787
394.0,0.3637
394.5,0.4625
395.0,0.5645
395.5,0.5735
396.0,0.4973
396.5,0.2908
397.0,0.2183
397.5,0.444
398.0,0.6218
398.5,0.6428
399.0,0.6963
399.5,0.6941
400.0,0.7208
401.0,0.7312
402.0,0.7717
403.0,0.7334
404.0,0.7223
405.0,0.7224
406.0,0.7109
407.0,0.6996
408.0,0.7271
409.0,0.7784
410.0,0.6804
411.0,0.7372
412.0,0.792
413.0,0.7726
414.0,0.7822
415.0,0.7845
416.0,0.7985
417.0,0.779
418.0,0.7648
419.0,0.775
420.0,0.7718
421.0,0.8076
422.0,0.7678
423.0,0.7501
424.0,0.7935
425.0,0.7923
426.0,0.7719
427.0,0.7577
428.0,0.7382
429.0,0.6994
430.0,0.6122
431.0,0.6069
432.0,0.7837
433.0,0.7882
434.0,0.732
435.0,0.7645
436.0,0.8616
437.0,0.8502
438.0,0.7743
439.0,0.8009
440.0,0.8266
441.0,0.8566
442.0,0.9188
443.0,0.895
444.0,0.9146
445.0,0.8949
446.0,0.8542
447.0,0.9236
448.0,0.938
449.0,0.9419
450.0,0.9684
451.0,1.004
452.0,0.9678
453.0,0.9103
454.0,0.9505
455.0,0.9564
456.0,0.9792
457.0,0.9956
458.0,0.9616
459.0,0.9567
460.0,0.9594
461.0,0.9815
462.0,0.9891
463.0,0.9824
464.0,0.9663
465.0,0.9542
466.0,0.9635
467.0,0.9459
468.0,0.9571
469.0,0.9621
470.0,0.9315
471.0,0.9303
472.0,0.9803
473.0,0.9676
474.0,0.969
475.0,0.9773
476.0,0.948
477.0,0.9507
478.0,0.9771
479.0,0.9712
480.0,0.9731
481.0,0.9913
482.0,0.9966
483.0,0.9846
484.0,0.9645
485.0,0.9189
486.0,0.8034
487.0,0.842
488.0,0.9238
489.0,0.9266
490.0,0.9749
491.0,0.9581
492.0,0.9048
493.0,0.9345
494.0,0.9439
495.0,0.9519
496.0,0.9578
497.0,0.9727
498.0,0.9272
499.0,0.939
500.0,0.9117
501.0,0.8949
502.0,0.8823
503.0,0.9182
504.0,0.8947
505.0,0.9269
506.0,0.9568
507.0,0.9105
508.0,0.8822
509.0,0.907
510.0,0.9022
511.0,0.9264
512.0,0.9365
513.0,0.8864
514.0,0.8804
515.0,0.8716
516.0,0.8695
517.0,0.7726
518.0,0.8123
519.0,0.852
520.0,0.883
521.0,0.8913
522.0,0.8921
523.0,0.876
524.0,0.9074
525.0,0.918
526.0,0.8769
527.0,0.8263
528.0,0.8739
529.0,0.9211
530.0,0.9079
531.0,0.9213
532.0,0.8897
533.0,0.8636
534.0,0.8892
535.0,0.9086
536.0,0.917
537.0,0.8808
538.0,0.8964
539.0,0.8889
540.0,0.8522
541.0,0.8578
542.0,0.8846
543.0,0.8753
544.0,0.8905
545.0,0.8877
546.0,0.8916
547.0,0.8912
548.0,0.8806
549.0,0.8833
550.0,0.8938
551.0,0.883
552.0,0.8891
553.0,0.8732
554.0,0.8941
555.0,0.8958
556.0,0.8842
557.0,0.8567
558.0,0.8502
559.0,0.8343
560.0,0.8447
561.0,0.8556
562.0,0.8494
563.0,0.8725
564.0,0.8487
565.0,0.8414
566.0,0.829
567.0,0.8446
568.0,0.837
569.0,0.8168
570.0,0.8167
571.0,0.8118
572.0,0.8311
573.0,0.84
574.0,0.8373
575.0,0.8216
576.0,0.8141
577.0,0.823
578.0,0.8107
579.0,0.814
580.0,0.8297
581.0,0.8341
582.0,0.85
583.0,0.8522
584.0,0.8597
585.0,0.8387
586.0,0.8215
587.0,0.8394
588.0,0.8187
589.0,0.7247
590.0,0.7579
591.0,0.8024
592.0,0.792
593.0,0.804
594.0,0.7983
595.0,0.7784
596.0,0.8096
597.0,0.8007
598.0,0.7988
599.0,0.7996
600.0,0.8009
601.0,0.7945
602.0,0.7891
603.0,0.8022
604.0,0.8155
605.0,0.8113
606.0,0.808
607.0,0.8161
608.0,0.8071
609.0,0.8086
610.0,0.8029
611.0,0.8071
612.0,0.8048
613.0,0.7947
614.0,0.7838
615.0,0.801
616.0,0.7746
617.0,0.7731
618.0,0.8029
619.0,0.7947
620.0,0.7998
621.0,0.8005
622.0,0.7911
623.0,0.779
624.0,0.7657
625.0,0.764
626.0,0.7753
627.0,0.7838
628.0,0.7305
629.0,0.7647
630.0,0.7471
631.0,0.7645
632.0,0.7554
633.0,0.7786
634.0,0.7712
635.0,0.7833
636.0,0.773
637.0,0.7857
638.0,0.7934
639.0,0.7846
640.0,0.777
641.0,0.7766
642.0,0.7731
643.0,0.7835
644.0,0.7811
645.0,0.7823
646.0,0.7639
647.0,0.7544
648.0,0.755
649.0,0.7404
650.0,0.7445
651.0,0.7769
652.0,0.744
653.0,0.7666
654.0,0.7581
655.0,0.7296
656.0,0.6469
657.0,0.6643
658.0,0.7446
659.0,0.75
660.0,0.7532
661.0,0.7585
662.0,0.7599
663.0,0.745
664.0,0.754
665.0,0.7547
666.0,0.7553
667.0,0.7547
668.0,0.7551
669.0,0.7668
670.0,0.7635
671.0,0.7633
672.0,0.7568
673.0,0.7683
674.0,0.7654
675.0,0.7585
676.0,0.7637
677.0,0.7561
678.0,0.7583
679.0,0.7461
680.0,0.7521
681.0,0.7471
682.0,0.7462
683.0,0.7447
684.0,0.741
685.0,0.7474
686.0,0.7429
687.0,0.4864
688.0,0.5733
689.0,0.5755
690.0,0.6047
691.0,0.6377
692.0,0.6619
693.0,0.6564
694.0,0.6509
695.0,0.6787
696.0,0.6797
697.0,0.7223
698.0,0.7111
699.0,0.6934
700.0,0.685
701.0,0.6778
702.0,0.6827
703.0,0.684
704.0,0.7063
705.0,0.7074
706.0,0.7069
707.0,0.7075
708.0,0.709
709.0,0.7103
710.0,0.7102
711.0,0.7093
712.0,0.7073
713.0,0.7
714.0,0.7027
715.0,0.6803
716.0,0.6806
717.0,0.5878
718.0,0.5395
719.0,0.4939
720.0,0.5172
721.0,0.5725
722.0,0.6566
723.0,0.6104
724.0,0.549
725.0,0.5398
726.0,0.5652
727.0,0.5739
728.0,0.5383
729.0,0.5594
730.0,0.5919
731.0,0.566
732.0,0.6064
733.0,0.6428
734.0,0.6583
735.0,0.6446
736.0,0.6437
737.0,0.6463
738.0,0.6568
739.0,0.6439
740.0,0.6609
741.0,0.6544
742.0,0.6552
743.0,0.6719
744.0,0.67
745.0,0.6702
746.0,0.6733
747.0,0.6748
748.0,0.6734
749.0,0.6657
750.0,0.6653
751.0,0.6586
752.0,0.6614
753.0,0.6648
754.0,0.6663
755.0,0.6625
756.0,0.6622
757.0,0.6632
758.0,0.6549
759.0,0.6412
760.0,0.09944
761.0,0.05078
762.0,0.3195
763.0,0.1548
764.0,0.2369
765.0,0.3195
766.0,0.3964
767.0,0.5045
768.0,0.5857
769.0,0.5988
770.0,0.6201
771.0,0.6255
772.0,0.6269
773.0,0.6313
774.0,0.6283
775.0,0.6235
776.0,0.6311
777.0,0.6228
778.0,0.619
779.0,0.6196
780.0,0.6161
781.0,0.6167
782.0,0.6206
783.0,0.6098
784.0,0.6127
785.0,0.6082
786.0,0.6148
787.0,0.6038
788.0,0.5961
789.0,0.5958
790.0,0.5795
791.0,0.585
792.0,0.5807
793.0,0.5713
794.0,0.5816
795.0,0.5913
796.0,0.5724
797.0,0.5731
798.0,0.5905
799.0,0.5866
800.0,0.5762
801.0,0.5743
802.0,0.5726
803.0,0.5682
804.0,0.569
805.0,0.5674
806.0,0.5837
807.0,0.5766
808.0,0.5772
809.0,0.5661
810.0,0.5613
811.0,0.5616
812.0,0.5451
813.0,0.5335
814.0,0.4678
815.0,0.465
816.0,0.4326
817.0,0.4407
818.0,0.4238
819.0,0.4752
820.0,0.447
821.0,0.5244
822.0,0.5091
823.0,0.3432
824.0,0.4936
825.0,0.5152
826.0,0.4951
827.0,0.5231
828.0,0.4417
829.0,0.4922
830.0,0.4856
831.0,0.4873
832.0,0.472
833.0,0.5031
834.0,0.4847
835.0,0.5338
836.0,0.5101
837.0,0.5354
838.0,0.5183
839.0,0.5274
840.0,0.5391
841.0,0.5312
842.0,0.5327
843.0,0.5327
844.0,0.5251
845.0,0.5431
846.0,0.5408
847.0,0.5308
848.0,0.5274
849.0,0.5124
850.0,0.4909
851.0,0.5196
852.0,0.516
853.0,0.4968
854.0,0.4289
855.0,0.4713
856.0,0.515
857.0,0.5266
858.0,0.5227
859.0,0.5232
860.0,0.5242
861.0,0.5213
862.0,0.5295
863.0,0.542
864.0,0.5149
865.0,0.5105
866.0,0.459
867.0,0.479
868.0,0.5212
869.0,0.5104
870.0,0.525
871.0,0.5178
872.0,0.516
873.0,0.515
874.0,0.5089
875.0,0.4985
876.0,0.5037
877.0,0.5088
878.0,0.5143
879.0,0.5064
880.0,0.4956
881.0,0.488
882.0,0.4985
883.0,0.5002
884.0,0.4979
885.0,0.5016
886.0,0.4778
887.0,0.4831
888.0,0.49
889.0,0.4959
890.0,0.4914
891.0,0.4908
892.0,0.4761
893.0,0.4607
894.0,0.4434
895.0,0.4177
896.0,0.3929
897.0,0.3358
898.0,0.3674
899.0,0.2774
900.0,0.3773
901.0,0.2908
902.0,0.344
903.0,0.3465
904.0,0.4401
905.0,0.4244
906.0,0.3967
907.0,0.3196
908.0,0.3264
909.0,0.3548
910.0,0.3115
911.0,0.3335
912.0,0.349
913.0,0.316
914.0,0.3137
915.0,0.3402
916.0,0.2874
917.0,0.3672
918.0,0.2945
919.0,0.3745
920.0,0.3797
921.0,0.3951
922.0,0.3515
923.0,0.3817
924.0,0.36
925.0,0.3522
926.0,0.3559
927.0,0.4002
928.0,0.2886
929.0,0.262
930.0,0.2036
931.0,0.1933
932.0,0.1368
933.0,0.1099
934.0,0.05764
935.0,0.1135
936.0,0.06919
937.0,0.06994
938.0,0.08668
939.0,0.1872
940.0,0.2269
941.0,0.1689
942.0,0.197
943.0,0.1277
944.0,0.1363
945.0,0.1746
946.0,0.08636
947.0,0.1748
948.0,0.128
949.0,0.2364
950.0,0.06188
951.0,0.2333
952.0,0.122
953.0,0.1598
954.0,0.1984
955.0,0.1619
956.0,0.1587
957.0,0.1219
958.0,0.2282
959.0,0.1785
960.0,0.2001
961.0,0.2268
962.0,0.2143
963.0,0.249
964.0,0.2275
965.0,0.2482
966.0,0.2478
967.0,0.2466
968.0,0.3375
969.0,0.3518
970.0,0.3222
971.0,0.3719
972.0,0.3552
973.0,0.3062
974.0,0.2902
975.0,0.3024
976.0,0.2855
977.0,0.3282
978.0,0.3104
979.0,0.326
980.0,0.306
981.0,0.3699
982.0,0.3525
983.0,0.3378
984.0,0.3824
985.0,0.3512
986.0,0.3899
987.0,0.3813
988.0,0.3807
989.0,0.3892
990.0,0.3784
991.0,0.3902
992.0,0.3926
993.0,0.383
994.0,0.3926
995.0,0.3922
996.0,0.3903
997.0,0.391
998.0,0.3891
999.0,0.3877
1000.0,0.3848
1001.0,0.3898
1002.0,0.3782
1003.0,0.3829
1004.0,0.3733
1005.0,0.3599
1006.0,0.3738
1007.0,0.3818
1008.0,0.3796
1009.0,0.3774
1010.0,0.3757
1011.0,0.3799
1012.0,0.3764
1013.0,0.379
1014.0,0.3764
1015.0,0.3738
1016.0,0.3721
1017.0,0.3731
1018.0,0.3718
1019.0,0.3635
1020.0,0.3697
1021.0,0.3693
1022.0,0.3663
1023.0,0.3702
1024.0,0.365
1025.0,0.37
1026.0,0.3684
1027.0,0.3675
1028.0,0.3667
1029.0,0.3624
1030.0,0.365
1031.0,0.3635
1032.0,0.3624
1033.0,0.357
1034.0,0.357
1035.0,0.3581
1036.0,0.3599
1037.0,0.3541
1038.0,0.3556
1039.0,0.3554
1040.0,0.354
1041.0,0.3554
1042.0,0.3529
1043.0,0.3517
1044.0,0.353
1045.0,0.3481
1046.0,0.3443
1047.0,0.3474
1048.0,0.3492
1049.0,0.3479
1050.0,0.3463
1051.0,0.3458
1052.0,0.3444
1053.0,0.3416
1054.0,0.3423
1055.0,0.3424
1056.0,0.3412
1057.0,0.34
1058.0,0.3316
1059.0,0.3319
1060.0,0.3314
1061.0,0.331
1062.0,0.3327
1063.0,0.3293
1064.0,0.3333
1065.0,0.3307
1066.0,0.3243
1067.0,0.3284
1068.0,0.3212
1069.0,0.3113
1070.0,0.3218
1071.0,0.3271
1072.0,0.3231
1073.0,0.3185
1074.0,0.3271
1075.0,0.3098
1076.0,0.3268
1077.0,0.3204
1078.0,0.3141
1079.0,0.3217
1080.0,0.3155
1081.0,0.3049
1082.0,0.3106
1083.0,0.3117
1084.0,0.3039
1085.0,0.3163
1086.0,0.2872
1087.0,0.2975
1088.0,0.3112
1089.0,0.3008
1090.0,0.2937
1091.0,0.31
1092.0,0.3094
1093.0,0.2598
1094.0,0.2828
1095.0,0.271
1096.0,0.2587
1097.0,0.3022
1098.0,0.2544
1099.0,0.2657
1100.0,0.2459
1101.0,0.2494
1102.0,0.2375
1103.0,0.2347
1104.0,0.235
1105.0,0.2594
1106.0,0.1942
1107.0,0.2456
1108.0,0.2056
1109.0,0.2065
1110.0,0.243
1111.0,0.1615
1112.0,0.2051
1113.0,0.1271
1114.0,0.1424
1115.0,0.1179
1116.0,0.09203
1117.0,0.03161
1118.0,0.1008
1119.0,0.04821
1120.0,0.06054
1121.0,0.08145
1122.0,0.03271
1123.0,0.05479
1124.0,0.04622
1125.0,0.06075
1126.0,0.01961
1127.0,0.06867
1128.0,0.03938
1129.0,0.04202
1130.0,0.02705
1131.0,0.1344
1132.0,0.1046
1133.0,0.06406
1134.0,0.01514
1135.0,0.005748
1136.0,0.05264
1137.0,0.1313
1138.0,0.09202
1139.0,0.1417
1140.0,0.1167
1141.0,0.08749
1142.0,0.1015
1143.0,0.146
1144.0,0.04889
1145.0,0.06183
1146.0,0.06665
1147.0,0.02186
1148.0,0.1263
1149.0,0.0995
1150.0,0.05282
1151.0,0.09129
1152.0,0.1139
1153.0,0.1122
1154.0,0.05973
1155.0,0.1477
1156.0,0.1322
1157.0,0.1497
1158.0,0.1481
1159.0,0.1608
1160.0,0.1363
1161.0,0.1702
1162.0,0.1709
1163.0,0.2344
1164.0,0.1997
1165.0,0.1872
1166.0,0.1868
1167.0,0.2041
1168.0,0.2061
1169.0,0.2114
1170.0,0.2308
1171.0,0.2249
1172.0,0.2296
1173.0,0.2303
1174.0,0.1621
1175.0,0.2254
1176.0,0.249
1177.0,0.2382
1178.0,0.1772
1179.0,0.251
1180.0,0.2228
1181.0,0.23
1182.0,0.1569
1183.0,0.2268
1184.0,0.2119
1185.0,0.2039
1186.0,0.2435
1187.0,0.2314
1188.0,0.1593
1189.0,0.2155
1190.0,0.2381
1191.0,0.2251
1192.0,0.2415
1193.0,0.2311
1194.0,0.2384
1195.0,0.2248
1196.0,0.2161
1197.0,0.2389
1198.0,0.2181
1199.0,0.1841
1200.0,0.2281
1201.0,0.2196
1202.0,0.2186
1203.0,0.2166
1204.0,0.1888
1205.0,0.2241
1206.0,0.2483
1207.0,0.2179
1208.0,0.2149
1209.0,0.2194
1210.0,0.2289
1211.0,0.2175
1212.0,0.2142
1213.0,0.2398
1214.0,0.2196
1215.0,0.2153
1216.0,0.2391
1217.0,0.2325
1218.0,0.2371
1219.0,0.2341
1220.0,0.2374
1221.0,0.2399
1222.0,0.2335
1223.0,0.2312
1224.0,0.2296
1225.0,0.2383
1226.0,0.2401
1227.0,0.2208
1228.0,0.2414
1229.0,0.2401
1230.0,0.2359
1231.0,0.243
1232.0,0.2415
1233.0,0.2327
1234.0,0.2429
1235.0,0.2413
1236.0,0.2431
1237.0,0.2395
1238.0,0.2423
1239.0,0.2392
1240.0,0.2401
1241.0,0.2388
1242.0,0.2384
1243.0,0.2365
1244.0,0.2382
1245.0,0.2392
1246.0,0.2378
1247.0,0.2368
1248.0,0.2366
1249.0,0.2374
1250.0,0.2359
1251.0,0.2328
1252.0,0.233
1253.0,0.2309
1254.0,0.2285
1255.0,0.2327
1256.0,0.2258
1257.0,0.2245
1258.0,0.229
1259.0,0.2202
1260.0,0.2214
1261.0,0.2083
1262.0,0.2017
1263.0,0.2021
1264.0,0.1858
1265.0,0.2008
1266.0,0.1928
1267.0,0.1965
1268.0,0.1858
1269.0,0.1119
1270.0,0.1956
1271.0,0.2077
1272.0,0.2085
1273.0,0.2062
1274.0,0.2069
1275.0,0.21
1276.0,0.2122
1277.0,0.2138
1278.0,0.2181
1279.0,0.2162
1280.0,0.2134
1281.0,0.2038
1282.0,0.1965
1283.0,0.2116
1284.0,0.2167
1285.0,0.2181
1286.0,0.2212
1287.0,0.2176
1288.0,0.2176
1289.0,0.2103
1290.0,0.2157
1291.0,0.2188
1292.0,0.2048
1293.0,0.2143
1294.0,0.2128
1295.0,0.2115
1296.0,0.2015
1297.0,0.1902
1298.0,0.2055
1299.0,0.2147
1300.0,0.1804
1301.0,0.1862
1302.0,0.2049
1303.0,0.1782
1304.0,0.1507
1305.0,0.2006
1306.0,0.2005
1307.0,0.1544
1308.0,0.1787
1309.0,0.1988
1310.0,0.1514
1311.0,0.171
1312.0,0.1662
1313.0,0.1627
1314.0,0.1452
1315.0,0.143
1316.0,0.1681
1317.0,0.1591
1318.0,0.1734
1319.0,0.1339
1320.0,0.1301
1321.0,0.1521
1322.0,0.1534
1323.0,0.114
1324.0,0.1314
1325.0,0.1656
1326.0,0.1412
1327.0,0.1345
1328.0,0.1155
1329.0,0.08547
1330.0,0.1119
1331.0,0.066
1332.0,0.06868
1333.0,0.09595
1334.0,0.08207
1335.0,0.1136
1336.0,0.08899
1337.0,0.07828
1338.0,0.08471
1339.0,0.08456
1340.0,0.08268
1341.0,0.07972
1342.0,0.08383
1343.0,0.05475
1344.0,0.03292
1345.0,0.04756
1346.0,0.02237
1347.0,0.02252
1348.0,0.001293
1349.0,0.004809
1350.0,0.005119
1351.0,0.001114
1352.0,0.0002662
1353.0,1.201e-05
1354.0,4.5e-05
1355.0,2.796e-07
1356.0,5.821e-06
1357.0,8.893e-06
1358.0,3.348e-07
1359.0,3.462e-08
1360.0,1.428e-07
1361.0,1.053e-10
1362.0,2.431e-13
1363.0,1.812e-07
1364.0,7.465e-08
1365.0,6.783e-14
1366.0,8.351e-07
1367.0,3.561e-07
1368.0,3.362e-16
1369.0,2.766e-08
1370.0,1.255e-08
1371.0,6.456e-10
1372.0,1.964e-07
1373.0,4.532e-06
1374.0,2.31e-05
1375.0,4.17e-05
1376.0,4.071e-05
1377.0,1.829e-05
1378.0,0.000186
1379.0,7.67e-06
1380.0,1.043e-05
1381.0,2.587e-07
1382.0,1.729e-07
1383.0,2.416e-09
1384.0,3.022e-08
1385.0,1.802e-07
1386.0,1.452e-07
1387.0,2.26e-05
1388.0,4.487e-07
1389.0,8.524e-05
1390.0,7.312e-05
1391.0,4.793e-05
1392.0,3.034e-06
1393.0,1.692e-05
1394.0,7.512e-06
1395.0,4.993e-08
1396.0,1.608e-10
1397.0,6.499e-06
1398.0,0.0002067
1399.0,0.0001316
1400.0,6.213e-11
1401.0,3.012e-10
1402.0,0.0004188
1403.0,0.0005131
1404.0,0.0001546
1405.0,2.263e-08
1406.0,0.000385
1407.0,3.525e-05
1408.0,0.0003175
1409.0,9.869e-05
1410.0,8.339e-05
1411.0,0.0004535
1412.0,0.0006352
1413.0,0.007319
1414.0,6.648e-05
1415.0,3.079e-05
1416.0,0.01299
1417.0,0.003612
1418.0,0.004047
1419.0,0.000615
1420.0,0.002466
1421.0,0.00268
1422.0,0.01702
1423.0,0.003217
1424.0,0.006123
1425.0,0.008849
1426.0,0.01044
1427.0,0.02008
1428.0,0.001201
1429.0,0.01456
1430.0,0.026
1431.0,0.02887
1432.0,0.0009391
1433.0,0.01795
1434.0,0.008923
1435.0,0.008226
1436.0,0.01694
1437.0,0.01301
1438.0,0.0052
1439.0,0.02351
