interpolation:linear
wavelength,value
280.0,9.204e-21
280.5,2.774e-19
281.0,1.445e-18
281.5,4.71e-19
282.0,1.489e-18
282.5,3.946e-18
283.0,1.273e-17
283.5,2.081e-17
284.0,3.298e-16
284.5,9.394e-16
285.0,1.841e-15
285.5,9.726e-15
286.0,3.966e-14
286.5,1.789e-13
287.0,5.108e-13
287.5,1.941e-12
288.0,5.122e-12
288.5,1.837e-11
289.0,5.561e-11
289.5,1.868e-10
290.0,5.571e-10
290.5,1.199e-09
291.0,2.729e-09
291.5,8.561e-09
292.0,2.078e-08
292.5,3.277e-08
293.0,8.193e-08
293.5,2.48e-07
294.0,4.565e-07
294.5,6.087e-07
295.0,1.215e-06
295.5,3.321e-06
296.0,6.582e-06
296.5,9.462e-06
297.0,1.311e-05
297.5,3.641e-05
298.0,5.919e-05
298.5,6.103e-05
299.0,0.0001379
299.5,0.0002391
300.0,0.0002701
300.5,0.0004026
301.0,0.000766
301.5,0.001288
302.0,0.001138
302.5,0.002202
303.0,0.0039
303.5,0.004865
304.0,0.004537
304.5,0.006636
305.0,0.009774
305.5,0.01099
306.0,0.01056
306.5,0.01299
307.0,0.01875
307.5,0.02429
308.0,0.02555
308.5,0.02978
309.0,0.02906
309.5,0.03265
310.0,0.03252
310.5,0.05244
311.0,0.06536
311.5,0.0629
312.0,0.0619
312.5,0.07452
313.0,0.08038
313.5,0.07847
314.0,0.09685
314.5,0.08439
315.0,0.1106
315.5,0.09329
316.0,0.08032
316.5,0.1139
317.0,0.1415
317.5,0.1478
318.0,0.1143
318.5,0.1396
319.0,0.1643
319.5,0.1357
320.0,0.1643
320.5,0.2022
321.0,0.1773
321.5,0.1697
322.0,0.184
322.5,0.1599
323.0,0.1575
323.5,0.1916
324.0,0.2233
324.5,0.2277
325.0,0.1979
325.5,0.2522
326.0,0.3077
326.5,0.3063
327.0,0.3059
327.5,0.2964
328.0,0.266
328.5,0.2769
329.0,0.329
329.5,0.3726
330.0,0.3766
330.5,0.3033
331.0,0.3096
331.5,0.3133
332.0,0.3363
332.5,0.3317
333.0,0.3313
333.5,0.3013
334.0,0.309
334.5,0.3546
335.0,0.3322
335.5,0.388
336.0,0.2685
336.5,0.3149
337.0,0.259
337.5,0.3224
338.0,0.3134
338.5,0.3617
339.0,0.358
339.5,0.3444
340.0,0.4049
340.5,0.3648
341.0,0.3558
341.5,0.3267
342.0,0.3904
342.5,0.3653
343.0,0.4018
343.5,0.3784
344.0,0.2797
344.5,0.2825
345.0,0.3739
345.5,0.3817
346.0,0.3244
346.5,0.3673
347.0,0.3944
347.5,0.319
348.0,0.3636
348.5,0.3634
349.0,0.3372
349.5,0.3339
350.0,0.413
350.5,0.4357
351.0,0.3893
351.5,0.3784
352.0,0.4065
352.5,0.3172
353.0,0.3996
353.5,0.4273
354.0,0.4436
354.5,0.4499
355.0,0.4485
355.5,0.4052
356.0,0.424
356.5,0.3621
357.0,0.2992
357.5,0.3663
358.0,0.2903
358.5,0.2481
359.0,0.3471
359.5,0.4424
360.0,0.469
360.5,0.3749
361.0,0.3418
361.5,0.3936
362.0,0.3404
362.5,0.4712
363.0,0.4233
363.5,0.3899
364.0,0.4769
364.5,0.4077
365.0,0.4153
365.5,0.5213
366.0,0.5524
366.5,0.5191
367.0,0.5056
367.5,0.5247
368.0,0.4593
368.5,0.4635
369.0,0.5006
369.5,0.5337
370.0,0.569
370.5,0.4417
371.0,0.472
371.5,0.5906
372.0,0.392
372.5,0.4701
373.0,0.4783
373.5,0.3112
374.0,0.4523
374.5,0.3746
375.0,0.3642
375.5,0.5438
376.0,0.4509
376.5,0.4673
377.0,0.4948
377.5,0.579
378.0,0.6277
378.5,0.5933
379.0,0.4897
379.5,0.4474
380.0,0.4652
380.5,0.5635
381.0,0.5648
381.5,0.4478
382.0,0.3977
382.5,0.3391
383.0,0.314
383.5,0.3025
384.0,0.3337
384.5,0.4909
385.0,0.4869
385.5,0.4535
386.0,0.3885
386.5,0.5104
387.0,0.4241
387.5,0.4765
388.0,0.44
388.5,0.435
389.0,0.4696
389.5,0.5688
390.0,0.571
390.5,0.5255
391.0,0.6187
391.5,0.6311
392.0,0.5316
392.5,0.476
393.0,0.2649
393.5,0.1926
394.0,0.392
394.5,0.4984
395.0,0.6082
395.5,0.618
396.0,0.5358
396.5,0.3133
397.0,0.2351
397.5,0.4783
398.0,0.6698
398.5,0.6924
399.0,0.7499
399.5,0.7475
400.0,0.7763
401.0,0.7879
402.0,0.8314
403.0,0.79
404.0,0.778
405.0,0.778
406.0,0.7655
407.0,0.7533
408.0,0.7829
409.0,0.838
410.0,0.7324
411.0,0.7934
412.0,0.8523
413.0,0.8313
414.0,0.8417
415.0,0.844
416.0,0.8589
417.0,0.8379
418.0,0.8225
419.0,0.8335
420.0,0.8299
421.0,0.8683
422.0,0.8254
423.0,0.8064
424.0,0.853
425.0,0.8516
426.0,0.8296
427.0,0.8142
428.0,0.7932
429.0,0.7514
430.0,0.6576
431.0,0.6519
432.0,0.8418
433.0,0.8465
434.0,0.7861
435.0,0.821
436.0,0.9252
437.0,0.9128
438.0,0.8313
439.0,0.8599
440.0,0.8873
441.0,0.9195
442.0,0.9862
443.0,0.9607
444.0,0.9815
445.0,0.9604
446.0,0.9165
447.0,0.9909
448.0,1.006
449.0,1.01
450.0,1.039
451.0,1.077
452.0,1.038
453.0,0.9763
454.0,1.019
455.0,1.026
456.0,1.05
457.0,1.067
458.0,1.031
459.0,1.026
460.0,1.029
461.0,1.052
462.0,1.06
463.0,1.053
464.0,1.036
465.0,1.023
466.0,1.032
467.0,1.014
468.0,1.026
469.0,1.031
470.0,0.9982
471.0,0.9969
472.0,1.05
473.0,1.037
474.0,1.038
475.0,1.047
476.0,1.016
477.0,1.019
478.0,1.047
479.0,1.041
480.0,1.043
481.0,1.062
482.0,1.068
483.0,1.055
484.0,1.033
485.0,0.9843
486.0,0.8604
487.0,0.9017
488.0,0.9892
489.0,0.9924
490.0,1.044
491.0,1.026
492.0,0.9688
493.0,1.001
494.0,1.011
495.0,1.019
496.0,1.025
497.0,1.041
498.0,0.9927
499.0,1.005
500.0,0.9762
501.0,0.9584
502.0,0.945
503.0,0.9836
504.0,0.959
505.0,0.9931
506.0,1.025
507.0,0.9755
508.0,0.945
509.0,0.9714
510.0,0.9662
511.0,0.992
512.0,1.003
513.0,0.9491
514.0,0.9425
515.0,0.9332
516.0,0.9309
517.0,0.8271
518.0,0.8696
519.0,0.9121
520.0,0.9453
521.0,0.9543
522.0,0.9552
523.0,0.938
524.0,0.9716
525.0,0.9832
526.0,0.9392
527.0,0.8851
528.0,0.9362
529.0,0.9869
530.0,0.9727
531.0,0.9872
532.0,0.9533
533.0,0.9253
534.0,0.9527
535.0,0.9734
536.0,0.9823
537.0,0.9435
538.0,0.9602
539.0,0.9521
540.0,0.9129
541.0,0.919
542.0,0.9479
543.0,0.9378
544.0,0.9541
545.0,0.9512
546.0,0.9554
547.0,0.9549
548.0,0.9435
549.0,0.9463
550.0,0.9576
551.0,0.9459
552.0,0.9525
553.0,0.9355
554.0,0.9579
555.0,0.9598
556.0,0.9473
557.0,0.9179
558.0,0.9111
559.0,0.8941
560.0,0.9053
561.0,0.9171
562.0,0.9105
563.0,0.9354
564.0,0.91
565.0,0.9022
566.0,0.889
567.0,0.9059
568.0,0.898
569.0,0.8769
570.0,0.8766
571.0,0.8713
572.0,0.8924
573.0,0.902
574.0,0.8991
575.0,0.8824
576.0,0.8743
577.0,0.8838
578.0,0.8705
579.0,0.8738
580.0,0.8902
581.0,0.8947
582.0,0.9115
583.0,0.9136
584.0,0.9215
585.0,0.8989
586.0,0.8804
587.0,0.8998
588.0,0.8783
589.0,0.7788
590.0,0.8144
591.0,0.8614
592.0,0.8507
593.0,0.863
594.0,0.8572
595.0,0.8362
596.0,0.8687
597.0,0.8594
598.0,0.857
599.0,0.8577
600.0,0.8588
601.0,0.8517
602.0,0.8459
603.0,0.8598
604.0,0.8741
605.0,0.8695
606.0,0.8659
607.0,0.8744
608.0,0.8647
609.0,0.8661
610.0,0.8599
611.0,0.8643
612.0,0.8618
613.0,0.8509
614.0,0.8393
615.0,0.8575
616.0,0.8292
617.0,0.8275
618.0,0.8593
619.0,0.8506
620.0,0.856
621.0,0.8568
622.0,0.8469
623.0,0.834
624.0,0.8197
625.0,0.8178
626.0,0.8299
627.0,0.8393
628.0,0.7852
629.0,0.8199
630.0,0.8011
631.0,0.8187
632.0,0.8088
633.0,0.8333
634.0,0.825
635.0,0.8378
636.0,0.8266
637.0,0.8401
638.0,0.8481
639.0,0.8385
640.0,0.8303
641.0,0.8297
642.0,0.8259
643.0,0.837
644.0,0.8343
645.0,0.8356
646.0,0.8163
647.0,0.807
648.0,0.8078
649.0,0.7922
650.0,0.7955
651.0,0.8299
652.0,0.7959
653.0,0.8189
654.0,0.8097
655.0,0.7798
656.0,0.691
657.0,0.7096
658.0,0.795
659.0,0.8007
660.0,0.804
661.0,0.8096
662.0,0.8114
663.0,0.7953
664.0,0.8046
665.0,0.8051
666.0,0.8057
667.0,0.8049
668.0,0.8052
669.0,0.8176
670.0,0.8141
671.0,0.8139
672.0,0.8069
673.0,0.819
674.0,0.8159
675.0,0.8085
676.0,0.814
677.0,0.8059
678.0,0.8082
679.0,0.7951
680.0,0.8015
681.0,0.7962
682.0,0.7952
683.0,0.7937
684.0,0.7897
685.0,0.7964
686.0,0.7917
687.0,0.5312
688.0,0.6199
689.0,0.6221
690.0,0.6516
691.0,0.6848
692.0,0.7089
693.0,0.7032
694.0,0.6973
695.0,0.7255
696.0,0.7265
697.0,0.7702
698.0,0.7582
699.0,0.7406
700.0,0.7317
701.0,0.7244
702.0,0.7292
703.0,0.7306
704.0,0.7536
705.0,0.7548
706.0,0.754
707.0,0.7545
708.0,0.7561
709.0,0.757
710.0,0.7571
711.0,0.756
712.0,0.7536
713.0,0.7461
714.0,0.7489
715.0,0.7255
716.0,0.7259
717.0,0.6317
718.0,0.5805
719.0,0.5319
720.0,0.5573
721.0,0.614
722.0,0.7011
723.0,0.6534
724.0,0.5895
725.0,0.5803
726.0,0.6073
727.0,0.6155
728.0,0.5789
729.0,0.5999
730.0,0.6348
731.0,0.6075
732.0,0.6491
733.0,0.6864
734.0,0.7025
735.0,0.6881
736.0,0.6872
737.0,0.6899
738.0,0.7001
739.0,0.6863
740.0,0.704
741.0,0.6969
742.0,0.6975
743.0,0.7152
744.0,0.7131
745.0,0.7132
746.0,0.7165
747.0,0.718
748.0,0.7165
749.0,0.7084
750.0,0.7079
751.0,0.7008
752.0,0.7038
753.0,0.7073
754.0,0.7089
755.0,0.7049
756.0,0.7046
757.0,0.7056
758.0,0.6968
759.0,0.683
760.0,0.1178
761.0,0.06245
762.0,0.3537
763.0,0.1787
764.0,0.2669
765.0,0.3537
766.0,0.4325
767.0,0.5439
768.0,0.6262
769.0,0.6391
770.0,0.6605
771.0,0.6656
772.0,0.667
773.0,0.6717
774.0,0.6684
775.0,0.6633
776.0,0.6714
777.0,0.6625
778.0,0.6585
779.0,0.659
780.0,0.6554
781.0,0.656
782.0,0.6601
783.0,0.6486
784.0,0.6517
785.0,0.6469
786.0,0.6541
787.0,0.6428
788.0,0.6349
789.0,0.6347
790.0,0.618
791.0,0.6231
792.0,0.6185
793.0,0.6085
794.0,0.6187
795.0,0.6292
796.0,0.6102
797.0,0.611
798.0,0.6285
799.0,0.6245
800.0,0.6138
801.0,0.6119
802.0,0.6102
803.0,0.6056
804.0,0.6063
805.0,0.6044
806.0,0.6212
807.0,0.6137
808.0,0.6143
809.0,0.6028
810.0,0.598
811.0,0.5989
812.0,0.582
813.0,0.57
814.0,0.5022
815.0,0.4991
816.0,0.4646
817.0,0.473
818.0,0.4555
819.0,0.5086
820.0,0.4792
821.0,0.5594
822.0,0.5435
823.0,0.3709
824.0,0.528
825.0,0.5497
826.0,0.5291
827.0,0.5581
828.0,0.4738
829.0,0.5258
830.0,0.519
831.0,0.5208
832.0,0.5049
833.0,0.5369
834.0,0.5181
835.0,0.5687
836.0,0.5446
837.0,0.5703
838.0,0.5527
839.0,0.5617
840.0,0.574
841.0,0.5658
842.0,0.567
843.0,0.5667
844.0,0.5588
845.0,0.5776
846.0,0.5751
847.0,0.5644
848.0,0.5609
849.0,0.5449
850.0,0.5221
851.0,0.5528
852.0,0.5489
853.0,0.5283
854.0,0.4562
855.0,0.5012
856.0,0.5477
857.0,0.5599
858.0,0.5558
859.0,0.5563
860.0,0.5573
861.0,0.5542
862.0,0.5629
863.0,0.5762
864.0,0.5474
865.0,0.5426
866.0,0.4879
867.0,0.5092
868.0,0.5541
869.0,0.5426
870.0,0.5581
871.0,0.5505
872.0,0.5485
873.0,0.5474
874.0,0.5409
875.0,0.5299
876.0,0.5355
877.0,0.5409
878.0,0.5467
879.0,0.5383
880.0,0.5268
881.0,0.5189
882.0,0.5301
883.0,0.5318
884.0,0.5293
885.0,0.5333
886.0,0.5083
887.0,0.5137
888.0,0.5212
889.0,0.5272
890.0,0.5227
891.0,0.5219
892.0,0.5067
893.0,0.4908
894.0,0.4734
895.0,0.4471
896.0,0.4211
897.0,0.3614
898.0,0.3945
899.0,0.2997
900.0,0.4042
901.0,0.3142
902.0,0.3692
903.0,0.3727
904.0,0.4698
905.0,0.4535
906.0,0.4244
907.0,0.3443
908.0,0.3512
909.0,0.3807
910.0,0.3362
911.0,0.3586
912.0,0.375
913.0,0.3412
914.0,0.3384
915.0,0.3668
916.0,0.3104
917.0,0.3944
918.0,0.3182
919.0,0.4017
920.0,0.4061
921.0,0.4224
922.0,0.3773
923.0,0.4081
924.0,0.3866
925.0,0.3782
926.0,0.3823
927.0,0.4284
928.0,0.313
929.0,0.2853
930.0,0.2235
931.0,0.2118
932.0,0.1517
933.0,0.1229
934.0,0.0664
935.0,0.1261
936.0,0.07812
937.0,0.0791
938.0,0.09753
939.0,0.2052
940.0,0.2475
941.0,0.186
942.0,0.2159
943.0,0.1413
944.0,0.1494
945.0,0.1919
946.0,0.09669
947.0,0.1925
948.0,0.1413
949.0,0.2587
950.0,0.07034
951.0,0.2549
952.0,0.1356
953.0,0.176
954.0,0.2168
955.0,0.1782
956.0,0.1735
957.0,0.1357
958.0,0.2473
959.0,0.1953
960.0,0.2189
961.0,0.2466
962.0,0.2332
963.0,0.2697
964.0,0.2468
965.0,0.2687
966.0,0.2686
967.0,0.2673
968.0,0.3612
969.0,0.377
970.0,0.3459
971.0,0.3971
972.0,0.3797
973.0,0.3293
974.0,0.3124
975.0,0.3248
976.0,0.3077
977.0,0.3515
978.0,0.3334
979.0,0.3496
980.0,0.3284
981.0,0.3949
982.0,0.3771
983.0,0.3618
984.0,0.4074
985.0,0.3757
986.0,0.4148
987.0,0.4064
988.0,0.4057
989.0,0.4138
990.0,0.4032
991.0,0.415
992.0,0.4174
993.0,0.4078
994.0,0.4173
995.0,0.4169
996.0,0.415
997.0,0.4156
998.0,0.4136
999.0,0.4121
1000.0,0.4091
1001.0,0.4143
1002.0,0.4026
1003.0,0.407
1004.0,0.3969
1005.0,0.3825
1006.0,0.3974
1007.0,0.4059
1008.0,0.4036
1009.0,0.4014
1010.0,0.3996
1011.0,0.4038
1012.0,0.4002
1013.0,0.4029
1014.0,0.4
1015.0,0.3974
1016.0,0.3956
1017.0,0.3966
1018.0,0.3951
1019.0,0.3866
1020.0,0.393
1021.0,0.3925
1022.0,0.3894
1023.0,0.3935
1024.0,0.3883
1025.0,0.3933
1026.0,0.3916
1027.0,0.3907
1028.0,0.3898
1029.0,0.3852
1030.0,0.3879
1031.0,0.3863
1032.0,0.3852
1033.0,0.3794
1034.0,0.3795
1035.0,0.3806
1036.0,0.3826
1037.0,0.3764
1038.0,0.378
1039.0,0.3778
1040.0,0.3763
1041.0,0.3778
1042.0,0.3751
1043.0,0.3739
1044.0,0.3752
1045.0,0.3701
1046.0,0.3661
1047.0,0.3693
1048.0,0.3713
1049.0,0.37
1050.0,0.3683
1051.0,0.3678
1052.0,0.3662
1053.0,0.3633
1054.0,0.3641
1055.0,0.3643
1056.0,0.363
1057.0,0.3618
1058.0,0.3529
1059.0,0.3533
1060.0,0.3527
1061.0,0.3523
1062.0,0.3541
1063.0,0.3506
1064.0,0.3547
1065.0,0.3521
1066.0,0.3452
1067.0,0.3497
1068.0,0.342
1069.0,0.3314
1070.0,0.3427
1071.0,0.3481
1072.0,0.344
1073.0,0.3391
1074.0,0.348
1075.0,0.3301
1076.0,0.3477
1077.0,0.3412
1078.0,0.3347
1079.0,0.3422
1080.0,0.336
1081.0,0.325
1082.0,0.3306
1083.0,0.3317
1084.0,0.3241
1085.0,0.3368
1086.0,0.3067
1087.0,0.317
1088.0,0.3312
1089.0,0.3207
1090.0,0.3134
1091.0,0.3301
1092.0,0.3293
1093.0,0.2781
1094.0,0.3012
1095.0,0.2899
1096.0,0.2773
1097.0,0.3217
1098.0,0.2728
1099.0,0.2848
1100.0,0.2642
1101.0,0.2677
1102.0,0.2554
1103.0,0.2527
1104.0,0.253
1105.0,0.2781
1106.0,0.211
1107.0,0.2638
1108.0,0.2225
1109.0,0.2232
1110.0,0.2613
1111.0,0.1758
1112.0,0.2215
1113.0,0.1395
1114.0,0.1561
1115.0,0.1293
1116.0,0.1023
1117.0,0.03653
1118.0,0.1116
1119.0,0.05453
1120.0,0.06859
1121.0,0.09156
1122.0,0.03778
1123.0,0.06202
1124.0,0.05233
1125.0,0.06849
1126.0,0.02309
1127.0,0.07732
1128.0,0.04543
1129.0,0.04833
1130.0,0.03148
1131.0,0.1486
1132.0,0.1162
1133.0,0.07257
1134.0,0.01793
1135.0,0.006754
1136.0,0.06016
1137.0,0.1457
1138.0,0.1024
1139.0,0.1548
1140.0,0.1285
1141.0,0.09732
1142.0,0.1124
1143.0,0.1604
1144.0,0.05503
1145.0,0.07002
1146.0,0.07551
1147.0,0.02577
1148.0,0.1388
1149.0,0.1102
1150.0,0.05929
1151.0,0.1016
1152.0,0.1258
1153.0,0.1231
1154.0,0.06775
1155.0,0.1614
1156.0,0.145
1157.0,0.1633
1158.0,0.1615
1159.0,0.1747
1160.0,0.1488
1161.0,0.1842
1162.0,0.1851
1163.0,0.2513
1164.0,0.2151
1165.0,0.2025
1166.0,0.2014
1167.0,0.2196
1168.0,0.2219
1169.0,0.2273
1170.0,0.2474
1171.0,0.2412
1172.0,0.2457
1173.0,0.2468
1174.0,0.1757
1175.0,0.2412
1176.0,0.2655
1177.0,0.2547
1178.0,0.1909
1179.0,0.2676
1180.0,0.2386
1181.0,0.2462
1182.0,0.1695
1183.0,0.2425
1184.0,0.2272
1185.0,0.2191
1186.0,0.2601
1187.0,0.2476
1188.0,0.1724
1189.0,0.2307
1190.0,0.2542
1191.0,0.2412
1192.0,0.2578
1193.0,0.2469
1194.0,0.2546
1195.0,0.2407
1196.0,0.2318
1197.0,0.2547
1198.0,0.233
1199.0,0.1981
1200.0,0.2438
1201.0,0.2351
1202.0,0.2338
1203.0,0.2318
1204.0,0.2027
1205.0,0.2393
1206.0,0.2643
1207.0,0.2332
1208.0,0.2295
1209.0,0.2343
1210.0,0.2441
1211.0,0.2324
1212.0,0.2296
1213.0,0.2556
1214.0,0.2351
1215.0,0.2307
1216.0,0.2548
1217.0,0.2481
1218.0,0.2528
1219.0,0.2496
1220.0,0.253
1221.0,0.2555
1222.0,0.2489
1223.0,0.2466
1224.0,0.245
1225.0,0.2539
1226.0,0.2556
1227.0,0.2358
1228.0,0.2569
1229.0,0.2556
1230.0,0.2513
1231.0,0.2584
1232.0,0.2568
1233.0,0.248
1234.0,0.2581
1235.0,0.2565
1236.0,0.2584
1237.0,0.2548
1238.0,0.2575
1239.0,0.2542
1240.0,0.2552
1241.0,0.254
1242.0,0.2534
1243.0,0.2514
1244.0,0.2531
1245.0,0.2542
1246.0,0.2527
1247.0,0.2518
1248.0,0.2516
1249.0,0.2524
1250.0,0.2508
1251.0,0.2476
1252.0,0.2477
1253.0,0.2457
1254.0,0.2432
1255.0,0.2474
1256.0,0.2405
1257.0,0.2392
1258.0,0.2436
1259.0,0.2348
1260.0,0.2361
1261.0,0.2228
1262.0,0.2162
1263.0,0.2166
1264.0,0.1999
1265.0,0.2152
1266.0,0.2071
1267.0,0.2107
1268.0,0.1998
1269.0,0.124
1270.0,0.2099
1271.0,0.2221
1272.0,0.2228
1273.0,0.2204
1274.0,0.2212
1275.0,0.2244
1276.0,0.2265
1277.0,0.228
1278.0,0.2324
1279.0,0.2303
1280.0,0.2274
1281.0,0.217
1282.0,0.209
1283.0,0.2251
1284.0,0.2305
1285.0,0.232
1286.0,0.2352
1287.0,0.2316
1288.0,0.2315
1289.0,0.2242
1290.0,0.2295
1291.0,0.2327
1292.0,0.2186
1293.0,0.2281
1294.0,0.2265
1295.0,0.2254
1296.0,0.2153
1297.0,0.2036
1298.0,0.2192
1299.0,0.2284
1300.0,0.1934
1301.0,0.1993
1302.0,0.2184
1303.0,0.1908
1304.0,0.1627
1305.0,0.2139
1306.0,0.214
1307.0,0.1663
1308.0,0.1911
1309.0,0.2123
1310.0,0.1631
1311.0,0.1833
1312.0,0.1783
1313.0,0.1748
1314.0,0.1564
1315.0,0.1544
1316.0,0.1803
1317.0,0.1708
1318.0,0.1857
1319.0,0.145
1320.0,0.1405
1321.0,0.1637
1322.0,0.1653
1323.0,0.1242
1324.0,0.1422
1325.0,0.1777
1326.0,0.1524
1327.0,0.1454
1328.0,0.1253
1329.0,0.09383
1330.0,0.1223
1331.0,0.07344
1332.0,0.07597
1333.0,0.1058
1334.0,0.08983
1335.0,0.1237
1336.0,0.09767
1337.0,0.08624
1338.0,0.09334
1339.0,0.09298
1340.0,0.09055
1341.0,0.08815
1342.0,0.09262
1343.0,0.06214
1344.0,0.03724
1345.0,0.05375
1346.0,0.02631
1347.0,0.02668
1348.0,0.001681
1349.0,0.006093
1350.0,0.006367
1351.0,0.001508
1352.0,0.0003966
1353.0,1.97e-05
1354.0,6.915e-05
1355.0,5.278e-07
1356.0,9.609e-06
1357.0,1.465e-05
1358.0,6.265e-07
1359.0,7.585e-08
1360.0,2.826e-07
1361.0,2.897e-10
1362.0,7.65e-13
1363.0,3.783e-07
1364.0,1.563e-07
1365.0,2.564e-13
1366.0,1.673e-06
1367.0,6.902e-07
1368.0,1.812e-15
1369.0,5.832e-08
1370.0,2.829e-08
1371.0,1.574e-09
1372.0,3.799e-07
1373.0,7.901e-06
1374.0,3.748e-05
1375.0,6.81e-05
1376.0,6.23e-05
1377.0,2.841e-05
1378.0,0.000281
1379.0,1.193e-05
1380.0,1.699e-05
1381.0,4.387e-07
1382.0,3.41e-07
1383.0,5.032e-09
1384.0,6.552e-08
1385.0,3.291e-07
1386.0,3.004e-07
1387.0,3.846e-05
1388.0,7.586e-07
1389.0,0.0001335
1390.0,0.0001149
1391.0,7.63e-05
1392.0,4.928e-06
1393.0,2.646e-05
1394.0,1.325e-05
1395.0,9.519e-08
1396.0,4.226e-10
1397.0,1.046e-05
1398.0,0.000315
1399.0,0.0002
1400.0,1.785e-10
1401.0,7.672e-10
1402.0,0.0005742
1403.0,0.0007176
1404.0,0.0002181
1405.0,4.566e-08
1406.0,0.000562
1407.0,5e-05
1408.0,0.0004606
1409.0,0.0001516
1410.0,0.000123
1411.0,0.0006318
1412.0,0.0008611
1413.0,0.009184
1414.0,9.73e-05
1415.0,4.626e-05
1416.0,0.01551
1417.0,0.00453
1418.0,0.005132
1419.0,0.0007893
1420.0,0.003134
1421.0,0.003392
1422.0,0.02029
1423.0,0.003887
1424.0,0.007333
1425.0,0.01071
1426.0,0.01236
1427.0,0.02322
1428.0,0.001574
1429.0,0.01712
1430.0,0.02982
1431.0,0.03292
1432.0,0.001236
1433.0,0.02071
1434.0,0.01041
1435.0,0.01
1436.0,0.01994
1437.0,0.01529
1438.0,0.006281
1439.0,0.0274
1440.0,0.02051
1441.0,0.01529
1442.0,0.01699
