interpolation:linear
wavelength,value
280.0,7.624999999999999e-22
280.5,1.6270000000000002e-20
281.0,7.536e-20
281.5,1.648e-18
282.0,1.063e-17
282.5,3.532e-17
283.0,1.339e-16
283.5,2.324e-16
284.0,4.328e-15
284.5,1.284e-14
285.0,3.531e-14
285.5,2.341e-13
286.0,1.021e-12
286.5,5.168e-12
287.0,1.577e-11
287.5,6.422e-11
288.0,2.185e-10
288.5,8.047e-10
289.0,2.499e-09
289.5,8.596e-09
290.0,2.612e-08
290.5,5.705e-08
291.0,1.32e-07
291.5,4.144e-07
292.0,9.271e-07
292.5,1.331e-06
293.0,2.933e-06
293.5,7.385e-06
294.0,1.184e-05
294.5,2.307e-05
295.0,4.044e-05
295.5,8.367e-05
296.0,0.0001474
296.5,0.0001886
297.0,0.0002372
297.5,0.0005712
298.0,0.0008218
298.5,0.0007709
299.0,0.001588
299.5,0.002341
300.0,0.002413
300.5,0.003269
301.0,0.005313
301.5,0.007692
302.0,0.006268
302.5,0.01141
303.0,0.01875
303.5,0.02233
304.0,0.02024
304.5,0.02752
305.0,0.03675
305.5,0.0389
306.0,0.03653
306.5,0.04328
307.0,0.05768
307.5,0.06935
308.0,0.07206
308.5,0.08106
309.0,0.07641
309.5,0.08155
310.0,0.07929
310.5,0.1263
311.0,0.1543
311.5,0.1471
312.0,0.1387
312.5,0.1623
313.0,0.1724
313.5,0.1705
314.0,0.2034
314.5,0.1695
315.0,0.2202
315.5,0.1897
316.0,0.1575
316.5,0.2165
317.0,0.269
317.5,0.2832
318.0,0.2145
318.5,0.2517
319.0,0.2902
319.5,0.2474
320.0,0.3009
320.5,0.3556
321.0,0.3008
321.5,0.2868
322.0,0.3227
322.5,0.2798
323.0,0.2688
323.5,0.319
324.0,0.3701
324.5,0.3811
325.0,0.3357
325.5,0.4193
326.0,0.5074
326.5,0.4983
327.0,0.4999
327.5,0.487
328.0,0.4447
328.5,0.453
329.0,0.5293
329.5,0.5962
330.0,0.6047
330.5,0.4928
331.0,0.5051
331.5,0.5061
332.0,0.5358
332.5,0.5251
333.0,0.5261
333.5,0.483
334.0,0.4958
334.5,0.5625
335.0,0.5234
335.5,0.6109
336.0,0.4225
336.5,0.497
337.0,0.4104
337.5,0.5116
338.0,0.4927
338.5,0.5681
339.0,0.562
339.5,0.5403
340.0,0.6351
340.5,0.5715
341.0,0.5575
341.5,0.5115
342.0,0.611
342.5,0.5713
343.0,0.6283
343.5,0.5916
344.0,0.4368
344.5,0.4413
345.0,0.5835
345.5,0.5953
346.0,0.5056
346.5,0.5722
347.0,0.6142
347.5,0.4965
348.0,0.5656
348.5,0.5651
349.0,0.524
349.5,0.5186
350.0,0.6411
350.5,0.676
351.0,0.6038
351.5,0.5869
352.0,0.63
352.5,0.4913
353.0,0.6185
353.5,0.6611
354.0,0.6861
354.5,0.6957
355.0,0.6933
355.5,0.626
356.0,0.6547
356.5,0.5589
357.0,0.4618
357.5,0.5652
358.0,0.4478
358.5,0.3826
359.0,0.5351
359.5,0.682
360.0,0.7227
360.5,0.5775
361.0,0.5262
361.5,0.6055
362.0,0.5232
362.5,0.7237
363.0,0.6497
363.5,0.5982
364.0,0.7312
364.5,0.6249
365.0,0.6363
365.5,0.7983
366.0,0.8455
366.5,0.7941
367.0,0.7731
367.5,0.8022
368.0,0.7018
368.5,0.7079
369.0,0.7643
369.5,0.8144
370.0,0.868
370.5,0.6734
371.0,0.7194
371.5,0.8999
372.0,0.5972
372.5,0.7158
373.0,0.7279
373.5,0.4735
374.0,0.6878
374.5,0.5695
375.0,0.5535
375.5,0.8262
376.0,0.6848
376.5,0.7096
377.0,0.7511
377.5,0.8785
378.0,0.9523
378.5,0.9
379.0,0.7427
379.5,0.6785
380.0,0.7053
380.5,0.854
381.0,0.8555
381.5,0.6779
382.0,0.6018
382.5,0.5128
383.0,0.4746
383.5,0.457
384.0,0.504
384.5,0.7412
385.0,0.7349
385.5,0.6842
386.0,0.5859
386.5,0.7694
387.0,0.6392
387.5,0.7179
388.0,0.6627
388.5,0.6549
389.0,0.7069
389.5,0.856
390.0,0.8589
390.5,0.7903
391.0,0.9301
391.5,0.9485
392.0,0.7988
392.5,0.715
393.0,0.3977
393.5,0.289
394.0,0.5881
394.5,0.7475
395.0,0.9121
395.5,0.9265
396.0,0.8031
396.5,0.4693
397.0,0.3521
397.5,0.716
398.0,1.003
398.5,1.036
399.0,1.122
399.5,1.118
400.0,1.161
401.0,1.181
402.0,1.245
403.0,1.183
404.0,1.164
405.0,1.164
406.0,1.144
407.0,1.125
408.0,1.169
409.0,1.251
410.0,1.092
411.0,1.183
412.0,1.269
413.0,1.238
414.0,1.252
415.0,1.255
416.0,1.276
417.0,1.245
418.0,1.221
419.0,1.237
420.0,1.231
421.0,1.288
422.0,1.224
423.0,1.195
424.0,1.264
425.0,1.261
426.0,1.227
427.0,1.204
428.0,1.173
429.0,1.11
430.0,0.9709
431.0,0.9625
432.0,1.242
433.0,1.248
434.0,1.159
435.0,1.21
436.0,1.363
437.0,1.344
438.0,1.223
439.0,1.266
440.0,1.306
441.0,1.352
442.0,1.45
443.0,1.412
444.0,1.442
445.0,1.411
446.0,1.346
447.0,1.454
448.0,1.477
449.0,1.482
450.0,1.522
451.0,1.578
452.0,1.52
453.0,1.429
454.0,1.491
455.0,1.501
456.0,1.536
457.0,1.561
458.0,1.508
459.0,1.5
460.0,1.505
461.0,1.539
462.0,1.55
463.0,1.539
464.0,1.513
465.0,1.492
466.0,1.506
467.0,1.479
468.0,1.496
469.0,1.504
470.0,1.456
471.0,1.454
472.0,1.532
473.0,1.512
474.0,1.515
475.0,1.529
476.0,1.485
477.0,1.49
478.0,1.53
479.0,1.52
480.0,1.522
481.0,1.549
482.0,1.556
483.0,1.536
484.0,1.504
485.0,1.432
486.0,1.252
487.0,1.311
488.0,1.438
489.0,1.443
490.0,1.518
491.0,1.491
492.0,1.408
493.0,1.454
494.0,1.468
495.0,1.48
496.0,1.489
497.0,1.512
498.0,1.442
499.0,1.46
500.0,1.418
501.0,1.393
502.0,1.375
503.0,1.432
504.0,1.4
505.0,1.447
506.0,1.494
507.0,1.421
508.0,1.375
509.0,1.413
510.0,1.405
511.0,1.441
512.0,1.457
513.0,1.378
514.0,1.369
515.0,1.355
516.0,1.352
517.0,1.201
518.0,1.262
519.0,1.324
520.0,1.373
521.0,1.386
522.0,1.387
523.0,1.363
524.0,1.412
525.0,1.43
526.0,1.366
527.0,1.288
528.0,1.363
529.0,1.437
530.0,1.417
531.0,1.438
532.0,1.389
533.0,1.348
534.0,1.388
535.0,1.418
536.0,1.43
537.0,1.373
538.0,1.397
539.0,1.386
540.0,1.329
541.0,1.339
542.0,1.381
543.0,1.366
544.0,1.39
545.0,1.386
546.0,1.393
547.0,1.391
548.0,1.374
549.0,1.378
550.0,1.394
551.0,1.377
552.0,1.387
553.0,1.362
554.0,1.395
555.0,1.398
556.0,1.38
557.0,1.337
558.0,1.328
559.0,1.304
560.0,1.321
561.0,1.338
562.0,1.329
563.0,1.367
564.0,1.33
565.0,1.319
566.0,1.3
567.0,1.326
568.0,1.316
569.0,1.289
570.0,1.288
571.0,1.279
572.0,1.313
573.0,1.327
574.0,1.324
575.0,1.3
576.0,1.288
577.0,1.302
578.0,1.281
579.0,1.284
580.0,1.306
581.0,1.31
582.0,1.333
583.0,1.334
584.0,1.345
585.0,1.311
586.0,1.284
587.0,1.314
588.0,1.287
589.0,1.151
590.0,1.203
591.0,1.267
592.0,1.254
593.0,1.268
594.0,1.262
595.0,1.234
596.0,1.274
597.0,1.262
598.0,1.256
599.0,1.256
600.0,1.256
601.0,1.244
602.0,1.235
603.0,1.255
604.0,1.276
605.0,1.268
606.0,1.262
607.0,1.274
608.0,1.259
609.0,1.26
610.0,1.251
611.0,1.257
612.0,1.252
613.0,1.236
614.0,1.219
615.0,1.245
616.0,1.203
617.0,1.2
618.0,1.246
619.0,1.233
620.0,1.241
621.0,1.243
622.0,1.229
623.0,1.211
624.0,1.19
625.0,1.187
626.0,1.205
627.0,1.22
628.0,1.162
629.0,1.199
630.0,1.172
631.0,1.191
632.0,1.175
633.0,1.208
634.0,1.194
635.0,1.211
636.0,1.194
637.0,1.212
638.0,1.222
639.0,1.208
640.0,1.195
641.0,1.193
642.0,1.187
643.0,1.203
644.0,1.198
645.0,1.201
646.0,1.175
647.0,1.167
648.0,1.169
649.0,1.147
650.0,1.145
651.0,1.193
652.0,1.152
653.0,1.177
654.0,1.163
655.0,1.124
656.0,0.993
657.0,1.019
658.0,1.14
659.0,1.147
660.0,1.151
661.0,1.159
662.0,1.163
663.0,1.14
664.0,1.151
665.0,1.15
666.0,1.15
667.0,1.148
668.0,1.148
669.0,1.165
670.0,1.16
671.0,1.159
672.0,1.149
673.0,1.166
674.0,1.161
675.0,1.15
676.0,1.158
677.0,1.146
678.0,1.149
679.0,1.13
680.0,1.139
681.0,1.132
682.0,1.13
683.0,1.128
684.0,1.122
685.0,1.132
686.0,1.125
687.0,0.8465
688.0,0.9433
689.0,0.9451
690.0,0.9754
691.0,1.009
692.0,1.032
693.0,1.025
694.0,1.017
695.0,1.047
696.0,1.049
697.0,1.097
698.0,1.081
699.0,1.065
700.0,1.052
701.0,1.044
702.0,1.048
703.0,1.05
704.0,1.077
705.0,1.079
706.0,1.076
707.0,1.076
708.0,1.078
709.0,1.076
710.0,1.078
711.0,1.075
712.0,1.07
713.0,1.061
714.0,1.065
715.0,1.035
716.0,1.036
717.0,0.9355
718.0,0.8665
719.0,0.7982
720.0,0.8383
721.0,0.902
722.0,1.007
723.0,0.9505
724.0,0.8714
725.0,0.8626
726.0,0.8996
727.0,0.9043
728.0,0.8619
729.0,0.8808
730.0,0.931
731.0,0.8954
732.0,0.9437
733.0,0.9854
734.0,1.005
735.0,0.9862
736.0,0.9847
737.0,0.9891
738.0,0.9957
739.0,0.9763
740.0,0.999
741.0,0.9875
742.0,0.9869
743.0,1.012
744.0,1.008
745.0,1.007
746.0,1.012
747.0,1.014
748.0,1.012
749.0,1.0
750.0,0.9993
751.0,0.9891
752.0,0.9933
753.0,0.9982
754.0,1.0
755.0,0.9948
756.0,0.9943
757.0,0.9958
758.0,0.9836
759.0,0.9686
760.0,0.2738
761.0,0.1736
762.0,0.5998
763.0,0.3692
764.0,0.4918
765.0,0.6003
766.0,0.6855
767.0,0.816
768.0,0.9042
769.0,0.9149
770.0,0.9368
771.0,0.9404
772.0,0.9411
773.0,0.9473
774.0,0.9425
775.0,0.9351
776.0,0.9464
777.0,0.9339
778.0,0.9282
779.0,0.929
780.0,0.9237
781.0,0.9246
782.0,0.9303
783.0,0.914
784.0,0.9183
785.0,0.9118
786.0,0.9221
787.0,0.9098
788.0,0.9003
789.0,0.9005
790.0,0.8823
791.0,0.8844
792.0,0.8772
793.0,0.8637
794.0,0.8725
795.0,0.8887
796.0,0.8691
797.0,0.8703
798.0,0.8885
799.0,0.8843
800.0,0.8708
801.0,0.8697
802.0,0.867
803.0,0.8613
804.0,0.8617
805.0,0.8568
806.0,0.8773
807.0,0.8676
808.0,0.8679
809.0,0.8543
810.0,0.8494
811.0,0.8539
812.0,0.835
813.0,0.8212
814.0,0.7413
815.0,0.7362
816.0,0.6883
817.0,0.6983
818.0,0.6764
819.0,0.7395
820.0,0.7031
821.0,0.7994
822.0,0.7803
823.0,0.5674
824.0,0.7651
825.0,0.7867
826.0,0.7636
827.0,0.7986
828.0,0.6973
829.0,0.7576
830.0,0.7499
831.0,0.7517
832.0,0.7324
833.0,0.7684
834.0,0.748
835.0,0.8074
836.0,0.7816
837.0,0.809
838.0,0.7877
839.0,0.796
840.0,0.8124
841.0,0.8026
842.0,0.8018
843.0,0.7987
844.0,0.7891
845.0,0.8137
846.0,0.8097
847.0,0.7938
848.0,0.7901
849.0,0.7677
850.0,0.7353
851.0,0.7798
852.0,0.7737
853.0,0.7438
854.0,0.643
855.0,0.7053
856.0,0.7712
857.0,0.7877
858.0,0.7822
859.0,0.7824
860.0,0.7834
861.0,0.7793
862.0,0.7913
863.0,0.81
864.0,0.7695
865.0,0.7626
866.0,0.6857
867.0,0.7156
868.0,0.7786
869.0,0.7624
870.0,0.7841
871.0,0.7735
872.0,0.7707
873.0,0.7691
874.0,0.76
875.0,0.7446
876.0,0.7524
877.0,0.7599
878.0,0.7684
879.0,0.7565
880.0,0.7403
881.0,0.7297
882.0,0.7457
883.0,0.7475
884.0,0.7443
885.0,0.7499
886.0,0.7167
887.0,0.7228
888.0,0.7345
889.0,0.741
890.0,0.7369
891.0,0.7346
892.0,0.716
893.0,0.6971
894.0,0.679
895.0,0.6498
896.0,0.6163
897.0,0.5411
898.0,0.5835
899.0,0.4586
900.0,0.5905
901.0,0.4799
902.0,0.544
903.0,0.5553
904.0,0.6739
905.0,0.6544
906.0,0.6156
907.0,0.5174
908.0,0.5254
909.0,0.5606
910.0,0.5107
911.0,0.5355
912.0,0.5561
913.0,0.5189
914.0,0.512
915.0,0.553
916.0,0.4733
917.0,0.5835
918.0,0.4856
919.0,0.5905
920.0,0.5893
921.0,0.6107
922.0,0.5567
923.0,0.5895
924.0,0.5709
925.0,0.559
926.0,0.5649
927.0,0.6221
928.0,0.4858
929.0,0.4515
930.0,0.368
931.0,0.3463
932.0,0.2627
933.0,0.2212
934.0,0.1376
935.0,0.22
936.0,0.1475
937.0,0.1511
938.0,0.1816
939.0,0.3356
940.0,0.3945
941.0,0.3104
942.0,0.351
943.0,0.241
944.0,0.245
945.0,0.3179
946.0,0.1756
947.0,0.3227
948.0,0.2396
949.0,0.4182
950.0,0.1386
951.0,0.4094
952.0,0.2385
953.0,0.2958
954.0,0.3495
955.0,0.2977
956.0,0.2836
957.0,0.2407
958.0,0.3824
959.0,0.3178
960.0,0.3556
961.0,0.3886
962.0,0.3692
963.0,0.4163
964.0,0.3847
965.0,0.4135
966.0,0.416
967.0,0.415
968.0,0.5255
969.0,0.5507
970.0,0.5104
971.0,0.5707
972.0,0.5485
973.0,0.491
974.0,0.4683
975.0,0.4806
976.0,0.4634
977.0,0.5135
978.0,0.4936
979.0,0.5125
980.0,0.4849
981.0,0.5668
982.0,0.5467
983.0,0.5278
984.0,0.5787
985.0,0.5445
986.0,0.5857
987.0,0.5775
988.0,0.5765
989.0,0.582
990.0,0.5727
991.0,0.5841
992.0,0.5872
993.0,0.5774
994.0,0.5866
995.0,0.5854
996.0,0.5833
997.0,0.5839
998.0,0.5814
999.0,0.5791
1000.0,0.5758
1001.0,0.5821
1002.0,0.5693
1003.0,0.572
1004.0,0.5589
1005.0,0.5373
1006.0,0.5588
1007.0,0.5704
1008.0,0.5679
1009.0,0.5655
1010.0,0.5634
1011.0,0.5674
1012.0,0.5631
1013.0,0.5658
1014.0,0.5619
1015.0,0.5583
1016.0,0.5558
1017.0,0.5573
1018.0,0.5549
1019.0,0.5442
1020.0,0.5521
1021.0,0.5511
1022.0,0.5473
1023.0,0.5532
1024.0,0.5473
1025.0,0.5524
1026.0,0.5503
1027.0,0.549
1028.0,0.548
1029.0,0.5416
1030.0,0.5449
1031.0,0.5429
1032.0,0.5411
1033.0,0.533
1034.0,0.533
1035.0,0.5347
1036.0,0.5376
1037.0,0.5288
1038.0,0.5312
1039.0,0.5309
1040.0,0.5288
1041.0,0.531
1042.0,0.5273
1043.0,0.5257
1044.0,0.5276
1045.0,0.5206
1046.0,0.5149
1047.0,0.5196
1048.0,0.5225
1049.0,0.5208
1050.0,0.5185
1051.0,0.5179
1052.0,0.5159
1053.0,0.5119
1054.0,0.5132
1055.0,0.5137
1056.0,0.5121
1057.0,0.5106
1058.0,0.4982
1059.0,0.499
1060.0,0.4983
1061.0,0.4978
1062.0,0.5006
1063.0,0.4958
1064.0,0.5016
1065.0,0.4985
1066.0,0.4883
1067.0,0.4947
1068.0,0.4842
1069.0,0.469
1070.0,0.4853
1071.0,0.4917
1072.0,0.4869
1073.0,0.4797
1074.0,0.4909
1075.0,0.4697
1076.0,0.4907
1077.0,0.4839
1078.0,0.4754
1079.0,0.4823
1080.0,0.4765
1081.0,0.4628
1082.0,0.4673
1083.0,0.468
1084.0,0.4626
1085.0,0.4772
1086.0,0.4411
1087.0,0.451
1088.0,0.4682
1089.0,0.457
1090.0,0.4494
1091.0,0.4675
1092.0,0.4656
1093.0,0.405
1094.0,0.4272
1095.0,0.4203
1096.0,0.4056
1097.0,0.4546
1098.0,0.4003
1099.0,0.4159
1100.0,0.3915
1101.0,0.3949
1102.0,0.3799
1103.0,0.3783
1104.0,0.3786
1105.0,0.4074
1106.0,0.3296
1107.0,0.3904
1108.0,0.3418
1109.0,0.3403
1110.0,0.3883
1111.0,0.2783
1112.0,0.3369
1113.0,0.2302
1114.0,0.2552
1115.0,0.2121
1116.0,0.1794
1117.0,0.07768
1118.0,0.1911
1119.0,0.1039
1120.0,0.1309
1121.0,0.1678
1122.0,0.07863
1123.0,0.118
1124.0,0.09971
1125.0,0.1279
1126.0,0.05265
1127.0,0.1435
1128.0,0.09453
1129.0,0.09883
1130.0,0.06925
1131.0,0.2523
1132.0,0.2017
1133.0,0.1383
1134.0,0.04248
1135.0,0.01563
1136.0,0.1192
1137.0,0.2506
1138.0,0.1792
1139.0,0.248
1140.0,0.2145
1141.0,0.1702
1142.0,0.1916
1143.0,0.2641
1144.0,0.1025
1145.0,0.1331
1146.0,0.1436
1147.0,0.05918
1148.0,0.2288
1149.0,0.1888
1150.0,0.1099
1151.0,0.1779
1152.0,0.2119
1153.0,0.2013
1154.0,0.1311
1155.0,0.2589
1156.0,0.2368
1157.0,0.2606
1158.0,0.2574
1159.0,0.2727
1160.0,0.2393
1161.0,0.2837
1162.0,0.2858
1163.0,0.3677
1164.0,0.3222
1165.0,0.3101
1166.0,0.3039
1167.0,0.3275
1168.0,0.3323
1169.0,0.3378
1170.0,0.3619
1171.0,0.3538
1172.0,0.3572
1173.0,0.3611
1174.0,0.2728
1175.0,0.3506
1176.0,0.3785
1177.0,0.3678
1178.0,0.2876
1179.0,0.3813
1180.0,0.3481
1181.0,0.3583
1182.0,0.2596
1183.0,0.3511
1184.0,0.3331
1185.0,0.3249
1186.0,0.3735
1187.0,0.3593
1188.0,0.2649
1189.0,0.3356
1190.0,0.365
1191.0,0.3525
1192.0,0.3694
1193.0,0.3562
1194.0,0.3656
1195.0,0.35
1196.0,0.3398
1197.0,0.3634
1198.0,0.3359
1199.0,0.2956
1200.0,0.3521
1201.0,0.3428
1202.0,0.339
1203.0,0.3362
1204.0,0.2997
1205.0,0.344
1206.0,0.3744
1207.0,0.339
1208.0,0.3308
1209.0,0.3368
1210.0,0.3487
1211.0,0.3359
1212.0,0.3359
1213.0,0.3641
1214.0,0.3418
1215.0,0.3364
1216.0,0.3628
1217.0,0.3551
1218.0,0.36
1219.0,0.3564
1220.0,0.3601
1221.0,0.3627
1222.0,0.3544
1223.0,0.3519
1224.0,0.351
1225.0,0.3604
1226.0,0.3617
1227.0,0.3385
1228.0,0.3625
1229.0,0.3617
1230.0,0.3564
1231.0,0.3635
1232.0,0.3615
1233.0,0.3529
1234.0,0.3624
1235.0,0.3607
1236.0,0.3629
1237.0,0.3593
1238.0,0.3616
1239.0,0.357
1240.0,0.3582
1241.0,0.3574
1242.0,0.3558
1243.0,0.3529
1244.0,0.3557
1245.0,0.357
1246.0,0.3549
1247.0,0.3538
1248.0,0.354
1249.0,0.3547
1250.0,0.3528
1251.0,0.3489
1252.0,0.3482
1253.0,0.3467
1254.0,0.3442
1255.0,0.3482
1256.0,0.3408
1257.0,0.3395
1258.0,0.3439
1259.0,0.3352
1260.0,0.3365
1261.0,0.3224
1262.0,0.3152
1263.0,0.316
1264.0,0.2976
1265.0,0.3138
1266.0,0.3055
1267.0,0.3084
1268.0,0.2964
1269.0,0.2113
1270.0,0.3082
1271.0,0.3207
1272.0,0.3212
1273.0,0.3183
1274.0,0.3186
1275.0,0.3223
1276.0,0.3245
1277.0,0.3256
1278.0,0.3299
1279.0,0.3271
1280.0,0.3228
1281.0,0.3072
1282.0,0.2945
1283.0,0.3175
1284.0,0.3254
1285.0,0.3273
1286.0,0.3309
1287.0,0.3273
1288.0,0.3268
1289.0,0.3194
1290.0,0.3237
1291.0,0.3277
1292.0,0.3135
1293.0,0.3227
1294.0,0.3208
1295.0,0.3205
1296.0,0.3097
1297.0,0.2959
1298.0,0.3127
1299.0,0.3226
1300.0,0.2832
1301.0,0.2898
1302.0,0.3115
1303.0,0.2784
1304.0,0.2471
1305.0,0.3059
1306.0,0.3064
1307.0,0.2491
1308.0,0.2773
1309.0,0.3048
1310.0,0.2448
1311.0,0.268
1312.0,0.2624
1313.0,0.2588
1314.0,0.2351
1315.0,0.2342
1316.0,0.2654
1317.0,0.2525
1318.0,0.2704
1319.0,0.2231
1320.0,0.2136
1321.0,0.2447
1322.0,0.2488
1323.0,0.197
1324.0,0.2187
1325.0,0.2621
1326.0,0.2311
1327.0,0.222
1328.0,0.1946
1329.0,0.1545
1330.0,0.1967
1331.0,0.1293
1332.0,0.1298
1333.0,0.1777
1334.0,0.1466
1335.0,0.1961
1336.0,0.1602
1337.0,0.145
1338.0,0.1563
1339.0,0.1543
1340.0,0.1475
1341.0,0.1499
1342.0,0.1571
1343.0,0.1196
1344.0,0.07147
1345.0,0.1012
1346.0,0.05975
1347.0,0.06232
1348.0,0.006337
1349.0,0.01983
1350.0,0.0187
1351.0,0.006749
1352.0,0.00269
1353.0,0.0002249
1354.0,0.0005775
1355.0,1.208e-05
1356.0,0.0001149
1357.0,0.0001717
1358.0,1.378e-05
1359.0,3.433e-06
1360.0,8.045e-06
1361.0,4.043e-08
1362.0,2.244e-10
1363.0,1.253e-05
1364.0,5.732e-06
1365.0,1.692e-10
1366.0,4.53e-05
1367.0,1.748e-05
1368.0,6.186e-12
1369.0,2.27e-06
1370.0,1.487e-06
1371.0,1.255e-07
1372.0,9.737e-06
1373.0,0.0001193
1374.0,0.0003991
1375.0,0.0007079
1376.0,0.0005122
1377.0,0.0002549
1378.0,0.00206
1379.0,0.0001101
1380.0,0.0001891
1381.0,6.339e-06
1382.0,9.492e-06
1383.0,1.982e-07
1384.0,2.849e-06
1385.0,6.629e-06
1386.0,1.02e-05
1387.0,0.0004826
1388.0,1.069e-05
1389.0,0.001175
1390.0,0.001001
1391.0,0.0007324
1392.0,5.596e-05
1393.0,0.0002443
1394.0,0.0002051
1395.0,2.376e-06
1396.0,4.808e-08
1397.0,0.0001118
1398.0,0.002361
1399.0,0.001508
1400.0,3.015e-08
1401.0,7.5e-08
1402.0,0.002787
1403.0,0.003754
1404.0,0.001186
1405.0,1.483e-06
1406.0,0.003453
1407.0,0.0002973
1408.0,0.002781
1409.0,0.001183
1410.0,0.0008475
1411.0,0.003263
1412.0,0.003933
1413.0,0.02784
1414.0,0.0006533
1415.0,0.0003543
1416.0,0.03814
1417.0,0.01449
1418.0,0.01649
1419.0,0.00273
1420.0,0.01024
1421.0,0.0114
1422.0,0.04878
1423.0,0.01033
1424.0,0.01864
1425.0,0.02823
1426.0,0.02963
1427.0,0.04872
1428.0,0.006135
1429.0,0.03886
1430.0,0.06033
1431.0,0.06478
1432.0,0.004928
1433.0,0.04339
1434.0,0.02319
1435.0,0.02694
1436.0,0.04584
1437.0,0.03526
1438.0,0.01663
1439.0,0.0596
1440.0,0.0451
1441.0,0.03717
1442.0,0.04044
1443.0,0.04655
1444.0,0.06289
1445.0,0.05247
1446.0,0.02464
1447.0,0.03888
1448.0,0.107
1449.0,0.09625
1450.0,0.02877
1451.0,0.0125
1452.0,0.06106
1453.0,0.07813
1454.0,0.1228
1455.0,0.06217
1456.0,0.08532
1457.0,0.1076
1458.0,0.1205
1459.0,0.1434
1460.0,0.07824
1461.0,0.08438
1462.0,0.1183
