interpolation:linear
wavelength,value
280.0,3.532e-21
280.5,1.101e-19
281.0,5.799e-19
281.5,3.75e-19
282.0,1.108e-18
282.5,2.921e-18
283.0,9.457e-18
283.5,1.549e-17
284.0,2.514e-16
284.5,7.244e-16
285.0,1.623e-15
285.5,7.96e-15
286.0,3.19e-14
286.5,1.409e-13
287.0,3.988e-13
287.5,1.508e-12
288.0,3.935e-12
288.5,1.325e-11
289.0,3.803e-11
289.5,1.215e-10
290.0,3.491e-10
290.5,7.294e-10
291.0,1.603e-09
291.5,4.828e-09
292.0,1.062e-08
292.5,1.612e-08
293.0,3.821e-08
293.5,1.067e-07
294.0,1.844e-07
294.5,2.388e-07
295.0,4.466e-07
295.5,1.196e-06
296.0,2.396e-06
296.5,3.494e-06
297.0,4.906e-06
297.5,1.397e-05
298.0,2.326e-05
298.5,2.449e-05
299.0,5.658e-05
299.5,0.0001024
300.0,0.0001187
300.5,0.0001822
301.0,0.0003658
301.5,0.0006529
302.0,0.0005986
302.5,0.001178
303.0,0.002135
303.5,0.002704
304.0,0.00255
304.5,0.003839
305.0,0.005882
305.5,0.006777
306.0,0.006575
306.5,0.008217
307.0,0.01227
307.5,0.01641
308.0,0.01736
308.5,0.02055
309.0,0.02022
309.5,0.02318
310.0,0.02331
310.5,0.03777
311.0,0.04745
311.5,0.04582
312.0,0.04586
312.5,0.05585
313.0,0.0606
313.5,0.05885
314.0,0.07362
314.5,0.06531
315.0,0.08584
315.5,0.07182
316.0,0.06274
316.5,0.0901
317.0,0.1119
317.5,0.1165
318.0,0.09086
318.5,0.1128
319.0,0.1338
319.5,0.1092
320.0,0.1319
320.5,0.165
321.0,0.1468
321.5,0.1408
322.0,0.1502
322.5,0.1307
323.0,0.1301
323.5,0.1598
324.0,0.1866
324.5,0.1895
325.0,0.1638
325.5,0.2106
326.0,0.2574
326.5,0.2577
327.0,0.2569
327.5,0.2483
328.0,0.2213
328.5,0.2324
329.0,0.278
329.5,0.3155
330.0,0.3184
330.5,0.2551
331.0,0.26
331.5,0.2642
332.0,0.2852
332.5,0.282
333.0,0.2813
333.5,0.2549
334.0,0.2612
334.5,0.3012
335.0,0.2829
335.5,0.3305
336.0,0.2287
336.5,0.268
337.0,0.22
337.5,0.2737
338.0,0.2671
338.5,0.3084
339.0,0.3053
339.5,0.2937
340.0,0.3453
340.5,0.3113
341.0,0.3036
341.5,0.2788
342.0,0.3333
342.5,0.3119
343.0,0.3431
343.5,0.3231
344.0,0.2389
344.5,0.2413
345.0,0.3194
345.5,0.3262
346.0,0.2773
346.5,0.3141
347.0,0.3373
347.5,0.2728
348.0,0.311
348.5,0.311
349.0,0.2886
349.5,0.2858
350.0,0.3536
350.5,0.3731
351.0,0.3333
351.5,0.324
352.0,0.3481
352.5,0.2717
353.0,0.3424
353.5,0.3662
354.0,0.3802
354.5,0.3857
355.0,0.3845
355.5,0.3474
356.0,0.3636
356.5,0.3105
357.0,0.2566
357.5,0.3142
358.0,0.2491
358.5,0.2129
359.0,0.2978
359.5,0.3796
360.0,0.4025
360.5,0.3218
361.0,0.2934
361.5,0.338
362.0,0.2924
362.5,0.4048
363.0,0.3637
363.5,0.3352
364.0,0.41
364.5,0.3506
365.0,0.3571
365.5,0.4483
366.0,0.4752
366.5,0.4466
367.0,0.435
367.5,0.4516
368.0,0.3953
368.5,0.399
369.0,0.431
369.5,0.4595
370.0,0.49
370.5,0.3804
371.0,0.4066
371.5,0.5088
372.0,0.3378
372.5,0.4051
373.0,0.4122
373.5,0.2683
374.0,0.3899
374.5,0.323
375.0,0.3141
375.5,0.469
376.0,0.3889
376.5,0.4031
377.0,0.4269
377.5,0.4995
378.0,0.5416
378.5,0.512
379.0,0.4226
379.5,0.3861
380.0,0.4015
380.5,0.4865
381.0,0.4877
381.5,0.3867
382.0,0.3435
382.5,0.293
383.0,0.2713
383.5,0.2614
384.0,0.2884
384.5,0.4243
385.0,0.4209
385.5,0.3921
386.0,0.3359
386.5,0.4414
387.0,0.3669
387.5,0.4122
388.0,0.3806
388.5,0.3764
389.0,0.4064
389.5,0.4923
390.0,0.4942
390.5,0.4549
391.0,0.5356
391.5,0.5465
392.0,0.4604
392.5,0.4123
393.0,0.2295
393.5,0.1668
394.0,0.3396
394.5,0.4319
395.0,0.5271
395.5,0.5356
396.0,0.4644
396.5,0.2716
397.0,0.2039
397.5,0.4147
398.0,0.5808
398.5,0.6005
399.0,0.6505
399.5,0.6485
400.0,0.6735
401.0,0.6828
402.0,0.7207
403.0,0.685
404.0,0.6747
405.0,0.6748
406.0,0.6642
407.0,0.6538
408.0,0.6795
409.0,0.7275
410.0,0.636
411.0,0.6891
412.0,0.7405
413.0,0.7223
414.0,0.7315
415.0,0.7337
416.0,0.7468
417.0,0.7287
418.0,0.7154
419.0,0.7251
420.0,0.7221
421.0,0.7557
422.0,0.7185
423.0,0.702
424.0,0.7427
425.0,0.7415
426.0,0.7226
427.0,0.7093
428.0,0.6911
429.0,0.6549
430.0,0.5733
431.0,0.5683
432.0,0.734
433.0,0.7383
434.0,0.6856
435.0,0.7162
436.0,0.8072
437.0,0.7966
438.0,0.7256
439.0,0.7504
440.0,0.7745
441.0,0.8028
442.0,0.8612
443.0,0.8388
444.0,0.8573
445.0,0.8388
446.0,0.8008
447.0,0.8659
448.0,0.8794
449.0,0.8832
450.0,0.9081
451.0,0.942
452.0,0.9077
453.0,0.8539
454.0,0.8916
455.0,0.8972
456.0,0.9186
457.0,0.934
458.0,0.9021
459.0,0.8976
460.0,0.9
461.0,0.9208
462.0,0.9281
463.0,0.9218
464.0,0.9068
465.0,0.8955
466.0,0.9044
467.0,0.8879
468.0,0.8984
469.0,0.9031
470.0,0.8743
471.0,0.8733
472.0,0.9202
473.0,0.9083
474.0,0.9095
475.0,0.9172
476.0,0.8896
477.0,0.892
478.0,0.9169
479.0,0.9114
480.0,0.9133
481.0,0.9305
482.0,0.9355
483.0,0.9244
484.0,0.9056
485.0,0.8629
486.0,0.7545
487.0,0.7909
488.0,0.8676
489.0,0.8703
490.0,0.9157
491.0,0.9
492.0,0.85
493.0,0.8778
494.0,0.8867
495.0,0.8943
496.0,0.8998
497.0,0.9138
498.0,0.871
499.0,0.8821
500.0,0.8564
501.0,0.8405
502.0,0.8286
503.0,0.8621
504.0,0.8396
505.0,0.8701
506.0,0.8983
507.0,0.8548
508.0,0.8283
509.0,0.8517
510.0,0.8474
511.0,0.8702
512.0,0.8797
513.0,0.8327
514.0,0.8271
515.0,0.8188
516.0,0.8168
517.0,0.7258
518.0,0.7631
519.0,0.8004
520.0,0.8295
521.0,0.8373
522.0,0.838
523.0,0.8229
524.0,0.8522
525.0,0.8621
526.0,0.8235
527.0,0.7759
528.0,0.8205
529.0,0.8648
530.0,0.8523
531.0,0.8649
532.0,0.8352
533.0,0.8107
534.0,0.8347
535.0,0.853
536.0,0.8609
537.0,0.827
538.0,0.8417
539.0,0.8346
540.0,0.8001
541.0,0.8053
542.0,0.8304
543.0,0.8218
544.0,0.8359
545.0,0.8334
546.0,0.8369
547.0,0.8366
548.0,0.8267
549.0,0.8292
550.0,0.8391
551.0,0.829
552.0,0.8347
553.0,0.8198
554.0,0.8394
555.0,0.841
556.0,0.83
557.0,0.8042
558.0,0.798
559.0,0.783
560.0,0.7927
561.0,0.8029
562.0,0.797
563.0,0.8186
564.0,0.7962
565.0,0.7892
566.0,0.7775
567.0,0.7921
568.0,0.7847
569.0,0.7654
570.0,0.7653
571.0,0.7608
572.0,0.7786
573.0,0.7869
574.0,0.7843
575.0,0.7695
576.0,0.7625
577.0,0.7708
578.0,0.7595
579.0,0.7628
580.0,0.7778
581.0,0.7822
582.0,0.7973
583.0,0.7996
584.0,0.8067
585.0,0.7871
586.0,0.7709
587.0,0.7876
588.0,0.7676
589.0,0.6783
590.0,0.7095
591.0,0.7518
592.0,0.7417
593.0,0.7535
594.0,0.7479
595.0,0.7289
596.0,0.759
597.0,0.7504
598.0,0.7489
599.0,0.7498
600.0,0.7513
601.0,0.7454
602.0,0.7404
603.0,0.7527
604.0,0.7653
605.0,0.7614
606.0,0.7584
607.0,0.7661
608.0,0.7578
609.0,0.7592
610.0,0.7539
611.0,0.758
612.0,0.7558
613.0,0.7464
614.0,0.7363
615.0,0.7525
616.0,0.7278
617.0,0.7264
618.0,0.7544
619.0,0.7468
620.0,0.7516
621.0,0.7522
622.0,0.7432
623.0,0.7318
624.0,0.7194
625.0,0.7178
626.0,0.7284
627.0,0.7362
628.0,0.6836
629.0,0.7174
630.0,0.7008
631.0,0.7179
632.0,0.7096
633.0,0.7317
634.0,0.725
635.0,0.7365
636.0,0.727
637.0,0.7391
638.0,0.7465
639.0,0.7383
640.0,0.7313
641.0,0.731
642.0,0.7278
643.0,0.7377
644.0,0.7354
645.0,0.7365
646.0,0.7189
647.0,0.7093
648.0,0.7098
649.0,0.696
650.0,0.7008
651.0,0.7314
652.0,0.6995
653.0,0.7218
654.0,0.7139
655.0,0.6866
656.0,0.609
657.0,0.6255
658.0,0.7014
659.0,0.7066
660.0,0.7096
661.0,0.7147
662.0,0.7158
663.0,0.7018
664.0,0.7105
665.0,0.7114
666.0,0.712
667.0,0.7115
668.0,0.712
669.0,0.7231
670.0,0.7201
671.0,0.72
672.0,0.7139
673.0,0.7247
674.0,0.722
675.0,0.7155
676.0,0.7205
677.0,0.7134
678.0,0.7155
679.0,0.704
680.0,0.7096
681.0,0.705
682.0,0.7041
683.0,0.7028
684.0,0.6993
685.0,0.7053
686.0,0.701
687.0,0.4483
688.0,0.5334
689.0,0.5356
690.0,0.5645
691.0,0.5973
692.0,0.6216
693.0,0.6162
694.0,0.6112
695.0,0.6386
696.0,0.6395
697.0,0.6813
698.0,0.6706
699.0,0.6529
700.0,0.6449
701.0,0.6378
702.0,0.6429
703.0,0.6441
704.0,0.6658
705.0,0.6668
706.0,0.6666
707.0,0.6672
708.0,0.6686
709.0,0.6702
710.0,0.6699
711.0,0.6692
712.0,0.6675
713.0,0.6605
714.0,0.6631
715.0,0.6415
716.0,0.6416
717.0,0.5503
718.0,0.5045
719.0,0.4616
720.0,0.483
721.0,0.5369
722.0,0.6184
723.0,0.5736
724.0,0.5143
725.0,0.5052
726.0,0.5292
727.0,0.5383
728.0,0.5037
729.0,0.5248
730.0,0.5551
731.0,0.5305
732.0,0.5698
733.0,0.6054
734.0,0.6204
735.0,0.6073
736.0,0.6064
737.0,0.6088
738.0,0.6198
739.0,0.6075
740.0,0.6239
741.0,0.6179
742.0,0.6188
743.0,0.6347
744.0,0.633
745.0,0.6333
746.0,0.6362
747.0,0.6376
748.0,0.6363
749.0,0.6291
750.0,0.6287
751.0,0.6223
752.0,0.625
753.0,0.6282
754.0,0.6296
755.0,0.6261
756.0,0.6258
757.0,0.6267
758.0,0.6189
759.0,0.6054
760.0,0.08484
761.0,0.04179
762.0,0.2908
763.0,0.1353
764.0,0.212
765.0,0.2907
766.0,0.3658
767.0,0.4708
768.0,0.5509
769.0,0.5642
770.0,0.5854
771.0,0.591
772.0,0.5925
773.0,0.5967
774.0,0.5939
775.0,0.5894
776.0,0.5966
777.0,0.5887
778.0,0.5852
779.0,0.5856
780.0,0.5824
781.0,0.583
782.0,0.5866
783.0,0.5765
784.0,0.5793
785.0,0.5749
786.0,0.5812
787.0,0.5703
788.0,0.5628
789.0,0.5625
790.0,0.5464
791.0,0.5522
792.0,0.5483
793.0,0.5393
794.0,0.5497
795.0,0.5587
796.0,0.54
797.0,0.5406
798.0,0.5578
799.0,0.554
800.0,0.544
801.0,0.542
802.0,0.5404
803.0,0.5361
804.0,0.537
805.0,0.5358
806.0,0.5516
807.0,0.5447
808.0,0.5453
809.0,0.5345
810.0,0.5297
811.0,0.5296
812.0,0.5134
813.0,0.5021
814.0,0.4384
815.0,0.4359
816.0,0.4053
817.0,0.4131
818.0,0.3968
819.0,0.4466
820.0,0.4195
821.0,0.4944
822.0,0.4796
823.0,0.3197
824.0,0.4642
825.0,0.4857
826.0,0.466
827.0,0.4931
828.0,0.4142
829.0,0.4634
830.0,0.457
831.0,0.4587
832.0,0.4439
833.0,0.4742
834.0,0.4561
835.0,0.5039
836.0,0.4805
837.0,0.5054
838.0,0.4888
839.0,0.498
840.0,0.5092
841.0,0.5015
842.0,0.5032
843.0,0.5036
844.0,0.4962
845.0,0.5135
846.0,0.5113
847.0,0.502
848.0,0.4986
849.0,0.4844
850.0,0.4641
851.0,0.4911
852.0,0.4878
853.0,0.4698
854.0,0.4054
855.0,0.4457
856.0,0.4869
857.0,0.498
858.0,0.4942
859.0,0.4948
860.0,0.4958
861.0,0.493
862.0,0.5008
863.0,0.5127
864.0,0.4871
865.0,0.4828
866.0,0.4341
867.0,0.4531
868.0,0.493
869.0,0.4828
870.0,0.4966
871.0,0.4898
872.0,0.4881
873.0,0.4871
874.0,0.4813
875.0,0.4716
876.0,0.4765
877.0,0.4813
878.0,0.4865
879.0,0.479
880.0,0.4687
881.0,0.4616
882.0,0.4715
883.0,0.4731
884.0,0.4709
885.0,0.4744
886.0,0.4516
887.0,0.4568
888.0,0.4633
889.0,0.4691
890.0,0.4645
891.0,0.464
892.0,0.4498
893.0,0.4349
894.0,0.4178
895.0,0.3925
896.0,0.3689
897.0,0.314
898.0,0.3442
899.0,0.2584
900.0,0.3543
901.0,0.2709
902.0,0.3225
903.0,0.3242
904.0,0.4146
905.0,0.3994
906.0,0.373
907.0,0.2986
908.0,0.3052
909.0,0.3327
910.0,0.2904
911.0,0.312
912.0,0.3269
913.0,0.2946
914.0,0.2928
915.0,0.3175
916.0,0.2679
917.0,0.3439
918.0,0.2744
919.0,0.3512
920.0,0.3571
921.0,0.3716
922.0,0.3295
923.0,0.3592
924.0,0.3373
925.0,0.33
926.0,0.3333
927.0,0.376
928.0,0.2678
929.0,0.2423
930.0,0.1869
931.0,0.1776
932.0,0.1242
933.0,0.09912
934.0,0.05052
935.0,0.1029
936.0,0.06182
937.0,0.06241
938.0,0.0777
939.0,0.172
940.0,0.2095
941.0,0.1546
942.0,0.1811
943.0,0.1164
944.0,0.1252
945.0,0.1601
946.0,0.07778
947.0,0.1599
948.0,0.117
949.0,0.2176
950.0,0.05497
951.0,0.215
952.0,0.1106
953.0,0.1461
954.0,0.1828
955.0,0.1482
956.0,0.1463
957.0,0.1104
958.0,0.212
959.0,0.1643
960.0,0.1842
961.0,0.21
962.0,0.1983
963.0,0.2315
964.0,0.2112
965.0,0.2308
966.0,0.2302
967.0,0.2289
968.0,0.3172
969.0,0.3303
970.0,0.3021
971.0,0.3503
972.0,0.3342
973.0,0.2864
974.0,0.2712
975.0,0.2833
976.0,0.2665
977.0,0.3082
978.0,0.2907
979.0,0.3059
980.0,0.2868
981.0,0.3484
982.0,0.3315
983.0,0.3173
984.0,0.3609
985.0,0.3302
986.0,0.3684
987.0,0.3599
988.0,0.3593
989.0,0.3681
990.0,0.3571
991.0,0.369
992.0,0.3713
993.0,0.3617
994.0,0.3713
995.0,0.371
996.0,0.3692
997.0,0.3698
998.0,0.368
999.0,0.3667
1000.0,0.3638
1001.0,0.3687
1002.0,0.3573
1003.0,0.3621
1004.0,0.3529
1005.0,0.3405
1006.0,0.3535
1007.0,0.3612
1008.0,0.359
1009.0,0.3568
1010.0,0.3551
1011.0,0.3594
1012.0,0.356
1013.0,0.3586
1014.0,0.356
1015.0,0.3537
1016.0,0.352
1017.0,0.3529
1018.0,0.3517
1019.0,0.3437
1020.0,0.3498
1021.0,0.3494
1022.0,0.3465
1023.0,0.3501
1024.0,0.3451
1025.0,0.3501
1026.0,0.3484
1027.0,0.3477
1028.0,0.3469
1029.0,0.3427
1030.0,0.3453
1031.0,0.3438
1032.0,0.3429
1033.0,0.3377
1034.0,0.3377
1035.0,0.3388
1036.0,0.3405
1037.0,0.335
1038.0,0.3364
1039.0,0.3362
1040.0,0.3348
1041.0,0.3361
1042.0,0.3338
1043.0,0.3327
1044.0,0.3338
1045.0,0.3293
1046.0,0.3256
1047.0,0.3285
1048.0,0.3303
1049.0,0.329
1050.0,0.3275
1051.0,0.327
1052.0,0.3256
1053.0,0.3229
1054.0,0.3236
1055.0,0.3237
1056.0,0.3224
1057.0,0.3214
1058.0,0.3134
1059.0,0.3137
1060.0,0.3131
1061.0,0.3127
1062.0,0.3143
1063.0,0.3111
1064.0,0.3148
1065.0,0.3124
1066.0,0.3063
1067.0,0.3102
1068.0,0.3033
1069.0,0.2941
1070.0,0.3039
1071.0,0.3091
1072.0,0.3052
1073.0,0.3009
1074.0,0.3091
1075.0,0.2923
1076.0,0.3088
1077.0,0.3025
1078.0,0.2965
1079.0,0.3041
1080.0,0.2979
1081.0,0.2877
1082.0,0.2934
1083.0,0.2946
1084.0,0.2866
1085.0,0.2987
1086.0,0.2705
1087.0,0.2807
1088.0,0.2941
1089.0,0.2838
1090.0,0.2767
1091.0,0.2928
1092.0,0.2923
1093.0,0.2441
1094.0,0.267
1095.0,0.2547
1096.0,0.2428
1097.0,0.2856
1098.0,0.2386
1099.0,0.2495
1100.0,0.2303
1101.0,0.2337
1102.0,0.2222
1103.0,0.2193
1104.0,0.2197
1105.0,0.2434
1106.0,0.18
1107.0,0.23
1108.0,0.1913
1109.0,0.1923
1110.0,0.2274
1111.0,0.1493
1112.0,0.1911
1113.0,0.1167
1114.0,0.1308
1115.0,0.1082
1116.0,0.08347
1117.0,0.02764
1118.0,0.09178
1119.0,0.043
1120.0,0.0539
1121.0,0.07305
1122.0,0.02859
1123.0,0.04882
1124.0,0.04117
1125.0,0.05434
1126.0,0.01682
1127.0,0.0615
1128.0,0.03446
1129.0,0.03687
1130.0,0.02348
1131.0,0.1224
1132.0,0.09493
1133.0,0.05702
1134.0,0.01293
1135.0,0.004946
1136.0,0.04647
1137.0,0.1192
1138.0,0.08335
1139.0,0.1306
1140.0,0.1067
1141.0,0.07926
1142.0,0.09242
1143.0,0.1339
1144.0,0.04381
1145.0,0.05506
1146.0,0.05934
1147.0,0.01872
1148.0,0.1157
1149.0,0.09052
1150.0,0.04749
1151.0,0.08267
1152.0,0.104
1153.0,0.103
1154.0,0.05314
1155.0,0.1361
1156.0,0.1213
1157.0,0.1382
1158.0,0.1367
1159.0,0.1489
1160.0,0.1257
1161.0,0.1582
1162.0,0.1588
1163.0,0.2199
1164.0,0.1867
1165.0,0.1742
1166.0,0.1744
1167.0,0.1909
1168.0,0.1926
1169.0,0.1978
1170.0,0.2166
1171.0,0.211
1172.0,0.2158
1173.0,0.2161
1174.0,0.1505
1175.0,0.2119
1176.0,0.2349
1177.0,0.2242
1178.0,0.1656
1179.0,0.2368
1180.0,0.2093
1181.0,0.2161
1182.0,0.1461
1183.0,0.2133
1184.0,0.1988
1185.0,0.191
1186.0,0.2294
1187.0,0.2176
1188.0,0.1482
1189.0,0.2025
1190.0,0.2243
1191.0,0.2113
1192.0,0.2276
1193.0,0.2175
1194.0,0.2246
1195.0,0.2113
1196.0,0.2028
1197.0,0.2253
1198.0,0.2054
1199.0,0.1723
1200.0,0.2147
1201.0,0.2062
1202.0,0.2057
1203.0,0.2037
1204.0,0.1769
1205.0,0.2111
1206.0,0.2345
1207.0,0.2048
1208.0,0.2023
1209.0,0.2067
1210.0,0.2158
1211.0,0.2046
1212.0,0.201
1213.0,0.2262
1214.0,0.2063
1215.0,0.2022
1216.0,0.2256
1217.0,0.2192
1218.0,0.2237
1219.0,0.2207
1220.0,0.224
1221.0,0.2264
1222.0,0.2203
1223.0,0.2181
1224.0,0.2164
1225.0,0.225
1226.0,0.2268
1227.0,0.208
1228.0,0.2282
1229.0,0.2268
1230.0,0.2227
1231.0,0.2298
1232.0,0.2284
1233.0,0.2196
1234.0,0.2298
1235.0,0.2282
1236.0,0.23
1237.0,0.2264
1238.0,0.2292
1239.0,0.2263
1240.0,0.2272
1241.0,0.2259
1242.0,0.2256
1243.0,0.2238
1244.0,0.2253
1245.0,0.2263
1246.0,0.225
1247.0,0.224
1248.0,0.2238
1249.0,0.2246
1250.0,0.2231
1251.0,0.2201
1252.0,0.2204
1253.0,0.2182
1254.0,0.2158
1255.0,0.22
1256.0,0.2132
1257.0,0.2119
1258.0,0.2164
1259.0,0.2076
1260.0,0.2088
1261.0,0.1959
1262.0,0.1894
1263.0,0.1897
1264.0,0.1736
1265.0,0.1885
1266.0,0.1805
1267.0,0.1843
1268.0,0.1738
1269.0,0.1017
1270.0,0.1834
1271.0,0.1954
1272.0,0.1961
1273.0,0.1939
1274.0,0.1947
1275.0,0.1978
1276.0,0.1999
1277.0,0.2016
1278.0,0.2059
1279.0,0.204
1280.0,0.2015
1281.0,0.1925
1282.0,0.1858
1283.0,0.2001
1284.0,0.2048
1285.0,0.2062
1286.0,0.2092
1287.0,0.2056
1288.0,0.2056
1289.0,0.1984
1290.0,0.2038
1291.0,0.2068
1292.0,0.1929
1293.0,0.2025
1294.0,0.201
1295.0,0.1996
1296.0,0.1897
1297.0,0.1787
1298.0,0.1938
1299.0,0.2029
1300.0,0.1693
1301.0,0.175
1302.0,0.1932
1303.0,0.1674
1304.0,0.1405
1305.0,0.1891
1306.0,0.1889
1307.0,0.1444
1308.0,0.168
1309.0,0.1872
1310.0,0.1415
1311.0,0.1606
1312.0,0.1559
1313.0,0.1524
1314.0,0.1356
1315.0,0.1333
1316.0,0.1576
1317.0,0.149
1318.0,0.1629
1319.0,0.1246
1320.0,0.1213
1321.0,0.1422
1322.0,0.1432
1323.0,0.1054
1324.0,0.1223
1325.0,0.1552
1326.0,0.1317
1327.0,0.1252
1328.0,0.1072
1329.0,0.07843
1330.0,0.1032
1331.0,0.0598
1332.0,0.06257
1333.0,0.08763
1334.0,0.07555
1335.0,0.1049
1336.0,0.08167
1337.0,0.0716
1338.0,0.07745
1339.0,0.07746
1340.0,0.07604
1341.0,0.07263
1342.0,0.07645
1343.0,0.04866
1344.0,0.02937
1345.0,0.04243
1346.0,0.01921
1347.0,0.01921
1348.0,0.001011
1349.0,0.003849
1350.0,0.004166
1351.0,0.0008376
1352.0,0.0001822
1353.0,7.529e-06
1354.0,3.002e-05
1355.0,1.538e-07
1356.0,3.632e-06
1357.0,5.555e-06
1358.0,1.856e-07
1359.0,1.651e-08
1360.0,7.503e-08
1361.0,4.071e-11
1362.0,8.341e-14
1363.0,8.995e-08
1364.0,3.715e-08
1365.0,1.964e-14
1366.0,4.311e-07
1367.0,1.907e-07
1368.0,7.16e-17
1369.0,1.37e-08
1370.0,5.832e-09
1371.0,2.794e-10
1372.0,1.055e-07
1373.0,2.681e-06
1374.0,1.463e-05
1375.0,2.615e-05
1376.0,2.728e-05
1377.0,1.208e-05
1378.0,0.0001257
1379.0,5.069e-06
1380.0,6.581e-06
1381.0,1.579e-07
1382.0,9.114e-08
1383.0,1.215e-09
1384.0,1.456e-08
1385.0,1.023e-07
1386.0,7.308e-08
1387.0,1.363e-05
1388.0,2.745e-07
1389.0,5.571e-05
1390.0,4.759e-05
1391.0,3.087e-05
1392.0,1.924e-06
1393.0,1.111e-05
1394.0,4.387e-06
1395.0,2.726e-08
1396.0,6.48e-11
1397.0,4.157e-06
1398.0,0.0001384
1399.0,8.844e-05
1400.0,2.303e-11
1401.0,1.25e-10
1402.0,0.0003113
1403.0,0.0003739
1404.0,0.0001116
1405.0,1.17e-08
1406.0,0.0002686
1407.0,2.544e-05
1408.0,0.000223
1409.0,6.559e-05
1410.0,5.786e-05
1411.0,0.0003319
1412.0,0.0004772
1413.0,0.005904
1414.0,4.649e-05
1415.0,2.101e-05
1416.0,0.011
1417.0,0.002924
1418.0,0.003232
1419.0,0.0004861
1420.0,0.001966
1421.0,0.002151
1422.0,0.01443
1423.0,0.002698
1424.0,0.005177
1425.0,0.007399
1426.0,0.00891
1427.0,0.01753
1428.0,0.0009314
1429.0,0.01252
1430.0,0.02288
1431.0,0.02553
1432.0,0.000726
1433.0,0.01571
1434.0,0.007728
1435.0,0.006849
1436.0,0.01455
1437.0,0.01119
1438.0,0.00436
1439.0,0.02037
