interpolation:linear
wavelength,value
280.0,1.106e-22
280.5,3.682e-21
281.0,1.984e-20
281.5,4.481e-19
282.0,5.41e-19
282.5,1.318e-18
283.0,4.143e-18
283.5,6.745e-18
284.0,1.114e-16
284.5,3.262e-16
285.0,5.749e-16
285.5,2.791e-15
286.0,1.121e-14
286.5,5.027e-14
287.0,1.442e-13
287.5,5.568e-13
288.0,1.972e-12
288.5,5.764e-12
289.0,1.505e-11
289.5,4.491e-11
290.0,1.24e-10
290.5,2.524e-10
291.0,5.414e-10
291.5,1.555e-09
292.0,3.14e-09
292.5,4.388e-09
293.0,9.366e-09
293.5,2.267e-08
294.0,3.538e-08
294.5,4.694e-08
295.0,7.929e-08
295.5,1.332e-07
296.0,2.544e-07
296.5,3.519e-07
297.0,4.712e-07
297.5,1.243e-06
298.0,1.929e-06
298.5,1.913e-06
299.0,4.157e-06
299.5,6.707e-06
300.0,7.243e-06
300.5,1.028e-05
301.0,1.794e-05
301.5,2.756e-05
302.0,2.308e-05
302.5,4.516e-05
303.0,8.166e-05
303.5,0.0001042
304.0,0.0001007
304.5,0.0001623
305.0,0.0002754
305.5,0.0003395
306.0,0.0003382
306.5,0.0004421
307.0,0.0007323
307.5,0.001085
308.0,0.001166
308.5,0.001453
309.0,0.001707
309.5,0.002284
310.0,0.002466
310.5,0.004138
311.0,0.005505
311.5,0.00545
312.0,0.00618
312.5,0.008172
313.0,0.009256
313.5,0.00863
314.0,0.01192
314.5,0.01205
315.0,0.01621
315.5,0.01272
316.0,0.01235
316.5,0.01944
317.0,0.02409
317.5,0.02442
318.0,0.02028
318.5,0.02837
319.0,0.03574
319.5,0.02644
320.0,0.03148
320.5,0.0445
321.0,0.04421
321.5,0.04285
322.0,0.0406
322.5,0.03553
323.0,0.0382
323.5,0.05114
324.0,0.06046
324.5,0.0594
325.0,0.0487
325.5,0.06664
326.0,0.08419
326.5,0.08793
327.0,0.08629
327.5,0.08172
328.0,0.0688
328.5,0.07739
329.0,0.09776
329.5,0.1128
330.0,0.1123
330.5,0.08627
331.0,0.08668
331.5,0.09086
332.0,0.1026
332.5,0.1036
333.0,0.1021
333.5,0.08946
334.0,0.09117
334.5,0.1092
335.0,0.1049
335.5,0.1235
336.0,0.08547
336.5,0.0983
337.0,0.07942
337.5,0.09824
338.0,0.09893
338.5,0.1155
339.0,0.1146
339.5,0.1102
340.0,0.1281
340.5,0.1159
341.0,0.114
341.5,0.1051
342.0,0.1258
342.5,0.1179
343.0,0.1294
343.5,0.1217
344.0,0.08919
344.5,0.09067
345.0,0.1206
345.5,0.1234
346.0,0.1051
346.5,0.1191
347.0,0.1277
347.5,0.1032
348.0,0.118
348.5,0.1182
349.0,0.1098
349.5,0.1088
350.0,0.1347
350.5,0.1421
351.0,0.1268
351.5,0.123
352.0,0.1324
352.5,0.1036
353.0,0.1307
353.5,0.1399
354.0,0.1454
354.5,0.1475
355.0,0.147
355.5,0.133
356.0,0.1392
356.5,0.119
357.0,0.09831
357.5,0.1204
358.0,0.09551
358.5,0.08167
359.0,0.1142
359.5,0.1455
360.0,0.1544
360.5,0.1235
361.0,0.1127
361.5,0.13
362.0,0.1126
362.5,0.156
363.0,0.1403
363.5,0.1293
364.0,0.1583
364.5,0.1354
365.0,0.138
365.5,0.1734
366.0,0.1839
366.5,0.173
367.0,0.1686
367.5,0.175
368.0,0.1533
368.5,0.1548
369.0,0.1673
369.5,0.1785
370.0,0.1905
370.5,0.148
371.0,0.1582
371.5,0.1981
372.0,0.1316
372.5,0.1579
373.0,0.1608
373.5,0.1047
374.0,0.1522
374.5,0.1262
375.0,0.1228
375.5,0.1834
376.0,0.1521
376.5,0.1577
377.0,0.1672
377.5,0.1957
378.0,0.2123
378.5,0.2008
379.0,0.1658
379.5,0.1515
380.0,0.1576
380.5,0.1911
381.0,0.1917
381.5,0.1521
382.0,0.1353
382.5,0.1155
383.0,0.107
383.5,0.1032
384.0,0.1139
384.5,0.1677
385.0,0.1665
385.5,0.1552
386.0,0.133
386.5,0.175
387.0,0.1455
387.5,0.1635
388.0,0.1511
388.5,0.1495
389.0,0.1615
389.5,0.1958
390.0,0.1967
390.5,0.1812
391.0,0.2135
391.5,0.2179
392.0,0.1837
392.5,0.1646
393.0,0.09169
393.5,0.06671
394.0,0.1359
394.5,0.1729
395.0,0.2111
395.5,0.2146
396.0,0.1862
396.5,0.109
397.0,0.08188
397.5,0.1667
398.0,0.2335
398.5,0.2415
399.0,0.2619
399.5,0.2613
400.0,0.2714
401.0,0.2728
402.0,0.2884
403.0,0.2746
404.0,0.2707
405.0,0.2711
406.0,0.2672
407.0,0.2634
408.0,0.2739
409.0,0.2936
410.0,0.257
411.0,0.2789
412.0,0.3003
413.0,0.2931
414.0,0.2972
415.0,0.2986
416.0,0.3044
417.0,0.2973
418.0,0.2922
419.0,0.2965
420.0,0.2956
421.0,0.3097
422.0,0.2948
423.0,0.2883
424.0,0.3052
425.0,0.3051
426.0,0.2979
427.0,0.2928
428.0,0.2855
429.0,0.2711
430.0,0.2376
431.0,0.2356
432.0,0.3048
433.0,0.3069
434.0,0.2852
435.0,0.298
436.0,0.3366
437.0,0.3328
438.0,0.3035
439.0,0.3134
440.0,0.3239
441.0,0.3362
442.0,0.3609
443.0,0.3514
444.0,0.3597
445.0,0.3521
446.0,0.3369
447.0,0.3651
448.0,0.3705
449.0,0.373
450.0,0.384
451.0,0.3986
452.0,0.3845
453.0,0.3621
454.0,0.3787
455.0,0.3812
456.0,0.3906
457.0,0.3973
458.0,0.3833
459.0,0.3816
460.0,0.3825
461.0,0.3915
462.0,0.3952
463.0,0.3926
464.0,0.3872
465.0,0.3833
466.0,0.3877
467.0,0.3805
468.0,0.3851
469.0,0.3872
470.0,0.3748
471.0,0.3746
472.0,0.3947
473.0,0.3897
474.0,0.3897
475.0,0.3924
476.0,0.3798
477.0,0.3802
478.0,0.391
479.0,0.3892
480.0,0.3904
481.0,0.3985
482.0,0.4014
483.0,0.3976
484.0,0.3901
485.0,0.3723
486.0,0.3262
487.0,0.3425
488.0,0.3758
489.0,0.3767
490.0,0.3968
491.0,0.3905
492.0,0.3689
493.0,0.3812
494.0,0.3852
495.0,0.3887
496.0,0.3912
497.0,0.3972
498.0,0.3785
499.0,0.3829
500.0,0.3712
501.0,0.3638
502.0,0.3575
503.0,0.3708
504.0,0.358
505.0,0.3735
506.0,0.3855
507.0,0.3671
508.0,0.3567
509.0,0.3676
510.0,0.3664
511.0,0.3769
512.0,0.3814
513.0,0.3611
514.0,0.3589
515.0,0.3554
516.0,0.3544
517.0,0.3151
518.0,0.3312
519.0,0.3473
520.0,0.3598
521.0,0.3631
522.0,0.363
523.0,0.3563
524.0,0.3684
525.0,0.3718
526.0,0.3548
527.0,0.3336
528.0,0.3522
529.0,0.3707
530.0,0.3651
531.0,0.3701
532.0,0.3573
533.0,0.3468
534.0,0.3573
535.0,0.3656
536.0,0.3693
537.0,0.3552
538.0,0.3616
539.0,0.3586
540.0,0.3436
541.0,0.3448
542.0,0.355
543.0,0.3521
544.0,0.3573
545.0,0.3564
546.0,0.3571
547.0,0.3577
548.0,0.3538
549.0,0.3552
550.0,0.3594
551.0,0.3552
552.0,0.3577
553.0,0.3511
554.0,0.3594
555.0,0.3599
556.0,0.3551
557.0,0.3437
558.0,0.3405
559.0,0.3336
560.0,0.3374
561.0,0.3412
562.0,0.3381
563.0,0.3465
564.0,0.3364
565.0,0.333
566.0,0.3276
567.0,0.333
568.0,0.3282
569.0,0.317
570.0,0.3174
571.0,0.3163
572.0,0.3216
573.0,0.3245
574.0,0.323
575.0,0.3161
576.0,0.3133
577.0,0.3171
578.0,0.3133
579.0,0.3162
580.0,0.3248
581.0,0.3284
582.0,0.3364
583.0,0.3386
584.0,0.3425
585.0,0.3347
586.0,0.328
587.0,0.3341
588.0,0.3217
589.0,0.2768
590.0,0.29
591.0,0.3119
592.0,0.3051
593.0,0.3134
594.0,0.3097
595.0,0.2987
596.0,0.3175
597.0,0.3121
598.0,0.3135
599.0,0.3146
600.0,0.3168
601.0,0.3155
602.0,0.3136
603.0,0.3195
604.0,0.3252
605.0,0.3239
606.0,0.3234
607.0,0.3274
608.0,0.3246
609.0,0.3258
610.0,0.3243
611.0,0.3265
612.0,0.326
613.0,0.3223
614.0,0.3186
615.0,0.3262
616.0,0.316
617.0,0.3158
618.0,0.3283
619.0,0.3252
620.0,0.3273
621.0,0.3271
622.0,0.3228
623.0,0.3175
624.0,0.3125
625.0,0.3117
626.0,0.3161
627.0,0.318
628.0,0.2772
629.0,0.3035
630.0,0.2958
631.0,0.3092
632.0,0.3069
633.0,0.319
634.0,0.3182
635.0,0.3243
636.0,0.3213
637.0,0.3276
638.0,0.3323
639.0,0.3294
640.0,0.3272
641.0,0.3278
642.0,0.3272
643.0,0.3317
644.0,0.3315
645.0,0.3316
646.0,0.3214
647.0,0.312
648.0,0.3128
649.0,0.3057
650.0,0.3145
651.0,0.3294
652.0,0.3087
653.0,0.3255
654.0,0.3224
655.0,0.3069
656.0,0.2745
657.0,0.2823
658.0,0.3187
659.0,0.322
660.0,0.3239
661.0,0.3265
662.0,0.3259
663.0,0.32
664.0,0.3257
665.0,0.3275
666.0,0.3284
667.0,0.3289
668.0,0.3299
669.0,0.3355
670.0,0.3344
671.0,0.3348
672.0,0.3322
673.0,0.3376
674.0,0.3367
675.0,0.334
676.0,0.3366
677.0,0.3336
678.0,0.3348
679.0,0.3297
680.0,0.3325
681.0,0.3304
682.0,0.3301
683.0,0.3295
684.0,0.3278
685.0,0.331
686.0,0.3286
687.0,0.1395
688.0,0.1954
689.0,0.1973
690.0,0.2192
691.0,0.2458
692.0,0.2676
693.0,0.2649
694.0,0.2651
695.0,0.2866
696.0,0.2878
697.0,0.3172
698.0,0.312
699.0,0.2963
700.0,0.2922
701.0,0.2858
702.0,0.2911
703.0,0.2927
704.0,0.307
705.0,0.3073
706.0,0.3089
707.0,0.31
708.0,0.3104
709.0,0.3144
710.0,0.3125
711.0,0.3133
712.0,0.3141
713.0,0.3093
714.0,0.311
715.0,0.2977
716.0,0.297
717.0,0.2281
718.0,0.2075
719.0,0.1879
720.0,0.1936
721.0,0.23
722.0,0.281
723.0,0.2529
724.0,0.2169
725.0,0.2102
726.0,0.2207
727.0,0.2313
728.0,0.2084
729.0,0.2262
730.0,0.2365
731.0,0.2248
732.0,0.2513
733.0,0.2756
734.0,0.2856
735.0,0.2778
736.0,0.2768
737.0,0.2782
738.0,0.2907
739.0,0.2852
740.0,0.2951
741.0,0.2936
742.0,0.2955
743.0,0.3035
744.0,0.3036
745.0,0.3045
746.0,0.3059
747.0,0.3068
748.0,0.3062
749.0,0.3028
750.0,0.3027
751.0,0.2997
752.0,0.3011
753.0,0.3028
754.0,0.3034
755.0,0.3017
756.0,0.3017
757.0,0.3021
758.0,0.2981
759.0,0.2865
760.0,0.008001
761.0,0.002706
762.0,0.07197
763.0,0.0176
764.0,0.03956
765.0,0.07174
766.0,0.115
767.0,0.1808
768.0,0.2439
769.0,0.2578
770.0,0.2769
771.0,0.2838
772.0,0.2859
773.0,0.2883
774.0,0.2872
775.0,0.2853
776.0,0.2889
777.0,0.2851
778.0,0.2833
779.0,0.2836
780.0,0.2821
781.0,0.2825
782.0,0.2843
783.0,0.2795
784.0,0.281
785.0,0.2786
786.0,0.2813
787.0,0.2722
788.0,0.2669
789.0,0.2668
790.0,0.2544
791.0,0.262
792.0,0.2609
793.0,0.2561
794.0,0.2659
795.0,0.2689
796.0,0.253
797.0,0.2525
798.0,0.2677
799.0,0.2646
800.0,0.2582
801.0,0.2555
802.0,0.2545
803.0,0.2516
804.0,0.2529
805.0,0.2544
806.0,0.2655
807.0,0.2615
808.0,0.2619
809.0,0.254
810.0,0.2502
811.0,0.247
812.0,0.2341
813.0,0.2275
814.0,0.1869
815.0,0.1869
816.0,0.1721
817.0,0.1758
818.0,0.1662
819.0,0.1969
820.0,0.1817
821.0,0.2298
822.0,0.2204
823.0,0.1247
824.0,0.2072
825.0,0.2261
826.0,0.2116
827.0,0.2292
828.0,0.1775
829.0,0.2115
830.0,0.2076
831.0,0.2083
832.0,0.1988
833.0,0.2191
834.0,0.2064
835.0,0.2394
836.0,0.2202
837.0,0.2401
838.0,0.2281
839.0,0.2368
840.0,0.2431
841.0,0.2378
842.0,0.2412
843.0,0.2443
844.0,0.2392
845.0,0.2495
846.0,0.249
847.0,0.2452
848.0,0.2423
849.0,0.2354
850.0,0.2257
851.0,0.2375
852.0,0.2366
853.0,0.2288
854.0,0.1966
855.0,0.2174
856.0,0.237
857.0,0.2432
858.0,0.241
859.0,0.2419
860.0,0.2427
861.0,0.2413
862.0,0.2453
863.0,0.2511
864.0,0.2386
865.0,0.2367
866.0,0.2128
867.0,0.2221
868.0,0.2418
869.0,0.2368
870.0,0.2436
871.0,0.2403
872.0,0.2395
873.0,0.239
874.0,0.2362
875.0,0.2314
876.0,0.2337
877.0,0.2362
878.0,0.2385
879.0,0.2349
880.0,0.2299
881.0,0.2257
882.0,0.2303
883.0,0.2318
884.0,0.2304
885.0,0.2321
886.0,0.2188
887.0,0.223
888.0,0.2253
889.0,0.2299
890.0,0.2253
891.0,0.2263
892.0,0.2164
893.0,0.2066
894.0,0.1924
895.0,0.1734
896.0,0.1613
897.0,0.1295
898.0,0.1454
899.0,0.1008
900.0,0.1549
901.0,0.1056
902.0,0.1367
903.0,0.1333
904.0,0.1906
905.0,0.1813
906.0,0.167
907.0,0.1203
908.0,0.1261
909.0,0.1419
910.0,0.1149
911.0,0.1312
912.0,0.1371
913.0,0.116
914.0,0.1174
915.0,0.1259
916.0,0.1054
917.0,0.1441
918.0,0.1071
919.0,0.1506
920.0,0.1611
921.0,0.1665
922.0,0.141
923.0,0.1619
924.0,0.1417
925.0,0.1394
926.0,0.1392
927.0,0.1635
928.0,0.09768
929.0,0.08363
930.0,0.0569
931.0,0.05358
932.0,0.03078
933.0,0.02208
934.0,0.006936
935.0,0.02476
936.0,0.01172
937.0,0.01183
938.0,0.01576
939.0,0.05166
940.0,0.06853
941.0,0.04403
942.0,0.05456
943.0,0.03037
944.0,0.03772
945.0,0.04713
946.0,0.01697
947.0,0.04534
948.0,0.03271
949.0,0.06842
950.0,0.01007
951.0,0.06794
952.0,0.0278
953.0,0.0416
954.0,0.05778
955.0,0.04288
956.0,0.04991
957.0,0.02753
958.0,0.07761
959.0,0.05234
960.0,0.05877
961.0,0.07342
962.0,0.06927
963.0,0.08665
964.0,0.07753
965.0,0.08572
966.0,0.08537
967.0,0.08381
968.0,0.1412
969.0,0.1424
970.0,0.1287
971.0,0.1602
972.0,0.1501
973.0,0.1178
974.0,0.1112
975.0,0.1191
976.0,0.1057
977.0,0.1361
978.0,0.1227
979.0,0.1319
980.0,0.1224
981.0,0.1596
982.0,0.1478
983.0,0.1394
984.0,0.1707
985.0,0.1468
986.0,0.1778
987.0,0.1703
988.0,0.1703
989.0,0.18
990.0,0.1691
991.0,0.1801
992.0,0.1816
993.0,0.1733
994.0,0.1821
995.0,0.1826
996.0,0.181
997.0,0.1816
998.0,0.1805
999.0,0.18
1000.0,0.1776
1001.0,0.1811
1002.0,0.1714
1003.0,0.1777
1004.0,0.172
1005.0,0.1675
1006.0,0.1732
1007.0,0.1773
1008.0,0.1755
1009.0,0.1736
1010.0,0.1724
1011.0,0.1765
1012.0,0.1741
1013.0,0.1763
1014.0,0.1751
1015.0,0.1738
1016.0,0.1729
1017.0,0.1732
1018.0,0.1731
1019.0,0.1676
1020.0,0.1719
1021.0,0.172
1022.0,0.17
1023.0,0.1717
1024.0,0.1676
1025.0,0.1722
1026.0,0.171
1027.0,0.1707
1028.0,0.1702
1029.0,0.168
1030.0,0.1698
1031.0,0.1689
1032.0,0.1686
1033.0,0.166
1034.0,0.1661
1035.0,0.1666
1036.0,0.1672
1037.0,0.1646
1038.0,0.1652
1039.0,0.165
1040.0,0.1643
1041.0,0.1648
1042.0,0.1636
1043.0,0.163
1044.0,0.1635
1045.0,0.1611
1046.0,0.1592
1047.0,0.1605
1048.0,0.1613
1049.0,0.1605
1050.0,0.1596
1051.0,0.1592
1052.0,0.1584
1053.0,0.1569
1054.0,0.157
1055.0,0.1568
1056.0,0.1559
1057.0,0.1552
1058.0,0.1511
1059.0,0.1509
1060.0,0.1506
1061.0,0.1502
1062.0,0.1507
1063.0,0.149
1064.0,0.1508
1065.0,0.1491
1066.0,0.1467
1067.0,0.1484
1068.0,0.1446
1069.0,0.1406
1070.0,0.1449
1071.0,0.1488
1072.0,0.1458
1073.0,0.144
1074.0,0.1495
1075.0,0.1378
1076.0,0.1492
1077.0,0.1441
1078.0,0.1401
1079.0,0.1476
1080.0,0.1419
1081.0,0.1351
1082.0,0.141
1083.0,0.1426
1084.0,0.1339
1085.0,0.1426
1086.0,0.1245
1087.0,0.1321
1088.0,0.1417
1089.0,0.1329
1090.0,0.128
1091.0,0.1401
1092.0,0.1405
1093.0,0.1082
1094.0,0.1272
1095.0,0.113
1096.0,0.1054
1097.0,0.1373
1098.0,0.1019
1099.0,0.1078
1100.0,0.09641
1101.0,0.09918
1102.0,0.09172
1103.0,0.08876
1104.0,0.08923
1105.0,0.1044
1106.0,0.06411
1107.0,0.09634
1108.0,0.07228
1109.0,0.07367
1110.0,0.09311
1111.0,0.0507
1112.0,0.07364
1113.0,0.03564
1114.0,0.04008
1115.0,0.03219
1116.0,0.02053
1117.0,0.003895
1118.0,0.0233
1119.0,0.007859
1120.0,0.009297
1121.0,0.01399
1122.0,0.003452
1123.0,0.00852
1124.0,0.00714
1125.0,0.01022
1126.0,0.001472
1127.0,0.01175
1128.0,0.004399
1129.0,0.004857
1130.0,0.002934
1131.0,0.03118
1132.0,0.02253
1133.0,0.009754
1134.0,0.001104
1135.0,0.0005011
1136.0,0.006798
1137.0,0.02879
1138.0,0.01923
1139.0,0.04053
1140.0,0.02919
1141.0,0.01845
1142.0,0.02316
1143.0,0.0384
1144.0,0.008684
1145.0,0.009322
1146.0,0.01002
1147.0,0.001603
1148.0,0.03221
1149.0,0.02259
1150.0,0.0105
1151.0,0.01912
1152.0,0.02726
1153.0,0.02974
1154.0,0.009589
1155.0,0.04217
1156.0,0.03541
1157.0,0.04568
1158.0,0.04495
1159.0,0.0509
1160.0,0.04191
1161.0,0.05907
1162.0,0.05845
1163.0,0.09383
1164.0,0.07527
1165.0,0.06579
1166.0,0.06986
1167.0,0.07855
1168.0,0.07839
1169.0,0.08148
1170.0,0.09331
1171.0,0.09096
1172.0,0.09597
1173.0,0.09323
1174.0,0.0565
1175.0,0.09425
1176.0,0.1104
1177.0,0.1012
1178.0,0.06815
1179.0,0.1112
1180.0,0.09201
1181.0,0.09515
1182.0,0.05647
1183.0,0.09511
1184.0,0.08592
1185.0,0.07997
1186.0,0.1047
1187.0,0.09649
1188.0,0.05556
1189.0,0.08948
1190.0,0.1032
1191.0,0.09132
1192.0,0.1053
1193.0,0.09865
1194.0,0.1032
1195.0,0.09306
1196.0,0.08726
1197.0,0.1049
1198.0,0.09428
1199.0,0.07116
1200.0,0.09741
1201.0,0.09047
1202.0,0.09312
1203.0,0.09019
1204.0,0.07539
1205.0,0.09764
1206.0,0.1123
1207.0,0.09141
1208.0,0.09276
1209.0,0.09501
1210.0,0.1011
1211.0,0.09323
1212.0,0.08666
1213.0,0.1059
1214.0,0.09062
1215.0,0.08853
1216.0,0.1062
1217.0,0.1017
1218.0,0.1052
1219.0,0.1027
1220.0,0.1055
1221.0,0.1078
1222.0,0.1042
1223.0,0.1024
1224.0,0.09971
1225.0,0.1066
1226.0,0.1089
1227.0,0.0954
1228.0,0.1105
1229.0,0.1089
1230.0,0.1061
1231.0,0.1124
1232.0,0.1116
1233.0,0.1034
1234.0,0.1133
1235.0,0.1118
1236.0,0.1132
1237.0,0.11
1238.0,0.1128
1239.0,0.1114
1240.0,0.112
1241.0,0.1103
1242.0,0.1111
1243.0,0.1103
1244.0,0.1107
1245.0,0.1114
1246.0,0.1108
1247.0,0.11
1248.0,0.1094
1249.0,0.1102
1250.0,0.1092
1251.0,0.1071
1252.0,0.108
1253.0,0.1055
1254.0,0.1032
1255.0,0.1075
1256.0,0.1014
1257.0,0.1002
1258.0,0.1045
1259.0,0.09601
1260.0,0.09709
1261.0,0.08602
1262.0,0.0806
1263.0,0.08061
1264.0,0.06827
1265.0,0.0802
1266.0,0.07346
1267.0,0.07732
1268.0,0.06931
1269.0,0.02375
1270.0,0.07603
1271.0,0.0865
1272.0,0.08732
1273.0,0.08576
1274.0,0.08691
1275.0,0.08916
1276.0,0.09116
1277.0,0.09329
1278.0,0.09727
1279.0,0.09633
1280.0,0.09523
1281.0,0.09194
1282.0,0.09038
1283.0,0.09696
1284.0,0.09897
1285.0,0.09994
1286.0,0.1022
1287.0,0.09887
1288.0,0.09945
1289.0,0.09272
1290.0,0.09872
1291.0,0.1008
1292.0,0.08839
1293.0,0.09738
1294.0,0.09645
1295.0,0.09372
1296.0,0.08582
1297.0,0.07868
1298.0,0.09038
1299.0,0.09803
1300.0,0.07384
1301.0,0.07753
1302.0,0.09032
1303.0,0.07365
1304.0,0.05498
1305.0,0.08805
1306.0,0.08696
1307.0,0.05901
1308.0,0.07515
1309.0,0.0847
1310.0,0.05703
1311.0,0.07013
1312.0,0.06734
1313.0,0.06376
1314.0,0.05411
1315.0,0.05182
1316.0,0.06747
1317.0,0.06263
1318.0,0.07159
1319.0,0.04666
1320.0,0.04681
1321.0,0.05796
1322.0,0.05671
1323.0,0.03547
1324.0,0.04621
1325.0,0.0652
1326.0,0.05149
1327.0,0.04773
1328.0,0.03851
1329.0,0.02304
1330.0,0.03329
1331.0,0.01444
1332.0,0.01628
1333.0,0.02369
1334.0,0.02419
1335.0,0.0345
1336.0,0.02378
1337.0,0.02047
1338.0,0.02167
1339.0,0.02222
1340.0,0.02334
1341.0,0.01865
1342.0,0.02021
1343.0,0.008425
1344.0,0.005543
1345.0,0.00741
1346.0,0.001748
1347.0,0.001506
1348.0,2.508e-05
1349.0,0.0001164
1350.0,0.0001432
1351.0,1.113e-05
1352.0,1.191e-06
1353.0,5.238e-08
1354.0,2.07e-07
1355.0,1.371e-09
1356.0,2.542e-08
1357.0,3.85e-08
1358.0,1.611e-09
1359.0,2.017e-10
1360.0,7.301e-10
1361.0,8.15e-13
1362.0,2.229e-15
1363.0,9.799e-10
1364.0,4.047e-10
1365.0,7.783e-16
1366.0,4.248e-09
1367.0,1.738e-09
1368.0,6.01e-18
1369.0,1.491e-10
1370.0,7.34e-11
1371.0,4.16e-12
1372.0,9.431e-10
1373.0,1.93e-08
1374.0,9.428e-08
1375.0,1.655e-07
1376.0,1.809e-07
1377.0,7.983e-08
1378.0,7.687e-07
1379.0,3.43e-08
1380.0,4.244e-08
1381.0,1.09e-09
1382.0,8.256e-10
1383.0,1.233e-11
1384.0,1.615e-10
1385.0,7.829e-10
1386.0,7.267e-10
1387.0,8.937e-08
1388.0,1.845e-09
1389.0,3.332e-07
1390.0,2.779e-07
1391.0,1.861e-07
1392.0,1.229e-08
1393.0,6.999e-08
1394.0,3.035e-08
1395.0,2.211e-10
1396.0,1.061e-12
1397.0,2.587e-08
1398.0,7.867e-07
1399.0,5.108e-07
1400.0,4.536e-13
1401.0,1.882e-12
1402.0,3.839e-06
1403.0,3.435e-06
1404.0,8.763e-07
1405.0,1.042e-10
1406.0,1.626e-06
1407.0,2.713e-07
1408.0,1.408e-06
1409.0,3.626e-07
1410.0,4.032e-07
1411.0,3.225e-06
1412.0,6.406e-06
1413.0,0.0001672
1414.0,3.461e-07
1415.0,1.399e-07
1416.0,0.0007896
1417.0,0.0001251
1418.0,8.091e-05
1419.0,1.089e-05
1420.0,4.848e-05
1421.0,8.408e-05
