interpolation:linear
wavelength,value
280.0,1.7459999999999998e-22
280.5,5.778e-21
281.0,3.105e-20
281.5,3.883e-19
282.0,5.888e-19
282.5,1.455e-18
283.0,4.598e-18
283.5,7.491e-18
284.0,1.238e-16
284.5,3.62e-16
285.0,5.976e-16
285.5,2.973e-15
286.0,1.199e-14
286.5,5.406e-14
287.0,1.554e-13
287.5,6.005e-13
288.0,2.128e-12
288.5,6.319e-12
289.0,1.664e-11
289.5,4.991e-11
290.0,1.381e-10
290.5,2.812e-10
291.0,6.031e-10
291.5,1.731e-09
292.0,3.471e-09
292.5,4.868e-09
293.0,1.043e-08
293.5,2.538e-08
294.0,3.969e-08
294.5,5.398e-08
295.0,9.143e-08
295.5,1.513e-07
296.0,2.921e-07
296.5,4.087e-07
297.0,5.53e-07
297.5,1.484e-06
298.0,2.34e-06
298.5,2.354e-06
299.0,5.189e-06
299.5,8.611e-06
300.0,9.46e-06
300.5,1.368e-05
301.0,2.466e-05
301.5,3.909e-05
302.0,3.329e-05
302.5,6.642e-05
303.0,0.000123
303.5,0.0001592
304.0,0.0001548
304.5,0.0002532
305.0,0.0004387
305.5,0.0005478
306.0,0.0005484
306.5,0.0007229
307.0,0.001219
307.5,0.001838
308.0,0.001981
308.5,0.002491
309.0,0.002716
309.5,0.003535
310.0,0.003767
310.5,0.006281
311.0,0.008269
311.5,0.008148
312.0,0.009028
312.5,0.01175
313.0,0.01321
313.5,0.01241
314.0,0.01682
314.5,0.01659
315.0,0.02222
315.5,0.01765
316.0,0.0168
316.5,0.02598
317.0,0.03221
317.5,0.03283
318.0,0.02693
318.5,0.03682
319.0,0.04586
319.5,0.03458
320.0,0.0413
320.5,0.057
321.0,0.05543
321.5,0.05362
322.0,0.052
322.5,0.04546
323.0,0.04815
323.5,0.06295
324.0,0.07423
324.5,0.07346
325.0,0.06125
325.5,0.0828
326.0,0.1032
326.5,0.1068
327.0,0.1052
327.5,0.1001
328.0,0.08531
328.5,0.09454
329.0,0.1181
329.5,0.1358
330.0,0.1356
330.5,0.1051
331.0,0.1059
331.5,0.1103
332.0,0.1234
332.5,0.1241
333.0,0.1226
333.5,0.1082
334.0,0.1104
334.5,0.1312
335.0,0.1254
335.5,0.1473
336.0,0.102
336.5,0.1179
337.0,0.09555
337.5,0.1184
338.0,0.1184
338.5,0.1378
339.0,0.1366
339.5,0.1314
340.0,0.1534
340.5,0.1386
341.0,0.136
341.5,0.1252
342.0,0.1499
342.5,0.1404
343.0,0.1542
343.5,0.1451
344.0,0.1067
344.5,0.1082
345.0,0.1437
345.5,0.1471
346.0,0.1252
346.5,0.1419
347.0,0.1522
347.5,0.1231
348.0,0.1406
348.5,0.1408
349.0,0.1308
349.5,0.1296
350.0,0.1604
350.5,0.1693
351.0,0.1511
351.5,0.1466
352.0,0.1578
352.5,0.1234
353.0,0.1557
353.5,0.1666
354.0,0.1731
354.5,0.1756
355.0,0.1751
355.5,0.1584
356.0,0.1658
356.5,0.1417
357.0,0.1171
357.5,0.1434
358.0,0.1137
358.5,0.09726
359.0,0.1361
359.5,0.1733
360.0,0.1839
360.5,0.1471
361.0,0.1343
361.5,0.1548
362.0,0.1341
362.5,0.1858
363.0,0.167
363.5,0.154
364.0,0.1885
364.5,0.1613
365.0,0.1643
365.5,0.2064
366.0,0.2189
366.5,0.2059
367.0,0.2007
367.5,0.2084
368.0,0.1825
368.5,0.1843
369.0,0.1992
369.5,0.2125
370.0,0.2267
370.5,0.1761
371.0,0.1883
371.5,0.2358
372.0,0.1566
372.5,0.1879
373.0,0.1913
373.5,0.1246
374.0,0.1812
374.5,0.1502
375.0,0.1461
375.5,0.2182
376.0,0.181
376.5,0.1877
377.0,0.1989
377.5,0.2328
378.0,0.2525
378.5,0.2388
379.0,0.1972
379.5,0.1802
380.0,0.1874
380.5,0.2272
381.0,0.228
381.5,0.1809
382.0,0.1608
382.5,0.1373
383.0,0.1272
383.5,0.1227
384.0,0.1354
384.5,0.1993
385.0,0.1978
385.5,0.1844
386.0,0.1581
386.5,0.2079
387.0,0.1728
387.5,0.1943
388.0,0.1795
388.5,0.1776
389.0,0.1919
389.5,0.2326
390.0,0.2336
390.5,0.2151
391.0,0.2535
391.5,0.2587
392.0,0.218
392.5,0.1954
393.0,0.1088
393.5,0.07918
394.0,0.1612
394.5,0.2052
395.0,0.2505
395.5,0.2546
396.0,0.2209
396.5,0.1293
397.0,0.09713
397.5,0.1977
398.0,0.2769
398.5,0.2864
399.0,0.3106
399.5,0.3098
400.0,0.3217
401.0,0.324
402.0,0.3425
403.0,0.326
404.0,0.3214
405.0,0.3217
406.0,0.3171
407.0,0.3125
408.0,0.325
409.0,0.3483
410.0,0.3048
411.0,0.3307
412.0,0.3559
413.0,0.3473
414.0,0.3521
415.0,0.3537
416.0,0.3605
417.0,0.352
418.0,0.3459
419.0,0.351
420.0,0.3498
421.0,0.3664
422.0,0.3487
423.0,0.341
424.0,0.3609
425.0,0.3608
426.0,0.3522
427.0,0.346
428.0,0.3373
429.0,0.3202
430.0,0.2806
431.0,0.2782
432.0,0.3598
433.0,0.3622
434.0,0.3366
435.0,0.3517
436.0,0.397
437.0,0.3924
438.0,0.3578
439.0,0.3696
440.0,0.3819
441.0,0.3963
442.0,0.4254
443.0,0.4142
444.0,0.4239
445.0,0.4148
446.0,0.3968
447.0,0.4298
448.0,0.4363
449.0,0.439
450.0,0.4518
451.0,0.4689
452.0,0.4523
453.0,0.4258
454.0,0.4453
455.0,0.4481
456.0,0.4591
457.0,0.4669
458.0,0.4507
459.0,0.4486
460.0,0.4497
461.0,0.4603
462.0,0.4645
463.0,0.4614
464.0,0.4548
465.0,0.45
466.0,0.455
467.0,0.4466
468.0,0.4519
469.0,0.4544
470.0,0.4398
471.0,0.4396
472.0,0.4632
473.0,0.4572
474.0,0.4574
475.0,0.4607
476.0,0.4461
477.0,0.4467
478.0,0.4594
479.0,0.4571
480.0,0.4585
481.0,0.4678
482.0,0.4711
483.0,0.4664
484.0,0.4574
485.0,0.4365
486.0,0.3822
487.0,0.4012
488.0,0.4401
489.0,0.4413
490.0,0.4648
491.0,0.4572
492.0,0.4319
493.0,0.4462
494.0,0.4508
495.0,0.4548
496.0,0.4576
497.0,0.4646
498.0,0.4428
499.0,0.4481
500.0,0.4346
501.0,0.426
502.0,0.4189
503.0,0.4348
504.0,0.4206
505.0,0.4382
506.0,0.4523
507.0,0.4306
508.0,0.4182
509.0,0.4308
510.0,0.4292
511.0,0.4414
512.0,0.4465
513.0,0.4228
514.0,0.4202
515.0,0.416
516.0,0.4149
517.0,0.3688
518.0,0.3877
519.0,0.4066
520.0,0.4212
521.0,0.4251
522.0,0.4252
523.0,0.4173
524.0,0.4316
525.0,0.4359
526.0,0.416
527.0,0.3914
528.0,0.4133
529.0,0.4352
530.0,0.4286
531.0,0.4347
532.0,0.4196
533.0,0.4073
534.0,0.4196
535.0,0.4292
536.0,0.4335
537.0,0.4168
538.0,0.4243
539.0,0.4207
540.0,0.4032
541.0,0.4048
542.0,0.417
543.0,0.4134
544.0,0.4198
545.0,0.4186
546.0,0.4197
547.0,0.4202
548.0,0.4155
549.0,0.4171
550.0,0.4221
551.0,0.4171
552.0,0.42
553.0,0.4123
554.0,0.4221
555.0,0.4227
556.0,0.4171
557.0,0.4038
558.0,0.4002
559.0,0.3922
560.0,0.3967
561.0,0.4014
562.0,0.3978
563.0,0.408
564.0,0.3962
565.0,0.3923
566.0,0.3861
567.0,0.3927
568.0,0.3875
569.0,0.375
570.0,0.3753
571.0,0.3739
572.0,0.3806
573.0,0.3843
574.0,0.3826
575.0,0.3746
576.0,0.3713
577.0,0.3757
578.0,0.371
579.0,0.374
580.0,0.3836
581.0,0.3874
582.0,0.3964
583.0,0.3987
584.0,0.403
585.0,0.3937
586.0,0.3857
587.0,0.3932
588.0,0.3795
589.0,0.3284
590.0,0.344
591.0,0.3688
592.0,0.3613
593.0,0.3703
594.0,0.3663
595.0,0.3541
596.0,0.3747
597.0,0.3689
598.0,0.37
599.0,0.3711
600.0,0.3733
601.0,0.3715
602.0,0.3692
603.0,0.376
604.0,0.3826
605.0,0.381
606.0,0.3801
607.0,0.3847
608.0,0.3812
609.0,0.3825
610.0,0.3805
611.0,0.3829
612.0,0.3823
613.0,0.3778
614.0,0.3733
615.0,0.3821
616.0,0.37
617.0,0.3696
618.0,0.3842
619.0,0.3806
620.0,0.383
621.0,0.3828
622.0,0.3779
623.0,0.3717
624.0,0.3658
625.0,0.3649
626.0,0.3702
627.0,0.3727
628.0,0.3295
629.0,0.3574
630.0,0.3485
631.0,0.3627
632.0,0.3596
633.0,0.3732
634.0,0.3717
635.0,0.3785
636.0,0.3747
637.0,0.3818
638.0,0.387
639.0,0.3834
640.0,0.3806
641.0,0.3811
642.0,0.3801
643.0,0.3854
644.0,0.3849
645.0,0.3851
646.0,0.3739
647.0,0.3642
648.0,0.3649
649.0,0.357
650.0,0.3655
651.0,0.3825
652.0,0.36
653.0,0.3779
654.0,0.3742
655.0,0.3569
656.0,0.3187
657.0,0.3277
658.0,0.3694
659.0,0.3729
660.0,0.375
661.0,0.3779
662.0,0.3774
663.0,0.3704
664.0,0.3767
665.0,0.3785
666.0,0.3794
667.0,0.3797
668.0,0.3807
669.0,0.3871
670.0,0.3857
671.0,0.3861
672.0,0.383
673.0,0.3891
674.0,0.388
675.0,0.3848
676.0,0.3877
677.0,0.3842
678.0,0.3855
679.0,0.3796
680.0,0.3828
681.0,0.3803
682.0,0.3799
683.0,0.3793
684.0,0.3773
685.0,0.3809
686.0,0.3783
687.0,0.1758
688.0,0.2376
689.0,0.2396
690.0,0.2632
691.0,0.2914
692.0,0.314
693.0,0.3108
694.0,0.3101
695.0,0.3328
696.0,0.3339
697.0,0.3656
698.0,0.3597
699.0,0.3433
700.0,0.3387
701.0,0.3321
702.0,0.3375
703.0,0.339
704.0,0.3545
705.0,0.355
706.0,0.3564
707.0,0.3575
708.0,0.358
709.0,0.3618
710.0,0.36
711.0,0.3607
712.0,0.3612
713.0,0.3561
714.0,0.3579
715.0,0.3433
716.0,0.3428
717.0,0.2693
718.0,0.2452
719.0,0.2225
720.0,0.2301
721.0,0.2696
722.0,0.3256
723.0,0.2947
724.0,0.2551
725.0,0.2478
726.0,0.2601
727.0,0.2709
728.0,0.2459
729.0,0.2647
730.0,0.2777
731.0,0.2641
732.0,0.2927
733.0,0.3192
734.0,0.3299
735.0,0.3214
736.0,0.3205
737.0,0.3219
738.0,0.3345
739.0,0.3281
740.0,0.3389
741.0,0.3369
742.0,0.3387
743.0,0.3477
744.0,0.3476
745.0,0.3485
746.0,0.35
747.0,0.351
748.0,0.3504
749.0,0.3465
750.0,0.3463
751.0,0.3429
752.0,0.3444
753.0,0.3463
754.0,0.3471
755.0,0.3451
756.0,0.345
757.0,0.3455
758.0,0.341
759.0,0.3291
760.0,0.01246
761.0,0.004229
762.0,0.09542
763.0,0.02635
764.0,0.05556
765.0,0.09519
766.0,0.1448
767.0,0.2177
768.0,0.2844
769.0,0.2985
770.0,0.318
771.0,0.3248
772.0,0.3269
773.0,0.3295
774.0,0.3282
775.0,0.3259
776.0,0.33
777.0,0.3257
778.0,0.3237
779.0,0.324
780.0,0.3223
781.0,0.3227
782.0,0.3248
783.0,0.3192
784.0,0.3209
785.0,0.3182
786.0,0.3214
787.0,0.312
788.0,0.3064
789.0,0.3061
790.0,0.293
791.0,0.3006
792.0,0.2991
793.0,0.2938
794.0,0.3039
795.0,0.3076
796.0,0.2911
797.0,0.2908
798.0,0.3064
799.0,0.3032
800.0,0.2962
801.0,0.2936
802.0,0.2926
803.0,0.2894
804.0,0.2907
805.0,0.2919
806.0,0.3037
807.0,0.2993
808.0,0.2998
809.0,0.2914
810.0,0.2874
811.0,0.2843
812.0,0.271
813.0,0.2636
814.0,0.2191
815.0,0.2188
816.0,0.2019
817.0,0.2063
818.0,0.1956
819.0,0.2295
820.0,0.2124
821.0,0.2648
822.0,0.2546
823.0,0.1489
824.0,0.2408
825.0,0.2603
826.0,0.2449
827.0,0.264
828.0,0.208
829.0,0.2446
830.0,0.2403
831.0,0.2411
832.0,0.2308
833.0,0.2528
834.0,0.2391
835.0,0.2743
836.0,0.2545
837.0,0.2753
838.0,0.2625
839.0,0.2716
840.0,0.2786
841.0,0.2729
842.0,0.2762
843.0,0.2789
844.0,0.2736
845.0,0.2848
846.0,0.2841
847.0,0.2796
848.0,0.2766
849.0,0.2687
850.0,0.2576
851.0,0.2714
852.0,0.2702
853.0,0.2611
854.0,0.2245
855.0,0.248
856.0,0.2704
857.0,0.2773
858.0,0.2749
859.0,0.2757
860.0,0.2766
861.0,0.275
862.0,0.2795
863.0,0.2861
864.0,0.2719
865.0,0.2696
866.0,0.2424
867.0,0.253
868.0,0.2754
869.0,0.2697
870.0,0.2775
871.0,0.2737
872.0,0.2728
873.0,0.2723
874.0,0.269
875.0,0.2635
876.0,0.2662
877.0,0.269
878.0,0.2717
879.0,0.2676
880.0,0.2618
881.0,0.2573
882.0,0.2626
883.0,0.2641
884.0,0.2626
885.0,0.2646
886.0,0.2498
887.0,0.2543
888.0,0.2571
889.0,0.2619
890.0,0.2573
891.0,0.2581
892.0,0.2475
893.0,0.2369
894.0,0.222
895.0,0.2018
896.0,0.1882
897.0,0.1529
898.0,0.1709
899.0,0.1204
900.0,0.1808
901.0,0.1261
902.0,0.1608
903.0,0.1577
904.0,0.2201
905.0,0.2099
906.0,0.1939
907.0,0.1429
908.0,0.1488
909.0,0.1665
910.0,0.1368
911.0,0.1541
912.0,0.1614
913.0,0.1382
914.0,0.1393
915.0,0.1499
916.0,0.1256
917.0,0.1696
918.0,0.1279
919.0,0.1765
920.0,0.1866
921.0,0.1934
922.0,0.1651
923.0,0.1878
924.0,0.1668
925.0,0.1638
926.0,0.1641
927.0,0.1913
928.0,0.1184
929.0,0.1025
930.0,0.07175
931.0,0.06791
932.0,0.04072
933.0,0.02986
934.0,0.01039
935.0,0.03302
936.0,0.01641
937.0,0.01652
938.0,0.02173
939.0,0.06556
940.0,0.08532
941.0,0.05646
942.0,0.06926
943.0,0.03975
944.0,0.04783
945.0,0.05999
946.0,0.02305
947.0,0.05816
948.0,0.04205
949.0,0.08575
950.0,0.01409
951.0,0.08525
952.0,0.03649
953.0,0.05326
954.0,0.07248
955.0,0.05468
956.0,0.06106
957.0,0.03613
958.0,0.09422
959.0,0.06537
960.0,0.07333
961.0,0.08988
962.0,0.08474
963.0,0.1045
964.0,0.09382
965.0,0.1037
966.0,0.1031
967.0,0.1015
968.0,0.1641
969.0,0.1669
970.0,0.151
971.0,0.1852
972.0,0.1743
973.0,0.1393
974.0,0.1314
975.0,0.1402
976.0,0.126
977.0,0.1584
978.0,0.1442
979.0,0.1544
980.0,0.1436
981.0,0.1845
982.0,0.1717
983.0,0.1624
984.0,0.196
985.0,0.1708
986.0,0.2033
987.0,0.1952
988.0,0.1952
989.0,0.2052
990.0,0.1939
991.0,0.2053
992.0,0.207
993.0,0.1982
994.0,0.2074
995.0,0.2078
996.0,0.2062
997.0,0.2068
998.0,0.2056
999.0,0.205
1000.0,0.2025
1001.0,0.2062
1002.0,0.1962
1003.0,0.2024
1004.0,0.1962
1005.0,0.1906
1006.0,0.1973
1007.0,0.2019
1008.0,0.2
1009.0,0.1981
1010.0,0.1968
1011.0,0.201
1012.0,0.1984
1013.0,0.2007
1014.0,0.1993
1015.0,0.1979
1016.0,0.1969
1017.0,0.1972
1018.0,0.197
1019.0,0.1911
1020.0,0.1957
1021.0,0.1957
1022.0,0.1936
1023.0,0.1956
1024.0,0.1913
1025.0,0.196
1026.0,0.1947
1027.0,0.1944
1028.0,0.1938
1029.0,0.1913
1030.0,0.1933
1031.0,0.1923
1032.0,0.1919
1033.0,0.189
1034.0,0.189
1035.0,0.1896
1036.0,0.1904
1037.0,0.1874
1038.0,0.1881
1039.0,0.1879
1040.0,0.1871
1041.0,0.1877
1042.0,0.1864
1043.0,0.1857
1044.0,0.1863
1045.0,0.1836
1046.0,0.1815
1047.0,0.183
1048.0,0.1839
1049.0,0.1831
1050.0,0.1821
1051.0,0.1816
1052.0,0.1807
1053.0,0.1791
1054.0,0.1792
1055.0,0.1791
1056.0,0.1782
1057.0,0.1774
1058.0,0.1728
1059.0,0.1727
1060.0,0.1723
1061.0,0.1719
1062.0,0.1726
1063.0,0.1706
1064.0,0.1727
1065.0,0.1709
1066.0,0.168
1067.0,0.17
1068.0,0.1658
1069.0,0.1611
1070.0,0.1661
1071.0,0.1702
1072.0,0.1671
1073.0,0.1649
1074.0,0.1709
1075.0,0.1582
1076.0,0.1705
1077.0,0.1652
1078.0,0.1609
1079.0,0.1686
1080.0,0.1627
1081.0,0.1553
1082.0,0.1614
1083.0,0.1629
1084.0,0.1541
1085.0,0.1634
1086.0,0.1436
1087.0,0.1518
1088.0,0.1621
1089.0,0.1529
1090.0,0.1476
1091.0,0.1605
1092.0,0.1607
1093.0,0.1259
1094.0,0.1458
1095.0,0.1315
1096.0,0.1232
1097.0,0.1571
1098.0,0.1196
1099.0,0.1262
1100.0,0.1135
1101.0,0.1164
1102.0,0.1083
1103.0,0.1053
1104.0,0.1057
1105.0,0.1225
1106.0,0.07806
1107.0,0.1134
1108.0,0.0869
1109.0,0.08847
1110.0,0.1103
1111.0,0.06257
1112.0,0.08836
1113.0,0.04491
1114.0,0.05056
1115.0,0.04096
1116.0,0.02719
1117.0,0.005763
1118.0,0.03074
1119.0,0.01113
1120.0,0.01337
1121.0,0.01971
1122.0,0.005394
1123.0,0.01224
1124.0,0.01027
1125.0,0.01442
1126.0,0.002462
1127.0,0.01652
1128.0,0.00676
1129.0,0.007427
1130.0,0.004456
1131.0,0.04113
1132.0,0.03021
1133.0,0.01406
1134.0,0.001846
1135.0,0.000806
1136.0,0.01016
1137.0,0.03834
1138.0,0.02596
1139.0,0.05122
1140.0,0.03791
1141.0,0.02484
1142.0,0.0307
1143.0,0.04927
1144.0,0.01207
1145.0,0.0135
1146.0,0.01452
1147.0,0.002696
1148.0,0.04173
1149.0,0.02995
1150.0,0.01416
1151.0,0.02578
1152.0,0.03576
1153.0,0.03819
1154.0,0.01355
1155.0,0.05329
1156.0,0.04532
1157.0,0.05668
1158.0,0.05583
1159.0,0.06288
1160.0,0.05177
1161.0,0.07132
1162.0,0.07081
1163.0,0.1102
1164.0,0.08941
1165.0,0.07916
1166.0,0.08302
1167.0,0.09287
1168.0,0.09278
1169.0,0.09628
1170.0,0.1093
1171.0,0.1065
1172.0,0.1116
1173.0,0.1091
1174.0,0.06793
1175.0,0.1096
1176.0,0.1269
1177.0,0.1173
1178.0,0.08038
1179.0,0.1279
1180.0,0.1073
1181.0,0.1109
1182.0,0.06762
1183.0,0.1106
1184.0,0.1005
1185.0,0.09419
1186.0,0.1212
1187.0,0.1123
1188.0,0.06703
1189.0,0.1042
1190.0,0.1192
1191.0,0.1069
1192.0,0.1214
1193.0,0.1143
1194.0,0.1192
1195.0,0.1084
1196.0,0.1022
1197.0,0.1209
1198.0,0.1088
1199.0,0.08401
1200.0,0.1128
1201.0,0.1055
1202.0,0.1078
1203.0,0.105
1204.0,0.08841
1205.0,0.1126
1206.0,0.1285
1207.0,0.1061
1208.0,0.1071
1209.0,0.1097
1210.0,0.1163
1211.0,0.1078
1212.0,0.1015
1213.0,0.1218
1214.0,0.1057
1215.0,0.1033
1216.0,0.122
1217.0,0.1172
1218.0,0.1209
1219.0,0.1183
1220.0,0.1212
1221.0,0.1235
1222.0,0.1196
1223.0,0.1177
1224.0,0.1151
1225.0,0.1223
1226.0,0.1245
1227.0,0.1102
1228.0,0.1262
1229.0,0.1246
1230.0,0.1216
1231.0,0.1281
1232.0,0.1272
1233.0,0.1188
1234.0,0.1289
1235.0,0.1274
1236.0,0.1288
1237.0,0.1254
1238.0,0.1284
1239.0,0.1267
1240.0,0.1274
1241.0,0.1258
1242.0,0.1264
1243.0,0.1255
1244.0,0.126
1245.0,0.1268
1246.0,0.1261
1247.0,0.1253
1248.0,0.1247
1249.0,0.1255
1250.0,0.1244
1251.0,0.1222
1252.0,0.123
1253.0,0.1205
1254.0,0.1182
1255.0,0.1225
1256.0,0.1163
1257.0,0.1151
1258.0,0.1195
1259.0,0.1109
1260.0,0.112
1261.0,0.1005
1262.0,0.09489
1263.0,0.09493
1264.0,0.08186
1265.0,0.09442
1266.0,0.08739
1267.0,0.09133
1268.0,0.08284
1269.0,0.03214
1270.0,0.09005
1271.0,0.1009
1272.0,0.1017
1273.0,0.1001
1274.0,0.1012
1275.0,0.1036
1276.0,0.1056
1277.0,0.1077
1278.0,0.1118
1279.0,0.1106
1280.0,0.1094
1281.0,0.1054
1282.0,0.1031
1283.0,0.1107
1284.0,0.1131
1285.0,0.1141
1286.0,0.1165
1287.0,0.1131
1288.0,0.1136
1289.0,0.1067
1290.0,0.1128
1291.0,0.1149
1292.0,0.1022
1293.0,0.1114
1294.0,0.1104
1295.0,0.1078
1296.0,0.09948
1297.0,0.09172
1298.0,0.1041
1299.0,0.112
1300.0,0.08616
1301.0,0.09022
1302.0,0.1039
1303.0,0.08583
1304.0,0.06563
1305.0,0.1014
1306.0,0.1005
1307.0,0.06983
1308.0,0.08731
1309.0,0.09826
1310.0,0.06774
1311.0,0.08187
1312.0,0.07869
1313.0,0.07515
1314.0,0.06447
1315.0,0.06203
1316.0,0.07909
1317.0,0.07376
1318.0,0.08351
1319.0,0.05629
1320.0,0.05619
1321.0,0.0687
1322.0,0.06764
1323.0,0.04386
1324.0,0.05561
1325.0,0.07684
1326.0,0.06156
1327.0,0.05741
1328.0,0.04697
1329.0,0.02941
1330.0,0.04148
1331.0,0.0192
1332.0,0.02135
1333.0,0.03079
1334.0,0.03017
1335.0,0.04298
1336.0,0.03045
1337.0,0.02619
1338.0,0.02789
1339.0,0.0285
1340.0,0.02949
1341.0,0.02456
1342.0,0.0264
1343.0,0.01203
1344.0,0.007774
1345.0,0.01067
1346.0,0.002899
1347.0,0.002588
1348.0,5.173e-05
1349.0,0.0002382
1350.0,0.0002929
1351.0,2.463e-05
1352.0,1.999e-06
1353.0,6.662e-08
1354.0,3.31e-07
1355.0,1.434e-09
1356.0,3.234e-08
1357.0,4.877e-08
1358.0,1.695e-09
1359.0,2.032e-10
1360.0,7.478e-10
1361.0,8.183e-13
1362.0,2.238e-15
1363.0,9.888e-10
1364.0,4.096e-10
1365.0,7.814e-16
1366.0,4.305e-09
1367.0,1.79e-09
1368.0,6.034e-18
1369.0,1.51e-10
1370.0,7.39e-11
1371.0,4.181e-12
1372.0,9.752e-10
1373.0,2.164e-08
1374.0,1.237e-07
1375.0,2.02e-07
1376.0,3.015e-07
1377.0,1.273e-07
1378.0,1.261e-06
1379.0,5.575e-08
1380.0,5.64e-08
1381.0,1.375e-09
1382.0,8.472e-10
1383.0,1.257e-11
1384.0,1.63e-10
1385.0,8.522e-10
1386.0,7.366e-10
1387.0,1.006e-07
1388.0,2.337e-09
1389.0,4.863e-07
1390.0,3.883e-07
1391.0,2.593e-07
1392.0,1.723e-08
1393.0,1.101e-07
1394.0,3.323e-08
1395.0,2.329e-10
1396.0,1.065e-12
1397.0,3.71e-08
1398.0,1.24e-06
1399.0,8.325e-07
1400.0,4.555e-13
1401.0,1.891e-12
1402.0,8.545e-06
1403.0,7.646e-06
1404.0,1.934e-06
1405.0,1.068e-10
1406.0,3.134e-06
1407.0,5.805e-07
1408.0,2.816e-06
1409.0,5.6e-07
1410.0,7.963e-07
1411.0,7.231e-06
1412.0,1.438e-05
1413.0,0.0003577
1414.0,7.056e-07
1415.0,2.635e-07
1416.0,0.001383
1417.0,0.000236
1418.0,0.0001763
1419.0,2.402e-05
1420.0,0.0001057
1421.0,0.0001602
1422.0,0.001796
1423.0,0.000317
1424.0,0.0007124
1425.0,0.0008263
1426.0,0.001353
