interpolation:linear
wavelength,value
280.0,2.2850000000000003e-20
280.5,6.628e-19
281.0,3.411e-18
281.5,4.152e-19
282.0,1.672e-18
282.5,4.652e-18
283.0,1.539e-17
283.5,2.534e-17
284.0,4.023e-16
284.5,1.141e-15
285.0,1.978e-15
285.5,1.122e-14
286.0,4.666e-14
286.5,2.162e-13
287.0,6.264e-13
287.5,2.454e-12
288.0,7.152e-12
288.5,2.759e-11
289.0,8.997e-11
289.5,3.27e-10
290.0,1.04e-09
290.5,2.365e-09
291.0,5.735e-09
291.5,1.904e-08
292.0,5.23e-08
292.5,8.289e-08
293.0,2.08e-07
293.5,6.318e-07
294.0,1.167e-06
294.5,1.548e-06
295.0,3.081e-06
295.5,7.848e-06
296.0,1.522e-05
296.5,2.138e-05
297.0,2.903e-05
297.5,7.816e-05
298.0,0.0001235
298.5,0.0001245
299.0,0.0002752
299.5,0.0004576
300.0,0.0005043
300.5,0.000732
301.0,0.001329
301.5,0.00213
302.0,0.00183
302.5,0.003488
303.0,0.006063
303.5,0.007472
304.0,0.006912
304.5,0.009899
305.0,0.01417
305.5,0.01565
306.0,0.01494
306.5,0.01817
307.0,0.02562
307.5,0.03244
308.0,0.034
308.5,0.03921
309.0,0.038
309.5,0.04207
310.0,0.04162
310.5,0.06689
311.0,0.08289
311.5,0.07957
312.0,0.07735
312.5,0.09236
313.0,0.09919
313.5,0.09721
314.0,0.1188
314.5,0.1022
315.0,0.1336
315.5,0.1134
316.0,0.0966
316.5,0.1358
317.0,0.1686
317.5,0.1766
318.0,0.1357
318.5,0.1638
319.0,0.1917
319.5,0.1598
320.0,0.1938
320.5,0.2356
321.0,0.2044
321.5,0.1955
322.0,0.2143
322.5,0.1861
323.0,0.182
323.5,0.2198
324.0,0.2559
324.5,0.2617
325.0,0.2283
325.5,0.2892
326.0,0.3521
326.5,0.3491
327.0,0.3492
327.5,0.3388
328.0,0.3056
328.5,0.3162
329.0,0.3738
329.5,0.4227
330.0,0.4277
330.5,0.3456
331.0,0.3533
331.5,0.3565
332.0,0.3811
332.5,0.3751
333.0,0.3751
333.5,0.3421
334.0,0.3509
334.5,0.4013
335.0,0.3752
335.5,0.4382
336.0,0.3032
336.5,0.3559
337.0,0.2931
337.5,0.365
338.0,0.3538
338.5,0.4083
339.0,0.404
339.5,0.3886
340.0,0.4568
340.5,0.4115
341.0,0.4014
341.5,0.3684
342.0,0.4402
342.5,0.4118
343.0,0.453
343.5,0.4266
344.0,0.3152
344.5,0.3185
345.0,0.4213
345.5,0.43
346.0,0.3654
346.5,0.4137
347.0,0.4442
347.5,0.3592
348.0,0.4094
348.5,0.4091
349.0,0.3795
349.5,0.3757
350.0,0.4647
350.5,0.4902
351.0,0.4379
351.5,0.4257
352.0,0.4572
352.5,0.3567
353.0,0.4492
353.5,0.4803
354.0,0.4986
354.5,0.5057
355.0,0.5041
355.5,0.4553
356.0,0.4764
356.5,0.4068
357.0,0.3361
357.5,0.4115
358.0,0.3261
358.5,0.2787
359.0,0.3898
359.5,0.4969
360.0,0.5267
360.5,0.421
361.0,0.3837
361.5,0.4418
362.0,0.382
362.5,0.5287
363.0,0.4748
363.5,0.4374
364.0,0.5349
364.5,0.4572
365.0,0.4657
365.5,0.5844
366.0,0.6192
366.5,0.5818
367.0,0.5666
367.5,0.588
368.0,0.5146
368.5,0.5193
369.0,0.5608
369.5,0.5977
370.0,0.6372
370.5,0.4946
371.0,0.5285
371.5,0.6612
372.0,0.4389
372.5,0.5262
373.0,0.5353
373.5,0.3483
374.0,0.5061
374.5,0.4191
375.0,0.4075
375.5,0.6084
376.0,0.5043
376.5,0.5227
377.0,0.5534
377.5,0.6475
378.0,0.7019
378.5,0.6635
379.0,0.5476
379.5,0.5002
380.0,0.5201
380.5,0.63
381.0,0.6313
381.5,0.5005
382.0,0.4445
382.5,0.3789
383.0,0.3508
383.5,0.3379
384.0,0.3727
384.5,0.5482
385.0,0.5437
385.5,0.5064
386.0,0.4337
386.5,0.5697
387.0,0.4734
387.5,0.5318
388.0,0.491
388.5,0.4854
389.0,0.524
389.5,0.6347
390.0,0.637
390.5,0.5862
391.0,0.6901
391.5,0.7039
392.0,0.5929
392.5,0.5308
393.0,0.2954
393.5,0.2147
394.0,0.437
394.5,0.5556
395.0,0.678
395.5,0.6888
396.0,0.5972
396.5,0.3491
397.0,0.262
397.5,0.5329
398.0,0.7463
398.5,0.7714
399.0,0.8353
399.5,0.8326
400.0,0.8646
401.0,0.8782
402.0,0.9265
403.0,0.8801
404.0,0.8666
405.0,0.8666
406.0,0.8525
407.0,0.8387
408.0,0.8716
409.0,0.9329
410.0,0.8151
411.0,0.8829
412.0,0.9482
413.0,0.9248
414.0,0.9361
415.0,0.9386
416.0,0.955
417.0,0.9315
418.0,0.9143
419.0,0.9263
420.0,0.9223
421.0,0.9648
422.0,0.9171
423.0,0.8958
424.0,0.9475
425.0,0.9458
426.0,0.9211
427.0,0.9039
428.0,0.8806
429.0,0.834
430.0,0.7298
431.0,0.7235
432.0,0.934
433.0,0.9391
434.0,0.8721
435.0,0.9108
436.0,1.026
437.0,1.012
438.0,0.9216
439.0,0.9534
440.0,0.9837
441.0,1.019
442.0,1.093
443.0,1.065
444.0,1.088
445.0,1.064
446.0,1.016
447.0,1.098
448.0,1.115
449.0,1.119
450.0,1.15
451.0,1.193
452.0,1.149
453.0,1.081
454.0,1.128
455.0,1.135
456.0,1.162
457.0,1.181
458.0,1.141
459.0,1.135
460.0,1.138
461.0,1.165
462.0,1.173
463.0,1.165
464.0,1.146
465.0,1.131
466.0,1.142
467.0,1.121
468.0,1.134
469.0,1.14
470.0,1.104
471.0,1.102
472.0,1.162
473.0,1.147
474.0,1.149
475.0,1.159
476.0,1.124
477.0,1.128
478.0,1.159
479.0,1.152
480.0,1.154
481.0,1.175
482.0,1.181
483.0,1.166
484.0,1.142
485.0,1.088
486.0,0.9508
487.0,0.9962
488.0,1.093
489.0,1.097
490.0,1.153
491.0,1.133
492.0,1.07
493.0,1.105
494.0,1.116
495.0,1.126
496.0,1.133
497.0,1.15
498.0,1.096
499.0,1.111
500.0,1.078
501.0,1.059
502.0,1.044
503.0,1.087
504.0,1.061
505.0,1.098
506.0,1.133
507.0,1.078
508.0,1.044
509.0,1.073
510.0,1.068
511.0,1.096
512.0,1.108
513.0,1.048
514.0,1.041
515.0,1.031
516.0,1.028
517.0,0.9136
518.0,0.9605
519.0,1.007
520.0,1.044
521.0,1.054
522.0,1.055
523.0,1.036
524.0,1.073
525.0,1.086
526.0,1.038
527.0,0.9783
528.0,1.035
529.0,1.091
530.0,1.075
531.0,1.091
532.0,1.054
533.0,1.023
534.0,1.053
535.0,1.076
536.0,1.086
537.0,1.043
538.0,1.061
539.0,1.052
540.0,1.009
541.0,1.016
542.0,1.048
543.0,1.037
544.0,1.055
545.0,1.052
546.0,1.057
547.0,1.056
548.0,1.043
549.0,1.046
550.0,1.059
551.0,1.046
552.0,1.053
553.0,1.034
554.0,1.059
555.0,1.061
556.0,1.047
557.0,1.015
558.0,1.007
559.0,0.9889
560.0,1.001
561.0,1.014
562.0,1.007
563.0,1.035
564.0,1.007
565.0,0.9986
566.0,0.9841
567.0,1.003
568.0,0.9946
569.0,0.9722
570.0,0.9717
571.0,0.9656
572.0,0.9895
573.0,1.0
574.0,0.9972
575.0,0.9789
576.0,0.9699
577.0,0.9803
578.0,0.9653
579.0,0.9686
580.0,0.9862
581.0,0.9907
582.0,1.009
583.0,1.011
584.0,1.019
585.0,0.9943
586.0,0.9738
587.0,0.9955
588.0,0.9728
589.0,0.8647
590.0,0.9041
591.0,0.955
592.0,0.9439
593.0,0.9566
594.0,0.9505
595.0,0.928
596.0,0.9623
597.0,0.9524
598.0,0.9493
599.0,0.9498
600.0,0.9506
601.0,0.9424
602.0,0.936
603.0,0.9512
604.0,0.9669
605.0,0.9618
606.0,0.9576
607.0,0.9668
608.0,0.9559
609.0,0.9573
610.0,0.9502
611.0,0.9551
612.0,0.9521
613.0,0.94
614.0,0.927
615.0,0.947
616.0,0.9157
617.0,0.9137
618.0,0.9487
619.0,0.939
620.0,0.945
621.0,0.9461
622.0,0.9352
623.0,0.9212
624.0,0.9052
625.0,0.9032
626.0,0.9166
627.0,0.9273
628.0,0.8721
629.0,0.9075
630.0,0.8868
631.0,0.9047
632.0,0.8935
633.0,0.9199
634.0,0.9103
635.0,0.9241
636.0,0.9115
637.0,0.9262
638.0,0.9346
639.0,0.9239
640.0,0.9147
641.0,0.9139
642.0,0.9095
643.0,0.9217
644.0,0.9185
645.0,0.9201
646.0,0.8994
647.0,0.8903
648.0,0.8913
649.0,0.8742
650.0,0.8763
651.0,0.9139
652.0,0.8781
653.0,0.9017
654.0,0.8914
655.0,0.8594
656.0,0.7608
657.0,0.7812
658.0,0.8749
659.0,0.8808
660.0,0.8844
661.0,0.8906
662.0,0.8928
663.0,0.875
664.0,0.8847
665.0,0.885
666.0,0.8855
667.0,0.8844
668.0,0.8846
669.0,0.8981
670.0,0.8942
671.0,0.8938
672.0,0.8861
673.0,0.8994
674.0,0.8959
675.0,0.8877
676.0,0.8937
677.0,0.8847
678.0,0.8872
679.0,0.8728
680.0,0.8797
681.0,0.8739
682.0,0.8728
683.0,0.8711
684.0,0.8667
685.0,0.8741
686.0,0.869
687.0,0.603
688.0,0.6942
689.0,0.6963
690.0,0.7261
691.0,0.7595
692.0,0.7835
693.0,0.7775
694.0,0.771
695.0,0.7997
696.0,0.8008
697.0,0.8459
698.0,0.8328
699.0,0.8155
700.0,0.8057
701.0,0.7983
702.0,0.8029
703.0,0.8043
704.0,0.8285
705.0,0.8298
706.0,0.8284
707.0,0.8288
708.0,0.8307
709.0,0.8309
710.0,0.8313
711.0,0.8299
712.0,0.827
713.0,0.819
714.0,0.822
715.0,0.7971
716.0,0.7978
717.0,0.7015
718.0,0.6458
719.0,0.5926
720.0,0.6214
721.0,0.6801
722.0,0.7717
723.0,0.7218
724.0,0.6541
725.0,0.6449
726.0,0.6744
727.0,0.6818
728.0,0.6437
729.0,0.6644
730.0,0.703
731.0,0.6736
732.0,0.717
733.0,0.7555
734.0,0.7725
735.0,0.757
736.0,0.756
737.0,0.7591
738.0,0.7685
739.0,0.7534
740.0,0.7723
741.0,0.7642
742.0,0.7645
743.0,0.7838
744.0,0.7813
745.0,0.7813
746.0,0.7849
747.0,0.7865
748.0,0.7849
749.0,0.7759
750.0,0.7754
751.0,0.7675
752.0,0.7708
753.0,0.7747
754.0,0.7764
755.0,0.772
756.0,0.7717
757.0,0.7728
758.0,0.7632
759.0,0.7491
760.0,0.1494
761.0,0.08349
762.0,0.4089
763.0,0.219
764.0,0.3162
765.0,0.409
766.0,0.4901
767.0,0.6065
768.0,0.6905
769.0,0.7029
770.0,0.7244
771.0,0.7292
772.0,0.7305
773.0,0.7355
774.0,0.7319
775.0,0.7262
776.0,0.735
777.0,0.7253
778.0,0.721
779.0,0.7216
780.0,0.7175
781.0,0.7182
782.0,0.7227
783.0,0.7101
784.0,0.7135
785.0,0.7082
786.0,0.7161
787.0,0.7046
788.0,0.6963
789.0,0.6962
790.0,0.6791
791.0,0.6836
792.0,0.6784
793.0,0.6675
794.0,0.6774
795.0,0.6893
796.0,0.6701
797.0,0.671
798.0,0.6887
799.0,0.6846
800.0,0.6732
801.0,0.6716
802.0,0.6696
803.0,0.6647
804.0,0.6654
805.0,0.6628
806.0,0.6805
807.0,0.6725
808.0,0.673
809.0,0.661
810.0,0.6561
811.0,0.6579
812.0,0.6405
813.0,0.628
814.0,0.557
815.0,0.5534
816.0,0.5157
817.0,0.5246
818.0,0.506
819.0,0.5617
820.0,0.5306
821.0,0.6148
822.0,0.5981
823.0,0.4153
824.0,0.5826
825.0,0.6043
826.0,0.5831
827.0,0.6136
828.0,0.525
829.0,0.5792
830.0,0.5721
831.0,0.5739
832.0,0.5572
833.0,0.5904
834.0,0.5711
835.0,0.6239
836.0,0.5994
837.0,0.6256
838.0,0.607
839.0,0.6159
840.0,0.6292
841.0,0.6206
842.0,0.6213
843.0,0.6204
844.0,0.6121
845.0,0.6323
846.0,0.6294
847.0,0.6175
848.0,0.6139
849.0,0.5965
850.0,0.5715
851.0,0.6053
852.0,0.6009
853.0,0.5782
854.0,0.4994
855.0,0.5484
856.0,0.5995
857.0,0.6127
858.0,0.6082
859.0,0.6086
860.0,0.6096
861.0,0.6063
862.0,0.6158
863.0,0.6304
864.0,0.5988
865.0,0.5936
866.0,0.5337
867.0,0.557
868.0,0.6061
869.0,0.5935
870.0,0.6104
871.0,0.6021
872.0,0.6
873.0,0.5987
874.0,0.5916
875.0,0.5796
876.0,0.5857
877.0,0.5916
878.0,0.5981
879.0,0.5888
880.0,0.5762
881.0,0.5677
882.0,0.58
883.0,0.5817
884.0,0.5791
885.0,0.5835
886.0,0.5565
887.0,0.5621
888.0,0.5706
889.0,0.5767
890.0,0.5723
891.0,0.5711
892.0,0.5552
893.0,0.5385
894.0,0.5208
895.0,0.4938
896.0,0.4658
897.0,0.4023
898.0,0.4378
899.0,0.3356
900.0,0.4469
901.0,0.3517
902.0,0.4092
903.0,0.4144
904.0,0.5169
905.0,0.4998
906.0,0.4683
907.0,0.3837
908.0,0.3909
909.0,0.4219
910.0,0.3758
911.0,0.3989
912.0,0.4164
913.0,0.3815
914.0,0.3778
915.0,0.4094
916.0,0.3472
917.0,0.4378
918.0,0.3561
919.0,0.445
920.0,0.4482
921.0,0.4659
922.0,0.4184
923.0,0.4499
924.0,0.4289
925.0,0.4196
926.0,0.4242
927.0,0.4731
928.0,0.3521
929.0,0.3228
930.0,0.2556
931.0,0.2419
932.0,0.1762
933.0,0.1442
934.0,0.08121
935.0,0.1467
936.0,0.09295
937.0,0.09437
938.0,0.1155
939.0,0.2344
940.0,0.2806
941.0,0.2136
942.0,0.2462
943.0,0.1633
944.0,0.1707
945.0,0.2199
946.0,0.1137
947.0,0.2214
948.0,0.1629
949.0,0.2946
950.0,0.08458
951.0,0.2897
952.0,0.158
953.0,0.2025
954.0,0.2466
955.0,0.2047
956.0,0.1977
957.0,0.1585
958.0,0.2779
959.0,0.2226
960.0,0.2494
961.0,0.2786
962.0,0.2637
963.0,0.3028
964.0,0.2778
965.0,0.3016
966.0,0.3019
967.0,0.3007
968.0,0.3989
969.0,0.417
970.0,0.3836
971.0,0.4372
972.0,0.4186
973.0,0.3663
974.0,0.3479
975.0,0.3604
976.0,0.3432
977.0,0.3886
978.0,0.37
979.0,0.387
980.0,0.3642
981.0,0.4346
982.0,0.4162
983.0,0.4
984.0,0.447
985.0,0.4146
986.0,0.4544
987.0,0.446
988.0,0.4452
989.0,0.4527
990.0,0.4425
991.0,0.4541
992.0,0.4567
993.0,0.447
994.0,0.4565
995.0,0.4559
996.0,0.4539
997.0,0.4546
998.0,0.4524
999.0,0.4508
1000.0,0.4477
1001.0,0.4532
1002.0,0.4412
1003.0,0.4452
1004.0,0.4344
1005.0,0.4184
1006.0,0.4348
1007.0,0.4439
1008.0,0.4416
1009.0,0.4393
1010.0,0.4375
1011.0,0.4417
1012.0,0.4379
1013.0,0.4406
1014.0,0.4375
1015.0,0.4346
1016.0,0.4327
1017.0,0.4338
1018.0,0.4321
1019.0,0.423
1020.0,0.4298
1021.0,0.4292
1022.0,0.426
1023.0,0.4305
1024.0,0.4251
1025.0,0.4301
1026.0,0.4283
1027.0,0.4273
1028.0,0.4264
1029.0,0.4214
1030.0,0.4243
1031.0,0.4226
1032.0,0.4213
1033.0,0.415
1034.0,0.415
1035.0,0.4163
1036.0,0.4185
1037.0,0.4117
1038.0,0.4135
1039.0,0.4133
1040.0,0.4116
1041.0,0.4133
1042.0,0.4104
1043.0,0.4091
1044.0,0.4105
1045.0,0.405
1046.0,0.4005
1047.0,0.4041
1048.0,0.4063
1049.0,0.4049
1050.0,0.403
1051.0,0.4025
1052.0,0.4009
1053.0,0.3977
1054.0,0.3986
1055.0,0.3988
1056.0,0.3975
1057.0,0.3963
1058.0,0.3865
1059.0,0.387
1060.0,0.3864
1061.0,0.386
1062.0,0.388
1063.0,0.3842
1064.0,0.3887
1065.0,0.386
1066.0,0.3783
1067.0,0.3832
1068.0,0.3749
1069.0,0.3633
1070.0,0.3757
1071.0,0.3814
1072.0,0.3771
1073.0,0.3716
1074.0,0.381
1075.0,0.3624
1076.0,0.3808
1077.0,0.3742
1078.0,0.3672
1079.0,0.3746
1080.0,0.3684
1081.0,0.3569
1082.0,0.3622
1083.0,0.3632
1084.0,0.3561
1085.0,0.3692
1086.0,0.3377
1087.0,0.348
1088.0,0.3629
1089.0,0.3522
1090.0,0.3448
1091.0,0.3618
1092.0,0.3608
1093.0,0.3073
1094.0,0.3303
1095.0,0.32
1096.0,0.3068
1097.0,0.3524
1098.0,0.3021
1099.0,0.315
1100.0,0.2934
1101.0,0.2969
1102.0,0.2839
1103.0,0.2814
1104.0,0.2818
1105.0,0.3079
1106.0,0.2378
1107.0,0.2929
1108.0,0.2496
1109.0,0.2498
1110.0,0.2905
1111.0,0.1989
1112.0,0.2478
1113.0,0.1596
1114.0,0.1782
1115.0,0.1478
1116.0,0.1191
1117.0,0.04494
1118.0,0.1292
1119.0,0.06506
1120.0,0.08194
1121.0,0.1082
1122.0,0.04632
1123.0,0.07401
1124.0,0.06248
1125.0,0.08129
1126.0,0.02908
1127.0,0.09162
1128.0,0.05566
1129.0,0.05894
1130.0,0.03912
1131.0,0.1718
1132.0,0.1351
1133.0,0.0867
1134.0,0.02278
1135.0,0.008504
1136.0,0.07271
1137.0,0.1691
1138.0,0.1193
1139.0,0.1758
1140.0,0.1477
1141.0,0.1134
1142.0,0.13
1143.0,0.1837
1144.0,0.06521
1145.0,0.0836
1146.0,0.09018
1147.0,0.03253
1148.0,0.159
1149.0,0.1276
1150.0,0.07005
1151.0,0.1184
1152.0,0.145
1153.0,0.1407
1154.0,0.08116
1155.0,0.1834
1156.0,0.1656
1157.0,0.1851
1158.0,0.1831
1159.0,0.1969
1160.0,0.169
1161.0,0.2068
1162.0,0.2079
1163.0,0.2781
1164.0,0.2396
1165.0,0.227
1166.0,0.2247
1167.0,0.2442
1168.0,0.2471
1169.0,0.2527
1170.0,0.2737
1171.0,0.267
1172.0,0.2713
1173.0,0.2731
1174.0,0.1975
1175.0,0.2664
1176.0,0.2916
1177.0,0.2807
1178.0,0.2128
1179.0,0.2939
1180.0,0.2637
1181.0,0.272
1182.0,0.1899
1183.0,0.2676
1184.0,0.2515
1185.0,0.2433
1186.0,0.2863
1187.0,0.2734
1188.0,0.1933
1189.0,0.2548
1190.0,0.2797
1191.0,0.2669
1192.0,0.2835
1193.0,0.2721
1194.0,0.2802
1195.0,0.2659
1196.0,0.2566
1197.0,0.2798
1198.0,0.2567
1199.0,0.2203
1200.0,0.2688
1201.0,0.2599
1202.0,0.258
1203.0,0.2559
1204.0,0.2249
1205.0,0.2634
1206.0,0.2898
1207.0,0.2575
1208.0,0.2529
1209.0,0.2579
1210.0,0.2682
1211.0,0.2562
1212.0,0.2541
1213.0,0.2807
1214.0,0.2597
1215.0,0.255
1216.0,0.2798
1217.0,0.2728
1218.0,0.2775
1219.0,0.2743
1220.0,0.2778
1221.0,0.2803
1222.0,0.2733
1223.0,0.2709
1224.0,0.2695
1225.0,0.2785
1226.0,0.2801
1227.0,0.2595
1228.0,0.2813
1229.0,0.2802
1230.0,0.2756
1231.0,0.2827
1232.0,0.2811
1233.0,0.2723
1234.0,0.2823
1235.0,0.2806
1236.0,0.2826
1237.0,0.279
1238.0,0.2816
1239.0,0.278
1240.0,0.279
1241.0,0.2779
1242.0,0.2771
1243.0,0.2749
1244.0,0.2769
1245.0,0.278
1246.0,0.2764
1247.0,0.2754
1248.0,0.2753
1249.0,0.2761
1250.0,0.2745
1251.0,0.2711
1252.0,0.2709
1253.0,0.2691
1254.0,0.2666
1255.0,0.2707
1256.0,0.2637
1257.0,0.2624
1258.0,0.2668
1259.0,0.2581
1260.0,0.2593
1261.0,0.2458
1262.0,0.239
1263.0,0.2395
1264.0,0.2224
1265.0,0.238
1266.0,0.2298
1267.0,0.2333
1268.0,0.2221
1269.0,0.1436
1270.0,0.2326
1271.0,0.2449
1272.0,0.2456
1273.0,0.2431
1274.0,0.2437
1275.0,0.247
1276.0,0.2492
1277.0,0.2506
1278.0,0.2549
1279.0,0.2527
1280.0,0.2495
1281.0,0.2378
1282.0,0.2288
1283.0,0.2465
1284.0,0.2525
1285.0,0.2541
1286.0,0.2573
1287.0,0.2537
1288.0,0.2535
1289.0,0.2462
1290.0,0.2513
1291.0,0.2547
1292.0,0.2405
1293.0,0.25
1294.0,0.2483
1295.0,0.2474
1296.0,0.2371
1297.0,0.2249
1298.0,0.2408
1299.0,0.2502
1300.0,0.214
1301.0,0.2201
1302.0,0.24
1303.0,0.2109
1304.0,0.182
1305.0,0.2352
1306.0,0.2353
1307.0,0.1852
1308.0,0.2109
1309.0,0.2337
1310.0,0.1817
1311.0,0.2027
1312.0,0.1975
1313.0,0.194
1314.0,0.1744
1315.0,0.1726
1316.0,0.1998
1317.0,0.1895
1318.0,0.2052
1319.0,0.1627
1320.0,0.1571
1321.0,0.1822
1322.0,0.1844
1323.0,0.1406
1324.0,0.1596
1325.0,0.1971
1326.0,0.1703
1327.0,0.1628
1328.0,0.1409
1329.0,0.1074
1330.0,0.139
1331.0,0.08564
1332.0,0.08785
1333.0,0.1219
1334.0,0.1024
1335.0,0.1401
1336.0,0.1117
1337.0,0.09921
1338.0,0.1073
1339.0,0.1066
1340.0,0.1033
1341.0,0.1019
1342.0,0.1069
1343.0,0.07444
1344.0,0.04447
1345.0,0.06399
1346.0,0.03309
1347.0,0.03387
1348.0,0.002437
1349.0,0.008499
1350.0,0.008643
1351.0,0.002306
1352.0,0.0006893
1353.0,3.941e-05
1354.0,0.0001263
1355.0,1.286e-06
1356.0,1.942e-05
1357.0,2.95e-05
1358.0,1.509e-06
1359.0,2.265e-07
1360.0,7.347e-07
1361.0,1.192e-09
1362.0,3.84e-12
1363.0,1.047e-06
1364.0,4.388e-07
1365.0,1.65e-12
1366.0,4.368e-06
1367.0,1.74e-06
1368.0,1.904e-14
1369.0,1.658e-07
1370.0,8.803e-08
1371.0,5.485e-09
1372.0,9.574e-07
1373.0,1.717e-05
1374.0,7.368e-05
1375.0,0.0001342
1376.0,0.0001132
1377.0,5.282e-05
1378.0,0.0004984
1379.0,2.228e-05
1380.0,3.369e-05
1381.0,9.265e-07
1382.0,8.817e-07
1383.0,1.417e-08
1384.0,1.931e-07
1385.0,7.687e-07
1386.0,8.268e-07
1387.0,8.016e-05
1388.0,1.594e-06
1389.0,0.0002493
1390.0,0.0002148
1391.0,0.0001459
1392.0,9.769e-06
1393.0,4.962e-05
1394.0,2.915e-05
1395.0,2.361e-07
1396.0,1.635e-09
1397.0,2.042e-05
1398.0,0.0005646
1399.0,0.0003577
1400.0,7.784e-10
1401.0,2.84e-09
1402.0,0.0008959
1403.0,0.001148
1404.0,0.0003531
1405.0,1.225e-07
1406.0,0.0009495
1407.0,8.213e-05
1408.0,0.0007724
1409.0,0.0002748
1410.0,0.0002123
1411.0,0.001006
1412.0,0.001322
1413.0,0.01261
1414.0,0.0001664
1415.0,8.21e-05
1416.0,0.01994
1417.0,0.006254
1418.0,0.007154
1419.0,0.00112
1420.0,0.004385
1421.0,0.004746
1422.0,0.02597
1423.0,0.005088
1424.0,0.009485
1425.0,0.01404
1426.0,0.01574
1427.0,0.02853
1428.0,0.002307
1429.0,0.02152
1430.0,0.03624
1431.0,0.0397
1432.0,0.001822
1433.0,0.02539
1434.0,0.01298
1435.0,0.0132
1436.0,0.02513
1437.0,0.01925
1438.0,0.008222
1439.0,0.03403
1440.0,0.0255
1441.0,0.01958
1442.0,0.0217
1443.0,0.02703
1444.0,0.03736
1445.0,0.02939
1446.0,0.01327
1447.0,0.02089
