interpolation:linear
wavelength,value
280.0,1.974e-21
280.5,6.256e-20
281.0,3.313e-19
281.5,4.209e-19
282.0,1.024e-18
282.5,2.628e-18
283.0,8.403e-18
283.5,1.371e-17
284.0,2.225e-16
284.5,6.425e-16
285.0,1.395e-15
285.5,6.698e-15
286.0,2.672e-14
286.5,1.177e-13
287.0,3.33e-13
287.5,1.261e-12
288.0,3.541e-12
288.5,1.147e-11
289.0,3.198e-11
289.5,9.975e-11
290.0,2.822e-10
290.5,5.829e-10
291.0,1.266e-09
291.5,3.67e-09
292.0,7.544e-09
292.5,1.118e-08
293.0,2.568e-08
293.5,6.84e-08
294.0,1.139e-07
294.5,1.478e-07
295.0,2.657e-07
295.5,6.541e-07
296.0,1.292e-06
296.5,1.882e-06
297.0,2.644e-06
297.5,7.557e-06
298.0,1.266e-05
298.5,1.341e-05
299.0,3.122e-05
299.5,5.749e-05
300.0,6.743e-05
300.5,0.0001049
301.0,0.0002162
301.5,0.0003973
302.0,0.000371
302.5,0.0007378
303.0,0.001357
303.5,0.001735
304.0,0.00165
304.5,0.002536
305.0,0.004001
305.5,0.004697
306.0,0.00459
306.5,0.005804
307.0,0.008901
307.5,0.01221
308.0,0.01296
308.5,0.01554
309.0,0.0154
309.5,0.01794
310.0,0.01817
310.5,0.02955
311.0,0.03734
311.5,0.03616
312.0,0.03667
312.5,0.04504
313.0,0.0491
313.5,0.04748
314.0,0.06002
314.5,0.05399
315.0,0.07114
315.5,0.05912
316.0,0.05223
316.5,0.07574
317.0,0.09403
317.5,0.09762
318.0,0.07666
318.5,0.09636
319.0,0.1151
319.5,0.09292
320.0,0.1121
320.5,0.1421
321.0,0.1279
321.5,0.1228
322.0,0.1294
322.5,0.1127
323.0,0.1131
323.5,0.1399
324.0,0.1635
324.5,0.1655
325.0,0.1425
325.5,0.1844
326.0,0.2259
326.5,0.227
327.0,0.226
327.5,0.218
328.0,0.1933
328.5,0.2043
329.0,0.2457
329.5,0.2794
330.0,0.2816
330.5,0.2247
331.0,0.2287
331.5,0.2331
332.0,0.2528
332.5,0.2505
333.0,0.2496
333.5,0.2254
334.0,0.2309
334.5,0.2672
335.0,0.2516
335.5,0.2939
336.0,0.2035
336.5,0.2381
337.0,0.1952
337.5,0.2427
338.0,0.2376
338.5,0.2744
339.0,0.2717
339.5,0.2615
340.0,0.3073
340.5,0.2771
341.0,0.2703
341.5,0.2483
342.0,0.2969
342.5,0.2779
343.0,0.3057
343.5,0.2879
344.0,0.2128
344.5,0.215
345.0,0.2847
345.5,0.2908
346.0,0.2473
346.5,0.2801
347.0,0.3008
347.5,0.2432
348.0,0.2774
348.5,0.2774
349.0,0.2575
349.5,0.255
350.0,0.3156
350.5,0.333
351.0,0.2975
351.5,0.2891
352.0,0.3107
352.5,0.2426
353.0,0.3057
353.5,0.327
354.0,0.3396
354.5,0.3445
355.0,0.3434
355.5,0.3104
356.0,0.3249
356.5,0.2775
357.0,0.2293
357.5,0.2808
358.0,0.2226
358.5,0.1903
359.0,0.2662
359.5,0.3393
360.0,0.3598
360.5,0.2877
361.0,0.2624
361.5,0.3023
362.0,0.2616
362.5,0.3622
363.0,0.3255
363.5,0.2999
364.0,0.367
364.5,0.3138
365.0,0.3197
365.5,0.4014
366.0,0.4255
366.5,0.3999
367.0,0.3896
367.5,0.4045
368.0,0.3541
368.5,0.3574
369.0,0.3861
369.5,0.4117
370.0,0.4391
370.5,0.3409
371.0,0.3644
371.5,0.4561
372.0,0.3028
372.5,0.3632
373.0,0.3696
373.5,0.2406
374.0,0.3497
374.5,0.2897
375.0,0.2817
375.5,0.4207
376.0,0.3488
376.5,0.3616
377.0,0.383
377.5,0.4482
378.0,0.486
378.5,0.4595
379.0,0.3793
379.5,0.3465
380.0,0.3604
380.5,0.4367
381.0,0.4378
381.5,0.3472
382.0,0.3085
382.5,0.2631
383.0,0.2437
383.5,0.2348
384.0,0.2591
384.5,0.3813
385.0,0.3782
385.5,0.3524
386.0,0.3019
386.5,0.3968
387.0,0.3298
387.5,0.3705
388.0,0.3422
388.5,0.3384
389.0,0.3654
389.5,0.4427
390.0,0.4445
390.5,0.4092
391.0,0.4819
391.5,0.4916
392.0,0.4142
392.5,0.371
393.0,0.2065
393.5,0.1502
394.0,0.3057
394.5,0.3888
395.0,0.4745
395.5,0.4821
396.0,0.4181
396.5,0.2446
397.0,0.1836
397.5,0.3735
398.0,0.5231
398.5,0.5408
399.0,0.586
399.5,0.5842
400.0,0.6067
401.0,0.6146
402.0,0.6489
403.0,0.6169
404.0,0.6077
405.0,0.6079
406.0,0.5984
407.0,0.5892
408.0,0.6124
409.0,0.6558
410.0,0.5733
411.0,0.6214
412.0,0.6678
413.0,0.6515
414.0,0.6598
415.0,0.662
416.0,0.674
417.0,0.6577
418.0,0.6458
419.0,0.6546
420.0,0.652
421.0,0.6824
422.0,0.6489
423.0,0.6341
424.0,0.6709
425.0,0.67
426.0,0.653
427.0,0.6411
428.0,0.6247
429.0,0.5921
430.0,0.5184
431.0,0.5139
432.0,0.6638
433.0,0.6677
434.0,0.6202
435.0,0.6478
436.0,0.7304
437.0,0.7209
438.0,0.6568
439.0,0.6791
440.0,0.7011
441.0,0.7268
442.0,0.7797
443.0,0.7594
444.0,0.7762
445.0,0.7595
446.0,0.7253
447.0,0.7845
448.0,0.7966
449.0,0.8003
450.0,0.8229
451.0,0.8537
452.0,0.8227
453.0,0.774
454.0,0.8084
455.0,0.8135
456.0,0.833
457.0,0.847
458.0,0.818
459.0,0.8139
460.0,0.8161
461.0,0.835
462.0,0.8417
463.0,0.836
464.0,0.8226
465.0,0.8126
466.0,0.8208
467.0,0.8057
468.0,0.8153
469.0,0.8196
470.0,0.7935
471.0,0.7926
472.0,0.8352
473.0,0.8244
474.0,0.8253
475.0,0.8322
476.0,0.807
477.0,0.8091
478.0,0.8317
479.0,0.8268
480.0,0.8286
481.0,0.8444
482.0,0.8492
483.0,0.8393
484.0,0.8223
485.0,0.7837
486.0,0.6853
487.0,0.7185
488.0,0.7882
489.0,0.7906
490.0,0.8319
491.0,0.8178
492.0,0.7723
493.0,0.7977
494.0,0.8057
495.0,0.8126
496.0,0.8177
497.0,0.8303
498.0,0.7915
499.0,0.8015
500.0,0.778
501.0,0.7636
502.0,0.7524
503.0,0.7827
504.0,0.7615
505.0,0.7898
506.0,0.8153
507.0,0.7759
508.0,0.7521
509.0,0.7735
510.0,0.7697
511.0,0.7906
512.0,0.7993
513.0,0.7566
514.0,0.7515
515.0,0.7441
516.0,0.7422
517.0,0.6596
518.0,0.6934
519.0,0.7273
520.0,0.7537
521.0,0.7608
522.0,0.7614
523.0,0.7476
524.0,0.7742
525.0,0.783
526.0,0.7479
527.0,0.7045
528.0,0.7449
529.0,0.785
530.0,0.7736
531.0,0.785
532.0,0.758
533.0,0.7358
534.0,0.7576
535.0,0.7743
536.0,0.7816
537.0,0.7509
538.0,0.7642
539.0,0.7578
540.0,0.7265
541.0,0.7309
542.0,0.7536
543.0,0.746
544.0,0.7586
545.0,0.7563
546.0,0.7594
547.0,0.7593
548.0,0.7503
549.0,0.7527
550.0,0.7617
551.0,0.7525
552.0,0.7577
553.0,0.7441
554.0,0.7619
555.0,0.7633
556.0,0.7534
557.0,0.7298
558.0,0.7241
559.0,0.7104
560.0,0.7192
561.0,0.7283
562.0,0.7228
563.0,0.7423
564.0,0.7218
565.0,0.7154
566.0,0.7047
567.0,0.7178
568.0,0.7107
569.0,0.6926
570.0,0.6926
571.0,0.6887
572.0,0.7044
573.0,0.7118
574.0,0.7093
575.0,0.6958
576.0,0.6894
577.0,0.6971
578.0,0.687
579.0,0.6903
580.0,0.7044
581.0,0.7087
582.0,0.7228
583.0,0.725
584.0,0.7317
585.0,0.714
586.0,0.6994
587.0,0.7143
588.0,0.6953
589.0,0.6128
590.0,0.6411
591.0,0.6803
592.0,0.6706
593.0,0.682
594.0,0.6767
595.0,0.6588
596.0,0.6874
597.0,0.6793
598.0,0.6783
599.0,0.6793
600.0,0.681
601.0,0.6759
602.0,0.6714
603.0,0.6827
604.0,0.6942
605.0,0.6907
606.0,0.6882
607.0,0.6953
608.0,0.6879
609.0,0.6893
610.0,0.6847
611.0,0.6884
612.0,0.6866
613.0,0.6781
614.0,0.669
615.0,0.6838
616.0,0.6615
617.0,0.6603
618.0,0.6858
619.0,0.679
620.0,0.6833
621.0,0.6837
622.0,0.6755
623.0,0.665
624.0,0.6538
625.0,0.6524
626.0,0.662
627.0,0.6688
628.0,0.6174
629.0,0.6505
630.0,0.6352
631.0,0.652
632.0,0.6446
633.0,0.6653
634.0,0.6596
635.0,0.6703
636.0,0.6619
637.0,0.673
638.0,0.6801
639.0,0.6727
640.0,0.6665
641.0,0.6664
642.0,0.6636
643.0,0.6726
644.0,0.6707
645.0,0.6716
646.0,0.6551
647.0,0.6454
648.0,0.6459
649.0,0.6332
650.0,0.6388
651.0,0.667
652.0,0.6365
653.0,0.6582
654.0,0.6511
655.0,0.6255
656.0,0.5554
657.0,0.5704
658.0,0.6401
659.0,0.645
660.0,0.6479
661.0,0.6525
662.0,0.6533
663.0,0.6406
664.0,0.6489
665.0,0.65
666.0,0.6507
667.0,0.6504
668.0,0.651
669.0,0.6612
670.0,0.6585
671.0,0.6585
672.0,0.6529
673.0,0.6629
674.0,0.6605
675.0,0.6546
676.0,0.6592
677.0,0.6528
678.0,0.6547
679.0,0.6443
680.0,0.6495
681.0,0.6452
682.0,0.6444
683.0,0.6432
684.0,0.64
685.0,0.6456
686.0,0.6416
687.0,0.3951
688.0,0.4773
689.0,0.4795
690.0,0.5079
691.0,0.5402
692.0,0.5645
693.0,0.5595
694.0,0.555
695.0,0.5818
696.0,0.5828
697.0,0.6231
698.0,0.6133
699.0,0.5956
700.0,0.5882
701.0,0.5812
702.0,0.5864
703.0,0.5876
704.0,0.6083
705.0,0.6092
706.0,0.6094
707.0,0.6101
708.0,0.6114
709.0,0.6134
710.0,0.6128
711.0,0.6124
712.0,0.6111
713.0,0.6044
714.0,0.6068
715.0,0.5865
716.0,0.5865
717.0,0.4974
718.0,0.4554
719.0,0.4161
720.0,0.4349
721.0,0.4868
722.0,0.5642
723.0,0.5216
724.0,0.4655
725.0,0.4565
726.0,0.4785
727.0,0.4881
728.0,0.4549
729.0,0.4759
730.0,0.5032
731.0,0.4804
732.0,0.5181
733.0,0.5524
734.0,0.5667
735.0,0.5544
736.0,0.5536
737.0,0.5558
738.0,0.5672
739.0,0.556
740.0,0.5714
741.0,0.5662
742.0,0.5673
743.0,0.5819
744.0,0.5806
745.0,0.5809
746.0,0.5836
747.0,0.5849
748.0,0.5837
749.0,0.5771
750.0,0.5768
751.0,0.571
752.0,0.5735
753.0,0.5764
754.0,0.5777
755.0,0.5744
756.0,0.5742
757.0,0.575
758.0,0.5678
759.0,0.5545
760.0,0.06602
761.0,0.0307
762.0,0.2509
763.0,0.1094
764.0,0.178
765.0,0.2508
766.0,0.3228
767.0,0.4232
768.0,0.5016
769.0,0.5152
770.0,0.5362
771.0,0.542
772.0,0.5436
773.0,0.5476
774.0,0.545
775.0,0.541
776.0,0.5476
777.0,0.5404
778.0,0.5371
779.0,0.5375
780.0,0.5346
781.0,0.5351
782.0,0.5385
783.0,0.5292
784.0,0.5318
785.0,0.5277
786.0,0.5334
787.0,0.5227
788.0,0.5156
789.0,0.5152
790.0,0.4996
791.0,0.5058
792.0,0.5024
793.0,0.494
794.0,0.5045
795.0,0.5125
796.0,0.494
797.0,0.4945
798.0,0.5116
799.0,0.5078
800.0,0.4983
801.0,0.4962
802.0,0.4947
803.0,0.4907
804.0,0.4916
805.0,0.4909
806.0,0.506
807.0,0.4996
808.0,0.5001
809.0,0.4897
810.0,0.4851
811.0,0.4842
812.0,0.4686
813.0,0.4578
814.0,0.3971
815.0,0.3949
816.0,0.3669
817.0,0.3742
818.0,0.3588
819.0,0.4061
820.0,0.3806
821.0,0.4519
822.0,0.4379
823.0,0.2869
824.0,0.4226
825.0,0.4439
826.0,0.4249
827.0,0.4507
828.0,0.3755
829.0,0.4228
830.0,0.4166
831.0,0.4182
832.0,0.4042
833.0,0.4332
834.0,0.4157
835.0,0.4615
836.0,0.4386
837.0,0.463
838.0,0.447
839.0,0.4563
840.0,0.4667
841.0,0.4594
842.0,0.4614
843.0,0.4623
844.0,0.4552
845.0,0.4714
846.0,0.4695
847.0,0.4611
848.0,0.4578
849.0,0.4447
850.0,0.4262
851.0,0.4507
852.0,0.4478
853.0,0.4314
854.0,0.3721
855.0,0.4094
856.0,0.4471
857.0,0.4574
858.0,0.4539
859.0,0.4545
860.0,0.4555
861.0,0.453
862.0,0.4602
863.0,0.471
864.0,0.4475
865.0,0.4436
866.0,0.3989
867.0,0.4163
868.0,0.453
869.0,0.4437
870.0,0.4563
871.0,0.4501
872.0,0.4485
873.0,0.4476
874.0,0.4423
875.0,0.4333
876.0,0.4378
877.0,0.4423
878.0,0.447
879.0,0.4401
880.0,0.4307
881.0,0.424
882.0,0.4331
883.0,0.4347
884.0,0.4326
885.0,0.4359
886.0,0.4145
887.0,0.4196
888.0,0.4253
889.0,0.431
890.0,0.4264
891.0,0.4262
892.0,0.4126
893.0,0.3983
894.0,0.3815
895.0,0.3569
896.0,0.335
897.0,0.2834
898.0,0.3116
899.0,0.2319
900.0,0.3218
901.0,0.2431
902.0,0.2922
903.0,0.2927
904.0,0.3786
905.0,0.3642
906.0,0.3396
907.0,0.269
908.0,0.2755
909.0,0.3015
910.0,0.261
911.0,0.282
912.0,0.2957
913.0,0.2646
914.0,0.2634
915.0,0.2855
916.0,0.2405
917.0,0.3111
918.0,0.2463
919.0,0.3184
920.0,0.3252
921.0,0.3385
922.0,0.2985
923.0,0.3273
924.0,0.3052
925.0,0.2987
926.0,0.3015
927.0,0.3417
928.0,0.2389
929.0,0.2149
930.0,0.1638
931.0,0.1558
932.0,0.107
933.0,0.08443
934.0,0.0411
935.0,0.08845
936.0,0.05186
937.0,0.05227
938.0,0.06555
939.0,0.1508
940.0,0.1852
941.0,0.1348
942.0,0.159
943.0,0.1007
944.0,0.1098
945.0,0.14
946.0,0.06611
947.0,0.1393
948.0,0.1017
949.0,0.1915
950.0,0.04574
951.0,0.1895
952.0,0.09512
953.0,0.1273
954.0,0.161
955.0,0.1293
956.0,0.1291
957.0,0.09473
958.0,0.1894
959.0,0.1446
960.0,0.1621
961.0,0.1866
962.0,0.1761
963.0,0.207
964.0,0.1884
965.0,0.2064
966.0,0.2056
967.0,0.2043
968.0,0.2886
969.0,0.2998
970.0,0.2736
971.0,0.3197
972.0,0.3045
973.0,0.2586
974.0,0.2446
975.0,0.2564
976.0,0.2398
977.0,0.2801
978.0,0.2631
979.0,0.2776
980.0,0.2598
981.0,0.318
982.0,0.3017
983.0,0.2883
984.0,0.3305
985.0,0.3005
986.0,0.338
987.0,0.3294
988.0,0.3289
989.0,0.3381
990.0,0.3269
991.0,0.3389
992.0,0.3411
993.0,0.3315
994.0,0.3412
995.0,0.341
996.0,0.3392
997.0,0.3399
998.0,0.3381
999.0,0.337
1000.0,0.3342
1001.0,0.3389
1002.0,0.3276
1003.0,0.3328
1004.0,0.3241
1005.0,0.3129
1006.0,0.3248
1007.0,0.3319
1008.0,0.3297
1009.0,0.3276
1010.0,0.326
1011.0,0.3302
1012.0,0.327
1013.0,0.3295
1014.0,0.3272
1015.0,0.325
1016.0,0.3235
1017.0,0.3242
1018.0,0.3233
1019.0,0.3156
1020.0,0.3214
1021.0,0.3211
1022.0,0.3184
1023.0,0.3217
1024.0,0.3168
1025.0,0.3217
1026.0,0.3202
1027.0,0.3195
1028.0,0.3187
1029.0,0.3149
1030.0,0.3173
1031.0,0.3159
1032.0,0.3151
1033.0,0.3103
1034.0,0.3104
1035.0,0.3114
1036.0,0.3129
1037.0,0.3078
1038.0,0.3092
1039.0,0.3089
1040.0,0.3077
1041.0,0.3088
1042.0,0.3067
1043.0,0.3057
1044.0,0.3067
1045.0,0.3025
1046.0,0.2991
1047.0,0.3017
1048.0,0.3033
1049.0,0.3022
1050.0,0.3007
1051.0,0.3002
1052.0,0.2989
1053.0,0.2965
1054.0,0.297
1055.0,0.2971
1056.0,0.2959
1057.0,0.2949
1058.0,0.2875
1059.0,0.2877
1060.0,0.2872
1061.0,0.2868
1062.0,0.2882
1063.0,0.2853
1064.0,0.2887
1065.0,0.2863
1066.0,0.2809
1067.0,0.2844
1068.0,0.278
1069.0,0.2696
1070.0,0.2785
1071.0,0.2835
1072.0,0.2798
1073.0,0.2758
1074.0,0.2837
1075.0,0.2675
1076.0,0.2834
1077.0,0.2772
1078.0,0.2714
1079.0,0.2792
1080.0,0.2729
1081.0,0.2632
1082.0,0.2691
1083.0,0.2704
1084.0,0.2621
1085.0,0.2737
1086.0,0.2469
1087.0,0.2569
1088.0,0.2698
1089.0,0.2596
1090.0,0.2528
1091.0,0.2684
1092.0,0.2681
1093.0,0.222
1094.0,0.2446
1095.0,0.2318
1096.0,0.2204
1097.0,0.2619
1098.0,0.2163
1099.0,0.2265
1100.0,0.2083
1101.0,0.2116
1102.0,0.2007
1103.0,0.1977
1104.0,0.1981
1105.0,0.2208
1106.0,0.1602
1107.0,0.208
1108.0,0.1711
1109.0,0.1725
1110.0,0.2054
1111.0,0.1324
1112.0,0.1715
1113.0,0.1023
1114.0,0.1148
1115.0,0.09484
1116.0,0.07176
1117.0,0.02242
1118.0,0.07929
1119.0,0.03598
1120.0,0.04495
1121.0,0.0616
1122.0,0.02312
1123.0,0.04077
1124.0,0.03436
1125.0,0.04566
1126.0,0.0132
1127.0,0.05176
1128.0,0.02794
1129.0,0.03002
1130.0,0.01884
1131.0,0.1059
1132.0,0.08157
1133.0,0.04753
1134.0,0.01008
1135.0,0.003909
1136.0,0.03821
1137.0,0.1025
1138.0,0.07144
1139.0,0.1151
1140.0,0.09287
1141.0,0.06797
1142.0,0.07984
1143.0,0.117
1144.0,0.03693
1145.0,0.0459
1146.0,0.04945
1147.0,0.01466
1148.0,0.101
1149.0,0.07814
1150.0,0.04028
1151.0,0.07085
1152.0,0.09017
1153.0,0.09017
1154.0,0.0443
1155.0,0.1199
1156.0,0.1063
1157.0,0.1222
1158.0,0.1208
1159.0,0.1324
1160.0,0.1111
1161.0,0.1415
1162.0,0.1418
1163.0,0.1995
1164.0,0.1682
1165.0,0.1559
1166.0,0.157
1167.0,0.1724
1168.0,0.1736
1169.0,0.1786
1170.0,0.1965
1171.0,0.1914
1172.0,0.1963
1173.0,0.1961
1174.0,0.1345
1175.0,0.1928
1176.0,0.2149
1177.0,0.2043
1178.0,0.1493
1179.0,0.2167
1180.0,0.1902
1181.0,0.1965
1182.0,0.131
1183.0,0.1941
1184.0,0.1804
1185.0,0.1727
1186.0,0.2093
1187.0,0.198
1188.0,0.1326
1189.0,0.1842
1190.0,0.2048
1191.0,0.1918
1192.0,0.2079
1193.0,0.1983
1194.0,0.205
1195.0,0.1921
1196.0,0.1839
1197.0,0.206
1198.0,0.1874
1199.0,0.1555
1200.0,0.1957
1201.0,0.1874
1202.0,0.1873
1203.0,0.1853
1204.0,0.1602
1205.0,0.1928
1206.0,0.2149
1207.0,0.1863
1208.0,0.1846
1209.0,0.1886
1210.0,0.1974
1211.0,0.1866
1212.0,0.1824
1213.0,0.2069
1214.0,0.1876
1215.0,0.1837
1216.0,0.2064
1217.0,0.2003
1218.0,0.2047
1219.0,0.2018
1220.0,0.205
1221.0,0.2074
1222.0,0.2017
1223.0,0.1995
1224.0,0.1976
1225.0,0.206
1226.0,0.2079
1227.0,0.1899
1228.0,0.2094
1229.0,0.2079
1230.0,0.2041
1231.0,0.2111
1232.0,0.2098
1233.0,0.201
1234.0,0.2112
1235.0,0.2097
1236.0,0.2114
1237.0,0.2077
1238.0,0.2107
1239.0,0.208
1240.0,0.2088
1241.0,0.2074
1242.0,0.2074
1243.0,0.2057
1244.0,0.207
1245.0,0.208
1246.0,0.2068
1247.0,0.2059
1248.0,0.2055
1249.0,0.2064
1250.0,0.205
1251.0,0.2021
1252.0,0.2025
1253.0,0.2003
1254.0,0.1978
1255.0,0.2021
1256.0,0.1954
1257.0,0.1941
1258.0,0.1986
1259.0,0.1898
1260.0,0.191
1261.0,0.1782
1262.0,0.1718
1263.0,0.1721
1264.0,0.1565
1265.0,0.171
1266.0,0.1632
1267.0,0.167
1268.0,0.1568
1269.0,0.08752
1270.0,0.166
1271.0,0.1779
1272.0,0.1787
1273.0,0.1766
1274.0,0.1774
1275.0,0.1804
1276.0,0.1825
1277.0,0.1842
1278.0,0.1886
1279.0,0.1868
1280.0,0.1845
1281.0,0.1764
1282.0,0.1706
1283.0,0.1836
1284.0,0.1879
1285.0,0.1892
1286.0,0.1921
1287.0,0.1885
1288.0,0.1887
1289.0,0.1815
1290.0,0.1871
1291.0,0.1899
1292.0,0.1761
1293.0,0.1857
1294.0,0.1843
1295.0,0.1827
1296.0,0.173
1297.0,0.1625
1298.0,0.1772
1299.0,0.1861
1300.0,0.1537
1301.0,0.1592
1302.0,0.1767
1303.0,0.1521
1304.0,0.1262
1305.0,0.1729
1306.0,0.1726
1307.0,0.1302
1308.0,0.153
1309.0,0.1708
1310.0,0.1275
1311.0,0.1458
1312.0,0.1413
1313.0,0.1379
1314.0,0.1221
1315.0,0.1197
1316.0,0.1429
1317.0,0.1349
1318.0,0.1481
1319.0,0.1114
1320.0,0.1089
1321.0,0.1283
1322.0,0.1288
1323.0,0.0934
1324.0,0.1094
1325.0,0.1405
1326.0,0.1183
1327.0,0.1122
1328.0,0.09559
1329.0,0.06865
1330.0,0.09096
1331.0,0.05131
1332.0,0.05415
1333.0,0.07613
1334.0,0.06651
1335.0,0.09289
1336.0,0.07149
1337.0,0.06239
1338.0,0.06742
1339.0,0.06764
1340.0,0.06682
1341.0,0.06285
1342.0,0.06626
1343.0,0.04048
1344.0,0.0246
1345.0,0.03548
1346.0,0.01511
1347.0,0.01493
1348.0,0.0006869
1349.0,0.002706
1350.0,0.003002
1351.0,0.0005328
1352.0,9.927e-05
1353.0,3.593e-06
1354.0,1.582e-05
1355.0,5.989e-08
1356.0,1.724e-06
1357.0,2.637e-06
1358.0,7.316e-08
1359.0,5.144e-09
1360.0,2.719e-08
1361.0,9.392e-12
1362.0,1.668e-14
1363.0,2.949e-08
1364.0,1.236e-08
1365.0,3.274e-15
1366.0,1.5e-07
1367.0,7.104e-08
1368.0,1.097e-17
1369.0,4.534e-09
1370.0,1.749e-09
1371.0,7.578e-11
1372.0,3.954e-08
1373.0,1.165e-06
1374.0,7.073e-06
1375.0,1.237e-05
1376.0,1.447e-05
1377.0,6.282e-06
1378.0,6.72e-05
1379.0,2.641e-06
1380.0,3.177e-06
1381.0,7.284e-08
1382.0,3.314e-08
1383.0,4.147e-10
1384.0,4.609e-09
1385.0,4.203e-08
1386.0,2.466e-08
1387.0,6.052e-06
1388.0,1.269e-07
1389.0,2.827e-05
1390.0,2.391e-05
1391.0,1.532e-05
1392.0,9.395e-07
1393.0,5.718e-06
1394.0,1.862e-06
1395.0,1.053e-08
1396.0,1.581e-11
1397.0,2.053e-06
1398.0,7.269e-05
1399.0,4.683e-05
1400.0,4.982e-12
1401.0,3.181e-11
1402.0,0.0001949
1403.0,0.0002262
1404.0,6.644e-05
1405.0,4.145e-09
1406.0,0.0001508
1407.0,1.526e-05
1408.0,0.0001267
1409.0,3.406e-05
1410.0,3.245e-05
1411.0,0.0002023
1412.0,0.0003036
1413.0,0.00419
1414.0,2.643e-05
1415.0,1.149e-05
1416.0,0.008459
1417.0,0.002101
1418.0,0.00226
1419.0,0.0003346
1420.0,0.00137
1421.0,0.001526
1422.0,0.01111
1423.0,0.002047
1424.0,0.003984
1425.0,0.005584
1426.0,0.006959
1427.0,0.01415
1428.0,0.0006236
1429.0,0.009854
1430.0,0.01872
1431.0,0.02105
1432.0,0.0004838
1433.0,0.01275
1434.0,0.006169
1435.0,0.005132
1436.0,0.01146
