interpolation:linear
wavelength,value
280.0,3.245e-21
280.5,1.014e-19
281.0,5.345e-19
281.5,3.304e-19
282.0,1.035e-18
282.5,2.762e-18
283.0,9.01e-18
283.5,1.479e-17
284.0,2.422e-16
284.5,6.997e-16
285.0,1.594e-15
285.5,7.782e-15
286.0,3.115e-14
286.5,1.375e-13
287.0,3.89e-13
287.5,1.471e-12
288.0,3.865e-12
288.5,1.295e-11
289.0,3.7e-11
289.5,1.178e-10
290.0,3.377e-10
290.5,7.043e-10
291.0,1.545e-09
291.5,4.538e-09
292.0,1.004e-08
292.5,1.518e-08
293.0,3.582e-08
293.5,9.935e-08
294.0,1.706e-07
294.5,2.209e-07
295.0,4.105e-07
295.5,1.09e-06
296.0,2.185e-06
296.5,3.188e-06
297.0,4.479e-06
297.5,1.277e-05
298.0,2.129e-05
298.5,2.245e-05
299.0,5.194e-05
299.5,9.428e-05
300.0,0.0001095
300.5,0.0001685
301.0,0.0003399
301.5,0.0006097
302.0,0.0005607
302.5,0.001105
303.0,0.002007
303.5,0.002546
304.0,0.002404
304.5,0.003629
305.0,0.005582
305.5,0.006449
306.0,0.006263
306.5,0.007839
307.0,0.01175
307.5,0.01577
308.0,0.01668
308.5,0.01979
309.0,0.01949
309.5,0.02239
310.0,0.02253
310.5,0.03653
311.0,0.04592
311.5,0.04437
312.0,0.04449
312.5,0.05423
313.0,0.05888
313.5,0.05715
314.0,0.07159
314.5,0.06363
315.0,0.08367
315.5,0.06994
316.0,0.06119
316.5,0.08799
317.0,0.1093
317.5,0.1137
318.0,0.08877
318.5,0.1104
319.0,0.1311
319.5,0.1068
320.0,0.129
320.5,0.1617
321.0,0.1441
321.5,0.1382
322.0,0.1472
322.5,0.1281
323.0,0.1276
323.5,0.1569
324.0,0.1832
324.5,0.186
325.0,0.1607
325.5,0.2068
326.0,0.2529
326.5,0.2532
327.0,0.2525
327.5,0.2439
328.0,0.2173
328.5,0.2283
329.0,0.2733
329.5,0.3103
330.0,0.3131
330.5,0.2507
331.0,0.2555
331.5,0.2597
332.0,0.2805
332.5,0.2775
333.0,0.2767
333.5,0.2506
334.0,0.2568
334.5,0.2963
335.0,0.2784
335.5,0.3252
336.0,0.2251
336.5,0.2637
337.0,0.2164
337.5,0.2692
338.0,0.2629
338.5,0.3035
339.0,0.3004
339.5,0.2891
340.0,0.3398
340.5,0.3063
341.0,0.2988
341.5,0.2744
342.0,0.3281
342.5,0.307
343.0,0.3377
343.5,0.3181
344.0,0.2351
344.5,0.2375
345.0,0.3144
345.5,0.3211
346.0,0.273
346.5,0.3092
347.0,0.332
347.5,0.2685
348.0,0.3062
348.5,0.3061
349.0,0.2841
349.5,0.2814
350.0,0.3481
350.5,0.3673
351.0,0.3282
351.5,0.319
352.0,0.3427
352.5,0.2675
353.0,0.3371
353.5,0.3605
354.0,0.3744
354.5,0.3797
355.0,0.3786
355.5,0.3421
356.0,0.358
356.5,0.3058
357.0,0.2527
357.5,0.3094
358.0,0.2453
358.5,0.2096
359.0,0.2933
359.5,0.3738
360.0,0.3964
360.5,0.3169
361.0,0.289
361.5,0.3329
362.0,0.288
362.5,0.3987
363.0,0.3582
363.5,0.3301
364.0,0.4038
364.5,0.3453
365.0,0.3517
365.5,0.4416
366.0,0.468
366.5,0.4399
367.0,0.4285
367.5,0.4448
368.0,0.3894
368.5,0.393
369.0,0.4245
369.5,0.4526
370.0,0.4827
370.5,0.3747
371.0,0.4005
371.5,0.5012
372.0,0.3327
372.5,0.3991
373.0,0.4061
373.5,0.2643
374.0,0.3841
374.5,0.3182
375.0,0.3094
375.5,0.462
376.0,0.3831
376.5,0.3971
377.0,0.4206
377.5,0.4922
378.0,0.5336
378.5,0.5045
379.0,0.4164
379.5,0.3804
380.0,0.3956
380.5,0.4793
381.0,0.4805
381.5,0.381
382.0,0.3385
382.5,0.2887
383.0,0.2673
383.5,0.2576
384.0,0.2842
384.5,0.4182
385.0,0.4148
385.5,0.3864
386.0,0.331
386.5,0.435
387.0,0.3615
387.5,0.4062
388.0,0.3751
388.5,0.3709
389.0,0.4005
389.5,0.4852
390.0,0.4871
390.5,0.4484
391.0,0.5279
391.5,0.5386
392.0,0.4537
392.5,0.4064
393.0,0.2262
393.5,0.1645
394.0,0.3347
394.5,0.4257
395.0,0.5196
395.5,0.5279
396.0,0.4578
396.5,0.2677
397.0,0.201
397.5,0.4088
398.0,0.5726
398.5,0.5919
399.0,0.6412
399.5,0.6393
400.0,0.6639
401.0,0.673
402.0,0.7104
403.0,0.6752
404.0,0.6651
405.0,0.6653
406.0,0.6548
407.0,0.6445
408.0,0.6699
409.0,0.7172
410.0,0.627
411.0,0.6794
412.0,0.7301
413.0,0.7122
414.0,0.7212
415.0,0.7234
416.0,0.7364
417.0,0.7185
418.0,0.7055
419.0,0.715
420.0,0.7121
421.0,0.7452
422.0,0.7085
423.0,0.6923
424.0,0.7324
425.0,0.7313
426.0,0.7127
427.0,0.6995
428.0,0.6816
429.0,0.6459
430.0,0.5654
431.0,0.5605
432.0,0.724
433.0,0.7282
434.0,0.6763
435.0,0.7064
436.0,0.7962
437.0,0.7858
438.0,0.7158
439.0,0.7402
440.0,0.764
441.0,0.7919
442.0,0.8495
443.0,0.8275
444.0,0.8457
445.0,0.8274
446.0,0.79
447.0,0.8543
448.0,0.8676
449.0,0.8714
450.0,0.8959
451.0,0.9293
452.0,0.8955
453.0,0.8425
454.0,0.8797
455.0,0.8852
456.0,0.9064
457.0,0.9216
458.0,0.8901
459.0,0.8856
460.0,0.888
461.0,0.9085
462.0,0.9158
463.0,0.9095
464.0,0.8947
465.0,0.8837
466.0,0.8924
467.0,0.8761
468.0,0.8865
469.0,0.8912
470.0,0.8628
471.0,0.8618
472.0,0.908
473.0,0.8963
474.0,0.8975
475.0,0.905
476.0,0.8778
477.0,0.8802
478.0,0.9047
479.0,0.8993
480.0,0.9012
481.0,0.9182
482.0,0.9232
483.0,0.9123
484.0,0.8937
485.0,0.8516
486.0,0.7446
487.0,0.7805
488.0,0.8563
489.0,0.8589
490.0,0.9037
491.0,0.8883
492.0,0.8389
493.0,0.8664
494.0,0.8751
495.0,0.8826
496.0,0.8881
497.0,0.9018
498.0,0.8597
499.0,0.8706
500.0,0.8452
501.0,0.8295
502.0,0.8177
503.0,0.8507
504.0,0.8284
505.0,0.8587
506.0,0.8864
507.0,0.8435
508.0,0.8175
509.0,0.8406
510.0,0.8363
511.0,0.8588
512.0,0.8683
513.0,0.8218
514.0,0.8163
515.0,0.8082
516.0,0.8062
517.0,0.7164
518.0,0.7531
519.0,0.7899
520.0,0.8186
521.0,0.8264
522.0,0.8271
523.0,0.8121
524.0,0.8411
525.0,0.8508
526.0,0.8127
527.0,0.7657
528.0,0.8097
529.0,0.8534
530.0,0.8411
531.0,0.8535
532.0,0.8241
533.0,0.8
534.0,0.8237
535.0,0.8418
536.0,0.8496
537.0,0.8161
538.0,0.8306
539.0,0.8236
540.0,0.7896
541.0,0.7946
542.0,0.8194
543.0,0.811
544.0,0.8249
545.0,0.8223
546.0,0.8258
547.0,0.8256
548.0,0.8158
549.0,0.8183
550.0,0.828
551.0,0.818
552.0,0.8237
553.0,0.8089
554.0,0.8283
555.0,0.8299
556.0,0.8191
557.0,0.7935
558.0,0.7875
559.0,0.7726
560.0,0.7822
561.0,0.7922
562.0,0.7864
563.0,0.8077
564.0,0.7856
565.0,0.7787
566.0,0.7671
567.0,0.7815
568.0,0.7741
569.0,0.755
570.0,0.7549
571.0,0.7505
572.0,0.768
573.0,0.7761
574.0,0.7736
575.0,0.7589
576.0,0.752
577.0,0.7603
578.0,0.7491
579.0,0.7524
580.0,0.7673
581.0,0.7717
582.0,0.7867
583.0,0.7889
584.0,0.796
585.0,0.7767
586.0,0.7607
587.0,0.7771
588.0,0.7572
589.0,0.669
590.0,0.6997
591.0,0.7416
592.0,0.7316
593.0,0.7433
594.0,0.7377
595.0,0.7188
596.0,0.7488
597.0,0.7403
598.0,0.7388
599.0,0.7397
600.0,0.7412
601.0,0.7354
602.0,0.7305
603.0,0.7427
604.0,0.7551
605.0,0.7513
606.0,0.7484
607.0,0.756
608.0,0.7478
609.0,0.7492
610.0,0.744
611.0,0.748
612.0,0.7459
613.0,0.7366
614.0,0.7267
615.0,0.7427
616.0,0.7183
617.0,0.717
618.0,0.7446
619.0,0.7371
620.0,0.7418
621.0,0.7424
622.0,0.7336
623.0,0.7223
624.0,0.71
625.0,0.7084
626.0,0.7189
627.0,0.7266
628.0,0.6741
629.0,0.7078
630.0,0.6914
631.0,0.7085
632.0,0.7003
633.0,0.7222
634.0,0.7157
635.0,0.727
636.0,0.7177
637.0,0.7297
638.0,0.737
639.0,0.7289
640.0,0.7221
641.0,0.7218
642.0,0.7187
643.0,0.7284
644.0,0.7262
645.0,0.7273
646.0,0.7098
647.0,0.7001
648.0,0.7007
649.0,0.687
650.0,0.6919
651.0,0.7222
652.0,0.6905
653.0,0.7127
654.0,0.7049
655.0,0.6778
656.0,0.6013
657.0,0.6176
658.0,0.6926
659.0,0.6978
660.0,0.7008
661.0,0.7058
662.0,0.7069
663.0,0.693
664.0,0.7017
665.0,0.7026
666.0,0.7033
667.0,0.7028
668.0,0.7033
669.0,0.7143
670.0,0.7113
671.0,0.7112
672.0,0.7052
673.0,0.7159
674.0,0.7133
675.0,0.7068
676.0,0.7117
677.0,0.7047
678.0,0.7068
679.0,0.6954
680.0,0.701
681.0,0.6965
682.0,0.6956
683.0,0.6942
684.0,0.6908
685.0,0.6968
686.0,0.6925
687.0,0.4407
688.0,0.5254
689.0,0.5276
690.0,0.5564
691.0,0.5891
692.0,0.6134
693.0,0.6081
694.0,0.6032
695.0,0.6305
696.0,0.6314
697.0,0.673
698.0,0.6624
699.0,0.6447
700.0,0.6368
701.0,0.6297
702.0,0.6348
703.0,0.6361
704.0,0.6576
705.0,0.6585
706.0,0.6584
707.0,0.6591
708.0,0.6605
709.0,0.6621
710.0,0.6617
711.0,0.6611
712.0,0.6595
713.0,0.6525
714.0,0.655
715.0,0.6336
716.0,0.6338
717.0,0.5427
718.0,0.4975
719.0,0.4551
720.0,0.4761
721.0,0.5298
722.0,0.6106
723.0,0.5661
724.0,0.5073
725.0,0.4982
726.0,0.522
727.0,0.5311
728.0,0.4967
729.0,0.5178
730.0,0.5477
731.0,0.5233
732.0,0.5624
733.0,0.5978
734.0,0.6127
735.0,0.5997
736.0,0.5989
737.0,0.6012
738.0,0.6123
739.0,0.6002
740.0,0.6164
741.0,0.6106
742.0,0.6115
743.0,0.6271
744.0,0.6255
745.0,0.6258
746.0,0.6287
747.0,0.6301
748.0,0.6288
749.0,0.6216
750.0,0.6213
751.0,0.615
752.0,0.6177
753.0,0.6208
754.0,0.6222
755.0,0.6187
756.0,0.6184
757.0,0.6193
758.0,0.6116
759.0,0.5981
760.0,0.08202
761.0,0.04008
762.0,0.285
763.0,0.1314
764.0,0.207
765.0,0.2849
766.0,0.3596
767.0,0.464
768.0,0.5439
769.0,0.5572
770.0,0.5783
771.0,0.584
772.0,0.5855
773.0,0.5897
774.0,0.5869
775.0,0.5825
776.0,0.5896
777.0,0.5818
778.0,0.5783
779.0,0.5788
780.0,0.5755
781.0,0.5762
782.0,0.5798
783.0,0.5697
784.0,0.5725
785.0,0.5682
786.0,0.5744
787.0,0.5635
788.0,0.556
789.0,0.5557
790.0,0.5397
791.0,0.5456
792.0,0.5417
793.0,0.5328
794.0,0.5432
795.0,0.5521
796.0,0.5334
797.0,0.534
798.0,0.5512
799.0,0.5474
800.0,0.5375
801.0,0.5354
802.0,0.5339
803.0,0.5296
804.0,0.5305
805.0,0.5294
806.0,0.5451
807.0,0.5383
808.0,0.5389
809.0,0.5281
810.0,0.5234
811.0,0.5231
812.0,0.507
813.0,0.4958
814.0,0.4325
815.0,0.43
816.0,0.3998
817.0,0.4075
818.0,0.3914
819.0,0.4408
820.0,0.4139
821.0,0.4883
822.0,0.4736
823.0,0.315
824.0,0.4582
825.0,0.4797
826.0,0.4601
827.0,0.4871
828.0,0.4087
829.0,0.4576
830.0,0.4512
831.0,0.4529
832.0,0.4382
833.0,0.4684
834.0,0.4503
835.0,0.4979
836.0,0.4745
837.0,0.4994
838.0,0.4828
839.0,0.492
840.0,0.5031
841.0,0.4955
842.0,0.4973
843.0,0.4977
844.0,0.4904
845.0,0.5075
846.0,0.5053
847.0,0.4961
848.0,0.4928
849.0,0.4787
850.0,0.4587
851.0,0.4853
852.0,0.4821
853.0,0.4643
854.0,0.4007
855.0,0.4405
856.0,0.4813
857.0,0.4922
858.0,0.4885
859.0,0.4891
860.0,0.49
861.0,0.4873
862.0,0.495
863.0,0.5067
864.0,0.4814
865.0,0.4772
866.0,0.4291
867.0,0.4478
868.0,0.4873
869.0,0.4772
870.0,0.4908
871.0,0.4841
872.0,0.4825
873.0,0.4815
874.0,0.4758
875.0,0.4661
876.0,0.4709
877.0,0.4757
878.0,0.4808
879.0,0.4735
880.0,0.4633
881.0,0.4562
882.0,0.466
883.0,0.4676
884.0,0.4654
885.0,0.4689
886.0,0.4463
887.0,0.4515
888.0,0.4579
889.0,0.4636
890.0,0.4591
891.0,0.4586
892.0,0.4445
893.0,0.4296
894.0,0.4126
895.0,0.3874
896.0,0.3641
897.0,0.3096
898.0,0.3396
899.0,0.2546
900.0,0.3496
901.0,0.2669
902.0,0.3182
903.0,0.3197
904.0,0.4095
905.0,0.3944
906.0,0.3683
907.0,0.2944
908.0,0.301
909.0,0.3282
910.0,0.2862
911.0,0.3077
912.0,0.3224
913.0,0.2903
914.0,0.2886
915.0,0.3129
916.0,0.2639
917.0,0.3392
918.0,0.2704
919.0,0.3465
920.0,0.3526
921.0,0.3669
922.0,0.325
923.0,0.3546
924.0,0.3327
925.0,0.3255
926.0,0.3288
927.0,0.3711
928.0,0.2637
929.0,0.2384
930.0,0.1836
931.0,0.1744
932.0,0.1217
933.0,0.09698
934.0,0.04913
935.0,0.1008
936.0,0.06036
937.0,0.06092
938.0,0.07592
939.0,0.1689
940.0,0.206
941.0,0.1517
942.0,0.1779
943.0,0.1141
944.0,0.1229
945.0,0.1572
946.0,0.07607
947.0,0.1569
948.0,0.1147
949.0,0.2139
950.0,0.05361
951.0,0.2113
952.0,0.1084
953.0,0.1434
954.0,0.1796
955.0,0.1454
956.0,0.1438
957.0,0.1081
958.0,0.2088
959.0,0.1615
960.0,0.181
961.0,0.2066
962.0,0.1951
963.0,0.2279
964.0,0.2079
965.0,0.2273
966.0,0.2267
967.0,0.2254
968.0,0.3131
969.0,0.3259
970.0,0.298
971.0,0.3459
972.0,0.3299
973.0,0.2824
974.0,0.2674
975.0,0.2794
976.0,0.2627
977.0,0.3042
978.0,0.2868
979.0,0.3019
980.0,0.2829
981.0,0.3441
982.0,0.3272
983.0,0.3131
984.0,0.3566
985.0,0.326
986.0,0.3641
987.0,0.3555
988.0,0.3549
989.0,0.3638
990.0,0.3528
991.0,0.3647
992.0,0.367
993.0,0.3574
994.0,0.367
995.0,0.3668
996.0,0.3649
997.0,0.3656
998.0,0.3637
999.0,0.3625
1000.0,0.3596
1001.0,0.3645
1002.0,0.353
1003.0,0.3579
1004.0,0.3488
1005.0,0.3365
1006.0,0.3494
1007.0,0.357
1008.0,0.3548
1009.0,0.3526
1010.0,0.351
1011.0,0.3552
1012.0,0.3519
1013.0,0.3544
1014.0,0.3519
1015.0,0.3496
1016.0,0.348
1017.0,0.3488
1018.0,0.3476
1019.0,0.3397
1020.0,0.3457
1021.0,0.3454
1022.0,0.3425
1023.0,0.3461
1024.0,0.341
1025.0,0.346
1026.0,0.3444
1027.0,0.3436
1028.0,0.3429
1029.0,0.3388
1030.0,0.3413
1031.0,0.3398
1032.0,0.3389
1033.0,0.3338
1034.0,0.3338
1035.0,0.3349
1036.0,0.3365
1037.0,0.3311
1038.0,0.3325
1039.0,0.3323
1040.0,0.331
1041.0,0.3322
1042.0,0.3299
1043.0,0.3288
1044.0,0.3299
1045.0,0.3254
1046.0,0.3218
1047.0,0.3247
1048.0,0.3264
1049.0,0.3252
1050.0,0.3236
1051.0,0.3231
1052.0,0.3218
1053.0,0.3191
1054.0,0.3198
1055.0,0.3199
1056.0,0.3186
1057.0,0.3176
1058.0,0.3097
1059.0,0.31
1060.0,0.3094
1061.0,0.309
1062.0,0.3105
1063.0,0.3074
1064.0,0.3111
1065.0,0.3086
1066.0,0.3027
1067.0,0.3066
1068.0,0.2997
1069.0,0.2906
1070.0,0.3003
1071.0,0.3054
1072.0,0.3015
1073.0,0.2973
1074.0,0.3055
1075.0,0.2887
1076.0,0.3052
1077.0,0.2989
1078.0,0.2929
1079.0,0.3005
1080.0,0.2943
1081.0,0.2842
1082.0,0.29
1083.0,0.2912
1084.0,0.2831
1085.0,0.2951
1086.0,0.2672
1087.0,0.2773
1088.0,0.2906
1089.0,0.2803
1090.0,0.2733
1091.0,0.2893
1092.0,0.2888
1093.0,0.2409
1094.0,0.2638
1095.0,0.2515
1096.0,0.2396
1097.0,0.2822
1098.0,0.2354
1099.0,0.2462
1100.0,0.2272
1101.0,0.2305
1102.0,0.2191
1103.0,0.2162
1104.0,0.2166
1105.0,0.2402
1106.0,0.1772
1107.0,0.2268
1108.0,0.1884
1109.0,0.1895
1110.0,0.2243
1111.0,0.1469
1112.0,0.1883
1113.0,0.1146
1114.0,0.1285
1115.0,0.1063
1116.0,0.08177
1117.0,0.02686
1118.0,0.08997
1119.0,0.04197
1120.0,0.05259
1121.0,0.07138
1122.0,0.02778
1123.0,0.04764
1124.0,0.04018
1125.0,0.05307
1126.0,0.01628
1127.0,0.06007
1128.0,0.0335
1129.0,0.03586
1130.0,0.02279
1131.0,0.12
1132.0,0.09299
1133.0,0.05563
1134.0,0.0125
1135.0,0.004791
1136.0,0.04526
1137.0,0.1167
1138.0,0.08162
1139.0,0.1283
1140.0,0.1047
1141.0,0.07762
1142.0,0.0906
1143.0,0.1314
1144.0,0.0428
1145.0,0.05372
1146.0,0.05789
1147.0,0.01812
1148.0,0.1135
1149.0,0.08873
1150.0,0.04643
1151.0,0.08096
1152.0,0.102
1153.0,0.1011
1154.0,0.05184
1155.0,0.1338
1156.0,0.1192
1157.0,0.1359
1158.0,0.1344
1159.0,0.1466
1160.0,0.1236
1161.0,0.1558
1162.0,0.1563
1163.0,0.217
1164.0,0.184
1165.0,0.1715
1166.0,0.1719
1167.0,0.1883
1168.0,0.1899
1169.0,0.1951
1170.0,0.2137
1171.0,0.2082
1172.0,0.213
1173.0,0.2133
1174.0,0.1482
1175.0,0.2091
1176.0,0.232
1177.0,0.2213
1178.0,0.1632
1179.0,0.234
1180.0,0.2065
1181.0,0.2133
1182.0,0.1439
1183.0,0.2105
1184.0,0.1962
1185.0,0.1884
1186.0,0.2265
1187.0,0.2148
1188.0,0.1459
1189.0,0.1999
1190.0,0.2215
1191.0,0.2085
1192.0,0.2248
1193.0,0.2148
1194.0,0.2218
1195.0,0.2085
1196.0,0.2001
1197.0,0.2225
1198.0,0.2028
1199.0,0.1699
1200.0,0.212
1201.0,0.2035
1202.0,0.203
1203.0,0.201
1204.0,0.1745
1205.0,0.2085
1206.0,0.2317
1207.0,0.2022
1208.0,0.1998
1209.0,0.2041
1210.0,0.2132
1211.0,0.2021
1212.0,0.1984
1213.0,0.2235
1214.0,0.2037
1215.0,0.1996
1216.0,0.2228
1217.0,0.2165
1218.0,0.221
1219.0,0.218
1220.0,0.2213
1221.0,0.2237
1222.0,0.2177
1223.0,0.2154
1224.0,0.2137
1225.0,0.2223
1226.0,0.2241
1227.0,0.2054
1228.0,0.2255
1229.0,0.2241
1230.0,0.2201
1231.0,0.2271
1232.0,0.2257
1233.0,0.2169
1234.0,0.2272
1235.0,0.2256
1236.0,0.2273
1237.0,0.2237
1238.0,0.2266
1239.0,0.2237
1240.0,0.2245
1241.0,0.2232
1242.0,0.223
1243.0,0.2212
1244.0,0.2227
1245.0,0.2237
1246.0,0.2224
1247.0,0.2214
1248.0,0.2212
1249.0,0.222
1250.0,0.2205
1251.0,0.2176
1252.0,0.2178
1253.0,0.2157
1254.0,0.2132
1255.0,0.2175
1256.0,0.2107
1257.0,0.2094
1258.0,0.2139
1259.0,0.2051
1260.0,0.2063
1261.0,0.1934
1262.0,0.1869
1263.0,0.1872
1264.0,0.1712
1265.0,0.186
1266.0,0.178
1267.0,0.1818
1268.0,0.1714
1269.0,0.09963
1270.0,0.1809
1271.0,0.1929
1272.0,0.1937
1273.0,0.1914
1274.0,0.1923
1275.0,0.1953
1276.0,0.1974
1277.0,0.1991
1278.0,0.2034
1279.0,0.2016
1280.0,0.1991
1281.0,0.1902
1282.0,0.1836
1283.0,0.1977
1284.0,0.2024
1285.0,0.2038
1286.0,0.2067
1287.0,0.2031
1288.0,0.2032
1289.0,0.196
1290.0,0.2015
1291.0,0.2044
1292.0,0.1905
1293.0,0.2001
1294.0,0.1986
1295.0,0.1972
1296.0,0.1873
1297.0,0.1764
1298.0,0.1914
1299.0,0.2005
1300.0,0.1671
1301.0,0.1727
1302.0,0.1909
1303.0,0.1652
1304.0,0.1385
1305.0,0.1868
1306.0,0.1866
1307.0,0.1423
1308.0,0.1659
1309.0,0.1849
1310.0,0.1395
1311.0,0.1585
1312.0,0.1538
1313.0,0.1503
1314.0,0.1337
1315.0,0.1314
1316.0,0.1555
1317.0,0.147
1318.0,0.1608
1319.0,0.1227
1320.0,0.1195
1321.0,0.1402
1322.0,0.1411
1323.0,0.1037
1324.0,0.1204
1325.0,0.1531
1326.0,0.1298
1327.0,0.1234
1328.0,0.1055
1329.0,0.07701
1330.0,0.1014
1331.0,0.05857
1332.0,0.06135
1333.0,0.08597
1334.0,0.07424
1335.0,0.1032
1336.0,0.0802
1337.0,0.07026
1338.0,0.07599
1339.0,0.07604
1340.0,0.07471
1341.0,0.07121
1342.0,0.07497
1343.0,0.04746
1344.0,0.02867
1345.0,0.04141
1346.0,0.01859
1347.0,0.01856
1348.0,0.0009597
1349.0,0.00367
1350.0,0.003986
1351.0,0.0007881
1352.0,0.000168
1353.0,6.814e-06
1354.0,2.754e-05
1355.0,1.354e-07
1356.0,3.284e-06
1357.0,5.024e-06
1358.0,1.636e-07
1359.0,1.41e-08
1360.0,6.54e-08
1361.0,3.326e-11
1362.0,6.657e-14
1363.0,7.74e-08
1364.0,3.201e-08
1365.0,1.515e-14
1366.0,3.74e-07
1367.0,1.669e-07
1368.0,5.237e-17
1369.0,1.179e-08
1370.0,4.953e-09
1371.0,2.338e-10
1372.0,9.236e-08
1373.0,2.396e-06
1374.0,1.326e-05
1375.0,2.365e-05
1376.0,2.504e-05
1377.0,1.106e-05
1378.0,0.0001156
1379.0,4.641e-06
1380.0,5.965e-06
1381.0,1.422e-07
1382.0,7.949e-08
1383.0,1.05e-09
1384.0,1.246e-08
1385.0,9.072e-08
1386.0,6.31e-08
1387.0,1.222e-05
1388.0,2.473e-07
1389.0,5.086e-05
1390.0,4.34e-05
1391.0,2.809e-05
1392.0,1.746e-06
1393.0,1.016e-05
1394.0,3.909e-06
1395.0,2.396e-08
1396.0,5.342e-11
1397.0,3.779e-06
1398.0,0.0001269
1399.0,8.121e-05
1400.0,1.865e-11
1401.0,1.037e-10
1402.0,0.0002923
1403.0,0.0003494
1404.0,0.0001041
1405.0,1.016e-08
1406.0,0.0002486
1407.0,2.374e-05
1408.0,0.0002067
1409.0,6.007e-05
1410.0,5.352e-05
1411.0,0.0003104
1412.0,0.000449
1413.0,0.005638
1414.0,4.308e-05
1415.0,1.936e-05
1416.0,0.01061
1417.0,0.002796
1418.0,0.003081
1419.0,0.0004623
1420.0,0.001873
1421.0,0.002053
1422.0,0.01393
1423.0,0.002599
1424.0,0.004996
1425.0,0.007123
1426.0,0.008616
1427.0,0.01703
1428.0,0.0008822
1429.0,0.01212
1430.0,0.02227
1431.0,0.02487
1432.0,0.0006872
1433.0,0.01527
1434.0,0.007495
1435.0,0.006587
1436.0,0.01409
1437.0,0.01084
