interpolation:linear
wavelength,value
280.0,5.017e-23
280.5,1.688e-21
281.0,9.143e-21
281.5,2.973e-19
282.0,4.952e-19
282.5,1.151e-18
283.0,3.548e-18
283.5,5.758e-18
284.0,9.424e-17
284.5,2.765e-16
285.0,7.036e-16
285.5,2.958e-15
286.0,1.159e-14
286.5,5.014e-14
287.0,1.418e-13
287.5,5.408e-13
288.0,1.733e-12
288.5,4.94e-12
289.0,1.274e-11
289.5,3.778e-11
290.0,1.042e-10
290.5,2.124e-10
291.0,4.564e-10
291.5,1.314e-09
292.0,2.694e-09
292.5,3.746e-09
293.0,7.952e-09
293.5,1.911e-08
294.0,2.979e-08
294.5,3.662e-08
295.0,6.157e-08
295.5,1.043e-07
296.0,1.955e-07
296.5,2.65e-07
297.0,3.489e-07
297.5,8.957e-07
298.0,1.355e-06
298.5,1.318e-06
299.0,2.807e-06
299.5,4.365e-06
300.0,4.614e-06
300.5,6.406e-06
301.0,1.079e-05
301.5,1.603e-05
302.0,1.321e-05
302.5,2.527e-05
303.0,4.395e-05
303.5,5.473e-05
304.0,5.222e-05
304.5,8.15e-05
305.0,0.0001327
305.5,0.0001595
306.0,0.0001574
306.5,0.0002027
307.0,0.0003253
307.5,0.0004686
308.0,0.0005013
308.5,0.0006169
309.0,0.0006809
309.5,0.0009515
310.0,0.001048
310.5,0.001778
311.0,0.002407
311.5,0.0024
312.0,0.002831
312.5,0.003844
313.0,0.004415
313.5,0.004062
314.0,0.005796
314.5,0.00613
315.0,0.008309
315.5,0.006376
316.0,0.006426
316.5,0.01045
317.0,0.01294
317.5,0.01299
318.0,0.01102
318.5,0.01611
319.0,0.02076
319.5,0.01481
320.0,0.01753
320.5,0.02593
321.0,0.02686
321.5,0.02614
322.0,0.02367
322.5,0.02076
323.0,0.02297
323.5,0.03303
324.0,0.03931
324.5,0.03794
325.0,0.02941
325.5,0.04122
326.0,0.05494
326.5,0.05856
327.0,0.05702
327.5,0.05345
328.0,0.04369
328.5,0.05088
329.0,0.06596
329.5,0.07669
330.0,0.07586
330.5,0.05708
331.0,0.05694
331.5,0.06058
332.0,0.06988
332.5,0.0712
333.0,0.06978
333.5,0.06016
334.0,0.06114
334.5,0.07453
335.0,0.07229
335.5,0.08573
336.0,0.05932
336.5,0.06735
337.0,0.054
337.5,0.0666
338.0,0.06803
338.5,0.08019
339.0,0.07962
339.5,0.07646
340.0,0.08809
340.5,0.07977
341.0,0.07914
341.5,0.07308
342.0,0.08749
342.5,0.08201
343.0,0.08988
343.5,0.08445
344.0,0.06135
344.5,0.0628
345.0,0.08368
345.5,0.08571
346.0,0.07301
346.5,0.08281
347.0,0.08865
347.5,0.07162
348.0,0.08199
348.5,0.08215
349.0,0.07633
349.5,0.07558
350.0,0.09355
350.5,0.09871
351.0,0.08804
351.5,0.08519
352.0,0.09181
352.5,0.07185
353.0,0.09069
353.5,0.09712
354.0,0.1009
354.5,0.1024
355.0,0.102
355.5,0.09226
356.0,0.09664
356.5,0.08255
357.0,0.06821
357.5,0.08355
358.0,0.06627
358.5,0.05666
359.0,0.07924
359.5,0.1009
360.0,0.107
360.5,0.08563
361.0,0.07816
361.5,0.09012
362.0,0.07804
362.5,0.1081
363.0,0.09722
363.5,0.08963
364.0,0.1097
364.5,0.09382
365.0,0.0956
365.5,0.1201
366.0,0.1274
366.5,0.1198
367.0,0.1167
367.5,0.1212
368.0,0.1061
368.5,0.1072
369.0,0.1158
369.5,0.1236
370.0,0.1318
370.5,0.1024
371.0,0.1095
371.5,0.1371
372.0,0.09106
372.5,0.1093
373.0,0.1113
373.5,0.07245
374.0,0.1053
374.5,0.08733
375.0,0.08495
375.5,0.1269
376.0,0.1053
376.5,0.1091
377.0,0.1157
377.5,0.1354
378.0,0.1469
378.5,0.1389
379.0,0.1147
379.5,0.1048
380.0,0.109
380.5,0.1322
381.0,0.1326
381.5,0.1053
382.0,0.0936
382.5,0.0799
383.0,0.07405
383.5,0.0714
384.0,0.07883
384.5,0.1161
385.0,0.1152
385.5,0.1074
386.0,0.09207
386.5,0.1211
387.0,0.1007
387.5,0.1132
388.0,0.1046
388.5,0.1035
389.0,0.1118
389.5,0.1356
390.0,0.1362
390.5,0.1254
391.0,0.1478
391.5,0.1509
392.0,0.1272
392.5,0.114
393.0,0.0635
393.5,0.04621
394.0,0.09411
394.5,0.1198
395.0,0.1463
395.5,0.1487
396.0,0.129
396.5,0.07553
397.0,0.05675
397.5,0.1155
398.0,0.1618
398.5,0.1674
399.0,0.1816
399.5,0.1812
400.0,0.1882
401.0,0.1884
402.0,0.1992
403.0,0.1897
404.0,0.1871
405.0,0.1874
406.0,0.1847
407.0,0.1822
408.0,0.1894
409.0,0.2031
410.0,0.1778
411.0,0.193
412.0,0.2079
413.0,0.203
414.0,0.2059
415.0,0.2069
416.0,0.211
417.0,0.2061
418.0,0.2026
419.0,0.2057
420.0,0.2051
421.0,0.215
422.0,0.2047
423.0,0.2002
424.0,0.212
425.0,0.212
426.0,0.2071
427.0,0.2036
428.0,0.1986
429.0,0.1887
430.0,0.1655
431.0,0.1641
432.0,0.2123
433.0,0.2138
434.0,0.1988
435.0,0.2078
436.0,0.2348
437.0,0.2322
438.0,0.2119
439.0,0.2187
440.0,0.2261
441.0,0.2348
442.0,0.2521
443.0,0.2454
444.0,0.2514
445.0,0.2461
446.0,0.2357
447.0,0.2556
448.0,0.2593
449.0,0.2613
450.0,0.269
451.0,0.2793
452.0,0.2696
453.0,0.254
454.0,0.2658
455.0,0.2676
456.0,0.2742
457.0,0.2789
458.0,0.269
459.0,0.2678
460.0,0.2684
461.0,0.2748
462.0,0.2775
463.0,0.2757
464.0,0.2722
465.0,0.2697
466.0,0.2731
467.0,0.2679
468.0,0.2712
469.0,0.2726
470.0,0.2638
471.0,0.2638
472.0,0.278
473.0,0.2745
474.0,0.2744
475.0,0.2761
476.0,0.267
477.0,0.2671
478.0,0.2747
479.0,0.2734
480.0,0.2744
481.0,0.2802
482.0,0.2825
483.0,0.2801
484.0,0.275
485.0,0.2627
486.0,0.2304
487.0,0.2421
488.0,0.2656
489.0,0.2663
490.0,0.2806
491.0,0.2762
492.0,0.261
493.0,0.2697
494.0,0.2726
495.0,0.2752
496.0,0.2769
497.0,0.2812
498.0,0.2679
499.0,0.2709
500.0,0.2625
501.0,0.257
502.0,0.2523
503.0,0.2614
504.0,0.2515
505.0,0.2632
506.0,0.2717
507.0,0.2588
508.0,0.2518
509.0,0.2598
510.0,0.2592
511.0,0.2669
512.0,0.2702
513.0,0.2558
514.0,0.2543
515.0,0.2518
516.0,0.251
517.0,0.2232
518.0,0.2346
519.0,0.246
520.0,0.2547
521.0,0.257
522.0,0.2569
523.0,0.252
524.0,0.2603
525.0,0.2624
526.0,0.2503
527.0,0.2351
528.0,0.2481
529.0,0.2609
530.0,0.2568
531.0,0.2602
532.0,0.2511
533.0,0.2438
534.0,0.2512
535.0,0.2572
536.0,0.2599
537.0,0.2501
538.0,0.2547
539.0,0.2525
540.0,0.2419
541.0,0.2423
542.0,0.2494
543.0,0.2475
544.0,0.2509
545.0,0.2503
546.0,0.2506
547.0,0.2512
548.0,0.2486
549.0,0.2497
550.0,0.2527
551.0,0.2497
552.0,0.2515
553.0,0.2468
554.0,0.2526
555.0,0.2529
556.0,0.2494
557.0,0.2413
558.0,0.2389
559.0,0.2338
560.0,0.2363
561.0,0.2388
562.0,0.2364
563.0,0.242
564.0,0.2348
565.0,0.2322
566.0,0.2282
567.0,0.2318
568.0,0.2279
569.0,0.2191
570.0,0.2194
571.0,0.2188
572.0,0.2218
573.0,0.2237
574.0,0.2224
575.0,0.2174
576.0,0.2155
577.0,0.2182
578.0,0.2159
579.0,0.2184
580.0,0.2252
581.0,0.2284
582.0,0.2345
583.0,0.2365
584.0,0.2396
585.0,0.2343
586.0,0.2296
587.0,0.2336
588.0,0.2236
589.0,0.19
590.0,0.1992
591.0,0.2158
592.0,0.2102
593.0,0.217
594.0,0.2141
595.0,0.2053
596.0,0.2205
597.0,0.2161
598.0,0.2177
599.0,0.2187
600.0,0.2208
601.0,0.2203
602.0,0.2191
603.0,0.2234
604.0,0.2275
605.0,0.2268
606.0,0.2266
607.0,0.2297
608.0,0.228
609.0,0.229
610.0,0.2281
611.0,0.2299
612.0,0.2298
613.0,0.2273
614.0,0.225
615.0,0.2305
616.0,0.2235
617.0,0.2235
618.0,0.2325
619.0,0.2304
620.0,0.2319
621.0,0.2316
622.0,0.2286
623.0,0.2249
624.0,0.2214
625.0,0.2207
626.0,0.2237
627.0,0.2244
628.0,0.1893
629.0,0.2119
630.0,0.2062
631.0,0.2178
632.0,0.2166
633.0,0.2261
634.0,0.2263
635.0,0.231
636.0,0.2293
637.0,0.2341
638.0,0.2381
639.0,0.2363
640.0,0.2351
641.0,0.2358
642.0,0.2356
643.0,0.2389
644.0,0.2391
645.0,0.239
646.0,0.2309
647.0,0.2222
648.0,0.2233
649.0,0.2177
650.0,0.2265
651.0,0.2376
652.0,0.2207
653.0,0.2351
654.0,0.2329
655.0,0.2207
656.0,0.1981
657.0,0.204
658.0,0.2312
659.0,0.2338
660.0,0.2355
661.0,0.2377
662.0,0.2371
663.0,0.2328
664.0,0.2375
665.0,0.2393
666.0,0.24
667.0,0.2406
668.0,0.2416
669.0,0.2459
670.0,0.2452
671.0,0.2457
672.0,0.2439
673.0,0.248
674.0,0.2474
675.0,0.2456
676.0,0.2476
677.0,0.2455
678.0,0.2465
679.0,0.2428
680.0,0.245
681.0,0.2435
682.0,0.2432
683.0,0.2429
684.0,0.2416
685.0,0.2441
686.0,0.2422
687.0,0.08313
688.0,0.1261
689.0,0.1276
690.0,0.1458
691.0,0.1686
692.0,0.1882
693.0,0.1864
694.0,0.1883
695.0,0.207
696.0,0.2082
697.0,0.233
698.0,0.2291
699.0,0.215
700.0,0.212
701.0,0.2059
702.0,0.2108
703.0,0.2126
704.0,0.2247
705.0,0.2247
706.0,0.2264
707.0,0.2275
708.0,0.2277
709.0,0.2319
710.0,0.2297
711.0,0.2308
712.0,0.232
713.0,0.2278
714.0,0.2294
715.0,0.2183
716.0,0.2176
717.0,0.1586
718.0,0.1442
719.0,0.1298
720.0,0.1327
721.0,0.1624
722.0,0.2039
723.0,0.1812
724.0,0.1522
725.0,0.1468
726.0,0.1543
727.0,0.1639
728.0,0.1453
729.0,0.1607
730.0,0.1666
731.0,0.1581
732.0,0.1803
733.0,0.2004
734.0,0.2088
735.0,0.2025
736.0,0.2013
737.0,0.2025
738.0,0.2145
739.0,0.2107
740.0,0.2187
741.0,0.2181
742.0,0.22
743.0,0.2261
744.0,0.2266
745.0,0.2276
746.0,0.2286
747.0,0.2294
748.0,0.229
749.0,0.2265
750.0,0.2264
751.0,0.2242
752.0,0.2253
753.0,0.2266
754.0,0.2271
755.0,0.2257
756.0,0.2258
757.0,0.2261
758.0,0.2231
759.0,0.2122
760.0,0.003761
761.0,0.001548
762.0,0.03815
763.0,0.007889
764.0,0.01887
765.0,0.03795
766.0,0.06818
767.0,0.1191
768.0,0.1739
769.0,0.1872
770.0,0.205
771.0,0.212
772.0,0.2141
773.0,0.2161
774.0,0.2154
775.0,0.214
776.0,0.2168
777.0,0.214
778.0,0.2126
779.0,0.2128
780.0,0.2118
781.0,0.2121
782.0,0.2135
783.0,0.2099
784.0,0.2111
785.0,0.2091
786.0,0.2111
787.0,0.2027
788.0,0.1981
789.0,0.1982
790.0,0.1873
791.0,0.1947
792.0,0.1942
793.0,0.1905
794.0,0.1995
795.0,0.2012
796.0,0.1867
797.0,0.1859
798.0,0.1999
799.0,0.1972
800.0,0.1919
801.0,0.1891
802.0,0.1882
803.0,0.1856
804.0,0.1869
805.0,0.1889
806.0,0.1986
807.0,0.1954
808.0,0.1957
809.0,0.1887
810.0,0.1854
811.0,0.1826
812.0,0.1702
813.0,0.1654
814.0,0.1324
815.0,0.133
816.0,0.1214
817.0,0.1239
818.0,0.1163
819.0,0.1408
820.0,0.1293
821.0,0.169
822.0,0.1612
823.0,0.08451
824.0,0.1493
825.0,0.1667
826.0,0.1539
827.0,0.1687
828.0,0.1254
829.0,0.1543
830.0,0.1514
831.0,0.1516
832.0,0.1438
833.0,0.1606
834.0,0.1503
835.0,0.1787
836.0,0.1609
837.0,0.179
838.0,0.1686
839.0,0.176
840.0,0.1811
841.0,0.1764
842.0,0.1801
843.0,0.1836
844.0,0.1792
845.0,0.1876
846.0,0.1875
847.0,0.185
848.0,0.1823
849.0,0.1771
850.0,0.1698
851.0,0.1782
852.0,0.1778
853.0,0.1724
854.0,0.1477
855.0,0.1639
856.0,0.1784
857.0,0.1835
858.0,0.1816
859.0,0.1825
860.0,0.1834
861.0,0.1822
862.0,0.1853
863.0,0.1897
864.0,0.1803
865.0,0.1789
866.0,0.1609
867.0,0.1679
868.0,0.1828
869.0,0.1791
870.0,0.1842
871.0,0.1817
872.0,0.1811
873.0,0.1808
874.0,0.1787
875.0,0.175
876.0,0.1767
877.0,0.1786
878.0,0.1803
879.0,0.1776
880.0,0.1738
881.0,0.1704
882.0,0.1738
883.0,0.1752
884.0,0.174
885.0,0.1753
886.0,0.1644
887.0,0.1683
888.0,0.1697
889.0,0.1737
890.0,0.1694
891.0,0.1706
892.0,0.1621
893.0,0.1539
894.0,0.1411
895.0,0.1246
896.0,0.1153
897.0,0.09014
898.0,0.1021
899.0,0.06825
900.0,0.1104
901.0,0.07159
902.0,0.09565
903.0,0.09207
904.0,0.1393
905.0,0.1319
906.0,0.1206
907.0,0.0824
908.0,0.08783
909.0,0.09993
910.0,0.07842
911.0,0.09272
912.0,0.09593
913.0,0.07906
914.0,0.08071
915.0,0.08591
916.0,0.0718
917.0,0.1009
918.0,0.07252
919.0,0.1065
920.0,0.1171
921.0,0.1203
922.0,0.1
923.0,0.1174
924.0,0.09937
925.0,0.0979
926.0,0.09714
927.0,0.1159
928.0,0.06393
929.0,0.05342
930.0,0.03377
931.0,0.03125
932.0,0.01625
933.0,0.0111
934.0,0.002839
935.0,0.01278
936.0,0.005461
937.0,0.005559
938.0,0.00759
939.0,0.03004
940.0,0.04172
941.0,0.02501
942.0,0.03165
943.0,0.01641
944.0,0.02194
945.0,0.02725
946.0,0.00844
947.0,0.02577
948.0,0.0185
949.0,0.0412
950.0,0.004752
951.0,0.04057
952.0,0.01505
953.0,0.02379
954.0,0.03453
955.0,0.02483
956.0,0.03203
957.0,0.01498
958.0,0.05022
959.0,0.03174
960.0,0.0358
961.0,0.04672
962.0,0.04422
963.0,0.05724
964.0,0.0508
965.0,0.05601
966.0,0.05626
967.0,0.05476
968.0,0.1017
969.0,0.1007
970.0,0.09081
971.0,0.1169
972.0,0.1083
973.0,0.08161
974.0,0.07718
975.0,0.0832
976.0,0.07169
977.0,0.098
978.0,0.08619
979.0,0.09334
980.0,0.08649
981.0,0.1164
982.0,0.1067
983.0,0.09995
984.0,0.1267
985.0,0.1056
986.0,0.1333
987.0,0.127
988.0,0.1273
989.0,0.136
990.0,0.1261
991.0,0.1358
992.0,0.1371
993.0,0.13
994.0,0.1377
995.0,0.1383
996.0,0.1369
997.0,0.1375
998.0,0.1365
999.0,0.1363
1000.0,0.1341
1001.0,0.1371
1002.0,0.128
1003.0,0.1344
1004.0,0.1297
1005.0,0.1269
1006.0,0.131
1007.0,0.1341
1008.0,0.1325
1009.0,0.1308
1010.0,0.1297
1011.0,0.1336
1012.0,0.1315
1013.0,0.1336
1014.0,0.1326
1015.0,0.1316
1016.0,0.1309
1017.0,0.131
1018.0,0.1312
1019.0,0.1263
1020.0,0.1302
1021.0,0.1304
1022.0,0.1286
1023.0,0.1299
1024.0,0.1261
1025.0,0.1305
1026.0,0.1293
1027.0,0.1292
1028.0,0.1288
1029.0,0.127
1030.0,0.1286
1031.0,0.1278
1032.0,0.1277
1033.0,0.1257
1034.0,0.1258
1035.0,0.1262
1036.0,0.1266
1037.0,0.1246
1038.0,0.1251
1039.0,0.1249
1040.0,0.1243
1041.0,0.1246
1042.0,0.1237
1043.0,0.1232
1044.0,0.1235
1045.0,0.1217
1046.0,0.1202
1047.0,0.1212
1048.0,0.1217
1049.0,0.121
1050.0,0.1203
1051.0,0.1199
1052.0,0.1192
1053.0,0.118
1054.0,0.118
1055.0,0.1177
1056.0,0.1169
1057.0,0.1163
1058.0,0.1131
1059.0,0.1129
1060.0,0.1126
1061.0,0.1122
1062.0,0.1125
1063.0,0.1111
1064.0,0.1125
1065.0,0.1109
1066.0,0.1093
1067.0,0.1106
1068.0,0.1076
1069.0,0.1048
1070.0,0.1079
1071.0,0.1113
1072.0,0.1087
1073.0,0.1074
1074.0,0.1122
1075.0,0.1024
1076.0,0.1118
1077.0,0.1075
1078.0,0.1041
1079.0,0.111
1080.0,0.1057
1081.0,0.1
1082.0,0.1055
1083.0,0.107
1084.0,0.09887
1085.0,0.1063
1086.0,0.09126
1087.0,0.0979
1088.0,0.1063
1089.0,0.09803
1090.0,0.09413
1091.0,0.1047
1092.0,0.1051
1093.0,0.07804
1094.0,0.0947
1095.0,0.0812
1096.0,0.07504
1097.0,0.1027
1098.0,0.07195
1099.0,0.07641
1100.0,0.06734
1101.0,0.06994
1102.0,0.06375
1103.0,0.06101
1104.0,0.06156
1105.0,0.07353
1106.0,0.04153
1107.0,0.06741
1108.0,0.04822
1109.0,0.04904
1110.0,0.06402
1111.0,0.03153
1112.0,0.04912
1113.0,0.02116
1114.0,0.02367
1115.0,0.01856
1116.0,0.01075
1117.0,0.001619
1118.0,0.01226
1119.0,0.003513
1120.0,0.003995
1121.0,0.006262
1122.0,0.001225
1123.0,0.003655
1124.0,0.003056
1125.0,0.004597
1126.0,0.0004626
1127.0,0.005297
1128.0,0.001632
1129.0,0.001814
1130.0,0.001152
1131.0,0.01641
1132.0,0.01137
1133.0,0.004163
1134.0,0.0003494
1135.0,0.0001699
1136.0,0.002672
1137.0,0.01492
1138.0,0.009555
1139.0,0.02362
1140.0,0.01594
1141.0,0.009239
1142.0,0.01202
1143.0,0.02164
1144.0,0.004051
1145.0,0.003908
1146.0,0.0042
1147.0,0.0004964
1148.0,0.01766
1149.0,0.01171
1150.0,0.005291
1151.0,0.009544
1152.0,0.01453
1153.0,0.01667
1154.0,0.004344
1155.0,0.02463
1156.0,0.02007
1157.0,0.02805
1158.0,0.02759
1159.0,0.03145
1160.0,0.02614
1161.0,0.03884
1162.0,0.03813
1163.0,0.06578
1164.0,0.05144
1165.0,0.04377
1166.0,0.04778
1167.0,0.05436
1168.0,0.05429
1169.0,0.05658
1170.0,0.06613
1171.0,0.06448
1172.0,0.06914
1173.0,0.06607
1174.0,0.03774
1175.0,0.06798
1176.0,0.08172
1177.0,0.07356
1178.0,0.0476
1179.0,0.08217
1180.0,0.06589
1181.0,0.06817
1182.0,0.0379
1183.0,0.06853
1184.0,0.06092
1185.0,0.05585
1186.0,0.07631
1187.0,0.06925
1188.0,0.03658
1189.0,0.06412
1190.0,0.07561
1191.0,0.06477
1192.0,0.07738
1193.0,0.07167
1194.0,0.07555
1195.0,0.06669
1196.0,0.06183
1197.0,0.07715
1198.0,0.06916
1199.0,0.04945
1200.0,0.07096
1201.0,0.06466
1202.0,0.06794
1203.0,0.06472
1204.0,0.05324
1205.0,0.07183
1206.0,0.08386
1207.0,0.06616
1208.0,0.06802
1209.0,0.06956
1210.0,0.07482
1211.0,0.0682
1212.0,0.06138
1213.0,0.07805
1214.0,0.06479
1215.0,0.06331
1216.0,0.07873
1217.0,0.07487
1218.0,0.07788
1219.0,0.0756
1220.0,0.07817
1221.0,0.08052
1222.0,0.07752
1223.0,0.07588
1224.0,0.07305
1225.0,0.07933
1226.0,0.08165
1227.0,0.06974
1228.0,0.08299
1229.0,0.08172
1230.0,0.07928
1231.0,0.08485
1232.0,0.08421
1233.0,0.07687
1234.0,0.08592
1235.0,0.08457
1236.0,0.08582
1237.0,0.08298
1238.0,0.08556
1239.0,0.08441
1240.0,0.085
1241.0,0.08328
1242.0,0.08427
1243.0,0.08367
1244.0,0.08383
1245.0,0.08444
1246.0,0.08401
1247.0,0.08329
1248.0,0.08255
1249.0,0.08342
1250.0,0.08249
1251.0,0.08057
1252.0,0.08168
1253.0,0.07906
1254.0,0.07686
1255.0,0.08109
1256.0,0.07525
1257.0,0.07412
1258.0,0.07832
1259.0,0.07014
1260.0,0.07115
1261.0,0.06094
1262.0,0.05605
1263.0,0.05601
1264.0,0.0453
1265.0,0.05575
1266.0,0.04975
1267.0,0.05332
1268.0,0.04637
1269.0,0.01163
1270.0,0.05205
1271.0,0.06167
1272.0,0.06236
1273.0,0.06101
1274.0,0.06218
1275.0,0.06415
1276.0,0.06605
1277.0,0.06825
1278.0,0.07196
1279.0,0.07142
1280.0,0.0705
1281.0,0.06851
1282.0,0.06803
1283.0,0.07284
1284.0,0.07425
1285.0,0.07511
1286.0,0.0772
1287.0,0.07399
1288.0,0.0747
1289.0,0.06834
1290.0,0.07416
1291.0,0.07595
1292.0,0.06456
1293.0,0.07297
1294.0,0.0722
1295.0,0.06924
1296.0,0.0623
1297.0,0.05635
1298.0,0.06655
1299.0,0.07358
1300.0,0.05282
1301.0,0.05571
1302.0,0.06675
1303.0,0.05277
1304.0,0.03728
1305.0,0.06484
1306.0,0.06353
1307.0,0.04077
1308.0,0.05419
1309.0,0.06125
1310.0,0.03901
1311.0,0.05
1312.0,0.04801
1313.0,0.04437
1314.0,0.03661
1315.0,0.03476
1316.0,0.04766
1317.0,0.0437
1318.0,0.0511
1319.0,0.03077
1320.0,0.03114
1321.0,0.03982
1322.0,0.03834
1323.0,0.02195
1324.0,0.03066
1325.0,0.04532
1326.0,0.03464
1327.0,0.03163
1328.0,0.02459
1329.0,0.01315
1330.0,0.02028
1331.0,0.007503
1332.0,0.008673
1333.0,0.01296
1334.0,0.01467
1335.0,0.02087
1336.0,0.01344
1337.0,0.01167
1338.0,0.01219
1339.0,0.01254
1340.0,0.01364
1341.0,0.009818
1342.0,0.01089
1343.0,0.003714
1344.0,0.002525
1345.0,0.003124
1346.0,0.0005415
1347.0,0.0004323
1348.0,6.951e-06
1349.0,2.922e-05
1350.0,3.335e-05
1351.0,4.165e-06
1352.0,9.608e-07
1353.0,4.87e-08
1354.0,1.683e-07
1355.0,1.347e-09
1356.0,2.359e-08
1357.0,3.584e-08
1358.0,1.581e-09
1359.0,1.991e-10
1360.0,7.197e-10
1361.0,8.051e-13
1362.0,2.202e-15
1363.0,9.677e-10
1364.0,3.995e-10
1365.0,7.689e-16
1366.0,4.194e-09
1367.0,1.712e-09
1368.0,5.937e-18
1369.0,1.472e-10
1370.0,7.25e-11
1371.0,4.11e-12
1372.0,9.285e-10
1373.0,1.871e-08
1374.0,8.685e-08
1375.0,1.574e-07
1376.0,1.423e-07
1377.0,6.49e-08
1378.0,6.327e-07
1379.0,2.718e-08
1380.0,3.876e-08
1381.0,1.01e-09
1382.0,8.137e-10
1383.0,1.216e-11
1384.0,1.595e-10
1385.0,7.628e-10
1386.0,7.174e-10
1387.0,8.678e-08
1388.0,1.709e-09
1389.0,2.936e-07
1390.0,2.517e-07
1391.0,1.675e-07
1392.0,1.087e-08
1393.0,5.776e-08
1394.0,2.96e-08
1395.0,2.169e-10
1396.0,1.048e-12
1397.0,2.268e-08
1398.0,6.702e-07
1399.0,4.244e-07
1400.0,4.482e-13
1401.0,1.859e-12
1402.0,1.398e-06
1403.0,1.584e-06
1404.0,4.642e-07
1405.0,1.027e-10
1406.0,1.164e-06
1407.0,1.161e-07
1408.0,9.506e-07
1409.0,3.131e-07
1410.0,2.568e-07
1411.0,1.389e-06
