interpolation:linear
wavelength,value
280.0,5.33e-21
280.5,1.639e-19
281.0,8.595e-19
281.5,5.137e-19
282.0,1.362e-18
282.5,3.515e-18
283.0,1.121e-17
283.5,1.825e-17
284.0,2.897e-16
284.5,8.281e-16
285.0,1.739e-15
285.5,8.774e-15
286.0,3.538e-14
286.5,1.574e-13
287.0,4.468e-13
287.5,1.691e-12
288.0,4.377e-12
288.5,1.509e-11
289.0,4.412e-11
289.5,1.433e-10
290.0,4.168e-10
290.5,8.789e-10
291.0,1.952e-09
291.5,5.814e-09
292.0,1.412e-08
292.5,2.181e-08
293.0,5.296e-08
293.5,1.534e-07
294.0,2.725e-07
294.5,3.56e-07
295.0,6.853e-07
295.5,1.869e-06
296.0,3.736e-06
296.5,5.425e-06
297.0,7.586e-06
297.5,2.141e-05
298.0,3.534e-05
298.5,3.692e-05
299.0,8.455e-05
299.5,0.0001503
300.0,0.0001724
300.5,0.0002614
301.0,0.0005131
301.5,0.0008926
302.0,0.0008052
302.5,0.001573
303.0,0.002822
303.5,0.00355
304.0,0.003331
304.5,0.004947
305.0,0.007443
305.5,0.008479
306.0,0.00819
306.5,0.01016
307.0,0.01494
307.5,0.01967
308.0,0.02075
308.5,0.02439
309.0,0.02391
309.5,0.02715
310.0,0.02718
310.5,0.04395
311.0,0.055
311.5,0.05303
312.0,0.05267
312.5,0.06379
313.0,0.06902
313.5,0.0672
314.0,0.08353
314.5,0.07349
315.0,0.09645
315.5,0.08101
316.0,0.0703
316.5,0.1004
317.0,0.1246
317.5,0.1299
318.0,0.101
318.5,0.1244
319.0,0.147
319.5,0.1207
320.0,0.146
320.5,0.1812
321.0,0.1601
321.5,0.1534
322.0,0.1649
322.5,0.1434
323.0,0.1421
323.5,0.1737
324.0,0.2026
324.5,0.2062
325.0,0.1786
325.5,0.2287
326.0,0.2794
326.5,0.2789
327.0,0.2784
327.5,0.2693
328.0,0.2408
328.5,0.2518
329.0,0.3003
329.5,0.3405
330.0,0.3439
330.5,0.2762
331.0,0.2817
331.5,0.2857
332.0,0.3076
332.5,0.3038
333.0,0.3032
333.5,0.2752
334.0,0.2821
334.5,0.3246
335.0,0.3045
335.5,0.3557
336.0,0.2462
336.5,0.2886
337.0,0.2371
337.5,0.2951
338.0,0.2874
338.5,0.3318
339.0,0.3284
339.5,0.316
340.0,0.3714
340.5,0.3348
341.0,0.3265
341.5,0.2998
342.0,0.3584
342.5,0.3353
343.0,0.3689
343.5,0.3474
344.0,0.2568
344.5,0.2594
345.0,0.3433
345.5,0.3506
346.0,0.298
346.5,0.3375
347.0,0.3624
347.5,0.293
348.0,0.3341
348.5,0.334
349.0,0.3099
349.5,0.3069
350.0,0.3797
350.5,0.4006
351.0,0.3579
351.5,0.3479
352.0,0.3737
352.5,0.2917
353.0,0.3675
353.5,0.393
354.0,0.4081
354.5,0.4139
355.0,0.4126
355.5,0.3728
356.0,0.3901
356.5,0.3332
357.0,0.2753
357.5,0.3371
358.0,0.2672
358.5,0.2284
359.0,0.3195
359.5,0.4072
360.0,0.4317
360.5,0.3451
361.0,0.3147
361.5,0.3624
362.0,0.3135
362.5,0.434
363.0,0.3899
363.5,0.3592
364.0,0.4395
364.5,0.3757
365.0,0.3827
365.5,0.4804
366.0,0.5091
366.5,0.4785
367.0,0.4661
367.5,0.4838
368.0,0.4234
368.5,0.4274
369.0,0.4616
369.5,0.4921
370.0,0.5247
370.5,0.4074
371.0,0.4354
371.5,0.5448
372.0,0.3616
372.5,0.4337
373.0,0.4413
373.5,0.2872
374.0,0.4174
374.5,0.3457
375.0,0.3361
375.5,0.5019
376.0,0.4162
376.5,0.4313
377.0,0.4568
377.5,0.5345
378.0,0.5795
378.5,0.5478
379.0,0.4522
379.5,0.4131
380.0,0.4296
380.5,0.5204
381.0,0.5216
381.5,0.4136
382.0,0.3674
382.5,0.3133
383.0,0.2901
383.5,0.2795
384.0,0.3084
384.5,0.4537
385.0,0.45
385.5,0.4192
386.0,0.3591
386.5,0.4718
387.0,0.3921
387.5,0.4405
388.0,0.4068
388.5,0.4022
389.0,0.4342
389.5,0.526
390.0,0.528
390.5,0.4861
391.0,0.5722
391.5,0.5838
392.0,0.4918
392.5,0.4404
393.0,0.2451
393.5,0.1782
394.0,0.3627
394.5,0.4612
395.0,0.5629
395.5,0.5719
396.0,0.4959
396.5,0.29
397.0,0.2177
397.5,0.4427
398.0,0.6201
398.5,0.641
399.0,0.6943
399.5,0.6922
400.0,0.7188
401.0,0.7291
402.0,0.7695
403.0,0.7313
404.0,0.7202
405.0,0.7203
406.0,0.7089
407.0,0.6977
408.0,0.7251
409.0,0.7763
410.0,0.6785
411.0,0.7351
412.0,0.7898
413.0,0.7704
414.0,0.7801
415.0,0.7824
416.0,0.7963
417.0,0.7769
418.0,0.7627
419.0,0.7729
420.0,0.7697
421.0,0.8054
422.0,0.7657
423.0,0.7481
424.0,0.7914
425.0,0.7901
426.0,0.7698
427.0,0.7556
428.0,0.7362
429.0,0.6975
430.0,0.6105
431.0,0.6052
432.0,0.7816
433.0,0.786
434.0,0.73
435.0,0.7625
436.0,0.8593
437.0,0.8479
438.0,0.7723
439.0,0.7988
440.0,0.8243
441.0,0.8543
442.0,0.9164
443.0,0.8926
444.0,0.9121
445.0,0.8925
446.0,0.8519
447.0,0.9211
448.0,0.9355
449.0,0.9394
450.0,0.9658
451.0,1.002
452.0,0.9652
453.0,0.9079
454.0,0.948
455.0,0.9539
456.0,0.9766
457.0,0.9929
458.0,0.9591
459.0,0.9542
460.0,0.9568
461.0,0.9789
462.0,0.9865
463.0,0.9798
464.0,0.9637
465.0,0.9517
466.0,0.961
467.0,0.9434
468.0,0.9546
469.0,0.9596
470.0,0.929
471.0,0.9279
472.0,0.9777
473.0,0.9651
474.0,0.9665
475.0,0.9747
476.0,0.9456
477.0,0.9482
478.0,0.9745
479.0,0.9687
480.0,0.9706
481.0,0.9887
482.0,0.994
483.0,0.982
484.0,0.962
485.0,0.9166
486.0,0.8013
487.0,0.8398
488.0,0.9214
489.0,0.9242
490.0,0.9724
491.0,0.9557
492.0,0.9025
493.0,0.9321
494.0,0.9414
495.0,0.9495
496.0,0.9553
497.0,0.9702
498.0,0.9248
499.0,0.9366
500.0,0.9093
501.0,0.8926
502.0,0.88
503.0,0.9158
504.0,0.8923
505.0,0.9245
506.0,0.9543
507.0,0.9081
508.0,0.8799
509.0,0.9046
510.0,0.8999
511.0,0.924
512.0,0.9341
513.0,0.8841
514.0,0.8781
515.0,0.8694
516.0,0.8672
517.0,0.7706
518.0,0.8102
519.0,0.8498
520.0,0.8807
521.0,0.889
522.0,0.8898
523.0,0.8738
524.0,0.905
525.0,0.9156
526.0,0.8747
527.0,0.8242
528.0,0.8716
529.0,0.9187
530.0,0.9055
531.0,0.9189
532.0,0.8874
533.0,0.8614
534.0,0.8869
535.0,0.9062
536.0,0.9146
537.0,0.8785
538.0,0.8941
539.0,0.8865
540.0,0.85
541.0,0.8555
542.0,0.8823
543.0,0.8731
544.0,0.8882
545.0,0.8854
546.0,0.8893
547.0,0.8889
548.0,0.8783
549.0,0.881
550.0,0.8915
551.0,0.8807
552.0,0.8868
553.0,0.8709
554.0,0.8917
555.0,0.8935
556.0,0.8819
557.0,0.8544
558.0,0.848
559.0,0.8321
560.0,0.8425
561.0,0.8534
562.0,0.8471
563.0,0.8702
564.0,0.8465
565.0,0.8392
566.0,0.8268
567.0,0.8424
568.0,0.8348
569.0,0.8146
570.0,0.8145
571.0,0.8096
572.0,0.8289
573.0,0.8377
574.0,0.835
575.0,0.8193
576.0,0.8119
577.0,0.8207
578.0,0.8085
579.0,0.8118
580.0,0.8275
581.0,0.8319
582.0,0.8478
583.0,0.85
584.0,0.8574
585.0,0.8365
586.0,0.8193
587.0,0.8372
588.0,0.8165
589.0,0.7227
590.0,0.7558
591.0,0.8002
592.0,0.7899
593.0,0.8019
594.0,0.7962
595.0,0.7763
596.0,0.8074
597.0,0.7986
598.0,0.7967
599.0,0.7975
600.0,0.7988
601.0,0.7924
602.0,0.787
603.0,0.8001
604.0,0.8133
605.0,0.8092
606.0,0.8059
607.0,0.814
608.0,0.805
609.0,0.8065
610.0,0.8008
611.0,0.805
612.0,0.8027
613.0,0.7926
614.0,0.7818
615.0,0.7989
616.0,0.7726
617.0,0.7711
618.0,0.8008
619.0,0.7927
620.0,0.7977
621.0,0.7984
622.0,0.789
623.0,0.777
624.0,0.7637
625.0,0.762
626.0,0.7733
627.0,0.7818
628.0,0.7285
629.0,0.7627
630.0,0.7451
631.0,0.7625
632.0,0.7534
633.0,0.7766
634.0,0.7692
635.0,0.7813
636.0,0.771
637.0,0.7838
638.0,0.7914
639.0,0.7826
640.0,0.7751
641.0,0.7747
642.0,0.7712
643.0,0.7816
644.0,0.7791
645.0,0.7804
646.0,0.762
647.0,0.7525
648.0,0.7531
649.0,0.7385
650.0,0.7427
651.0,0.775
652.0,0.7421
653.0,0.7647
654.0,0.7563
655.0,0.7278
656.0,0.6452
657.0,0.6626
658.0,0.7428
659.0,0.7482
660.0,0.7514
661.0,0.7566
662.0,0.7581
663.0,0.7431
664.0,0.7521
665.0,0.7528
666.0,0.7535
667.0,0.7528
668.0,0.7532
669.0,0.7649
670.0,0.7616
671.0,0.7615
672.0,0.755
673.0,0.7664
674.0,0.7636
675.0,0.7567
676.0,0.7619
677.0,0.7543
678.0,0.7565
679.0,0.7443
680.0,0.7503
681.0,0.7453
682.0,0.7444
683.0,0.743
684.0,0.7393
685.0,0.7456
686.0,0.7411
687.0,0.4848
688.0,0.5716
689.0,0.5738
690.0,0.603
691.0,0.6359
692.0,0.6602
693.0,0.6547
694.0,0.6492
695.0,0.677
696.0,0.678
697.0,0.7206
698.0,0.7094
699.0,0.6917
700.0,0.6833
701.0,0.6761
702.0,0.681
703.0,0.6823
704.0,0.7046
705.0,0.7057
706.0,0.7052
707.0,0.7058
708.0,0.7073
709.0,0.7086
710.0,0.7084
711.0,0.7076
712.0,0.7056
713.0,0.6984
714.0,0.701
715.0,0.6786
716.0,0.6789
717.0,0.5862
718.0,0.538
719.0,0.4926
720.0,0.5157
721.0,0.571
722.0,0.655
723.0,0.6088
724.0,0.5475
725.0,0.5383
726.0,0.5637
727.0,0.5724
728.0,0.5368
729.0,0.5579
730.0,0.5903
731.0,0.5645
732.0,0.6048
733.0,0.6412
734.0,0.6567
735.0,0.643
736.0,0.6421
737.0,0.6447
738.0,0.6553
739.0,0.6424
740.0,0.6593
741.0,0.6529
742.0,0.6536
743.0,0.6703
744.0,0.6685
745.0,0.6687
746.0,0.6717
747.0,0.6732
748.0,0.6718
749.0,0.6641
750.0,0.6637
751.0,0.657
752.0,0.6599
753.0,0.6632
754.0,0.6647
755.0,0.6609
756.0,0.6606
757.0,0.6616
758.0,0.6534
759.0,0.6397
760.0,0.0988
761.0,0.05038
762.0,0.3183
763.0,0.1539
764.0,0.2358
765.0,0.3183
766.0,0.3951
767.0,0.503
768.0,0.5842
769.0,0.5973
770.0,0.6186
771.0,0.624
772.0,0.6254
773.0,0.6298
774.0,0.6268
775.0,0.6221
776.0,0.6297
777.0,0.6214
778.0,0.6176
779.0,0.6181
780.0,0.6147
781.0,0.6153
782.0,0.6191
783.0,0.6084
784.0,0.6113
785.0,0.6068
786.0,0.6134
787.0,0.6023
788.0,0.5947
789.0,0.5944
790.0,0.5781
791.0,0.5836
792.0,0.5793
793.0,0.5699
794.0,0.5802
795.0,0.5899
796.0,0.571
797.0,0.5717
798.0,0.5891
799.0,0.5852
800.0,0.5748
801.0,0.5729
802.0,0.5713
803.0,0.5668
804.0,0.5677
805.0,0.5661
806.0,0.5823
807.0,0.5752
808.0,0.5758
809.0,0.5647
810.0,0.5599
811.0,0.5602
812.0,0.5437
813.0,0.5321
814.0,0.4666
815.0,0.4638
816.0,0.4314
817.0,0.4395
818.0,0.4227
819.0,0.474
820.0,0.4458
821.0,0.5231
822.0,0.5078
823.0,0.3422
824.0,0.4923
825.0,0.514
826.0,0.4939
827.0,0.5218
828.0,0.4405
829.0,0.491
830.0,0.4844
831.0,0.4861
832.0,0.4708
833.0,0.5019
834.0,0.4835
835.0,0.5326
836.0,0.5089
837.0,0.5341
838.0,0.517
839.0,0.5262
840.0,0.5378
841.0,0.53
842.0,0.5314
843.0,0.5315
844.0,0.5239
845.0,0.5418
846.0,0.5395
847.0,0.5296
848.0,0.5261
849.0,0.5112
850.0,0.4898
851.0,0.5184
852.0,0.5148
853.0,0.4957
854.0,0.4279
855.0,0.4702
856.0,0.5138
857.0,0.5254
858.0,0.5215
859.0,0.522
860.0,0.523
861.0,0.5201
862.0,0.5283
863.0,0.5408
864.0,0.5138
865.0,0.5093
866.0,0.4579
867.0,0.4779
868.0,0.52
869.0,0.5093
870.0,0.5238
871.0,0.5166
872.0,0.5148
873.0,0.5138
874.0,0.5077
875.0,0.4974
876.0,0.5026
877.0,0.5076
878.0,0.5131
879.0,0.5052
880.0,0.4944
881.0,0.4869
882.0,0.4974
883.0,0.4991
884.0,0.4967
885.0,0.5005
886.0,0.4767
887.0,0.482
888.0,0.4889
889.0,0.4948
890.0,0.4903
891.0,0.4896
892.0,0.475
893.0,0.4596
894.0,0.4423
895.0,0.4166
896.0,0.3919
897.0,0.3349
898.0,0.3664
899.0,0.2766
900.0,0.3763
901.0,0.2899
902.0,0.3431
903.0,0.3456
904.0,0.439
905.0,0.4233
906.0,0.3957
907.0,0.3187
908.0,0.3255
909.0,0.3538
910.0,0.3106
911.0,0.3326
912.0,0.3481
913.0,0.3151
914.0,0.3129
915.0,0.3392
916.0,0.2865
917.0,0.3662
918.0,0.2937
919.0,0.3735
920.0,0.3787
921.0,0.3941
922.0,0.3505
923.0,0.3808
924.0,0.359
925.0,0.3512
926.0,0.3549
927.0,0.3991
928.0,0.2877
929.0,0.2612
930.0,0.2029
931.0,0.1926
932.0,0.1362
933.0,0.1094
934.0,0.05733
935.0,0.113
936.0,0.06887
937.0,0.06962
938.0,0.08629
939.0,0.1865
940.0,0.2262
941.0,0.1683
942.0,0.1964
943.0,0.1272
944.0,0.1358
945.0,0.174
946.0,0.08599
947.0,0.1741
948.0,0.1276
949.0,0.2356
950.0,0.06158
951.0,0.2325
952.0,0.1215
953.0,0.1592
954.0,0.1977
955.0,0.1613
956.0,0.1582
957.0,0.1214
958.0,0.2275
959.0,0.1779
960.0,0.1994
961.0,0.2261
962.0,0.2136
963.0,0.2482
964.0,0.2268
965.0,0.2475
966.0,0.247
967.0,0.2458
968.0,0.3366
969.0,0.3509
970.0,0.3214
971.0,0.371
972.0,0.3543
973.0,0.3053
974.0,0.2893
975.0,0.3016
976.0,0.2847
977.0,0.3273
978.0,0.3095
979.0,0.3252
980.0,0.3051
981.0,0.3689
982.0,0.3516
983.0,0.3369
984.0,0.3815
985.0,0.3503
986.0,0.389
987.0,0.3804
988.0,0.3798
989.0,0.3883
990.0,0.3775
991.0,0.3893
992.0,0.3917
993.0,0.3821
994.0,0.3917
995.0,0.3913
996.0,0.3894
997.0,0.3901
998.0,0.3882
999.0,0.3868
1000.0,0.3839
1001.0,0.3889
1002.0,0.3773
1003.0,0.382
1004.0,0.3724
1005.0,0.3591
1006.0,0.3729
1007.0,0.3809
1008.0,0.3787
1009.0,0.3765
1010.0,0.3748
1011.0,0.379
1012.0,0.3756
1013.0,0.3781
1014.0,0.3755
1015.0,0.373
1016.0,0.3713
1017.0,0.3722
1018.0,0.3709
1019.0,0.3627
1020.0,0.3689
1021.0,0.3685
1022.0,0.3655
1023.0,0.3693
1024.0,0.3642
1025.0,0.3692
1026.0,0.3675
1027.0,0.3667
1028.0,0.3659
1029.0,0.3615
1030.0,0.3641
1031.0,0.3626
1032.0,0.3616
1033.0,0.3562
1034.0,0.3562
1035.0,0.3573
1036.0,0.3591
1037.0,0.3533
1038.0,0.3548
1039.0,0.3546
1040.0,0.3532
1041.0,0.3545
1042.0,0.3521
1043.0,0.3509
1044.0,0.3521
1045.0,0.3473
1046.0,0.3435
1047.0,0.3466
1048.0,0.3484
1049.0,0.3471
1050.0,0.3455
1051.0,0.345
1052.0,0.3436
1053.0,0.3408
1054.0,0.3415
1055.0,0.3416
1056.0,0.3404
1057.0,0.3393
1058.0,0.3309
1059.0,0.3312
1060.0,0.3306
1061.0,0.3302
1062.0,0.3319
1063.0,0.3286
1064.0,0.3325
1065.0,0.3299
1066.0,0.3235
1067.0,0.3277
1068.0,0.3204
1069.0,0.3106
1070.0,0.321
1071.0,0.3264
1072.0,0.3223
1073.0,0.3177
1074.0,0.3263
1075.0,0.309
1076.0,0.326
1077.0,0.3196
1078.0,0.3134
1079.0,0.3209
1080.0,0.3147
1081.0,0.3042
1082.0,0.3099
1083.0,0.311
1084.0,0.3032
1085.0,0.3155
1086.0,0.2865
1087.0,0.2967
1088.0,0.3105
1089.0,0.3001
1090.0,0.2929
1091.0,0.3093
1092.0,0.3087
1093.0,0.2591
1094.0,0.2821
1095.0,0.2703
1096.0,0.258
1097.0,0.3015
1098.0,0.2537
1099.0,0.265
1100.0,0.2453
1101.0,0.2487
1102.0,0.2368
1103.0,0.234
1104.0,0.2344
1105.0,0.2587
1106.0,0.1936
1107.0,0.2449
1108.0,0.205
1109.0,0.2059
1110.0,0.2424
1111.0,0.161
1112.0,0.2045
1113.0,0.1266
1114.0,0.1419
1115.0,0.1175
1116.0,0.09166
1117.0,0.03144
1118.0,0.1004
1119.0,0.04799
1120.0,0.06025
1121.0,0.08109
1122.0,0.03253
1123.0,0.05453
1124.0,0.046
1125.0,0.06047
1126.0,0.01948
1127.0,0.06836
1128.0,0.03917
1129.0,0.0418
1130.0,0.02689
1131.0,0.1339
1132.0,0.1042
1133.0,0.06375
1134.0,0.01505
1135.0,0.005712
1136.0,0.05237
1137.0,0.1307
1138.0,0.09165
1139.0,0.1412
1140.0,0.1162
1141.0,0.08713
1142.0,0.1011
1143.0,0.1455
1144.0,0.04867
1145.0,0.06154
1146.0,0.06634
1147.0,0.02172
1148.0,0.1258
1149.0,0.09912
1150.0,0.05259
1151.0,0.09092
1152.0,0.1135
1153.0,0.1118
1154.0,0.05944
1155.0,0.1472
1156.0,0.1317
1157.0,0.1492
1158.0,0.1476
1159.0,0.1603
1160.0,0.1358
1161.0,0.1697
1162.0,0.1703
1163.0,0.2338
1164.0,0.1992
1165.0,0.1866
1166.0,0.1863
1167.0,0.2035
1168.0,0.2055
1169.0,0.2108
1170.0,0.2301
1171.0,0.2243
1172.0,0.229
1173.0,0.2297
1174.0,0.1616
1175.0,0.2248
1176.0,0.2484
1177.0,0.2376
1178.0,0.1767
1179.0,0.2504
1180.0,0.2222
1181.0,0.2294
1182.0,0.1564
1183.0,0.2262
1184.0,0.2113
1185.0,0.2034
1186.0,0.2429
1187.0,0.2309
1188.0,0.1588
1189.0,0.215
1190.0,0.2375
1191.0,0.2245
1192.0,0.2409
1193.0,0.2305
1194.0,0.2378
1195.0,0.2243
1196.0,0.2156
1197.0,0.2383
1198.0,0.2176
1199.0,0.1836
1200.0,0.2276
1201.0,0.219
1202.0,0.2181
1203.0,0.2161
1204.0,0.1883
1205.0,0.2236
1206.0,0.2477
1207.0,0.2173
1208.0,0.2143
1209.0,0.2189
1210.0,0.2283
1211.0,0.2169
1212.0,0.2137
1213.0,0.2392
1214.0,0.2191
1215.0,0.2148
1216.0,0.2385
1217.0,0.2319
1218.0,0.2365
1219.0,0.2335
1220.0,0.2368
1221.0,0.2393
1222.0,0.233
1223.0,0.2307
1224.0,0.229
1225.0,0.2378
1226.0,0.2395
1227.0,0.2203
1228.0,0.2409
1229.0,0.2395
1230.0,0.2353
1231.0,0.2424
1232.0,0.241
1233.0,0.2322
1234.0,0.2423
1235.0,0.2407
1236.0,0.2425
1237.0,0.2389
1238.0,0.2417
1239.0,0.2386
1240.0,0.2396
1241.0,0.2383
1242.0,0.2379
1243.0,0.236
1244.0,0.2376
1245.0,0.2386
1246.0,0.2373
1247.0,0.2363
1248.0,0.2361
1249.0,0.2369
1250.0,0.2354
1251.0,0.2323
1252.0,0.2324
1253.0,0.2304
1254.0,0.2279
1255.0,0.2321
1256.0,0.2253
1257.0,0.224
1258.0,0.2284
1259.0,0.2196
1260.0,0.2209
1261.0,0.2078
1262.0,0.2012
1263.0,0.2016
1264.0,0.1852
1265.0,0.2003
1266.0,0.1922
1267.0,0.196
1268.0,0.1853
1269.0,0.1115
1270.0,0.1951
1271.0,0.2072
1272.0,0.2079
1273.0,0.2056
1274.0,0.2064
1275.0,0.2095
1276.0,0.2117
1277.0,0.2133
1278.0,0.2176
1279.0,0.2156
1280.0,0.2129
1281.0,0.2033
1282.0,0.1961
1283.0,0.2111
1284.0,0.2162
1285.0,0.2176
1286.0,0.2207
1287.0,0.2171
1288.0,0.2171
1289.0,0.2098
1290.0,0.2152
1291.0,0.2183
1292.0,0.2043
1293.0,0.2138
1294.0,0.2123
1295.0,0.211
1296.0,0.201
1297.0,0.1897
1298.0,0.205
1299.0,0.2142
1300.0,0.1799
1301.0,0.1857
1302.0,0.2044
1303.0,0.1777
1304.0,0.1503
1305.0,0.2001
1306.0,0.2
1307.0,0.154
1308.0,0.1782
1309.0,0.1983
1310.0,0.151
1311.0,0.1706
1312.0,0.1657
1313.0,0.1623
1314.0,0.1448
1315.0,0.1426
1316.0,0.1676
1317.0,0.1586
1318.0,0.173
1319.0,0.1335
1320.0,0.1298
1321.0,0.1517
1322.0,0.1529
1323.0,0.1137
1324.0,0.131
1325.0,0.1651
1326.0,0.1408
1327.0,0.1341
1328.0,0.1151
1329.0,0.08517
1330.0,0.1115
1331.0,0.06574
1332.0,0.06842
1333.0,0.0956
1334.0,0.08179
1335.0,0.1132
1336.0,0.08868
1337.0,0.07799
1338.0,0.08439
1339.0,0.08425
1340.0,0.0824
1341.0,0.07941
1342.0,0.08351
1343.0,0.05448
1344.0,0.03277
1345.0,0.04733
1346.0,0.02223
1347.0,0.02237
1348.0,0.00128
1349.0,0.004765
1350.0,0.005076
1351.0,0.001101
1352.0,0.0002621
1353.0,1.178e-05
1354.0,4.426e-05
1355.0,2.729e-07
1356.0,5.71e-06
1357.0,8.724e-06
1358.0,3.268e-07
1359.0,3.359e-08
1360.0,1.391e-07
1361.0,1.013e-10
1362.0,2.326e-13
1363.0,1.761e-07
1364.0,7.255e-08
1365.0,6.446e-14
1366.0,8.129e-07
1367.0,3.472e-07
1368.0,3.152e-16
1369.0,2.687e-08
1370.0,1.217e-08
1371.0,6.238e-10
1372.0,1.915e-07
1373.0,4.436e-06
1374.0,2.268e-05
1375.0,4.092e-05
1376.0,4.005e-05
1377.0,1.798e-05
1378.0,0.0001831
1379.0,7.541e-06
1380.0,1.023e-05
1381.0,2.536e-07
1382.0,1.685e-07
1383.0,2.349e-09
1384.0,2.934e-08
1385.0,1.76e-07
1386.0,1.412e-07
1387.0,2.214e-05
1388.0,4.398e-07
1389.0,8.377e-05
1390.0,7.186e-05
1391.0,4.708e-05
1392.0,2.978e-06
1393.0,1.663e-05
1394.0,7.349e-06
1395.0,4.871e-08
1396.0,1.549e-10
1397.0,6.381e-06
1398.0,0.0002034
1399.0,0.0001295
1400.0,5.966e-11
1401.0,2.906e-10
1402.0,0.0004137
1403.0,0.0005065
1404.0,0.0001525
1405.0,2.202e-08
1406.0,0.0003794
1407.0,3.479e-05
1408.0,0.0003129
1409.0,9.706e-05
1410.0,8.216e-05
1411.0,0.0004478
1412.0,0.0006278
1413.0,0.007255
1414.0,6.552e-05
1415.0,3.031e-05
1416.0,0.0129
1417.0,0.003581
1418.0,0.00401
1419.0,0.0006092
1420.0,0.002443
1421.0,0.002656
1422.0,0.01691
1423.0,0.003194
1424.0,0.006081
1425.0,0.008784
1426.0,0.01037
1427.0,0.01997
1428.0,0.001188
1429.0,0.01447
1430.0,0.02586
1431.0,0.02872
1432.0,0.0009293
1433.0,0.01785
1434.0,0.00887
1435.0,0.008165
1436.0,0.01684
1437.0,0.01293
1438.0,0.005162
