interpolation:linear
wavelength,value
280.0,4.0109999999999995e-22
280.5,6.828e-21
281.0,2.9920000000000004e-20
281.5,5.953e-19
282.0,3.706e-18
282.5,1.211e-17
283.0,4.537e-17
283.5,7.832e-17
284.0,1.471e-15
284.5,4.413e-15
285.0,1.291e-14
285.5,8.802e-14
286.0,3.885e-13
286.5,2.013e-12
287.0,6.257e-12
287.5,2.609e-11
288.0,9.127e-11
288.5,3.478e-10
289.0,1.119e-09
289.5,4.004e-09
290.0,1.258e-08
290.5,2.827e-08
291.0,6.767e-08
291.5,2.214e-07
292.0,5.121e-07
292.5,7.56e-07
293.0,1.724e-06
293.5,4.548e-06
294.0,7.568e-06
294.5,1.485e-05
295.0,2.677e-05
295.5,5.726e-05
296.0,0.0001027
296.5,0.0001336
297.0,0.0001704
297.5,0.0004184
298.0,0.0006116
298.5,0.0005806
299.0,0.00121
299.5,0.001818
300.0,0.001893
300.5,0.00259
301.0,0.004275
301.5,0.00627
302.0,0.005142
302.5,0.00944
303.0,0.01566
303.5,0.01876
304.0,0.01706
304.5,0.02338
305.0,0.03155
305.5,0.03362
306.0,0.03165
306.5,0.03765
307.0,0.0506
307.5,0.06131
308.0,0.06379
308.5,0.07202
309.0,0.06827
309.5,0.07329
310.0,0.07145
310.5,0.114
311.0,0.1396
311.5,0.1332
312.0,0.1262
312.5,0.1481
313.0,0.1576
313.5,0.1557
314.0,0.1864
314.5,0.1561
315.0,0.203
315.5,0.1745
316.0,0.1454
316.5,0.2006
317.0,0.2492
317.5,0.2622
318.0,0.199
318.5,0.2345
319.0,0.2711
319.5,0.2303
320.0,0.2799
320.5,0.3323
321.0,0.2822
321.5,0.2692
322.0,0.3017
322.5,0.2616
323.0,0.252
323.5,0.2999
324.0,0.3481
324.5,0.3581
325.0,0.315
325.5,0.3943
326.0,0.4776
326.5,0.4698
327.0,0.4711
327.5,0.4586
328.0,0.418
328.5,0.4268
329.0,0.4996
329.5,0.5631
330.0,0.5709
330.5,0.4647
331.0,0.4761
331.5,0.4775
332.0,0.5063
332.5,0.4965
333.0,0.4973
333.5,0.4561
334.0,0.4682
334.5,0.5318
335.0,0.4952
335.5,0.5781
336.0,0.3999
336.5,0.4702
337.0,0.3881
337.5,0.4837
338.0,0.4663
338.5,0.5378
339.0,0.532
339.5,0.5115
340.0,0.6012
340.5,0.5411
341.0,0.5278
341.5,0.4843
342.0,0.5786
342.5,0.5411
343.0,0.595
343.5,0.5603
344.0,0.4137
344.5,0.418
345.0,0.5527
345.5,0.5639
346.0,0.479
346.5,0.5422
347.0,0.582
347.5,0.4704
348.0,0.536
348.5,0.5356
349.0,0.4966
349.5,0.4915
350.0,0.6077
350.5,0.6408
351.0,0.5724
351.5,0.5564
352.0,0.5973
352.5,0.4659
353.0,0.5865
353.5,0.6269
354.0,0.6506
354.5,0.6598
355.0,0.6575
355.5,0.5937
356.0,0.621
356.5,0.5301
357.0,0.438
357.5,0.5361
358.0,0.4248
358.5,0.363
359.0,0.5076
359.5,0.647
360.0,0.6857
360.5,0.5479
361.0,0.4993
361.5,0.5746
362.0,0.4966
362.5,0.6869
363.0,0.6167
363.5,0.5678
364.0,0.6942
364.5,0.5932
365.0,0.6041
365.5,0.758
366.0,0.8028
366.5,0.754
367.0,0.7341
367.5,0.7617
368.0,0.6665
368.5,0.6723
369.0,0.7259
369.5,0.7736
370.0,0.8244
370.5,0.6397
371.0,0.6834
371.5,0.8549
372.0,0.5673
372.5,0.6801
373.0,0.6916
373.5,0.4499
374.0,0.6536
374.5,0.5411
375.0,0.526
375.5,0.7852
376.0,0.6508
376.5,0.6744
377.0,0.7139
377.5,0.835
378.0,0.9051
378.5,0.8555
379.0,0.706
379.5,0.6449
380.0,0.6704
380.5,0.8118
381.0,0.8133
381.5,0.6445
382.0,0.5722
382.5,0.4876
383.0,0.4513
383.5,0.4346
384.0,0.4793
384.5,0.7049
385.0,0.6989
385.5,0.6507
386.0,0.5572
386.5,0.7318
387.0,0.608
387.5,0.6829
388.0,0.6304
388.5,0.623
389.0,0.6725
389.5,0.8144
390.0,0.8172
390.5,0.7519
391.0,0.8849
391.5,0.9025
392.0,0.7601
392.5,0.6804
393.0,0.3785
393.5,0.2751
394.0,0.5597
394.5,0.7115
395.0,0.8681
395.5,0.8818
396.0,0.7644
396.5,0.4467
397.0,0.3352
397.5,0.6816
398.0,0.9546
398.5,0.9866
399.0,1.068
399.5,1.064
400.0,1.105
401.0,1.124
402.0,1.186
403.0,1.126
404.0,1.108
405.0,1.108
406.0,1.089
407.0,1.071
408.0,1.113
409.0,1.191
410.0,1.04
411.0,1.126
412.0,1.209
413.0,1.179
414.0,1.193
415.0,1.196
416.0,1.216
417.0,1.186
418.0,1.164
419.0,1.179
420.0,1.173
421.0,1.227
422.0,1.166
423.0,1.139
424.0,1.204
425.0,1.202
426.0,1.17
427.0,1.148
428.0,1.118
429.0,1.058
430.0,0.9257
431.0,0.9177
432.0,1.184
433.0,1.19
434.0,1.105
435.0,1.154
436.0,1.3
437.0,1.282
438.0,1.167
439.0,1.207
440.0,1.245
441.0,1.29
442.0,1.383
443.0,1.347
444.0,1.376
445.0,1.346
446.0,1.284
447.0,1.387
448.0,1.409
449.0,1.414
450.0,1.453
451.0,1.506
452.0,1.451
453.0,1.364
454.0,1.423
455.0,1.432
456.0,1.466
457.0,1.49
458.0,1.44
459.0,1.432
460.0,1.436
461.0,1.469
462.0,1.479
463.0,1.469
464.0,1.444
465.0,1.425
466.0,1.438
467.0,1.412
468.0,1.428
469.0,1.436
470.0,1.39
471.0,1.388
472.0,1.463
473.0,1.444
474.0,1.447
475.0,1.46
476.0,1.417
477.0,1.422
478.0,1.461
479.0,1.451
480.0,1.453
481.0,1.479
482.0,1.486
483.0,1.467
484.0,1.436
485.0,1.368
486.0,1.195
487.0,1.252
488.0,1.374
489.0,1.378
490.0,1.449
491.0,1.424
492.0,1.345
493.0,1.388
494.0,1.402
495.0,1.414
496.0,1.423
497.0,1.445
498.0,1.377
499.0,1.395
500.0,1.355
501.0,1.331
502.0,1.313
503.0,1.368
504.0,1.337
505.0,1.382
506.0,1.426
507.0,1.357
508.0,1.314
509.0,1.349
510.0,1.342
511.0,1.377
512.0,1.391
513.0,1.317
514.0,1.307
515.0,1.294
516.0,1.291
517.0,1.147
518.0,1.206
519.0,1.265
520.0,1.311
521.0,1.324
522.0,1.325
523.0,1.302
524.0,1.349
525.0,1.365
526.0,1.305
527.0,1.23
528.0,1.302
529.0,1.372
530.0,1.353
531.0,1.373
532.0,1.326
533.0,1.287
534.0,1.325
535.0,1.354
536.0,1.366
537.0,1.311
538.0,1.334
539.0,1.323
540.0,1.269
541.0,1.278
542.0,1.319
543.0,1.304
544.0,1.328
545.0,1.323
546.0,1.33
547.0,1.329
548.0,1.312
549.0,1.316
550.0,1.332
551.0,1.315
552.0,1.324
553.0,1.301
554.0,1.332
555.0,1.335
556.0,1.318
557.0,1.277
558.0,1.268
559.0,1.245
560.0,1.261
561.0,1.278
562.0,1.269
563.0,1.305
564.0,1.27
565.0,1.259
566.0,1.241
567.0,1.265
568.0,1.256
569.0,1.23
570.0,1.229
571.0,1.221
572.0,1.252
573.0,1.266
574.0,1.263
575.0,1.24
576.0,1.229
577.0,1.242
578.0,1.222
579.0,1.225
580.0,1.246
581.0,1.25
582.0,1.272
583.0,1.274
584.0,1.284
585.0,1.252
586.0,1.226
587.0,1.254
588.0,1.229
589.0,1.098
590.0,1.147
591.0,1.208
592.0,1.196
593.0,1.21
594.0,1.203
595.0,1.177
596.0,1.216
597.0,1.204
598.0,1.199
599.0,1.199
600.0,1.199
601.0,1.188
602.0,1.179
603.0,1.198
604.0,1.218
605.0,1.211
606.0,1.205
607.0,1.216
608.0,1.202
609.0,1.204
610.0,1.194
611.0,1.2
612.0,1.196
613.0,1.181
614.0,1.164
615.0,1.189
616.0,1.149
617.0,1.147
618.0,1.19
619.0,1.178
620.0,1.186
621.0,1.187
622.0,1.174
623.0,1.157
624.0,1.136
625.0,1.134
626.0,1.151
627.0,1.165
628.0,1.107
629.0,1.144
630.0,1.118
631.0,1.137
632.0,1.122
633.0,1.154
634.0,1.141
635.0,1.157
636.0,1.141
637.0,1.159
638.0,1.168
639.0,1.154
640.0,1.142
641.0,1.141
642.0,1.135
643.0,1.15
644.0,1.146
645.0,1.148
646.0,1.124
647.0,1.116
648.0,1.117
649.0,1.096
650.0,1.095
651.0,1.141
652.0,1.101
653.0,1.125
654.0,1.112
655.0,1.074
656.0,0.9495
657.0,0.9748
658.0,1.09
659.0,1.097
660.0,1.101
661.0,1.109
662.0,1.113
663.0,1.09
664.0,1.101
665.0,1.101
666.0,1.101
667.0,1.099
668.0,1.099
669.0,1.115
670.0,1.11
671.0,1.11
672.0,1.1
673.0,1.116
674.0,1.112
675.0,1.101
676.0,1.109
677.0,1.097
678.0,1.1
679.0,1.082
680.0,1.091
681.0,1.083
682.0,1.082
683.0,1.08
684.0,1.075
685.0,1.084
686.0,1.077
687.0,0.8005
688.0,0.8965
689.0,0.8984
690.0,0.9286
691.0,0.9621
692.0,0.9852
693.0,0.9785
694.0,0.9707
695.0,1.001
696.0,1.002
697.0,1.05
698.0,1.034
699.0,1.018
700.0,1.006
701.0,0.9982
702.0,1.002
703.0,1.004
704.0,1.031
705.0,1.032
706.0,1.03
707.0,1.03
708.0,1.032
709.0,1.03
710.0,1.032
711.0,1.029
712.0,1.025
713.0,1.016
714.0,1.019
715.0,0.9904
716.0,0.9918
717.0,0.8916
718.0,0.8249
719.0,0.7593
720.0,0.7973
721.0,0.8603
722.0,0.9626
723.0,0.9075
724.0,0.8304
725.0,0.8216
726.0,0.8573
727.0,0.8624
728.0,0.8208
729.0,0.8401
730.0,0.8882
731.0,0.8537
732.0,0.9012
733.0,0.9423
734.0,0.9616
735.0,0.9433
736.0,0.9419
737.0,0.946
738.0,0.9532
739.0,0.9346
740.0,0.9566
741.0,0.9458
742.0,0.9453
743.0,0.969
744.0,0.9654
745.0,0.9649
746.0,0.9693
747.0,0.9713
748.0,0.9692
749.0,0.9581
750.0,0.9574
751.0,0.9477
752.0,0.9517
753.0,0.9564
754.0,0.9586
755.0,0.9532
756.0,0.9527
757.0,0.9541
758.0,0.9424
759.0,0.9275
760.0,0.2486
761.0,0.1546
762.0,0.5634
763.0,0.3395
764.0,0.4578
765.0,0.5638
766.0,0.6486
767.0,0.7767
768.0,0.8642
769.0,0.8753
770.0,0.8971
771.0,0.9009
772.0,0.9017
773.0,0.9077
774.0,0.9031
775.0,0.8961
776.0,0.9069
777.0,0.8949
778.0,0.8895
779.0,0.8902
780.0,0.8852
781.0,0.886
782.0,0.8915
783.0,0.8759
784.0,0.88
785.0,0.8737
786.0,0.8836
787.0,0.8714
788.0,0.8622
789.0,0.8623
790.0,0.8442
791.0,0.8469
792.0,0.84
793.0,0.827
794.0,0.836
795.0,0.8514
796.0,0.8319
797.0,0.8331
798.0,0.8511
799.0,0.8469
800.0,0.8338
801.0,0.8326
802.0,0.8301
803.0,0.8246
804.0,0.825
805.0,0.8205
806.0,0.8405
807.0,0.8311
808.0,0.8315
809.0,0.8182
810.0,0.8132
811.0,0.8173
812.0,0.7986
813.0,0.785
814.0,0.7066
815.0,0.7018
816.0,0.6557
817.0,0.6656
818.0,0.6443
819.0,0.7061
820.0,0.6706
821.0,0.7648
822.0,0.7461
823.0,0.5385
824.0,0.7308
825.0,0.7526
826.0,0.7297
827.0,0.7639
828.0,0.6649
829.0,0.7241
830.0,0.7165
831.0,0.7183
832.0,0.6995
833.0,0.7351
834.0,0.7148
835.0,0.7731
836.0,0.7475
837.0,0.7747
838.0,0.7539
839.0,0.7623
840.0,0.7782
841.0,0.7686
842.0,0.768
843.0,0.7654
844.0,0.756
845.0,0.7798
846.0,0.776
847.0,0.7609
848.0,0.7571
849.0,0.7357
850.0,0.7047
851.0,0.7471
852.0,0.7414
853.0,0.7128
854.0,0.6162
855.0,0.676
856.0,0.7391
857.0,0.7549
858.0,0.7497
859.0,0.7499
860.0,0.7509
861.0,0.7469
862.0,0.7585
863.0,0.7764
864.0,0.7376
865.0,0.731
866.0,0.6573
867.0,0.6859
868.0,0.7464
869.0,0.7309
870.0,0.7517
871.0,0.7414
872.0,0.7388
873.0,0.7373
874.0,0.7285
875.0,0.7138
876.0,0.7213
877.0,0.7285
878.0,0.7365
879.0,0.7252
880.0,0.7096
881.0,0.6994
882.0,0.7147
883.0,0.7165
884.0,0.7134
885.0,0.7188
886.0,0.6868
887.0,0.6928
888.0,0.7038
889.0,0.7103
890.0,0.7061
891.0,0.704
892.0,0.6859
893.0,0.6674
894.0,0.6494
895.0,0.6205
896.0,0.588
897.0,0.5149
898.0,0.5561
899.0,0.4352
900.0,0.5635
901.0,0.4555
902.0,0.5186
903.0,0.5288
904.0,0.6445
905.0,0.6254
906.0,0.5879
907.0,0.4921
908.0,0.4999
909.0,0.5345
910.0,0.4852
911.0,0.5097
912.0,0.5298
913.0,0.4929
914.0,0.4866
915.0,0.5259
916.0,0.4494
917.0,0.5561
918.0,0.461
919.0,0.5631
920.0,0.5627
921.0,0.5836
922.0,0.5306
923.0,0.5633
924.0,0.5443
925.0,0.5327
926.0,0.5385
927.0,0.5942
928.0,0.4605
929.0,0.427
930.0,0.3464
931.0,0.3263
932.0,0.246
933.0,0.2062
934.0,0.1263
935.0,0.2058
936.0,0.1367
937.0,0.1398
938.0,0.1686
939.0,0.3162
940.0,0.3728
941.0,0.2918
942.0,0.331
943.0,0.226
944.0,0.2308
945.0,0.2991
946.0,0.1635
947.0,0.3032
948.0,0.2247
949.0,0.3946
950.0,0.1277
951.0,0.3866
952.0,0.2228
953.0,0.2778
954.0,0.3298
955.0,0.2798
956.0,0.267
957.0,0.2246
958.0,0.3625
959.0,0.2995
960.0,0.3352
961.0,0.3676
962.0,0.3491
963.0,0.3948
964.0,0.3643
965.0,0.3923
966.0,0.3943
967.0,0.3933
968.0,0.5017
969.0,0.5256
970.0,0.4865
971.0,0.5457
972.0,0.5241
973.0,0.4675
974.0,0.4456
975.0,0.4579
976.0,0.4407
977.0,0.49
978.0,0.4703
979.0,0.4889
980.0,0.4621
981.0,0.542
982.0,0.5222
983.0,0.5038
984.0,0.5541
985.0,0.5201
986.0,0.5612
987.0,0.553
988.0,0.552
989.0,0.5578
990.0,0.5484
991.0,0.5598
992.0,0.5628
993.0,0.553
994.0,0.5623
995.0,0.5612
996.0,0.5591
997.0,0.5597
998.0,0.5573
999.0,0.5551
1000.0,0.5519
1001.0,0.558
1002.0,0.5454
1003.0,0.5483
1004.0,0.5356
1005.0,0.515
1006.0,0.5356
1007.0,0.5467
1008.0,0.5443
1009.0,0.5419
1010.0,0.5399
1011.0,0.5439
1012.0,0.5397
1013.0,0.5424
1014.0,0.5386
1015.0,0.5351
1016.0,0.5328
1017.0,0.5342
1018.0,0.5319
1019.0,0.5216
1020.0,0.5292
1021.0,0.5283
1022.0,0.5246
1023.0,0.5302
1024.0,0.5244
1025.0,0.5295
1026.0,0.5275
1027.0,0.5263
1028.0,0.5252
1029.0,0.5191
1030.0,0.5223
1031.0,0.5204
1032.0,0.5187
1033.0,0.5109
1034.0,0.5109
1035.0,0.5125
1036.0,0.5153
1037.0,0.5069
1038.0,0.5092
1039.0,0.5089
1040.0,0.5069
1041.0,0.509
1042.0,0.5055
1043.0,0.5039
1044.0,0.5057
1045.0,0.4989
1046.0,0.4935
1047.0,0.498
1048.0,0.5008
1049.0,0.4991
1050.0,0.4969
1051.0,0.4963
1052.0,0.4944
1053.0,0.4906
1054.0,0.4918
1055.0,0.4922
1056.0,0.4906
1057.0,0.4892
1058.0,0.4773
1059.0,0.478
1060.0,0.4774
1061.0,0.4769
1062.0,0.4796
1063.0,0.475
1064.0,0.4805
1065.0,0.4775
1066.0,0.4677
1067.0,0.4739
1068.0,0.4638
1069.0,0.4493
1070.0,0.4648
1071.0,0.4711
1072.0,0.4664
1073.0,0.4595
1074.0,0.4703
1075.0,0.4497
1076.0,0.4701
1077.0,0.4634
1078.0,0.4552
1079.0,0.4621
1080.0,0.4562
1081.0,0.4429
1082.0,0.4476
1083.0,0.4484
1084.0,0.4427
1085.0,0.457
1086.0,0.4217
1087.0,0.4317
1088.0,0.4485
1089.0,0.4374
1090.0,0.4298
1091.0,0.4478
1092.0,0.446
1093.0,0.3867
1094.0,0.4091
1095.0,0.4015
1096.0,0.3871
1097.0,0.4355
1098.0,0.3819
1099.0,0.397
1100.0,0.373
1101.0,0.3765
1102.0,0.3619
1103.0,0.3601
1104.0,0.3603
1105.0,0.3887
1106.0,0.3122
1107.0,0.3721
1108.0,0.3244
1109.0,0.3232
1110.0,0.3699
1111.0,0.2631
1112.0,0.32
1113.0,0.2166
1114.0,0.2405
1115.0,0.1998
1116.0,0.1676
1117.0,0.07104
1118.0,0.1792
1119.0,0.09625
1120.0,0.1212
1121.0,0.1562
1122.0,0.07218
1123.0,0.1093
1124.0,0.09238
1125.0,0.1188
1126.0,0.04785
1127.0,0.1334
1128.0,0.08675
1129.0,0.09089
1130.0,0.0631
1131.0,0.2368
1132.0,0.1888
1133.0,0.1282
1134.0,0.0384
1135.0,0.01415
1136.0,0.11
1137.0,0.235
1138.0,0.1676
1139.0,0.2342
1140.0,0.2017
1141.0,0.1592
1142.0,0.1798
1143.0,0.2488
1144.0,0.09516
1145.0,0.1234
1146.0,0.1331
1147.0,0.05375
1148.0,0.2155
1149.0,0.177
1150.0,0.102
1151.0,0.1664
1152.0,0.1991
1153.0,0.1897
1154.0,0.1212
1155.0,0.2446
1156.0,0.2233
1157.0,0.2462
1158.0,0.2433
1159.0,0.2583
1160.0,0.2258
1161.0,0.2691
1162.0,0.2711
1163.0,0.3509
1164.0,0.3067
1165.0,0.2944
1166.0,0.2889
1167.0,0.3118
1168.0,0.3163
1169.0,0.3218
1170.0,0.3454
1171.0,0.3375
1172.0,0.3411
1173.0,0.3446
1174.0,0.2584
1175.0,0.3348
1176.0,0.3622
1177.0,0.3515
1178.0,0.2734
1179.0,0.3649
1180.0,0.3322
1181.0,0.3422
1182.0,0.2463
1183.0,0.3354
1184.0,0.3178
1185.0,0.3095
1186.0,0.3571
1187.0,0.3432
1188.0,0.2513
1189.0,0.3205
1190.0,0.349
1191.0,0.3365
1192.0,0.3533
1193.0,0.3404
1194.0,0.3496
1195.0,0.3342
1196.0,0.3242
1197.0,0.3477
1198.0,0.321
1199.0,0.2814
1200.0,0.3364
1201.0,0.3273
1202.0,0.3238
1203.0,0.3212
1204.0,0.2856
1205.0,0.3288
1206.0,0.3586
1207.0,0.3237
1208.0,0.3162
1209.0,0.322
1210.0,0.3336
1211.0,0.3209
1212.0,0.3205
1213.0,0.3485
1214.0,0.3264
1215.0,0.3211
1216.0,0.3472
1217.0,0.3397
1218.0,0.3446
1219.0,0.3411
1220.0,0.3447
1221.0,0.3473
1222.0,0.3392
1223.0,0.3367
1224.0,0.3358
1225.0,0.3451
1226.0,0.3464
1227.0,0.3237
1228.0,0.3473
1229.0,0.3464
1230.0,0.3413
1231.0,0.3484
1232.0,0.3465
1233.0,0.3378
1234.0,0.3475
1235.0,0.3457
1236.0,0.3479
1237.0,0.3443
1238.0,0.3467
1239.0,0.3423
1240.0,0.3434
1241.0,0.3426
1242.0,0.3411
1243.0,0.3383
1244.0,0.341
1245.0,0.3423
1246.0,0.3402
1247.0,0.3391
1248.0,0.3393
1249.0,0.34
1250.0,0.3382
1251.0,0.3343
1252.0,0.3338
1253.0,0.3322
1254.0,0.3297
1255.0,0.3337
1256.0,0.3264
1257.0,0.325
1258.0,0.3295
1259.0,0.3208
1260.0,0.322
1261.0,0.308
1262.0,0.301
1263.0,0.3016
1264.0,0.2835
1265.0,0.2996
1266.0,0.2913
1267.0,0.2943
1268.0,0.2825
1269.0,0.1984
1270.0,0.2941
1271.0,0.3065
1272.0,0.307
1273.0,0.3042
1274.0,0.3046
1275.0,0.3082
1276.0,0.3104
1277.0,0.3116
1278.0,0.3159
1279.0,0.3132
1280.0,0.3091
1281.0,0.2942
1282.0,0.2822
1283.0,0.3042
1284.0,0.3117
1285.0,0.3136
1286.0,0.3171
1287.0,0.3135
1288.0,0.3131
1289.0,0.3057
1290.0,0.3102
1291.0,0.314
1292.0,0.2998
1293.0,0.3091
1294.0,0.3072
1295.0,0.3069
1296.0,0.2961
1297.0,0.2826
1298.0,0.2992
1299.0,0.309
1300.0,0.2702
1301.0,0.2767
1302.0,0.2981
1303.0,0.2657
1304.0,0.2348
1305.0,0.2926
1306.0,0.2931
1307.0,0.237
1308.0,0.2648
1309.0,0.2915
1310.0,0.2329
1311.0,0.2557
1312.0,0.2501
1313.0,0.2466
1314.0,0.2237
1315.0,0.2226
1316.0,0.253
1317.0,0.2406
1318.0,0.2582
1319.0,0.2116
1320.0,0.2029
1321.0,0.2329
1322.0,0.2367
1323.0,0.1863
1324.0,0.2075
1325.0,0.2498
1326.0,0.2196
1327.0,0.2108
1328.0,0.1844
1329.0,0.1454
1330.0,0.1857
1331.0,0.1208
1332.0,0.1217
1333.0,0.167
1334.0,0.1381
1335.0,0.1854
1336.0,0.1509
1337.0,0.1362
1338.0,0.1469
1339.0,0.1452
1340.0,0.139
1341.0,0.1407
1342.0,0.1474
1343.0,0.1107
1344.0,0.0661
1345.0,0.0939
1346.0,0.05433
1347.0,0.05652
1348.0,0.005436
1349.0,0.01732
1350.0,0.01654
1351.0,0.005691
1352.0,0.002175
1353.0,0.0001708
1354.0,0.0004539
1355.0,8.477e-06
1356.0,8.67e-05
1357.0,0.0001299
1358.0,9.709e-06
1359.0,2.241e-06
1360.0,5.516e-06
1361.0,2.324e-08
1362.0,1.178e-10
1363.0,8.524e-06
1364.0,3.828e-06
1365.0,8.18e-11
1366.0,3.152e-05
1367.0,1.216e-05
1368.0,2.513e-12
1369.0,1.503e-06
1370.0,9.537e-07
1371.0,7.659e-08
1372.0,6.751e-06
1373.0,8.79e-05
1374.0,0.0003058
1375.0,0.0005465
1376.0,0.0004031
1377.0,0.0001985
1378.0,0.001649
1379.0,8.525e-05
1380.0,0.0001439
1381.0,4.657e-06
1382.0,6.527e-06
1383.0,1.301e-07
1384.0,1.866e-06
1385.0,4.705e-06
1386.0,6.882e-06
1387.0,0.0003651
1388.0,7.885e-06
1389.0,0.0009216
1390.0,0.0007874
1391.0,0.0005684
1392.0,4.235e-05
1393.0,0.0001896
1394.0,0.0001511
1395.0,1.645e-06
1396.0,2.823e-08
1397.0,8.527e-05
1398.0,0.00189
1399.0,0.001204
1400.0,1.7e-08
1401.0,4.478e-08
1402.0,0.002325
1403.0,0.003111
1404.0,0.000979
1405.0,9.986e-07
1406.0,0.002823
1407.0,0.0002416
1408.0,0.002275
1409.0,0.0009425
1410.0,0.0006801
1411.0,0.002707
1412.0,0.003305
1413.0,0.02456
1414.0,0.0005252
1415.0,0.0002806
1416.0,0.03435
1417.0,0.01265
1418.0,0.01445
1419.0,0.002368
1420.0,0.008947
1421.0,0.009889
1422.0,0.0441
1423.0,0.009202
1424.0,0.0167
1425.0,0.02523
1426.0,0.02674
1427.0,0.04468
1428.0,0.005246
1429.0,0.03532
1430.0,0.05553
1431.0,0.05983
1432.0,0.004202
1433.0,0.03976
1434.0,0.02109
1435.0,0.02402
1436.0,0.0416
1437.0,0.03195
1438.0,0.01484
1439.0,0.05445
1440.0,0.04111
1441.0,0.03352
1442.0,0.03661
1443.0,0.04266
1444.0,0.05778
1445.0,0.0478
1446.0,0.02232
1447.0,0.03516
1448.0,0.09978
1449.0,0.08927
1450.0,0.02601
1451.0,0.01116
1452.0,0.0562
1453.0,0.07221
1454.0,0.115
1455.0,0.05759
1456.0,0.07879
1457.0,0.1003
1458.0,0.1132
1459.0,0.1346
1460.0,0.07289
