interpolation:linear
wavelength,value
280.0,1.802e-21
280.5,5.724e-20
281.0,3.033e-19
281.5,4.42e-19
282.0,1.019e-18
282.5,2.599e-18
283.0,8.284e-18
283.5,1.35e-17
284.0,2.188e-16
284.5,6.318e-16
285.0,1.354e-15
285.5,6.497e-15
286.0,2.592e-14
286.5,1.142e-13
287.0,3.232e-13
287.5,1.224e-12
288.0,3.488e-12
288.5,1.124e-11
289.0,3.117e-11
289.5,9.691e-11
290.0,2.736e-10
290.5,5.642e-10
291.0,1.223e-09
291.5,3.542e-09
292.0,7.24e-09
292.5,1.069e-08
293.0,2.443e-08
293.5,6.462e-08
294.0,1.07e-07
294.5,1.391e-07
295.0,2.486e-07
295.5,6.094e-07
296.0,1.178e-06
296.5,1.715e-06
297.0,2.409e-06
297.5,6.882e-06
298.0,1.153e-05
298.5,1.222e-05
299.0,2.845e-05
299.5,5.247e-05
300.0,6.162e-05
300.5,9.6e-05
301.0,0.0001984
301.5,0.0003656
302.0,0.000342
302.5,0.0006811
303.0,0.001255
303.5,0.001608
304.0,0.001531
304.5,0.002361
305.0,0.003744
305.5,0.004408
306.0,0.004313
306.5,0.005466
307.0,0.008421
307.5,0.0116
308.0,0.01232
308.5,0.01481
309.0,0.0147
309.5,0.01716
310.0,0.01741
310.5,0.02833
311.0,0.03584
311.5,0.03472
312.0,0.03529
312.5,0.04341
313.0,0.04736
313.5,0.04577
314.0,0.05796
314.5,0.05226
315.0,0.06889
315.5,0.05719
316.0,0.05062
316.5,0.07352
317.0,0.09128
317.5,0.09472
318.0,0.07447
318.5,0.09381
319.0,0.1121
319.5,0.0904
320.0,0.1091
320.5,0.1385
321.0,0.1249
321.5,0.1199
322.0,0.1262
322.5,0.1098
323.0,0.1104
323.5,0.1367
324.0,0.1598
324.5,0.1618
325.0,0.1392
325.5,0.1803
326.0,0.2209
326.5,0.2222
327.0,0.2212
327.5,0.2132
328.0,0.1889
328.5,0.1999
329.0,0.2406
329.5,0.2736
330.0,0.2758
330.5,0.2199
331.0,0.2238
331.5,0.2282
332.0,0.2476
332.5,0.2455
333.0,0.2446
333.5,0.2207
334.0,0.2261
334.5,0.2619
335.0,0.2466
335.5,0.2882
336.0,0.1995
336.5,0.2334
337.0,0.1912
337.5,0.2378
338.0,0.2329
338.5,0.269
339.0,0.2664
339.5,0.2564
340.0,0.3012
340.5,0.2717
341.0,0.2651
341.5,0.2435
342.0,0.2912
342.5,0.2725
343.0,0.2997
343.5,0.2823
344.0,0.2087
344.5,0.2108
345.0,0.2792
345.5,0.2852
346.0,0.2425
346.5,0.2747
347.0,0.295
347.5,0.2386
348.0,0.2721
348.5,0.2721
349.0,0.2525
349.5,0.2502
350.0,0.3095
350.5,0.3266
351.0,0.2918
351.5,0.2836
352.0,0.3048
352.5,0.238
353.0,0.2999
353.5,0.3208
354.0,0.3332
354.5,0.338
355.0,0.3369
355.5,0.3045
356.0,0.3187
356.5,0.2722
357.0,0.225
357.5,0.2755
358.0,0.2184
358.5,0.1867
359.0,0.2612
359.5,0.3329
360.0,0.353
360.5,0.2823
361.0,0.2574
361.5,0.2966
362.0,0.2566
362.5,0.3554
363.0,0.3194
363.5,0.2943
364.0,0.3601
364.5,0.3079
365.0,0.3137
365.5,0.3939
366.0,0.4175
366.5,0.3925
367.0,0.3824
367.5,0.3969
368.0,0.3475
368.5,0.3508
369.0,0.379
369.5,0.4041
370.0,0.431
370.5,0.3346
371.0,0.3577
371.5,0.4476
372.0,0.2972
372.5,0.3565
373.0,0.3628
373.5,0.2361
374.0,0.3433
374.5,0.2844
375.0,0.2765
375.5,0.413
376.0,0.3425
376.5,0.355
377.0,0.376
377.5,0.4401
378.0,0.4771
378.5,0.4511
379.0,0.3724
379.5,0.3402
380.0,0.3538
380.5,0.4287
381.0,0.4298
381.5,0.3409
382.0,0.3029
382.5,0.2584
383.0,0.2393
383.5,0.2306
384.0,0.2544
384.5,0.3744
385.0,0.3714
385.5,0.346
386.0,0.2965
386.5,0.3896
387.0,0.3239
387.5,0.3639
388.0,0.3361
388.5,0.3324
389.0,0.3589
389.5,0.4348
390.0,0.4366
390.5,0.4019
391.0,0.4733
391.5,0.4829
392.0,0.4068
392.5,0.3644
393.0,0.2028
393.5,0.1475
394.0,0.3002
394.5,0.3819
395.0,0.4661
395.5,0.4736
396.0,0.4107
396.5,0.2402
397.0,0.1804
397.5,0.3669
398.0,0.5139
398.5,0.5313
399.0,0.5756
399.5,0.5739
400.0,0.596
401.0,0.6037
402.0,0.6374
403.0,0.606
404.0,0.597
405.0,0.5972
406.0,0.5879
407.0,0.5788
408.0,0.6016
409.0,0.6443
410.0,0.5633
411.0,0.6105
412.0,0.6562
413.0,0.6401
414.0,0.6484
415.0,0.6505
416.0,0.6623
417.0,0.6463
418.0,0.6346
419.0,0.6433
420.0,0.6407
421.0,0.6707
422.0,0.6377
423.0,0.6232
424.0,0.6594
425.0,0.6585
426.0,0.6419
427.0,0.6301
428.0,0.614
429.0,0.582
430.0,0.5096
431.0,0.5051
432.0,0.6526
433.0,0.6564
434.0,0.6097
435.0,0.6369
436.0,0.718
437.0,0.7088
438.0,0.6457
439.0,0.6677
440.0,0.6893
441.0,0.7146
442.0,0.7666
443.0,0.7467
444.0,0.7632
445.0,0.7468
446.0,0.7132
447.0,0.7714
448.0,0.7833
449.0,0.787
450.0,0.8093
451.0,0.8395
452.0,0.8091
453.0,0.7612
454.0,0.795
455.0,0.8
456.0,0.8192
457.0,0.833
458.0,0.8045
459.0,0.8005
460.0,0.8026
461.0,0.8212
462.0,0.8279
463.0,0.8222
464.0,0.8091
465.0,0.7993
466.0,0.8074
467.0,0.7925
468.0,0.8019
469.0,0.8062
470.0,0.7805
471.0,0.7796
472.0,0.8215
473.0,0.8109
474.0,0.8118
475.0,0.8185
476.0,0.7938
477.0,0.7958
478.0,0.818
479.0,0.8133
480.0,0.8151
481.0,0.8306
482.0,0.8353
483.0,0.8256
484.0,0.809
485.0,0.771
486.0,0.6742
487.0,0.7068
488.0,0.7755
489.0,0.7778
490.0,0.8185
491.0,0.8045
492.0,0.7598
493.0,0.7848
494.0,0.7927
495.0,0.7995
496.0,0.8045
497.0,0.8169
498.0,0.7787
499.0,0.7886
500.0,0.7655
501.0,0.7512
502.0,0.7402
503.0,0.7699
504.0,0.749
505.0,0.7769
506.0,0.802
507.0,0.7633
508.0,0.7399
509.0,0.761
510.0,0.7572
511.0,0.7778
512.0,0.7864
513.0,0.7444
514.0,0.7394
515.0,0.7321
516.0,0.7303
517.0,0.649
518.0,0.6822
519.0,0.7156
520.0,0.7416
521.0,0.7486
522.0,0.7491
523.0,0.7356
524.0,0.7617
525.0,0.7703
526.0,0.7357
527.0,0.693
528.0,0.7327
529.0,0.7722
530.0,0.761
531.0,0.7721
532.0,0.7456
533.0,0.7237
534.0,0.7453
535.0,0.7617
536.0,0.7688
537.0,0.7386
538.0,0.7518
539.0,0.7454
540.0,0.7146
541.0,0.719
542.0,0.7413
543.0,0.7338
544.0,0.7462
545.0,0.744
546.0,0.7469
547.0,0.7469
548.0,0.7381
549.0,0.7404
550.0,0.7492
551.0,0.7402
552.0,0.7454
553.0,0.732
554.0,0.7494
555.0,0.7509
556.0,0.741
557.0,0.7179
558.0,0.7123
559.0,0.6987
560.0,0.7073
561.0,0.7163
562.0,0.7109
563.0,0.73
564.0,0.7099
565.0,0.7036
566.0,0.693
567.0,0.7059
568.0,0.6989
569.0,0.6809
570.0,0.6809
571.0,0.6772
572.0,0.6925
573.0,0.6997
574.0,0.6973
575.0,0.6839
576.0,0.6777
577.0,0.6852
578.0,0.6754
579.0,0.6787
580.0,0.6926
581.0,0.6969
582.0,0.7108
583.0,0.7131
584.0,0.7196
585.0,0.7023
586.0,0.6879
587.0,0.7025
588.0,0.6837
589.0,0.6023
590.0,0.6302
591.0,0.6689
592.0,0.6592
593.0,0.6705
594.0,0.6652
595.0,0.6476
596.0,0.6759
597.0,0.6679
598.0,0.667
599.0,0.668
600.0,0.6697
601.0,0.6647
602.0,0.6603
603.0,0.6715
604.0,0.6827
605.0,0.6794
606.0,0.6769
607.0,0.6839
608.0,0.6767
609.0,0.6781
610.0,0.6735
611.0,0.6772
612.0,0.6754
613.0,0.6671
614.0,0.6582
615.0,0.6728
616.0,0.6508
617.0,0.6497
618.0,0.6748
619.0,0.6681
620.0,0.6723
621.0,0.6727
622.0,0.6646
623.0,0.6543
624.0,0.6433
625.0,0.6419
626.0,0.6513
627.0,0.6579
628.0,0.6067
629.0,0.6397
630.0,0.6247
631.0,0.6414
632.0,0.6342
633.0,0.6546
634.0,0.6491
635.0,0.6596
636.0,0.6514
637.0,0.6624
638.0,0.6694
639.0,0.6622
640.0,0.6561
641.0,0.656
642.0,0.6533
643.0,0.6621
644.0,0.6603
645.0,0.6612
646.0,0.6449
647.0,0.6351
648.0,0.6356
649.0,0.6231
650.0,0.6288
651.0,0.6566
652.0,0.6264
653.0,0.648
654.0,0.6411
655.0,0.6157
656.0,0.5467
657.0,0.5616
658.0,0.6302
659.0,0.6351
660.0,0.6379
661.0,0.6425
662.0,0.6433
663.0,0.6307
664.0,0.639
665.0,0.6401
666.0,0.6409
667.0,0.6406
668.0,0.6412
669.0,0.6513
670.0,0.6486
671.0,0.6486
672.0,0.6431
673.0,0.653
674.0,0.6506
675.0,0.6448
676.0,0.6494
677.0,0.643
678.0,0.645
679.0,0.6346
680.0,0.6398
681.0,0.6356
682.0,0.6348
683.0,0.6336
684.0,0.6305
685.0,0.636
686.0,0.6321
687.0,0.3866
688.0,0.4683
689.0,0.4706
690.0,0.4988
691.0,0.5311
692.0,0.5553
693.0,0.5503
694.0,0.546
695.0,0.5727
696.0,0.5737
697.0,0.6137
698.0,0.6041
699.0,0.5864
700.0,0.5791
701.0,0.5721
702.0,0.5773
703.0,0.5786
704.0,0.5991
705.0,0.5999
706.0,0.6002
707.0,0.6009
708.0,0.6022
709.0,0.6043
710.0,0.6036
711.0,0.6033
712.0,0.602
713.0,0.5954
714.0,0.5978
715.0,0.5776
716.0,0.5776
717.0,0.4889
718.0,0.4475
719.0,0.4089
720.0,0.4272
721.0,0.4788
722.0,0.5555
723.0,0.5132
724.0,0.4577
725.0,0.4488
726.0,0.4704
727.0,0.4801
728.0,0.4471
729.0,0.4681
730.0,0.4949
731.0,0.4724
732.0,0.5098
733.0,0.5439
734.0,0.5581
735.0,0.5459
736.0,0.5451
737.0,0.5473
738.0,0.5587
739.0,0.5477
740.0,0.5629
741.0,0.5579
742.0,0.559
743.0,0.5734
744.0,0.5721
745.0,0.5725
746.0,0.5751
747.0,0.5765
748.0,0.5753
749.0,0.5687
750.0,0.5684
751.0,0.5627
752.0,0.5652
753.0,0.568
754.0,0.5693
755.0,0.5661
756.0,0.5659
757.0,0.5667
758.0,0.5596
759.0,0.5463
760.0,0.06321
761.0,0.0291
762.0,0.2447
763.0,0.1054
764.0,0.1727
765.0,0.2445
766.0,0.316
767.0,0.4156
768.0,0.4937
769.0,0.5073
770.0,0.5282
771.0,0.5341
772.0,0.5358
773.0,0.5397
774.0,0.5372
775.0,0.5332
776.0,0.5397
777.0,0.5326
778.0,0.5294
779.0,0.5298
780.0,0.5269
781.0,0.5274
782.0,0.5308
783.0,0.5216
784.0,0.5241
785.0,0.5201
786.0,0.5257
787.0,0.5151
788.0,0.508
789.0,0.5077
790.0,0.4921
791.0,0.4984
792.0,0.495
793.0,0.4867
794.0,0.4972
795.0,0.5051
796.0,0.4867
797.0,0.4871
798.0,0.5041
799.0,0.5004
800.0,0.491
801.0,0.4888
802.0,0.4874
803.0,0.4833
804.0,0.4843
805.0,0.4836
806.0,0.4986
807.0,0.4923
808.0,0.4929
809.0,0.4826
810.0,0.4779
811.0,0.4769
812.0,0.4614
813.0,0.4507
814.0,0.3905
815.0,0.3884
816.0,0.3607
817.0,0.3679
818.0,0.3528
819.0,0.3996
820.0,0.3744
821.0,0.4451
822.0,0.4312
823.0,0.2816
824.0,0.4159
825.0,0.4372
826.0,0.4183
827.0,0.4439
828.0,0.3693
829.0,0.4162
830.0,0.4101
831.0,0.4117
832.0,0.3978
833.0,0.4267
834.0,0.4092
835.0,0.4547
836.0,0.4319
837.0,0.4561
838.0,0.4403
839.0,0.4496
840.0,0.4599
841.0,0.4526
842.0,0.4547
843.0,0.4556
844.0,0.4487
845.0,0.4647
846.0,0.4628
847.0,0.4545
848.0,0.4512
849.0,0.4384
850.0,0.4201
851.0,0.4442
852.0,0.4413
853.0,0.4252
854.0,0.3668
855.0,0.4035
856.0,0.4407
857.0,0.4509
858.0,0.4474
859.0,0.4481
860.0,0.449
861.0,0.4465
862.0,0.4536
863.0,0.4643
864.0,0.4411
865.0,0.4373
866.0,0.3932
867.0,0.4104
868.0,0.4466
869.0,0.4374
870.0,0.4498
871.0,0.4437
872.0,0.4422
873.0,0.4413
874.0,0.436
875.0,0.4272
876.0,0.4316
877.0,0.436
878.0,0.4406
879.0,0.4339
880.0,0.4246
881.0,0.418
882.0,0.4269
883.0,0.4285
884.0,0.4264
885.0,0.4296
886.0,0.4085
887.0,0.4136
888.0,0.4192
889.0,0.4249
890.0,0.4203
891.0,0.4201
892.0,0.4066
893.0,0.3924
894.0,0.3757
895.0,0.3512
896.0,0.3296
897.0,0.2785
898.0,0.3064
899.0,0.2277
900.0,0.3166
901.0,0.2386
902.0,0.2874
903.0,0.2877
904.0,0.3728
905.0,0.3585
906.0,0.3343
907.0,0.2643
908.0,0.2708
909.0,0.2965
910.0,0.2563
911.0,0.2772
912.0,0.2907
913.0,0.2598
914.0,0.2588
915.0,0.2804
916.0,0.2362
917.0,0.3058
918.0,0.2418
919.0,0.3132
920.0,0.3201
921.0,0.3332
922.0,0.2935
923.0,0.3222
924.0,0.3001
925.0,0.2937
926.0,0.2964
927.0,0.3362
928.0,0.2343
929.0,0.2105
930.0,0.1602
931.0,0.1523
932.0,0.1043
933.0,0.08213
934.0,0.03966
935.0,0.08618
936.0,0.05032
937.0,0.0507
938.0,0.06367
939.0,0.1475
940.0,0.1813
941.0,0.1317
942.0,0.1555
943.0,0.09826
944.0,0.1073
945.0,0.1369
946.0,0.06429
947.0,0.136
948.0,0.09929
949.0,0.1874
950.0,0.04432
951.0,0.1854
952.0,0.0927
953.0,0.1243
954.0,0.1576
955.0,0.1263
956.0,0.1264
957.0,0.09229
958.0,0.1858
959.0,0.1415
960.0,0.1586
961.0,0.1828
962.0,0.1725
963.0,0.2031
964.0,0.1847
965.0,0.2025
966.0,0.2017
967.0,0.2003
968.0,0.284
969.0,0.2949
970.0,0.2691
971.0,0.3147
972.0,0.2997
973.0,0.2541
974.0,0.2404
975.0,0.2521
976.0,0.2356
977.0,0.2756
978.0,0.2587
979.0,0.273
980.0,0.2555
981.0,0.3131
982.0,0.2969
983.0,0.2836
984.0,0.3256
985.0,0.2958
986.0,0.3331
987.0,0.3245
988.0,0.324
989.0,0.3333
990.0,0.322
991.0,0.3341
992.0,0.3362
993.0,0.3266
994.0,0.3363
995.0,0.3362
996.0,0.3344
997.0,0.335
998.0,0.3333
999.0,0.3322
1000.0,0.3294
1001.0,0.3341
1002.0,0.3228
1003.0,0.328
1004.0,0.3195
1005.0,0.3085
1006.0,0.3202
1007.0,0.3272
1008.0,0.325
1009.0,0.3229
1010.0,0.3213
1011.0,0.3255
1012.0,0.3223
1013.0,0.3249
1014.0,0.3226
1015.0,0.3204
1016.0,0.3189
1017.0,0.3196
1018.0,0.3187
1019.0,0.3111
1020.0,0.3169
1021.0,0.3166
1022.0,0.3139
1023.0,0.3171
1024.0,0.3122
1025.0,0.3172
1026.0,0.3156
1027.0,0.3149
1028.0,0.3142
1029.0,0.3104
1030.0,0.3128
1031.0,0.3115
1032.0,0.3106
1033.0,0.306
1034.0,0.306
1035.0,0.3069
1036.0,0.3084
1037.0,0.3035
1038.0,0.3048
1039.0,0.3046
1040.0,0.3033
1041.0,0.3045
1042.0,0.3023
1043.0,0.3013
1044.0,0.3023
1045.0,0.2982
1046.0,0.2948
1047.0,0.2974
1048.0,0.299
1049.0,0.2979
1050.0,0.2964
1051.0,0.2959
1052.0,0.2947
1053.0,0.2922
1054.0,0.2927
1055.0,0.2928
1056.0,0.2916
1057.0,0.2906
1058.0,0.2834
1059.0,0.2836
1060.0,0.2831
1061.0,0.2827
1062.0,0.284
1063.0,0.2811
1064.0,0.2845
1065.0,0.2821
1066.0,0.2768
1067.0,0.2803
1068.0,0.2739
1069.0,0.2657
1070.0,0.2745
1071.0,0.2794
1072.0,0.2757
1073.0,0.2718
1074.0,0.2796
1075.0,0.2635
1076.0,0.2793
1077.0,0.2731
1078.0,0.2674
1079.0,0.2752
1080.0,0.2689
1081.0,0.2593
1082.0,0.2652
1083.0,0.2665
1084.0,0.2582
1085.0,0.2697
1086.0,0.2432
1087.0,0.2531
1088.0,0.2658
1089.0,0.2557
1090.0,0.2489
1091.0,0.2644
1092.0,0.2642
1093.0,0.2184
1094.0,0.241
1095.0,0.2281
1096.0,0.2168
1097.0,0.2581
1098.0,0.2127
1099.0,0.2228
1100.0,0.2048
1101.0,0.2081
1102.0,0.1972
1103.0,0.1942
1104.0,0.1946
1105.0,0.2172
1106.0,0.157
1107.0,0.2045
1108.0,0.1679
1109.0,0.1693
1110.0,0.2018
1111.0,0.1297
1112.0,0.1684
1113.0,0.09999
1114.0,0.1123
1115.0,0.09272
1116.0,0.06992
1117.0,0.02163
1118.0,0.07733
1119.0,0.03489
1120.0,0.04356
1121.0,0.05982
1122.0,0.02229
1123.0,0.03952
1124.0,0.03331
1125.0,0.04431
1126.0,0.01265
1127.0,0.05025
1128.0,0.02695
1129.0,0.02897
1130.0,0.01814
1131.0,0.1033
1132.0,0.07948
1133.0,0.04606
1134.0,0.009657
1135.0,0.003754
1136.0,0.03694
1137.0,0.09986
1138.0,0.06957
1139.0,0.1126
1140.0,0.09068
1141.0,0.0662
1142.0,0.07786
1143.0,0.1143
1144.0,0.03586
1145.0,0.04448
1146.0,0.04792
1147.0,0.01405
1148.0,0.09862
1149.0,0.07619
1150.0,0.03916
1151.0,0.069
1152.0,0.08799
1153.0,0.08813
1154.0,0.04294
1155.0,0.1173
1156.0,0.1039
1157.0,0.1197
1158.0,0.1183
1159.0,0.1297
1160.0,0.1088
1161.0,0.1388
1162.0,0.1391
1163.0,0.1962
1164.0,0.1653
1165.0,0.153
1166.0,0.1542
1167.0,0.1694
1168.0,0.1706
1169.0,0.1756
1170.0,0.1933
1171.0,0.1883
1172.0,0.1932
1173.0,0.1929
1174.0,0.1319
1175.0,0.1897
1176.0,0.2117
1177.0,0.2011
1178.0,0.1467
1179.0,0.2135
1180.0,0.1871
1181.0,0.1933
1182.0,0.1286
1183.0,0.1911
1184.0,0.1775
1185.0,0.1698
1186.0,0.2061
1187.0,0.1948
1188.0,0.1301
1189.0,0.1812
1190.0,0.2017
1191.0,0.1886
1192.0,0.2048
1193.0,0.1953
1194.0,0.2019
1195.0,0.189
1196.0,0.1809
1197.0,0.2029
1198.0,0.1845
1199.0,0.1529
1200.0,0.1927
1201.0,0.1844
1202.0,0.1844
1203.0,0.1823
1204.0,0.1576
1205.0,0.1899
1206.0,0.2118
1207.0,0.1834
1208.0,0.1817
1209.0,0.1858
1210.0,0.1944
1211.0,0.1837
1212.0,0.1794
1213.0,0.2039
1214.0,0.1846
1215.0,0.1808
1216.0,0.2034
1217.0,0.1972
1218.0,0.2016
1219.0,0.1987
1220.0,0.2019
1221.0,0.2044
1222.0,0.1987
1223.0,0.1965
1224.0,0.1946
1225.0,0.203
1226.0,0.2049
1227.0,0.187
1228.0,0.2064
1229.0,0.2049
1230.0,0.2011
1231.0,0.2081
1232.0,0.2068
1233.0,0.198
1234.0,0.2083
1235.0,0.2067
1236.0,0.2084
1237.0,0.2048
1238.0,0.2077
1239.0,0.205
1240.0,0.2059
1241.0,0.2045
1242.0,0.2044
1243.0,0.2028
1244.0,0.2041
1245.0,0.205
1246.0,0.2039
1247.0,0.203
1248.0,0.2026
1249.0,0.2034
1250.0,0.2021
1251.0,0.1992
1252.0,0.1996
1253.0,0.1974
1254.0,0.1949
1255.0,0.1992
1256.0,0.1925
1257.0,0.1912
1258.0,0.1957
1259.0,0.1869
1260.0,0.1881
1261.0,0.1754
1262.0,0.169
1263.0,0.1693
1264.0,0.1537
1265.0,0.1682
1266.0,0.1604
1267.0,0.1643
1268.0,0.1541
1269.0,0.08529
1270.0,0.1632
1271.0,0.1751
1272.0,0.1759
1273.0,0.1738
1274.0,0.1747
1275.0,0.1776
1276.0,0.1797
1277.0,0.1815
1278.0,0.1858
1279.0,0.184
1280.0,0.1818
1281.0,0.1738
1282.0,0.1682
1283.0,0.181
1284.0,0.1852
1285.0,0.1865
1286.0,0.1894
1287.0,0.1858
1288.0,0.1859
1289.0,0.1787
1290.0,0.1844
1291.0,0.1872
1292.0,0.1734
1293.0,0.183
1294.0,0.1816
1295.0,0.18
1296.0,0.1703
1297.0,0.1599
1298.0,0.1746
1299.0,0.1834
1300.0,0.1512
1301.0,0.1566
1302.0,0.1741
1303.0,0.1497
1304.0,0.1239
1305.0,0.1702
1306.0,0.1699
1307.0,0.128
1308.0,0.1506
1309.0,0.1681
1310.0,0.1253
1311.0,0.1435
1312.0,0.139
1313.0,0.1355
1314.0,0.12
1315.0,0.1175
1316.0,0.1405
1317.0,0.1326
1318.0,0.1457
1319.0,0.1093
1320.0,0.1069
1321.0,0.1261
1322.0,0.1266
1323.0,0.09149
1324.0,0.1074
1325.0,0.1381
1326.0,0.1162
1327.0,0.1102
1328.0,0.09375
1329.0,0.06711
1330.0,0.08903
1331.0,0.04999
1332.0,0.05283
1333.0,0.07431
1334.0,0.06508
1335.0,0.09098
1336.0,0.06988
1337.0,0.06093
1338.0,0.06583
1339.0,0.06609
1340.0,0.06536
1341.0,0.06131
1342.0,0.06465
1343.0,0.03921
1344.0,0.02386
1345.0,0.03441
1346.0,0.01449
1347.0,0.01429
1348.0,0.0006424
1349.0,0.002545
1350.0,0.002835
1351.0,0.0004924
1352.0,8.926e-05
1353.0,3.16e-06
1354.0,1.415e-05
1355.0,5.089e-08
1356.0,1.515e-06
1357.0,2.317e-06
1358.0,6.229e-08
1359.0,4.212e-09
1360.0,2.283e-08
1361.0,7.371e-12
1362.0,1.293e-14
1363.0,2.431e-08
1364.0,1.023e-08
1365.0,2.532e-15
1366.0,1.249e-07
1367.0,5.989e-08
1368.0,9.185e-18
1369.0,3.75e-09
1370.0,1.424e-09
1371.0,6.078e-11
1372.0,3.338e-08
1373.0,1.008e-06
1374.0,6.234e-06
1375.0,1.085e-05
1376.0,1.296e-05
1377.0,5.608e-06
1378.0,6.023e-05
1379.0,2.359e-06
1380.0,2.799e-06
1381.0,6.375e-08
1382.0,2.783e-08
1383.0,3.451e-10
1384.0,3.783e-09
1385.0,3.605e-08
1386.0,2.044e-08
1387.0,5.25e-06
1388.0,1.111e-07
1389.0,2.511e-05
1390.0,2.12e-05
1391.0,1.355e-05
1392.0,8.3e-07
1393.0,5.096e-06
1394.0,1.604e-06
1395.0,8.937e-09
1396.0,1.248e-11
1397.0,1.817e-06
1398.0,6.494e-05
1399.0,4.19e-05
1400.0,3.873e-12
1401.0,2.526e-11
1402.0,0.0001797
1403.0,0.0002073
1404.0,6.069e-05
1405.0,3.468e-09
1406.0,0.0001363
1407.0,1.397e-05
1408.0,0.0001147
1409.0,3.036e-05
1410.0,2.935e-05
1411.0,0.0001856
1412.0,0.0002807
1413.0,0.003946
1414.0,2.397e-05
1415.0,1.035e-05
1416.0,0.008083
1417.0,0.001984
1418.0,0.002123
1419.0,0.0003135
1420.0,0.001287
1421.0,0.001438
1422.0,0.01062
1423.0,0.001952
1424.0,0.003808
1425.0,0.005318
1426.0,0.006669
1427.0,0.01364
1428.0,0.0005817
1429.0,0.009454
1430.0,0.01808
1431.0,0.02036
1432.0,0.0004509
1433.0,0.01229
1434.0,0.005934
1435.0,0.004881
