interpolation:linear
wavelength,value
280.0,3.281e-22
280.5,1.0770000000000002e-20
281.0,5.768e-20
281.5,4.183e-19
282.0,6.913e-19
282.5,1.715e-18
283.0,5.422e-18
283.5,8.824e-18
284.0,1.451e-16
284.5,4.228e-16
285.0,7.035e-16
285.5,3.507e-15
286.0,1.414e-14
286.5,6.361e-14
287.0,1.824e-13
287.5,7.028e-13
288.0,2.408e-12
288.5,7.278e-12
289.0,1.937e-11
289.5,5.844e-11
290.0,1.622e-10
290.5,3.306e-10
291.0,7.095e-10
291.5,2.037e-09
292.0,4.142e-09
292.5,5.826e-09
293.0,1.253e-08
293.5,3.06e-08
294.0,4.795e-08
294.5,6.562e-08
295.0,1.114e-07
295.5,1.901e-07
296.0,3.711e-07
296.5,5.26e-07
297.0,7.203e-07
297.5,1.975e-06
298.0,3.18e-06
298.5,3.259e-06
299.0,7.332e-06
299.5,1.269e-05
300.0,1.432e-05
300.5,2.134e-05
301.0,4.066e-05
301.5,6.82e-05
302.0,5.996e-05
302.5,0.0001211
303.0,0.0002281
303.5,0.0002982
304.0,0.0002901
304.5,0.0004751
305.0,0.0008233
305.5,0.001028
306.0,0.001029
306.5,0.001356
307.0,0.002284
307.5,0.00344
308.0,0.003709
308.5,0.004663
309.0,0.004769
309.5,0.005983
310.0,0.006269
310.5,0.01037
311.0,0.01347
311.5,0.01319
312.0,0.0142
312.5,0.01813
313.0,0.02017
313.5,0.01914
314.0,0.02535
314.5,0.02426
315.0,0.03231
315.5,0.02606
316.0,0.0242
316.5,0.03664
317.0,0.04545
317.5,0.0466
318.0,0.03769
318.5,0.05011
319.0,0.06156
319.5,0.04749
320.0,0.05691
320.5,0.07636
321.0,0.07238
321.5,0.06984
322.0,0.06964
322.5,0.0608
323.0,0.06326
323.5,0.08094
324.0,0.09515
324.5,0.09494
325.0,0.08026
325.5,0.1069
326.0,0.132
326.5,0.1353
327.0,0.1338
327.5,0.1279
328.0,0.1105
328.5,0.1205
329.0,0.1485
329.5,0.1702
330.0,0.1705
330.5,0.1335
331.0,0.135
331.5,0.1396
332.0,0.1545
332.5,0.1546
333.0,0.1532
333.5,0.1362
334.0,0.1392
334.5,0.164
335.0,0.156
335.5,0.1827
336.0,0.1265
336.5,0.1469
337.0,0.1196
337.5,0.1483
338.0,0.1473
338.5,0.1708
339.0,0.1693
339.5,0.1629
340.0,0.1908
340.5,0.1723
341.0,0.1686
341.5,0.1551
342.0,0.1856
342.5,0.1738
343.0,0.191
343.5,0.1798
344.0,0.1326
344.5,0.1342
345.0,0.178
345.5,0.1821
346.0,0.1549
346.5,0.1756
347.0,0.1884
347.5,0.1524
348.0,0.174
348.5,0.1742
349.0,0.1617
349.5,0.1602
350.0,0.1983
350.5,0.2093
351.0,0.187
351.5,0.1815
352.0,0.1953
352.5,0.1526
353.0,0.1925
353.5,0.206
354.0,0.214
354.5,0.2171
355.0,0.2164
355.5,0.1957
356.0,0.2049
356.5,0.1751
357.0,0.1447
357.5,0.1772
358.0,0.1405
358.5,0.1202
359.0,0.1681
359.5,0.2142
360.0,0.2272
360.5,0.1817
361.0,0.1658
361.5,0.1912
362.0,0.1655
362.5,0.2293
363.0,0.2062
363.5,0.1901
364.0,0.2327
364.5,0.199
365.0,0.2028
365.5,0.2547
366.0,0.2701
366.5,0.254
367.0,0.2476
367.5,0.2571
368.0,0.2251
368.5,0.2273
369.0,0.2456
369.5,0.262
370.0,0.2795
370.5,0.2171
371.0,0.2322
371.5,0.2906
372.0,0.193
372.5,0.2316
373.0,0.2357
373.5,0.1535
374.0,0.2232
374.5,0.185
375.0,0.1799
375.5,0.2688
376.0,0.2229
376.5,0.2311
377.0,0.2449
377.5,0.2867
378.0,0.3109
378.5,0.294
379.0,0.2427
379.5,0.2218
380.0,0.2307
380.5,0.2797
381.0,0.2805
381.5,0.2226
382.0,0.1979
382.5,0.1689
383.0,0.1565
383.5,0.1508
384.0,0.1665
384.5,0.245
385.0,0.2432
385.5,0.2267
386.0,0.1943
386.5,0.2554
387.0,0.2123
387.5,0.2386
388.0,0.2205
388.5,0.2181
389.0,0.2356
389.5,0.2855
390.0,0.2868
390.5,0.2641
391.0,0.3111
391.5,0.3175
392.0,0.2675
392.5,0.2397
393.0,0.1335
393.5,0.09712
394.0,0.1977
394.5,0.2516
395.0,0.3072
395.5,0.3122
396.0,0.2708
396.5,0.1585
397.0,0.119
397.5,0.2422
398.0,0.3393
398.5,0.3509
399.0,0.3804
399.5,0.3793
400.0,0.394
401.0,0.3976
402.0,0.4201
403.0,0.3997
404.0,0.394
405.0,0.3943
406.0,0.3885
407.0,0.3828
408.0,0.398
409.0,0.4264
410.0,0.3731
411.0,0.4046
412.0,0.4353
413.0,0.4248
414.0,0.4306
415.0,0.4323
416.0,0.4405
417.0,0.43
418.0,0.4225
419.0,0.4285
420.0,0.427
421.0,0.4472
422.0,0.4254
423.0,0.416
424.0,0.4402
425.0,0.4399
426.0,0.4292
427.0,0.4216
428.0,0.4109
429.0,0.3899
430.0,0.3416
431.0,0.3386
432.0,0.4378
433.0,0.4406
434.0,0.4094
435.0,0.4277
436.0,0.4827
437.0,0.4769
438.0,0.4347
439.0,0.4492
440.0,0.464
441.0,0.4814
442.0,0.5166
443.0,0.5031
444.0,0.5146
445.0,0.5036
446.0,0.4814
447.0,0.5212
448.0,0.5291
449.0,0.5322
450.0,0.5475
451.0,0.5682
452.0,0.5478
453.0,0.5157
454.0,0.539
455.0,0.5425
456.0,0.5557
457.0,0.5651
458.0,0.5455
459.0,0.543
460.0,0.5443
461.0,0.5571
462.0,0.562
463.0,0.5582
464.0,0.5499
465.0,0.5438
466.0,0.5497
467.0,0.5395
468.0,0.546
469.0,0.5489
470.0,0.5314
471.0,0.5309
472.0,0.5595
473.0,0.5523
474.0,0.5526
475.0,0.5568
476.0,0.5394
477.0,0.5404
478.0,0.5557
479.0,0.5528
480.0,0.5543
481.0,0.5653
482.0,0.569
483.0,0.563
484.0,0.552
485.0,0.5265
486.0,0.4608
487.0,0.4835
488.0,0.5304
489.0,0.5319
490.0,0.56
491.0,0.5507
492.0,0.5201
493.0,0.5373
494.0,0.5428
495.0,0.5476
496.0,0.551
497.0,0.5594
498.0,0.5332
499.0,0.5397
500.0,0.5236
501.0,0.5135
502.0,0.5053
503.0,0.5249
504.0,0.5087
505.0,0.5292
506.0,0.5463
507.0,0.52
508.0,0.5047
509.0,0.5196
510.0,0.5174
511.0,0.5319
512.0,0.538
513.0,0.5094
514.0,0.5061
515.0,0.5011
516.0,0.4998
517.0,0.4443
518.0,0.467
519.0,0.4898
520.0,0.5075
521.0,0.5122
522.0,0.5124
523.0,0.503
524.0,0.5205
525.0,0.5259
526.0,0.5021
527.0,0.4725
528.0,0.4993
529.0,0.5258
530.0,0.518
531.0,0.5254
532.0,0.5072
533.0,0.4924
534.0,0.5072
535.0,0.5186
536.0,0.5237
537.0,0.5034
538.0,0.5125
539.0,0.5081
540.0,0.487
541.0,0.4893
542.0,0.5043
543.0,0.4996
544.0,0.5076
545.0,0.5061
546.0,0.5077
547.0,0.5081
548.0,0.5023
549.0,0.5041
550.0,0.5101
551.0,0.504
552.0,0.5075
553.0,0.4983
554.0,0.5102
555.0,0.511
556.0,0.5042
557.0,0.4883
558.0,0.4841
559.0,0.4746
560.0,0.4802
561.0,0.486
562.0,0.482
563.0,0.4945
564.0,0.4805
565.0,0.4759
566.0,0.4685
567.0,0.4768
568.0,0.471
569.0,0.4569
570.0,0.4572
571.0,0.4552
572.0,0.4641
573.0,0.4687
574.0,0.4668
575.0,0.4574
576.0,0.4533
577.0,0.4585
578.0,0.4525
579.0,0.4556
580.0,0.4664
581.0,0.4705
582.0,0.4808
583.0,0.4832
584.0,0.4882
585.0,0.4767
586.0,0.467
587.0,0.4763
588.0,0.4611
589.0,0.4015
590.0,0.4204
591.0,0.4491
592.0,0.441
593.0,0.4507
594.0,0.4462
595.0,0.4326
596.0,0.4555
597.0,0.449
598.0,0.4496
599.0,0.4508
600.0,0.4529
601.0,0.4503
602.0,0.4475
603.0,0.4554
604.0,0.4633
605.0,0.4612
606.0,0.46
607.0,0.4652
608.0,0.4607
609.0,0.4621
610.0,0.4594
611.0,0.4622
612.0,0.4613
613.0,0.4558
614.0,0.4501
615.0,0.4605
616.0,0.4457
617.0,0.4452
618.0,0.4626
619.0,0.4581
620.0,0.461
621.0,0.461
622.0,0.4551
623.0,0.4478
624.0,0.4406
625.0,0.4396
626.0,0.4459
627.0,0.4496
628.0,0.4036
629.0,0.4332
630.0,0.4227
631.0,0.4378
632.0,0.4336
633.0,0.4491
634.0,0.4466
635.0,0.4545
636.0,0.4495
637.0,0.4577
638.0,0.4633
639.0,0.4588
640.0,0.4552
641.0,0.4555
642.0,0.4541
643.0,0.4603
644.0,0.4595
645.0,0.4599
646.0,0.4472
647.0,0.4373
648.0,0.4378
649.0,0.4288
650.0,0.4367
651.0,0.4567
652.0,0.4318
653.0,0.451
654.0,0.4464
655.0,0.4268
656.0,0.3804
657.0,0.391
658.0,0.44
659.0,0.4439
660.0,0.4462
661.0,0.4495
662.0,0.4494
663.0,0.4409
664.0,0.4478
665.0,0.4494
666.0,0.4503
667.0,0.4505
668.0,0.4514
669.0,0.4588
670.0,0.4571
671.0,0.4573
672.0,0.4537
673.0,0.4608
674.0,0.4593
675.0,0.4554
676.0,0.4588
677.0,0.4545
678.0,0.456
679.0,0.4489
680.0,0.4526
681.0,0.4497
682.0,0.4492
683.0,0.4484
684.0,0.4461
685.0,0.4502
686.0,0.4472
687.0,0.2296
688.0,0.2984
689.0,0.3005
690.0,0.3259
691.0,0.3556
692.0,0.379
693.0,0.3752
694.0,0.3734
695.0,0.3975
696.0,0.3985
697.0,0.4329
698.0,0.426
699.0,0.409
700.0,0.4037
701.0,0.3969
702.0,0.4024
703.0,0.4037
704.0,0.4208
705.0,0.4213
706.0,0.4225
707.0,0.4235
708.0,0.4243
709.0,0.4277
710.0,0.4262
711.0,0.4266
712.0,0.4266
713.0,0.4211
714.0,0.4231
715.0,0.4069
716.0,0.4064
717.0,0.3277
718.0,0.2987
719.0,0.2717
720.0,0.2821
721.0,0.3256
722.0,0.3878
723.0,0.3534
724.0,0.3091
725.0,0.3011
726.0,0.316
727.0,0.3268
728.0,0.2992
729.0,0.319
730.0,0.3358
731.0,0.3196
732.0,0.351
733.0,0.38
734.0,0.3917
735.0,0.3821
736.0,0.3813
737.0,0.3829
738.0,0.3954
739.0,0.3877
740.0,0.3998
741.0,0.397
742.0,0.3986
743.0,0.4091
744.0,0.4087
745.0,0.4094
746.0,0.4113
747.0,0.4124
748.0,0.4116
749.0,0.4069
750.0,0.4068
751.0,0.4027
752.0,0.4045
753.0,0.4066
754.0,0.4076
755.0,0.4052
756.0,0.4051
757.0,0.4057
758.0,0.4005
759.0,0.3881
760.0,0.02156
761.0,0.007873
762.0,0.1318
763.0,0.0424
764.0,0.08212
765.0,0.1316
766.0,0.1887
767.0,0.2703
768.0,0.341
769.0,0.3551
770.0,0.3752
771.0,0.3818
772.0,0.3837
773.0,0.3867
774.0,0.3851
775.0,0.3823
776.0,0.3871
777.0,0.382
778.0,0.3797
779.0,0.38
780.0,0.378
781.0,0.3784
782.0,0.3808
783.0,0.3743
784.0,0.3763
785.0,0.3732
786.0,0.377
787.0,0.3672
788.0,0.3611
789.0,0.3609
790.0,0.3469
791.0,0.3543
792.0,0.3523
793.0,0.3461
794.0,0.3565
795.0,0.3613
796.0,0.3441
797.0,0.3441
798.0,0.3602
799.0,0.3567
800.0,0.3491
801.0,0.3466
802.0,0.3455
803.0,0.3421
804.0,0.3433
805.0,0.344
806.0,0.3567
807.0,0.3518
808.0,0.3523
809.0,0.3434
810.0,0.3391
811.0,0.3363
812.0,0.3225
813.0,0.314
814.0,0.2647
815.0,0.2638
816.0,0.2441
817.0,0.2494
818.0,0.2374
819.0,0.2753
820.0,0.2557
821.0,0.3136
822.0,0.3023
823.0,0.1836
824.0,0.2879
825.0,0.3081
826.0,0.2916
827.0,0.3127
828.0,0.2511
829.0,0.2909
830.0,0.2859
831.0,0.287
832.0,0.2757
833.0,0.2998
834.0,0.2848
835.0,0.3231
836.0,0.3024
837.0,0.3243
838.0,0.3106
839.0,0.32
840.0,0.3279
841.0,0.3217
842.0,0.3247
843.0,0.327
844.0,0.3212
845.0,0.3337
846.0,0.3327
847.0,0.3272
848.0,0.3241
849.0,0.3149
850.0,0.3018
851.0,0.3184
852.0,0.3167
853.0,0.3058
854.0,0.2632
855.0,0.2903
856.0,0.3168
857.0,0.3246
858.0,0.3218
859.0,0.3226
860.0,0.3235
861.0,0.3217
862.0,0.3269
863.0,0.3346
864.0,0.318
865.0,0.3153
866.0,0.2835
867.0,0.2959
868.0,0.322
869.0,0.3154
870.0,0.3244
871.0,0.32
872.0,0.3189
873.0,0.3183
874.0,0.3145
875.0,0.3081
876.0,0.3112
877.0,0.3145
878.0,0.3177
879.0,0.3128
880.0,0.3062
881.0,0.301
882.0,0.3073
883.0,0.3088
884.0,0.3072
885.0,0.3095
886.0,0.293
887.0,0.2977
888.0,0.3012
889.0,0.3063
890.0,0.3016
891.0,0.3022
892.0,0.2907
893.0,0.279
894.0,0.2635
895.0,0.2419
896.0,0.226
897.0,0.1861
898.0,0.207
899.0,0.1485
900.0,0.2172
901.0,0.1555
902.0,0.1946
903.0,0.1922
904.0,0.2614
905.0,0.2499
906.0,0.2316
907.0,0.175
908.0,0.1811
909.0,0.2013
910.0,0.1681
911.0,0.1865
912.0,0.1957
913.0,0.1701
914.0,0.1707
915.0,0.1842
916.0,0.1546
917.0,0.2058
918.0,0.1577
919.0,0.213
920.0,0.2225
921.0,0.231
922.0,0.1992
923.0,0.224
924.0,0.2023
925.0,0.1984
926.0,0.1993
927.0,0.2303
928.0,0.1484
929.0,0.1301
930.0,0.09392
931.0,0.08922
932.0,0.05611
933.0,0.04218
934.0,0.0165
935.0,0.04585
936.0,0.02411
937.0,0.02423
938.0,0.03138
939.0,0.08623
940.0,0.1099
941.0,0.07519
942.0,0.0911
943.0,0.05409
944.0,0.06286
945.0,0.07923
946.0,0.03272
947.0,0.07748
948.0,0.05618
949.0,0.1115
950.0,0.02078
951.0,0.1108
952.0,0.04999
953.0,0.07086
954.0,0.09417
955.0,0.07245
956.0,0.07751
957.0,0.04952
958.0,0.1181
959.0,0.08465
960.0,0.09489
961.0,0.1138
962.0,0.1073
963.0,0.1301
964.0,0.1174
965.0,0.1296
966.0,0.1287
967.0,0.1272
968.0,0.1963
969.0,0.2012
970.0,0.1824
971.0,0.2202
972.0,0.2081
973.0,0.1697
974.0,0.1601
975.0,0.17
976.0,0.155
977.0,0.1898
978.0,0.1747
979.0,0.1862
980.0,0.1734
981.0,0.2192
982.0,0.2053
983.0,0.1949
984.0,0.2312
985.0,0.2044
986.0,0.2386
987.0,0.2301
988.0,0.23
989.0,0.2401
990.0,0.2284
991.0,0.2404
992.0,0.2421
993.0,0.233
994.0,0.2425
995.0,0.2427
996.0,0.2411
997.0,0.2417
998.0,0.2404
999.0,0.2396
1000.0,0.2371
1001.0,0.241
1002.0,0.2306
1003.0,0.2366
1004.0,0.2298
1005.0,0.2227
1006.0,0.2307
1007.0,0.236
1008.0,0.234
1009.0,0.232
1010.0,0.2307
1011.0,0.2349
1012.0,0.2321
1013.0,0.2345
1014.0,0.2329
1015.0,0.2312
1016.0,0.2301
1017.0,0.2305
1018.0,0.2301
1019.0,0.2238
1020.0,0.2287
1021.0,0.2286
1022.0,0.2263
1023.0,0.2286
1024.0,0.2242
1025.0,0.229
1026.0,0.2276
1027.0,0.2272
1028.0,0.2266
1029.0,0.2238
1030.0,0.2258
1031.0,0.2247
1032.0,0.2242
1033.0,0.2208
1034.0,0.2209
1035.0,0.2216
1036.0,0.2225
1037.0,0.219
1038.0,0.2199
1039.0,0.2197
1040.0,0.2188
1041.0,0.2195
1042.0,0.2179
1043.0,0.2172
1044.0,0.2178
1045.0,0.2148
1046.0,0.2123
1047.0,0.2141
1048.0,0.2152
1049.0,0.2143
1050.0,0.2132
1051.0,0.2127
1052.0,0.2117
1053.0,0.2099
1054.0,0.2101
1055.0,0.21
1056.0,0.209
1057.0,0.2082
1058.0,0.2029
1059.0,0.2028
1060.0,0.2024
1061.0,0.2021
1062.0,0.2029
1063.0,0.2007
1064.0,0.2031
1065.0,0.2011
1066.0,0.1976
1067.0,0.2
1068.0,0.1952
1069.0,0.1895
1070.0,0.1956
1071.0,0.1999
1072.0,0.1966
1073.0,0.194
1074.0,0.2005
1075.0,0.1867
1076.0,0.2001
1077.0,0.1944
1078.0,0.1897
1079.0,0.1976
1080.0,0.1915
1081.0,0.1834
1082.0,0.1896
1083.0,0.1911
1084.0,0.1823
1085.0,0.1922
1086.0,0.1705
1087.0,0.1792
1088.0,0.1902
1089.0,0.1807
1090.0,0.175
1091.0,0.1887
1092.0,0.1889
1093.0,0.1507
1094.0,0.1716
1095.0,0.1575
1096.0,0.1482
1097.0,0.1846
1098.0,0.1445
1099.0,0.1521
1100.0,0.1378
1101.0,0.1408
1102.0,0.1319
1103.0,0.1288
1104.0,0.1292
1105.0,0.1478
1106.0,0.0984
1107.0,0.1377
1108.0,0.108
1109.0,0.1097
1110.0,0.1347
1111.0,0.07987
1112.0,0.1094
1113.0,0.05872
1114.0,0.06613
1115.0,0.05401
1116.0,0.0375
1117.0,0.009045
1118.0,0.04215
1119.0,0.0165
1120.0,0.02014
1121.0,0.02899
1122.0,0.008882
1123.0,0.01838
1124.0,0.01545
1125.0,0.02126
1126.0,0.004385
1127.0,0.02428
1128.0,0.01096
1129.0,0.01196
1130.0,0.007202
1131.0,0.05637
1132.0,0.04214
1133.0,0.02123
1134.0,0.003296
1135.0,0.001377
1136.0,0.01594
1137.0,0.05319
1138.0,0.03645
1139.0,0.06694
1140.0,0.05106
1141.0,0.0348
1142.0,0.04226
1143.0,0.06558
1144.0,0.01755
1145.0,0.02046
1146.0,0.02201
1147.0,0.004827
1148.0,0.05601
1149.0,0.04126
1150.0,0.01998
1151.0,0.03617
1152.0,0.04868
1153.0,0.05081
1154.0,0.02011
1155.0,0.06966
1156.0,0.0601
1157.0,0.07281
1158.0,0.07181
1159.0,0.08026
1160.0,0.06626
1161.0,0.08895
1162.0,0.08862
1163.0,0.1333
1164.0,0.1095
1165.0,0.09842
1166.0,0.1018
1167.0,0.1132
1168.0,0.1133
1169.0,0.1173
1170.0,0.1318
1171.0,0.1283
1172.0,0.1335
1173.0,0.1316
1174.0,0.08447
1175.0,0.131
1176.0,0.1499
1177.0,0.1399
1178.0,0.09781
1179.0,0.1511
1180.0,0.1287
1181.0,0.133
1182.0,0.08359
1183.0,0.1322
1184.0,0.1211
1185.0,0.1143
1186.0,0.1441
1187.0,0.1345
1188.0,0.08352
1189.0,0.1249
1190.0,0.1414
1191.0,0.1288
1192.0,0.1439
1193.0,0.1361
1194.0,0.1415
1195.0,0.1301
1196.0,0.1232
1197.0,0.1431
1198.0,0.1292
1199.0,0.1022
1200.0,0.1343
1201.0,0.1267
1202.0,0.1283
1203.0,0.1258
1204.0,0.1068
1205.0,0.1334
1206.0,0.1511
1207.0,0.1268
1208.0,0.1272
1209.0,0.1302
1210.0,0.1374
1211.0,0.1281
1212.0,0.1224
1213.0,0.1441
1214.0,0.1269
1215.0,0.124
1216.0,0.1441
1217.0,0.1388
1218.0,0.1428
1219.0,0.1401
1220.0,0.1431
1221.0,0.1454
1222.0,0.141
1223.0,0.139
1224.0,0.1366
1225.0,0.1442
1226.0,0.1463
1227.0,0.131
1228.0,0.148
1229.0,0.1463
1230.0,0.1431
1231.0,0.1498
1232.0,0.1488
1233.0,0.1402
1234.0,0.1505
1235.0,0.149
1236.0,0.1505
1237.0,0.1469
1238.0,0.15
1239.0,0.148
1240.0,0.1488
1241.0,0.1472
1242.0,0.1477
1243.0,0.1465
1244.0,0.1473
1245.0,0.1481
1246.0,0.1472
1247.0,0.1464
1248.0,0.1459
1249.0,0.1467
1250.0,0.1456
1251.0,0.1431
1252.0,0.1439
1253.0,0.1414
1254.0,0.1391
1255.0,0.1434
1256.0,0.137
1257.0,0.1358
1258.0,0.1402
1259.0,0.1315
1260.0,0.1326
1261.0,0.1208
1262.0,0.1149
1263.0,0.115
1264.0,0.1011
1265.0,0.1143
1266.0,0.107
1267.0,0.111
1268.0,0.1019
1269.0,0.04512
1270.0,0.1097
1271.0,0.1209
1272.0,0.1218
1273.0,0.12
1274.0,0.1211
1275.0,0.1236
1276.0,0.1257
1277.0,0.1277
1278.0,0.1319
1279.0,0.1306
1280.0,0.1291
1281.0,0.124
1282.0,0.1208
1283.0,0.1299
1284.0,0.1327
1285.0,0.1338
1286.0,0.1364
1287.0,0.1329
1288.0,0.1333
1289.0,0.1263
1290.0,0.1322
1291.0,0.1346
1292.0,0.1214
1293.0,0.1308
1294.0,0.1297
1295.0,0.1274
1296.0,0.1186
1297.0,0.11
1298.0,0.1232
1299.0,0.1314
1300.0,0.1035
1301.0,0.108
1302.0,0.1229
1303.0,0.1029
1304.0,0.0809
1305.0,0.12
1306.0,0.1193
1307.0,0.0852
1308.0,0.1043
1309.0,0.1172
1310.0,0.08296
1311.0,0.09838
1312.0,0.09474
1313.0,0.09125
1314.0,0.07919
1315.0,0.07663
1316.0,0.09548
1317.0,0.08947
1318.0,0.1002
1319.0,0.07013
1320.0,0.06956
1321.0,0.08393
1322.0,0.08322
1323.0,0.05611
1324.0,0.06912
1325.0,0.09324
1326.0,0.07594
1327.0,0.07126
1328.0,0.05917
1329.0,0.0389
1330.0,0.05356
1331.0,0.02658
1332.0,0.02909
1333.0,0.04156
1334.0,0.03901
1335.0,0.05535
1336.0,0.04039
1337.0,0.03481
1338.0,0.03729
1339.0,0.03791
1340.0,0.0386
1341.0,0.0336
1342.0,0.03582
1343.0,0.01806
1344.0,0.01142
1345.0,0.01605
1346.0,0.005105
1347.0,0.004733
1348.0,0.0001226
1349.0,0.0005451
1350.0,0.0006568
1351.0,6.835e-05
1352.0,6.23e-06
1353.0,1.602e-07
1354.0,9.633e-07
1355.0,2.072e-09
1356.0,7.715e-08
1357.0,1.165e-07
1358.0,2.521e-09
1359.0,2.212e-10
1360.0,9.512e-10
1361.0,8.276e-13
1362.0,2.251e-15
1363.0,1.103e-09
1364.0,4.693e-10
1365.0,7.845e-16
1366.0,5.084e-09
1367.0,2.383e-09
1368.0,6.056e-18
1369.0,1.733e-10
1370.0,7.909e-11
1371.0,4.33e-12
1372.0,1.326e-09
1373.0,4.132e-08
1374.0,3.157e-07
1375.0,4.828e-07
1376.0,9.01e-07
1377.0,3.703e-07
1378.0,3.935e-06
1379.0,1.613e-07
1380.0,1.445e-07
1381.0,3.178e-09
1382.0,1.099e-09
1383.0,1.519e-11
1384.0,1.808e-10
1385.0,1.453e-09
1386.0,8.621e-10
1387.0,2.026e-07
1388.0,5.477e-09
1389.0,1.407e-06
1390.0,1.107e-06
1391.0,7.175e-07
1392.0,4.584e-08
1393.0,3.218e-07
1394.0,6.037e-08
1395.0,3.478e-10
1396.0,1.085e-12
1397.0,1.017e-07
1398.0,3.88e-06
1399.0,2.625e-06
1400.0,4.594e-13
1401.0,1.937e-12
1402.0,2.393e-05
1403.0,2.313e-05
1404.0,6.14e-06
1405.0,1.366e-10
1406.0,1.044e-05
1407.0,1.643e-06
1408.0,9.332e-06
1409.0,1.741e-06
1410.0,2.489e-06
1411.0,2.155e-05
1412.0,3.963e-05
1413.0,0.0008435
1414.0,2.176e-06
1415.0,8.155e-07
1416.0,0.002578
1417.0,0.0004903
1418.0,0.0004275
1419.0,5.964e-05
1420.0,0.000257
1421.0,0.0003391
1422.0,0.003368
1423.0,0.0005985
1424.0,0.001266
1425.0,0.001582
1426.0,0.002345
1427.0,0.005386
1428.0,0.0001028
1429.0,0.003327
1430.0,0.007648
1431.0,0.008904
