interpolation:linear
wavelength,value
280.0,2.917e-20
280.5,8.37e-19
281.0,4.291e-18
281.5,4.237e-19
282.0,1.765e-18
282.5,4.947e-18
283.0,1.642e-17
283.5,2.706e-17
284.0,4.286e-16
284.5,1.213e-15
285.0,2.009e-15
285.5,1.18e-14
286.0,4.961e-14
286.5,2.339e-13
287.0,6.851e-13
287.5,2.672e-12
288.0,8.267e-12
288.5,3.23e-11
289.0,1.068e-10
289.5,3.946e-10
290.0,1.273e-09
290.5,2.929e-09
291.0,7.203e-09
291.5,2.432e-08
292.0,6.713e-08
292.5,1.062e-07
293.0,2.658e-07
293.5,8.033e-07
294.0,1.479e-06
294.5,1.953e-06
295.0,3.864e-06
295.5,9.655e-06
296.0,1.86e-05
296.5,2.595e-05
297.0,3.505e-05
297.5,9.355e-05
298.0,0.0001468
298.5,0.0001471
299.0,0.0003231
299.5,0.0005318
300.0,0.0005825
300.5,0.0008401
301.0,0.001509
301.5,0.002392
302.0,0.002043
302.5,0.003879
303.0,0.006712
303.5,0.008248
304.0,0.007615
304.5,0.01085
305.0,0.01543
305.5,0.01698
306.0,0.01618
306.5,0.01964
307.0,0.02753
307.5,0.03469
308.0,0.03633
308.5,0.0418
309.0,0.04044
309.5,0.04462
310.0,0.04407
310.5,0.07077
311.0,0.08759
311.5,0.08403
312.0,0.08146
312.5,0.09709
313.0,0.1042
313.5,0.1022
314.0,0.1246
314.5,0.1068
315.0,0.1396
315.5,0.1186
316.0,0.1008
316.5,0.1415
317.0,0.1757
317.5,0.184
318.0,0.1413
318.5,0.1701
319.0,0.1987
319.5,0.1661
320.0,0.2014
320.5,0.2442
321.0,0.2114
321.5,0.2021
322.0,0.222
322.5,0.1928
323.0,0.1883
323.5,0.2271
324.0,0.2642
324.5,0.2703
325.0,0.236
325.5,0.2987
326.0,0.3634
326.5,0.36
327.0,0.3602
327.5,0.3496
328.0,0.3157
328.5,0.3262
329.0,0.3852
329.5,0.4354
330.0,0.4407
330.5,0.3564
331.0,0.3644
331.5,0.3674
332.0,0.3924
332.5,0.3862
333.0,0.3862
333.5,0.3524
334.0,0.3615
334.5,0.4132
335.0,0.3861
335.5,0.451
336.0,0.312
336.5,0.3663
337.0,0.3017
337.5,0.3758
338.0,0.3641
338.5,0.4201
339.0,0.4157
339.5,0.3998
340.0,0.47
340.5,0.4233
341.0,0.4129
341.5,0.379
342.0,0.4528
342.5,0.4236
343.0,0.4659
343.5,0.4388
344.0,0.3242
344.5,0.3275
345.0,0.4333
345.5,0.4422
346.0,0.3758
346.5,0.4254
347.0,0.4568
347.5,0.3693
348.0,0.4209
348.5,0.4207
349.0,0.3902
349.5,0.3863
350.0,0.4778
350.5,0.5039
351.0,0.4502
351.5,0.4377
352.0,0.47
352.5,0.3667
353.0,0.4618
353.5,0.4937
354.0,0.5125
354.5,0.5198
355.0,0.5181
355.5,0.468
356.0,0.4896
356.5,0.4181
357.0,0.3455
357.5,0.4229
358.0,0.3352
358.5,0.2864
359.0,0.4006
359.5,0.5106
360.0,0.5413
360.5,0.4326
361.0,0.3943
361.5,0.454
362.0,0.3925
362.5,0.5432
363.0,0.4878
363.5,0.4493
364.0,0.5495
364.5,0.4697
365.0,0.4783
365.5,0.6004
366.0,0.6361
366.5,0.5976
367.0,0.582
367.5,0.604
368.0,0.5285
368.5,0.5333
369.0,0.5759
369.5,0.6139
370.0,0.6544
370.5,0.5079
371.0,0.5427
371.5,0.679
372.0,0.4507
372.5,0.5404
373.0,0.5496
373.5,0.3576
374.0,0.5197
374.5,0.4304
375.0,0.4184
375.5,0.6246
376.0,0.5178
376.5,0.5366
377.0,0.5682
377.5,0.6647
378.0,0.7206
378.5,0.6811
379.0,0.5621
379.5,0.5135
380.0,0.5339
380.5,0.6467
381.0,0.6481
381.5,0.5137
382.0,0.4562
382.5,0.3889
383.0,0.36
383.5,0.3468
384.0,0.3825
384.5,0.5627
385.0,0.558
385.5,0.5197
386.0,0.4451
386.5,0.5846
387.0,0.4858
387.5,0.5457
388.0,0.5039
388.5,0.4981
389.0,0.5377
389.5,0.6512
390.0,0.6536
390.5,0.6015
391.0,0.7081
391.5,0.7222
392.0,0.6083
392.5,0.5446
393.0,0.303
393.5,0.2203
394.0,0.4483
394.5,0.57
395.0,0.6955
395.5,0.7066
396.0,0.6126
396.5,0.3581
397.0,0.2688
397.5,0.5466
398.0,0.7655
398.5,0.7912
399.0,0.8567
399.5,0.854
400.0,0.8868
401.0,0.9009
402.0,0.9504
403.0,0.9028
404.0,0.8889
405.0,0.8888
406.0,0.8743
407.0,0.8602
408.0,0.8938
409.0,0.9567
410.0,0.8359
411.0,0.9054
412.0,0.9723
413.0,0.9483
414.0,0.9599
415.0,0.9623
416.0,0.9791
417.0,0.955
418.0,0.9374
419.0,0.9496
420.0,0.9455
421.0,0.9891
422.0,0.9401
423.0,0.9183
424.0,0.9713
425.0,0.9694
426.0,0.9441
427.0,0.9265
428.0,0.9025
429.0,0.8547
430.0,0.7479
431.0,0.7414
432.0,0.9571
433.0,0.9623
434.0,0.8936
435.0,0.9333
436.0,1.051
437.0,1.037
438.0,0.9443
439.0,0.9769
440.0,1.008
441.0,1.044
442.0,1.12
443.0,1.091
444.0,1.114
445.0,1.09
446.0,1.04
447.0,1.124
448.0,1.142
449.0,1.146
450.0,1.178
451.0,1.222
452.0,1.177
453.0,1.107
454.0,1.155
455.0,1.163
456.0,1.19
457.0,1.21
458.0,1.169
459.0,1.163
460.0,1.166
461.0,1.193
462.0,1.202
463.0,1.194
464.0,1.173
465.0,1.158
466.0,1.169
467.0,1.148
468.0,1.162
469.0,1.168
470.0,1.13
471.0,1.129
472.0,1.19
473.0,1.174
474.0,1.176
475.0,1.186
476.0,1.151
477.0,1.155
478.0,1.187
479.0,1.179
480.0,1.181
481.0,1.203
482.0,1.209
483.0,1.194
484.0,1.169
485.0,1.114
486.0,0.9734
487.0,1.02
488.0,1.119
489.0,1.123
490.0,1.181
491.0,1.16
492.0,1.096
493.0,1.131
494.0,1.143
495.0,1.152
496.0,1.16
497.0,1.178
498.0,1.122
499.0,1.137
500.0,1.104
501.0,1.084
502.0,1.069
503.0,1.113
504.0,1.087
505.0,1.124
506.0,1.161
507.0,1.104
508.0,1.069
509.0,1.099
510.0,1.093
511.0,1.122
512.0,1.134
513.0,1.073
514.0,1.066
515.0,1.055
516.0,1.053
517.0,0.9352
518.0,0.9832
519.0,1.031
520.0,1.069
521.0,1.079
522.0,1.08
523.0,1.061
524.0,1.099
525.0,1.112
526.0,1.063
527.0,1.002
528.0,1.06
529.0,1.117
530.0,1.101
531.0,1.118
532.0,1.079
533.0,1.048
534.0,1.079
535.0,1.102
536.0,1.112
537.0,1.068
538.0,1.087
539.0,1.077
540.0,1.033
541.0,1.04
542.0,1.073
543.0,1.062
544.0,1.08
545.0,1.077
546.0,1.082
547.0,1.081
548.0,1.068
549.0,1.071
550.0,1.084
551.0,1.071
552.0,1.078
553.0,1.059
554.0,1.084
555.0,1.087
556.0,1.072
557.0,1.039
558.0,1.032
559.0,1.013
560.0,1.025
561.0,1.039
562.0,1.032
563.0,1.06
564.0,1.031
565.0,1.023
566.0,1.008
567.0,1.027
568.0,1.019
569.0,0.996
570.0,0.9956
571.0,0.9892
572.0,1.014
573.0,1.025
574.0,1.022
575.0,1.003
576.0,0.9939
577.0,1.005
578.0,0.9891
579.0,0.9924
580.0,1.01
581.0,1.015
582.0,1.033
583.0,1.035
584.0,1.044
585.0,1.018
586.0,0.9973
587.0,1.02
588.0,0.9965
589.0,0.8863
590.0,0.9265
591.0,0.9784
592.0,0.9672
593.0,0.98
594.0,0.9739
595.0,0.951
596.0,0.9858
597.0,0.9757
598.0,0.9724
599.0,0.9729
600.0,0.9736
601.0,0.9652
602.0,0.9585
603.0,0.9741
604.0,0.9901
605.0,0.9849
606.0,0.9805
607.0,0.9899
608.0,0.9787
609.0,0.9802
610.0,0.9729
611.0,0.9778
612.0,0.9748
613.0,0.9624
614.0,0.949
615.0,0.9694
616.0,0.9373
617.0,0.9353
618.0,0.9711
619.0,0.9612
620.0,0.9673
621.0,0.9685
622.0,0.9574
623.0,0.943
624.0,0.9266
625.0,0.9245
626.0,0.9383
627.0,0.9494
628.0,0.8938
629.0,0.9294
630.0,0.9082
631.0,0.9263
632.0,0.9148
633.0,0.9416
634.0,0.9316
635.0,0.9457
636.0,0.9328
637.0,0.9477
638.0,0.9563
639.0,0.9453
640.0,0.9358
641.0,0.935
642.0,0.9304
643.0,0.9429
644.0,0.9396
645.0,0.9413
646.0,0.9202
647.0,0.9112
648.0,0.9122
649.0,0.8947
650.0,0.8965
651.0,0.9349
652.0,0.8987
653.0,0.9224
654.0,0.9119
655.0,0.8793
656.0,0.7783
657.0,0.7992
658.0,0.8949
659.0,0.9009
660.0,0.9045
661.0,0.9108
662.0,0.9132
663.0,0.8949
664.0,0.9048
665.0,0.905
666.0,0.9055
667.0,0.9043
668.0,0.9045
669.0,0.9183
670.0,0.9142
671.0,0.9139
672.0,0.9059
673.0,0.9195
674.0,0.9159
675.0,0.9075
676.0,0.9136
677.0,0.9045
678.0,0.9069
679.0,0.8922
680.0,0.8993
681.0,0.8933
682.0,0.8922
683.0,0.8904
684.0,0.886
685.0,0.8935
686.0,0.8883
687.0,0.6211
688.0,0.7128
689.0,0.7149
690.0,0.7448
691.0,0.7783
692.0,0.8022
693.0,0.7961
694.0,0.7894
695.0,0.8183
696.0,0.8194
697.0,0.8648
698.0,0.8515
699.0,0.8342
700.0,0.8242
701.0,0.8169
702.0,0.8213
703.0,0.8228
704.0,0.8473
705.0,0.8486
706.0,0.8471
707.0,0.8474
708.0,0.8493
709.0,0.8494
710.0,0.8499
711.0,0.8484
712.0,0.8453
713.0,0.8373
714.0,0.8403
715.0,0.815
716.0,0.8158
717.0,0.719
718.0,0.6623
719.0,0.6079
720.0,0.6376
721.0,0.6967
722.0,0.7894
723.0,0.7389
724.0,0.6703
725.0,0.6611
726.0,0.6913
727.0,0.6984
728.0,0.66
729.0,0.6806
730.0,0.7201
731.0,0.6902
732.0,0.734
733.0,0.7728
734.0,0.79
735.0,0.7743
736.0,0.7732
737.0,0.7764
738.0,0.7856
739.0,0.7702
740.0,0.7894
741.0,0.781
742.0,0.7813
743.0,0.801
744.0,0.7984
745.0,0.7983
746.0,0.802
747.0,0.8037
748.0,0.802
749.0,0.7928
750.0,0.7923
751.0,0.7843
752.0,0.7876
753.0,0.7915
754.0,0.7933
755.0,0.7888
756.0,0.7885
757.0,0.7896
758.0,0.7798
759.0,0.7656
760.0,0.1578
761.0,0.08923
762.0,0.4229
763.0,0.2295
764.0,0.3289
765.0,0.4231
766.0,0.5047
767.0,0.6223
768.0,0.7066
769.0,0.7189
770.0,0.7405
771.0,0.7452
772.0,0.7463
773.0,0.7515
774.0,0.7477
775.0,0.742
776.0,0.751
777.0,0.7411
778.0,0.7366
779.0,0.7372
780.0,0.733
781.0,0.7338
782.0,0.7383
783.0,0.7254
784.0,0.7289
785.0,0.7236
786.0,0.7317
787.0,0.7201
788.0,0.7117
789.0,0.7116
790.0,0.6944
791.0,0.6987
792.0,0.6933
793.0,0.6823
794.0,0.6922
795.0,0.7043
796.0,0.6851
797.0,0.686
798.0,0.7037
799.0,0.6997
800.0,0.6881
801.0,0.6865
802.0,0.6845
803.0,0.6796
804.0,0.6802
805.0,0.6774
806.0,0.6953
807.0,0.6872
808.0,0.6877
809.0,0.6756
810.0,0.6707
811.0,0.6727
812.0,0.6551
813.0,0.6425
814.0,0.5708
815.0,0.5671
816.0,0.5285
817.0,0.5376
818.0,0.5187
819.0,0.5751
820.0,0.5435
821.0,0.6287
822.0,0.6118
823.0,0.4265
824.0,0.5963
825.0,0.6181
826.0,0.5966
827.0,0.6275
828.0,0.5379
829.0,0.5926
830.0,0.5854
831.0,0.5873
832.0,0.5703
833.0,0.6038
834.0,0.5844
835.0,0.6378
836.0,0.6131
837.0,0.6394
838.0,0.6207
839.0,0.6295
840.0,0.643
841.0,0.6343
842.0,0.635
843.0,0.6338
844.0,0.6254
845.0,0.646
846.0,0.643
847.0,0.6308
848.0,0.6272
849.0,0.6094
850.0,0.5838
851.0,0.6185
852.0,0.614
853.0,0.5907
854.0,0.5103
855.0,0.5603
856.0,0.6124
857.0,0.6259
858.0,0.6213
859.0,0.6217
860.0,0.6227
861.0,0.6194
862.0,0.6291
863.0,0.6439
864.0,0.6117
865.0,0.6063
866.0,0.5452
867.0,0.5689
868.0,0.6191
869.0,0.6062
870.0,0.6235
871.0,0.615
872.0,0.6128
873.0,0.6116
874.0,0.6043
875.0,0.5921
876.0,0.5983
877.0,0.6043
878.0,0.6109
879.0,0.6015
880.0,0.5886
881.0,0.5799
882.0,0.5925
883.0,0.5942
884.0,0.5916
885.0,0.596
886.0,0.5686
887.0,0.5742
888.0,0.5829
889.0,0.5891
890.0,0.5847
891.0,0.5834
892.0,0.5673
893.0,0.5504
894.0,0.5327
895.0,0.5055
896.0,0.4771
897.0,0.4126
898.0,0.4487
899.0,0.3447
900.0,0.4577
901.0,0.3612
902.0,0.4193
903.0,0.425
904.0,0.5287
905.0,0.5114
906.0,0.4794
907.0,0.3937
908.0,0.4009
909.0,0.4323
910.0,0.3858
911.0,0.4091
912.0,0.4269
913.0,0.3917
914.0,0.3878
915.0,0.4201
916.0,0.3566
917.0,0.4487
918.0,0.3657
919.0,0.4559
920.0,0.4587
921.0,0.4767
922.0,0.4287
923.0,0.4604
924.0,0.4396
925.0,0.4301
926.0,0.4348
927.0,0.4844
928.0,0.362
929.0,0.3323
930.0,0.2638
931.0,0.2495
932.0,0.1824
933.0,0.1497
934.0,0.08509
935.0,0.152
936.0,0.09679
937.0,0.09833
938.0,0.1202
939.0,0.2418
940.0,0.289
941.0,0.2206
942.0,0.2539
943.0,0.1689
944.0,0.1761
945.0,0.227
946.0,0.1181
947.0,0.2287
948.0,0.1684
949.0,0.3036
950.0,0.0883
951.0,0.2985
952.0,0.1637
953.0,0.2093
954.0,0.2542
955.0,0.2114
956.0,0.2039
957.0,0.1643
958.0,0.2856
959.0,0.2295
960.0,0.2572
961.0,0.2867
962.0,0.2715
963.0,0.3112
964.0,0.2857
965.0,0.3099
966.0,0.3103
967.0,0.3092
968.0,0.4084
969.0,0.4271
970.0,0.393
971.0,0.4472
972.0,0.4283
973.0,0.3756
974.0,0.3569
975.0,0.3694
976.0,0.3522
977.0,0.398
978.0,0.3793
979.0,0.3964
980.0,0.3732
981.0,0.4445
982.0,0.426
983.0,0.4096
984.0,0.4569
985.0,0.4244
986.0,0.4643
987.0,0.456
988.0,0.4551
989.0,0.4625
990.0,0.4523
991.0,0.4639
992.0,0.4665
993.0,0.4569
994.0,0.4663
995.0,0.4657
996.0,0.4637
997.0,0.4643
998.0,0.4622
999.0,0.4605
1000.0,0.4574
1001.0,0.4629
1002.0,0.4508
1003.0,0.4548
1004.0,0.4438
1005.0,0.4273
1006.0,0.4441
1007.0,0.4535
1008.0,0.4511
1009.0,0.4489
1010.0,0.447
1011.0,0.4512
1012.0,0.4474
1013.0,0.45
1014.0,0.4469
1015.0,0.4439
1016.0,0.442
1017.0,0.4431
1018.0,0.4414
1019.0,0.4322
1020.0,0.4391
1021.0,0.4384
1022.0,0.4351
1023.0,0.4397
1024.0,0.4343
1025.0,0.4393
1026.0,0.4375
1027.0,0.4365
1028.0,0.4356
1029.0,0.4305
1030.0,0.4333
1031.0,0.4316
1032.0,0.4304
1033.0,0.4239
1034.0,0.4239
1035.0,0.4252
1036.0,0.4274
1037.0,0.4205
1038.0,0.4224
1039.0,0.4221
1040.0,0.4204
1041.0,0.4221
1042.0,0.4192
1043.0,0.4179
1044.0,0.4193
1045.0,0.4137
1046.0,0.4091
1047.0,0.4128
1048.0,0.4151
1049.0,0.4136
1050.0,0.4117
1051.0,0.4112
1052.0,0.4095
1053.0,0.4063
1054.0,0.4072
1055.0,0.4075
1056.0,0.4061
1057.0,0.4049
1058.0,0.395
1059.0,0.3954
1060.0,0.3948
1061.0,0.3944
1062.0,0.3965
1063.0,0.3926
1064.0,0.3973
1065.0,0.3945
1066.0,0.3866
1067.0,0.3916
1068.0,0.3831
1069.0,0.3713
1070.0,0.3839
1071.0,0.3897
1072.0,0.3853
1073.0,0.3798
1074.0,0.3893
1075.0,0.3705
1076.0,0.389
1077.0,0.3825
1078.0,0.3754
1079.0,0.3827
1080.0,0.3766
1081.0,0.3649
1082.0,0.3701
1083.0,0.3711
1084.0,0.3641
1085.0,0.3774
1086.0,0.3454
1087.0,0.3558
1088.0,0.3708
1089.0,0.3601
1090.0,0.3526
1091.0,0.3698
1092.0,0.3687
1093.0,0.3146
1094.0,0.3376
1095.0,0.3275
1096.0,0.3142
1097.0,0.3601
1098.0,0.3095
1099.0,0.3225
1100.0,0.3007
1101.0,0.3042
1102.0,0.2911
1103.0,0.2887
1104.0,0.289
1105.0,0.3153
1106.0,0.2446
1107.0,0.3002
1108.0,0.2565
1109.0,0.2565
1110.0,0.2978
1111.0,0.2047
1112.0,0.2544
1113.0,0.1647
1114.0,0.1838
1115.0,0.1525
1116.0,0.1234
1117.0,0.04716
1118.0,0.1337
1119.0,0.06778
1120.0,0.08539
1121.0,0.1125
1122.0,0.04856
1123.0,0.07711
1124.0,0.06511
1125.0,0.08459
1126.0,0.03067
1127.0,0.09531
1128.0,0.05834
1129.0,0.06171
1130.0,0.04114
1131.0,0.1776
1132.0,0.1399
1133.0,0.09036
1134.0,0.02408
1135.0,0.008972
1136.0,0.07597
1137.0,0.175
1138.0,0.1236
1139.0,0.1812
1140.0,0.1526
1141.0,0.1175
1142.0,0.1345
1143.0,0.1896
1144.0,0.06784
1145.0,0.0871
1146.0,0.09397
1147.0,0.03432
1148.0,0.1641
1149.0,0.1321
1150.0,0.07284
1151.0,0.1227
1152.0,0.1499
1153.0,0.1452
1154.0,0.08464
1155.0,0.189
1156.0,0.1709
1157.0,0.1907
1158.0,0.1886
1159.0,0.2026
1160.0,0.1741
1161.0,0.2125
1162.0,0.2137
1163.0,0.2849
1164.0,0.2457
1165.0,0.2332
1166.0,0.2306
1167.0,0.2504
1168.0,0.2535
1169.0,0.259
1170.0,0.2803
1171.0,0.2735
1172.0,0.2777
1173.0,0.2797
1174.0,0.2031
1175.0,0.2727
1176.0,0.2981
1177.0,0.2873
1178.0,0.2183
1179.0,0.3004
1180.0,0.2701
1181.0,0.2785
1182.0,0.195
1183.0,0.2738
1184.0,0.2576
1185.0,0.2494
1186.0,0.2928
1187.0,0.2798
1188.0,0.1986
1189.0,0.2609
1190.0,0.2861
1191.0,0.2733
1192.0,0.29
1193.0,0.2784
1194.0,0.2866
1195.0,0.2722
1196.0,0.2628
1197.0,0.2861
1198.0,0.2626
1199.0,0.2259
1200.0,0.275
1201.0,0.2661
1202.0,0.264
1203.0,0.2619
1204.0,0.2304
1205.0,0.2694
1206.0,0.2962
1207.0,0.2636
1208.0,0.2587
1209.0,0.2638
1210.0,0.2742
1211.0,0.2622
1212.0,0.2602
1213.0,0.287
1214.0,0.2659
1215.0,0.2611
1216.0,0.286
1217.0,0.279
1218.0,0.2838
1219.0,0.2805
1220.0,0.284
1221.0,0.2865
1222.0,0.2794
1223.0,0.277
1224.0,0.2757
1225.0,0.2847
1226.0,0.2863
1227.0,0.2654
1228.0,0.2874
1229.0,0.2863
1230.0,0.2817
1231.0,0.2888
1232.0,0.2871
1233.0,0.2784
1234.0,0.2883
1235.0,0.2867
1236.0,0.2886
1237.0,0.285
1238.0,0.2876
1239.0,0.284
1240.0,0.285
1241.0,0.2839
1242.0,0.2831
1243.0,0.2807
1244.0,0.2828
1245.0,0.284
1246.0,0.2823
1247.0,0.2813
1248.0,0.2812
1249.0,0.282
1250.0,0.2804
1251.0,0.2769
1252.0,0.2768
1253.0,0.2749
1254.0,0.2725
1255.0,0.2766
1256.0,0.2695
1257.0,0.2682
1258.0,0.2726
1259.0,0.2639
1260.0,0.2651
1261.0,0.2516
1262.0,0.2448
1263.0,0.2453
1264.0,0.2281
1265.0,0.2437
1266.0,0.2355
1267.0,0.2389
1268.0,0.2277
1269.0,0.1486
1270.0,0.2383
1271.0,0.2506
1272.0,0.2512
1273.0,0.2487
1274.0,0.2493
1275.0,0.2527
1276.0,0.2549
1277.0,0.2562
1278.0,0.2606
1279.0,0.2583
1280.0,0.255
1281.0,0.2431
1282.0,0.2338
1283.0,0.2519
1284.0,0.258
1285.0,0.2596
1286.0,0.2629
1287.0,0.2593
1288.0,0.2591
1289.0,0.2517
1290.0,0.2567
1291.0,0.2602
1292.0,0.246
1293.0,0.2555
1294.0,0.2538
1295.0,0.253
1296.0,0.2425
1297.0,0.2302
1298.0,0.2462
1299.0,0.2557
1300.0,0.2192
1301.0,0.2254
1302.0,0.2453
1303.0,0.216
1304.0,0.1868
1305.0,0.2405
1306.0,0.2407
1307.0,0.1899
1308.0,0.2159
1309.0,0.2391
1310.0,0.1864
1311.0,0.2076
1312.0,0.2024
1313.0,0.1989
1314.0,0.1789
1315.0,0.1772
1316.0,0.2047
1317.0,0.1942
1318.0,0.2101
1319.0,0.1672
1320.0,0.1613
1321.0,0.1869
1322.0,0.1892
1323.0,0.1448
1324.0,0.1639
1325.0,0.202
1326.0,0.1749
1327.0,0.1672
1328.0,0.1449
1329.0,0.1108
1330.0,0.1432
1331.0,0.08877
1332.0,0.09088
1333.0,0.1259
1334.0,0.1056
1335.0,0.1442
1336.0,0.1152
1337.0,0.1025
1338.0,0.1109
1339.0,0.1101
1340.0,0.1065
1341.0,0.1054
1342.0,0.1106
1343.0,0.07762
1344.0,0.04635
1345.0,0.06664
1346.0,0.03489
1347.0,0.03578
1348.0,0.002655
1349.0,0.009174
1350.0,0.009269
1351.0,0.002542
1352.0,0.0007816
1353.0,4.618e-05
1354.0,0.000145
1355.0,1.576e-06
1356.0,2.282e-05
1357.0,3.463e-05
1358.0,1.845e-06
1359.0,2.907e-07
1360.0,9.141e-07
1361.0,1.646e-09
1362.0,5.557e-12
1363.0,1.318e-06
1364.0,5.552e-07
1365.0,2.522e-12
1366.0,5.428e-06
1367.0,2.148e-06
1368.0,3.249e-14
1369.0,2.105e-07
1370.0,1.14e-07
1371.0,7.297e-09
1372.0,1.183e-06
1373.0,2.05e-05
1374.0,8.598e-05
1375.0,0.0001566
1376.0,0.0001298
1377.0,6.09e-05
1378.0,0.0005679
1379.0,2.572e-05
1380.0,3.941e-05
1381.0,1.101e-06
1382.0,1.095e-06
1383.0,1.798e-08
1384.0,2.47e-07
1385.0,9.34e-07
1386.0,1.041e-06
1387.0,9.468e-05
1388.0,1.891e-06
1389.0,0.0002875
1390.0,0.0002475
1391.0,0.0001691
1392.0,1.143e-05
1393.0,5.732e-05
1394.0,3.488e-05
1395.0,2.909e-07
1396.0,2.227e-09
1397.0,2.381e-05
1398.0,0.0006445
1399.0,0.0004082
1400.0,1.089e-09
1401.0,3.829e-09
1402.0,0.0009923
1403.0,0.001279
1404.0,0.0003942
1405.0,1.536e-07
1406.0,0.00107
1407.0,9.211e-05
1408.0,0.0008689
1409.0,0.0003145
1410.0,0.0002406
1411.0,0.001119
1412.0,0.001458
1413.0,0.01355
1414.0,0.0001882
1415.0,9.367e-05
1416.0,0.02113
1417.0,0.006738
1418.0,0.007718
1419.0,0.001214
1420.0,0.004735
1421.0,0.005129
1422.0,0.02749
1423.0,0.005415
1424.0,0.01007
1425.0,0.01494
1426.0,0.01665
1427.0,0.02992
1428.0,0.002519
1429.0,0.02269
1430.0,0.03791
1431.0,0.04146
1432.0,0.001992
1433.0,0.02662
1434.0,0.01366
1435.0,0.01407
1436.0,0.02651
1437.0,0.02031
1438.0,0.008751
1439.0,0.03578
1440.0,0.02682
1441.0,0.02073
1442.0,0.02295
1443.0,0.02838
1444.0,0.03912
1445.0,0.03096
1446.0,0.01403
1447.0,0.02208
1448.0,0.07248
