interpolation:linear
wavelength,value
280.0,1.287e-19
280.5,4.507e-20
281.0,5.806000000000001e-20
281.5,5.084e-19
282.0,2.583e-18
282.5,7.685e-18
283.0,2.646e-17
283.5,4.422e-17
284.0,7.169e-16
284.5,2.043e-15
285.0,5.243e-15
285.5,3.476e-14
286.0,1.527e-13
286.5,7.774e-13
287.0,2.396e-12
287.5,9.904e-12
288.0,3.105e-11
288.5,1.238e-10
289.0,4.181e-10
289.5,1.58e-09
290.0,5.201e-09
290.5,1.219e-08
291.0,3.064e-08
291.5,1.065e-07
292.0,2.638e-07
292.5,4.081e-07
293.0,9.889e-07
293.5,2.845e-06
294.0,5.067e-06
294.5,6.45e-06
295.0,1.219e-05
295.5,2.775e-05
296.0,5.138e-05
296.5,6.894e-05
297.0,9.014e-05
297.5,0.0002294
298.0,0.0003455
298.5,0.0003355
299.0,0.0007145
299.5,0.001114
300.0,0.001183
300.5,0.001653
301.0,0.002817
301.5,0.00425
302.0,0.003535
302.5,0.006584
303.0,0.01112
303.5,0.01346
304.0,0.01231
304.5,0.01714
305.0,0.02362
305.5,0.02549
306.0,0.02411
306.5,0.02891
307.0,0.03951
307.5,0.04861
308.0,0.0507
308.5,0.05767
309.0,0.05518
309.5,0.05989
310.0,0.0587
310.5,0.0939
311.0,0.1155
311.5,0.1104
312.0,0.1056
312.5,0.1247
313.0,0.1331
313.5,0.1311
314.0,0.1582
314.5,0.1337
315.0,0.1742
315.5,0.149
316.0,0.1252
316.5,0.1739
317.0,0.216
317.5,0.2269
318.0,0.173
318.5,0.2056
319.0,0.2386
319.5,0.2014
320.0,0.2446
320.5,0.2928
321.0,0.2505
321.5,0.2392
322.0,0.266
322.5,0.2308
323.0,0.2235
323.5,0.2674
324.0,0.3107
324.5,0.319
325.0,0.2797
325.5,0.3516
326.0,0.4267
326.5,0.4209
327.0,0.4217
327.5,0.4101
328.0,0.3724
328.5,0.382
329.0,0.4487
329.5,0.5064
330.0,0.513
330.5,0.4165
331.0,0.4264
331.5,0.4286
332.0,0.4557
332.5,0.4475
333.0,0.448
333.5,0.4101
334.0,0.4208
334.5,0.4792
335.0,0.4468
335.5,0.5217
336.0,0.3609
336.5,0.4241
337.0,0.3498
337.5,0.4358
338.0,0.421
338.5,0.4856
339.0,0.4804
339.5,0.462
340.0,0.5431
340.5,0.4889
341.0,0.4769
341.5,0.4377
342.0,0.5229
342.5,0.489
343.0,0.5379
343.5,0.5065
344.0,0.3741
344.5,0.378
345.0,0.4998
345.5,0.5101
346.0,0.4333
346.5,0.4905
347.0,0.5266
347.5,0.4257
348.0,0.4851
348.5,0.4847
349.0,0.4495
349.5,0.445
350.0,0.5502
350.5,0.5803
351.0,0.5184
351.5,0.5039
352.0,0.541
352.5,0.422
353.0,0.5313
353.5,0.568
354.0,0.5896
354.5,0.5979
355.0,0.5959
355.5,0.5381
356.0,0.5629
356.5,0.4806
357.0,0.3971
357.5,0.4861
358.0,0.3852
358.5,0.3291
359.0,0.4603
359.5,0.5867
360.0,0.6219
360.5,0.497
361.0,0.4529
361.5,0.5213
362.0,0.4506
362.5,0.6234
363.0,0.5598
363.5,0.5155
364.0,0.6303
364.5,0.5387
365.0,0.5486
365.5,0.6884
366.0,0.7292
366.5,0.685
367.0,0.667
367.5,0.6921
368.0,0.6056
368.5,0.611
369.0,0.6597
369.5,0.7031
370.0,0.7494
370.5,0.5815
371.0,0.6213
371.5,0.7773
372.0,0.5158
372.5,0.6184
373.0,0.629
373.5,0.4092
374.0,0.5945
374.5,0.4923
375.0,0.4785
375.5,0.7144
376.0,0.5922
376.5,0.6136
377.0,0.6496
377.5,0.7599
378.0,0.8237
378.5,0.7786
379.0,0.6425
379.5,0.587
380.0,0.6102
380.5,0.739
381.0,0.7404
381.5,0.5868
382.0,0.5211
382.5,0.4441
383.0,0.4111
383.5,0.3959
384.0,0.4367
384.5,0.6422
385.0,0.6368
385.5,0.593
386.0,0.5078
386.5,0.6669
387.0,0.5542
387.5,0.6224
388.0,0.5746
388.5,0.568
389.0,0.6131
389.5,0.7425
390.0,0.7451
390.5,0.6857
391.0,0.807
391.5,0.8231
392.0,0.6932
392.5,0.6206
393.0,0.3453
393.5,0.2509
394.0,0.5106
394.5,0.6491
395.0,0.7921
395.5,0.8046
396.0,0.6975
396.5,0.4077
397.0,0.3059
397.5,0.6221
398.0,0.8713
398.5,0.9006
399.0,0.9749
399.5,0.9717
400.0,1.009
401.0,1.026
402.0,1.082
403.0,1.028
404.0,1.012
405.0,1.011
406.0,0.9946
407.0,0.9783
408.0,1.017
409.0,1.088
410.0,0.9503
411.0,1.029
412.0,1.105
413.0,1.078
414.0,1.09
415.0,1.093
416.0,1.112
417.0,1.084
418.0,1.064
419.0,1.078
420.0,1.073
421.0,1.122
422.0,1.067
423.0,1.042
424.0,1.102
425.0,1.099
426.0,1.07
427.0,1.05
428.0,1.023
429.0,0.9686
430.0,0.8475
431.0,0.8401
432.0,1.084
433.0,1.09
434.0,1.012
435.0,1.057
436.0,1.191
437.0,1.174
438.0,1.069
439.0,1.106
440.0,1.141
441.0,1.182
442.0,1.267
443.0,1.235
444.0,1.261
445.0,1.234
446.0,1.177
447.0,1.272
448.0,1.292
449.0,1.296
450.0,1.332
451.0,1.381
452.0,1.331
453.0,1.251
454.0,1.306
455.0,1.314
456.0,1.345
457.0,1.367
458.0,1.321
459.0,1.314
460.0,1.317
461.0,1.347
462.0,1.357
463.0,1.348
464.0,1.325
465.0,1.308
466.0,1.32
467.0,1.296
468.0,1.311
469.0,1.318
470.0,1.276
471.0,1.274
472.0,1.343
473.0,1.325
474.0,1.328
475.0,1.34
476.0,1.3
477.0,1.304
478.0,1.34
479.0,1.332
480.0,1.334
481.0,1.358
482.0,1.364
483.0,1.347
484.0,1.319
485.0,1.256
486.0,1.098
487.0,1.15
488.0,1.262
489.0,1.266
490.0,1.331
491.0,1.308
492.0,1.235
493.0,1.276
494.0,1.288
495.0,1.299
496.0,1.307
497.0,1.327
498.0,1.265
499.0,1.282
500.0,1.245
501.0,1.222
502.0,1.206
503.0,1.256
504.0,1.227
505.0,1.268
506.0,1.31
507.0,1.246
508.0,1.206
509.0,1.239
510.0,1.232
511.0,1.265
512.0,1.278
513.0,1.21
514.0,1.201
515.0,1.189
516.0,1.186
517.0,1.054
518.0,1.108
519.0,1.162
520.0,1.205
521.0,1.216
522.0,1.218
523.0,1.196
524.0,1.239
525.0,1.254
526.0,1.198
527.0,1.13
528.0,1.195
529.0,1.26
530.0,1.242
531.0,1.261
532.0,1.218
533.0,1.182
534.0,1.217
535.0,1.243
536.0,1.254
537.0,1.204
538.0,1.226
539.0,1.215
540.0,1.165
541.0,1.174
542.0,1.211
543.0,1.198
544.0,1.219
545.0,1.215
546.0,1.221
547.0,1.22
548.0,1.205
549.0,1.208
550.0,1.223
551.0,1.208
552.0,1.216
553.0,1.195
554.0,1.223
555.0,1.226
556.0,1.21
557.0,1.173
558.0,1.164
559.0,1.143
560.0,1.157
561.0,1.173
562.0,1.165
563.0,1.197
564.0,1.165
565.0,1.155
566.0,1.139
567.0,1.161
568.0,1.152
569.0,1.127
570.0,1.126
571.0,1.119
572.0,1.148
573.0,1.16
574.0,1.157
575.0,1.136
576.0,1.125
577.0,1.137
578.0,1.12
579.0,1.123
580.0,1.142
581.0,1.147
582.0,1.167
583.0,1.169
584.0,1.179
585.0,1.149
586.0,1.126
587.0,1.151
588.0,1.127
589.0,1.005
590.0,1.05
591.0,1.107
592.0,1.096
593.0,1.109
594.0,1.102
595.0,1.077
596.0,1.115
597.0,1.104
598.0,1.099
599.0,1.1
600.0,1.1
601.0,1.09
602.0,1.082
603.0,1.1
604.0,1.118
605.0,1.112
606.0,1.107
607.0,1.117
608.0,1.104
609.0,1.106
610.0,1.097
611.0,1.103
612.0,1.099
613.0,1.085
614.0,1.07
615.0,1.092
616.0,1.056
617.0,1.054
618.0,1.094
619.0,1.083
620.0,1.09
621.0,1.091
622.0,1.079
623.0,1.063
624.0,1.044
625.0,1.042
626.0,1.057
627.0,1.07
628.0,1.014
629.0,1.05
630.0,1.026
631.0,1.045
632.0,1.031
633.0,1.061
634.0,1.049
635.0,1.064
636.0,1.049
637.0,1.066
638.0,1.075
639.0,1.063
640.0,1.052
641.0,1.051
642.0,1.045
643.0,1.059
644.0,1.055
645.0,1.057
646.0,1.034
647.0,1.026
648.0,1.027
649.0,1.008
650.0,1.008
651.0,1.05
652.0,1.012
653.0,1.036
654.0,1.024
655.0,0.9887
656.0,0.8743
657.0,0.8977
658.0,1.005
659.0,1.011
660.0,1.015
661.0,1.022
662.0,1.025
663.0,1.004
664.0,1.015
665.0,1.015
666.0,1.015
667.0,1.014
668.0,1.013
669.0,1.029
670.0,1.024
671.0,1.024
672.0,1.015
673.0,1.03
674.0,1.026
675.0,1.016
676.0,1.023
677.0,1.013
678.0,1.015
679.0,0.9988
680.0,1.007
681.0,1.0
682.0,0.9987
683.0,0.9967
684.0,0.9918
685.0,1.0
686.0,0.9944
687.0,0.7212
688.0,0.8156
689.0,0.8176
690.0,0.8478
691.0,0.8813
692.0,0.9047
693.0,0.8983
694.0,0.891
695.0,0.9205
696.0,0.9218
697.0,0.9689
698.0,0.954
699.0,0.9372
700.0,0.9261
701.0,0.9185
702.0,0.9226
703.0,0.9243
704.0,0.9502
705.0,0.9517
706.0,0.9494
707.0,0.9496
708.0,0.9518
709.0,0.9509
710.0,0.9519
711.0,0.9499
712.0,0.9461
713.0,0.9374
714.0,0.9408
715.0,0.9133
716.0,0.9145
717.0,0.8156
718.0,0.7531
719.0,0.6924
720.0,0.7268
721.0,0.7882
722.0,0.8865
723.0,0.8333
724.0,0.7598
725.0,0.7508
726.0,0.7841
727.0,0.7902
728.0,0.7499
729.0,0.7698
730.0,0.8143
731.0,0.7817
732.0,0.8276
733.0,0.8678
734.0,0.8862
735.0,0.869
736.0,0.8678
737.0,0.8715
738.0,0.8796
739.0,0.8624
740.0,0.8832
741.0,0.8734
742.0,0.8733
743.0,0.8952
744.0,0.8921
745.0,0.8918
746.0,0.8958
747.0,0.8977
748.0,0.8958
749.0,0.8855
750.0,0.8849
751.0,0.8759
752.0,0.8796
753.0,0.884
754.0,0.886
755.0,0.881
756.0,0.8806
757.0,0.8819
758.0,0.871
759.0,0.8564
760.0,0.2069
761.0,0.1239
762.0,0.501
763.0,0.2896
764.0,0.4001
765.0,0.5013
766.0,0.5851
767.0,0.7087
768.0,0.7949
769.0,0.8066
770.0,0.8283
771.0,0.8325
772.0,0.8335
773.0,0.8391
774.0,0.8349
775.0,0.8284
776.0,0.8384
777.0,0.8273
778.0,0.8224
779.0,0.823
780.0,0.8184
781.0,0.8192
782.0,0.8242
783.0,0.8098
784.0,0.8136
785.0,0.8078
786.0,0.8169
787.0,0.805
788.0,0.7961
789.0,0.7961
790.0,0.7784
791.0,0.7818
792.0,0.7756
793.0,0.7634
794.0,0.7728
795.0,0.7868
796.0,0.7674
797.0,0.7685
798.0,0.7864
799.0,0.7823
800.0,0.7698
801.0,0.7684
802.0,0.7661
803.0,0.7609
804.0,0.7614
805.0,0.7577
806.0,0.7767
807.0,0.7679
808.0,0.7683
809.0,0.7556
810.0,0.7506
811.0,0.7538
812.0,0.7355
813.0,0.7223
814.0,0.6467
815.0,0.6424
816.0,0.5996
817.0,0.6091
818.0,0.5889
819.0,0.6484
820.0,0.6146
821.0,0.705
822.0,0.687
823.0,0.4889
824.0,0.6716
825.0,0.6934
826.0,0.6711
827.0,0.7039
828.0,0.6089
829.0,0.6662
830.0,0.6588
831.0,0.6606
832.0,0.6426
833.0,0.6774
834.0,0.6574
835.0,0.7136
836.0,0.6884
837.0,0.7153
838.0,0.6954
839.0,0.704
840.0,0.7188
841.0,0.7096
842.0,0.7096
843.0,0.7076
844.0,0.6986
845.0,0.721
846.0,0.7176
847.0,0.7037
848.0,0.7001
849.0,0.6802
850.0,0.6516
851.0,0.6906
852.0,0.6854
853.0,0.6592
854.0,0.5697
855.0,0.6252
856.0,0.6835
857.0,0.6983
858.0,0.6933
859.0,0.6936
860.0,0.6946
861.0,0.6909
862.0,0.7017
863.0,0.7182
864.0,0.6823
865.0,0.6763
866.0,0.6081
867.0,0.6345
868.0,0.6905
869.0,0.6761
870.0,0.6954
871.0,0.6859
872.0,0.6835
873.0,0.6821
874.0,0.674
875.0,0.6603
876.0,0.6672
877.0,0.6739
878.0,0.6814
879.0,0.6709
880.0,0.6565
881.0,0.647
882.0,0.6611
883.0,0.6628
884.0,0.6599
885.0,0.6649
886.0,0.6349
887.0,0.6407
888.0,0.6507
889.0,0.6571
890.0,0.6528
891.0,0.6511
892.0,0.6338
893.0,0.616
894.0,0.5981
895.0,0.5699
896.0,0.5391
897.0,0.4697
898.0,0.5087
899.0,0.3951
900.0,0.5169
901.0,0.4138
902.0,0.4748
903.0,0.483
904.0,0.5936
905.0,0.5753
906.0,0.5401
907.0,0.4486
908.0,0.4562
909.0,0.4894
910.0,0.4412
911.0,0.4652
912.0,0.4844
913.0,0.4481
914.0,0.4429
915.0,0.4792
916.0,0.4083
917.0,0.5088
918.0,0.4188
919.0,0.5159
920.0,0.5169
921.0,0.5366
922.0,0.4857
923.0,0.518
924.0,0.4982
925.0,0.4875
926.0,0.4928
927.0,0.5459
928.0,0.4169
929.0,0.385
930.0,0.3096
931.0,0.2921
932.0,0.2176
933.0,0.1808
934.0,0.1075
935.0,0.1817
936.0,0.1187
937.0,0.121
938.0,0.1467
939.0,0.2831
940.0,0.3356
941.0,0.2601
942.0,0.2968
943.0,0.2005
944.0,0.2064
945.0,0.2669
946.0,0.143
947.0,0.27
948.0,0.1995
949.0,0.3542
950.0,0.1098
951.0,0.3475
952.0,0.1962
953.0,0.2472
954.0,0.2962
955.0,0.2493
956.0,0.2387
957.0,0.1975
958.0,0.3284
959.0,0.2683
960.0,0.3005
961.0,0.3317
962.0,0.3146
963.0,0.3577
964.0,0.3294
965.0,0.3558
966.0,0.3571
967.0,0.356
968.0,0.4606
969.0,0.4823
970.0,0.4453
971.0,0.5024
972.0,0.482
973.0,0.427
974.0,0.4064
975.0,0.4189
976.0,0.4016
977.0,0.4494
978.0,0.4301
979.0,0.4481
980.0,0.4229
981.0,0.4991
982.0,0.4799
983.0,0.4623
984.0,0.5114
985.0,0.478
986.0,0.5186
987.0,0.5104
988.0,0.5094
989.0,0.516
990.0,0.5062
991.0,0.5177
992.0,0.5205
993.0,0.5108
994.0,0.5201
995.0,0.5192
996.0,0.5172
997.0,0.5178
998.0,0.5155
999.0,0.5135
1000.0,0.5104
1001.0,0.5162
1002.0,0.5038
1003.0,0.5072
1004.0,0.4953
1005.0,0.4765
1006.0,0.4954
1007.0,0.5058
1008.0,0.5034
1009.0,0.501
1010.0,0.4991
1011.0,0.5032
1012.0,0.4991
1013.0,0.5018
1014.0,0.4983
1015.0,0.4951
1016.0,0.4929
1017.0,0.4942
1018.0,0.4921
1019.0,0.4823
1020.0,0.4896
1021.0,0.4888
1022.0,0.4853
1023.0,0.4905
1024.0,0.4848
1025.0,0.4899
1026.0,0.488
1027.0,0.4868
1028.0,0.4859
1029.0,0.4802
1030.0,0.4832
1031.0,0.4814
1032.0,0.4799
1033.0,0.4727
1034.0,0.4727
1035.0,0.4742
1036.0,0.4767
1037.0,0.4689
1038.0,0.471
1039.0,0.4708
1040.0,0.4689
1041.0,0.4709
1042.0,0.4676
1043.0,0.4661
1044.0,0.4678
1045.0,0.4615
1046.0,0.4564
1047.0,0.4606
1048.0,0.4632
1049.0,0.4616
1050.0,0.4595
1051.0,0.4589
1052.0,0.4571
1053.0,0.4536
1054.0,0.4546
1055.0,0.455
1056.0,0.4535
1057.0,0.4522
1058.0,0.4412
1059.0,0.4417
1060.0,0.4411
1061.0,0.4407
1062.0,0.4431
1063.0,0.4388
1064.0,0.444
1065.0,0.441
1066.0,0.4321
1067.0,0.4378
1068.0,0.4284
1069.0,0.415
1070.0,0.4293
1071.0,0.4353
1072.0,0.4308
1073.0,0.4245
1074.0,0.4348
1075.0,0.4149
1076.0,0.4345
1077.0,0.4278
1078.0,0.4201
1079.0,0.4273
1080.0,0.4212
1081.0,0.4086
1082.0,0.4136
1083.0,0.4145
1084.0,0.4082
1085.0,0.422
1086.0,0.3881
1087.0,0.3984
1088.0,0.4144
1089.0,0.4035
1090.0,0.3959
1091.0,0.4135
1092.0,0.412
1093.0,0.3549
1094.0,0.3777
1095.0,0.369
1096.0,0.355
1097.0,0.4024
1098.0,0.35
1099.0,0.3642
1100.0,0.3411
1101.0,0.3446
1102.0,0.3307
1103.0,0.3286
1104.0,0.3289
1105.0,0.3564
1106.0,0.2823
1107.0,0.3404
1108.0,0.2944
1109.0,0.2937
1110.0,0.3381
1111.0,0.2372
1112.0,0.291
1113.0,0.1935
1114.0,0.2153
1115.0,0.1787
1116.0,0.1478
1117.0,0.06008
1118.0,0.1589
1119.0,0.08336
1120.0,0.1051
1121.0,0.1366
1122.0,0.06143
1123.0,0.09479
1124.0,0.08006
1125.0,0.1034
1126.0,0.03995
1127.0,0.1162
1128.0,0.0738
1129.0,0.07763
1130.0,0.05298
1131.0,0.2105
1132.0,0.167
1133.0,0.1111
1134.0,0.03176
1135.0,0.01174
1136.0,0.09461
1137.0,0.2083
1138.0,0.1479
1139.0,0.2107
1140.0,0.1799
1141.0,0.1406
1142.0,0.1596
1143.0,0.2225
1144.0,0.08282
1145.0,0.107
1146.0,0.1155
1147.0,0.04481
1148.0,0.1927
1149.0,0.1569
1150.0,0.0888
1151.0,0.1469
1152.0,0.1771
1153.0,0.1699
1154.0,0.1046
1155.0,0.22
1156.0,0.2
1157.0,0.2215
1158.0,0.219
1159.0,0.2337
1160.0,0.2028
1161.0,0.244
1162.0,0.2457
1163.0,0.3219
1164.0,0.2798
1165.0,0.2673
1166.0,0.2631
1167.0,0.2847
1168.0,0.2886
1169.0,0.2941
1170.0,0.3167
1171.0,0.3093
1172.0,0.3132
1173.0,0.3161
1174.0,0.2339
1175.0,0.3075
1176.0,0.334
1177.0,0.3232
1178.0,0.249
1179.0,0.3366
1180.0,0.3048
1181.0,0.3142
1182.0,0.2236
1183.0,0.3083
1184.0,0.2912
1185.0,0.283
1186.0,0.3289
1187.0,0.3153
1188.0,0.228
1189.0,0.2942
1190.0,0.3214
1191.0,0.3087
1192.0,0.3254
1193.0,0.3131
1194.0,0.3219
1195.0,0.3069
1196.0,0.2972
1197.0,0.3207
1198.0,0.2953
1199.0,0.2569
1200.0,0.3094
1201.0,0.3004
1202.0,0.2975
1203.0,0.2951
1204.0,0.2613
1205.0,0.3027
1206.0,0.3312
1207.0,0.2973
1208.0,0.2909
1209.0,0.2964
1210.0,0.3075
1211.0,0.2951
1212.0,0.294
1213.0,0.3215
1214.0,0.2998
1215.0,0.2947
1216.0,0.3203
1217.0,0.313
1218.0,0.3179
1219.0,0.3145
1220.0,0.318
1221.0,0.3206
1222.0,0.3129
1223.0,0.3104
1224.0,0.3093
1225.0,0.3186
1226.0,0.32
1227.0,0.2981
1228.0,0.321
1229.0,0.32
1230.0,0.3151
1231.0,0.3222
1232.0,0.3204
1233.0,0.3117
1234.0,0.3215
1235.0,0.3198
1236.0,0.3218
1237.0,0.3183
1238.0,0.3208
1239.0,0.3167
1240.0,0.3177
1241.0,0.3168
1242.0,0.3156
1243.0,0.313
1244.0,0.3154
1245.0,0.3167
1246.0,0.3148
1247.0,0.3137
1248.0,0.3138
1249.0,0.3145
1250.0,0.3128
1251.0,0.3091
1252.0,0.3087
1253.0,0.307
1254.0,0.3046
1255.0,0.3086
1256.0,0.3014
1257.0,0.3001
1258.0,0.3045
1259.0,0.2958
1260.0,0.297
1261.0,0.2832
1262.0,0.2763
1263.0,0.2769
1264.0,0.2591
1265.0,0.275
1266.0,0.2668
1267.0,0.27
1268.0,0.2584
1269.0,0.1763
1270.0,0.2696
1271.0,0.2819
1272.0,0.2825
1273.0,0.2798
1274.0,0.2803
1275.0,0.2838
1276.0,0.286
1277.0,0.2873
1278.0,0.2916
1279.0,0.2891
1280.0,0.2853
1281.0,0.2717
1282.0,0.2609
1283.0,0.2812
1284.0,0.2881
1285.0,0.2899
1286.0,0.2933
1287.0,0.2897
1288.0,0.2894
1289.0,0.282
1290.0,0.2867
1291.0,0.2904
1292.0,0.2762
1293.0,0.2856
1294.0,0.2837
1295.0,0.2832
1296.0,0.2726
1297.0,0.2596
1298.0,0.2759
1299.0,0.2856
1300.0,0.2477
1301.0,0.2541
1302.0,0.2749
1303.0,0.2438
1304.0,0.2136
1305.0,0.2697
1306.0,0.2701
1307.0,0.2162
1308.0,0.2433
1309.0,0.2685
1310.0,0.2124
1311.0,0.2345
1312.0,0.2291
1313.0,0.2255
1314.0,0.2039
1315.0,0.2025
1316.0,0.2317
1317.0,0.2202
1318.0,0.237
1319.0,0.1919
1320.0,0.1845
1321.0,0.2126
1322.0,0.2157
1323.0,0.1678
1324.0,0.1882
1325.0,0.2287
1326.0,0.1998
1327.0,0.1915
1328.0,0.1669
1329.0,0.13
1330.0,0.1669
1331.0,0.1064
1332.0,0.1079
1333.0,0.1487
1334.0,0.1236
1335.0,0.1672
1336.0,0.135
1337.0,0.1211
1338.0,0.1309
1339.0,0.1295
1340.0,0.1246
1341.0,0.1249
1342.0,0.131
1343.0,0.09577
1344.0,0.05713
1345.0,0.08163
1346.0,0.04539
1347.0,0.04697
1348.0,0.004065
1349.0,0.0134
1350.0,0.0131
1351.0,0.004113
1352.0,0.001445
1353.0,0.0001009
1354.0,0.0002867
1355.0,4.309e-06
1356.0,5.064e-05
1357.0,7.633e-05
1358.0,4.978e-06
1359.0,9.889e-07
1360.0,2.68e-06
1361.0,8.042e-09
1362.0,3.447e-11
1363.0,4.053e-06
1364.0,1.766e-06
1365.0,2.03e-11
1366.0,1.565e-05
1367.0,6.066e-06
1368.0,4.431e-13
1369.0,6.823e-07
1370.0,4.071e-07
1371.0,2.979e-08
1372.0,3.352e-06
1373.0,4.902e-05
1374.0,0.0001838
1375.0,0.000332
1376.0,0.0002553
1377.0,0.0001232
1378.0,0.001076
1379.0,5.25e-05
1380.0,8.544e-05
1381.0,2.596e-06
1382.0,3.188e-06
1383.0,5.85e-08
1384.0,8.297e-07
1385.0,2.45e-06
1386.0,3.231e-06
1387.0,0.0002133
1388.0,4.423e-06
1389.0,0.000578
1390.0,0.000496
1391.0,0.0003496
1392.0,2.495e-05
1393.0,0.000117
1394.0,8.408e-05
1395.0,8.177e-07
1396.0,1.019e-08
1397.0,5.096e-05
1398.0,0.00123
1399.0,0.0007809
1400.0,5.656e-09
1401.0,1.669e-08
1402.0,0.001648
1403.0,0.002175
1404.0,0.0006787
1405.0,4.697e-07
1406.0,0.001915
1407.0,0.0001633
1408.0,0.001547
1409.0,0.0006082
1410.0,0.0004473
1411.0,0.001896
1412.0,0.002375
1413.0,0.01934
1414.0,0.000347
1415.0,0.0001801
1416.0,0.0282
1417.0,0.009788
1418.0,0.01123
1419.0,0.001808
1420.0,0.006923
1421.0,0.00757
1422.0,0.03643
1423.0,0.007409
1424.0,0.01358
1425.0,0.0204
1426.0,0.02204
1427.0,0.03795
1428.0,0.003898
1429.0,0.02951
1430.0,0.04753
1431.0,0.05151
1432.0,0.003106
1433.0,0.03375
1434.0,0.01766
1435.0,0.01933
1436.0,0.03463
1437.0,0.02655
1438.0,0.01196
1439.0,0.04591
1440.0,0.03454
1441.0,0.02758
1442.0,0.03032
1443.0,0.03616
1444.0,0.04929
1445.0,0.04008
1446.0,0.0185
1447.0,0.0291
1448.0,0.08756
1449.0,0.07752
1450.0,0.02153
1451.0,0.00903
1452.0,0.04809
1453.0,0.06227
1454.0,0.1018
1455.0,0.04989
1456.0,0.06784
1457.0,0.08797
1458.0,0.1008
1459.0,0.1197
1460.0,0.06387
