interpolation:linear
wavelength,value
280.0,5.0830000000000005e-20
280.5,1.421e-18
281.0,7.221e-18
281.5,4.631e-19
282.0,2.049e-18
282.5,5.825e-18
283.0,1.945e-17
283.5,3.211e-17
284.0,5.059e-16
284.5,1.426e-15
285.0,2.811e-15
285.5,1.744e-14
286.0,7.468e-14
286.5,3.634e-13
287.0,1.086e-12
287.5,4.334e-12
288.0,1.273e-11
288.5,5.066e-11
289.0,1.708e-10
289.5,6.448e-10
290.0,2.12e-09
290.5,4.956e-09
291.0,1.242e-08
291.5,4.295e-08
292.0,1.155e-07
292.5,1.816e-07
293.0,4.5e-07
293.5,1.339e-06
294.0,2.441e-06
294.5,3.182e-06
295.0,6.201e-06
295.5,1.49e-05
296.0,2.827e-05
296.5,3.886e-05
297.0,5.181e-05
297.5,0.0001357
298.0,0.0002095
298.5,0.0002073
299.0,0.0004497
299.5,0.000724
300.0,0.0007831
300.5,0.001114
301.0,0.001958
301.5,0.003037
302.0,0.002563
302.5,0.00483
303.0,0.008275
303.5,0.01011
304.0,0.009296
304.5,0.01312
305.0,0.01841
305.5,0.02009
306.0,0.01909
306.5,0.02304
307.0,0.03196
307.5,0.03987
308.0,0.04169
308.5,0.04773
309.0,0.04598
309.5,0.05039
310.0,0.04961
310.5,0.07954
311.0,0.09817
311.5,0.09407
312.0,0.09067
312.5,0.1077
313.0,0.1153
313.5,0.1133
314.0,0.1375
314.5,0.1172
315.0,0.1529
315.5,0.1303
316.0,0.1103
316.5,0.154
317.0,0.1913
317.5,0.2006
318.0,0.1536
318.5,0.1839
319.0,0.2143
319.5,0.1798
320.0,0.2182
320.5,0.2631
321.0,0.2267
321.5,0.2166
322.0,0.2391
322.5,0.2076
323.0,0.202
323.5,0.2428
324.0,0.2823
324.5,0.2893
325.0,0.2531
325.5,0.3194
326.0,0.3881
326.5,0.3838
327.0,0.3842
327.5,0.3733
328.0,0.3379
328.5,0.348
329.0,0.4101
329.5,0.4632
330.0,0.469
330.5,0.3799
331.0,0.3887
331.5,0.3914
332.0,0.4172
332.5,0.4102
333.0,0.4104
333.5,0.375
334.0,0.3848
334.5,0.439
335.0,0.4099
335.5,0.4787
336.0,0.3312
336.5,0.389
337.0,0.3206
337.5,0.3993
338.0,0.3864
338.5,0.4458
339.0,0.4411
339.5,0.4242
340.0,0.4987
340.5,0.449
341.0,0.438
341.5,0.402
342.0,0.4803
342.5,0.4493
343.0,0.4942
343.5,0.4654
344.0,0.3438
344.5,0.3473
345.0,0.4594
345.5,0.4689
346.0,0.3984
346.5,0.451
347.0,0.4842
347.5,0.3915
348.0,0.4461
348.5,0.4458
349.0,0.4135
349.5,0.4093
350.0,0.5062
350.5,0.5339
351.0,0.477
351.5,0.4637
352.0,0.4979
352.5,0.3884
353.0,0.4891
353.5,0.5229
354.0,0.5428
354.5,0.5505
355.0,0.5486
355.5,0.4955
356.0,0.5184
356.5,0.4426
357.0,0.3657
357.5,0.4477
358.0,0.3548
358.5,0.3032
359.0,0.4241
359.5,0.5405
360.0,0.5729
360.5,0.4579
361.0,0.4174
361.5,0.4804
362.0,0.4154
362.5,0.5747
363.0,0.5161
363.5,0.4753
364.0,0.5812
364.5,0.4968
365.0,0.506
365.5,0.635
366.0,0.6727
366.5,0.632
367.0,0.6154
367.5,0.6386
368.0,0.5588
368.5,0.5639
369.0,0.6089
369.5,0.649
370.0,0.6918
370.5,0.5369
371.0,0.5736
371.5,0.7176
372.0,0.4763
372.5,0.5711
373.0,0.5809
373.5,0.3779
374.0,0.5491
374.5,0.4547
375.0,0.442
375.5,0.6599
376.0,0.5471
376.5,0.5669
377.0,0.6002
377.5,0.7022
378.0,0.7612
378.5,0.7195
379.0,0.5938
379.5,0.5424
380.0,0.564
380.5,0.683
381.0,0.6844
381.5,0.5425
382.0,0.4817
382.5,0.4106
383.0,0.3801
383.5,0.3661
384.0,0.4038
384.5,0.594
385.0,0.589
385.5,0.5485
386.0,0.4698
386.5,0.6171
387.0,0.5128
387.5,0.5759
388.0,0.5317
388.5,0.5256
389.0,0.5674
389.5,0.6872
390.0,0.6896
390.5,0.6347
391.0,0.747
391.5,0.762
392.0,0.6418
392.5,0.5745
393.0,0.3197
393.5,0.2324
394.0,0.4728
394.5,0.6011
395.0,0.7335
395.5,0.7452
396.0,0.6461
396.5,0.3776
397.0,0.2834
397.5,0.5763
398.0,0.8072
398.5,0.8343
399.0,0.9033
399.5,0.9003
400.0,0.935
401.0,0.9501
402.0,1.002
403.0,0.9519
404.0,0.9373
405.0,0.9371
406.0,0.9217
407.0,0.9067
408.0,0.9422
409.0,1.008
410.0,0.881
411.0,0.9541
412.0,1.025
413.0,0.9992
414.0,1.011
415.0,1.014
416.0,1.031
417.0,1.006
418.0,0.9873
419.0,1.0
420.0,0.9958
421.0,1.042
422.0,0.99
423.0,0.9669
424.0,1.023
425.0,1.021
426.0,0.9939
427.0,0.9753
428.0,0.95
429.0,0.8996
430.0,0.7872
431.0,0.7803
432.0,1.007
433.0,1.013
434.0,0.9404
435.0,0.9821
436.0,1.106
437.0,1.091
438.0,0.9934
439.0,1.028
440.0,1.06
441.0,1.098
442.0,1.178
443.0,1.148
444.0,1.172
445.0,1.147
446.0,1.094
447.0,1.182
448.0,1.201
449.0,1.205
450.0,1.239
451.0,1.285
452.0,1.238
453.0,1.164
454.0,1.215
455.0,1.222
456.0,1.251
457.0,1.272
458.0,1.229
459.0,1.222
460.0,1.226
461.0,1.254
462.0,1.263
463.0,1.254
464.0,1.233
465.0,1.217
466.0,1.229
467.0,1.206
468.0,1.221
469.0,1.227
470.0,1.188
471.0,1.186
472.0,1.25
473.0,1.234
474.0,1.236
475.0,1.247
476.0,1.21
477.0,1.214
478.0,1.247
479.0,1.239
480.0,1.241
481.0,1.264
482.0,1.27
483.0,1.254
484.0,1.228
485.0,1.17
486.0,1.022
487.0,1.071
488.0,1.175
489.0,1.179
490.0,1.24
491.0,1.219
492.0,1.151
493.0,1.188
494.0,1.2
495.0,1.21
496.0,1.218
497.0,1.237
498.0,1.179
499.0,1.194
500.0,1.16
501.0,1.139
502.0,1.123
503.0,1.17
504.0,1.142
505.0,1.181
506.0,1.219
507.0,1.16
508.0,1.123
509.0,1.154
510.0,1.148
511.0,1.178
512.0,1.191
513.0,1.127
514.0,1.119
515.0,1.108
516.0,1.105
517.0,0.9821
518.0,1.033
519.0,1.083
520.0,1.122
521.0,1.133
522.0,1.134
523.0,1.114
524.0,1.154
525.0,1.168
526.0,1.116
527.0,1.052
528.0,1.113
529.0,1.174
530.0,1.157
531.0,1.174
532.0,1.134
533.0,1.101
534.0,1.133
535.0,1.158
536.0,1.168
537.0,1.122
538.0,1.141
539.0,1.132
540.0,1.085
541.0,1.093
542.0,1.128
543.0,1.115
544.0,1.135
545.0,1.131
546.0,1.137
547.0,1.136
548.0,1.122
549.0,1.125
550.0,1.139
551.0,1.125
552.0,1.133
553.0,1.112
554.0,1.139
555.0,1.141
556.0,1.127
557.0,1.092
558.0,1.084
559.0,1.064
560.0,1.077
561.0,1.092
562.0,1.084
563.0,1.114
564.0,1.084
565.0,1.075
566.0,1.06
567.0,1.08
568.0,1.071
569.0,1.048
570.0,1.047
571.0,1.04
572.0,1.067
573.0,1.078
574.0,1.075
575.0,1.055
576.0,1.046
577.0,1.057
578.0,1.041
579.0,1.044
580.0,1.062
581.0,1.067
582.0,1.086
583.0,1.088
584.0,1.097
585.0,1.07
586.0,1.048
587.0,1.071
588.0,1.048
589.0,0.933
590.0,0.9753
591.0,1.029
592.0,1.018
593.0,1.031
594.0,1.025
595.0,1.001
596.0,1.037
597.0,1.026
598.0,1.023
599.0,1.023
600.0,1.023
601.0,1.014
602.0,1.007
603.0,1.024
604.0,1.04
605.0,1.035
606.0,1.03
607.0,1.04
608.0,1.028
609.0,1.03
610.0,1.022
611.0,1.027
612.0,1.024
613.0,1.011
614.0,0.9966
615.0,1.018
616.0,0.9842
617.0,0.982
618.0,1.02
619.0,1.009
620.0,1.016
621.0,1.017
622.0,1.005
623.0,0.9903
624.0,0.973
625.0,0.9708
626.0,0.9853
627.0,0.9971
628.0,0.941
629.0,0.9769
630.0,0.9547
631.0,0.9729
632.0,0.9607
633.0,0.9886
634.0,0.9779
635.0,0.9926
636.0,0.9788
637.0,0.9944
638.0,1.003
639.0,0.9916
640.0,0.9815
641.0,0.9806
642.0,0.9758
643.0,0.9888
644.0,0.9852
645.0,0.9871
646.0,0.9652
647.0,0.9564
648.0,0.9576
649.0,0.9392
650.0,0.9403
651.0,0.9804
652.0,0.9434
653.0,0.9673
654.0,0.9562
655.0,0.9225
656.0,0.8162
657.0,0.8381
658.0,0.9381
659.0,0.9444
660.0,0.9481
661.0,0.9547
662.0,0.9573
663.0,0.9381
664.0,0.9483
665.0,0.9483
666.0,0.9487
667.0,0.9474
668.0,0.9475
669.0,0.9619
670.0,0.9576
671.0,0.9572
672.0,0.9489
673.0,0.963
674.0,0.9593
675.0,0.9504
676.0,0.9568
677.0,0.9472
678.0,0.9497
679.0,0.9343
680.0,0.9417
681.0,0.9354
682.0,0.9342
683.0,0.9324
684.0,0.9278
685.0,0.9356
686.0,0.9302
687.0,0.6604
688.0,0.7533
689.0,0.7554
690.0,0.7854
691.0,0.8189
692.0,0.8426
693.0,0.8364
694.0,0.8295
695.0,0.8586
696.0,0.8598
697.0,0.9059
698.0,0.892
699.0,0.8749
700.0,0.8644
701.0,0.857
702.0,0.8613
703.0,0.8629
704.0,0.8879
705.0,0.8892
706.0,0.8875
707.0,0.8877
708.0,0.8898
709.0,0.8895
710.0,0.8902
711.0,0.8885
712.0,0.8851
713.0,0.8768
714.0,0.88
715.0,0.8538
716.0,0.8547
717.0,0.7571
718.0,0.698
719.0,0.6411
720.0,0.6727
721.0,0.7328
722.0,0.8277
723.0,0.7761
724.0,0.7055
725.0,0.6964
726.0,0.7279
727.0,0.7346
728.0,0.6954
729.0,0.7157
730.0,0.7572
731.0,0.7263
732.0,0.7709
733.0,0.8103
734.0,0.828
735.0,0.8117
736.0,0.8105
737.0,0.8139
738.0,0.8227
739.0,0.8066
740.0,0.8264
741.0,0.8175
742.0,0.8176
743.0,0.8382
744.0,0.8354
745.0,0.8352
746.0,0.839
747.0,0.8408
748.0,0.839
749.0,0.8294
750.0,0.8289
751.0,0.8204
752.0,0.8239
753.0,0.828
754.0,0.8299
755.0,0.8252
756.0,0.8248
757.0,0.826
758.0,0.8158
759.0,0.8015
760.0,0.1766
761.0,0.1023
762.0,0.4535
763.0,0.2527
764.0,0.3566
765.0,0.4537
766.0,0.5363
767.0,0.6563
768.0,0.7415
769.0,0.7535
770.0,0.7751
771.0,0.7796
772.0,0.7807
773.0,0.7861
774.0,0.7821
775.0,0.7761
776.0,0.7855
777.0,0.7751
778.0,0.7704
779.0,0.7711
780.0,0.7667
781.0,0.7675
782.0,0.7722
783.0,0.7588
784.0,0.7623
785.0,0.7568
786.0,0.7653
787.0,0.7536
788.0,0.745
789.0,0.7449
790.0,0.7275
791.0,0.7315
792.0,0.7258
793.0,0.7143
794.0,0.724
795.0,0.7369
796.0,0.7175
797.0,0.7185
798.0,0.7363
799.0,0.7323
800.0,0.7204
801.0,0.7188
802.0,0.7167
803.0,0.7116
804.0,0.7123
805.0,0.7091
806.0,0.7274
807.0,0.719
808.0,0.7195
809.0,0.7072
810.0,0.7023
811.0,0.7047
812.0,0.6868
813.0,0.674
814.0,0.6007
815.0,0.5967
816.0,0.5565
817.0,0.5657
818.0,0.5463
819.0,0.604
820.0,0.5715
821.0,0.6588
822.0,0.6415
823.0,0.451
824.0,0.626
825.0,0.6478
826.0,0.626
827.0,0.6576
828.0,0.5659
829.0,0.6216
830.0,0.6143
831.0,0.6162
832.0,0.5988
833.0,0.6328
834.0,0.6132
835.0,0.6677
836.0,0.6428
837.0,0.6694
838.0,0.6501
839.0,0.6589
840.0,0.6729
841.0,0.6641
842.0,0.6644
843.0,0.6629
844.0,0.6543
845.0,0.6756
846.0,0.6724
847.0,0.6596
848.0,0.656
849.0,0.6374
850.0,0.6106
851.0,0.647
852.0,0.6422
853.0,0.6177
854.0,0.5337
855.0,0.5859
856.0,0.6405
857.0,0.6544
858.0,0.6497
859.0,0.6501
860.0,0.6511
861.0,0.6476
862.0,0.6577
863.0,0.6732
864.0,0.6396
865.0,0.6339
866.0,0.57
867.0,0.5948
868.0,0.6473
869.0,0.6338
870.0,0.6519
871.0,0.643
872.0,0.6407
873.0,0.6394
874.0,0.6318
875.0,0.619
876.0,0.6255
877.0,0.6318
878.0,0.6387
879.0,0.6289
880.0,0.6154
881.0,0.6064
882.0,0.6196
883.0,0.6213
884.0,0.6185
885.0,0.6232
886.0,0.5948
887.0,0.6005
888.0,0.6097
889.0,0.6159
890.0,0.6116
891.0,0.6101
892.0,0.5936
893.0,0.5763
894.0,0.5585
895.0,0.5309
896.0,0.5015
897.0,0.4351
898.0,0.4723
899.0,0.3645
900.0,0.481
901.0,0.3818
902.0,0.4412
903.0,0.4478
904.0,0.5543
905.0,0.5366
906.0,0.5033
907.0,0.4153
908.0,0.4226
909.0,0.4548
910.0,0.4076
911.0,0.4311
912.0,0.4495
913.0,0.4139
914.0,0.4094
915.0,0.4434
916.0,0.3768
917.0,0.4724
918.0,0.3866
919.0,0.4795
920.0,0.4816
921.0,0.5003
922.0,0.4511
923.0,0.4831
924.0,0.4627
925.0,0.4527
926.0,0.4577
927.0,0.5087
928.0,0.3836
929.0,0.353
930.0,0.2817
931.0,0.2662
932.0,0.1961
933.0,0.1618
934.0,0.09372
935.0,0.1636
936.0,0.1053
937.0,0.1071
938.0,0.1305
939.0,0.258
940.0,0.3073
941.0,0.236
942.0,0.2707
943.0,0.1812
944.0,0.188
945.0,0.2426
946.0,0.1278
947.0,0.2448
948.0,0.1805
949.0,0.3235
950.0,0.09656
951.0,0.3178
952.0,0.1764
953.0,0.2241
954.0,0.2706
955.0,0.2262
956.0,0.2175
957.0,0.1772
958.0,0.3024
959.0,0.2447
960.0,0.2741
961.0,0.3043
962.0,0.2883
963.0,0.3295
964.0,0.3028
965.0,0.3279
966.0,0.3287
967.0,0.3276
968.0,0.4289
969.0,0.4488
970.0,0.4136
971.0,0.469
972.0,0.4495
973.0,0.3958
974.0,0.3764
975.0,0.3889
976.0,0.3716
977.0,0.4182
978.0,0.3993
979.0,0.4168
980.0,0.3927
981.0,0.4661
982.0,0.4473
983.0,0.4303
984.0,0.4784
985.0,0.4455
986.0,0.4857
987.0,0.4774
988.0,0.4765
989.0,0.4836
990.0,0.4736
991.0,0.4852
992.0,0.4878
993.0,0.4782
994.0,0.4876
995.0,0.4868
996.0,0.4848
997.0,0.4854
998.0,0.4832
999.0,0.4814
1000.0,0.4783
1001.0,0.484
1002.0,0.4717
1003.0,0.4755
1004.0,0.4641
1005.0,0.4467
1006.0,0.4644
1007.0,0.4741
1008.0,0.4717
1009.0,0.4694
1010.0,0.4676
1011.0,0.4717
1012.0,0.4678
1013.0,0.4705
1014.0,0.4672
1015.0,0.4641
1016.0,0.4621
1017.0,0.4633
1018.0,0.4614
1019.0,0.452
1020.0,0.459
1021.0,0.4583
1022.0,0.4549
1023.0,0.4598
1024.0,0.4542
1025.0,0.4593
1026.0,0.4575
1027.0,0.4564
1028.0,0.4554
1029.0,0.4501
1030.0,0.453
1031.0,0.4513
1032.0,0.4499
1033.0,0.4432
1034.0,0.4432
1035.0,0.4445
1036.0,0.4469
1037.0,0.4396
1038.0,0.4416
1039.0,0.4413
1040.0,0.4396
1041.0,0.4414
1042.0,0.4383
1043.0,0.4369
1044.0,0.4385
1045.0,0.4326
1046.0,0.4278
1047.0,0.4317
1048.0,0.4341
1049.0,0.4325
1050.0,0.4306
1051.0,0.43
1052.0,0.4283
1053.0,0.425
1054.0,0.4259
1055.0,0.4262
1056.0,0.4248
1057.0,0.4235
1058.0,0.4132
1059.0,0.4137
1060.0,0.4131
1061.0,0.4127
1062.0,0.4149
1063.0,0.4108
1064.0,0.4157
1065.0,0.4128
1066.0,0.4046
1067.0,0.4098
1068.0,0.401
1069.0,0.3885
1070.0,0.4018
1071.0,0.4077
1072.0,0.4033
1073.0,0.3974
1074.0,0.4073
1075.0,0.388
1076.0,0.407
1077.0,0.4004
1078.0,0.393
1079.0,0.4003
1080.0,0.3942
1081.0,0.3821
1082.0,0.3873
1083.0,0.3882
1084.0,0.3815
1085.0,0.395
1086.0,0.3623
1087.0,0.3726
1088.0,0.388
1089.0,0.3772
1090.0,0.3697
1091.0,0.3871
1092.0,0.3858
1093.0,0.3305
1094.0,0.3534
1095.0,0.3439
1096.0,0.3303
1097.0,0.3768
1098.0,0.3255
1099.0,0.339
1100.0,0.3166
1101.0,0.3201
1102.0,0.3067
1103.0,0.3044
1104.0,0.3047
1105.0,0.3315
1106.0,0.2594
1107.0,0.316
1108.0,0.2714
1109.0,0.2712
1110.0,0.3137
1111.0,0.2175
1112.0,0.2688
1113.0,0.176
1114.0,0.1961
1115.0,0.1628
1116.0,0.1329
1117.0,0.05211
1118.0,0.1435
1119.0,0.07381
1120.0,0.09302
1121.0,0.1218
1122.0,0.05352
1123.0,0.08396
1124.0,0.0709
1125.0,0.09187
1126.0,0.03422
1127.0,0.1034
1128.0,0.06429
1129.0,0.06785
1130.0,0.04566
1131.0,0.1905
1132.0,0.1505
1133.0,0.09841
1134.0,0.027
1135.0,0.01002
1136.0,0.08318
1137.0,0.188
1138.0,0.1331
1139.0,0.1928
1140.0,0.1633
1141.0,0.1265
1142.0,0.1443
1143.0,0.2025
1144.0,0.07364
1145.0,0.09483
1146.0,0.1023
1147.0,0.03833
1148.0,0.1753
1149.0,0.1418
1150.0,0.07901
1151.0,0.1321
1152.0,0.1605
1153.0,0.1549
1154.0,0.09235
1155.0,0.2012
1156.0,0.1823
1157.0,0.2028
1158.0,0.2005
1159.0,0.2148
1160.0,0.1854
1161.0,0.2249
1162.0,0.2263
1163.0,0.2995
1164.0,0.2591
1165.0,0.2466
1166.0,0.2434
1167.0,0.2639
1168.0,0.2673
1169.0,0.2729
1170.0,0.2947
1171.0,0.2876
1172.0,0.2917
1173.0,0.2941
1174.0,0.2152
1175.0,0.2864
1176.0,0.3123
1177.0,0.3015
1178.0,0.2304
1179.0,0.3147
1180.0,0.2838
1181.0,0.2926
1182.0,0.2062
1183.0,0.2874
1184.0,0.2708
1185.0,0.2626
1186.0,0.307
1187.0,0.2938
1188.0,0.2102
1189.0,0.274
1190.0,0.3
1191.0,0.2872
1192.0,0.304
1193.0,0.2921
1194.0,0.3005
1195.0,0.2859
1196.0,0.2764
1197.0,0.2998
1198.0,0.2755
1199.0,0.2381
1200.0,0.2886
1201.0,0.2796
1202.0,0.2772
1203.0,0.275
1204.0,0.2426
1205.0,0.2825
1206.0,0.31
1207.0,0.2769
1208.0,0.2714
1209.0,0.2767
1210.0,0.2874
1211.0,0.2751
1212.0,0.2735
1213.0,0.3006
1214.0,0.2793
1215.0,0.2743
1216.0,0.2996
1217.0,0.2924
1218.0,0.2972
1219.0,0.2939
1220.0,0.2974
1221.0,0.2999
1222.0,0.2926
1223.0,0.2902
1224.0,0.2889
1225.0,0.2981
1226.0,0.2996
1227.0,0.2783
1228.0,0.3007
1229.0,0.2996
1230.0,0.2949
1231.0,0.302
1232.0,0.3003
1233.0,0.2915
1234.0,0.3014
1235.0,0.2997
1236.0,0.3017
1237.0,0.2982
1238.0,0.3007
1239.0,0.2969
1240.0,0.2979
1241.0,0.2969
1242.0,0.2959
1243.0,0.2935
1244.0,0.2957
1245.0,0.2969
1246.0,0.2951
1247.0,0.2941
1248.0,0.2941
1249.0,0.2948
1250.0,0.2932
1251.0,0.2896
1252.0,0.2894
1253.0,0.2876
1254.0,0.2851
1255.0,0.2892
1256.0,0.2821
1257.0,0.2808
1258.0,0.2852
1259.0,0.2765
1260.0,0.2777
1261.0,0.2641
1262.0,0.2572
1263.0,0.2577
1264.0,0.2403
1265.0,0.256
1266.0,0.2478
1267.0,0.2512
1268.0,0.2398
1269.0,0.1595
1270.0,0.2507
1271.0,0.263
1272.0,0.2636
1273.0,0.261
1274.0,0.2616
1275.0,0.265
1276.0,0.2672
1277.0,0.2685
1278.0,0.2728
1279.0,0.2704
1280.0,0.267
1281.0,0.2544
1282.0,0.2445
1283.0,0.2634
1284.0,0.2699
1285.0,0.2716
1286.0,0.2749
1287.0,0.2713
1288.0,0.271
1289.0,0.2637
1290.0,0.2686
1291.0,0.2721
1292.0,0.2579
1293.0,0.2674
1294.0,0.2656
1295.0,0.2649
1296.0,0.2544
1297.0,0.2418
1298.0,0.2579
1299.0,0.2675
1300.0,0.2304
1301.0,0.2367
1302.0,0.257
1303.0,0.227
1304.0,0.1973
1305.0,0.252
1306.0,0.2523
1307.0,0.2003
1308.0,0.2267
1309.0,0.2507
1310.0,0.1966
1311.0,0.2182
1312.0,0.2129
1313.0,0.2094
1314.0,0.1887
1315.0,0.1871
1316.0,0.2154
1317.0,0.2044
1318.0,0.2207
1319.0,0.1769
1320.0,0.1704
1321.0,0.197
1322.0,0.1996
1323.0,0.1538
1324.0,0.1735
1325.0,0.2125
1326.0,0.1847
1327.0,0.1767
1328.0,0.1535
1329.0,0.1183
1330.0,0.1525
1331.0,0.09564
1332.0,0.09753
1333.0,0.1349
1334.0,0.1126
1335.0,0.1532
1336.0,0.123
1337.0,0.1098
1338.0,0.1187
1339.0,0.1177
1340.0,0.1136
1341.0,0.113
1342.0,0.1185
1343.0,0.08465
1344.0,0.05051
1345.0,0.07246
1346.0,0.03891
1347.0,0.04006
1348.0,0.003167
1349.0,0.01074
1350.0,0.0107
1351.0,0.003105
1352.0,0.00101
1353.0,6.394e-05
1354.0,0.0001925
1355.0,2.396e-06
1356.0,3.179e-05
1357.0,4.811e-05
1358.0,2.788e-06
1359.0,4.844e-07
1360.0,1.431e-06
1361.0,3.189e-09
1362.0,1.187e-11
1363.0,2.109e-06
1364.0,8.993e-07
1365.0,6.018e-12
1366.0,8.456e-06
1367.0,3.311e-06
1368.0,9.683e-14
1369.0,3.435e-07
1370.0,1.938e-07
1371.0,1.311e-08
1372.0,1.825e-06
1373.0,2.948e-05
1374.0,0.000118
1375.0,0.0002144
1376.0,0.0001719
1377.0,8.16e-05
1378.0,0.0007415
1379.0,3.457e-05
1380.0,5.437e-05
1381.0,1.571e-06
1382.0,1.709e-06
1383.0,2.934e-08
1384.0,4.093e-07
1385.0,1.394e-06
1386.0,1.67e-06
1387.0,0.000133
1388.0,2.689e-06
1389.0,0.0003847
1390.0,0.000331
1391.0,0.0002289
1392.0,1.58e-05
1393.0,7.711e-05
1394.0,5.036e-05
1395.0,4.469e-07
1396.0,4.196e-09
1397.0,3.266e-05
1398.0,0.0008445
1399.0,0.0005351
1400.0,2.165e-09
1401.0,7.07e-09
1402.0,0.001225
1403.0,0.001595
1404.0,0.0004941
1405.0,2.444e-07
1406.0,0.001364
1407.0,0.0001167
1408.0,0.001105
1409.0,0.0004143
1410.0,0.0003113
1411.0,0.001394
1412.0,0.001785
1413.0,0.01571
1414.0,0.0002426
1415.0,0.0001229
1416.0,0.02381
1417.0,0.007863
1418.0,0.00902
1419.0,0.001432
1420.0,0.005545
1421.0,0.006024
1422.0,0.0309
1423.0,0.006163
1424.0,0.01139
1425.0,0.017
1426.0,0.0187
1427.0,0.03301
1428.0,0.003019
1429.0,0.02529
1430.0,0.04162
1431.0,0.04535
1432.0,0.002394
1433.0,0.02935
1434.0,0.01518
1435.0,0.01604
1436.0,0.02961
1437.0,0.02268
1438.0,0.009957
1439.0,0.03967
1440.0,0.02977
1441.0,0.02333
1442.0,0.02576
1443.0,0.03138
1444.0,0.04304
1445.0,0.03445
1446.0,0.01573
1447.0,0.02475
1448.0,0.07835
1449.0,0.06877
1450.0,0.01832
1451.0,0.00754
1452.0,0.0421
1453.0,0.05487
