interpolation:linear
wavelength,value
280.0,4.758999999999999e-22
280.5,9.394e-21
281.0,4.2620000000000004e-20
281.5,9.026e-19
282.0,5.757e-18
282.5,1.905e-17
283.0,7.211e-17
283.5,1.251e-16
284.0,2.363e-15
284.5,7.076e-15
285.0,2.033e-14
285.5,1.372e-13
286.0,6.026e-13
286.5,3.094e-12
287.0,9.543e-12
287.5,3.939e-11
288.0,1.364e-10
288.5,5.118e-10
289.0,1.621e-09
289.5,5.696e-09
290.0,1.763e-08
290.5,3.912e-08
291.0,9.219e-08
291.5,2.962e-07
292.0,6.738e-07
292.5,9.824e-07
293.0,2.205e-06
293.5,5.698e-06
294.0,9.323e-06
294.5,1.819e-05
295.0,3.239e-05
295.5,6.823e-05
296.0,0.0001214
296.5,0.0001567
297.0,0.0001986
297.5,0.0004832
298.0,0.0007012
298.5,0.000662
299.0,0.001372
299.5,0.002044
300.0,0.002118
300.5,0.002884
301.0,0.004727
301.5,0.00689
302.0,0.005633
302.5,0.0103
303.0,0.01701
303.5,0.02033
304.0,0.01846
304.5,0.02521
305.0,0.03385
305.5,0.03596
306.0,0.03381
306.5,0.04015
307.0,0.05375
307.5,0.06489
308.0,0.06747
308.5,0.07605
309.0,0.07191
309.5,0.07699
310.0,0.07496
310.5,0.1195
311.0,0.1462
311.5,0.1395
312.0,0.1318
312.5,0.1545
313.0,0.1643
313.5,0.1624
314.0,0.1941
314.5,0.1621
315.0,0.2107
315.5,0.1813
316.0,0.1509
316.5,0.2078
317.0,0.2581
317.5,0.2717
318.0,0.206
318.5,0.2423
319.0,0.2797
319.5,0.238
320.0,0.2894
320.5,0.3428
321.0,0.2906
321.5,0.2772
322.0,0.3112
322.5,0.2698
323.0,0.2596
323.5,0.3086
324.0,0.358
324.5,0.3685
325.0,0.3243
325.5,0.4056
326.0,0.4911
326.5,0.4827
327.0,0.4841
327.5,0.4714
328.0,0.43
328.5,0.4386
329.0,0.513
329.5,0.5781
330.0,0.5862
330.5,0.4774
331.0,0.4892
331.5,0.4904
332.0,0.5196
332.5,0.5094
333.0,0.5103
333.5,0.4683
334.0,0.4807
334.5,0.5457
335.0,0.5079
335.5,0.5929
336.0,0.4101
336.5,0.4823
337.0,0.3982
337.5,0.4963
338.0,0.4782
338.5,0.5515
339.0,0.5455
339.5,0.5246
340.0,0.6165
340.5,0.5549
341.0,0.5413
341.5,0.4966
342.0,0.5933
342.5,0.5548
343.0,0.6101
343.5,0.5745
344.0,0.4241
344.5,0.4285
345.0,0.5666
345.5,0.5781
346.0,0.4911
346.5,0.5558
347.0,0.5966
347.5,0.4822
348.0,0.5494
348.5,0.5489
349.0,0.509
349.5,0.5037
350.0,0.6228
350.5,0.6567
351.0,0.5866
351.5,0.5702
352.0,0.6121
352.5,0.4774
353.0,0.601
353.5,0.6424
354.0,0.6667
354.5,0.676
355.0,0.6737
355.5,0.6083
356.0,0.6362
356.5,0.5432
357.0,0.4488
357.5,0.5493
358.0,0.4352
358.5,0.3719
359.0,0.5201
359.5,0.6628
360.0,0.7025
360.5,0.5613
361.0,0.5115
361.5,0.5886
362.0,0.5086
362.5,0.7036
363.0,0.6316
363.5,0.5815
364.0,0.7109
364.5,0.6076
365.0,0.6186
365.5,0.7762
366.0,0.8221
366.5,0.7721
367.0,0.7518
367.5,0.78
368.0,0.6824
368.5,0.6885
369.0,0.7433
369.5,0.7921
370.0,0.8441
370.5,0.655
371.0,0.6997
371.5,0.8752
372.0,0.5808
372.5,0.6963
373.0,0.708
373.5,0.4606
374.0,0.6691
374.5,0.554
375.0,0.5384
375.5,0.8038
376.0,0.6662
376.5,0.6904
377.0,0.7307
377.5,0.8547
378.0,0.9265
378.5,0.8756
379.0,0.7226
379.5,0.6601
380.0,0.6862
380.5,0.8309
381.0,0.8324
381.5,0.6596
382.0,0.5856
382.5,0.499
383.0,0.4619
383.5,0.4447
384.0,0.4905
384.5,0.7213
385.0,0.7152
385.5,0.6659
386.0,0.5702
386.5,0.7488
387.0,0.6222
387.5,0.6987
388.0,0.645
388.5,0.6375
389.0,0.6881
389.5,0.8332
390.0,0.8361
390.5,0.7693
391.0,0.9054
391.5,0.9234
392.0,0.7777
392.5,0.696
393.0,0.3872
393.5,0.2814
394.0,0.5725
394.5,0.7278
395.0,0.888
395.5,0.902
396.0,0.7819
396.5,0.457
397.0,0.3429
397.5,0.6972
398.0,0.9764
398.5,1.009
399.0,1.092
399.5,1.089
400.0,1.13
401.0,1.15
402.0,1.213
403.0,1.151
404.0,1.133
405.0,1.133
406.0,1.114
407.0,1.096
408.0,1.138
409.0,1.218
410.0,1.064
411.0,1.152
412.0,1.236
413.0,1.206
414.0,1.22
415.0,1.223
416.0,1.243
417.0,1.213
418.0,1.19
419.0,1.205
420.0,1.2
421.0,1.254
422.0,1.192
423.0,1.164
424.0,1.231
425.0,1.228
426.0,1.196
427.0,1.173
428.0,1.143
429.0,1.082
430.0,0.9462
431.0,0.938
432.0,1.21
433.0,1.217
434.0,1.13
435.0,1.18
436.0,1.328
437.0,1.31
438.0,1.192
439.0,1.234
440.0,1.273
441.0,1.318
442.0,1.413
443.0,1.377
444.0,1.406
445.0,1.376
446.0,1.312
447.0,1.417
448.0,1.44
449.0,1.444
450.0,1.484
451.0,1.539
452.0,1.482
453.0,1.394
454.0,1.454
455.0,1.463
456.0,1.498
457.0,1.522
458.0,1.471
459.0,1.463
460.0,1.467
461.0,1.5
462.0,1.511
463.0,1.501
464.0,1.475
465.0,1.455
466.0,1.469
467.0,1.442
468.0,1.459
469.0,1.467
470.0,1.42
471.0,1.418
472.0,1.494
473.0,1.475
474.0,1.478
475.0,1.491
476.0,1.448
477.0,1.452
478.0,1.492
479.0,1.482
480.0,1.485
481.0,1.511
482.0,1.518
483.0,1.498
484.0,1.467
485.0,1.397
486.0,1.221
487.0,1.279
488.0,1.403
489.0,1.408
490.0,1.48
491.0,1.454
492.0,1.373
493.0,1.418
494.0,1.432
495.0,1.444
496.0,1.453
497.0,1.475
498.0,1.406
499.0,1.425
500.0,1.384
501.0,1.359
502.0,1.341
503.0,1.397
504.0,1.366
505.0,1.411
506.0,1.457
507.0,1.386
508.0,1.342
509.0,1.378
510.0,1.37
511.0,1.406
512.0,1.421
513.0,1.345
514.0,1.335
515.0,1.322
516.0,1.319
517.0,1.171
518.0,1.232
519.0,1.292
520.0,1.339
521.0,1.352
522.0,1.353
523.0,1.329
524.0,1.377
525.0,1.395
526.0,1.332
527.0,1.256
528.0,1.329
529.0,1.402
530.0,1.382
531.0,1.403
532.0,1.355
533.0,1.315
534.0,1.354
535.0,1.383
536.0,1.395
537.0,1.339
538.0,1.363
539.0,1.351
540.0,1.296
541.0,1.306
542.0,1.347
543.0,1.332
544.0,1.356
545.0,1.352
546.0,1.359
547.0,1.357
548.0,1.34
549.0,1.344
550.0,1.36
551.0,1.343
552.0,1.353
553.0,1.329
554.0,1.361
555.0,1.364
556.0,1.346
557.0,1.304
558.0,1.295
559.0,1.272
560.0,1.288
561.0,1.305
562.0,1.296
563.0,1.333
564.0,1.297
565.0,1.286
566.0,1.268
567.0,1.293
568.0,1.283
569.0,1.257
570.0,1.256
571.0,1.247
572.0,1.28
573.0,1.294
574.0,1.29
575.0,1.267
576.0,1.256
577.0,1.269
578.0,1.249
579.0,1.252
580.0,1.273
581.0,1.277
582.0,1.3
583.0,1.301
584.0,1.312
585.0,1.279
586.0,1.253
587.0,1.281
588.0,1.255
589.0,1.122
590.0,1.172
591.0,1.235
592.0,1.223
593.0,1.236
594.0,1.23
595.0,1.203
596.0,1.242
597.0,1.231
598.0,1.225
599.0,1.225
600.0,1.225
601.0,1.213
602.0,1.205
603.0,1.224
604.0,1.244
605.0,1.237
606.0,1.231
607.0,1.243
608.0,1.228
609.0,1.229
610.0,1.22
611.0,1.226
612.0,1.222
613.0,1.206
614.0,1.189
615.0,1.214
616.0,1.174
617.0,1.171
618.0,1.215
619.0,1.203
620.0,1.211
621.0,1.212
622.0,1.199
623.0,1.181
624.0,1.16
625.0,1.158
626.0,1.175
627.0,1.19
628.0,1.132
629.0,1.169
630.0,1.143
631.0,1.161
632.0,1.146
633.0,1.178
634.0,1.165
635.0,1.182
636.0,1.165
637.0,1.183
638.0,1.193
639.0,1.179
640.0,1.166
641.0,1.165
642.0,1.159
643.0,1.174
644.0,1.17
645.0,1.172
646.0,1.147
647.0,1.139
648.0,1.141
649.0,1.119
650.0,1.117
651.0,1.164
652.0,1.124
653.0,1.149
654.0,1.135
655.0,1.097
656.0,0.9692
657.0,0.995
658.0,1.113
659.0,1.12
660.0,1.124
661.0,1.132
662.0,1.136
663.0,1.112
664.0,1.124
665.0,1.123
666.0,1.123
667.0,1.121
668.0,1.121
669.0,1.138
670.0,1.133
671.0,1.132
672.0,1.122
673.0,1.139
674.0,1.134
675.0,1.124
676.0,1.131
677.0,1.12
678.0,1.122
679.0,1.104
680.0,1.113
681.0,1.105
682.0,1.104
683.0,1.102
684.0,1.096
685.0,1.105
686.0,1.099
687.0,0.8213
688.0,0.9177
689.0,0.9195
690.0,0.9498
691.0,0.9833
692.0,1.006
693.0,0.9995
694.0,0.9916
695.0,1.022
696.0,1.023
697.0,1.072
698.0,1.055
699.0,1.039
700.0,1.027
701.0,1.019
702.0,1.023
703.0,1.025
704.0,1.052
705.0,1.054
706.0,1.05
707.0,1.05
708.0,1.053
709.0,1.051
710.0,1.053
711.0,1.05
712.0,1.046
713.0,1.036
714.0,1.04
715.0,1.011
716.0,1.012
717.0,0.9115
718.0,0.8437
719.0,0.7769
720.0,0.8159
721.0,0.8792
722.0,0.9825
723.0,0.927
724.0,0.849
725.0,0.8402
726.0,0.8764
727.0,0.8814
728.0,0.8394
729.0,0.8585
730.0,0.9076
731.0,0.8726
732.0,0.9204
733.0,0.9618
734.0,0.9814
735.0,0.9628
736.0,0.9613
737.0,0.9655
738.0,0.9725
739.0,0.9535
740.0,0.9758
741.0,0.9647
742.0,0.9642
743.0,0.9883
744.0,0.9846
745.0,0.9841
746.0,0.9886
747.0,0.9906
748.0,0.9884
749.0,0.9771
750.0,0.9764
751.0,0.9665
752.0,0.9705
753.0,0.9754
754.0,0.9776
755.0,0.9721
756.0,0.9715
757.0,0.973
758.0,0.961
759.0,0.9461
760.0,0.2599
761.0,0.1631
762.0,0.5798
763.0,0.3529
764.0,0.4732
765.0,0.5803
766.0,0.6653
767.0,0.7945
768.0,0.8823
769.0,0.8932
770.0,0.9151
771.0,0.9188
772.0,0.9195
773.0,0.9257
774.0,0.9209
775.0,0.9138
776.0,0.9248
777.0,0.9125
778.0,0.9071
779.0,0.9078
780.0,0.9026
781.0,0.9035
782.0,0.9091
783.0,0.8931
784.0,0.8973
785.0,0.891
786.0,0.9011
787.0,0.8888
788.0,0.8794
789.0,0.8796
790.0,0.8615
791.0,0.8639
792.0,0.8569
793.0,0.8436
794.0,0.8525
795.0,0.8683
796.0,0.8487
797.0,0.85
798.0,0.868
799.0,0.8638
800.0,0.8506
801.0,0.8494
802.0,0.8468
803.0,0.8412
804.0,0.8416
805.0,0.837
806.0,0.8572
807.0,0.8476
808.0,0.848
809.0,0.8346
810.0,0.8296
811.0,0.8339
812.0,0.8151
813.0,0.8014
814.0,0.7223
815.0,0.7174
816.0,0.6704
817.0,0.6804
818.0,0.6588
819.0,0.7212
820.0,0.6853
821.0,0.7805
822.0,0.7616
823.0,0.5515
824.0,0.7463
825.0,0.768
826.0,0.745
827.0,0.7796
828.0,0.6796
829.0,0.7392
830.0,0.7316
831.0,0.7334
832.0,0.7144
833.0,0.7502
834.0,0.7298
835.0,0.7886
836.0,0.763
837.0,0.7903
838.0,0.7692
839.0,0.7776
840.0,0.7937
841.0,0.784
842.0,0.7833
843.0,0.7805
844.0,0.771
845.0,0.7951
846.0,0.7913
847.0,0.7758
848.0,0.7721
849.0,0.7502
850.0,0.7185
851.0,0.7619
852.0,0.756
853.0,0.7269
854.0,0.6283
855.0,0.6893
856.0,0.7537
857.0,0.7698
858.0,0.7644
859.0,0.7646
860.0,0.7657
861.0,0.7616
862.0,0.7734
863.0,0.7916
864.0,0.752
865.0,0.7454
866.0,0.6702
867.0,0.6994
868.0,0.761
869.0,0.7452
870.0,0.7664
871.0,0.756
872.0,0.7532
873.0,0.7517
874.0,0.7428
875.0,0.7277
876.0,0.7354
877.0,0.7427
878.0,0.751
879.0,0.7394
880.0,0.7235
881.0,0.7132
882.0,0.7288
883.0,0.7306
884.0,0.7274
885.0,0.7329
886.0,0.7003
887.0,0.7064
888.0,0.7177
889.0,0.7242
890.0,0.7201
891.0,0.7179
892.0,0.6996
893.0,0.6809
894.0,0.6628
895.0,0.6338
896.0,0.6008
897.0,0.5268
898.0,0.5685
899.0,0.4458
900.0,0.5757
901.0,0.4665
902.0,0.5301
903.0,0.5408
904.0,0.6578
905.0,0.6386
906.0,0.6004
907.0,0.5035
908.0,0.5115
909.0,0.5463
910.0,0.4967
911.0,0.5214
912.0,0.5417
913.0,0.5047
914.0,0.4981
915.0,0.5382
916.0,0.4602
917.0,0.5685
918.0,0.4721
919.0,0.5755
920.0,0.5748
921.0,0.5959
922.0,0.5424
923.0,0.5752
924.0,0.5563
925.0,0.5446
926.0,0.5504
927.0,0.6069
928.0,0.4719
929.0,0.4381
930.0,0.3562
931.0,0.3353
932.0,0.2535
933.0,0.2129
934.0,0.1314
935.0,0.2122
936.0,0.1416
937.0,0.1449
938.0,0.1744
939.0,0.3249
940.0,0.3826
941.0,0.3002
942.0,0.34
943.0,0.2327
944.0,0.2372
945.0,0.3076
946.0,0.1689
947.0,0.312
948.0,0.2314
949.0,0.4053
950.0,0.1326
951.0,0.3969
952.0,0.2298
953.0,0.2859
954.0,0.3387
955.0,0.2879
956.0,0.2745
957.0,0.2319
958.0,0.3715
959.0,0.3077
960.0,0.3444
961.0,0.3771
962.0,0.3582
963.0,0.4045
964.0,0.3735
965.0,0.4019
966.0,0.4041
967.0,0.4031
968.0,0.5125
969.0,0.537
970.0,0.4973
971.0,0.557
972.0,0.5352
973.0,0.4782
974.0,0.4559
975.0,0.4682
976.0,0.451
977.0,0.5006
978.0,0.4808
979.0,0.4996
980.0,0.4724
981.0,0.5532
982.0,0.5333
983.0,0.5147
984.0,0.5652
985.0,0.5312
986.0,0.5723
987.0,0.5641
988.0,0.5631
989.0,0.5688
990.0,0.5594
991.0,0.5708
992.0,0.5738
993.0,0.564
994.0,0.5733
995.0,0.5722
996.0,0.5701
997.0,0.5707
998.0,0.5682
999.0,0.566
1000.0,0.5627
1001.0,0.5689
1002.0,0.5562
1003.0,0.5591
1004.0,0.5462
1005.0,0.5251
1006.0,0.5462
1007.0,0.5574
1008.0,0.555
1009.0,0.5526
1010.0,0.5505
1011.0,0.5545
1012.0,0.5503
1013.0,0.553
1014.0,0.5491
1015.0,0.5456
1016.0,0.5432
1017.0,0.5447
1018.0,0.5423
1019.0,0.5318
1020.0,0.5396
1021.0,0.5387
1022.0,0.5349
1023.0,0.5406
1024.0,0.5348
1025.0,0.5399
1026.0,0.5379
1027.0,0.5366
1028.0,0.5355
1029.0,0.5293
1030.0,0.5325
1031.0,0.5306
1032.0,0.5289
1033.0,0.5209
1034.0,0.5209
1035.0,0.5226
1036.0,0.5254
1037.0,0.5168
1038.0,0.5191
1039.0,0.5189
1040.0,0.5168
1041.0,0.519
1042.0,0.5154
1043.0,0.5138
1044.0,0.5157
1045.0,0.5087
1046.0,0.5032
1047.0,0.5078
1048.0,0.5107
1049.0,0.5089
1050.0,0.5067
1051.0,0.5061
1052.0,0.5041
1053.0,0.5002
1054.0,0.5015
1055.0,0.5019
1056.0,0.5003
1057.0,0.4989
1058.0,0.4868
1059.0,0.4875
1060.0,0.4869
1061.0,0.4864
1062.0,0.4891
1063.0,0.4844
1064.0,0.4901
1065.0,0.487
1066.0,0.477
1067.0,0.4833
1068.0,0.4731
1069.0,0.4582
1070.0,0.4741
1071.0,0.4804
1072.0,0.4757
1073.0,0.4687
1074.0,0.4796
1075.0,0.4588
1076.0,0.4794
1077.0,0.4726
1078.0,0.4643
1079.0,0.4713
1080.0,0.4654
1081.0,0.4519
1082.0,0.4565
1083.0,0.4573
1084.0,0.4517
1085.0,0.4661
1086.0,0.4305
1087.0,0.4405
1088.0,0.4574
1089.0,0.4463
1090.0,0.4387
1091.0,0.4567
1092.0,0.4549
1093.0,0.395
1094.0,0.4173
1095.0,0.41
1096.0,0.3955
1097.0,0.4442
1098.0,0.3902
1099.0,0.4055
1100.0,0.3814
1101.0,0.3848
1102.0,0.37
1103.0,0.3683
1104.0,0.3686
1105.0,0.3972
1106.0,0.32
1107.0,0.3804
1108.0,0.3323
1109.0,0.331
1110.0,0.3782
1111.0,0.27
1112.0,0.3276
1113.0,0.2228
1114.0,0.2471
1115.0,0.2054
1116.0,0.1729
1117.0,0.07402
1118.0,0.1846
1119.0,0.09971
1120.0,0.1256
1121.0,0.1614
1122.0,0.07508
1123.0,0.1132
1124.0,0.09568
1125.0,0.1229
1126.0,0.05
1127.0,0.138
1128.0,0.09025
1129.0,0.09446
1130.0,0.06586
1131.0,0.2438
1132.0,0.1946
1133.0,0.1328
1134.0,0.04023
1135.0,0.01481
1136.0,0.1141
1137.0,0.242
1138.0,0.1728
1139.0,0.2404
1140.0,0.2075
1141.0,0.1642
1142.0,0.1851
1143.0,0.2557
1144.0,0.09846
1145.0,0.1277
1146.0,0.1379
1147.0,0.05619
1148.0,0.2215
1149.0,0.1823
1150.0,0.1056
1151.0,0.1716
1152.0,0.2049
1153.0,0.1949
1154.0,0.1256
1155.0,0.2511
1156.0,0.2294
1157.0,0.2527
1158.0,0.2497
1159.0,0.2648
1160.0,0.2319
1161.0,0.2757
1162.0,0.2777
1163.0,0.3585
1164.0,0.3137
1165.0,0.3015
1166.0,0.2957
1167.0,0.3189
1168.0,0.3235
1169.0,0.329
1170.0,0.3528
1171.0,0.3449
1172.0,0.3484
1173.0,0.3521
1174.0,0.2649
1175.0,0.342
1176.0,0.3696
1177.0,0.3589
1178.0,0.2798
1179.0,0.3723
1180.0,0.3394
1181.0,0.3495
1182.0,0.2523
1183.0,0.3425
1184.0,0.3247
1185.0,0.3165
1186.0,0.3645
1187.0,0.3505
1188.0,0.2575
1189.0,0.3273
1190.0,0.3562
1191.0,0.3437
1192.0,0.3606
1193.0,0.3476
1194.0,0.3568
1195.0,0.3413
1196.0,0.3313
1197.0,0.3548
1198.0,0.3278
1199.0,0.2878
1200.0,0.3435
1201.0,0.3343
1202.0,0.3307
1203.0,0.328
1204.0,0.292
1205.0,0.3357
1206.0,0.3657
1207.0,0.3307
1208.0,0.3228
1209.0,0.3287
1210.0,0.3404
1211.0,0.3277
1212.0,0.3275
1213.0,0.3556
1214.0,0.3334
1215.0,0.328
1216.0,0.3543
1217.0,0.3467
1218.0,0.3516
1219.0,0.348
1220.0,0.3517
1221.0,0.3542
1222.0,0.3461
1223.0,0.3436
1224.0,0.3427
1225.0,0.352
1226.0,0.3533
1227.0,0.3304
1228.0,0.3542
1229.0,0.3533
1230.0,0.3482
1231.0,0.3553
1232.0,0.3533
1233.0,0.3446
1234.0,0.3542
1235.0,0.3525
1236.0,0.3547
1237.0,0.3511
1238.0,0.3535
1239.0,0.349
1240.0,0.3501
1241.0,0.3493
1242.0,0.3478
1243.0,0.3449
1244.0,0.3476
1245.0,0.349
1246.0,0.3469
1247.0,0.3458
1248.0,0.346
1249.0,0.3467
1250.0,0.3448
1251.0,0.3409
1252.0,0.3403
1253.0,0.3388
1254.0,0.3363
1255.0,0.3403
1256.0,0.333
1257.0,0.3316
1258.0,0.336
1259.0,0.3273
1260.0,0.3286
1261.0,0.3145
1262.0,0.3074
1263.0,0.3081
1264.0,0.2899
1265.0,0.3061
1266.0,0.2977
1267.0,0.3007
1268.0,0.2888
1269.0,0.2043
1270.0,0.3005
1271.0,0.3129
1272.0,0.3134
1273.0,0.3106
1274.0,0.311
1275.0,0.3146
1276.0,0.3168
1277.0,0.3179
1278.0,0.3222
1279.0,0.3195
1280.0,0.3153
1281.0,0.3001
1282.0,0.2878
1283.0,0.3102
1284.0,0.3179
1285.0,0.3198
1286.0,0.3234
1287.0,0.3198
1288.0,0.3193
1289.0,0.3119
1290.0,0.3163
1291.0,0.3202
1292.0,0.306
1293.0,0.3153
1294.0,0.3134
1295.0,0.3131
1296.0,0.3023
1297.0,0.2887
1298.0,0.3053
1299.0,0.3152
1300.0,0.2761
1301.0,0.2827
1302.0,0.3041
1303.0,0.2715
1304.0,0.2404
1305.0,0.2986
1306.0,0.2992
1307.0,0.2425
1308.0,0.2705
1309.0,0.2975
1310.0,0.2383
1311.0,0.2613
1312.0,0.2557
1313.0,0.2521
1314.0,0.2289
1315.0,0.2279
1316.0,0.2586
1317.0,0.246
1318.0,0.2637
1319.0,0.2168
1320.0,0.2077
1321.0,0.2383
1322.0,0.2422
1323.0,0.1911
1324.0,0.2126
1325.0,0.2554
1326.0,0.2248
1327.0,0.2159
1328.0,0.189
1329.0,0.1495
1330.0,0.1907
1331.0,0.1246
1332.0,0.1254
1333.0,0.1718
1334.0,0.1419
1335.0,0.1902
1336.0,0.1551
1337.0,0.1402
1338.0,0.1512
1339.0,0.1493
1340.0,0.1429
1341.0,0.1448
1342.0,0.1518
1343.0,0.1147
1344.0,0.06852
1345.0,0.09718
1346.0,0.05677
1347.0,0.05912
1348.0,0.005834
1349.0,0.01843
1350.0,0.0175
1351.0,0.006157
1352.0,0.002399
1353.0,0.0001939
1354.0,0.0005073
1355.0,9.984e-06
1356.0,9.875e-05
1357.0,0.0001478
1358.0,1.141e-05
1359.0,2.729e-06
1360.0,6.566e-06
1361.0,3.001e-08
1362.0,1.586e-10
1363.0,1.019e-05
1364.0,4.613e-06
1365.0,1.144e-10
1366.0,3.728e-05
1367.0,1.438e-05
1368.0,3.811e-12
1369.0,1.818e-06
1370.0,1.171e-06
1371.0,9.621e-08
1372.0,7.995e-06
1373.0,0.0001012
1374.0,0.0003458
1375.0,0.000616
1376.0,0.0004502
1377.0,0.0002228
1378.0,0.001827
1379.0,9.591e-05
1380.0,0.0001632
1381.0,5.368e-06
1382.0,7.76e-06
1383.0,1.58e-07
1384.0,2.269e-06
1385.0,5.512e-06
1386.0,8.256e-06
1387.0,0.0004154
1388.0,9.075e-06
1389.0,0.001031
1390.0,0.0008798
1391.0,0.000639
1392.0,4.816e-05
1393.0,0.0002132
1394.0,0.000174
1395.0,1.949e-06
1396.0,3.611e-08
1397.0,9.661e-05
1398.0,0.002095
1399.0,0.001336
1400.0,2.215e-08
1401.0,5.682e-08
1402.0,0.002527
1403.0,0.003393
1404.0,0.00107
1405.0,1.199e-06
1406.0,0.003098
1407.0,0.0002659
1408.0,0.002496
1409.0,0.001047
1410.0,0.0007527
1411.0,0.002951
1412.0,0.003581
1413.0,0.02602
1414.0,0.0005808
1415.0,0.0003125
1416.0,0.03605
1417.0,0.01346
1418.0,0.01536
1419.0,0.002528
1420.0,0.009521
1421.0,0.01056
1422.0,0.0462
1423.0,0.009704
1424.0,0.01757
1425.0,0.02657
1426.0,0.02803
1427.0,0.04649
1428.0,0.005639
1429.0,0.03691
1430.0,0.05769
1431.0,0.06206
1432.0,0.004522
1433.0,0.04139
1434.0,0.02203
1435.0,0.02532
1436.0,0.0435
1437.0,0.03343
1438.0,0.01564
1439.0,0.05677
1440.0,0.0429
1441.0,0.03516
1442.0,0.03833
1443.0,0.04441
1444.0,0.06008
1445.0,0.0499
1446.0,0.02336
1447.0,0.03683
1448.0,0.103
1449.0,0.09242
1450.0,0.02724
1451.0,0.01176
1452.0,0.05839
1453.0,0.07488
1454.0,0.1186
1455.0,0.05966
1456.0,0.08173
1457.0,0.1036
1458.0,0.1165
1459.0,0.1386
1460.0,0.0753
