interpolation:linear
wavelength,value
280.0,1.062e-22
280.5,3.536e-21
281.0,1.9060000000000003e-20
281.5,4.601e-19
282.0,5.376e-19
282.5,1.307e-18
283.0,4.107e-18
283.5,6.686e-18
284.0,1.104e-16
284.5,3.233e-16
285.0,5.755e-16
285.5,2.783e-15
286.0,1.118e-14
286.5,5.005e-14
287.0,1.436e-13
287.5,5.541e-13
288.0,1.959e-12
288.5,5.718e-12
289.0,1.492e-11
289.5,4.45e-11
290.0,1.229e-10
290.5,2.501e-10
291.0,5.364e-10
291.5,1.54e-09
292.0,3.114e-09
292.5,4.35e-09
293.0,9.282e-09
293.5,2.245e-08
294.0,3.504e-08
294.5,4.635e-08
295.0,7.826e-08
295.5,1.317e-07
296.0,2.513e-07
296.5,3.472e-07
297.0,4.646e-07
297.5,1.224e-06
298.0,1.896e-06
298.5,1.878e-06
299.0,4.076e-06
299.5,6.561e-06
300.0,7.075e-06
300.5,1.003e-05
301.0,1.746e-05
301.5,2.675e-05
302.0,2.238e-05
302.5,4.369e-05
303.0,7.884e-05
303.5,0.0001005
304.0,9.702e-05
304.5,0.0001561
305.0,0.0002645
305.5,0.0003257
306.0,0.0003243
306.5,0.0004236
307.0,0.0007005
307.5,0.001036
308.0,0.001113
308.5,0.001387
309.0,0.001633
309.5,0.002191
310.0,0.002368
310.5,0.003976
311.0,0.005295
311.5,0.005243
312.0,0.005959
312.5,0.00789
313.0,0.008944
313.5,0.008333
314.0,0.01153
314.5,0.01168
315.0,0.01572
315.5,0.01232
316.0,0.01199
316.5,0.0189
317.0,0.02342
317.5,0.02373
318.0,0.01972
318.5,0.02766
319.0,0.03489
319.5,0.02576
320.0,0.03067
320.5,0.04344
321.0,0.04324
321.5,0.04192
322.0,0.03964
322.5,0.03469
323.0,0.03735
323.5,0.05012
324.0,0.05928
324.5,0.05819
325.0,0.04763
325.5,0.06524
326.0,0.08256
326.5,0.0863
327.0,0.08467
327.5,0.08015
328.0,0.06739
328.5,0.07591
329.0,0.09601
329.5,0.1108
330.0,0.1103
330.5,0.08465
331.0,0.08502
331.5,0.08918
332.0,0.1008
332.5,0.1018
333.0,0.1003
333.5,0.08784
334.0,0.08952
334.5,0.1073
335.0,0.1031
335.5,0.1214
336.0,0.08404
336.5,0.0966
337.0,0.07802
337.5,0.0965
338.0,0.09724
338.5,0.1136
339.0,0.1127
339.5,0.1083
340.0,0.1259
340.5,0.1139
341.0,0.1121
341.5,0.1034
342.0,0.1237
342.5,0.1159
343.0,0.1272
343.5,0.1196
344.0,0.08767
344.5,0.08915
345.0,0.1185
345.5,0.1213
346.0,0.1033
346.5,0.1172
347.0,0.1256
347.5,0.1015
348.0,0.1161
348.5,0.1162
349.0,0.108
349.5,0.107
350.0,0.1324
350.5,0.1397
351.0,0.1247
351.5,0.1209
352.0,0.1302
352.5,0.1018
353.0,0.1285
353.5,0.1376
354.0,0.143
354.5,0.145
355.0,0.1445
355.5,0.1307
356.0,0.1369
356.5,0.117
357.0,0.09667
357.5,0.1184
358.0,0.09392
358.5,0.08031
359.0,0.1123
359.5,0.1431
360.0,0.1518
360.5,0.1215
361.0,0.1109
361.5,0.1278
362.0,0.1107
362.5,0.1534
363.0,0.1379
363.5,0.1272
364.0,0.1557
364.5,0.1332
365.0,0.1357
365.5,0.1705
366.0,0.1808
366.5,0.1701
367.0,0.1658
367.5,0.1721
368.0,0.1508
368.5,0.1522
369.0,0.1645
369.5,0.1755
370.0,0.1873
370.5,0.1455
371.0,0.1556
371.5,0.1948
372.0,0.1294
372.5,0.1553
373.0,0.1581
373.5,0.103
374.0,0.1497
374.5,0.1241
375.0,0.1207
375.5,0.1803
376.0,0.1496
376.5,0.1551
377.0,0.1644
377.5,0.1925
378.0,0.2088
378.5,0.1974
379.0,0.163
379.5,0.149
380.0,0.155
380.5,0.1879
381.0,0.1885
381.5,0.1496
382.0,0.133
382.5,0.1136
383.0,0.1053
383.5,0.1015
384.0,0.112
384.5,0.1649
385.0,0.1637
385.5,0.1526
386.0,0.1308
386.5,0.1721
387.0,0.1431
387.5,0.1608
388.0,0.1486
388.5,0.1471
389.0,0.1589
389.5,0.1926
390.0,0.1935
390.5,0.1782
391.0,0.2099
391.5,0.2143
392.0,0.1806
392.5,0.1619
393.0,0.09018
393.5,0.06562
394.0,0.1336
394.5,0.1701
395.0,0.2077
395.5,0.2111
396.0,0.1832
396.5,0.1072
397.0,0.08054
397.5,0.1639
398.0,0.2297
398.5,0.2376
399.0,0.2576
399.5,0.257
400.0,0.2669
401.0,0.2683
402.0,0.2836
403.0,0.27
404.0,0.2663
405.0,0.2666
406.0,0.2628
407.0,0.2591
408.0,0.2694
409.0,0.2888
410.0,0.2528
411.0,0.2743
412.0,0.2954
413.0,0.2883
414.0,0.2924
415.0,0.2937
416.0,0.2995
417.0,0.2924
418.0,0.2874
419.0,0.2917
420.0,0.2908
421.0,0.3047
422.0,0.29
423.0,0.2836
424.0,0.3002
425.0,0.3002
426.0,0.2931
427.0,0.288
428.0,0.2809
429.0,0.2667
430.0,0.2338
431.0,0.2318
432.0,0.2999
433.0,0.302
434.0,0.2806
435.0,0.2933
436.0,0.3312
437.0,0.3275
438.0,0.2986
439.0,0.3085
440.0,0.3188
441.0,0.3309
442.0,0.3552
443.0,0.3458
444.0,0.354
445.0,0.3465
446.0,0.3316
447.0,0.3594
448.0,0.3647
449.0,0.3671
450.0,0.3779
451.0,0.3923
452.0,0.3785
453.0,0.3564
454.0,0.3728
455.0,0.3752
456.0,0.3845
457.0,0.3911
458.0,0.3774
459.0,0.3757
460.0,0.3765
461.0,0.3854
462.0,0.3891
463.0,0.3865
464.0,0.3812
465.0,0.3774
466.0,0.3817
467.0,0.3746
468.0,0.3791
469.0,0.3812
470.0,0.369
471.0,0.3688
472.0,0.3886
473.0,0.3837
474.0,0.3837
475.0,0.3863
476.0,0.3739
477.0,0.3743
478.0,0.3849
479.0,0.3831
480.0,0.3843
481.0,0.3923
482.0,0.3952
483.0,0.3914
484.0,0.3841
485.0,0.3666
486.0,0.3212
487.0,0.3373
488.0,0.37
489.0,0.371
490.0,0.3908
491.0,0.3845
492.0,0.3633
493.0,0.3754
494.0,0.3793
495.0,0.3828
496.0,0.3852
497.0,0.3911
498.0,0.3727
499.0,0.3771
500.0,0.3656
501.0,0.3582
502.0,0.352
503.0,0.3651
504.0,0.3524
505.0,0.3678
506.0,0.3796
507.0,0.3614
508.0,0.3512
509.0,0.3619
510.0,0.3607
511.0,0.3712
512.0,0.3756
513.0,0.3556
514.0,0.3535
515.0,0.35
516.0,0.349
517.0,0.3103
518.0,0.3261
519.0,0.342
520.0,0.3543
521.0,0.3575
522.0,0.3575
523.0,0.3508
524.0,0.3627
525.0,0.3661
526.0,0.3494
527.0,0.3285
528.0,0.3468
529.0,0.365
530.0,0.3594
531.0,0.3644
532.0,0.3517
533.0,0.3414
534.0,0.3518
535.0,0.3599
536.0,0.3636
537.0,0.3497
538.0,0.3561
539.0,0.353
540.0,0.3382
541.0,0.3394
542.0,0.3495
543.0,0.3466
544.0,0.3518
545.0,0.3508
546.0,0.3515
547.0,0.3521
548.0,0.3483
549.0,0.3496
550.0,0.3538
551.0,0.3497
552.0,0.3521
553.0,0.3457
554.0,0.3538
555.0,0.3543
556.0,0.3495
557.0,0.3383
558.0,0.3352
559.0,0.3284
560.0,0.3321
561.0,0.3358
562.0,0.3327
563.0,0.341
564.0,0.3311
565.0,0.3277
566.0,0.3224
567.0,0.3277
568.0,0.323
569.0,0.3119
570.0,0.3122
571.0,0.3112
572.0,0.3163
573.0,0.3192
574.0,0.3177
575.0,0.3109
576.0,0.3081
577.0,0.3119
578.0,0.3082
579.0,0.311
580.0,0.3195
581.0,0.3232
582.0,0.331
583.0,0.3333
584.0,0.3371
585.0,0.3295
586.0,0.3228
587.0,0.3288
588.0,0.3165
589.0,0.2722
590.0,0.2852
591.0,0.3069
592.0,0.3001
593.0,0.3083
594.0,0.3046
595.0,0.2938
596.0,0.3124
597.0,0.3071
598.0,0.3084
599.0,0.3096
600.0,0.3118
601.0,0.3106
602.0,0.3087
603.0,0.3145
604.0,0.3201
605.0,0.3189
606.0,0.3183
607.0,0.3223
608.0,0.3195
609.0,0.3208
610.0,0.3192
611.0,0.3214
612.0,0.321
613.0,0.3173
614.0,0.3137
615.0,0.3212
616.0,0.3112
617.0,0.3109
618.0,0.3233
619.0,0.3203
620.0,0.3223
621.0,0.3221
622.0,0.3179
623.0,0.3126
624.0,0.3078
625.0,0.307
626.0,0.3113
627.0,0.3131
628.0,0.2726
629.0,0.2987
630.0,0.2911
631.0,0.3045
632.0,0.3022
633.0,0.3142
634.0,0.3134
635.0,0.3194
636.0,0.3165
637.0,0.3227
638.0,0.3274
639.0,0.3246
640.0,0.3225
641.0,0.323
642.0,0.3224
643.0,0.3269
644.0,0.3267
645.0,0.3268
646.0,0.3167
647.0,0.3073
648.0,0.3081
649.0,0.3012
650.0,0.3099
651.0,0.3246
652.0,0.3042
653.0,0.3208
654.0,0.3178
655.0,0.3024
656.0,0.2705
657.0,0.2783
658.0,0.3142
659.0,0.3174
660.0,0.3193
661.0,0.3219
662.0,0.3213
663.0,0.3154
664.0,0.3212
665.0,0.323
666.0,0.3238
667.0,0.3243
668.0,0.3253
669.0,0.3309
670.0,0.3298
671.0,0.3302
672.0,0.3277
673.0,0.333
674.0,0.3321
675.0,0.3294
676.0,0.332
677.0,0.329
678.0,0.3303
679.0,0.3252
680.0,0.328
681.0,0.3259
682.0,0.3256
683.0,0.325
684.0,0.3234
685.0,0.3265
686.0,0.3242
687.0,0.1364
688.0,0.1917
689.0,0.1935
690.0,0.2153
691.0,0.2418
692.0,0.2635
693.0,0.2608
694.0,0.2611
695.0,0.2825
696.0,0.2836
697.0,0.3128
698.0,0.3077
699.0,0.2921
700.0,0.2881
701.0,0.2816
702.0,0.2869
703.0,0.2885
704.0,0.3028
705.0,0.3031
706.0,0.3047
707.0,0.3058
708.0,0.3062
709.0,0.3102
710.0,0.3082
711.0,0.3091
712.0,0.3099
713.0,0.3051
714.0,0.3068
715.0,0.2936
716.0,0.2929
717.0,0.2244
718.0,0.2042
719.0,0.1848
720.0,0.1904
721.0,0.2264
722.0,0.277
723.0,0.2492
724.0,0.2135
725.0,0.2069
726.0,0.2172
727.0,0.2278
728.0,0.2051
729.0,0.2228
730.0,0.2329
731.0,0.2213
732.0,0.2476
733.0,0.2717
734.0,0.2816
735.0,0.2739
736.0,0.2729
737.0,0.2742
738.0,0.2868
739.0,0.2814
740.0,0.2912
741.0,0.2897
742.0,0.2916
743.0,0.2995
744.0,0.2996
745.0,0.3005
746.0,0.3019
747.0,0.3028
748.0,0.3023
749.0,0.2989
750.0,0.2988
751.0,0.2958
752.0,0.2972
753.0,0.2988
754.0,0.2995
755.0,0.2978
756.0,0.2978
757.0,0.2982
758.0,0.2943
759.0,0.2827
760.0,0.007679
761.0,0.002606
762.0,0.07
763.0,0.01693
764.0,0.03826
765.0,0.06977
766.0,0.1124
767.0,0.1775
768.0,0.2403
769.0,0.2542
770.0,0.2732
771.0,0.2801
772.0,0.2822
773.0,0.2846
774.0,0.2835
775.0,0.2816
776.0,0.2852
777.0,0.2814
778.0,0.2797
779.0,0.2799
780.0,0.2785
781.0,0.2788
782.0,0.2807
783.0,0.2759
784.0,0.2774
785.0,0.275
786.0,0.2777
787.0,0.2686
788.0,0.2634
789.0,0.2632
790.0,0.2509
791.0,0.2585
792.0,0.2575
793.0,0.2528
794.0,0.2625
795.0,0.2654
796.0,0.2496
797.0,0.2491
798.0,0.2642
799.0,0.2611
800.0,0.2548
801.0,0.252
802.0,0.2511
803.0,0.2482
804.0,0.2495
805.0,0.251
806.0,0.2621
807.0,0.2581
808.0,0.2585
809.0,0.2506
810.0,0.2469
811.0,0.2437
812.0,0.2308
813.0,0.2243
814.0,0.1841
815.0,0.1841
816.0,0.1694
817.0,0.173
818.0,0.1636
819.0,0.194
820.0,0.179
821.0,0.2267
822.0,0.2173
823.0,0.1226
824.0,0.2042
825.0,0.223
826.0,0.2086
827.0,0.2261
828.0,0.1748
829.0,0.2086
830.0,0.2047
831.0,0.2053
832.0,0.196
833.0,0.216
834.0,0.2035
835.0,0.2362
836.0,0.2171
837.0,0.2369
838.0,0.225
839.0,0.2336
840.0,0.2399
841.0,0.2346
842.0,0.2381
843.0,0.2412
844.0,0.2361
845.0,0.2463
846.0,0.2458
847.0,0.2421
848.0,0.2393
849.0,0.2325
850.0,0.2228
851.0,0.2344
852.0,0.2336
853.0,0.2259
854.0,0.1941
855.0,0.2147
856.0,0.234
857.0,0.2402
858.0,0.2379
859.0,0.2388
860.0,0.2397
861.0,0.2382
862.0,0.2422
863.0,0.2479
864.0,0.2356
865.0,0.2337
866.0,0.2101
867.0,0.2193
868.0,0.2387
869.0,0.2338
870.0,0.2405
871.0,0.2373
872.0,0.2365
873.0,0.2361
874.0,0.2333
875.0,0.2285
876.0,0.2308
877.0,0.2332
878.0,0.2355
879.0,0.2319
880.0,0.227
881.0,0.2229
882.0,0.2274
883.0,0.2289
884.0,0.2275
885.0,0.2292
886.0,0.216
887.0,0.2202
888.0,0.2225
889.0,0.227
890.0,0.2225
891.0,0.2234
892.0,0.2136
893.0,0.2039
894.0,0.1897
895.0,0.1708
896.0,0.1589
897.0,0.1274
898.0,0.1431
899.0,0.09908
900.0,0.1526
901.0,0.1038
902.0,0.1346
903.0,0.1311
904.0,0.1879
905.0,0.1787
906.0,0.1645
907.0,0.1183
908.0,0.1241
909.0,0.1397
910.0,0.1129
911.0,0.1292
912.0,0.1349
913.0,0.1141
914.0,0.1154
915.0,0.1238
916.0,0.1036
917.0,0.1418
918.0,0.1052
919.0,0.1483
920.0,0.1588
921.0,0.1641
922.0,0.1388
923.0,0.1596
924.0,0.1395
925.0,0.1372
926.0,0.137
927.0,0.161
928.0,0.09587
929.0,0.08199
930.0,0.05562
931.0,0.05234
932.0,0.02994
933.0,0.02143
934.0,0.006666
935.0,0.02406
936.0,0.01134
937.0,0.01144
938.0,0.01526
939.0,0.05046
940.0,0.06707
941.0,0.04296
942.0,0.05329
943.0,0.02957
944.0,0.03684
945.0,0.04602
946.0,0.01646
947.0,0.04424
948.0,0.03191
949.0,0.06692
950.0,0.009739
951.0,0.06643
952.0,0.02706
953.0,0.0406
954.0,0.0565
955.0,0.04187
956.0,0.04893
957.0,0.02681
958.0,0.07614
959.0,0.0512
960.0,0.0575
961.0,0.07197
962.0,0.06792
963.0,0.08508
964.0,0.0761
965.0,0.08413
966.0,0.08381
967.0,0.08225
968.0,0.1391
969.0,0.1403
970.0,0.1267
971.0,0.158
972.0,0.148
973.0,0.1159
974.0,0.1094
975.0,0.1172
976.0,0.1039
977.0,0.1342
978.0,0.1208
979.0,0.1299
980.0,0.1206
981.0,0.1573
982.0,0.1456
983.0,0.1373
984.0,0.1685
985.0,0.1446
986.0,0.1756
987.0,0.1681
988.0,0.1681
989.0,0.1778
990.0,0.1669
991.0,0.1778
992.0,0.1793
993.0,0.171
994.0,0.1798
995.0,0.1803
996.0,0.1787
997.0,0.1794
998.0,0.1782
999.0,0.1778
1000.0,0.1754
1001.0,0.1789
1002.0,0.1692
1003.0,0.1755
1004.0,0.1699
1005.0,0.1654
1006.0,0.171
1007.0,0.175
1008.0,0.1733
1009.0,0.1714
1010.0,0.1702
1011.0,0.1743
1012.0,0.1719
1013.0,0.1741
1014.0,0.1729
1015.0,0.1716
1016.0,0.1708
1017.0,0.171
1018.0,0.171
1019.0,0.1655
1020.0,0.1698
1021.0,0.1699
1022.0,0.1679
1023.0,0.1696
1024.0,0.1655
1025.0,0.17
1026.0,0.1688
1027.0,0.1686
1028.0,0.168
1029.0,0.1659
1030.0,0.1677
1031.0,0.1667
1032.0,0.1665
1033.0,0.1639
1034.0,0.164
1035.0,0.1645
1036.0,0.1651
1037.0,0.1625
1038.0,0.1632
1039.0,0.163
1040.0,0.1623
1041.0,0.1627
1042.0,0.1616
1043.0,0.161
1044.0,0.1614
1045.0,0.1591
1046.0,0.1572
1047.0,0.1585
1048.0,0.1592
1049.0,0.1585
1050.0,0.1576
1051.0,0.1572
1052.0,0.1564
1053.0,0.1549
1054.0,0.155
1055.0,0.1548
1056.0,0.1539
1057.0,0.1532
1058.0,0.1491
1059.0,0.149
1060.0,0.1486
1061.0,0.1483
1062.0,0.1487
1063.0,0.147
1064.0,0.1489
1065.0,0.1471
1066.0,0.1447
1067.0,0.1464
1068.0,0.1427
1069.0,0.1387
1070.0,0.143
1071.0,0.1468
1072.0,0.1439
1073.0,0.1421
1074.0,0.1476
1075.0,0.1359
1076.0,0.1472
1077.0,0.1422
1078.0,0.1383
1079.0,0.1457
1080.0,0.14
1081.0,0.1332
1082.0,0.1392
1083.0,0.1407
1084.0,0.1321
1085.0,0.1407
1086.0,0.1227
1087.0,0.1303
1088.0,0.1399
1089.0,0.1311
1090.0,0.1263
1091.0,0.1383
1092.0,0.1387
1093.0,0.1067
1094.0,0.1255
1095.0,0.1113
1096.0,0.1038
1097.0,0.1355
1098.0,0.1004
1099.0,0.1062
1100.0,0.09488
1101.0,0.09765
1102.0,0.09025
1103.0,0.08729
1104.0,0.08777
1105.0,0.1028
1106.0,0.06288
1107.0,0.09482
1108.0,0.071
1109.0,0.07236
1110.0,0.09158
1111.0,0.04966
1112.0,0.07234
1113.0,0.03484
1114.0,0.03917
1115.0,0.03143
1116.0,0.01997
1117.0,0.003748
1118.0,0.02266
1119.0,0.007592
1120.0,0.008967
1121.0,0.01352
1122.0,0.003301
1123.0,0.008218
1124.0,0.006886
1125.0,0.00988
1126.0,0.001398
1127.0,0.01136
1128.0,0.004215
1129.0,0.004656
1130.0,0.002815
1131.0,0.03034
1132.0,0.02188
1133.0,0.009405
1134.0,0.001049
1135.0,0.000478
1136.0,0.006531
1137.0,0.02799
1138.0,0.01867
1139.0,0.0396
1140.0,0.02844
1141.0,0.01792
1142.0,0.02252
1143.0,0.03746
1144.0,0.008404
1145.0,0.008983
1146.0,0.009654
1147.0,0.001522
1148.0,0.03139
1149.0,0.02196
1150.0,0.01019
1151.0,0.01856
1152.0,0.02654
1153.0,0.02901
1154.0,0.009266
1155.0,0.04121
1156.0,0.03455
1157.0,0.04472
1158.0,0.04401
1159.0,0.04985
1160.0,0.04105
1161.0,0.05799
1162.0,0.05736
1163.0,0.09236
1164.0,0.07401
1165.0,0.06461
1166.0,0.06869
1167.0,0.07728
1168.0,0.07712
1169.0,0.08016
1170.0,0.09189
1171.0,0.08957
1172.0,0.09458
1173.0,0.09181
1174.0,0.0555
1175.0,0.09289
1176.0,0.1089
1177.0,0.0998
1178.0,0.06707
1179.0,0.1097
1180.0,0.09065
1181.0,0.09374
1182.0,0.05549
1183.0,0.09373
1184.0,0.08461
1185.0,0.07871
1186.0,0.1033
1187.0,0.09508
1188.0,0.05455
1189.0,0.08816
1190.0,0.1018
1191.0,0.08993
1192.0,0.1039
1193.0,0.09725
1194.0,0.1018
1195.0,0.09168
1196.0,0.08593
1197.0,0.1035
1198.0,0.09298
1199.0,0.07002
1200.0,0.09604
1201.0,0.08913
1202.0,0.09181
1203.0,0.08887
1204.0,0.07423
1205.0,0.09631
1206.0,0.1108
1207.0,0.09009
1208.0,0.09147
1209.0,0.09369
1210.0,0.09978
1211.0,0.09193
1212.0,0.08533
1213.0,0.1044
1214.0,0.08928
1215.0,0.08721
1216.0,0.1048
1217.0,0.1003
1218.0,0.1038
1219.0,0.1013
1220.0,0.1041
1221.0,0.1064
1222.0,0.1028
1223.0,0.101
1224.0,0.09833
1225.0,0.1052
1226.0,0.1075
1227.0,0.09407
1228.0,0.109
1229.0,0.1075
1230.0,0.1047
1231.0,0.1109
1232.0,0.1102
1233.0,0.1021
1234.0,0.1119
1235.0,0.1104
1236.0,0.1118
1237.0,0.1086
1238.0,0.1114
1239.0,0.11
1240.0,0.1106
1241.0,0.1089
1242.0,0.1097
1243.0,0.1089
1244.0,0.1093
1245.0,0.11
1246.0,0.1094
1247.0,0.1087
1248.0,0.108
1249.0,0.1088
1250.0,0.1078
1251.0,0.1057
1252.0,0.1067
1253.0,0.1041
1254.0,0.1018
1255.0,0.1061
1256.0,0.1
1257.0,0.09883
1258.0,0.1031
1259.0,0.09468
1260.0,0.09575
1261.0,0.08472
1262.0,0.07932
1263.0,0.07933
1264.0,0.06706
1265.0,0.07892
1266.0,0.07222
1267.0,0.07607
1268.0,0.0681
1269.0,0.02304
1270.0,0.07477
1271.0,0.08521
1272.0,0.08603
1273.0,0.08448
1274.0,0.08563
1275.0,0.08787
1276.0,0.08987
1277.0,0.092
1278.0,0.09597
1279.0,0.09505
1280.0,0.09396
1281.0,0.09074
1282.0,0.08923
1283.0,0.09572
1284.0,0.0977
1285.0,0.09866
1286.0,0.101
1287.0,0.09759
1288.0,0.09818
1289.0,0.09146
1290.0,0.09746
1291.0,0.09949
1292.0,0.08715
1293.0,0.09612
1294.0,0.0952
1295.0,0.09246
1296.0,0.0846
1297.0,0.07752
1298.0,0.08915
1299.0,0.09678
1300.0,0.07274
1301.0,0.07639
1302.0,0.0891
1303.0,0.07256
1304.0,0.05404
1305.0,0.08685
1306.0,0.08575
1307.0,0.05805
1308.0,0.07407
1309.0,0.08348
1310.0,0.05608
1311.0,0.06908
1312.0,0.06633
1313.0,0.06274
1314.0,0.05318
1315.0,0.05091
1316.0,0.06643
1317.0,0.06164
1318.0,0.07052
1319.0,0.04581
1320.0,0.04598
1321.0,0.05701
1322.0,0.05574
1323.0,0.03474
1324.0,0.04538
1325.0,0.06416
1326.0,0.0506
1327.0,0.04688
1328.0,0.03777
1329.0,0.02249
1330.0,0.03257
1331.0,0.01404
1332.0,0.01585
1333.0,0.02309
1334.0,0.02366
1335.0,0.03376
1336.0,0.0232
1337.0,0.01998
1338.0,0.02114
1339.0,0.02168
1340.0,0.0228
1341.0,0.01814
1342.0,0.01968
1343.0,0.008133
1344.0,0.00536
1345.0,0.007144
1346.0,0.001662
1347.0,0.001427
1348.0,2.342e-05
1349.0,0.0001086
1350.0,0.0001335
1351.0,1.038e-05
1352.0,1.159e-06
1353.0,5.187e-08
1354.0,2.018e-07
1355.0,1.369e-09
1356.0,2.517e-08
1357.0,3.813e-08
1358.0,1.608e-09
1359.0,2.016e-10
1360.0,7.295e-10
1361.0,8.146e-13
1362.0,2.228e-15
1363.0,9.794e-10
1364.0,4.045e-10
1365.0,7.78e-16
1366.0,4.246e-09
1367.0,1.736e-09
1368.0,6.007e-18
1369.0,1.49e-10
1370.0,7.337e-11
1371.0,4.159e-12
1372.0,9.42e-10
1373.0,1.923e-08
1374.0,9.321e-08
1375.0,1.644e-07
1376.0,1.757e-07
1377.0,7.783e-08
1378.0,7.492e-07
1379.0,3.337e-08
1380.0,4.192e-08
1381.0,1.079e-09
1382.0,8.248e-10
1383.0,1.232e-11
1384.0,1.614e-10
1385.0,7.806e-10
1386.0,7.263e-10
1387.0,8.904e-08
1388.0,1.826e-09
1389.0,3.275e-07
1390.0,2.74e-07
1391.0,1.834e-07
1392.0,1.209e-08
1393.0,6.833e-08
1394.0,3.026e-08
1395.0,2.207e-10
1396.0,1.06e-12
1397.0,2.543e-08
1398.0,7.695e-07
1399.0,4.983e-07
1400.0,4.534e-13
1401.0,1.881e-12
1402.0,3.579e-06
1403.0,3.22e-06
1404.0,8.253e-07
1405.0,1.041e-10
1406.0,1.562e-06
1407.0,2.546e-07
1408.0,1.346e-06
1409.0,3.552e-07
1410.0,3.848e-07
1411.0,3.016e-06
1412.0,5.959e-06
1413.0,0.0001552
1414.0,3.288e-07
1415.0,1.342e-07
1416.0,0.0007465
1417.0,0.0001176
1418.0,7.5e-05
1419.0,1.009e-05
1420.0,4.494e-05
