interpolation:linear
wavelength,value
280.0,4.2339999999999995e-22
280.5,7.869e-21
281.0,3.518e-20
281.5,7.253e-19
282.0,4.579e-18
282.5,1.507e-17
283.0,5.682e-17
283.5,9.835e-17
284.0,1.857e-15
284.5,5.57e-15
285.0,1.619e-14
285.5,1.098e-13
286.0,4.838e-13
286.5,2.496e-12
287.0,7.73e-12
287.5,3.208e-11
288.0,1.117e-10
288.5,4.224e-10
289.0,1.348e-09
289.5,4.781e-09
290.0,1.491e-08
290.5,3.33e-08
291.0,7.909e-08
291.5,2.565e-07
292.0,5.88e-07
292.5,8.628e-07
293.0,1.952e-06
293.5,5.097e-06
294.0,8.41e-06
294.5,1.645e-05
295.0,2.946e-05
295.5,6.254e-05
296.0,0.0001117
296.5,0.0001448
297.0,0.0001841
297.5,0.0004499
298.0,0.0006553
298.5,0.0006203
299.0,0.001289
299.5,0.001928
300.0,0.002003
300.5,0.002734
301.0,0.004497
301.5,0.006575
302.0,0.005384
302.5,0.009866
303.0,0.01633
303.5,0.01954
304.0,0.01775
304.5,0.02428
305.0,0.03269
305.5,0.03478
306.0,0.03272
306.5,0.03888
307.0,0.05216
307.5,0.06309
308.0,0.06562
308.5,0.07402
309.0,0.07008
309.5,0.07513
310.0,0.0732
310.5,0.1167
311.0,0.1428
311.5,0.1363
312.0,0.129
312.5,0.1513
313.0,0.1609
313.5,0.159
314.0,0.1902
314.5,0.1591
315.0,0.2068
315.5,0.1779
316.0,0.1481
316.5,0.2042
317.0,0.2537
317.5,0.2669
318.0,0.2025
318.5,0.2384
319.0,0.2754
319.5,0.2342
320.0,0.2847
320.5,0.3375
321.0,0.2864
321.5,0.2732
322.0,0.3064
322.5,0.2657
323.0,0.2558
323.5,0.3042
324.0,0.3531
324.5,0.3633
325.0,0.3196
325.5,0.3999
326.0,0.4843
326.5,0.4762
327.0,0.4776
327.5,0.465
328.0,0.424
328.5,0.4327
329.0,0.5063
329.5,0.5706
330.0,0.5785
330.5,0.471
331.0,0.4826
331.5,0.484
332.0,0.5129
332.5,0.503
333.0,0.5038
333.5,0.4622
334.0,0.4744
334.5,0.5387
335.0,0.5015
335.5,0.5855
336.0,0.405
336.5,0.4762
337.0,0.3932
337.5,0.49
338.0,0.4722
338.5,0.5446
339.0,0.5387
339.5,0.518
340.0,0.6089
340.5,0.548
341.0,0.5345
341.5,0.4905
342.0,0.5859
342.5,0.5479
343.0,0.6026
343.5,0.5674
344.0,0.4189
344.5,0.4232
345.0,0.5597
345.5,0.571
346.0,0.485
346.5,0.5489
347.0,0.5893
347.5,0.4763
348.0,0.5427
348.5,0.5422
349.0,0.5028
349.5,0.4976
350.0,0.6152
350.5,0.6488
351.0,0.5795
351.5,0.5633
352.0,0.6047
352.5,0.4716
353.0,0.5937
353.5,0.6346
354.0,0.6587
354.5,0.6679
355.0,0.6656
355.5,0.601
356.0,0.6286
356.5,0.5366
357.0,0.4434
357.5,0.5427
358.0,0.43
358.5,0.3674
359.0,0.5139
359.5,0.6549
360.0,0.6941
360.5,0.5546
361.0,0.5054
361.5,0.5816
362.0,0.5026
362.5,0.6952
363.0,0.6241
363.5,0.5747
364.0,0.7025
364.5,0.6004
365.0,0.6113
365.5,0.7671
366.0,0.8124
366.5,0.7631
367.0,0.743
367.5,0.7709
368.0,0.6744
368.5,0.6804
369.0,0.7346
369.5,0.7828
370.0,0.8343
370.5,0.6473
371.0,0.6915
371.5,0.865
372.0,0.5741
372.5,0.6882
373.0,0.6998
373.5,0.4552
374.0,0.6613
374.5,0.5476
375.0,0.5322
375.5,0.7945
376.0,0.6585
376.5,0.6824
377.0,0.7223
377.5,0.8449
378.0,0.9158
378.5,0.8655
379.0,0.7143
379.5,0.6525
380.0,0.6783
380.5,0.8214
381.0,0.8228
381.5,0.652
382.0,0.5789
382.5,0.4933
383.0,0.4566
383.5,0.4397
384.0,0.4849
384.5,0.7131
385.0,0.707
385.5,0.6583
386.0,0.5637
386.5,0.7403
387.0,0.6151
387.5,0.6908
388.0,0.6377
388.5,0.6303
389.0,0.6803
389.5,0.8238
390.0,0.8266
390.5,0.7606
391.0,0.8952
391.5,0.913
392.0,0.7689
392.5,0.6882
393.0,0.3828
393.5,0.2782
394.0,0.5661
394.5,0.7196
395.0,0.878
395.5,0.8919
396.0,0.7732
396.5,0.4518
397.0,0.339
397.5,0.6894
398.0,0.9655
398.5,0.9978
399.0,1.08
399.5,1.076
400.0,1.118
401.0,1.137
402.0,1.199
403.0,1.139
404.0,1.121
405.0,1.12
406.0,1.102
407.0,1.083
408.0,1.126
409.0,1.204
410.0,1.052
411.0,1.139
412.0,1.223
413.0,1.192
414.0,1.207
415.0,1.209
416.0,1.23
417.0,1.199
418.0,1.177
419.0,1.192
420.0,1.186
421.0,1.241
422.0,1.179
423.0,1.151
424.0,1.218
425.0,1.215
426.0,1.183
427.0,1.16
428.0,1.13
429.0,1.07
430.0,0.936
431.0,0.9278
432.0,1.197
433.0,1.204
434.0,1.117
435.0,1.167
436.0,1.314
437.0,1.296
438.0,1.179
439.0,1.221
440.0,1.259
441.0,1.304
442.0,1.398
443.0,1.362
444.0,1.391
445.0,1.361
446.0,1.298
447.0,1.402
448.0,1.425
449.0,1.429
450.0,1.468
451.0,1.523
452.0,1.467
453.0,1.379
454.0,1.439
455.0,1.448
456.0,1.482
457.0,1.506
458.0,1.455
459.0,1.447
460.0,1.451
461.0,1.485
462.0,1.495
463.0,1.485
464.0,1.46
465.0,1.44
466.0,1.453
467.0,1.427
468.0,1.444
469.0,1.451
470.0,1.405
471.0,1.403
472.0,1.478
473.0,1.459
474.0,1.462
475.0,1.475
476.0,1.432
477.0,1.437
478.0,1.477
479.0,1.467
480.0,1.469
481.0,1.495
482.0,1.502
483.0,1.483
484.0,1.452
485.0,1.383
486.0,1.208
487.0,1.265
488.0,1.388
489.0,1.393
490.0,1.465
491.0,1.439
492.0,1.359
493.0,1.403
494.0,1.417
495.0,1.429
496.0,1.438
497.0,1.46
498.0,1.392
499.0,1.41
500.0,1.369
501.0,1.345
502.0,1.327
503.0,1.382
504.0,1.351
505.0,1.396
506.0,1.442
507.0,1.372
508.0,1.328
509.0,1.364
510.0,1.356
511.0,1.391
512.0,1.406
513.0,1.331
514.0,1.321
515.0,1.308
516.0,1.305
517.0,1.159
518.0,1.219
519.0,1.278
520.0,1.325
521.0,1.338
522.0,1.339
523.0,1.315
524.0,1.363
525.0,1.38
526.0,1.319
527.0,1.243
528.0,1.315
529.0,1.387
530.0,1.367
531.0,1.388
532.0,1.341
533.0,1.301
534.0,1.339
535.0,1.368
536.0,1.38
537.0,1.325
538.0,1.349
539.0,1.337
540.0,1.282
541.0,1.292
542.0,1.333
543.0,1.318
544.0,1.342
545.0,1.337
546.0,1.344
547.0,1.343
548.0,1.326
549.0,1.33
550.0,1.346
551.0,1.329
552.0,1.339
553.0,1.315
554.0,1.346
555.0,1.349
556.0,1.332
557.0,1.291
558.0,1.282
559.0,1.258
560.0,1.274
561.0,1.291
562.0,1.283
563.0,1.319
564.0,1.283
565.0,1.273
566.0,1.255
567.0,1.279
568.0,1.27
569.0,1.243
570.0,1.242
571.0,1.234
572.0,1.266
573.0,1.28
574.0,1.277
575.0,1.254
576.0,1.242
577.0,1.255
578.0,1.235
579.0,1.238
580.0,1.259
581.0,1.264
582.0,1.286
583.0,1.288
584.0,1.298
585.0,1.266
586.0,1.24
587.0,1.268
588.0,1.242
589.0,1.11
590.0,1.16
591.0,1.222
592.0,1.209
593.0,1.223
594.0,1.216
595.0,1.19
596.0,1.229
597.0,1.217
598.0,1.212
599.0,1.212
600.0,1.212
601.0,1.2
602.0,1.192
603.0,1.211
604.0,1.231
605.0,1.224
606.0,1.218
607.0,1.229
608.0,1.215
609.0,1.217
610.0,1.207
611.0,1.213
612.0,1.209
613.0,1.193
614.0,1.176
615.0,1.201
616.0,1.161
617.0,1.159
618.0,1.203
619.0,1.19
620.0,1.198
621.0,1.2
622.0,1.186
623.0,1.169
624.0,1.148
625.0,1.146
626.0,1.163
627.0,1.178
628.0,1.12
629.0,1.157
630.0,1.131
631.0,1.149
632.0,1.134
633.0,1.166
634.0,1.153
635.0,1.169
636.0,1.153
637.0,1.171
638.0,1.18
639.0,1.167
640.0,1.154
641.0,1.153
642.0,1.147
643.0,1.162
644.0,1.158
645.0,1.16
646.0,1.135
647.0,1.127
648.0,1.129
649.0,1.107
650.0,1.106
651.0,1.152
652.0,1.112
653.0,1.137
654.0,1.124
655.0,1.086
656.0,0.9594
657.0,0.9849
658.0,1.102
659.0,1.109
660.0,1.113
661.0,1.12
662.0,1.124
663.0,1.101
664.0,1.112
665.0,1.112
666.0,1.112
667.0,1.11
668.0,1.11
669.0,1.127
670.0,1.121
671.0,1.121
672.0,1.111
673.0,1.127
674.0,1.123
675.0,1.112
676.0,1.12
677.0,1.108
678.0,1.111
679.0,1.093
680.0,1.102
681.0,1.094
682.0,1.093
683.0,1.091
684.0,1.085
685.0,1.094
686.0,1.088
687.0,0.8109
688.0,0.9071
689.0,0.9089
690.0,0.9392
691.0,0.9727
692.0,0.9957
693.0,0.989
694.0,0.9812
695.0,1.011
696.0,1.013
697.0,1.061
698.0,1.045
699.0,1.029
700.0,1.016
701.0,1.009
702.0,1.012
703.0,1.014
704.0,1.041
705.0,1.043
706.0,1.04
707.0,1.04
708.0,1.042
709.0,1.041
710.0,1.042
711.0,1.04
712.0,1.035
713.0,1.026
714.0,1.03
715.0,1.0
716.0,1.002
717.0,0.9015
718.0,0.8343
719.0,0.7681
720.0,0.8066
721.0,0.8697
722.0,0.9726
723.0,0.9173
724.0,0.8397
725.0,0.8309
726.0,0.8668
727.0,0.8719
728.0,0.8301
729.0,0.8493
730.0,0.8979
731.0,0.8631
732.0,0.9108
733.0,0.9521
734.0,0.9715
735.0,0.953
736.0,0.9516
737.0,0.9558
738.0,0.9628
739.0,0.9441
740.0,0.9662
741.0,0.9552
742.0,0.9547
743.0,0.9786
744.0,0.975
745.0,0.9745
746.0,0.9789
747.0,0.9809
748.0,0.9788
749.0,0.9676
750.0,0.9669
751.0,0.9571
752.0,0.9611
753.0,0.9659
754.0,0.9681
755.0,0.9626
756.0,0.9621
757.0,0.9635
758.0,0.9517
759.0,0.9368
760.0,0.2542
761.0,0.1588
762.0,0.5716
763.0,0.3462
764.0,0.4655
765.0,0.572
766.0,0.657
767.0,0.7856
768.0,0.8732
769.0,0.8843
770.0,0.9061
771.0,0.9098
772.0,0.9106
773.0,0.9167
774.0,0.912
775.0,0.9049
776.0,0.9158
777.0,0.9037
778.0,0.8983
779.0,0.899
780.0,0.8939
781.0,0.8948
782.0,0.9003
783.0,0.8845
784.0,0.8886
785.0,0.8824
786.0,0.8923
787.0,0.8801
788.0,0.8708
789.0,0.871
790.0,0.8528
791.0,0.8554
792.0,0.8485
793.0,0.8353
794.0,0.8443
795.0,0.8599
796.0,0.8403
797.0,0.8415
798.0,0.8596
799.0,0.8554
800.0,0.8422
801.0,0.841
802.0,0.8385
803.0,0.8329
804.0,0.8333
805.0,0.8288
806.0,0.8488
807.0,0.8393
808.0,0.8397
809.0,0.8264
810.0,0.8214
811.0,0.8256
812.0,0.8068
813.0,0.7932
814.0,0.7144
815.0,0.7096
816.0,0.663
817.0,0.673
818.0,0.6515
819.0,0.7137
820.0,0.678
821.0,0.7726
822.0,0.7539
823.0,0.545
824.0,0.7386
825.0,0.7603
826.0,0.7374
827.0,0.7717
828.0,0.6722
829.0,0.7317
830.0,0.724
831.0,0.7259
832.0,0.7069
833.0,0.7426
834.0,0.7223
835.0,0.7808
836.0,0.7552
837.0,0.7825
838.0,0.7615
839.0,0.77
840.0,0.7859
841.0,0.7763
842.0,0.7757
843.0,0.7729
844.0,0.7635
845.0,0.7874
846.0,0.7836
847.0,0.7683
848.0,0.7646
849.0,0.7429
850.0,0.7116
851.0,0.7545
852.0,0.7487
853.0,0.7198
854.0,0.6222
855.0,0.6826
856.0,0.7464
857.0,0.7624
858.0,0.757
859.0,0.7573
860.0,0.7583
861.0,0.7542
862.0,0.7659
863.0,0.784
864.0,0.7448
865.0,0.7382
866.0,0.6637
867.0,0.6926
868.0,0.7537
869.0,0.738
870.0,0.759
871.0,0.7487
872.0,0.746
873.0,0.7445
874.0,0.7356
875.0,0.7207
876.0,0.7283
877.0,0.7356
878.0,0.7438
879.0,0.7323
880.0,0.7166
881.0,0.7063
882.0,0.7218
883.0,0.7236
884.0,0.7204
885.0,0.7259
886.0,0.6935
887.0,0.6996
888.0,0.7108
889.0,0.7173
890.0,0.7131
891.0,0.711
892.0,0.6928
893.0,0.6741
894.0,0.6561
895.0,0.6272
896.0,0.5944
897.0,0.5208
898.0,0.5623
899.0,0.4405
900.0,0.5696
901.0,0.461
902.0,0.5243
903.0,0.5348
904.0,0.6511
905.0,0.632
906.0,0.5942
907.0,0.4978
908.0,0.5057
909.0,0.5404
910.0,0.4909
911.0,0.5155
912.0,0.5357
913.0,0.4988
914.0,0.4923
915.0,0.5321
916.0,0.4548
917.0,0.5623
918.0,0.4666
919.0,0.5693
920.0,0.5687
921.0,0.5897
922.0,0.5365
923.0,0.5692
924.0,0.5503
925.0,0.5387
926.0,0.5445
927.0,0.6005
928.0,0.4662
929.0,0.4325
930.0,0.3513
931.0,0.3308
932.0,0.2497
933.0,0.2095
934.0,0.1289
935.0,0.209
936.0,0.1391
937.0,0.1423
938.0,0.1715
939.0,0.3206
940.0,0.3777
941.0,0.296
942.0,0.3355
943.0,0.2293
944.0,0.234
945.0,0.3033
946.0,0.1662
947.0,0.3076
948.0,0.2281
949.0,0.3999
950.0,0.1302
951.0,0.3917
952.0,0.2263
953.0,0.2819
954.0,0.3343
955.0,0.2838
956.0,0.2707
957.0,0.2283
958.0,0.367
959.0,0.3036
960.0,0.3398
961.0,0.3723
962.0,0.3536
963.0,0.3996
964.0,0.3689
965.0,0.3971
966.0,0.3992
967.0,0.3982
968.0,0.5071
969.0,0.5313
970.0,0.4919
971.0,0.5514
972.0,0.5296
973.0,0.4728
974.0,0.4507
975.0,0.463
976.0,0.4458
977.0,0.4953
978.0,0.4756
979.0,0.4942
980.0,0.4672
981.0,0.5476
982.0,0.5278
983.0,0.5092
984.0,0.5596
985.0,0.5256
986.0,0.5667
987.0,0.5585
988.0,0.5575
989.0,0.5633
990.0,0.5539
991.0,0.5653
992.0,0.5683
993.0,0.5585
994.0,0.5678
995.0,0.5667
996.0,0.5646
997.0,0.5652
998.0,0.5627
999.0,0.5605
1000.0,0.5573
1001.0,0.5635
1002.0,0.5508
1003.0,0.5537
1004.0,0.5409
1005.0,0.5201
1006.0,0.5409
1007.0,0.5521
1008.0,0.5496
1009.0,0.5472
1010.0,0.5452
1011.0,0.5492
1012.0,0.545
1013.0,0.5477
1014.0,0.5439
1015.0,0.5404
1016.0,0.538
1017.0,0.5395
1018.0,0.5371
1019.0,0.5267
1020.0,0.5344
1021.0,0.5335
1022.0,0.5298
1023.0,0.5354
1024.0,0.5296
1025.0,0.5347
1026.0,0.5327
1027.0,0.5314
1028.0,0.5304
1029.0,0.5242
1030.0,0.5274
1031.0,0.5255
1032.0,0.5238
1033.0,0.5159
1034.0,0.5159
1035.0,0.5175
1036.0,0.5203
1037.0,0.5118
1038.0,0.5141
1039.0,0.5139
1040.0,0.5119
1041.0,0.514
1042.0,0.5104
1043.0,0.5089
1044.0,0.5107
1045.0,0.5038
1046.0,0.4983
1047.0,0.5029
1048.0,0.5057
1049.0,0.504
1050.0,0.5018
1051.0,0.5012
1052.0,0.4992
1053.0,0.4954
1054.0,0.4966
1055.0,0.497
1056.0,0.4955
1057.0,0.4941
1058.0,0.4821
1059.0,0.4828
1060.0,0.4821
1061.0,0.4816
1062.0,0.4843
1063.0,0.4797
1064.0,0.4853
1065.0,0.4822
1066.0,0.4724
1067.0,0.4786
1068.0,0.4684
1069.0,0.4537
1070.0,0.4694
1071.0,0.4758
1072.0,0.471
1073.0,0.4641
1074.0,0.475
1075.0,0.4542
1076.0,0.4748
1077.0,0.468
1078.0,0.4598
1079.0,0.4667
1080.0,0.4608
1081.0,0.4474
1082.0,0.4521
1083.0,0.4528
1084.0,0.4472
1085.0,0.4615
1086.0,0.4261
1087.0,0.4361
1088.0,0.4529
1089.0,0.4419
1090.0,0.4342
1091.0,0.4522
1092.0,0.4504
1093.0,0.3908
1094.0,0.4132
1095.0,0.4058
1096.0,0.3913
1097.0,0.4399
1098.0,0.386
1099.0,0.4012
1100.0,0.3772
1101.0,0.3806
1102.0,0.3659
1103.0,0.3642
1104.0,0.3644
1105.0,0.3929
1106.0,0.3161
1107.0,0.3762
1108.0,0.3283
1109.0,0.3271
1110.0,0.374
1111.0,0.2665
1112.0,0.3238
1113.0,0.2197
1114.0,0.2438
1115.0,0.2026
1116.0,0.1703
1117.0,0.07252
1118.0,0.1819
1119.0,0.09797
1120.0,0.1234
1121.0,0.1588
1122.0,0.07363
1123.0,0.1113
1124.0,0.09402
1125.0,0.1208
1126.0,0.04892
1127.0,0.1357
1128.0,0.08849
1129.0,0.09267
1130.0,0.06447
1131.0,0.2403
1132.0,0.1917
1133.0,0.1305
1134.0,0.03931
1135.0,0.01448
1136.0,0.1121
1137.0,0.2385
1138.0,0.1702
1139.0,0.2373
1140.0,0.2046
1141.0,0.1617
1142.0,0.1825
1143.0,0.2523
1144.0,0.0968
1145.0,0.1255
1146.0,0.1355
1147.0,0.05497
1148.0,0.2185
1149.0,0.1797
1150.0,0.1038
1151.0,0.169
1152.0,0.2019
1153.0,0.1923
1154.0,0.1234
1155.0,0.2478
1156.0,0.2263
1157.0,0.2494
1158.0,0.2465
1159.0,0.2616
1160.0,0.2288
1161.0,0.2724
1162.0,0.2744
1163.0,0.3547
1164.0,0.3102
1165.0,0.298
1166.0,0.2923
1167.0,0.3153
1168.0,0.3199
1169.0,0.3254
1170.0,0.3491
1171.0,0.3412
1172.0,0.3447
1173.0,0.3483
1174.0,0.2617
1175.0,0.3384
1176.0,0.3659
1177.0,0.3552
1178.0,0.2766
1179.0,0.3686
1180.0,0.3358
1181.0,0.3458
1182.0,0.2493
1183.0,0.339
1184.0,0.3212
1185.0,0.313
1186.0,0.3608
1187.0,0.3468
1188.0,0.2544
1189.0,0.3239
1190.0,0.3526
1191.0,0.3401
1192.0,0.3569
1193.0,0.344
1194.0,0.3532
1195.0,0.3378
1196.0,0.3277
1197.0,0.3513
1198.0,0.3244
1199.0,0.2846
1200.0,0.34
1201.0,0.3308
1202.0,0.3272
1203.0,0.3246
1204.0,0.2888
1205.0,0.3323
1206.0,0.3622
1207.0,0.3272
1208.0,0.3195
1209.0,0.3254
1210.0,0.337
1211.0,0.3243
1212.0,0.324
1213.0,0.352
1214.0,0.3299
1215.0,0.3246
1216.0,0.3508
1217.0,0.3432
1218.0,0.3481
1219.0,0.3446
1220.0,0.3482
1221.0,0.3508
1222.0,0.3427
1223.0,0.3401
1224.0,0.3392
1225.0,0.3486
1226.0,0.3499
1227.0,0.327
1228.0,0.3507
1229.0,0.3499
1230.0,0.3447
1231.0,0.3519
1232.0,0.3499
1233.0,0.3412
1234.0,0.3508
1235.0,0.3491
1236.0,0.3513
1237.0,0.3477
1238.0,0.3501
1239.0,0.3456
1240.0,0.3468
1241.0,0.3459
1242.0,0.3445
1243.0,0.3416
1244.0,0.3443
1245.0,0.3456
1246.0,0.3436
1247.0,0.3425
1248.0,0.3426
1249.0,0.3433
1250.0,0.3415
1251.0,0.3376
1252.0,0.337
1253.0,0.3355
1254.0,0.333
1255.0,0.337
1256.0,0.3297
1257.0,0.3283
1258.0,0.3327
1259.0,0.324
1260.0,0.3253
1261.0,0.3113
1262.0,0.3042
1263.0,0.3049
1264.0,0.2867
1265.0,0.3028
1266.0,0.2945
1267.0,0.2975
1268.0,0.2856
1269.0,0.2013
1270.0,0.2973
1271.0,0.3097
1272.0,0.3102
1273.0,0.3074
1274.0,0.3078
1275.0,0.3114
1276.0,0.3136
1277.0,0.3148
1278.0,0.319
1279.0,0.3163
1280.0,0.3122
1281.0,0.2971
1282.0,0.285
1283.0,0.3072
1284.0,0.3148
1285.0,0.3167
1286.0,0.3202
1287.0,0.3167
1288.0,0.3162
1289.0,0.3088
1290.0,0.3132
1291.0,0.3171
1292.0,0.3029
1293.0,0.3122
1294.0,0.3103
1295.0,0.31
1296.0,0.2992
1297.0,0.2856
1298.0,0.3023
1299.0,0.3121
1300.0,0.2732
1301.0,0.2797
1302.0,0.3011
1303.0,0.2686
1304.0,0.2376
1305.0,0.2956
1306.0,0.2961
1307.0,0.2398
1308.0,0.2677
1309.0,0.2945
1310.0,0.2356
1311.0,0.2585
1312.0,0.2529
1313.0,0.2493
1314.0,0.2263
1315.0,0.2252
1316.0,0.2558
1317.0,0.2433
1318.0,0.261
1319.0,0.2142
1320.0,0.2053
1321.0,0.2356
1322.0,0.2394
1323.0,0.1887
1324.0,0.21
1325.0,0.2526
1326.0,0.2222
1327.0,0.2133
1328.0,0.1867
1329.0,0.1475
1330.0,0.1882
1331.0,0.1227
1332.0,0.1235
1333.0,0.1694
1334.0,0.14
1335.0,0.1878
1336.0,0.153
1337.0,0.1381
1338.0,0.149
1339.0,0.1472
1340.0,0.1409
1341.0,0.1427
1342.0,0.1496
1343.0,0.1127
1344.0,0.0673
1345.0,0.09554
1346.0,0.05555
1347.0,0.05782
1348.0,0.005633
1349.0,0.01787
1350.0,0.01702
1351.0,0.005921
1352.0,0.002285
1353.0,0.0001821
1354.0,0.00048
1355.0,9.205e-06
1356.0,9.257e-05
1357.0,0.0001386
1358.0,1.053e-05
1359.0,2.475e-06
1360.0,6.022e-06
1361.0,2.644e-08
1362.0,1.369e-10
1363.0,9.325e-06
1364.0,4.205e-06
1365.0,9.688e-11
1366.0,3.431e-05
1367.0,1.323e-05
1368.0,3.1e-12
1369.0,1.654e-06
1370.0,1.057e-06
1371.0,8.592e-08
1372.0,7.352e-06
1373.0,9.437e-05
1374.0,0.0003254
1375.0,0.0005805
1376.0,0.0004261
1377.0,0.0002103
1378.0,0.001737
1379.0,9.046e-05
1380.0,0.0001533
1381.0,5.002e-06
1382.0,7.121e-06
1383.0,1.435e-07
1384.0,2.059e-06
1385.0,5.095e-06
1386.0,7.543e-06
1387.0,0.0003897
1388.0,8.463e-06
1389.0,0.0009753
1390.0,0.0008327
1391.0,0.0006029
1392.0,4.518e-05
1393.0,0.0002011
1394.0,0.0001623
1395.0,1.792e-06
1396.0,3.196e-08
1397.0,9.08e-05
1398.0,0.00199
1399.0,0.001269
1400.0,1.942e-08
1401.0,5.049e-08
1402.0,0.002425
1403.0,0.00325
1404.0,0.001024
1405.0,1.095e-06
1406.0,0.002958
1407.0,0.0002535
1408.0,0.002383
1409.0,0.0009939
1410.0,0.0007157
1411.0,0.002827
1412.0,0.003441
1413.0,0.02529
1414.0,0.0005525
1415.0,0.0002962
1416.0,0.0352
1417.0,0.01305
1418.0,0.0149
1419.0,0.002447
1420.0,0.009232
1421.0,0.01022
1422.0,0.04515
1423.0,0.009451
1424.0,0.01713
1425.0,0.0259
1426.0,0.02738
1427.0,0.04558
1428.0,0.00544
1429.0,0.03611
1430.0,0.05661
1431.0,0.06094
1432.0,0.00436
1433.0,0.04057
1434.0,0.02156
1435.0,0.02466
1436.0,0.04255
1437.0,0.03269
1438.0,0.01523
1439.0,0.05561
1440.0,0.042
1441.0,0.03433
1442.0,0.03747
1443.0,0.04353
1444.0,0.05893
1445.0,0.04885
1446.0,0.02284
1447.0,0.03599
1448.0,0.1014
1449.0,0.09084
1450.0,0.02662
1451.0,0.01146
1452.0,0.05729
1453.0,0.07354
1454.0,0.1168
1455.0,0.05862
1456.0,0.08025
1457.0,0.1019
1458.0,0.1148
1459.0,0.1366
1460.0,0.07409
1461.0,0.07964
1462.0,0.1122
