interpolation:linear
wavelength,value
280.0,4.563999999999999e-22
280.5,1.491e-20
281.0,7.970000000000001e-20
281.5,4.597e-19
282.0,7.604e-19
282.5,1.883e-18
283.0,5.943e-18
283.5,9.662e-18
284.0,1.581e-16
284.5,4.598e-16
285.0,7.917e-16
285.5,3.918e-15
286.0,1.576e-14
286.5,7.064e-14
287.0,2.021e-13
287.5,7.761e-13
288.0,2.595e-12
288.5,7.904e-12
289.0,2.113e-11
289.5,6.394e-11
290.0,1.777e-10
290.5,3.624e-10
291.0,7.782e-10
291.5,2.234e-09
292.0,4.726e-09
292.5,6.637e-09
293.0,1.425e-08
293.5,3.471e-08
294.0,5.431e-08
294.5,7.36e-08
295.0,1.247e-07
295.5,2.223e-07
296.0,4.359e-07
296.5,6.214e-07
297.0,8.557e-07
297.5,2.369e-06
298.0,3.854e-06
298.5,3.987e-06
299.0,9.065e-06
299.5,1.603e-05
300.0,1.834e-05
300.5,2.779e-05
301.0,5.455e-05
301.5,9.448e-05
302.0,8.466e-05
302.5,0.000171
303.0,0.0003223
303.5,0.0004207
304.0,0.0004081
304.5,0.0006625
305.0,0.001132
305.5,0.0014
306.0,0.001397
306.5,0.001829
307.0,0.003034
307.5,0.004498
308.0,0.004837
308.5,0.006033
309.0,0.006185
309.5,0.007626
310.0,0.007929
310.5,0.01306
311.0,0.01686
311.5,0.01648
312.0,0.01749
312.5,0.02215
313.0,0.02452
313.5,0.02337
314.0,0.03063
314.5,0.0289
315.0,0.0384
315.5,0.03119
316.0,0.02864
316.5,0.04294
317.0,0.05327
317.5,0.05478
318.0,0.04401
318.5,0.05778
319.0,0.07053
319.5,0.05497
320.0,0.06599
320.5,0.0874
321.0,0.08188
321.5,0.07892
322.0,0.07969
322.5,0.06954
323.0,0.07176
323.5,0.09106
324.0,0.1069
324.5,0.107
325.0,0.09092
325.5,0.1203
326.0,0.1482
326.5,0.1512
327.0,0.1497
327.5,0.1434
328.0,0.1247
328.5,0.135
329.0,0.1655
329.5,0.1892
330.0,0.1899
330.5,0.1493
331.0,0.1513
331.5,0.1559
332.0,0.1717
332.5,0.1714
333.0,0.1701
333.5,0.1518
334.0,0.1552
334.5,0.1821
335.0,0.1728
335.5,0.2022
336.0,0.14
336.5,0.163
337.0,0.1329
337.5,0.1649
338.0,0.1632
338.5,0.1891
339.0,0.1873
339.5,0.1802
340.0,0.2113
340.5,0.1908
341.0,0.1865
341.5,0.1716
342.0,0.2052
342.5,0.1922
343.0,0.2112
343.5,0.1989
344.0,0.1468
344.5,0.1485
345.0,0.1969
345.5,0.2013
346.0,0.1713
346.5,0.1941
347.0,0.2083
347.5,0.1685
348.0,0.1924
348.5,0.1925
349.0,0.1787
349.5,0.1771
350.0,0.2191
350.5,0.2313
351.0,0.2066
351.5,0.2006
352.0,0.2158
352.5,0.1686
353.0,0.2126
353.5,0.2275
354.0,0.2363
354.5,0.2398
355.0,0.239
355.5,0.2161
356.0,0.2263
356.5,0.1933
357.0,0.1598
357.5,0.1957
358.0,0.1552
358.5,0.1327
359.0,0.1856
359.5,0.2365
360.0,0.2509
360.5,0.2007
361.0,0.1831
361.5,0.211
362.0,0.1827
362.5,0.2531
363.0,0.2275
363.5,0.2098
364.0,0.2567
364.5,0.2196
365.0,0.2238
365.5,0.281
366.0,0.298
366.5,0.2802
367.0,0.273
367.5,0.2835
368.0,0.2483
368.5,0.2507
369.0,0.2709
369.5,0.2889
370.0,0.3082
370.5,0.2394
371.0,0.256
371.5,0.3204
372.0,0.2127
372.5,0.2552
373.0,0.2598
373.5,0.1692
374.0,0.246
374.5,0.2039
375.0,0.1983
375.5,0.2962
376.0,0.2456
376.5,0.2546
377.0,0.2698
377.5,0.3159
378.0,0.3425
378.5,0.3239
379.0,0.2674
379.5,0.2443
380.0,0.2541
380.5,0.308
381.0,0.3089
381.5,0.2451
382.0,0.2179
382.5,0.1859
383.0,0.1722
383.5,0.166
384.0,0.1833
384.5,0.2697
385.0,0.2676
385.5,0.2494
386.0,0.2138
386.5,0.281
387.0,0.2336
387.5,0.2626
388.0,0.2426
388.5,0.2399
389.0,0.2591
389.5,0.3141
390.0,0.3154
390.5,0.2904
391.0,0.3421
391.5,0.3491
392.0,0.2942
392.5,0.2636
393.0,0.1468
393.5,0.1068
394.0,0.2174
394.5,0.2765
395.0,0.3376
395.5,0.3431
396.0,0.2976
396.5,0.1741
397.0,0.1308
397.5,0.2661
398.0,0.3727
398.5,0.3855
399.0,0.4178
399.5,0.4167
400.0,0.4328
401.0,0.4371
402.0,0.4618
403.0,0.4393
404.0,0.4329
405.0,0.4333
406.0,0.4268
407.0,0.4205
408.0,0.4371
409.0,0.4683
410.0,0.4097
411.0,0.4442
412.0,0.4778
413.0,0.4662
414.0,0.4725
415.0,0.4743
416.0,0.4832
417.0,0.4717
418.0,0.4634
419.0,0.4699
420.0,0.4682
421.0,0.4903
422.0,0.4664
423.0,0.456
424.0,0.4825
425.0,0.4821
426.0,0.4703
427.0,0.4619
428.0,0.4502
429.0,0.427
430.0,0.3741
431.0,0.3708
432.0,0.4794
433.0,0.4824
434.0,0.4481
435.0,0.4682
436.0,0.5282
437.0,0.5218
438.0,0.4756
439.0,0.4915
440.0,0.5076
441.0,0.5266
442.0,0.565
443.0,0.5503
444.0,0.5628
445.0,0.5507
446.0,0.5263
447.0,0.5698
448.0,0.5784
449.0,0.5816
450.0,0.5983
451.0,0.6208
452.0,0.5985
453.0,0.5634
454.0,0.5887
455.0,0.5925
456.0,0.6069
457.0,0.6171
458.0,0.5958
459.0,0.593
460.0,0.5945
461.0,0.6084
462.0,0.6137
463.0,0.6095
464.0,0.6003
465.0,0.5935
466.0,0.5998
467.0,0.5887
468.0,0.5957
469.0,0.5989
470.0,0.5798
471.0,0.5793
472.0,0.6104
473.0,0.6025
474.0,0.603
475.0,0.6077
476.0,0.5888
477.0,0.59
478.0,0.6066
479.0,0.6034
480.0,0.605
481.0,0.6169
482.0,0.6208
483.0,0.6141
484.0,0.602
485.0,0.5741
486.0,0.5024
487.0,0.527
488.0,0.5781
489.0,0.5797
490.0,0.6103
491.0,0.6001
492.0,0.5668
493.0,0.5855
494.0,0.5915
495.0,0.5966
496.0,0.6003
497.0,0.6096
498.0,0.581
499.0,0.5882
500.0,0.5707
501.0,0.5598
502.0,0.551
503.0,0.5725
504.0,0.5554
505.0,0.5774
506.0,0.596
507.0,0.5673
508.0,0.5505
509.0,0.5666
510.0,0.5641
511.0,0.5798
512.0,0.5864
513.0,0.5551
514.0,0.5516
515.0,0.5461
516.0,0.5447
517.0,0.4841
518.0,0.5089
519.0,0.5338
520.0,0.5531
521.0,0.5583
522.0,0.5585
523.0,0.5483
524.0,0.5675
525.0,0.5735
526.0,0.5476
527.0,0.5155
528.0,0.5447
529.0,0.5738
530.0,0.5653
531.0,0.5734
532.0,0.5536
533.0,0.5374
534.0,0.5535
535.0,0.566
536.0,0.5714
537.0,0.5492
538.0,0.5591
539.0,0.5543
540.0,0.5313
541.0,0.534
542.0,0.5504
543.0,0.5452
544.0,0.554
545.0,0.5524
546.0,0.5542
547.0,0.5545
548.0,0.5482
549.0,0.5501
550.0,0.5567
551.0,0.55
552.0,0.5538
553.0,0.5438
554.0,0.5568
555.0,0.5577
556.0,0.5503
557.0,0.533
558.0,0.5285
559.0,0.5182
560.0,0.5244
561.0,0.5308
562.0,0.5265
563.0,0.5403
564.0,0.5251
565.0,0.5202
566.0,0.5122
567.0,0.5213
568.0,0.5153
569.0,0.5004
570.0,0.5006
571.0,0.4983
572.0,0.5084
573.0,0.5135
574.0,0.5115
575.0,0.5013
576.0,0.4968
577.0,0.5025
578.0,0.4957
579.0,0.4989
580.0,0.5104
581.0,0.5145
582.0,0.5255
583.0,0.5279
584.0,0.5332
585.0,0.5206
586.0,0.51
587.0,0.5203
588.0,0.5043
589.0,0.4404
590.0,0.461
591.0,0.4917
592.0,0.4833
593.0,0.4934
594.0,0.4887
595.0,0.4743
596.0,0.4983
597.0,0.4915
598.0,0.4919
599.0,0.493
600.0,0.4951
601.0,0.4921
602.0,0.4889
603.0,0.4975
604.0,0.506
605.0,0.5037
606.0,0.5022
607.0,0.5078
608.0,0.5028
609.0,0.5042
610.0,0.5012
611.0,0.5041
612.0,0.503
613.0,0.497
614.0,0.4907
615.0,0.5018
616.0,0.4857
617.0,0.485
618.0,0.504
619.0,0.4991
620.0,0.5022
621.0,0.5023
622.0,0.496
623.0,0.488
624.0,0.4801
625.0,0.479
626.0,0.486
627.0,0.4902
628.0,0.4429
629.0,0.4734
630.0,0.462
631.0,0.4775
632.0,0.4727
633.0,0.4892
634.0,0.4861
635.0,0.4945
636.0,0.4889
637.0,0.4976
638.0,0.5036
639.0,0.4986
640.0,0.4944
641.0,0.4947
642.0,0.493
643.0,0.4997
644.0,0.4988
645.0,0.4992
646.0,0.4858
647.0,0.4759
648.0,0.4764
649.0,0.4667
650.0,0.4742
651.0,0.4958
652.0,0.4697
653.0,0.4895
654.0,0.4845
655.0,0.4637
656.0,0.4129
657.0,0.4243
658.0,0.4772
659.0,0.4813
660.0,0.4837
661.0,0.4872
662.0,0.4872
663.0,0.478
664.0,0.4852
665.0,0.4867
666.0,0.4876
667.0,0.4877
668.0,0.4886
669.0,0.4965
670.0,0.4946
671.0,0.4948
672.0,0.4908
673.0,0.4984
674.0,0.4968
675.0,0.4925
676.0,0.4961
677.0,0.4914
678.0,0.493
679.0,0.4853
680.0,0.4893
681.0,0.4861
682.0,0.4855
683.0,0.4847
684.0,0.4822
685.0,0.4866
686.0,0.4834
687.0,0.2591
688.0,0.331
689.0,0.3331
690.0,0.3592
691.0,0.3897
692.0,0.4134
693.0,0.4093
694.0,0.4069
695.0,0.4316
696.0,0.4326
697.0,0.4683
698.0,0.4608
699.0,0.4436
700.0,0.4379
701.0,0.4311
702.0,0.4365
703.0,0.4378
704.0,0.4556
705.0,0.4563
706.0,0.4573
707.0,0.4583
708.0,0.4591
709.0,0.4623
710.0,0.4609
711.0,0.4612
712.0,0.461
713.0,0.4552
714.0,0.4573
715.0,0.4403
716.0,0.4399
717.0,0.3588
718.0,0.3273
719.0,0.298
720.0,0.3099
721.0,0.3552
722.0,0.4206
723.0,0.3845
724.0,0.3378
725.0,0.3295
726.0,0.3458
727.0,0.3564
728.0,0.3276
729.0,0.3478
730.0,0.3666
731.0,0.3491
732.0,0.3818
733.0,0.412
734.0,0.4242
735.0,0.4141
736.0,0.4134
737.0,0.415
738.0,0.4274
739.0,0.419
740.0,0.4317
741.0,0.4285
742.0,0.43
743.0,0.4413
744.0,0.4407
745.0,0.4414
746.0,0.4434
747.0,0.4445
748.0,0.4437
749.0,0.4387
750.0,0.4385
751.0,0.4341
752.0,0.436
753.0,0.4383
754.0,0.4393
755.0,0.4367
756.0,0.4367
757.0,0.4373
758.0,0.4317
759.0,0.4191
760.0,0.02774
761.0,0.01064
762.0,0.1524
763.0,0.05256
764.0,0.09784
765.0,0.1522
766.0,0.2127
767.0,0.2984
768.0,0.3708
769.0,0.3849
770.0,0.4052
771.0,0.4117
772.0,0.4136
773.0,0.4167
774.0,0.4149
775.0,0.4119
776.0,0.417
777.0,0.4116
778.0,0.409
779.0,0.4094
780.0,0.4072
781.0,0.4076
782.0,0.4102
783.0,0.4032
784.0,0.4053
785.0,0.402
786.0,0.4062
787.0,0.3962
788.0,0.3899
789.0,0.3896
790.0,0.3753
791.0,0.3824
792.0,0.3802
793.0,0.3737
794.0,0.3841
795.0,0.3895
796.0,0.372
797.0,0.372
798.0,0.3884
799.0,0.3849
800.0,0.3769
801.0,0.3744
802.0,0.3733
803.0,0.3697
804.0,0.3709
805.0,0.3713
806.0,0.3845
807.0,0.3793
808.0,0.3799
809.0,0.3706
810.0,0.3663
811.0,0.3637
812.0,0.3497
813.0,0.3407
814.0,0.2889
815.0,0.2878
816.0,0.2666
817.0,0.2723
818.0,0.2596
819.0,0.2994
820.0,0.2787
821.0,0.3393
822.0,0.3274
823.0,0.2023
824.0,0.3128
825.0,0.3333
826.0,0.3163
827.0,0.3383
828.0,0.274
829.0,0.3153
830.0,0.3101
831.0,0.3113
832.0,0.2994
833.0,0.3246
834.0,0.309
835.0,0.3488
836.0,0.3276
837.0,0.3501
838.0,0.336
839.0,0.3454
840.0,0.3537
841.0,0.3474
842.0,0.3502
843.0,0.3522
844.0,0.3461
845.0,0.3594
846.0,0.3582
847.0,0.3522
848.0,0.349
849.0,0.3391
850.0,0.325
851.0,0.3431
852.0,0.3412
853.0,0.3292
854.0,0.2835
855.0,0.3125
856.0,0.3411
857.0,0.3494
858.0,0.3465
859.0,0.3472
860.0,0.3481
861.0,0.3462
862.0,0.3517
863.0,0.3601
864.0,0.3421
865.0,0.3392
866.0,0.305
867.0,0.3183
868.0,0.3464
869.0,0.3393
870.0,0.349
871.0,0.3442
872.0,0.3431
873.0,0.3424
874.0,0.3383
875.0,0.3314
876.0,0.3348
877.0,0.3383
878.0,0.3418
879.0,0.3366
880.0,0.3294
881.0,0.324
882.0,0.3307
883.0,0.3323
884.0,0.3306
885.0,0.3331
886.0,0.3156
887.0,0.3204
888.0,0.3243
889.0,0.3295
890.0,0.3249
891.0,0.3253
892.0,0.3134
893.0,0.3012
894.0,0.2854
895.0,0.2631
896.0,0.2461
897.0,0.2038
898.0,0.2262
899.0,0.1635
900.0,0.2365
901.0,0.1714
902.0,0.2126
903.0,0.2106
904.0,0.2831
905.0,0.271
906.0,0.2515
907.0,0.1922
908.0,0.1983
909.0,0.2197
910.0,0.1849
911.0,0.2039
912.0,0.2141
913.0,0.1872
914.0,0.1875
915.0,0.2027
916.0,0.1701
917.0,0.2251
918.0,0.1737
919.0,0.2324
920.0,0.2414
921.0,0.2509
922.0,0.2174
923.0,0.2431
924.0,0.2212
925.0,0.2168
926.0,0.2181
927.0,0.251
928.0,0.1646
929.0,0.1452
930.0,0.1062
931.0,0.101
932.0,0.06483
933.0,0.04927
934.0,0.02029
935.0,0.05313
936.0,0.02865
937.0,0.02879
938.0,0.03702
939.0,0.09763
940.0,0.1234
941.0,0.0856
942.0,0.1031
943.0,0.06215
944.0,0.07114
945.0,0.08989
946.0,0.0383
947.0,0.08824
948.0,0.06407
949.0,0.1256
950.0,0.02477
951.0,0.1248
952.0,0.05766
953.0,0.08067
954.0,0.106
955.0,0.08235
956.0,0.08656
957.0,0.05716
958.0,0.131
959.0,0.09524
960.0,0.1068
961.0,0.1269
962.0,0.1196
963.0,0.144
964.0,0.1301
965.0,0.1435
966.0,0.1425
967.0,0.1411
968.0,0.2133
969.0,0.2194
970.0,0.1992
971.0,0.2386
972.0,0.226
973.0,0.186
974.0,0.1755
975.0,0.1859
976.0,0.1705
977.0,0.2064
978.0,0.1909
979.0,0.203
980.0,0.1892
981.0,0.2376
982.0,0.2231
983.0,0.2121
984.0,0.2497
985.0,0.2221
986.0,0.2571
987.0,0.2485
988.0,0.2484
989.0,0.2583
990.0,0.2467
991.0,0.2587
992.0,0.2606
993.0,0.2513
994.0,0.2609
995.0,0.2611
996.0,0.2594
997.0,0.26
998.0,0.2586
999.0,0.2578
1000.0,0.2552
1001.0,0.2593
1002.0,0.2487
1003.0,0.2545
1004.0,0.2473
1005.0,0.2395
1006.0,0.2483
1007.0,0.2539
1008.0,0.2519
1009.0,0.2498
1010.0,0.2484
1011.0,0.2527
1012.0,0.2498
1013.0,0.2522
1014.0,0.2505
1015.0,0.2487
1016.0,0.2475
1017.0,0.248
1018.0,0.2475
1019.0,0.2409
1020.0,0.246
1021.0,0.2459
1022.0,0.2435
1023.0,0.246
1024.0,0.2414
1025.0,0.2463
1026.0,0.2449
1027.0,0.2444
1028.0,0.2438
1029.0,0.2407
1030.0,0.2429
1031.0,0.2417
1032.0,0.2412
1033.0,0.2375
1034.0,0.2376
1035.0,0.2383
1036.0,0.2394
1037.0,0.2356
1038.0,0.2365
1039.0,0.2363
1040.0,0.2353
1041.0,0.2362
1042.0,0.2345
1043.0,0.2337
1044.0,0.2344
1045.0,0.2312
1046.0,0.2285
1047.0,0.2305
1048.0,0.2316
1049.0,0.2307
1050.0,0.2295
1051.0,0.2291
1052.0,0.228
1053.0,0.226
1054.0,0.2263
1055.0,0.2263
1056.0,0.2252
1057.0,0.2243
1058.0,0.2187
1059.0,0.2187
1060.0,0.2182
1061.0,0.2178
1062.0,0.2188
1063.0,0.2164
1064.0,0.2191
1065.0,0.217
1066.0,0.2131
1067.0,0.2157
1068.0,0.2106
1069.0,0.2044
1070.0,0.211
1071.0,0.2155
1072.0,0.2121
1073.0,0.2092
1074.0,0.216
1075.0,0.2017
1076.0,0.2156
1077.0,0.2098
1078.0,0.2049
1079.0,0.2128
1080.0,0.2067
1081.0,0.1983
1082.0,0.2044
1083.0,0.2058
1084.0,0.1971
1085.0,0.2074
1086.0,0.1846
1087.0,0.1937
1088.0,0.2051
1089.0,0.1954
1090.0,0.1894
1091.0,0.2035
1092.0,0.2036
1093.0,0.1638
1094.0,0.1852
1095.0,0.1712
1096.0,0.1615
1097.0,0.199
1098.0,0.1577
1099.0,0.1658
1100.0,0.1507
1101.0,0.1538
1102.0,0.1445
1103.0,0.1414
1104.0,0.1418
1105.0,0.1613
1106.0,0.1095
1107.0,0.1506
1108.0,0.1194
1109.0,0.1211
1110.0,0.1476
1111.0,0.08927
1112.0,0.1207
1113.0,0.06635
1114.0,0.07471
1115.0,0.06121
1116.0,0.04334
1117.0,0.01108
1118.0,0.04856
1119.0,0.01967
1120.0,0.02416
1121.0,0.0344
1122.0,0.01106
1123.0,0.02203
1124.0,0.01853
1125.0,0.02527
1126.0,0.005653
1127.0,0.02882
1128.0,0.01357
1129.0,0.01476
1130.0,0.008938
1131.0,0.06494
1132.0,0.04889
1133.0,0.0255
1134.0,0.004259
1135.0,0.001746
1136.0,0.01946
1137.0,0.06162
1138.0,0.04242
1139.0,0.07553
1140.0,0.05837
1141.0,0.04046
1142.0,0.04876
1143.0,0.07461
1144.0,0.02075
1145.0,0.02459
1146.0,0.02646
1147.0,0.006237
1148.0,0.06392
1149.0,0.04763
1150.0,0.02335
1151.0,0.04208
1152.0,0.0559
1153.0,0.05777
1154.0,0.02401
1155.0,0.07861
1156.0,0.06826
1157.0,0.08161
1158.0,0.08054
1159.0,0.08966
1160.0,0.0742
1161.0,0.09844
1162.0,0.09823
1163.0,0.1455
1164.0,0.1202
1165.0,0.1088
1166.0,0.1118
1167.0,0.124
1168.0,0.1243
1169.0,0.1285
1170.0,0.1437
1171.0,0.1399
1172.0,0.1451
1173.0,0.1435
1174.0,0.09343
1175.0,0.1424
1176.0,0.1619
1177.0,0.1518
1178.0,0.1071
1179.0,0.1633
1180.0,0.14
1181.0,0.1447
1182.0,0.09217
1183.0,0.1437
1184.0,0.132
1185.0,0.125
1186.0,0.1562
1187.0,0.1462
1188.0,0.09239
1189.0,0.1358
1190.0,0.1532
1191.0,0.1404
1192.0,0.1558
1193.0,0.1476
1194.0,0.1533
1195.0,0.1415
1196.0,0.1344
1197.0,0.1548
1198.0,0.1399
1199.0,0.112
1200.0,0.1456
1201.0,0.1379
1202.0,0.1392
1203.0,0.1368
1204.0,0.1166
1205.0,0.1444
1206.0,0.163
1207.0,0.1378
1208.0,0.1378
1209.0,0.141
1210.0,0.1485
1211.0,0.1389
1212.0,0.1334
1213.0,0.1558
1214.0,0.1381
1215.0,0.135
1216.0,0.1557
1217.0,0.1502
1218.0,0.1543
1219.0,0.1516
1220.0,0.1546
1221.0,0.1569
1222.0,0.1523
1223.0,0.1502
1224.0,0.1479
1225.0,0.1557
1226.0,0.1578
1227.0,0.1419
1228.0,0.1594
1229.0,0.1578
1230.0,0.1545
1231.0,0.1612
1232.0,0.1602
1233.0,0.1515
1234.0,0.1618
1235.0,0.1603
1236.0,0.1618
1237.0,0.1582
1238.0,0.1613
1239.0,0.1592
1240.0,0.16
1241.0,0.1584
1242.0,0.1588
1243.0,0.1575
1244.0,0.1584
1245.0,0.1592
1246.0,0.1583
1247.0,0.1575
1248.0,0.157
1249.0,0.1578
1250.0,0.1566
1251.0,0.1541
1252.0,0.1548
1253.0,0.1524
1254.0,0.15
1255.0,0.1543
1256.0,0.1479
1257.0,0.1466
1258.0,0.1511
1259.0,0.1424
1260.0,0.1435
1261.0,0.1314
1262.0,0.1254
1263.0,0.1256
1264.0,0.1113
1265.0,0.1248
1266.0,0.1174
1267.0,0.1213
1268.0,0.1121
1269.0,0.05245
1270.0,0.1202
1271.0,0.1315
1272.0,0.1324
1273.0,0.1305
1274.0,0.1315
1275.0,0.1342
1276.0,0.1363
1277.0,0.1382
1278.0,0.1424
1279.0,0.141
1280.0,0.1394
1281.0,0.1337
1282.0,0.1301
1283.0,0.1399
1284.0,0.143
1285.0,0.1441
1286.0,0.1468
1287.0,0.1432
1288.0,0.1436
1289.0,0.1365
1290.0,0.1425
1291.0,0.1449
1292.0,0.1316
1293.0,0.141
1294.0,0.1398
1295.0,0.1377
1296.0,0.1287
1297.0,0.1197
1298.0,0.1332
1299.0,0.1416
1300.0,0.1127
1301.0,0.1175
1302.0,0.1329
1303.0,0.112
1304.0,0.0891
1305.0,0.1298
1306.0,0.1292
1307.0,0.09341
1308.0,0.1133
1309.0,0.1271
1310.0,0.09109
1311.0,0.1071
1312.0,0.1033
1313.0,0.09981
1314.0,0.08704
1315.0,0.08446
1316.0,0.1042
1317.0,0.09781
1318.0,0.1091
1319.0,0.0776
1320.0,0.07672
1321.0,0.09205
1322.0,0.09154
1323.0,0.06277
1324.0,0.07641
1325.0,0.1019
1326.0,0.08365
1327.0,0.0787
1328.0,0.06574
1329.0,0.04414
1330.0,0.06019
1331.0,0.03079
1332.0,0.03342
1333.0,0.04757
1334.0,0.04386
1335.0,0.06208
1336.0,0.04588
1337.0,0.03961
1338.0,0.04253
1339.0,0.04312
1340.0,0.04359
1341.0,0.03867
1342.0,0.0411
1343.0,0.02166
1344.0,0.01356
1345.0,0.01923
1346.0,0.00655
1347.0,0.00617
1348.0,0.0001812
1349.0,0.0007877
1350.0,0.0009356
1351.0,0.0001092
1352.0,1.152e-05
1353.0,2.98e-07
1354.0,1.757e-06
1355.0,3.333e-09
1356.0,1.428e-07
1357.0,2.165e-07
1358.0,4.124e-09
1359.0,2.708e-10
1360.0,1.401e-09
1361.0,8.57e-13
1362.0,2.282e-15
1363.0,1.42e-09
1364.0,6.205e-10
1365.0,7.871e-16
1366.0,7.075e-09
1367.0,3.658e-09
1368.0,6.064e-18
1369.0,2.29e-10
1370.0,9.403e-11
1371.0,4.79e-12
1372.0,2.062e-09
1373.0,7.513e-08
1374.0,5.955e-07
1375.0,9.271e-07
1376.0,1.643e-06
1377.0,6.777e-07
1378.0,7.359e-06
1379.0,2.925e-07
1380.0,2.711e-07
1381.0,5.826e-09
1382.0,1.655e-09
1383.0,2.117e-11
1384.0,2.286e-10
1385.0,2.524e-09
1386.0,1.177e-09
1387.0,3.82e-07
1388.0,1.01e-08
1389.0,2.671e-06
1390.0,2.133e-06
1391.0,1.365e-06
1392.0,8.52e-08
1393.0,5.942e-07
1394.0,1.098e-07
1395.0,5.711e-10
1396.0,1.149e-12
1397.0,1.898e-07
1398.0,7.396e-06
1399.0,4.956e-06
1400.0,4.717e-13
1401.0,2.091e-12
1402.0,3.847e-05
1403.0,3.884e-05
1404.0,1.058e-05
1405.0,2.029e-10
1406.0,1.912e-05
1407.0,2.694e-06
1408.0,1.688e-05
1409.0,3.34e-06
1410.0,4.401e-06
1411.0,3.583e-05
1412.0,6.297e-05
1413.0,0.001227
1414.0,3.789e-06
1415.0,1.457e-06
1416.0,0.00339
1417.0,0.0006809
1418.0,0.0006304
1419.0,8.901e-05
1420.0,0.0003796
1421.0,0.0004756
1422.0,0.004438
1423.0,0.0007925
1424.0,0.001639
1425.0,0.00211
1426.0,0.002999
1427.0,0.006726
1428.0,0.0001551
1429.0,0.004275
1430.0,0.009382
1431.0,0.01084
