interpolation:linear
wavelength,value
280.0,2.514e-21
280.5,7.915e-20
281.0,4.182e-19
281.5,3.625e-19
282.0,1.022e-18
282.5,2.68e-18
283.0,8.663e-18
283.5,1.418e-17
284.0,2.314e-16
284.5,6.687e-16
285.0,1.498e-15
285.5,7.232e-15
286.0,2.888e-14
286.5,1.272e-13
287.0,3.599e-13
287.5,1.361e-12
288.0,3.686e-12
288.5,1.214e-11
289.0,3.425e-11
289.5,1.079e-10
290.0,3.072e-10
290.5,6.372e-10
291.0,1.39e-09
291.5,4.051e-09
292.0,8.573e-09
292.5,1.283e-08
293.0,2.985e-08
293.5,8.106e-08
294.0,1.369e-07
294.5,1.773e-07
295.0,3.237e-07
295.5,8.296e-07
296.0,1.662e-06
296.5,2.424e-06
297.0,3.408e-06
297.5,9.737e-06
298.0,1.629e-05
298.5,1.723e-05
299.0,4.002e-05
299.5,7.326e-05
300.0,8.558e-05
300.5,0.0001325
301.0,0.0002706
301.5,0.0004921
302.0,0.0004565
302.5,0.0009041
303.0,0.001653
303.5,0.002105
304.0,0.001994
304.5,0.003038
305.0,0.004733
305.5,0.005512
306.0,0.005369
306.5,0.006755
307.0,0.01024
307.5,0.01389
308.0,0.01472
308.5,0.01755
309.0,0.01734
309.5,0.02005
310.0,0.02025
310.5,0.03288
311.0,0.04144
311.5,0.04008
312.0,0.04042
312.5,0.04945
313.0,0.0538
313.5,0.05212
314.0,0.06559
314.5,0.05864
315.0,0.07718
315.5,0.06433
316.0,0.05656
316.5,0.08166
317.0,0.1014
317.5,0.1054
318.0,0.08253
318.5,0.1032
319.0,0.1228
319.5,0.09964
320.0,0.1203
320.5,0.1516
321.0,0.1358
321.5,0.1303
322.0,0.1381
322.5,0.1202
323.0,0.1202
323.5,0.1482
324.0,0.1731
324.5,0.1755
325.0,0.1514
325.5,0.1953
326.0,0.239
326.5,0.2398
327.0,0.2389
327.5,0.2306
328.0,0.205
328.5,0.216
329.0,0.2592
329.5,0.2945
330.0,0.297
330.5,0.2374
331.0,0.2418
331.5,0.2461
332.0,0.2663
332.5,0.2637
333.0,0.2629
333.5,0.2377
334.0,0.2435
334.5,0.2814
335.0,0.2647
335.5,0.3092
336.0,0.214
336.5,0.2506
337.0,0.2056
337.5,0.2557
338.0,0.2499
338.5,0.2886
339.0,0.2858
339.5,0.275
340.0,0.3232
340.5,0.2914
341.0,0.2843
341.5,0.2611
342.0,0.3121
342.5,0.2921
343.0,0.3213
343.5,0.3026
344.0,0.2237
344.5,0.226
345.0,0.2992
345.5,0.3056
346.0,0.2599
346.5,0.2943
347.0,0.316
347.5,0.2556
348.0,0.2915
348.5,0.2915
349.0,0.2705
349.5,0.2679
350.0,0.3315
350.5,0.3498
351.0,0.3125
351.5,0.3037
352.0,0.3264
352.5,0.2548
353.0,0.3211
353.5,0.3434
354.0,0.3566
354.5,0.3617
355.0,0.3606
355.5,0.3259
356.0,0.3411
356.5,0.2913
357.0,0.2408
357.5,0.2948
358.0,0.2337
358.5,0.1998
359.0,0.2795
359.5,0.3562
360.0,0.3777
360.5,0.302
361.0,0.2754
361.5,0.3172
362.0,0.2745
362.5,0.3801
363.0,0.3415
363.5,0.3147
364.0,0.385
364.5,0.3292
365.0,0.3354
365.5,0.4211
366.0,0.4463
366.5,0.4195
367.0,0.4087
367.5,0.4242
368.0,0.3714
368.5,0.3748
369.0,0.4049
369.5,0.4318
370.0,0.4604
370.5,0.3575
371.0,0.3821
371.5,0.4782
372.0,0.3175
372.5,0.3808
373.0,0.3875
373.5,0.2522
374.0,0.3666
374.5,0.3037
375.0,0.2953
375.5,0.441
376.0,0.3656
376.5,0.379
377.0,0.4014
377.5,0.4698
378.0,0.5093
378.5,0.4815
379.0,0.3975
379.5,0.3631
380.0,0.3776
380.5,0.4576
381.0,0.4587
381.5,0.3638
382.0,0.3232
382.5,0.2757
383.0,0.2553
383.5,0.246
384.0,0.2714
384.5,0.3994
385.0,0.3962
385.5,0.3691
386.0,0.3162
386.5,0.4155
387.0,0.3454
387.5,0.388
388.0,0.3584
388.5,0.3544
389.0,0.3826
389.5,0.4636
390.0,0.4654
390.5,0.4284
391.0,0.5045
391.5,0.5147
392.0,0.4336
392.5,0.3883
393.0,0.2162
393.5,0.1572
394.0,0.3199
394.5,0.4069
395.0,0.4966
395.5,0.5046
396.0,0.4376
396.5,0.2559
397.0,0.1921
397.5,0.3908
398.0,0.5474
398.5,0.5659
399.0,0.6131
399.5,0.6112
400.0,0.6348
401.0,0.6433
402.0,0.6791
403.0,0.6455
404.0,0.6359
405.0,0.636
406.0,0.6261
407.0,0.6163
408.0,0.6406
409.0,0.6859
410.0,0.5997
411.0,0.6499
412.0,0.6984
413.0,0.6813
414.0,0.69
415.0,0.6921
416.0,0.7046
417.0,0.6875
418.0,0.6751
419.0,0.6842
420.0,0.6815
421.0,0.7132
422.0,0.6781
423.0,0.6627
424.0,0.7011
425.0,0.7001
426.0,0.6823
427.0,0.6698
428.0,0.6526
429.0,0.6185
430.0,0.5415
431.0,0.5368
432.0,0.6934
433.0,0.6974
434.0,0.6477
435.0,0.6766
436.0,0.7627
437.0,0.7528
438.0,0.6857
439.0,0.7091
440.0,0.732
441.0,0.7588
442.0,0.814
443.0,0.7928
444.0,0.8103
445.0,0.7929
446.0,0.757
447.0,0.8188
448.0,0.8315
449.0,0.8352
450.0,0.8588
451.0,0.8908
452.0,0.8585
453.0,0.8076
454.0,0.8434
455.0,0.8487
456.0,0.869
457.0,0.8836
458.0,0.8534
459.0,0.8491
460.0,0.8514
461.0,0.8711
462.0,0.8781
463.0,0.8721
464.0,0.858
465.0,0.8475
466.0,0.856
467.0,0.8403
468.0,0.8503
469.0,0.8548
470.0,0.8275
471.0,0.8266
472.0,0.871
473.0,0.8597
474.0,0.8608
475.0,0.868
476.0,0.8418
477.0,0.844
478.0,0.8675
479.0,0.8624
480.0,0.8643
481.0,0.8807
482.0,0.8856
483.0,0.8752
484.0,0.8574
485.0,0.8171
486.0,0.7145
487.0,0.7489
488.0,0.8217
489.0,0.8242
490.0,0.8672
491.0,0.8524
492.0,0.805
493.0,0.8314
494.0,0.8398
495.0,0.847
496.0,0.8523
497.0,0.8655
498.0,0.825
499.0,0.8355
500.0,0.811
501.0,0.796
502.0,0.7845
503.0,0.8161
504.0,0.7944
505.0,0.8237
506.0,0.8503
507.0,0.8091
508.0,0.7842
509.0,0.8065
510.0,0.8024
511.0,0.8241
512.0,0.8332
513.0,0.7887
514.0,0.7833
515.0,0.7756
516.0,0.7736
517.0,0.6875
518.0,0.7228
519.0,0.7581
520.0,0.7856
521.0,0.7931
522.0,0.7937
523.0,0.7793
524.0,0.8071
525.0,0.8163
526.0,0.7797
527.0,0.7346
528.0,0.7767
529.0,0.8186
530.0,0.8067
531.0,0.8186
532.0,0.7905
533.0,0.7673
534.0,0.7901
535.0,0.8075
536.0,0.815
537.0,0.7829
538.0,0.7968
539.0,0.7901
540.0,0.7575
541.0,0.7622
542.0,0.786
543.0,0.7779
544.0,0.7912
545.0,0.7888
546.0,0.792
547.0,0.7919
548.0,0.7825
549.0,0.7849
550.0,0.7943
551.0,0.7847
552.0,0.7901
553.0,0.776
554.0,0.7945
555.0,0.796
556.0,0.7856
557.0,0.7611
558.0,0.7553
559.0,0.741
560.0,0.7501
561.0,0.7597
562.0,0.754
563.0,0.7744
564.0,0.7531
565.0,0.7465
566.0,0.7354
567.0,0.7491
568.0,0.7419
569.0,0.7232
570.0,0.7232
571.0,0.7191
572.0,0.7356
573.0,0.7434
574.0,0.7409
575.0,0.7268
576.0,0.7202
577.0,0.7281
578.0,0.7175
579.0,0.7208
580.0,0.7353
581.0,0.7397
582.0,0.7542
583.0,0.7564
584.0,0.7633
585.0,0.7448
586.0,0.7295
587.0,0.7452
588.0,0.7257
589.0,0.6404
590.0,0.6699
591.0,0.7104
592.0,0.7006
593.0,0.7121
594.0,0.7067
595.0,0.6883
596.0,0.7175
597.0,0.7092
598.0,0.7081
599.0,0.709
600.0,0.7106
601.0,0.7052
602.0,0.7004
603.0,0.7122
604.0,0.7241
605.0,0.7205
606.0,0.7177
607.0,0.7251
608.0,0.7173
609.0,0.7188
610.0,0.7138
611.0,0.7177
612.0,0.7157
613.0,0.7068
614.0,0.6974
615.0,0.7127
616.0,0.6894
617.0,0.6881
618.0,0.7147
619.0,0.7076
620.0,0.712
621.0,0.7125
622.0,0.704
623.0,0.6932
624.0,0.6814
625.0,0.6799
626.0,0.6899
627.0,0.6972
628.0,0.6452
629.0,0.6786
630.0,0.6628
631.0,0.6798
632.0,0.672
633.0,0.6932
634.0,0.6871
635.0,0.6982
636.0,0.6893
637.0,0.7009
638.0,0.7081
639.0,0.7004
640.0,0.6938
641.0,0.6936
642.0,0.6907
643.0,0.7
644.0,0.698
645.0,0.699
646.0,0.682
647.0,0.6723
648.0,0.6728
649.0,0.6596
650.0,0.6649
651.0,0.6941
652.0,0.663
653.0,0.685
654.0,0.6776
655.0,0.6512
656.0,0.578
657.0,0.5936
658.0,0.6659
659.0,0.671
660.0,0.6739
661.0,0.6787
662.0,0.6796
663.0,0.6664
664.0,0.6749
665.0,0.6758
666.0,0.6766
667.0,0.6762
668.0,0.6767
669.0,0.6873
670.0,0.6844
671.0,0.6844
672.0,0.6786
673.0,0.6889
674.0,0.6864
675.0,0.6803
676.0,0.685
677.0,0.6783
678.0,0.6803
679.0,0.6694
680.0,0.6748
681.0,0.6704
682.0,0.6696
683.0,0.6683
684.0,0.665
685.0,0.6707
686.0,0.6667
687.0,0.4174
688.0,0.5009
689.0,0.5031
690.0,0.5317
691.0,0.5643
692.0,0.5885
693.0,0.5834
694.0,0.5787
695.0,0.6057
696.0,0.6067
697.0,0.6476
698.0,0.6375
699.0,0.6197
700.0,0.6121
701.0,0.605
702.0,0.6102
703.0,0.6114
704.0,0.6325
705.0,0.6335
706.0,0.6335
707.0,0.6342
708.0,0.6355
709.0,0.6374
710.0,0.6369
711.0,0.6363
712.0,0.6349
713.0,0.6281
714.0,0.6305
715.0,0.6096
716.0,0.6097
717.0,0.5196
718.0,0.476
719.0,0.4352
720.0,0.4551
721.0,0.5079
722.0,0.587
723.0,0.5435
724.0,0.4861
725.0,0.477
726.0,0.4998
727.0,0.5092
728.0,0.4754
729.0,0.4965
730.0,0.5251
731.0,0.5015
732.0,0.5399
733.0,0.5747
734.0,0.5893
735.0,0.5767
736.0,0.5759
737.0,0.5781
738.0,0.5893
739.0,0.5777
740.0,0.5935
741.0,0.588
742.0,0.589
743.0,0.6041
744.0,0.6027
745.0,0.603
746.0,0.6057
747.0,0.6071
748.0,0.6059
749.0,0.599
750.0,0.5987
751.0,0.5926
752.0,0.5952
753.0,0.5982
754.0,0.5996
755.0,0.5962
756.0,0.5959
757.0,0.5968
758.0,0.5893
759.0,0.5759
760.0,0.07367
761.0,0.03513
762.0,0.2676
763.0,0.12
764.0,0.1921
765.0,0.2675
766.0,0.3408
767.0,0.4432
768.0,0.5224
769.0,0.5358
770.0,0.5569
771.0,0.5626
772.0,0.5642
773.0,0.5683
774.0,0.5656
775.0,0.5614
776.0,0.5682
777.0,0.5608
778.0,0.5573
779.0,0.5578
780.0,0.5547
781.0,0.5553
782.0,0.5588
783.0,0.5491
784.0,0.5518
785.0,0.5476
786.0,0.5535
787.0,0.5428
788.0,0.5355
789.0,0.5352
790.0,0.5193
791.0,0.5254
792.0,0.5217
793.0,0.5131
794.0,0.5235
795.0,0.532
796.0,0.5134
797.0,0.5139
798.0,0.5311
799.0,0.5273
800.0,0.5176
801.0,0.5155
802.0,0.514
803.0,0.5098
804.0,0.5108
805.0,0.5098
806.0,0.5252
807.0,0.5186
808.0,0.5192
809.0,0.5086
810.0,0.5039
811.0,0.5033
812.0,0.4875
813.0,0.4765
814.0,0.4145
815.0,0.4121
816.0,0.383
817.0,0.3905
818.0,0.3748
819.0,0.4231
820.0,0.3969
821.0,0.4698
822.0,0.4554
823.0,0.3006
824.0,0.4401
825.0,0.4615
826.0,0.4422
827.0,0.4685
828.0,0.3918
829.0,0.4399
830.0,0.4336
831.0,0.4352
832.0,0.4209
833.0,0.4505
834.0,0.4327
835.0,0.4794
836.0,0.4563
837.0,0.4809
838.0,0.4646
839.0,0.4739
840.0,0.4846
841.0,0.4772
842.0,0.479
843.0,0.4797
844.0,0.4725
845.0,0.4891
846.0,0.4871
847.0,0.4783
848.0,0.475
849.0,0.4615
850.0,0.4422
851.0,0.4677
852.0,0.4646
853.0,0.4476
854.0,0.3862
855.0,0.4247
856.0,0.4639
857.0,0.4745
858.0,0.4709
859.0,0.4715
860.0,0.4725
861.0,0.4699
862.0,0.4773
863.0,0.4886
864.0,0.4642
865.0,0.4602
866.0,0.4138
867.0,0.4318
868.0,0.4699
869.0,0.4602
870.0,0.4733
871.0,0.4668
872.0,0.4652
873.0,0.4643
874.0,0.4588
875.0,0.4495
876.0,0.4541
877.0,0.4587
878.0,0.4636
879.0,0.4565
880.0,0.4467
881.0,0.4398
882.0,0.4492
883.0,0.4509
884.0,0.4487
885.0,0.4521
886.0,0.4301
887.0,0.4353
888.0,0.4413
889.0,0.447
890.0,0.4425
891.0,0.4421
892.0,0.4283
893.0,0.4137
894.0,0.3968
895.0,0.3719
896.0,0.3493
897.0,0.2962
898.0,0.3253
899.0,0.243
900.0,0.3355
901.0,0.2547
902.0,0.305
903.0,0.306
904.0,0.3938
905.0,0.379
906.0,0.3537
907.0,0.2815
908.0,0.288
909.0,0.3146
910.0,0.2733
911.0,0.2946
912.0,0.3088
913.0,0.2772
914.0,0.2758
915.0,0.2989
916.0,0.252
917.0,0.3249
918.0,0.2581
919.0,0.3322
920.0,0.3387
921.0,0.3524
922.0,0.3115
923.0,0.3407
924.0,0.3187
925.0,0.3118
926.0,0.3149
927.0,0.3561
928.0,0.251
929.0,0.2264
930.0,0.1735
931.0,0.1649
932.0,0.1142
933.0,0.09053
934.0,0.04497
935.0,0.09449
936.0,0.05598
937.0,0.05646
938.0,0.07058
939.0,0.1597
940.0,0.1954
941.0,0.1431
942.0,0.1683
943.0,0.1072
944.0,0.1162
945.0,0.1484
946.0,0.07095
947.0,0.1479
948.0,0.1081
949.0,0.2024
950.0,0.04954
951.0,0.2002
952.0,0.1016
953.0,0.1351
954.0,0.1701
955.0,0.1371
956.0,0.1363
957.0,0.1012
958.0,0.1989
959.0,0.1529
960.0,0.1714
961.0,0.1964
962.0,0.1854
963.0,0.2172
964.0,0.1979
965.0,0.2167
966.0,0.2159
967.0,0.2146
968.0,0.3006
969.0,0.3126
970.0,0.2856
971.0,0.3325
972.0,0.317
973.0,0.2702
974.0,0.2558
975.0,0.2677
976.0,0.251
977.0,0.2919
978.0,0.2747
979.0,0.2895
980.0,0.2712
981.0,0.3308
982.0,0.3142
983.0,0.3005
984.0,0.3433
985.0,0.313
986.0,0.3508
987.0,0.3422
988.0,0.3417
989.0,0.3507
990.0,0.3396
991.0,0.3516
992.0,0.3538
993.0,0.3442
994.0,0.3539
995.0,0.3537
996.0,0.3518
997.0,0.3525
998.0,0.3507
999.0,0.3495
1000.0,0.3467
1001.0,0.3514
1002.0,0.3401
1003.0,0.3451
1004.0,0.3362
1005.0,0.3245
1006.0,0.3369
1007.0,0.3442
1008.0,0.342
1009.0,0.3399
1010.0,0.3383
1011.0,0.3425
1012.0,0.3392
1013.0,0.3418
1014.0,0.3394
1015.0,0.3371
1016.0,0.3355
1017.0,0.3363
1018.0,0.3353
1019.0,0.3275
1020.0,0.3334
1021.0,0.333
1022.0,0.3302
1023.0,0.3337
1024.0,0.3287
1025.0,0.3337
1026.0,0.3321
1027.0,0.3313
1028.0,0.3306
1029.0,0.3266
1030.0,0.3291
1031.0,0.3277
1032.0,0.3268
1033.0,0.3219
1034.0,0.3219
1035.0,0.3229
1036.0,0.3245
1037.0,0.3193
1038.0,0.3207
1039.0,0.3204
1040.0,0.3191
1041.0,0.3203
1042.0,0.3181
1043.0,0.3171
1044.0,0.3181
1045.0,0.3138
1046.0,0.3103
1047.0,0.313
1048.0,0.3147
1049.0,0.3135
1050.0,0.312
1051.0,0.3115
1052.0,0.3102
1053.0,0.3076
1054.0,0.3082
1055.0,0.3083
1056.0,0.3071
1057.0,0.306
1058.0,0.2984
1059.0,0.2987
1060.0,0.2981
1061.0,0.2977
1062.0,0.2992
1063.0,0.2962
1064.0,0.2997
1065.0,0.2973
1066.0,0.2916
1067.0,0.2953
1068.0,0.2887
1069.0,0.2799
1070.0,0.2892
1071.0,0.2943
1072.0,0.2905
1073.0,0.2864
1074.0,0.2944
1075.0,0.2779
1076.0,0.2941
1077.0,0.2878
1078.0,0.282
1079.0,0.2897
1080.0,0.2834
1081.0,0.2735
1082.0,0.2794
1083.0,0.2806
1084.0,0.2724
1085.0,0.2842
1086.0,0.2569
1087.0,0.2669
1088.0,0.28
1089.0,0.2698
1090.0,0.2628
1091.0,0.2786
1092.0,0.2783
1093.0,0.2313
1094.0,0.254
1095.0,0.2415
1096.0,0.2298
1097.0,0.2719
1098.0,0.2257
1099.0,0.2361
1100.0,0.2175
1101.0,0.2209
1102.0,0.2097
1103.0,0.2068
1104.0,0.2071
1105.0,0.2303
1106.0,0.1685
1107.0,0.2173
1108.0,0.1796
1109.0,0.1808
1110.0,0.2146
1111.0,0.1395
1112.0,0.1798
1113.0,0.1083
1114.0,0.1215
1115.0,0.1004
1116.0,0.07663
1117.0,0.02456
1118.0,0.0845
1119.0,0.03889
1120.0,0.04865
1121.0,0.06635
1122.0,0.02537
1123.0,0.0441
1124.0,0.03718
1125.0,0.04926
1126.0,0.01467
1127.0,0.0558
1128.0,0.03062
1129.0,0.03284
1130.0,0.02073
1131.0,0.1128
1132.0,0.08714
1133.0,0.05146
1134.0,0.01124
1135.0,0.004332
1136.0,0.04162
1137.0,0.1094
1138.0,0.0764
1139.0,0.1216
1140.0,0.09864
1141.0,0.07267
1142.0,0.08509
1143.0,0.124
1144.0,0.03978
1145.0,0.04969
1146.0,0.05355
1147.0,0.01632
1148.0,0.1071
1149.0,0.0833
1150.0,0.04327
1151.0,0.07578
1152.0,0.09593
1153.0,0.09554
1154.0,0.04795
1155.0,0.1267
1156.0,0.1126
1157.0,0.1289
1158.0,0.1275
1159.0,0.1393
1160.0,0.1172
1161.0,0.1485
1162.0,0.1489
1163.0,0.2081
1164.0,0.176
1165.0,0.1636
1166.0,0.1643
1167.0,0.1802
1168.0,0.1816
1169.0,0.1867
1170.0,0.2049
1171.0,0.1996
1172.0,0.2045
1173.0,0.2045
1174.0,0.1412
1175.0,0.2008
1176.0,0.2233
1177.0,0.2127
1178.0,0.1561
1179.0,0.2252
1180.0,0.1982
1181.0,0.2047
1182.0,0.1373
1183.0,0.2022
1184.0,0.1882
1185.0,0.1804
1186.0,0.2178
1187.0,0.2062
1188.0,0.1391
1189.0,0.1919
1190.0,0.213
1191.0,0.2
1192.0,0.2162
1193.0,0.2064
1194.0,0.2133
1195.0,0.2002
1196.0,0.1919
1197.0,0.2141
1198.0,0.195
1199.0,0.1626
1200.0,0.2037
1201.0,0.1953
1202.0,0.195
1203.0,0.193
1204.0,0.1672
1205.0,0.2005
1206.0,0.2232
1207.0,0.1941
1208.0,0.192
1209.0,0.1962
1210.0,0.2051
1211.0,0.1942
1212.0,0.1903
1213.0,0.2151
1214.0,0.1955
1215.0,0.1915
1216.0,0.2145
1217.0,0.2082
1218.0,0.2127
1219.0,0.2098
1220.0,0.213
1221.0,0.2154
1222.0,0.2096
1223.0,0.2073
1224.0,0.2055
1225.0,0.214
1226.0,0.2159
1227.0,0.1975
1228.0,0.2173
1229.0,0.2159
1230.0,0.2119
1231.0,0.219
1232.0,0.2176
1233.0,0.2088
1234.0,0.2191
1235.0,0.2175
1236.0,0.2192
1237.0,0.2156
1238.0,0.2185
1239.0,0.2157
1240.0,0.2166
1241.0,0.2152
1242.0,0.215
1243.0,0.2133
1244.0,0.2147
1245.0,0.2157
1246.0,0.2145
1247.0,0.2135
1248.0,0.2132
1249.0,0.214
1250.0,0.2126
1251.0,0.2097
1252.0,0.21
1253.0,0.2078
1254.0,0.2054
1255.0,0.2097
1256.0,0.2029
1257.0,0.2016
1258.0,0.2061
1259.0,0.1973
1260.0,0.1985
1261.0,0.1857
1262.0,0.1792
1263.0,0.1795
1264.0,0.1637
1265.0,0.1784
1266.0,0.1705
1267.0,0.1743
1268.0,0.164
1269.0,0.09343
1270.0,0.1733
1271.0,0.1852
1272.0,0.186
1273.0,0.1839
1274.0,0.1847
1275.0,0.1877
1276.0,0.1899
1277.0,0.1915
1278.0,0.1959
1279.0,0.1941
1280.0,0.1917
1281.0,0.1832
1282.0,0.177
1283.0,0.1905
1284.0,0.195
1285.0,0.1964
1286.0,0.1993
1287.0,0.1957
1288.0,0.1958
1289.0,0.1886
1290.0,0.1941
1291.0,0.1971
1292.0,0.1832
1293.0,0.1928
1294.0,0.1913
1295.0,0.1898
1296.0,0.18
1297.0,0.1693
1298.0,0.1842
1299.0,0.1932
1300.0,0.1603
1301.0,0.1658
1302.0,0.1837
1303.0,0.1585
1304.0,0.1322
1305.0,0.1797
1306.0,0.1795
1307.0,0.1362
1308.0,0.1593
1309.0,0.1777
1310.0,0.1334
1311.0,0.152
1312.0,0.1474
1313.0,0.144
1314.0,0.1278
1315.0,0.1254
1316.0,0.1491
1317.0,0.1408
1318.0,0.1543
1319.0,0.1169
1320.0,0.1141
1321.0,0.1342
1322.0,0.1349
1323.0,0.09843
1324.0,0.1148
1325.0,0.1467
1326.0,0.1239
1327.0,0.1177
1328.0,0.1005
1329.0,0.07274
1330.0,0.09606
1331.0,0.05484
1332.0,0.05766
1333.0,0.08093
1334.0,0.07029
1335.0,0.09794
1336.0,0.07575
1337.0,0.06623
1338.0,0.0716
1339.0,0.07175
1340.0,0.07068
1341.0,0.06693
1342.0,0.07051
1343.0,0.04386
1344.0,0.02657
1345.0,0.03836
1346.0,0.01678
1347.0,0.01667
1348.0,0.0008133
1349.0,0.003157
1350.0,0.003466
1351.0,0.0006495
1352.0,0.0001296
1353.0,4.967e-06
1354.0,2.094e-05
1355.0,9.04e-08
1356.0,2.388e-06
1357.0,3.653e-06
1358.0,1.098e-07
1359.0,8.55e-09
1360.0,4.235e-08
1361.0,1.765e-11
1362.0,3.3e-14
1363.0,4.804e-08
1364.0,1.998e-08
1365.0,6.838e-15
1366.0,2.382e-07
1367.0,1.094e-07
1368.0,2.139e-17
1369.0,7.34e-09
1370.0,2.954e-09
1371.0,1.334e-10
1372.0,6.068e-08
1373.0,1.678e-06
1374.0,9.723e-06
1375.0,1.719e-05
1376.0,1.91e-05
1377.0,8.362e-06
1378.0,8.848e-05
1379.0,3.511e-06
1380.0,4.369e-06
1381.0,1.021e-07
1382.0,5.155e-08
1383.0,6.62e-10
1384.0,7.61e-09
1385.0,6.198e-08
1386.0,3.963e-08
1387.0,8.644e-06
1388.0,1.777e-07
1389.0,3.807e-05
1390.0,3.236e-05
1391.0,2.082e-05
1392.0,1.285e-06
1393.0,7.646e-06
1394.0,2.711e-06
1395.0,1.594e-08
1396.0,2.909e-11
1397.0,2.794e-06
1398.0,9.647e-05
1399.0,6.192e-05
1400.0,9.62e-12
1401.0,5.754e-11
1402.0,0.0002392
1403.0,0.0002819
1404.0,8.341e-05
1405.0,6.516e-09
1406.0,0.0001944
1407.0,1.907e-05
1408.0,0.0001624
1409.0,4.542e-05
1410.0,4.18e-05
1411.0,0.0002512
1412.0,0.00037
1413.0,0.00487
1414.0,3.383e-05
1415.0,1.496e-05
1416.0,0.009487
1417.0,0.002426
1418.0,0.002644
1419.0,0.0003941
1420.0,0.001605
1421.0,0.001772
1422.0,0.01246
1423.0,0.002309
1424.0,0.004465
1425.0,0.006314
1426.0,0.007751
1427.0,0.01554
1428.0,0.0007432
1429.0,0.01094
1430.0,0.02043
1431.0,0.0229
1432.0,0.0005777
1433.0,0.01396
1434.0,0.006806
1435.0,0.005821
1436.0,0.01272
1437.0,0.009796
