interpolation:linear
wavelength,value
280.0,3.731e-23
280.5,1.261e-21
281.0,6.844e-21
281.5,2.235e-19
282.0,4.781e-19
282.5,1.092e-18
283.0,3.347e-18
283.5,5.427e-18
284.0,8.864e-17
284.5,2.603e-16
285.0,8.707e-16
285.5,3.23e-15
286.0,1.24e-14
286.5,5.228e-14
287.0,1.463e-13
287.5,5.527e-13
288.0,1.642e-12
288.5,4.653e-12
289.0,1.197e-11
289.5,3.547e-11
290.0,9.79e-11
290.5,1.997e-10
291.0,4.296e-10
291.5,1.239e-09
292.0,2.543e-09
292.5,3.533e-09
293.0,7.491e-09
293.5,1.798e-08
294.0,2.803e-08
294.5,3.33e-08
295.0,5.593e-08
295.5,9.41e-08
296.0,1.755e-07
296.5,2.367e-07
297.0,3.102e-07
297.5,7.913e-07
298.0,1.19e-06
298.5,1.152e-06
299.0,2.443e-06
299.5,3.769e-06
300.0,3.967e-06
300.5,5.484e-06
301.0,9.169e-06
301.5,1.355e-05
302.0,1.113e-05
302.5,2.111e-05
303.0,3.613e-05
303.5,4.454e-05
304.0,4.221e-05
304.5,6.482e-05
305.0,0.0001034
305.5,0.0001229
306.0,0.0001208
306.5,0.0001545
307.0,0.0002446
307.5,0.0003484
308.0,0.0003721
308.5,0.0004556
309.0,0.0004669
309.5,0.0006596
310.0,0.0007309
310.5,0.001243
311.0,0.001691
311.5,0.00169
312.0,0.002016
312.5,0.00276
313.0,0.003184
313.5,0.002917
314.0,0.004206
314.5,0.004513
315.0,0.006134
315.5,0.004672
316.0,0.004767
316.5,0.007836
317.0,0.009701
317.5,0.009706
318.0,0.008304
318.5,0.01233
319.0,0.01601
319.5,0.01127
320.0,0.01332
320.5,0.02002
321.0,0.02106
321.5,0.02052
322.0,0.01828
322.5,0.01604
323.0,0.01794
323.5,0.02693
324.0,0.03215
324.5,0.03076
325.0,0.02301
325.5,0.03254
326.0,0.04502
326.5,0.04849
327.0,0.04703
327.5,0.04387
328.0,0.03533
328.5,0.04187
329.0,0.05497
329.5,0.06414
330.0,0.06325
330.5,0.04713
331.0,0.04684
331.5,0.0502
332.0,0.0585
332.5,0.05986
333.0,0.05851
333.5,0.05007
334.0,0.05081
334.5,0.06246
335.0,0.06087
335.5,0.07249
336.0,0.05015
336.5,0.05656
337.0,0.04518
337.5,0.05564
338.0,0.05722
338.5,0.0678
339.0,0.06734
339.5,0.06464
340.0,0.07408
340.5,0.06712
341.0,0.0669
341.5,0.06183
342.0,0.07404
342.5,0.06941
343.0,0.07602
343.5,0.07138
344.0,0.05161
344.5,0.05303
345.0,0.07073
345.5,0.07248
346.0,0.06175
346.5,0.07004
347.0,0.07493
347.5,0.06052
348.0,0.06932
348.5,0.06948
349.0,0.06455
349.5,0.0639
350.0,0.0791
350.5,0.08345
351.0,0.07439
351.5,0.07192
352.0,0.07754
352.5,0.0607
353.0,0.07663
353.5,0.08206
354.0,0.08529
354.5,0.08651
355.0,0.08617
355.5,0.07794
356.0,0.08163
356.5,0.06972
357.0,0.05761
357.5,0.07056
358.0,0.05596
358.5,0.04785
359.0,0.06691
359.5,0.08515
360.0,0.09034
360.5,0.07228
361.0,0.06597
361.5,0.07606
362.0,0.06586
362.5,0.09124
363.0,0.08202
363.5,0.0756
364.0,0.09253
364.5,0.07912
365.0,0.08062
365.5,0.1013
366.0,0.1074
366.5,0.101
367.0,0.0984
367.5,0.1022
368.0,0.08947
368.5,0.09032
369.0,0.09761
369.5,0.1041
370.0,0.1111
370.5,0.08628
371.0,0.09227
371.5,0.1155
372.0,0.0767
372.5,0.09203
373.0,0.09369
373.5,0.06101
374.0,0.08871
374.5,0.07352
375.0,0.07152
375.5,0.1068
376.0,0.08861
376.5,0.09188
377.0,0.09736
377.5,0.114
378.0,0.1236
378.5,0.1169
379.0,0.09652
379.5,0.08819
380.0,0.09175
380.5,0.1112
381.0,0.1116
381.5,0.08856
382.0,0.07874
382.5,0.06721
383.0,0.06229
383.5,0.06005
384.0,0.0663
384.5,0.0976
385.0,0.09688
385.5,0.09031
386.0,0.07742
386.5,0.1018
387.0,0.08466
387.5,0.09516
388.0,0.08793
388.5,0.08701
389.0,0.094
389.5,0.114
390.0,0.1145
390.5,0.1054
391.0,0.1242
391.5,0.1268
392.0,0.1069
392.5,0.09581
393.0,0.05337
393.5,0.03884
394.0,0.07909
394.5,0.1007
395.0,0.1229
395.5,0.125
396.0,0.1084
396.5,0.06348
397.0,0.04769
397.5,0.09708
398.0,0.136
398.5,0.1407
399.0,0.1526
399.5,0.1522
400.0,0.1581
401.0,0.158
402.0,0.1671
403.0,0.1591
404.0,0.1569
405.0,0.1571
406.0,0.1549
407.0,0.1528
408.0,0.1589
409.0,0.1703
410.0,0.1491
411.0,0.1619
412.0,0.1744
413.0,0.1703
414.0,0.1727
415.0,0.1736
416.0,0.177
417.0,0.1729
418.0,0.17
419.0,0.1726
420.0,0.1721
421.0,0.1804
422.0,0.1717
423.0,0.168
424.0,0.1779
425.0,0.1779
426.0,0.1738
427.0,0.1709
428.0,0.1667
429.0,0.1584
430.0,0.1389
431.0,0.1378
432.0,0.1783
433.0,0.1796
434.0,0.167
435.0,0.1745
436.0,0.1973
437.0,0.1952
438.0,0.178
439.0,0.1838
440.0,0.19
441.0,0.1973
442.0,0.2118
443.0,0.2062
444.0,0.2113
445.0,0.2069
446.0,0.1982
447.0,0.215
448.0,0.2181
449.0,0.2198
450.0,0.2263
451.0,0.235
452.0,0.2269
453.0,0.2138
454.0,0.2238
455.0,0.2253
456.0,0.2309
457.0,0.2348
458.0,0.2264
459.0,0.2254
460.0,0.2258
461.0,0.2312
462.0,0.2336
463.0,0.2321
464.0,0.2293
465.0,0.2273
466.0,0.2301
467.0,0.2258
468.0,0.2285
469.0,0.2298
470.0,0.2223
471.0,0.2223
472.0,0.2343
473.0,0.2314
474.0,0.2313
475.0,0.2327
476.0,0.2248
477.0,0.2248
478.0,0.2312
479.0,0.2302
480.0,0.231
481.0,0.2359
482.0,0.2379
483.0,0.236
484.0,0.2318
485.0,0.2215
486.0,0.1944
487.0,0.2043
488.0,0.2242
489.0,0.2247
490.0,0.2369
491.0,0.2331
492.0,0.2203
493.0,0.2278
494.0,0.2302
495.0,0.2324
496.0,0.2339
497.0,0.2375
498.0,0.2262
499.0,0.2287
500.0,0.2215
501.0,0.2168
502.0,0.2126
503.0,0.2202
504.0,0.2115
505.0,0.2216
506.0,0.2287
507.0,0.2179
508.0,0.2122
509.0,0.219
510.0,0.2187
511.0,0.2253
512.0,0.2282
513.0,0.2161
514.0,0.2149
515.0,0.2128
516.0,0.2122
517.0,0.1887
518.0,0.1983
519.0,0.2079
520.0,0.2153
521.0,0.2172
522.0,0.2171
523.0,0.2129
524.0,0.2198
525.0,0.2214
526.0,0.2112
527.0,0.1983
528.0,0.2091
529.0,0.2199
530.0,0.2163
531.0,0.2192
532.0,0.2114
533.0,0.2052
534.0,0.2116
535.0,0.2166
536.0,0.219
537.0,0.2108
538.0,0.2147
539.0,0.2128
540.0,0.2038
541.0,0.204
542.0,0.2098
543.0,0.2084
544.0,0.2111
545.0,0.2107
546.0,0.2108
547.0,0.2115
548.0,0.2093
549.0,0.2102
550.0,0.2127
551.0,0.2103
552.0,0.2117
553.0,0.2078
554.0,0.2127
555.0,0.2128
556.0,0.2099
557.0,0.203
558.0,0.2009
559.0,0.1966
560.0,0.1986
561.0,0.2006
562.0,0.1985
563.0,0.2031
564.0,0.1969
565.0,0.1947
566.0,0.1913
567.0,0.1942
568.0,0.1906
569.0,0.1828
570.0,0.1831
571.0,0.1827
572.0,0.1849
573.0,0.1864
574.0,0.1853
575.0,0.181
576.0,0.1794
577.0,0.1817
578.0,0.1799
579.0,0.1822
580.0,0.1883
581.0,0.1912
582.0,0.1965
583.0,0.1984
584.0,0.2011
585.0,0.1968
586.0,0.1929
587.0,0.1961
588.0,0.1872
589.0,0.1581
590.0,0.1658
591.0,0.1803
592.0,0.1752
593.0,0.1813
594.0,0.1787
595.0,0.1709
596.0,0.1845
597.0,0.1805
598.0,0.1821
599.0,0.1831
600.0,0.185
601.0,0.1848
602.0,0.1838
603.0,0.1875
604.0,0.1911
605.0,0.1905
606.0,0.1904
607.0,0.1931
608.0,0.1918
609.0,0.1928
610.0,0.1921
611.0,0.1937
612.0,0.1937
613.0,0.1917
614.0,0.1898
615.0,0.1946
616.0,0.1887
617.0,0.1888
618.0,0.1965
619.0,0.1947
620.0,0.196
621.0,0.1957
622.0,0.1932
623.0,0.1901
624.0,0.1872
625.0,0.1865
626.0,0.189
627.0,0.1893
628.0,0.1569
629.0,0.1777
630.0,0.1728
631.0,0.1835
632.0,0.1827
633.0,0.1911
634.0,0.1916
635.0,0.1957
636.0,0.1945
637.0,0.1987
638.0,0.2023
639.0,0.201
640.0,0.2001
641.0,0.2008
642.0,0.2008
643.0,0.2036
644.0,0.2039
645.0,0.2037
646.0,0.1965
647.0,0.1882
648.0,0.1895
649.0,0.1844
650.0,0.193
651.0,0.2026
652.0,0.1875
653.0,0.2006
654.0,0.1988
655.0,0.1879
656.0,0.169
657.0,0.1742
658.0,0.1977
659.0,0.2001
660.0,0.2018
661.0,0.2039
662.0,0.2034
663.0,0.1997
664.0,0.2038
665.0,0.2055
666.0,0.2062
667.0,0.2067
668.0,0.2077
669.0,0.2115
670.0,0.211
671.0,0.2114
672.0,0.2099
673.0,0.2135
674.0,0.2131
675.0,0.2115
676.0,0.2133
677.0,0.2116
678.0,0.2125
679.0,0.2093
680.0,0.2112
681.0,0.21
682.0,0.2098
683.0,0.2095
684.0,0.2084
685.0,0.2106
686.0,0.2089
687.0,0.06445
688.0,0.1014
689.0,0.1028
690.0,0.1191
691.0,0.14
692.0,0.1583
693.0,0.1569
694.0,0.1594
695.0,0.1768
696.0,0.178
697.0,0.2007
698.0,0.1973
699.0,0.184
700.0,0.1814
701.0,0.1755
702.0,0.1801
703.0,0.1821
704.0,0.1931
705.0,0.1931
706.0,0.1947
707.0,0.1958
708.0,0.1959
709.0,0.2
710.0,0.1978
711.0,0.199
712.0,0.2004
713.0,0.1964
714.0,0.1979
715.0,0.1878
716.0,0.1871
717.0,0.1329
718.0,0.1208
719.0,0.1084
720.0,0.1103
721.0,0.1371
722.0,0.1744
723.0,0.1541
724.0,0.128
725.0,0.1233
726.0,0.1296
727.0,0.1385
728.0,0.1219
729.0,0.136
730.0,0.1405
731.0,0.1332
732.0,0.1535
733.0,0.1716
734.0,0.1793
735.0,0.1736
736.0,0.1724
737.0,0.1735
738.0,0.1851
739.0,0.182
740.0,0.1892
741.0,0.1889
742.0,0.1908
743.0,0.1962
744.0,0.1967
745.0,0.1978
746.0,0.1986
747.0,0.1993
748.0,0.199
749.0,0.1969
750.0,0.1969
751.0,0.1949
752.0,0.1959
753.0,0.197
754.0,0.1975
755.0,0.1963
756.0,0.1964
757.0,0.1966
758.0,0.1939
759.0,0.1835
760.0,0.003036
761.0,0.001397
762.0,0.02802
763.0,0.005842
764.0,0.01351
765.0,0.02784
766.0,0.05251
767.0,0.09674
768.0,0.1473
769.0,0.1601
770.0,0.1772
771.0,0.1841
772.0,0.1863
773.0,0.188
774.0,0.1875
775.0,0.1864
776.0,0.1888
777.0,0.1864
778.0,0.1852
779.0,0.1853
780.0,0.1844
781.0,0.1847
782.0,0.186
783.0,0.1829
784.0,0.184
785.0,0.1822
786.0,0.1838
787.0,0.1758
788.0,0.1715
789.0,0.1717
790.0,0.1615
791.0,0.1687
792.0,0.1685
793.0,0.1652
794.0,0.1737
795.0,0.175
796.0,0.1612
797.0,0.1603
798.0,0.1737
799.0,0.1712
800.0,0.1663
801.0,0.1635
802.0,0.1626
803.0,0.1601
804.0,0.1615
805.0,0.1636
806.0,0.1727
807.0,0.1698
808.0,0.1701
809.0,0.1634
810.0,0.1604
811.0,0.1578
812.0,0.1457
813.0,0.1417
814.0,0.112
815.0,0.1128
816.0,0.1025
817.0,0.1044
818.0,0.09776
819.0,0.1196
820.0,0.1096
821.0,0.1457
822.0,0.1385
823.0,0.06983
824.0,0.1273
825.0,0.1438
826.0,0.1318
827.0,0.1455
828.0,0.1058
829.0,0.1325
830.0,0.13
831.0,0.13
832.0,0.1228
833.0,0.1382
834.0,0.129
835.0,0.1553
836.0,0.1382
837.0,0.1554
838.0,0.1459
839.0,0.1525
840.0,0.1571
841.0,0.1527
842.0,0.1564
843.0,0.16
844.0,0.156
845.0,0.1636
846.0,0.1636
847.0,0.1616
848.0,0.159
849.0,0.1545
850.0,0.1481
851.0,0.1551
852.0,0.155
853.0,0.1504
854.0,0.1288
855.0,0.1431
856.0,0.1557
857.0,0.1603
858.0,0.1585
859.0,0.1595
860.0,0.1603
861.0,0.1592
862.0,0.162
863.0,0.1658
864.0,0.1576
865.0,0.1564
866.0,0.1407
867.0,0.1468
868.0,0.1598
869.0,0.1566
870.0,0.1611
871.0,0.1589
872.0,0.1584
873.0,0.1582
874.0,0.1563
875.0,0.1531
876.0,0.1545
877.0,0.1562
878.0,0.1576
879.0,0.1553
880.0,0.152
881.0,0.1489
882.0,0.1518
883.0,0.1531
884.0,0.1521
885.0,0.1532
886.0,0.1434
887.0,0.147
888.0,0.1481
889.0,0.1519
890.0,0.1477
891.0,0.1489
892.0,0.1411
893.0,0.1336
894.0,0.1215
895.0,0.1062
896.0,0.09794
897.0,0.07554
898.0,0.08584
899.0,0.05635
900.0,0.09352
901.0,0.05919
902.0,0.0802
903.0,0.07676
904.0,0.1197
905.0,0.1131
906.0,0.1029
907.0,0.0684
908.0,0.07361
909.0,0.08414
910.0,0.06505
911.0,0.07836
912.0,0.08059
913.0,0.06553
914.0,0.06724
915.0,0.07128
916.0,0.05949
917.0,0.08479
918.0,0.0599
919.0,0.08988
920.0,0.1003
921.0,0.1027
922.0,0.08466
923.0,0.1004
924.0,0.08359
925.0,0.08237
926.0,0.0815
927.0,0.09797
928.0,0.05188
929.0,0.04285
930.0,0.026
931.0,0.02379
932.0,0.01179
933.0,0.007874
934.0,0.001886
935.0,0.009148
936.0,0.003754
937.0,0.003842
938.0,0.005284
939.0,0.02283
940.0,0.03247
941.0,0.01879
942.0,0.024
943.0,0.01202
944.0,0.01666
945.0,0.02065
946.0,0.005954
947.0,0.01936
948.0,0.01388
949.0,0.03196
950.0,0.003304
951.0,0.03126
952.0,0.01109
953.0,0.01797
954.0,0.02661
955.0,0.0189
956.0,0.02575
957.0,0.01108
958.0,0.04037
959.0,0.0247
960.0,0.02796
961.0,0.03729
962.0,0.03536
963.0,0.04662
964.0,0.0412
965.0,0.04529
966.0,0.04579
967.0,0.04437
968.0,0.08676
969.0,0.08504
970.0,0.0766
971.0,0.1002
972.0,0.09239
973.0,0.06813
974.0,0.06457
975.0,0.06975
976.0,0.05919
977.0,0.08355
978.0,0.07251
979.0,0.07882
980.0,0.07298
981.0,0.09992
982.0,0.09112
983.0,0.08506
984.0,0.1096
985.0,0.09001
986.0,0.1161
987.0,0.1103
988.0,0.1108
989.0,0.1188
990.0,0.1094
991.0,0.1186
992.0,0.1199
993.0,0.1132
994.0,0.1204
995.0,0.1211
996.0,0.1197
997.0,0.1203
998.0,0.1194
999.0,0.1192
1000.0,0.1171
1001.0,0.12
1002.0,0.1112
1003.0,0.1176
1004.0,0.1132
1005.0,0.1111
1006.0,0.1145
1007.0,0.1174
1008.0,0.1158
1009.0,0.1142
1010.0,0.1132
1011.0,0.1169
1012.0,0.115
1013.0,0.117
1014.0,0.1161
1015.0,0.1152
1016.0,0.1146
1017.0,0.1146
1018.0,0.1149
1019.0,0.1103
1020.0,0.114
1021.0,0.1142
1022.0,0.1125
1023.0,0.1136
1024.0,0.11
1025.0,0.1142
1026.0,0.1131
1027.0,0.1131
1028.0,0.1126
1029.0,0.1111
1030.0,0.1126
1031.0,0.1119
1032.0,0.1118
1033.0,0.11
1034.0,0.1101
1035.0,0.1105
1036.0,0.1108
1037.0,0.1091
1038.0,0.1095
1039.0,0.1092
1040.0,0.1088
1041.0,0.109
1042.0,0.1082
1043.0,0.1077
1044.0,0.108
1045.0,0.1064
1046.0,0.1051
1047.0,0.1059
1048.0,0.1063
1049.0,0.1057
1050.0,0.105
1051.0,0.1046
1052.0,0.104
1053.0,0.1029
1054.0,0.1028
1055.0,0.1025
1056.0,0.1018
1057.0,0.1012
1058.0,0.09839
1059.0,0.09813
1060.0,0.09781
1061.0,0.0975
1062.0,0.09765
1063.0,0.09643
1064.0,0.09766
1065.0,0.09615
1066.0,0.09488
1067.0,0.09591
1068.0,0.09324
1069.0,0.09088
1070.0,0.09352
1071.0,0.09671
1072.0,0.09428
1073.0,0.09316
1074.0,0.09767
1075.0,0.08875
1076.0,0.09733
1077.0,0.09341
1078.0,0.09026
1079.0,0.09677
1080.0,0.09166
1081.0,0.08658
1082.0,0.0917
1083.0,0.09323
1084.0,0.08539
1085.0,0.09223
1086.0,0.07854
1087.0,0.08477
1088.0,0.09251
1089.0,0.08463
1090.0,0.08111
1091.0,0.09094
1092.0,0.09131
1093.0,0.06659
1094.0,0.08215
1095.0,0.06913
1096.0,0.0636
1097.0,0.08927
1098.0,0.06073
1099.0,0.06458
1100.0,0.05647
1101.0,0.059
1102.0,0.05336
1103.0,0.05075
1104.0,0.05134
1105.0,0.06188
1106.0,0.03355
1107.0,0.05661
1108.0,0.03953
1109.0,0.04006
1110.0,0.05319
1111.0,0.0248
1112.0,0.04015
1113.0,0.01627
1114.0,0.01813
1115.0,0.01401
1116.0,0.007707
1117.0,0.001057
1118.0,0.008804
1119.0,0.002332
1120.0,0.0026
1121.0,0.004137
1122.0,0.0007376
1123.0,0.002369
1124.0,0.00198
1125.0,0.003053
1126.0,0.000276
1127.0,0.003516
1128.0,0.001002
1129.0,0.001113
1130.0,0.000735
1131.0,0.01178
1132.0,0.007981
1133.0,0.002698
1134.0,0.0002095
1135.0,0.0001021
1136.0,0.00167
1137.0,0.01066
1138.0,0.006649
1139.0,0.01788
1140.0,0.01167
1141.0,0.006462
1142.0,0.008565
1143.0,0.01612
1144.0,0.002745
1145.0,0.002501
1146.0,0.002688
1147.0,0.0002933
1148.0,0.01294
1149.0,0.008333
1150.0,0.003734
1151.0,0.006665
1152.0,0.0105
1153.0,0.01236
1154.0,0.002914
1155.0,0.01868
1156.0,0.01499
1157.0,0.02192
1158.0,0.02158
1159.0,0.02461
1160.0,0.02065
1161.0,0.03153
1162.0,0.03082
1163.0,0.05523
1164.0,0.04262
1165.0,0.03581
1166.0,0.03964
1167.0,0.04535
1168.0,0.04541
1169.0,0.04737
1170.0,0.05593
1171.0,0.0545
1172.0,0.05895
1173.0,0.05585
1174.0,0.03097
1175.0,0.05801
1176.0,0.07066
1177.0,0.06304
1178.0,0.03996
1179.0,0.07096
1180.0,0.056
1181.0,0.05796
1182.0,0.0311
1183.0,0.05843
1184.0,0.05149
1185.0,0.04684
1186.0,0.06543
1187.0,0.05889
1188.0,0.02971
1189.0,0.05447
1190.0,0.06502
1191.0,0.05478
1192.0,0.06666
1193.0,0.06136
1194.0,0.06495
1195.0,0.05672
1196.0,0.05226
1197.0,0.06645
1198.0,0.05954
1199.0,0.04136
1200.0,0.06087
1201.0,0.05488
1202.0,0.05834
1203.0,0.05505
1204.0,0.04494
1205.0,0.06192
1206.0,0.07287
1207.0,0.05658
1208.0,0.05857
1209.0,0.05979
1210.0,0.06469
1211.0,0.05865
1212.0,0.05188
1213.0,0.06734
1214.0,0.05503
1215.0,0.0538
1216.0,0.06815
1217.0,0.06458
1218.0,0.06739
1219.0,0.06519
1220.0,0.06765
1221.0,0.07007
1222.0,0.06722
1223.0,0.06569
1224.0,0.06284
1225.0,0.06884
1226.0,0.07115
1227.0,0.05993
1228.0,0.07235
1229.0,0.07121
1230.0,0.06896
1231.0,0.07416
1232.0,0.07358
1233.0,0.06666
1234.0,0.07528
1235.0,0.07396
1236.0,0.07517
1237.0,0.07249
1238.0,0.07494
1239.0,0.07393
1240.0,0.07449
1241.0,0.07277
1242.0,0.07382
1243.0,0.07331
1244.0,0.07338
1245.0,0.07396
1246.0,0.07359
1247.0,0.07289
1248.0,0.07213
1249.0,0.07299
1250.0,0.07211
1251.0,0.07028
1252.0,0.07144
1253.0,0.06882
1254.0,0.06666
1255.0,0.07084
1256.0,0.06514
1257.0,0.06404
1258.0,0.06815
1259.0,0.06016
1260.0,0.06114
1261.0,0.05138
1262.0,0.04676
1263.0,0.04671
1264.0,0.03681
1265.0,0.04651
1266.0,0.0409
1267.0,0.04428
1268.0,0.03786
1269.0,0.008
1270.0,0.04305
1271.0,0.0522
1272.0,0.05281
1273.0,0.05155
1274.0,0.05273
1275.0,0.05456
1276.0,0.05639
1277.0,0.0586
1278.0,0.06216
1279.0,0.06179
1280.0,0.06094
1281.0,0.05943
1282.0,0.05934
1283.0,0.06347
1284.0,0.06466
1285.0,0.06547
1286.0,0.06746
1287.0,0.06434
1288.0,0.06511
1289.0,0.05897
1290.0,0.06463
1291.0,0.06632
1292.0,0.05546
1293.0,0.06352
1294.0,0.06282
1295.0,0.05981
1296.0,0.05336
1297.0,0.04791
1298.0,0.05738
1299.0,0.06409
1300.0,0.0449
1301.0,0.04742
1302.0,0.05771
1303.0,0.04486
1304.0,0.03081
1305.0,0.05591
1306.0,0.05452
1307.0,0.03399
1308.0,0.04618
1309.0,0.0523
1310.0,0.03234
1311.0,0.04238
1312.0,0.04074
1313.0,0.03711
1314.0,0.03012
1315.0,0.02851
1316.0,0.0402
1317.0,0.03661
1318.0,0.04333
1319.0,0.02502
1320.0,0.02539
1321.0,0.03307
1322.0,0.03155
1323.0,0.01722
1324.0,0.02502
1325.0,0.03784
1326.0,0.02846
1327.0,0.02576
1328.0,0.0196
1329.0,0.009851
1330.0,0.01579
1331.0,0.005362
1332.0,0.006254
1333.0,0.009508
1334.0,0.01139
1335.0,0.01613
1336.0,0.01001
1337.0,0.008764
1338.0,0.009094
1339.0,0.009341
1340.0,0.01034
1341.0,0.007034
1342.0,0.007913
1343.0,0.00245
1344.0,0.001681
1345.0,0.001986
1346.0,0.000305
1347.0,0.0002385
1348.0,4.982e-06
1349.0,1.938e-05
1350.0,2.095e-05
1351.0,3.68e-06
1352.0,9.488e-07
1353.0,4.826e-08
1354.0,1.66e-07
1355.0,1.335e-09
1356.0,2.337e-08
1357.0,3.551e-08
1358.0,1.568e-09
1359.0,1.975e-10
1360.0,7.138e-10
1361.0,7.985e-13
1362.0,2.184e-15
1363.0,9.598e-10
1364.0,3.963e-10
1365.0,7.626e-16
1366.0,4.159e-09
1367.0,1.698e-09
1368.0,5.888e-18
1369.0,1.46e-10
1370.0,7.191e-11
1371.0,4.076e-12
1372.0,9.209e-10
1373.0,1.855e-08
1374.0,8.605e-08
1375.0,1.561e-07
1376.0,1.401e-07
1377.0,6.4e-08
1378.0,6.253e-07
1379.0,2.675e-08
1380.0,3.839e-08
1381.0,1e-09
1382.0,8.071e-10
1383.0,1.207e-11
1384.0,1.582e-10
1385.0,7.565e-10
1386.0,7.116e-10
1387.0,8.606e-08
1388.0,1.693e-09
1389.0,2.907e-07
1390.0,2.494e-07
1391.0,1.659e-07
1392.0,1.076e-08
1393.0,5.701e-08
1394.0,2.936e-08
1395.0,2.151e-10
1396.0,1.04e-12
1397.0,2.243e-08
1398.0,6.632e-07
1399.0,4.196e-07
1400.0,4.446e-13
1401.0,1.844e-12
1402.0,1.222e-06
1403.0,1.48e-06
1404.0,4.453e-07
1405.0,1.019e-10
1406.0,1.144e-06
1407.0,1.047e-07
