interpolation:linear
wavelength,value
280.0,1.595e-21
280.5,5.0810000000000006e-20
281.0,2.695e-19
281.5,4.683e-19
282.0,1.01e-18
282.5,2.554e-18
283.0,8.109e-18
283.5,1.32e-17
284.0,2.136e-16
284.5,6.171e-16
285.0,1.299e-15
285.5,6.228e-15
286.0,2.485e-14
286.5,1.095e-13
287.0,3.102e-13
287.5,1.176e-12
288.0,3.417e-12
288.5,1.092e-11
289.0,3.013e-11
289.5,9.326e-11
290.0,2.626e-10
290.5,5.405e-10
291.0,1.17e-09
291.5,3.381e-09
292.0,6.879e-09
292.5,1.011e-08
293.0,2.294e-08
293.5,6.008e-08
294.0,9.876e-08
294.5,1.288e-07
295.0,2.283e-07
295.5,5.547e-07
296.0,1.046e-06
296.5,1.521e-06
297.0,2.133e-06
297.5,6.088e-06
298.0,1.019e-05
298.5,1.08e-05
299.0,2.516e-05
299.5,4.647e-05
300.0,5.462e-05
300.5,8.522e-05
301.0,0.0001766
301.5,0.0003264
302.0,0.0003058
302.5,0.0006102
303.0,0.001128
303.5,0.001448
304.0,0.001381
304.5,0.00214
305.0,0.003416
305.5,0.004039
306.0,0.003959
306.5,0.005031
307.0,0.007798
307.5,0.01081
308.0,0.01149
308.5,0.01385
309.0,0.01378
309.5,0.01615
310.0,0.01641
310.5,0.02673
311.0,0.03387
311.5,0.03283
312.0,0.03348
312.5,0.04127
313.0,0.04507
313.5,0.04351
314.0,0.05523
314.5,0.04997
315.0,0.06591
315.5,0.05463
316.0,0.04848
316.5,0.07058
317.0,0.08763
317.5,0.09087
318.0,0.07156
318.5,0.09042
319.0,0.1083
319.5,0.08705
320.0,0.105
320.5,0.1337
321.0,0.1209
321.5,0.1162
322.0,0.1218
322.5,0.1061
323.0,0.1068
323.5,0.1325
324.0,0.155
324.5,0.1567
325.0,0.1348
325.5,0.1748
326.0,0.2142
326.5,0.2157
327.0,0.2146
327.5,0.2069
328.0,0.183
328.5,0.194
329.0,0.2338
329.5,0.266
330.0,0.268
330.5,0.2135
331.0,0.2172
331.5,0.2216
332.0,0.2408
332.5,0.2388
333.0,0.2378
333.5,0.2145
334.0,0.2197
334.5,0.2547
335.0,0.24
335.5,0.2804
336.0,0.1941
336.5,0.227
337.0,0.186
337.5,0.2312
338.0,0.2266
338.5,0.2618
339.0,0.2593
339.5,0.2495
340.0,0.2931
340.5,0.2644
341.0,0.258
341.5,0.237
342.0,0.2834
342.5,0.2653
343.0,0.2918
343.5,0.2748
344.0,0.2031
344.5,0.2052
345.0,0.2718
345.5,0.2777
346.0,0.2361
346.5,0.2675
347.0,0.2872
347.5,0.2323
348.0,0.265
348.5,0.265
349.0,0.2459
349.5,0.2436
350.0,0.3014
350.5,0.3181
351.0,0.2842
351.5,0.2762
352.0,0.2968
352.5,0.2318
353.0,0.2921
353.5,0.3125
354.0,0.3245
354.5,0.3292
355.0,0.3282
355.5,0.2966
356.0,0.3105
356.5,0.2652
357.0,0.2192
357.5,0.2684
358.0,0.2128
358.5,0.1819
359.0,0.2544
359.5,0.3243
360.0,0.3439
360.5,0.275
361.0,0.2508
361.5,0.289
362.0,0.25
362.5,0.3463
363.0,0.3112
363.5,0.2868
364.0,0.3509
364.5,0.3001
365.0,0.3057
365.5,0.3838
366.0,0.4069
366.5,0.3825
367.0,0.3726
367.5,0.3869
368.0,0.3387
368.5,0.3419
369.0,0.3694
369.5,0.3939
370.0,0.42
370.5,0.3262
371.0,0.3487
371.5,0.4363
372.0,0.2897
372.5,0.3475
373.0,0.3536
373.5,0.2302
374.0,0.3346
374.5,0.2773
375.0,0.2696
375.5,0.4026
376.0,0.3339
376.5,0.3461
377.0,0.3666
377.5,0.4291
378.0,0.4652
378.5,0.4398
379.0,0.3631
379.5,0.3317
380.0,0.345
380.5,0.418
381.0,0.4191
381.5,0.3324
382.0,0.2954
382.5,0.2519
383.0,0.2334
383.5,0.2249
384.0,0.2481
384.5,0.3651
385.0,0.3622
385.5,0.3375
386.0,0.2892
386.5,0.3801
387.0,0.3159
387.5,0.3549
388.0,0.3278
388.5,0.3242
389.0,0.3501
389.5,0.4242
390.0,0.4259
390.5,0.3921
391.0,0.4617
391.5,0.4711
392.0,0.3969
392.5,0.3555
393.0,0.1979
393.5,0.1439
394.0,0.2929
394.5,0.3726
395.0,0.4548
395.5,0.4621
396.0,0.4008
396.5,0.2344
397.0,0.176
397.5,0.358
398.0,0.5014
398.5,0.5185
399.0,0.5617
399.5,0.5601
400.0,0.5817
401.0,0.5891
402.0,0.622
403.0,0.5913
404.0,0.5825
405.0,0.5828
406.0,0.5737
407.0,0.5649
408.0,0.5872
409.0,0.6288
410.0,0.5498
411.0,0.5959
412.0,0.6405
413.0,0.6249
414.0,0.6329
415.0,0.635
416.0,0.6466
417.0,0.631
418.0,0.6196
419.0,0.6281
420.0,0.6256
421.0,0.6548
422.0,0.6227
423.0,0.6086
424.0,0.6439
425.0,0.643
426.0,0.6268
427.0,0.6154
428.0,0.5997
429.0,0.5684
430.0,0.4977
431.0,0.4934
432.0,0.6374
433.0,0.6412
434.0,0.5956
435.0,0.6221
436.0,0.7014
437.0,0.6924
438.0,0.6309
439.0,0.6523
440.0,0.6734
441.0,0.6982
442.0,0.749
443.0,0.7295
444.0,0.7457
445.0,0.7296
446.0,0.6968
447.0,0.7538
448.0,0.7654
449.0,0.769
450.0,0.7909
451.0,0.8204
452.0,0.7907
453.0,0.7439
454.0,0.777
455.0,0.7819
456.0,0.8007
457.0,0.8141
458.0,0.7862
459.0,0.7824
460.0,0.7845
461.0,0.8027
462.0,0.8092
463.0,0.8037
464.0,0.7909
465.0,0.7813
466.0,0.7893
467.0,0.7748
468.0,0.784
469.0,0.7881
470.0,0.763
471.0,0.7622
472.0,0.8031
473.0,0.7927
474.0,0.7936
475.0,0.8001
476.0,0.7759
477.0,0.7778
478.0,0.7995
479.0,0.795
480.0,0.7967
481.0,0.812
482.0,0.8166
483.0,0.8072
484.0,0.7909
485.0,0.7538
486.0,0.6592
487.0,0.6912
488.0,0.7583
489.0,0.7605
490.0,0.8003
491.0,0.7867
492.0,0.743
493.0,0.7674
494.0,0.7752
495.0,0.7818
496.0,0.7867
497.0,0.7989
498.0,0.7615
499.0,0.7711
500.0,0.7485
501.0,0.7345
502.0,0.7237
503.0,0.7527
504.0,0.7321
505.0,0.7596
506.0,0.7841
507.0,0.7462
508.0,0.7234
509.0,0.744
510.0,0.7404
511.0,0.7606
512.0,0.769
513.0,0.7279
514.0,0.7231
515.0,0.7159
516.0,0.7141
517.0,0.6346
518.0,0.6671
519.0,0.6997
520.0,0.7251
521.0,0.732
522.0,0.7325
523.0,0.7192
524.0,0.7447
525.0,0.7531
526.0,0.7193
527.0,0.6776
528.0,0.7164
529.0,0.7549
530.0,0.7439
531.0,0.7548
532.0,0.7288
533.0,0.7075
534.0,0.7286
535.0,0.7446
536.0,0.7516
537.0,0.7221
538.0,0.735
539.0,0.7288
540.0,0.6987
541.0,0.7028
542.0,0.7247
543.0,0.7174
544.0,0.7295
545.0,0.7273
546.0,0.7301
547.0,0.7301
548.0,0.7215
549.0,0.7238
550.0,0.7325
551.0,0.7236
552.0,0.7287
553.0,0.7156
554.0,0.7327
555.0,0.734
556.0,0.7244
557.0,0.7018
558.0,0.6963
559.0,0.683
560.0,0.6914
561.0,0.7001
562.0,0.6948
563.0,0.7135
564.0,0.6938
565.0,0.6876
566.0,0.6773
567.0,0.6898
568.0,0.6829
569.0,0.6651
570.0,0.6652
571.0,0.6615
572.0,0.6764
573.0,0.6835
574.0,0.6811
575.0,0.668
576.0,0.6619
577.0,0.6693
578.0,0.6597
579.0,0.663
580.0,0.6767
581.0,0.681
582.0,0.6946
583.0,0.6969
584.0,0.7034
585.0,0.6865
586.0,0.6724
587.0,0.6866
588.0,0.668
589.0,0.5882
590.0,0.6154
591.0,0.6534
592.0,0.6439
593.0,0.6551
594.0,0.6498
595.0,0.6324
596.0,0.6604
597.0,0.6525
598.0,0.6517
599.0,0.6527
600.0,0.6545
601.0,0.6497
602.0,0.6454
603.0,0.6563
604.0,0.6673
605.0,0.6641
606.0,0.6617
607.0,0.6686
608.0,0.6615
609.0,0.6629
610.0,0.6585
611.0,0.6622
612.0,0.6604
613.0,0.6523
614.0,0.6436
615.0,0.6579
616.0,0.6365
617.0,0.6353
618.0,0.66
619.0,0.6534
620.0,0.6575
621.0,0.6579
622.0,0.6499
623.0,0.6398
624.0,0.6291
625.0,0.6277
626.0,0.6369
627.0,0.6433
628.0,0.5924
629.0,0.6252
630.0,0.6105
631.0,0.6271
632.0,0.6202
633.0,0.6402
634.0,0.6349
635.0,0.6453
636.0,0.6373
637.0,0.6481
638.0,0.655
639.0,0.648
640.0,0.6421
641.0,0.642
642.0,0.6394
643.0,0.648
644.0,0.6463
645.0,0.6471
646.0,0.631
647.0,0.6212
648.0,0.6217
649.0,0.6095
650.0,0.6154
651.0,0.6426
652.0,0.6128
653.0,0.6342
654.0,0.6275
655.0,0.6025
656.0,0.5351
657.0,0.5497
658.0,0.6169
659.0,0.6217
660.0,0.6245
661.0,0.629
662.0,0.6297
663.0,0.6175
664.0,0.6256
665.0,0.6268
666.0,0.6275
667.0,0.6273
668.0,0.6279
669.0,0.6378
670.0,0.6352
671.0,0.6352
672.0,0.6299
673.0,0.6395
674.0,0.6373
675.0,0.6316
676.0,0.6361
677.0,0.6299
678.0,0.6318
679.0,0.6217
680.0,0.6267
681.0,0.6226
682.0,0.6219
683.0,0.6207
684.0,0.6176
685.0,0.623
686.0,0.6192
687.0,0.3752
688.0,0.4563
689.0,0.4585
690.0,0.4866
691.0,0.5187
692.0,0.543
693.0,0.538
694.0,0.5339
695.0,0.5604
696.0,0.5614
697.0,0.6011
698.0,0.5916
699.0,0.5739
700.0,0.5668
701.0,0.5598
702.0,0.5651
703.0,0.5663
704.0,0.5866
705.0,0.5875
706.0,0.5878
707.0,0.5886
708.0,0.5897
709.0,0.592
710.0,0.5912
711.0,0.5909
712.0,0.5898
713.0,0.5832
714.0,0.5856
715.0,0.5657
716.0,0.5657
717.0,0.4775
718.0,0.437
719.0,0.3991
720.0,0.4169
721.0,0.468
722.0,0.5438
723.0,0.502
724.0,0.4472
725.0,0.4383
726.0,0.4594
727.0,0.4693
728.0,0.4366
729.0,0.4576
730.0,0.4837
731.0,0.4616
732.0,0.4986
733.0,0.5325
734.0,0.5465
735.0,0.5344
736.0,0.5337
737.0,0.5358
738.0,0.5473
739.0,0.5365
740.0,0.5516
741.0,0.5467
742.0,0.5478
743.0,0.5619
744.0,0.5607
745.0,0.5611
746.0,0.5637
747.0,0.565
748.0,0.5639
749.0,0.5575
750.0,0.5572
751.0,0.5515
752.0,0.554
753.0,0.5568
754.0,0.5581
755.0,0.5549
756.0,0.5547
757.0,0.5555
758.0,0.5485
759.0,0.5353
760.0,0.05951
761.0,0.02702
762.0,0.2362
763.0,0.1002
764.0,0.1656
765.0,0.2361
766.0,0.3068
767.0,0.4053
768.0,0.483
769.0,0.4967
770.0,0.5176
771.0,0.5235
772.0,0.5252
773.0,0.529
774.0,0.5266
775.0,0.5227
776.0,0.5291
777.0,0.5221
778.0,0.5189
779.0,0.5194
780.0,0.5165
781.0,0.5171
782.0,0.5203
783.0,0.5113
784.0,0.5138
785.0,0.5099
786.0,0.5154
787.0,0.5048
788.0,0.4977
789.0,0.4974
790.0,0.4819
791.0,0.4883
792.0,0.485
793.0,0.4769
794.0,0.4874
795.0,0.495
796.0,0.4767
797.0,0.4771
798.0,0.4941
799.0,0.4903
800.0,0.4811
801.0,0.4789
802.0,0.4775
803.0,0.4735
804.0,0.4745
805.0,0.4739
806.0,0.4887
807.0,0.4825
808.0,0.4831
809.0,0.4728
810.0,0.4682
811.0,0.4671
812.0,0.4517
813.0,0.4411
814.0,0.3815
815.0,0.3795
816.0,0.3525
817.0,0.3595
818.0,0.3446
819.0,0.3909
820.0,0.366
821.0,0.4359
822.0,0.4221
823.0,0.2746
824.0,0.4069
825.0,0.4282
826.0,0.4094
827.0,0.4347
828.0,0.3609
829.0,0.4074
830.0,0.4014
831.0,0.4029
832.0,0.3892
833.0,0.4178
834.0,0.4005
835.0,0.4455
836.0,0.4228
837.0,0.4469
838.0,0.4312
839.0,0.4406
840.0,0.4507
841.0,0.4435
842.0,0.4457
843.0,0.4467
844.0,0.4398
845.0,0.4555
846.0,0.4537
847.0,0.4457
848.0,0.4423
849.0,0.4298
850.0,0.4118
851.0,0.4354
852.0,0.4326
853.0,0.4169
854.0,0.3596
855.0,0.3956
856.0,0.4321
857.0,0.4421
858.0,0.4387
859.0,0.4393
860.0,0.4403
861.0,0.4378
862.0,0.4448
863.0,0.4553
864.0,0.4326
865.0,0.4288
866.0,0.3856
867.0,0.4024
868.0,0.4379
869.0,0.4289
870.0,0.4411
871.0,0.4351
872.0,0.4336
873.0,0.4327
874.0,0.4276
875.0,0.4189
876.0,0.4232
877.0,0.4275
878.0,0.4321
879.0,0.4255
880.0,0.4163
881.0,0.4098
882.0,0.4186
883.0,0.4202
884.0,0.4181
885.0,0.4213
886.0,0.4005
887.0,0.4055
888.0,0.411
889.0,0.4166
890.0,0.412
891.0,0.4119
892.0,0.3985
893.0,0.3845
894.0,0.3678
895.0,0.3435
896.0,0.3223
897.0,0.2719
898.0,0.2993
899.0,0.222
900.0,0.3096
901.0,0.2327
902.0,0.2808
903.0,0.2809
904.0,0.365
905.0,0.3509
906.0,0.327
907.0,0.258
908.0,0.2644
909.0,0.2898
910.0,0.25
911.0,0.2707
912.0,0.2839
913.0,0.2534
914.0,0.2525
915.0,0.2736
916.0,0.2303
917.0,0.2987
918.0,0.2357
919.0,0.3061
920.0,0.3133
921.0,0.326
922.0,0.2868
923.0,0.3153
924.0,0.2931
925.0,0.2869
926.0,0.2896
927.0,0.3288
928.0,0.2281
929.0,0.2047
930.0,0.1553
931.0,0.1477
932.0,0.1006
933.0,0.07907
934.0,0.03775
935.0,0.08313
936.0,0.04826
937.0,0.04861
938.0,0.06115
939.0,0.143
940.0,0.1761
941.0,0.1275
942.0,0.1508
943.0,0.09496
944.0,0.1041
945.0,0.1326
946.0,0.06186
947.0,0.1317
948.0,0.09607
949.0,0.1818
950.0,0.04243
951.0,0.18
952.0,0.08945
953.0,0.1203
954.0,0.153
955.0,0.1223
956.0,0.1228
957.0,0.08902
958.0,0.1809
959.0,0.1374
960.0,0.154
961.0,0.1778
962.0,0.1678
963.0,0.1978
964.0,0.1799
965.0,0.1973
966.0,0.1964
967.0,0.1951
968.0,0.2778
969.0,0.2883
970.0,0.2629
971.0,0.3081
972.0,0.2933
973.0,0.2481
974.0,0.2346
975.0,0.2463
976.0,0.2298
977.0,0.2696
978.0,0.2527
979.0,0.2669
980.0,0.2497
981.0,0.3066
982.0,0.2905
983.0,0.2774
984.0,0.319
985.0,0.2893
986.0,0.3266
987.0,0.3179
988.0,0.3175
989.0,0.3268
990.0,0.3155
991.0,0.3275
992.0,0.3296
993.0,0.3201
994.0,0.3298
995.0,0.3297
996.0,0.3279
997.0,0.3285
998.0,0.3269
999.0,0.3258
1000.0,0.323
1001.0,0.3276
1002.0,0.3164
1003.0,0.3217
1004.0,0.3132
1005.0,0.3025
1006.0,0.3139
1007.0,0.3208
1008.0,0.3187
1009.0,0.3165
1010.0,0.315
1011.0,0.3192
1012.0,0.3161
1013.0,0.3186
1014.0,0.3163
1015.0,0.3142
1016.0,0.3127
1017.0,0.3134
1018.0,0.3125
1019.0,0.305
1020.0,0.3107
1021.0,0.3105
1022.0,0.3077
1023.0,0.311
1024.0,0.3061
1025.0,0.311
1026.0,0.3095
1027.0,0.3088
1028.0,0.3081
1029.0,0.3044
1030.0,0.3068
1031.0,0.3054
1032.0,0.3046
1033.0,0.3
1034.0,0.3001
1035.0,0.301
1036.0,0.3025
1037.0,0.2976
1038.0,0.2989
1039.0,0.2986
1040.0,0.2974
1041.0,0.2985
1042.0,0.2964
1043.0,0.2955
1044.0,0.2964
1045.0,0.2924
1046.0,0.2891
1047.0,0.2916
1048.0,0.2932
1049.0,0.292
1050.0,0.2906
1051.0,0.2901
1052.0,0.2889
1053.0,0.2865
1054.0,0.287
1055.0,0.287
1056.0,0.2859
1057.0,0.2849
1058.0,0.2778
1059.0,0.2779
1060.0,0.2774
1061.0,0.277
1062.0,0.2783
1063.0,0.2755
1064.0,0.2788
1065.0,0.2765
1066.0,0.2713
1067.0,0.2747
1068.0,0.2685
1069.0,0.2603
1070.0,0.269
1071.0,0.2739
1072.0,0.2702
1073.0,0.2664
1074.0,0.2741
1075.0,0.2581
1076.0,0.2737
1077.0,0.2676
1078.0,0.262
1079.0,0.2697
1080.0,0.2635
1081.0,0.254
1082.0,0.2599
1083.0,0.2612
1084.0,0.2528
1085.0,0.2643
1086.0,0.2381
1087.0,0.2479
1088.0,0.2606
1089.0,0.2505
1090.0,0.2437
1091.0,0.2592
1092.0,0.2589
1093.0,0.2137
1094.0,0.2362
1095.0,0.2232
1096.0,0.212
1097.0,0.253
1098.0,0.2079
1099.0,0.2178
1100.0,0.2
1101.0,0.2033
1102.0,0.1926
1103.0,0.1896
1104.0,0.19
1105.0,0.2123
1106.0,0.1528
1107.0,0.1998
1108.0,0.1636
1109.0,0.165
1110.0,0.1971
1111.0,0.1261
1112.0,0.1642
1113.0,0.09694
1114.0,0.1089
1115.0,0.08988
1116.0,0.06747
1117.0,0.02058
1118.0,0.0747
1119.0,0.03345
1120.0,0.04171
1121.0,0.05743
1122.0,0.02118
1123.0,0.03786
1124.0,0.0319
1125.0,0.04252
1126.0,0.01194
1127.0,0.04823
1128.0,0.02563
1129.0,0.02758
1130.0,0.01721
1131.0,0.09976
1132.0,0.07667
1133.0,0.0441
1134.0,0.009099
1135.0,0.003549
1136.0,0.03525
1137.0,0.09634
1138.0,0.06707
1139.0,0.1093
1140.0,0.08776
1141.0,0.06383
1142.0,0.0752
1143.0,0.1107
1144.0,0.03443
1145.0,0.04259
1146.0,0.04588
1147.0,0.01325
1148.0,0.09549
1149.0,0.07357
1150.0,0.03767
1151.0,0.06652
1152.0,0.08507
1153.0,0.0854
1154.0,0.04112
1155.0,0.1138
1156.0,0.1007
1157.0,0.1163
1158.0,0.1149
1159.0,0.1262
1160.0,0.1057
1161.0,0.1353
1162.0,0.1355
1163.0,0.1918
1164.0,0.1613
1165.0,0.1491
1166.0,0.1505
1167.0,0.1654
1168.0,0.1665
1169.0,0.1714
1170.0,0.1889
1171.0,0.184
1172.0,0.189
1173.0,0.1886
1174.0,0.1285
1175.0,0.1856
1176.0,0.2074
1177.0,0.1968
1178.0,0.1432
1179.0,0.2091
1180.0,0.183
1181.0,0.1891
1182.0,0.1254
1183.0,0.1869
1184.0,0.1735
1185.0,0.1659
1186.0,0.2018
1187.0,0.1906
1188.0,0.1267
1189.0,0.1773
1190.0,0.1974
1191.0,0.1844
1192.0,0.2005
1193.0,0.1911
1194.0,0.1976
1195.0,0.1849
1196.0,0.1768
1197.0,0.1987
1198.0,0.1806
1199.0,0.1493
1200.0,0.1886
1201.0,0.1803
1202.0,0.1804
1203.0,0.1784
1204.0,0.154
1205.0,0.1859
1206.0,0.2076
1207.0,0.1794
1208.0,0.1779
1209.0,0.1819
1210.0,0.1904
1211.0,0.1798
1212.0,0.1754
1213.0,0.1997
1214.0,0.1805
1215.0,0.1768
1216.0,0.1992
1217.0,0.1931
1218.0,0.1975
1219.0,0.1946
1220.0,0.1978
1221.0,0.2002
1222.0,0.1947
1223.0,0.1925
1224.0,0.1905
1225.0,0.1989
1226.0,0.2008
1227.0,0.1831
1228.0,0.2023
1229.0,0.2008
1230.0,0.197
1231.0,0.204
1232.0,0.2028
1233.0,0.1939
1234.0,0.2042
1235.0,0.2027
1236.0,0.2044
1237.0,0.2007
1238.0,0.2037
1239.0,0.201
1240.0,0.2019
1241.0,0.2005
1242.0,0.2005
1243.0,0.1989
1244.0,0.2001
1245.0,0.2011
1246.0,0.1999
1247.0,0.199
1248.0,0.1986
1249.0,0.1995
1250.0,0.1981
1251.0,0.1953
1252.0,0.1957
1253.0,0.1935
1254.0,0.191
1255.0,0.1953
1256.0,0.1887
1257.0,0.1874
1258.0,0.1918
1259.0,0.183
1260.0,0.1842
1261.0,0.1716
1262.0,0.1652
1263.0,0.1655
1264.0,0.15
1265.0,0.1645
1266.0,0.1566
1267.0,0.1605
1268.0,0.1504
1269.0,0.0823
1270.0,0.1595
1271.0,0.1713
1272.0,0.1721
1273.0,0.17
1274.0,0.1709
1275.0,0.1738
1276.0,0.176
1277.0,0.1777
1278.0,0.182
1279.0,0.1803
1280.0,0.1781
1281.0,0.1704
1282.0,0.1649
1283.0,0.1774
1284.0,0.1815
1285.0,0.1828
1286.0,0.1857
1287.0,0.1821
1288.0,0.1823
1289.0,0.1751
1290.0,0.1807
1291.0,0.1835
1292.0,0.1698
1293.0,0.1793
1294.0,0.178
1295.0,0.1763
1296.0,0.1667
1297.0,0.1564
1298.0,0.171
1299.0,0.1798
1300.0,0.1478
1301.0,0.1532
1302.0,0.1705
1303.0,0.1464
1304.0,0.1208
1305.0,0.1667
1306.0,0.1664
1307.0,0.1249
1308.0,0.1473
1309.0,0.1646
1310.0,0.1222
1311.0,0.1403
1312.0,0.1359
1313.0,0.1324
1314.0,0.1171
1315.0,0.1146
1316.0,0.1373
1317.0,0.1296
1318.0,0.1425
1319.0,0.1065
1320.0,0.1043
1321.0,0.1231
1322.0,0.1235
1323.0,0.08892
1324.0,0.1046
1325.0,0.135
1326.0,0.1133
1327.0,0.1074
1328.0,0.09126
1329.0,0.06503
1330.0,0.08644
1331.0,0.04821
1332.0,0.05105
1333.0,0.07188
1334.0,0.06317
1335.0,0.0884
1336.0,0.06772
1337.0,0.05899
1338.0,0.06371
1339.0,0.06401
1340.0,0.0634
1341.0,0.05924
1342.0,0.06251
1343.0,0.03753
1344.0,0.02288
1345.0,0.03297
1346.0,0.01368
1347.0,0.01345
1348.0,0.0005855
1349.0,0.002338
1350.0,0.002618
1351.0,0.0004415
1352.0,7.7e-05
1353.0,2.645e-06
1354.0,1.213e-05
1355.0,4.065e-08
1356.0,1.267e-06
1357.0,1.938e-06
1358.0,4.99e-08
1359.0,3.202e-09
1360.0,1.794e-08
1361.0,5.331e-12
1362.0,9.289e-15
1363.0,1.863e-08
1364.0,7.882e-09
1365.0,1.854e-15
1366.0,9.698e-08
1367.0,4.732e-08
1368.0,7.729e-18
1369.0,2.889e-09
1370.0,1.074e-09
1371.0,4.503e-11
1372.0,2.642e-08
1373.0,8.251e-07
1374.0,5.232e-06
1375.0,9.047e-06
1376.0,1.113e-05
1377.0,4.794e-06
1378.0,5.173e-05
1379.0,2.019e-06
1380.0,2.35e-06
1381.0,5.303e-08
1382.0,2.187e-08
1383.0,2.68e-10
1384.0,2.884e-09
1385.0,2.917e-08
1386.0,1.579e-08
1387.0,4.311e-06
1388.0,9.244e-08
1389.0,2.131e-05
1390.0,1.793e-05
1391.0,1.144e-05
1392.0,6.992e-07
1393.0,4.344e-06
1394.0,1.304e-06
1395.0,7.13e-09
1396.0,9.072e-12
1397.0,1.534e-06
1398.0,5.551e-05
1399.0,3.591e-05
1400.0,2.768e-12
1401.0,1.847e-11
1402.0,0.0001606
1403.0,0.0001836
1404.0,5.352e-05
1405.0,2.712e-09
1406.0,0.0001184
1407.0,1.236e-05
1408.0,0.0001
1409.0,2.589e-05
1410.0,2.554e-05
1411.0,0.0001647
1412.0,0.0002518
1413.0,0.003631
1414.0,2.093e-05
1415.0,8.959e-06
1416.0,0.007589
1417.0,0.001834
1418.0,0.001947
1419.0,0.0002864
1420.0,0.001179
1421.0,0.001325
1422.0,0.009971
1423.0,0.001827
1424.0,0.003578
1425.0,0.004971
1426.0,0.006287
1427.0,0.01295
1428.0,0.0005283
1429.0,0.008925
1430.0,0.01723
1431.0,0.01945
1432.0,0.0004091
1433.0,0.0117
1434.0,0.005623
1435.0,0.004555
1436.0,0.01039
