interpolation:linear
wavelength,value
280.0,4.344e-21
280.5,1.345e-19
281.0,7.069e-19
281.5,4.678e-19
282.0,1.257e-18
282.5,3.257e-18
283.0,1.042e-17
283.5,1.7e-17
284.0,2.719e-16
284.5,7.796e-16
285.0,1.687e-15
285.5,8.38e-15
286.0,3.368e-14
286.5,1.492e-13
287.0,4.229e-13
287.5,1.599e-12
288.0,4.136e-12
288.5,1.41e-11
289.0,4.083e-11
289.5,1.315e-10
290.0,3.801e-10
290.5,7.976e-10
291.0,1.761e-09
291.5,5.605e-09
292.0,1.223e-08
292.5,1.873e-08
293.0,4.494e-08
293.5,1.278e-07
294.0,2.239e-07
294.5,2.91e-07
295.0,5.522e-07
295.5,1.497e-06
296.0,2.998e-06
296.5,4.365e-06
297.0,6.118e-06
297.5,1.735e-05
298.0,2.878e-05
298.5,3.019e-05
299.0,6.945e-05
299.5,0.0001246
300.0,0.0001437
300.5,0.0002193
301.0,0.0004353
301.5,0.0007671
302.0,0.0006977
302.5,0.001368
303.0,0.002467
303.5,0.003113
304.0,0.002928
304.5,0.004377
305.0,0.006644
305.5,0.007611
306.0,0.007367
306.5,0.009171
307.0,0.01359
307.5,0.01803
308.0,0.01904
308.5,0.02245
309.0,0.02205
309.5,0.02515
310.0,0.02524
310.5,0.04085
311.0,0.05121
311.5,0.04942
312.0,0.04926
312.5,0.05982
313.0,0.06481
313.5,0.06302
314.0,0.07858
314.5,0.06941
315.0,0.09116
315.5,0.07643
316.0,0.06653
316.5,0.09526
317.0,0.1183
317.5,0.1232
318.0,0.09595
318.5,0.1186
319.0,0.1405
319.5,0.1149
320.0,0.139
320.5,0.1732
321.0,0.1535
321.5,0.1472
322.0,0.1576
322.5,0.1371
323.0,0.1361
323.5,0.1668
324.0,0.1947
324.5,0.1979
325.0,0.1713
325.5,0.2197
326.0,0.2685
326.5,0.2684
327.0,0.2678
327.5,0.2589
328.0,0.2312
328.5,0.2422
329.0,0.2893
329.5,0.3281
330.0,0.3313
330.5,0.2658
331.0,0.271
331.5,0.2751
332.0,0.2965
332.5,0.293
333.0,0.2924
333.5,0.2651
334.0,0.2718
334.5,0.313
335.0,0.2939
335.5,0.3433
336.0,0.2376
336.5,0.2784
337.0,0.2286
337.5,0.2845
338.0,0.2774
338.5,0.3202
339.0,0.317
339.5,0.305
340.0,0.3585
340.5,0.3232
341.0,0.3152
341.5,0.2895
342.0,0.346
342.5,0.3238
343.0,0.3561
343.5,0.3354
344.0,0.2479
344.5,0.2505
345.0,0.3315
345.5,0.3386
346.0,0.2878
346.5,0.3259
347.0,0.35
347.5,0.283
348.0,0.3227
348.5,0.3226
349.0,0.2994
349.5,0.2965
350.0,0.3668
350.5,0.387
351.0,0.3458
351.5,0.3361
352.0,0.3611
352.5,0.2818
353.0,0.3551
353.5,0.3798
354.0,0.3943
354.5,0.4
355.0,0.3987
355.5,0.3603
356.0,0.377
356.5,0.322
357.0,0.2661
357.5,0.3258
358.0,0.2583
358.5,0.2207
359.0,0.3088
359.5,0.3936
360.0,0.4173
360.5,0.3336
361.0,0.3042
361.5,0.3504
362.0,0.3031
362.5,0.4196
363.0,0.377
363.5,0.3474
364.0,0.4249
364.5,0.3633
365.0,0.3701
365.5,0.4646
366.0,0.4924
366.5,0.4628
367.0,0.4508
367.5,0.4679
368.0,0.4095
368.5,0.4134
369.0,0.4465
369.5,0.476
370.0,0.5076
370.5,0.3941
371.0,0.4212
371.5,0.527
372.0,0.3499
372.5,0.4196
373.0,0.4269
373.5,0.2779
374.0,0.4038
374.5,0.3345
375.0,0.3253
375.5,0.4857
376.0,0.4027
376.5,0.4174
377.0,0.442
377.5,0.5173
378.0,0.5608
378.5,0.5302
379.0,0.4376
379.5,0.3998
380.0,0.4157
380.5,0.5037
381.0,0.5049
381.5,0.4003
382.0,0.3556
382.5,0.3033
383.0,0.2808
383.5,0.2706
384.0,0.2985
384.5,0.4392
385.0,0.4357
385.5,0.4058
386.0,0.3477
386.5,0.4568
387.0,0.3797
387.5,0.4265
388.0,0.3939
388.5,0.3895
389.0,0.4205
389.5,0.5094
390.0,0.5114
390.5,0.4707
391.0,0.5542
391.5,0.5654
392.0,0.4763
392.5,0.4265
393.0,0.2374
393.5,0.1726
394.0,0.3513
394.5,0.4468
395.0,0.5453
395.5,0.554
396.0,0.4804
396.5,0.2809
397.0,0.2109
397.5,0.4289
398.0,0.6007
398.5,0.6211
399.0,0.6727
399.5,0.6706
400.0,0.6965
401.0,0.7063
402.0,0.7455
403.0,0.7085
404.0,0.6978
405.0,0.6979
406.0,0.6869
407.0,0.6761
408.0,0.7026
409.0,0.7523
410.0,0.6575
411.0,0.7125
412.0,0.7655
413.0,0.7467
414.0,0.7561
415.0,0.7584
416.0,0.7719
417.0,0.7531
418.0,0.7394
419.0,0.7494
420.0,0.7462
421.0,0.7809
422.0,0.7424
423.0,0.7254
424.0,0.7674
425.0,0.7662
426.0,0.7466
427.0,0.7328
428.0,0.714
429.0,0.6765
430.0,0.5922
431.0,0.587
432.0,0.7582
433.0,0.7625
434.0,0.7081
435.0,0.7397
436.0,0.8337
437.0,0.8227
438.0,0.7493
439.0,0.775
440.0,0.7998
441.0,0.829
442.0,0.8892
443.0,0.8661
444.0,0.8851
445.0,0.866
446.0,0.8267
447.0,0.894
448.0,0.9079
449.0,0.9117
450.0,0.9374
451.0,0.9723
452.0,0.9369
453.0,0.8813
454.0,0.9202
455.0,0.926
456.0,0.9481
457.0,0.9639
458.0,0.931
459.0,0.9263
460.0,0.9289
461.0,0.9503
462.0,0.9578
463.0,0.9512
464.0,0.9357
465.0,0.924
466.0,0.9331
467.0,0.9161
468.0,0.9269
469.0,0.9318
470.0,0.9021
471.0,0.901
472.0,0.9494
473.0,0.9371
474.0,0.9384
475.0,0.9464
476.0,0.918
477.0,0.9205
478.0,0.9461
479.0,0.9405
480.0,0.9424
481.0,0.9601
482.0,0.9652
483.0,0.9537
484.0,0.9342
485.0,0.8902
486.0,0.7783
487.0,0.8157
488.0,0.8949
489.0,0.8977
490.0,0.9445
491.0,0.9283
492.0,0.8766
493.0,0.9054
494.0,0.9145
495.0,0.9223
496.0,0.928
497.0,0.9424
498.0,0.8983
499.0,0.9098
500.0,0.8833
501.0,0.867
502.0,0.8547
503.0,0.8894
504.0,0.8664
505.0,0.8977
506.0,0.9267
507.0,0.8819
508.0,0.8545
509.0,0.8786
510.0,0.874
511.0,0.8976
512.0,0.9074
513.0,0.8588
514.0,0.853
515.0,0.8445
516.0,0.8424
517.0,0.7486
518.0,0.787
519.0,0.8255
520.0,0.8555
521.0,0.8636
522.0,0.8643
523.0,0.8487
524.0,0.879
525.0,0.8893
526.0,0.8495
527.0,0.8004
528.0,0.8465
529.0,0.8922
530.0,0.8793
531.0,0.8923
532.0,0.8617
533.0,0.8364
534.0,0.8612
535.0,0.88
536.0,0.8882
537.0,0.8532
538.0,0.8683
539.0,0.861
540.0,0.8254
541.0,0.8308
542.0,0.8568
543.0,0.8478
544.0,0.8624
545.0,0.8598
546.0,0.8635
547.0,0.8632
548.0,0.8529
549.0,0.8555
550.0,0.8657
551.0,0.8552
552.0,0.8611
553.0,0.8457
554.0,0.866
555.0,0.8677
556.0,0.8564
557.0,0.8297
558.0,0.8234
559.0,0.8079
560.0,0.818
561.0,0.8285
562.0,0.8224
563.0,0.8448
564.0,0.8217
565.0,0.8146
566.0,0.8026
567.0,0.8177
568.0,0.8101
569.0,0.7904
570.0,0.7902
571.0,0.7856
572.0,0.8042
573.0,0.8127
574.0,0.81
575.0,0.7948
576.0,0.7875
577.0,0.7962
578.0,0.7844
579.0,0.7877
580.0,0.803
581.0,0.8074
582.0,0.8229
583.0,0.8252
584.0,0.8324
585.0,0.8122
586.0,0.7955
587.0,0.8128
588.0,0.7924
589.0,0.7008
590.0,0.733
591.0,0.7764
592.0,0.7662
593.0,0.778
594.0,0.7724
595.0,0.7529
596.0,0.7836
597.0,0.7749
598.0,0.7732
599.0,0.774
600.0,0.7754
601.0,0.7692
602.0,0.764
603.0,0.7768
604.0,0.7897
605.0,0.7857
606.0,0.7825
607.0,0.7904
608.0,0.7818
609.0,0.7832
610.0,0.7777
611.0,0.7818
612.0,0.7796
613.0,0.7699
614.0,0.7594
615.0,0.7761
616.0,0.7506
617.0,0.7491
618.0,0.778
619.0,0.7701
620.0,0.775
621.0,0.7757
622.0,0.7665
623.0,0.7548
624.0,0.7419
625.0,0.7402
626.0,0.7512
627.0,0.7593
628.0,0.7064
629.0,0.7404
630.0,0.7233
631.0,0.7405
632.0,0.7318
633.0,0.7545
634.0,0.7475
635.0,0.7592
636.0,0.7494
637.0,0.7618
638.0,0.7693
639.0,0.7608
640.0,0.7536
641.0,0.7532
642.0,0.7499
643.0,0.76
644.0,0.7576
645.0,0.7588
646.0,0.7408
647.0,0.7312
648.0,0.7318
649.0,0.7176
650.0,0.7221
651.0,0.7535
652.0,0.7211
653.0,0.7436
654.0,0.7354
655.0,0.7075
656.0,0.6274
657.0,0.6443
658.0,0.7224
659.0,0.7277
660.0,0.7308
661.0,0.736
662.0,0.7373
663.0,0.7228
664.0,0.7316
665.0,0.7324
666.0,0.7331
667.0,0.7325
668.0,0.733
669.0,0.7444
670.0,0.7412
671.0,0.7411
672.0,0.7348
673.0,0.7459
674.0,0.7431
675.0,0.7364
676.0,0.7415
677.0,0.7342
678.0,0.7363
679.0,0.7245
680.0,0.7303
681.0,0.7255
682.0,0.7246
683.0,0.7232
684.0,0.7196
685.0,0.7258
686.0,0.7214
687.0,0.4668
688.0,0.5528
689.0,0.555
690.0,0.584
691.0,0.6169
692.0,0.6412
693.0,0.6357
694.0,0.6305
695.0,0.6581
696.0,0.659
697.0,0.7012
698.0,0.6903
699.0,0.6726
700.0,0.6644
701.0,0.6573
702.0,0.6623
703.0,0.6635
704.0,0.6855
705.0,0.6865
706.0,0.6862
707.0,0.6868
708.0,0.6883
709.0,0.6897
710.0,0.6895
711.0,0.6887
712.0,0.6868
713.0,0.6797
714.0,0.6823
715.0,0.6603
716.0,0.6606
717.0,0.5685
718.0,0.5215
719.0,0.4773
720.0,0.4996
721.0,0.5542
722.0,0.6369
723.0,0.5915
724.0,0.5311
725.0,0.522
726.0,0.5467
727.0,0.5556
728.0,0.5205
729.0,0.5416
730.0,0.573
731.0,0.5478
732.0,0.5876
733.0,0.6236
734.0,0.6388
735.0,0.6254
736.0,0.6246
737.0,0.627
738.0,0.6378
739.0,0.6252
740.0,0.6419
741.0,0.6357
742.0,0.6365
743.0,0.6528
744.0,0.651
745.0,0.6513
746.0,0.6542
747.0,0.6557
748.0,0.6543
749.0,0.6469
750.0,0.6465
751.0,0.64
752.0,0.6427
753.0,0.646
754.0,0.6474
755.0,0.6438
756.0,0.6435
757.0,0.6444
758.0,0.6364
759.0,0.6228
760.0,0.09181
761.0,0.04604
762.0,0.3047
763.0,0.1446
764.0,0.224
765.0,0.3046
766.0,0.3806
767.0,0.4871
768.0,0.5678
769.0,0.581
770.0,0.6022
771.0,0.6077
772.0,0.6092
773.0,0.6135
774.0,0.6106
775.0,0.606
776.0,0.6134
777.0,0.6053
778.0,0.6016
779.0,0.6021
780.0,0.5988
781.0,0.5994
782.0,0.6032
783.0,0.5927
784.0,0.5955
785.0,0.5911
786.0,0.5975
787.0,0.5866
788.0,0.579
789.0,0.5787
790.0,0.5625
791.0,0.5681
792.0,0.5641
793.0,0.5549
794.0,0.5652
795.0,0.5745
796.0,0.5558
797.0,0.5564
798.0,0.5737
799.0,0.5698
800.0,0.5597
801.0,0.5577
802.0,0.5561
803.0,0.5517
804.0,0.5526
805.0,0.5512
806.0,0.5672
807.0,0.5602
808.0,0.5608
809.0,0.5498
810.0,0.5451
811.0,0.5452
812.0,0.5288
813.0,0.5174
814.0,0.4527
815.0,0.45
816.0,0.4186
817.0,0.4265
818.0,0.4099
819.0,0.4605
820.0,0.4328
821.0,0.509
822.0,0.4939
823.0,0.3311
824.0,0.4785
825.0,0.5
826.0,0.4801
827.0,0.5077
828.0,0.4276
829.0,0.4774
830.0,0.4709
831.0,0.4726
832.0,0.4576
833.0,0.4883
834.0,0.47
835.0,0.5185
836.0,0.4949
837.0,0.52
838.0,0.5031
839.0,0.5123
840.0,0.5237
841.0,0.516
842.0,0.5175
843.0,0.5177
844.0,0.5103
845.0,0.5279
846.0,0.5256
847.0,0.516
848.0,0.5126
849.0,0.498
850.0,0.4772
851.0,0.505
852.0,0.5015
853.0,0.4829
854.0,0.4168
855.0,0.4582
856.0,0.5006
857.0,0.5119
858.0,0.5081
859.0,0.5086
860.0,0.5096
861.0,0.5068
862.0,0.5148
863.0,0.5269
864.0,0.5006
865.0,0.4963
866.0,0.4462
867.0,0.4657
868.0,0.5067
869.0,0.4962
870.0,0.5104
871.0,0.5034
872.0,0.5017
873.0,0.5007
874.0,0.4947
875.0,0.4847
876.0,0.4897
877.0,0.4947
878.0,0.5
879.0,0.4923
880.0,0.4818
881.0,0.4744
882.0,0.4846
883.0,0.4863
884.0,0.484
885.0,0.4877
886.0,0.4643
887.0,0.4696
888.0,0.4763
889.0,0.4821
890.0,0.4776
891.0,0.477
892.0,0.4626
893.0,0.4474
894.0,0.4303
895.0,0.4047
896.0,0.3806
897.0,0.3246
898.0,0.3555
899.0,0.2676
900.0,0.3655
901.0,0.2805
902.0,0.333
903.0,0.335
904.0,0.427
905.0,0.4116
906.0,0.3845
907.0,0.3088
908.0,0.3155
909.0,0.3434
910.0,0.3007
911.0,0.3224
912.0,0.3376
913.0,0.305
914.0,0.303
915.0,0.3285
916.0,0.2773
917.0,0.3552
918.0,0.2842
919.0,0.3625
920.0,0.3681
921.0,0.383
922.0,0.3402
923.0,0.3702
924.0,0.3483
925.0,0.3408
926.0,0.3443
927.0,0.3877
928.0,0.2779
929.0,0.2519
930.0,0.195
931.0,0.1852
932.0,0.1303
933.0,0.1043
934.0,0.05394
935.0,0.108
936.0,0.06537
937.0,0.06603
938.0,0.08202
939.0,0.1793
940.0,0.2179
941.0,0.1615
942.0,0.1888
943.0,0.1219
944.0,0.1305
945.0,0.1672
946.0,0.08191
947.0,0.1671
948.0,0.1223
949.0,0.2268
950.0,0.05829
951.0,0.2239
952.0,0.1161
953.0,0.1527
954.0,0.1903
955.0,0.1548
956.0,0.1523
957.0,0.1159
958.0,0.2199
959.0,0.1712
960.0,0.1919
961.0,0.2181
962.0,0.2061
963.0,0.24
964.0,0.2191
965.0,0.2393
966.0,0.2387
967.0,0.2375
968.0,0.3271
969.0,0.3407
970.0,0.3119
971.0,0.3608
972.0,0.3444
973.0,0.296
974.0,0.2804
975.0,0.2926
976.0,0.2757
977.0,0.3179
978.0,0.3003
979.0,0.3157
980.0,0.2961
981.0,0.3588
982.0,0.3417
983.0,0.3272
984.0,0.3714
985.0,0.3404
986.0,0.3789
987.0,0.3703
988.0,0.3697
989.0,0.3783
990.0,0.3674
991.0,0.3793
992.0,0.3816
993.0,0.372
994.0,0.3816
995.0,0.3813
996.0,0.3795
997.0,0.3801
998.0,0.3783
999.0,0.3769
1000.0,0.374
1001.0,0.379
1002.0,0.3674
1003.0,0.3722
1004.0,0.3628
1005.0,0.3499
1006.0,0.3634
1007.0,0.3712
1008.0,0.369
1009.0,0.3668
1010.0,0.3651
1011.0,0.3693
1012.0,0.3659
1013.0,0.3685
1014.0,0.3659
1015.0,0.3635
1016.0,0.3618
1017.0,0.3627
1018.0,0.3615
1019.0,0.3533
1020.0,0.3595
1021.0,0.3591
1022.0,0.3561
1023.0,0.3599
1024.0,0.3548
1025.0,0.3598
1026.0,0.3581
1027.0,0.3573
1028.0,0.3565
1029.0,0.3523
1030.0,0.3548
1031.0,0.3534
1032.0,0.3524
1033.0,0.3471
1034.0,0.3471
1035.0,0.3482
1036.0,0.3499
1037.0,0.3443
1038.0,0.3458
1039.0,0.3455
1040.0,0.3441
1041.0,0.3455
1042.0,0.3431
1043.0,0.342
1044.0,0.3431
1045.0,0.3384
1046.0,0.3347
1047.0,0.3377
1048.0,0.3395
1049.0,0.3382
1050.0,0.3366
1051.0,0.3361
1052.0,0.3347
1053.0,0.332
1054.0,0.3327
1055.0,0.3328
1056.0,0.3315
1057.0,0.3305
1058.0,0.3223
1059.0,0.3226
1060.0,0.322
1061.0,0.3216
1062.0,0.3232
1063.0,0.32
1064.0,0.3238
1065.0,0.3213
1066.0,0.3151
1067.0,0.3191
1068.0,0.312
1069.0,0.3025
1070.0,0.3126
1071.0,0.3179
1072.0,0.3139
1073.0,0.3094
1074.0,0.3179
1075.0,0.3008
1076.0,0.3175
1077.0,0.3112
1078.0,0.305
1079.0,0.3127
1080.0,0.3064
1081.0,0.296
1082.0,0.3018
1083.0,0.3029
1084.0,0.295
1085.0,0.3072
1086.0,0.2787
1087.0,0.2888
1088.0,0.3024
1089.0,0.2921
1090.0,0.2849
1091.0,0.3011
1092.0,0.3006
1093.0,0.2517
1094.0,0.2746
1095.0,0.2626
1096.0,0.2505
1097.0,0.2937
1098.0,0.2462
1099.0,0.2574
1100.0,0.2379
1101.0,0.2413
1102.0,0.2296
1103.0,0.2268
1104.0,0.2271
1105.0,0.2512
1106.0,0.1869
1107.0,0.2376
1108.0,0.1982
1109.0,0.1992
1110.0,0.235
1111.0,0.1552
1112.0,0.1979
1113.0,0.1217
1114.0,0.1364
1115.0,0.1129
1116.0,0.08761
1117.0,0.02954
1118.0,0.09616
1119.0,0.04551
1120.0,0.0571
1121.0,0.0771
1122.0,0.03057
1123.0,0.0517
1124.0,0.0436
1125.0,0.05743
1126.0,0.01815
1127.0,0.06495
1128.0,0.03682
1129.0,0.03934
1130.0,0.02519
1131.0,0.1282
1132.0,0.09963
1133.0,0.06041
1134.0,0.01398
1135.0,0.005329
1136.0,0.04944
1137.0,0.125
1138.0,0.08754
1139.0,0.1359
1140.0,0.1115
1141.0,0.08324
1142.0,0.09683
1143.0,0.1397
1144.0,0.04625
1145.0,0.05832
1146.0,0.06286
1147.0,0.02022
1148.0,0.1208
1149.0,0.09486
1150.0,0.05006
1151.0,0.08684
1152.0,0.1088
1153.0,0.1075
1154.0,0.05631
1155.0,0.1417
1156.0,0.1266
1157.0,0.1438
1158.0,0.1422
1159.0,0.1547
1160.0,0.1308
1161.0,0.164
1162.0,0.1646
1163.0,0.227
1164.0,0.193
1165.0,0.1805
1166.0,0.1804
1167.0,0.1973
1168.0,0.1991
1169.0,0.2044
1170.0,0.2235
1171.0,0.2177
1172.0,0.2225
1173.0,0.223
1174.0,0.1561
1175.0,0.2184
1176.0,0.2417
1177.0,0.231
1178.0,0.1712
1179.0,0.2437
1180.0,0.2158
1181.0,0.2228
1182.0,0.1513
1183.0,0.2198
1184.0,0.2052
1185.0,0.1973
1186.0,0.2363
1187.0,0.2243
1188.0,0.1535
1189.0,0.2088
1190.0,0.231
1191.0,0.218
1192.0,0.2344
1193.0,0.2241
1194.0,0.2313
1195.0,0.2179
1196.0,0.2093
1197.0,0.2319
1198.0,0.2116
1199.0,0.178
1200.0,0.2212
1201.0,0.2127
1202.0,0.212
1203.0,0.21
1204.0,0.1827
1205.0,0.2174
1206.0,0.2412
1207.0,0.2112
1208.0,0.2084
1209.0,0.2128
1210.0,0.2222
1211.0,0.2109
1212.0,0.2074
1213.0,0.2328
1214.0,0.2128
1215.0,0.2086
1216.0,0.2321
1217.0,0.2257
1218.0,0.2302
1219.0,0.2272
1220.0,0.2305
1221.0,0.233
1222.0,0.2268
1223.0,0.2245
1224.0,0.2228
1225.0,0.2315
1226.0,0.2332
1227.0,0.2143
1228.0,0.2346
1229.0,0.2333
1230.0,0.2291
1231.0,0.2362
1232.0,0.2348
1233.0,0.226
1234.0,0.2362
1235.0,0.2346
1236.0,0.2364
1237.0,0.2327
1238.0,0.2356
1239.0,0.2325
1240.0,0.2335
1241.0,0.2322
1242.0,0.2318
1243.0,0.23
1244.0,0.2315
1245.0,0.2326
1246.0,0.2312
1247.0,0.2303
1248.0,0.23
1249.0,0.2308
1250.0,0.2294
1251.0,0.2263
1252.0,0.2265
1253.0,0.2244
1254.0,0.222
1255.0,0.2262
1256.0,0.2194
1257.0,0.2181
1258.0,0.2225
1259.0,0.2137
1260.0,0.2149
1261.0,0.2019
1262.0,0.1954
1263.0,0.1957
1264.0,0.1795
1265.0,0.1945
1266.0,0.1865
1267.0,0.1902
1268.0,0.1796
1269.0,0.1066
1270.0,0.1893
1271.0,0.2014
1272.0,0.2021
1273.0,0.1999
1274.0,0.2007
1275.0,0.2037
1276.0,0.2059
1277.0,0.2075
1278.0,0.2119
1279.0,0.2099
1280.0,0.2073
1281.0,0.198
1282.0,0.191
1283.0,0.2057
1284.0,0.2105
1285.0,0.212
1286.0,0.215
1287.0,0.2114
1288.0,0.2114
1289.0,0.2042
1290.0,0.2096
1291.0,0.2126
1292.0,0.1987
1293.0,0.2082
1294.0,0.2067
1295.0,0.2054
1296.0,0.1954
1297.0,0.1843
1298.0,0.1995
1299.0,0.2086
1300.0,0.1747
1301.0,0.1805
1302.0,0.1989
1303.0,0.1726
1304.0,0.1455
1305.0,0.1947
1306.0,0.1946
1307.0,0.1493
1308.0,0.1732
1309.0,0.1929
1310.0,0.1463
1311.0,0.1657
1312.0,0.1609
1313.0,0.1574
1314.0,0.1403
1315.0,0.138
1316.0,0.1627
1317.0,0.1539
1318.0,0.168
1319.0,0.1291
1320.0,0.1256
1321.0,0.147
1322.0,0.1481
1323.0,0.1096
1324.0,0.1267
1325.0,0.1602
1326.0,0.1363
1327.0,0.1297
1328.0,0.1112
1329.0,0.08184
1330.0,0.1074
1331.0,0.0628
1332.0,0.06553
1333.0,0.09166
1334.0,0.07871
1335.0,0.1091
1336.0,0.08522
1337.0,0.07483
1338.0,0.08096
1339.0,0.0809
1340.0,0.07926
1341.0,0.07606
1342.0,0.08002
1343.0,0.05159
1344.0,0.03108
1345.0,0.0449
1346.0,0.02072
1347.0,0.02079
1348.0,0.001143
1349.0,0.004299
1350.0,0.004616
1351.0,0.0009654
1352.0,0.0002201
1353.0,9.498e-06
1354.0,3.672e-05
1355.0,2.07e-07
1356.0,4.592e-06
1357.0,7.02e-06
1358.0,2.488e-07
1359.0,2.386e-08
1360.0,1.033e-07
1361.0,6.526e-11
1362.0,1.417e-13
1363.0,1.275e-07
1364.0,5.257e-08
1365.0,3.625e-14
1366.0,5.993e-07
1367.0,2.602e-07
1368.0,1.528e-16
1369.0,1.942e-08
1370.0,8.538e-09
1371.0,4.236e-10
1372.0,1.437e-07
1373.0,3.481e-06
1374.0,1.836e-05
1375.0,3.3e-05
1376.0,3.329e-05
1377.0,1.485e-05
1378.0,0.0001528
1379.0,6.227e-06
1380.0,8.274e-06
1381.0,2.018e-07
1382.0,1.253e-07
1383.0,1.709e-09
1384.0,2.094e-08
1385.0,1.355e-07
1386.0,1.029e-07
1387.0,1.754e-05
1388.0,3.504e-07
1389.0,6.885e-05
1390.0,5.895e-05
1391.0,3.843e-05
1392.0,2.413e-06
1393.0,1.37e-05
1394.0,5.734e-06
1395.0,3.682e-08
1396.0,1.018e-10
1397.0,5.19e-06
1398.0,0.000169
1399.0,0.0001078
1400.0,3.77e-11
1401.0,1.935e-10
1402.0,0.0003608
1403.0,0.0004376
1404.0,0.0001312
1405.0,1.623e-08
1406.0,0.0003214
1407.0,2.991e-05
1408.0,0.0002659
1409.0,8.04e-05
1410.0,6.939e-05
1411.0,0.0003876
1412.0,0.0005501
1413.0,0.006571
1414.0,5.553e-05
1415.0,2.54e-05
1416.0,0.01194
1417.0,0.003247
1418.0,0.003615
1419.0,0.0005465
1420.0,0.0022
1421.0,0.002399
1422.0,0.01567
1423.0,0.002944
1424.0,0.005626
1425.0,0.008087
1426.0,0.009637
1427.0,0.01875
1428.0,0.001057
1429.0,0.0135
1430.0,0.02438
1431.0,0.02713
1432.0,0.000825
1433.0,0.01678
1434.0,0.008299
1435.0,0.007501
1436.0,0.01569
1437.0,0.01206
1438.0,0.004758
1439.0,0.02187
