interpolation:linear
wavelength,value
280.0,1.3480000000000002e-20
280.5,4e-19
281.0,2.074e-18
281.5,4.29e-19
282.0,1.543e-18
282.5,4.19e-18
283.0,1.369e-17
283.5,2.247e-17
284.0,3.57e-16
284.5,1.015e-15
285.0,1.895e-15
285.5,1.034e-14
286.0,4.251e-14
286.5,1.938e-13
287.0,5.566e-13
287.5,2.125e-12
288.0,5.754e-12
288.5,2.133e-11
289.0,6.669e-11
289.5,2.315e-10
290.0,7.091e-10
290.5,1.56e-09
291.0,3.643e-09
291.5,1.155e-08
292.0,2.989e-08
292.5,4.741e-08
293.0,1.193e-07
293.5,3.644e-07
294.0,6.758e-07
294.5,9.038e-07
295.0,1.814e-06
295.5,4.845e-06
296.0,9.521e-06
296.5,1.356e-05
297.0,1.864e-05
297.5,5.112e-05
298.0,8.212e-05
298.5,8.389e-05
299.0,0.0001878
299.5,0.0003198
300.0,0.0003573
300.5,0.0005265
301.0,0.0009813
301.5,0.001615
302.0,0.001408
302.5,0.002707
303.0,0.004756
303.5,0.005901
304.0,0.005483
304.5,0.007944
305.0,0.01155
305.5,0.01288
306.0,0.01234
306.5,0.0151
307.0,0.02157
307.5,0.02765
308.0,0.02904
308.5,0.03368
309.0,0.03278
309.5,0.03658
310.0,0.03632
310.5,0.05849
311.0,0.0727
311.5,0.06989
312.0,0.0684
312.5,0.08204
313.0,0.08832
313.5,0.08637
314.0,0.1061
314.5,0.09194
315.0,0.1203
315.5,0.1018
316.0,0.08723
316.5,0.1232
317.0,0.153
317.5,0.16
318.0,0.1234
318.5,0.1499
319.0,0.176
319.5,0.146
320.0,0.1769
320.5,0.2165
321.0,0.1889
321.5,0.1808
322.0,0.1969
322.5,0.1711
323.0,0.168
323.5,0.2037
324.0,0.2373
324.5,0.2423
325.0,0.2109
325.5,0.2681
326.0,0.3267
326.5,0.3247
327.0,0.3245
327.5,0.3146
328.0,0.283
328.5,0.2938
329.0,0.3483
329.5,0.3941
330.0,0.3986
330.5,0.3215
331.0,0.3284
331.5,0.3319
332.0,0.3556
332.5,0.3504
333.0,0.3501
333.5,0.3189
334.0,0.327
334.5,0.3747
335.0,0.3507
335.5,0.4096
336.0,0.2834
336.5,0.3326
337.0,0.2737
337.5,0.3408
338.0,0.3308
338.5,0.3818
339.0,0.3778
339.5,0.3635
340.0,0.4272
340.5,0.3849
341.0,0.3754
341.5,0.3446
342.0,0.4119
342.5,0.3853
343.0,0.4238
343.5,0.3992
344.0,0.295
344.5,0.298
345.0,0.3943
345.5,0.4025
346.0,0.3421
346.5,0.3873
347.0,0.4159
347.5,0.3363
348.0,0.3833
348.5,0.3831
349.0,0.3554
349.5,0.3519
350.0,0.4353
350.5,0.4592
351.0,0.4103
351.5,0.3988
352.0,0.4283
352.5,0.3342
353.0,0.421
353.5,0.4502
354.0,0.4673
354.5,0.474
355.0,0.4724
355.5,0.4268
356.0,0.4466
356.5,0.3813
357.0,0.3151
357.5,0.3858
358.0,0.3058
358.5,0.2613
359.0,0.3655
359.5,0.4659
360.0,0.4939
360.5,0.3948
361.0,0.3599
361.5,0.4144
362.0,0.3584
362.5,0.496
363.0,0.4455
363.5,0.4104
364.0,0.5019
364.5,0.4291
365.0,0.437
365.5,0.5486
366.0,0.5812
366.5,0.5462
367.0,0.5319
367.5,0.5521
368.0,0.4831
368.5,0.4876
369.0,0.5266
369.5,0.5613
370.0,0.5984
370.5,0.4645
371.0,0.4964
371.5,0.6211
372.0,0.4122
372.5,0.4943
373.0,0.5029
373.5,0.3272
374.0,0.4755
374.5,0.3938
375.0,0.3829
375.5,0.5717
376.0,0.474
376.5,0.4912
377.0,0.5201
377.5,0.6086
378.0,0.6597
378.5,0.6236
379.0,0.5147
379.5,0.4702
380.0,0.4889
380.5,0.5922
381.0,0.5935
381.5,0.4705
382.0,0.4179
382.5,0.3563
383.0,0.3299
383.5,0.3178
384.0,0.3506
384.5,0.5157
385.0,0.5114
385.5,0.4763
386.0,0.408
386.5,0.536
387.0,0.4454
387.5,0.5004
388.0,0.462
388.5,0.4568
389.0,0.4931
389.5,0.5973
390.0,0.5995
390.5,0.5518
391.0,0.6496
391.5,0.6626
392.0,0.5581
392.5,0.4997
393.0,0.2781
393.5,0.2022
394.0,0.4114
394.5,0.5231
395.0,0.6384
395.5,0.6486
396.0,0.5624
396.5,0.3288
397.0,0.2468
397.5,0.5019
398.0,0.7029
398.5,0.7266
399.0,0.7868
399.5,0.7843
400.0,0.8145
401.0,0.8269
402.0,0.8725
403.0,0.829
404.0,0.8163
405.0,0.8163
406.0,0.8031
407.0,0.7902
408.0,0.8212
409.0,0.879
410.0,0.7682
411.0,0.8321
412.0,0.8938
413.0,0.8718
414.0,0.8825
415.0,0.8849
416.0,0.9004
417.0,0.8784
418.0,0.8622
419.0,0.8736
420.0,0.8699
421.0,0.9101
422.0,0.8651
423.0,0.8451
424.0,0.8939
425.0,0.8923
426.0,0.8692
427.0,0.853
428.0,0.831
429.0,0.7871
430.0,0.6889
431.0,0.6829
432.0,0.8817
433.0,0.8866
434.0,0.8233
435.0,0.8599
436.0,0.9688
437.0,0.9558
438.0,0.8704
439.0,0.9004
440.0,0.929
441.0,0.9626
442.0,1.032
443.0,1.006
444.0,1.028
445.0,1.005
446.0,0.9594
447.0,1.037
448.0,1.053
449.0,1.057
450.0,1.087
451.0,1.127
452.0,1.086
453.0,1.022
454.0,1.066
455.0,1.073
456.0,1.098
457.0,1.117
458.0,1.079
459.0,1.073
460.0,1.076
461.0,1.101
462.0,1.109
463.0,1.102
464.0,1.083
465.0,1.07
466.0,1.08
467.0,1.06
468.0,1.073
469.0,1.078
470.0,1.044
471.0,1.043
472.0,1.099
473.0,1.084
474.0,1.086
475.0,1.096
476.0,1.063
477.0,1.066
478.0,1.096
479.0,1.089
480.0,1.091
481.0,1.111
482.0,1.117
483.0,1.103
484.0,1.08
485.0,1.029
486.0,0.8995
487.0,0.9426
488.0,1.034
489.0,1.037
490.0,1.091
491.0,1.072
492.0,1.013
493.0,1.046
494.0,1.056
495.0,1.065
496.0,1.072
497.0,1.089
498.0,1.038
499.0,1.051
500.0,1.02
501.0,1.002
502.0,0.988
503.0,1.029
504.0,1.003
505.0,1.038
506.0,1.072
507.0,1.02
508.0,0.9881
509.0,1.016
510.0,1.01
511.0,1.037
512.0,1.048
513.0,0.9921
514.0,0.9852
515.0,0.9754
516.0,0.973
517.0,0.8646
518.0,0.909
519.0,0.9534
520.0,0.9881
521.0,0.9975
522.0,0.9985
523.0,0.9805
524.0,1.016
525.0,1.028
526.0,0.982
527.0,0.9255
528.0,0.9789
529.0,1.032
530.0,1.017
531.0,1.032
532.0,0.9969
533.0,0.9677
534.0,0.9963
535.0,1.018
536.0,1.027
537.0,0.9866
538.0,1.004
539.0,0.9955
540.0,0.9545
541.0,0.9611
542.0,0.9913
543.0,0.9806
544.0,0.9978
545.0,0.9947
546.0,0.9992
547.0,0.9986
548.0,0.9866
549.0,0.9896
550.0,1.001
551.0,0.9891
552.0,0.996
553.0,0.9782
554.0,1.002
555.0,1.004
556.0,0.9907
557.0,0.9599
558.0,0.9528
559.0,0.9351
560.0,0.9469
561.0,0.9592
562.0,0.9524
563.0,0.9786
564.0,0.952
565.0,0.9439
566.0,0.9302
567.0,0.9479
568.0,0.9398
569.0,0.9181
570.0,0.9178
571.0,0.9121
572.0,0.9344
573.0,0.9445
574.0,0.9416
575.0,0.9241
576.0,0.9157
577.0,0.9256
578.0,0.9115
579.0,0.9148
580.0,0.9318
581.0,0.9362
582.0,0.9536
583.0,0.9557
584.0,0.9638
585.0,0.9402
586.0,0.9209
587.0,0.9412
588.0,0.9192
589.0,0.816
590.0,0.8532
591.0,0.9019
592.0,0.891
593.0,0.9035
594.0,0.8976
595.0,0.876
596.0,0.9092
597.0,0.8997
598.0,0.897
599.0,0.8976
600.0,0.8986
601.0,0.891
602.0,0.8849
603.0,0.8994
604.0,0.9142
605.0,0.9095
606.0,0.9056
607.0,0.9144
608.0,0.9042
609.0,0.9056
610.0,0.899
611.0,0.9036
612.0,0.9009
613.0,0.8895
614.0,0.8773
615.0,0.8962
616.0,0.8666
617.0,0.8648
618.0,0.898
619.0,0.8889
620.0,0.8945
621.0,0.8955
622.0,0.8851
623.0,0.8718
624.0,0.8567
625.0,0.8548
626.0,0.8675
627.0,0.8774
628.0,0.8228
629.0,0.8578
630.0,0.8382
631.0,0.856
632.0,0.8455
633.0,0.8708
634.0,0.8619
635.0,0.8752
636.0,0.8634
637.0,0.8774
638.0,0.8856
639.0,0.8755
640.0,0.8668
641.0,0.8662
642.0,0.8621
643.0,0.8737
644.0,0.8708
645.0,0.8722
646.0,0.8523
647.0,0.8431
648.0,0.8439
649.0,0.8277
650.0,0.8305
651.0,0.8663
652.0,0.8315
653.0,0.8547
654.0,0.8451
655.0,0.8143
656.0,0.7212
657.0,0.7406
658.0,0.8296
659.0,0.8354
660.0,0.8388
661.0,0.8447
662.0,0.8466
663.0,0.8298
664.0,0.8393
665.0,0.8397
666.0,0.8403
667.0,0.8393
668.0,0.8396
669.0,0.8525
670.0,0.8488
671.0,0.8485
672.0,0.8412
673.0,0.8538
674.0,0.8506
675.0,0.8428
676.0,0.8485
677.0,0.8401
678.0,0.8424
679.0,0.8288
680.0,0.8354
681.0,0.8299
682.0,0.8288
683.0,0.8272
684.0,0.8231
685.0,0.8301
686.0,0.8252
687.0,0.5622
688.0,0.652
689.0,0.6542
690.0,0.6838
691.0,0.7171
692.0,0.7412
693.0,0.7353
694.0,0.7292
695.0,0.7576
696.0,0.7587
697.0,0.803
698.0,0.7905
699.0,0.773
700.0,0.7637
701.0,0.7564
702.0,0.7611
703.0,0.7625
704.0,0.7861
705.0,0.7872
706.0,0.7862
707.0,0.7867
708.0,0.7884
709.0,0.789
710.0,0.7892
711.0,0.788
712.0,0.7854
713.0,0.7777
714.0,0.7806
715.0,0.7565
716.0,0.757
717.0,0.6618
718.0,0.6087
719.0,0.5581
720.0,0.585
721.0,0.6426
722.0,0.7317
723.0,0.683
724.0,0.6174
725.0,0.6082
726.0,0.6363
727.0,0.6442
728.0,0.6069
729.0,0.6278
730.0,0.6643
731.0,0.6361
732.0,0.6785
733.0,0.7163
734.0,0.7328
735.0,0.7179
736.0,0.717
737.0,0.7199
738.0,0.7297
739.0,0.7153
740.0,0.7336
741.0,0.7261
742.0,0.7265
743.0,0.7449
744.0,0.7427
745.0,0.7427
746.0,0.7461
747.0,0.7477
748.0,0.7461
749.0,0.7376
750.0,0.7372
751.0,0.7297
752.0,0.7328
753.0,0.7365
754.0,0.7382
755.0,0.734
756.0,0.7336
757.0,0.7347
758.0,0.7256
759.0,0.7116
760.0,0.1311
761.0,0.07119
762.0,0.3774
763.0,0.1958
764.0,0.288
765.0,0.3775
766.0,0.4574
767.0,0.571
768.0,0.6541
769.0,0.6667
770.0,0.6882
771.0,0.6932
772.0,0.6945
773.0,0.6993
774.0,0.6959
775.0,0.6906
776.0,0.699
777.0,0.6897
778.0,0.6856
779.0,0.6861
780.0,0.6823
781.0,0.683
782.0,0.6872
783.0,0.6752
784.0,0.6785
785.0,0.6735
786.0,0.6809
787.0,0.6696
788.0,0.6615
789.0,0.6613
790.0,0.6445
791.0,0.6493
792.0,0.6444
793.0,0.6341
794.0,0.6441
795.0,0.6552
796.0,0.6361
797.0,0.637
798.0,0.6545
799.0,0.6506
800.0,0.6395
801.0,0.6378
802.0,0.6359
803.0,0.6312
804.0,0.6319
805.0,0.6297
806.0,0.6469
807.0,0.6392
808.0,0.6397
809.0,0.628
810.0,0.6232
811.0,0.6245
812.0,0.6073
813.0,0.5951
814.0,0.5259
815.0,0.5226
816.0,0.4867
817.0,0.4953
818.0,0.4773
819.0,0.5316
820.0,0.5014
821.0,0.5834
822.0,0.5671
823.0,0.39
824.0,0.5516
825.0,0.5733
826.0,0.5524
827.0,0.5821
828.0,0.496
829.0,0.5489
830.0,0.542
831.0,0.5438
832.0,0.5275
833.0,0.56
834.0,0.541
835.0,0.5926
836.0,0.5683
837.0,0.5942
838.0,0.5762
839.0,0.5852
840.0,0.5979
841.0,0.5896
842.0,0.5905
843.0,0.5899
844.0,0.5819
845.0,0.6013
846.0,0.5986
847.0,0.5874
848.0,0.5839
849.0,0.5673
850.0,0.5435
851.0,0.5755
852.0,0.5714
853.0,0.5499
854.0,0.4749
855.0,0.5217
856.0,0.5701
857.0,0.5828
858.0,0.5785
859.0,0.579
860.0,0.58
861.0,0.5768
862.0,0.5858
863.0,0.5997
864.0,0.5697
865.0,0.5647
866.0,0.5078
867.0,0.5299
868.0,0.5766
869.0,0.5646
870.0,0.5807
871.0,0.5728
872.0,0.5708
873.0,0.5697
874.0,0.5629
875.0,0.5515
876.0,0.5572
877.0,0.5628
878.0,0.569
879.0,0.5602
880.0,0.5482
881.0,0.54
882.0,0.5517
883.0,0.5534
884.0,0.5509
885.0,0.555
886.0,0.5292
887.0,0.5346
888.0,0.5426
889.0,0.5487
890.0,0.5442
891.0,0.5432
892.0,0.5277
893.0,0.5114
894.0,0.4939
895.0,0.4673
896.0,0.4404
897.0,0.3791
898.0,0.4132
899.0,0.3152
900.0,0.4226
901.0,0.3304
902.0,0.3865
903.0,0.3907
904.0,0.4902
905.0,0.4736
906.0,0.4434
907.0,0.3613
908.0,0.3683
909.0,0.3985
910.0,0.3533
911.0,0.376
912.0,0.3929
913.0,0.3586
914.0,0.3554
915.0,0.3852
916.0,0.3263
917.0,0.4132
918.0,0.3345
919.0,0.4204
920.0,0.4243
921.0,0.4412
922.0,0.395
923.0,0.4262
924.0,0.4049
925.0,0.3961
926.0,0.4004
927.0,0.4478
928.0,0.3299
929.0,0.3015
930.0,0.2373
931.0,0.2248
932.0,0.1622
933.0,0.132
934.0,0.07268
935.0,0.1349
936.0,0.08444
937.0,0.0856
938.0,0.1052
939.0,0.2178
940.0,0.2618
941.0,0.1978
942.0,0.2289
943.0,0.1507
944.0,0.1586
945.0,0.2039
946.0,0.104
947.0,0.2049
948.0,0.1505
949.0,0.2741
950.0,0.07638
951.0,0.2699
952.0,0.1452
953.0,0.1874
954.0,0.2297
955.0,0.1895
956.0,0.1839
957.0,0.1454
958.0,0.2605
959.0,0.207
960.0,0.2321
961.0,0.2604
962.0,0.2463
963.0,0.2839
964.0,0.2601
965.0,0.2829
966.0,0.2829
967.0,0.2817
968.0,0.3775
969.0,0.3943
970.0,0.3622
971.0,0.4145
972.0,0.3965
973.0,0.3453
974.0,0.3277
975.0,0.3402
976.0,0.3231
977.0,0.3675
978.0,0.3492
979.0,0.3657
980.0,0.3439
981.0,0.4121
982.0,0.394
983.0,0.3783
984.0,0.4245
985.0,0.3925
986.0,0.432
987.0,0.4236
988.0,0.4228
989.0,0.4306
990.0,0.4202
991.0,0.4319
992.0,0.4344
993.0,0.4248
994.0,0.4343
995.0,0.4338
996.0,0.4318
997.0,0.4325
998.0,0.4304
999.0,0.4289
1000.0,0.4258
1001.0,0.4312
1002.0,0.4193
1003.0,0.4235
1004.0,0.4132
1005.0,0.398
1006.0,0.4136
1007.0,0.4224
1008.0,0.4201
1009.0,0.4178
1010.0,0.416
1011.0,0.4202
1012.0,0.4166
1013.0,0.4192
1014.0,0.4163
1015.0,0.4135
1016.0,0.4116
1017.0,0.4127
1018.0,0.4111
1019.0,0.4024
1020.0,0.409
1021.0,0.4084
1022.0,0.4052
1023.0,0.4095
1024.0,0.4042
1025.0,0.4093
1026.0,0.4075
1027.0,0.4066
1028.0,0.4057
1029.0,0.4009
1030.0,0.4037
1031.0,0.402
1032.0,0.4009
1033.0,0.3948
1034.0,0.3949
1035.0,0.3961
1036.0,0.3981
1037.0,0.3917
1038.0,0.3934
1039.0,0.3932
1040.0,0.3916
1041.0,0.3931
1042.0,0.3904
1043.0,0.3892
1044.0,0.3905
1045.0,0.3852
1046.0,0.381
1047.0,0.3844
1048.0,0.3865
1049.0,0.3851
1050.0,0.3833
1051.0,0.3828
1052.0,0.3812
1053.0,0.3782
1054.0,0.379
1055.0,0.3792
1056.0,0.3779
1057.0,0.3767
1058.0,0.3675
1059.0,0.3679
1060.0,0.3673
1061.0,0.3669
1062.0,0.3688
1063.0,0.3651
1064.0,0.3695
1065.0,0.3668
1066.0,0.3596
1067.0,0.3642
1068.0,0.3562
1069.0,0.3452
1070.0,0.357
1071.0,0.3625
1072.0,0.3583
1073.0,0.3532
1074.0,0.3623
1075.0,0.3441
1076.0,0.362
1077.0,0.3555
1078.0,0.3488
1079.0,0.3562
1080.0,0.35
1081.0,0.3388
1082.0,0.3443
1083.0,0.3453
1084.0,0.338
1085.0,0.3508
1086.0,0.3201
1087.0,0.3304
1088.0,0.345
1089.0,0.3344
1090.0,0.327
1091.0,0.3438
1092.0,0.343
1093.0,0.2907
1094.0,0.3138
1095.0,0.3029
1096.0,0.29
1097.0,0.335
1098.0,0.2855
1099.0,0.2978
1100.0,0.2768
1101.0,0.2803
1102.0,0.2677
1103.0,0.2651
1104.0,0.2654
1105.0,0.291
1106.0,0.2225
1107.0,0.2764
1108.0,0.2342
1109.0,0.2347
1110.0,0.2739
1111.0,0.1858
1112.0,0.2329
1113.0,0.1481
1114.0,0.1656
1115.0,0.1373
1116.0,0.1095
1117.0,0.04008
1118.0,0.1192
1119.0,0.05902
1120.0,0.07428
1121.0,0.09867
1122.0,0.0414
1123.0,0.06713
1124.0,0.05666
1125.0,0.07395
1126.0,0.02561
1127.0,0.08343
1128.0,0.04977
1129.0,0.05284
1130.0,0.0347
1131.0,0.1586
1132.0,0.1243
1133.0,0.0786
1134.0,0.01997
1135.0,0.007489
1136.0,0.0655
1137.0,0.1557
1138.0,0.1096
1139.0,0.1638
1140.0,0.1368
1141.0,0.1042
1142.0,0.1199
1143.0,0.1704
1144.0,0.05937
1145.0,0.07582
1146.0,0.08177
1147.0,0.02862
1148.0,0.1475
1149.0,0.1177
1150.0,0.06387
1151.0,0.1088
1152.0,0.134
1153.0,0.1307
1154.0,0.07345
1155.0,0.1709
1156.0,0.1539
1157.0,0.1727
1158.0,0.1708
1159.0,0.1843
1160.0,0.1575
1161.0,0.194
1162.0,0.195
1163.0,0.2629
1164.0,0.2257
1165.0,0.2131
1166.0,0.2115
1167.0,0.2302
1168.0,0.2328
1169.0,0.2383
1170.0,0.2588
1171.0,0.2523
1172.0,0.2568
1173.0,0.2582
1174.0,0.1851
1175.0,0.2521
1176.0,0.2768
1177.0,0.266
1178.0,0.2003
1179.0,0.279
1180.0,0.2495
1181.0,0.2574
1182.0,0.1783
1183.0,0.2534
1184.0,0.2377
1185.0,0.2296
1186.0,0.2714
1187.0,0.2588
1188.0,0.1814
1189.0,0.2411
1190.0,0.2652
1191.0,0.2523
1192.0,0.2689
1193.0,0.2578
1194.0,0.2656
1195.0,0.2516
1196.0,0.2425
1197.0,0.2656
1198.0,0.2432
1199.0,0.2077
1200.0,0.2546
1201.0,0.2459
1202.0,0.2443
1203.0,0.2422
1204.0,0.2123
1205.0,0.2497
1206.0,0.2754
1207.0,0.2437
1208.0,0.2396
1209.0,0.2445
1210.0,0.2545
1211.0,0.2427
1212.0,0.2402
1213.0,0.2665
1214.0,0.2458
1215.0,0.2412
1216.0,0.2656
1217.0,0.2588
1218.0,0.2635
1219.0,0.2603
1220.0,0.2637
1221.0,0.2662
1222.0,0.2594
1223.0,0.2571
1224.0,0.2556
1225.0,0.2646
1226.0,0.2662
1227.0,0.2461
1228.0,0.2674
1229.0,0.2662
1230.0,0.2618
1231.0,0.2689
1232.0,0.2673
1233.0,0.2586
1234.0,0.2686
1235.0,0.267
1236.0,0.2689
1237.0,0.2653
1238.0,0.268
1239.0,0.2645
1240.0,0.2655
1241.0,0.2643
1242.0,0.2637
1243.0,0.2615
1244.0,0.2634
1245.0,0.2645
1246.0,0.263
1247.0,0.262
1248.0,0.2619
1249.0,0.2626
1250.0,0.2611
1251.0,0.2578
1252.0,0.2578
1253.0,0.2558
1254.0,0.2534
1255.0,0.2575
1256.0,0.2506
1257.0,0.2492
1258.0,0.2537
1259.0,0.2449
1260.0,0.2461
1261.0,0.2328
1262.0,0.2261
1263.0,0.2265
1264.0,0.2097
1265.0,0.225
1266.0,0.2169
1267.0,0.2205
1268.0,0.2095
1269.0,0.1324
1270.0,0.2198
1271.0,0.232
1272.0,0.2327
1273.0,0.2302
1274.0,0.2309
1275.0,0.2342
1276.0,0.2363
1277.0,0.2378
1278.0,0.2422
1279.0,0.24
1280.0,0.2369
1281.0,0.226
1282.0,0.2176
1283.0,0.2344
1284.0,0.24
1285.0,0.2416
1286.0,0.2448
1287.0,0.2411
1288.0,0.241
1289.0,0.2337
1290.0,0.2389
1291.0,0.2422
1292.0,0.2281
1293.0,0.2376
1294.0,0.236
1295.0,0.235
1296.0,0.2247
1297.0,0.2128
1298.0,0.2285
1299.0,0.2378
1300.0,0.2023
1301.0,0.2083
1302.0,0.2278
1303.0,0.1995
1304.0,0.171
1305.0,0.2231
1306.0,0.2232
1307.0,0.1744
1308.0,0.1997
1309.0,0.2216
1310.0,0.1711
1311.0,0.1917
1312.0,0.1866
1313.0,0.1831
1314.0,0.1642
1315.0,0.1622
1316.0,0.1888
1317.0,0.1789
1318.0,0.1941
1319.0,0.1526
1320.0,0.1477
1321.0,0.1717
1322.0,0.1736
1323.0,0.1313
1324.0,0.1497
1325.0,0.1861
1326.0,0.1602
1327.0,0.1529
1328.0,0.132
1329.0,0.09965
1330.0,0.1295
1331.0,0.07866
1332.0,0.08107
1333.0,0.1127
1334.0,0.09523
1335.0,0.1308
1336.0,0.1037
1337.0,0.09181
1338.0,0.09935
1339.0,0.09885
1340.0,0.09602
1341.0,0.09404
1342.0,0.09876
1343.0,0.06738
1344.0,0.04032
1345.0,0.05812
1346.0,0.02917
1347.0,0.0297
1348.0,0.001986
1349.0,0.007078
1350.0,0.007308
1351.0,0.001827
1352.0,0.0005093
1353.0,2.694e-05
1354.0,9.073e-05
1355.0,7.886e-07
1356.0,1.32e-05
1357.0,2.009e-05
1358.0,9.313e-07
1359.0,1.243e-07
1360.0,4.35e-07
1361.0,5.487e-10
1362.0,1.583e-12
1363.0,5.998e-07
1364.0,2.492e-07
1365.0,5.944e-13
1366.0,2.584e-06
1367.0,1.048e-06
1368.0,5.251e-15
1369.0,9.345e-08
1370.0,4.724e-08
1371.0,2.764e-09
1372.0,5.765e-07
1373.0,1.122e-05
1374.0,5.086e-05
1375.0,9.261e-05
1376.0,8.154e-05
1377.0,3.757e-05
1378.0,0.0003641
1379.0,1.58e-05
1380.0,2.314e-05
1381.0,6.139e-07
1382.0,5.236e-07
1383.0,8.02e-09
1384.0,1.067e-07
1385.0,4.822e-07
1386.0,4.746e-07
1387.0,5.364e-05
1388.0,1.059e-06
1389.0,0.0001771
1390.0,0.0001525
1391.0,0.0001023
1392.0,6.706e-06
1393.0,3.513e-05
1394.0,1.892e-05
1395.0,1.433e-07
1396.0,7.783e-10
1397.0,1.414e-05
1398.0,0.0004103
1399.0,0.0002601
1400.0,3.472e-10
1401.0,1.385e-09
1402.0,0.0007015
1403.0,0.0008871
1404.0,0.0002711
1405.0,7.124e-08
1406.0,0.0007126
1407.0,6.248e-05
1408.0,0.0005819
1409.0,0.0001984
1410.0,0.0001573
1411.0,0.0007793
1412.0,0.001044
1413.0,0.0106
1414.0,0.0001239
1415.0,5.989e-05
1416.0,0.01736
1417.0,0.005236
1418.0,0.005962
1419.0,0.0009242
1420.0,0.003647
1421.0,0.003944
1422.0,0.02267
1423.0,0.004385
1424.0,0.00823
1425.0,0.0121
1426.0,0.01378
1427.0,0.02547
1428.0,0.00187
1429.0,0.01897
1430.0,0.03255
1431.0,0.03581
1432.0,0.001472
1433.0,0.02269
1434.0,0.01149
1435.0,0.01133
1436.0,0.02212
1437.0,0.01695
1438.0,0.007087
1439.0,0.0302
1440.0,0.02261
1441.0,0.01709
1442.0,0.01897
1443.0,0.02406
1444.0,0.03348
