interpolation:linear
wavelength,value
280.0,7.727999999999999e-22
280.5,1.65e-20
281.0,7.648e-20
281.5,1.673e-18
282.0,1.079e-17
282.5,3.585e-17
283.0,1.359e-16
283.5,2.359e-16
284.0,4.391e-15
284.5,1.302e-14
285.0,3.577e-14
285.5,2.37e-13
286.0,1.034e-12
286.5,5.229e-12
287.0,1.595e-11
287.5,6.494e-11
288.0,2.209e-10
288.5,8.13e-10
289.0,2.523e-09
289.5,8.676e-09
290.0,2.635e-08
290.5,5.754e-08
291.0,1.33e-07
291.5,4.175e-07
292.0,9.338e-07
292.5,1.341e-06
293.0,2.952e-06
293.5,7.429e-06
294.0,1.19e-05
294.5,2.319e-05
295.0,4.064e-05
295.5,8.406e-05
296.0,0.0001481
296.5,0.0001893
297.0,0.0002382
297.5,0.0005733
298.0,0.0008248
298.5,0.0007735
299.0,0.001593
299.5,0.002348
300.0,0.00242
300.5,0.003278
301.0,0.005327
301.5,0.007711
302.0,0.006283
302.5,0.01144
303.0,0.01879
303.5,0.02238
304.0,0.02028
304.5,0.02758
305.0,0.03682
305.5,0.03897
306.0,0.03659
306.5,0.04336
307.0,0.05777
307.5,0.06946
308.0,0.07217
308.5,0.08117
309.0,0.07652
309.5,0.08166
310.0,0.07939
310.5,0.1265
311.0,0.1545
311.5,0.1473
312.0,0.1389
312.5,0.1625
313.0,0.1726
313.5,0.1707
314.0,0.2036
314.5,0.1697
315.0,0.2204
315.5,0.1899
316.0,0.1577
316.5,0.2167
317.0,0.2692
317.5,0.2835
318.0,0.2147
318.5,0.2519
319.0,0.2905
319.5,0.2476
320.0,0.3011
320.5,0.3558
321.0,0.301
321.5,0.287
322.0,0.323
322.5,0.28
323.0,0.269
323.5,0.3193
324.0,0.3703
324.5,0.3814
325.0,0.3359
325.5,0.4197
326.0,0.5078
326.5,0.4987
327.0,0.5003
327.5,0.4874
328.0,0.445
328.5,0.4533
329.0,0.5296
329.5,0.5967
330.0,0.6052
330.5,0.4932
331.0,0.5055
331.5,0.5064
332.0,0.5361
332.5,0.5255
333.0,0.5265
333.5,0.4834
334.0,0.4962
334.5,0.5629
335.0,0.5237
335.5,0.6113
336.0,0.4228
336.5,0.4974
337.0,0.4107
337.5,0.5119
338.0,0.493
338.5,0.5685
339.0,0.5624
339.5,0.5407
340.0,0.6355
340.5,0.5719
341.0,0.5579
341.5,0.5119
342.0,0.6114
342.5,0.5717
343.0,0.6287
343.5,0.592
344.0,0.4371
344.5,0.4415
345.0,0.5839
345.5,0.5957
346.0,0.5059
346.5,0.5726
347.0,0.6146
347.5,0.4968
348.0,0.566
348.5,0.5655
349.0,0.5243
349.5,0.5189
350.0,0.6415
350.5,0.6765
351.0,0.6042
351.5,0.5873
352.0,0.6304
352.5,0.4917
353.0,0.6189
353.5,0.6615
354.0,0.6866
354.5,0.6962
355.0,0.6937
355.5,0.6264
356.0,0.6551
356.5,0.5593
357.0,0.4621
357.5,0.5656
358.0,0.4481
358.5,0.3829
359.0,0.5355
359.5,0.6824
360.0,0.7232
360.5,0.5779
361.0,0.5266
361.5,0.6059
362.0,0.5236
362.5,0.7242
363.0,0.6501
363.5,0.5985
364.0,0.7317
364.5,0.6253
365.0,0.6367
365.5,0.7988
366.0,0.846
366.5,0.7946
367.0,0.7736
367.5,0.8027
368.0,0.7022
368.5,0.7084
369.0,0.7648
369.5,0.815
370.0,0.8685
370.5,0.6739
371.0,0.7198
371.5,0.9004
372.0,0.5975
372.5,0.7163
373.0,0.7284
373.5,0.4738
374.0,0.6883
374.5,0.5698
375.0,0.5538
375.5,0.8268
376.0,0.6853
376.5,0.7101
377.0,0.7516
377.5,0.8791
378.0,0.9529
378.5,0.9006
379.0,0.7432
379.5,0.6789
380.0,0.7057
380.5,0.8545
381.0,0.856
381.5,0.6783
382.0,0.6022
382.5,0.5131
383.0,0.4749
383.5,0.4573
384.0,0.5044
384.5,0.7417
385.0,0.7353
385.5,0.6846
386.0,0.5862
386.5,0.7698
387.0,0.6396
387.5,0.7183
388.0,0.6631
388.5,0.6553
389.0,0.7073
389.5,0.8565
390.0,0.8594
390.5,0.7908
391.0,0.9306
391.5,0.9491
392.0,0.7993
392.5,0.7154
393.0,0.398
393.5,0.2892
394.0,0.5884
394.5,0.748
395.0,0.9126
395.5,0.927
396.0,0.8036
396.5,0.4696
397.0,0.3523
397.5,0.7165
398.0,1.003
398.5,1.037
399.0,1.122
399.5,1.119
400.0,1.162
401.0,1.182
402.0,1.246
403.0,1.183
404.0,1.165
405.0,1.164
406.0,1.145
407.0,1.126
408.0,1.17
409.0,1.251
410.0,1.093
411.0,1.183
412.0,1.27
413.0,1.239
414.0,1.253
415.0,1.256
416.0,1.277
417.0,1.245
418.0,1.222
419.0,1.238
420.0,1.232
421.0,1.288
422.0,1.224
423.0,1.196
424.0,1.264
425.0,1.261
426.0,1.228
427.0,1.205
428.0,1.173
429.0,1.111
430.0,0.9715
431.0,0.963
432.0,1.243
433.0,1.249
434.0,1.16
435.0,1.211
436.0,1.364
437.0,1.345
438.0,1.224
439.0,1.267
440.0,1.306
441.0,1.353
442.0,1.451
443.0,1.413
444.0,1.443
445.0,1.412
446.0,1.346
447.0,1.455
448.0,1.478
449.0,1.482
450.0,1.523
451.0,1.579
452.0,1.521
453.0,1.43
454.0,1.492
455.0,1.501
456.0,1.537
457.0,1.562
458.0,1.509
459.0,1.501
460.0,1.505
461.0,1.54
462.0,1.551
463.0,1.54
464.0,1.514
465.0,1.493
466.0,1.507
467.0,1.48
468.0,1.497
469.0,1.505
470.0,1.457
471.0,1.455
472.0,1.533
473.0,1.513
474.0,1.516
475.0,1.53
476.0,1.485
477.0,1.49
478.0,1.531
479.0,1.521
480.0,1.523
481.0,1.55
482.0,1.557
483.0,1.537
484.0,1.505
485.0,1.433
486.0,1.252
487.0,1.312
488.0,1.439
489.0,1.444
490.0,1.518
491.0,1.492
492.0,1.408
493.0,1.454
494.0,1.469
495.0,1.481
496.0,1.49
497.0,1.513
498.0,1.442
499.0,1.461
500.0,1.419
501.0,1.394
502.0,1.376
503.0,1.433
504.0,1.401
505.0,1.448
506.0,1.495
507.0,1.422
508.0,1.376
509.0,1.414
510.0,1.405
511.0,1.442
512.0,1.457
513.0,1.379
514.0,1.369
515.0,1.356
516.0,1.352
517.0,1.201
518.0,1.263
519.0,1.325
520.0,1.373
521.0,1.386
522.0,1.388
523.0,1.363
524.0,1.413
525.0,1.43
526.0,1.367
527.0,1.289
528.0,1.364
529.0,1.438
530.0,1.418
531.0,1.439
532.0,1.39
533.0,1.349
534.0,1.389
535.0,1.418
536.0,1.431
537.0,1.374
538.0,1.398
539.0,1.386
540.0,1.329
541.0,1.339
542.0,1.382
543.0,1.366
544.0,1.391
545.0,1.387
546.0,1.394
547.0,1.392
548.0,1.375
549.0,1.379
550.0,1.395
551.0,1.378
552.0,1.388
553.0,1.363
554.0,1.396
555.0,1.399
556.0,1.381
557.0,1.338
558.0,1.329
559.0,1.305
560.0,1.321
561.0,1.339
562.0,1.33
563.0,1.367
564.0,1.331
565.0,1.32
566.0,1.301
567.0,1.327
568.0,1.317
569.0,1.29
570.0,1.289
571.0,1.28
572.0,1.314
573.0,1.328
574.0,1.325
575.0,1.301
576.0,1.289
577.0,1.303
578.0,1.282
579.0,1.285
580.0,1.306
581.0,1.311
582.0,1.334
583.0,1.335
584.0,1.346
585.0,1.312
586.0,1.285
587.0,1.315
588.0,1.288
589.0,1.152
590.0,1.204
591.0,1.267
592.0,1.255
593.0,1.269
594.0,1.262
595.0,1.235
596.0,1.275
597.0,1.263
598.0,1.257
599.0,1.257
600.0,1.257
601.0,1.245
602.0,1.236
603.0,1.256
604.0,1.276
605.0,1.269
606.0,1.263
607.0,1.275
608.0,1.26
609.0,1.261
610.0,1.251
611.0,1.257
612.0,1.253
613.0,1.237
614.0,1.219
615.0,1.245
616.0,1.204
617.0,1.201
618.0,1.247
619.0,1.234
620.0,1.242
621.0,1.243
622.0,1.23
623.0,1.212
624.0,1.19
625.0,1.187
626.0,1.205
627.0,1.221
628.0,1.162
629.0,1.199
630.0,1.173
631.0,1.191
632.0,1.176
633.0,1.208
634.0,1.194
635.0,1.212
636.0,1.194
637.0,1.213
638.0,1.223
639.0,1.208
640.0,1.195
641.0,1.194
642.0,1.188
643.0,1.204
644.0,1.199
645.0,1.201
646.0,1.176
647.0,1.168
648.0,1.17
649.0,1.148
650.0,1.145
651.0,1.193
652.0,1.153
653.0,1.177
654.0,1.163
655.0,1.124
656.0,0.9935
657.0,1.02
658.0,1.141
659.0,1.148
660.0,1.152
661.0,1.16
662.0,1.164
663.0,1.14
664.0,1.151
665.0,1.151
666.0,1.151
667.0,1.149
668.0,1.149
669.0,1.166
670.0,1.161
671.0,1.16
672.0,1.15
673.0,1.167
674.0,1.162
675.0,1.151
676.0,1.159
677.0,1.147
678.0,1.15
679.0,1.131
680.0,1.14
681.0,1.132
682.0,1.131
683.0,1.129
684.0,1.123
685.0,1.132
686.0,1.126
687.0,0.8471
688.0,0.9439
689.0,0.9457
690.0,0.9759
691.0,1.009
692.0,1.032
693.0,1.025
694.0,1.017
695.0,1.048
696.0,1.049
697.0,1.098
698.0,1.081
699.0,1.065
700.0,1.053
701.0,1.045
702.0,1.048
703.0,1.05
704.0,1.078
705.0,1.08
706.0,1.076
707.0,1.076
708.0,1.079
709.0,1.077
710.0,1.079
711.0,1.076
712.0,1.071
713.0,1.062
714.0,1.065
715.0,1.035
716.0,1.037
717.0,0.9361
718.0,0.867
719.0,0.7986
720.0,0.8388
721.0,0.9025
722.0,1.007
723.0,0.951
724.0,0.8719
725.0,0.8632
726.0,0.9001
727.0,0.9048
728.0,0.8624
729.0,0.8813
730.0,0.9315
731.0,0.8959
732.0,0.9442
733.0,0.9859
734.0,1.006
735.0,0.9868
736.0,0.9852
737.0,0.9896
738.0,0.9962
739.0,0.9769
740.0,0.9995
741.0,0.988
742.0,0.9874
743.0,1.012
744.0,1.008
745.0,1.008
746.0,1.012
747.0,1.014
748.0,1.012
749.0,1.0
750.0,0.9998
751.0,0.9897
752.0,0.9938
753.0,0.9987
754.0,1.001
755.0,0.9954
756.0,0.9948
757.0,0.9963
758.0,0.9841
759.0,0.9691
760.0,0.2742
761.0,0.1738
762.0,0.6002
763.0,0.3696
764.0,0.4922
765.0,0.6007
766.0,0.686
767.0,0.8165
768.0,0.9047
769.0,0.9154
770.0,0.9373
771.0,0.9409
772.0,0.9416
773.0,0.9478
774.0,0.943
775.0,0.9356
776.0,0.9469
777.0,0.9344
778.0,0.9287
779.0,0.9295
780.0,0.9242
781.0,0.9251
782.0,0.9308
783.0,0.9145
784.0,0.9187
785.0,0.9123
786.0,0.9226
787.0,0.9103
788.0,0.9008
789.0,0.901
790.0,0.8827
791.0,0.8849
792.0,0.8777
793.0,0.8641
794.0,0.8729
795.0,0.8892
796.0,0.8696
797.0,0.8708
798.0,0.8889
799.0,0.8847
800.0,0.8713
801.0,0.8701
802.0,0.8675
803.0,0.8618
804.0,0.8621
805.0,0.8573
806.0,0.8778
807.0,0.868
808.0,0.8684
809.0,0.8548
810.0,0.8498
811.0,0.8544
812.0,0.8354
813.0,0.8217
814.0,0.7417
815.0,0.7367
816.0,0.6887
817.0,0.6987
818.0,0.6768
819.0,0.7399
820.0,0.7035
821.0,0.7998
822.0,0.7807
823.0,0.5677
824.0,0.7655
825.0,0.7872
826.0,0.764
827.0,0.799
828.0,0.6977
829.0,0.758
830.0,0.7503
831.0,0.7521
832.0,0.7328
833.0,0.7688
834.0,0.7484
835.0,0.8078
836.0,0.7821
837.0,0.8095
838.0,0.7881
839.0,0.7965
840.0,0.8129
841.0,0.803
842.0,0.8022
843.0,0.7991
844.0,0.7895
845.0,0.8141
846.0,0.8101
847.0,0.7943
848.0,0.7905
849.0,0.7681
850.0,0.7357
851.0,0.7802
852.0,0.7741
853.0,0.7442
854.0,0.6434
855.0,0.7057
856.0,0.7716
857.0,0.7881
858.0,0.7826
859.0,0.7828
860.0,0.7838
861.0,0.7797
862.0,0.7917
863.0,0.8104
864.0,0.7699
865.0,0.763
866.0,0.6861
867.0,0.7159
868.0,0.779
869.0,0.7628
870.0,0.7845
871.0,0.7739
872.0,0.7711
873.0,0.7695
874.0,0.7604
875.0,0.745
876.0,0.7528
877.0,0.7603
878.0,0.7688
879.0,0.7569
880.0,0.7407
881.0,0.7301
882.0,0.7461
883.0,0.7479
884.0,0.7447
885.0,0.7503
886.0,0.7171
887.0,0.7232
888.0,0.7349
889.0,0.7414
890.0,0.7373
891.0,0.735
892.0,0.7164
893.0,0.6975
894.0,0.6793
895.0,0.6502
896.0,0.6167
897.0,0.5415
898.0,0.5839
899.0,0.4589
900.0,0.5909
901.0,0.4802
902.0,0.5443
903.0,0.5557
904.0,0.6742
905.0,0.6548
906.0,0.6159
907.0,0.5177
908.0,0.5257
909.0,0.5609
910.0,0.511
911.0,0.5358
912.0,0.5564
913.0,0.5193
914.0,0.5123
915.0,0.5534
916.0,0.4736
917.0,0.5838
918.0,0.4859
919.0,0.5908
920.0,0.5896
921.0,0.6111
922.0,0.557
923.0,0.5898
924.0,0.5713
925.0,0.5593
926.0,0.5652
927.0,0.6225
928.0,0.4861
929.0,0.4518
930.0,0.3683
931.0,0.3465
932.0,0.2629
933.0,0.2214
934.0,0.1378
935.0,0.2201
936.0,0.1476
937.0,0.1512
938.0,0.1817
939.0,0.3358
940.0,0.3948
941.0,0.3106
942.0,0.3512
943.0,0.2412
944.0,0.2452
945.0,0.3181
946.0,0.1757
947.0,0.323
948.0,0.2398
949.0,0.4185
950.0,0.1387
951.0,0.4097
952.0,0.2387
953.0,0.2961
954.0,0.3497
955.0,0.2979
956.0,0.2838
957.0,0.2409
958.0,0.3827
959.0,0.318
960.0,0.3558
961.0,0.3888
962.0,0.3695
963.0,0.4166
964.0,0.3849
965.0,0.4138
966.0,0.4163
967.0,0.4153
968.0,0.5258
969.0,0.551
970.0,0.5107
971.0,0.571
972.0,0.5488
973.0,0.4913
974.0,0.4686
975.0,0.4809
976.0,0.4637
977.0,0.5138
978.0,0.4939
979.0,0.5128
980.0,0.4851
981.0,0.5671
982.0,0.547
983.0,0.5281
984.0,0.579
985.0,0.5448
986.0,0.586
987.0,0.5779
988.0,0.5768
989.0,0.5823
990.0,0.573
991.0,0.5844
992.0,0.5875
993.0,0.5777
994.0,0.5869
995.0,0.5857
996.0,0.5836
997.0,0.5842
998.0,0.5817
999.0,0.5794
1000.0,0.5761
1001.0,0.5824
1002.0,0.5696
1003.0,0.5723
1004.0,0.5592
1005.0,0.5375
1006.0,0.5591
1007.0,0.5707
1008.0,0.5682
1009.0,0.5658
1010.0,0.5637
1011.0,0.5677
1012.0,0.5634
1013.0,0.5661
1014.0,0.5622
1015.0,0.5585
1016.0,0.5561
1017.0,0.5576
1018.0,0.5551
1019.0,0.5445
1020.0,0.5524
1021.0,0.5514
1022.0,0.5476
1023.0,0.5535
1024.0,0.5476
1025.0,0.5527
1026.0,0.5506
1027.0,0.5493
1028.0,0.5482
1029.0,0.5419
1030.0,0.5451
1031.0,0.5431
1032.0,0.5414
1033.0,0.5333
1034.0,0.5333
1035.0,0.5349
1036.0,0.5378
1037.0,0.5291
1038.0,0.5314
1039.0,0.5312
1040.0,0.5291
1041.0,0.5313
1042.0,0.5276
1043.0,0.526
1044.0,0.5279
1045.0,0.5208
1046.0,0.5152
1047.0,0.5199
1048.0,0.5228
1049.0,0.521
1050.0,0.5187
1051.0,0.5181
1052.0,0.5161
1053.0,0.5122
1054.0,0.5135
1055.0,0.5139
1056.0,0.5123
1057.0,0.5109
1058.0,0.4985
1059.0,0.4992
1060.0,0.4986
1061.0,0.4981
1062.0,0.5009
1063.0,0.4961
1064.0,0.5019
1065.0,0.4988
1066.0,0.4885
1067.0,0.495
1068.0,0.4845
1069.0,0.4693
1070.0,0.4856
1071.0,0.492
1072.0,0.4872
1073.0,0.48
1074.0,0.4911
1075.0,0.47
1076.0,0.4909
1077.0,0.4841
1078.0,0.4757
1079.0,0.4825
1080.0,0.4767
1081.0,0.463
1082.0,0.4675
1083.0,0.4683
1084.0,0.4629
1085.0,0.4774
1086.0,0.4414
1087.0,0.4512
1088.0,0.4684
1089.0,0.4573
1090.0,0.4496
1091.0,0.4678
1092.0,0.4658
1093.0,0.4053
1094.0,0.4275
1095.0,0.4206
1096.0,0.4059
1097.0,0.4549
1098.0,0.4005
1099.0,0.4161
1100.0,0.3917
1101.0,0.3951
1102.0,0.3802
1103.0,0.3786
1104.0,0.3788
1105.0,0.4076
1106.0,0.3298
1107.0,0.3906
1108.0,0.3421
1109.0,0.3406
1110.0,0.3885
1111.0,0.2785
1112.0,0.3371
1113.0,0.2304
1114.0,0.2554
1115.0,0.2123
1116.0,0.1795
1117.0,0.07776
1118.0,0.1913
1119.0,0.104
1120.0,0.131
1121.0,0.1679
1122.0,0.07871
1123.0,0.1181
1124.0,0.0998
1125.0,0.128
1126.0,0.05271
1127.0,0.1437
1128.0,0.09463
1129.0,0.09893
1130.0,0.06933
1131.0,0.2524
1132.0,0.2018
1133.0,0.1385
1134.0,0.04253
1135.0,0.01565
1136.0,0.1193
1137.0,0.2508
1138.0,0.1793
1139.0,0.2481
1140.0,0.2147
1141.0,0.1704
1142.0,0.1918
1143.0,0.2643
1144.0,0.1026
1145.0,0.1332
1146.0,0.1438
1147.0,0.05925
1148.0,0.229
1149.0,0.1889
1150.0,0.11
1151.0,0.1781
1152.0,0.212
1153.0,0.2014
1154.0,0.1312
1155.0,0.2591
1156.0,0.237
1157.0,0.2607
1158.0,0.2576
1159.0,0.2729
1160.0,0.2394
1161.0,0.2838
1162.0,0.286
1163.0,0.3679
1164.0,0.3224
1165.0,0.3103
1166.0,0.3041
1167.0,0.3277
1168.0,0.3325
1169.0,0.338
1170.0,0.3621
1171.0,0.354
1172.0,0.3574
1173.0,0.3613
1174.0,0.2729
1175.0,0.3508
1176.0,0.3787
1177.0,0.368
1178.0,0.2878
1179.0,0.3815
1180.0,0.3483
1181.0,0.3585
1182.0,0.2598
1183.0,0.3513
1184.0,0.3333
1185.0,0.3251
1186.0,0.3737
1187.0,0.3595
1188.0,0.2651
1189.0,0.3358
1190.0,0.3652
1191.0,0.3527
1192.0,0.3696
1193.0,0.3564
1194.0,0.3658
1195.0,0.3502
1196.0,0.34
1197.0,0.3636
1198.0,0.3361
1199.0,0.2957
1200.0,0.3523
1201.0,0.343
1202.0,0.3392
1203.0,0.3364
1204.0,0.2999
1205.0,0.3442
1206.0,0.3746
1207.0,0.3392
1208.0,0.331
1209.0,0.337
1210.0,0.3489
1211.0,0.3361
1212.0,0.3361
1213.0,0.3643
1214.0,0.342
1215.0,0.3366
1216.0,0.363
1217.0,0.3553
1218.0,0.3602
1219.0,0.3566
1220.0,0.3603
1221.0,0.3629
1222.0,0.3546
1223.0,0.3521
1224.0,0.3512
1225.0,0.3606
1226.0,0.3619
1227.0,0.3387
1228.0,0.3627
1229.0,0.3619
1230.0,0.3566
1231.0,0.3637
1232.0,0.3617
1233.0,0.353
1234.0,0.3626
1235.0,0.3609
1236.0,0.3631
1237.0,0.3595
1238.0,0.3618
1239.0,0.3572
1240.0,0.3584
1241.0,0.3576
1242.0,0.356
1243.0,0.3531
1244.0,0.3559
1245.0,0.3572
1246.0,0.3551
1247.0,0.354
1248.0,0.3542
1249.0,0.3549
1250.0,0.353
1251.0,0.3491
1252.0,0.3484
1253.0,0.3469
1254.0,0.3444
1255.0,0.3484
1256.0,0.341
1257.0,0.3396
1258.0,0.3441
1259.0,0.3354
1260.0,0.3366
1261.0,0.3225
1262.0,0.3154
1263.0,0.3161
1264.0,0.2978
1265.0,0.314
1266.0,0.3057
1267.0,0.3086
1268.0,0.2965
1269.0,0.2115
1270.0,0.3084
1271.0,0.3209
1272.0,0.3213
1273.0,0.3185
1274.0,0.3188
1275.0,0.3225
1276.0,0.3247
1277.0,0.3258
1278.0,0.33
1279.0,0.3273
1280.0,0.323
1281.0,0.3073
1282.0,0.2947
1283.0,0.3176
1284.0,0.3256
1285.0,0.3275
1286.0,0.3311
1287.0,0.3275
1288.0,0.327
1289.0,0.3196
1290.0,0.3239
1291.0,0.3279
1292.0,0.3136
1293.0,0.3229
1294.0,0.3209
1295.0,0.3207
1296.0,0.3099
1297.0,0.2961
1298.0,0.3129
1299.0,0.3228
1300.0,0.2834
1301.0,0.29
1302.0,0.3116
1303.0,0.2786
1304.0,0.2473
1305.0,0.3061
1306.0,0.3066
1307.0,0.2493
1308.0,0.2775
1309.0,0.305
1310.0,0.2449
1311.0,0.2682
1312.0,0.2625
1313.0,0.2589
1314.0,0.2353
1315.0,0.2344
1316.0,0.2655
1317.0,0.2526
1318.0,0.2706
1319.0,0.2232
1320.0,0.2137
1321.0,0.2449
1322.0,0.249
1323.0,0.1971
1324.0,0.2188
1325.0,0.2622
1326.0,0.2313
1327.0,0.2222
1328.0,0.1947
1329.0,0.1546
1330.0,0.1968
1331.0,0.1294
1332.0,0.1299
1333.0,0.1778
1334.0,0.1467
1335.0,0.1962
1336.0,0.1603
1337.0,0.1451
1338.0,0.1564
1339.0,0.1544
1340.0,0.1476
1341.0,0.15
1342.0,0.1572
1343.0,0.1197
1344.0,0.07154
1345.0,0.1013
1346.0,0.05982
1347.0,0.06239
1348.0,0.006349
1349.0,0.01986
1350.0,0.01873
1351.0,0.006763
1352.0,0.002697
1353.0,0.0002256
1354.0,0.0005792
1355.0,1.213e-05
1356.0,0.0001153
1357.0,0.0001723
1358.0,1.383e-05
1359.0,3.45e-06
1360.0,8.082e-06
1361.0,4.07e-08
1362.0,2.261e-10
1363.0,1.259e-05
1364.0,5.76e-06
1365.0,1.707e-10
1366.0,4.55e-05
1367.0,1.756e-05
1368.0,6.254e-12
1369.0,2.282e-06
1370.0,1.495e-06
1371.0,1.263e-07
1372.0,9.781e-06
1373.0,0.0001197
1374.0,0.0004004
1375.0,0.0007101
1376.0,0.0005136
1377.0,0.0002557
1378.0,0.002065
1379.0,0.0001104
1380.0,0.0001897
1381.0,6.363e-06
1382.0,9.536e-06
1383.0,1.992e-07
1384.0,2.864e-06
1385.0,6.657e-06
1386.0,1.025e-05
1387.0,0.0004842
1388.0,1.073e-05
1389.0,0.001179
1390.0,0.001004
1391.0,0.0007347
1392.0,5.615e-05
1393.0,0.0002451
1394.0,0.0002059
1395.0,2.386e-06
1396.0,4.84e-08
1397.0,0.0001121
1398.0,0.002368
1399.0,0.001513
1400.0,3.036e-08
1401.0,7.547e-08
1402.0,0.002793
1403.0,0.003762
1404.0,0.001189
1405.0,1.49e-06
1406.0,0.003462
1407.0,0.0002981
1408.0,0.002787
1409.0,0.001187
1410.0,0.0008498
1411.0,0.00327
1412.0,0.003941
1413.0,0.02788
1414.0,0.000655
1415.0,0.0003554
1416.0,0.03819
1417.0,0.01451
1418.0,0.01652
1419.0,0.002734
1420.0,0.01025
1421.0,0.01142
1422.0,0.04884
1423.0,0.01034
1424.0,0.01866
1425.0,0.02827
1426.0,0.02967
1427.0,0.04877
1428.0,0.006146
1429.0,0.0389
1430.0,0.06039
1431.0,0.06485
1432.0,0.004938
1433.0,0.04344
1434.0,0.02322
1435.0,0.02697
1436.0,0.0459
1437.0,0.0353
1438.0,0.01666
1439.0,0.05967
1440.0,0.04515
1441.0,0.03722
1442.0,0.04049
1443.0,0.0466
1444.0,0.06295
1445.0,0.05253
1446.0,0.02467
1447.0,0.03893
1448.0,0.1071
1449.0,0.09634
1450.0,0.0288
1451.0,0.01251
1452.0,0.06113
1453.0,0.0782
1454.0,0.1229
1455.0,0.06223
1456.0,0.0854
1457.0,0.1077
1458.0,0.1205
1459.0,0.1435
1460.0,0.07831
1461.0,0.08446
1462.0,0.1184
1463.0,0.04223
