interpolation:linear
wavelength,value
280.0,5.984000000000001e-20
280.5,1.659e-18
281.0,8.41e-18
281.5,4.758e-19
282.0,2.145e-18
282.5,6.129e-18
283.0,2.052e-17
283.5,3.391e-17
284.0,5.343e-16
284.5,1.506e-15
285.0,3.116e-15
285.5,1.96e-14
286.0,8.436e-14
286.5,4.141e-13
287.0,1.245e-12
287.5,5.001e-12
288.0,1.475e-11
288.5,5.884e-11
289.0,1.989e-10
289.5,7.531e-10
290.0,2.482e-09
290.5,5.816e-09
291.0,1.462e-08
291.5,5.071e-08
292.0,1.345e-07
292.5,2.11e-07
293.0,5.21e-07
293.5,1.542e-06
294.0,2.8e-06
294.5,3.637e-06
295.0,7.051e-06
295.5,1.677e-05
296.0,3.168e-05
296.5,4.335e-05
297.0,5.759e-05
297.5,0.0001501
298.0,0.0002306
298.5,0.0002274
299.0,0.0004915
299.5,0.0007865
300.0,0.0008478
300.5,0.001202
301.0,0.002099
301.5,0.003238
302.0,0.002725
302.5,0.005124
303.0,0.008755
303.5,0.01068
304.0,0.009809
304.5,0.01381
305.0,0.01931
305.5,0.02102
306.0,0.01996
306.5,0.02406
307.0,0.03328
307.5,0.04141
308.0,0.04327
308.5,0.04948
309.0,0.04761
309.5,0.05208
310.0,0.05122
310.5,0.0821
311.0,0.1013
311.5,0.09699
312.0,0.09333
312.5,0.1107
313.0,0.1185
313.5,0.1165
314.0,0.1412
314.5,0.1202
315.0,0.1567
315.5,0.1337
316.0,0.113
316.5,0.1576
317.0,0.1958
317.5,0.2053
318.0,0.1571
318.5,0.1878
319.0,0.2187
319.5,0.1837
320.0,0.223
320.5,0.2685
321.0,0.231
321.5,0.2207
322.0,0.244
322.5,0.2118
323.0,0.2059
323.5,0.2473
324.0,0.2875
324.5,0.2947
325.0,0.2579
325.5,0.3252
326.0,0.3952
326.5,0.3906
327.0,0.3911
327.5,0.38
328.0,0.3441
328.5,0.3542
329.0,0.4171
329.5,0.4711
330.0,0.477
330.5,0.3866
331.0,0.3955
331.5,0.3982
332.0,0.4243
332.5,0.417
333.0,0.4173
333.5,0.3814
334.0,0.3914
334.5,0.4464
335.0,0.4166
335.5,0.4866
336.0,0.3366
336.5,0.3954
337.0,0.3259
337.5,0.406
338.0,0.3927
338.5,0.4531
339.0,0.4483
339.5,0.4311
340.0,0.5068
340.5,0.4563
341.0,0.4451
341.5,0.4085
342.0,0.4881
342.5,0.4565
343.0,0.5021
343.5,0.4729
344.0,0.3493
344.5,0.3529
345.0,0.4668
345.5,0.4764
346.0,0.4047
346.5,0.4582
347.0,0.4919
347.5,0.3977
348.0,0.4532
348.5,0.4529
349.0,0.4201
349.5,0.4159
350.0,0.5143
350.5,0.5424
351.0,0.4846
351.5,0.471
352.0,0.5058
352.5,0.3946
353.0,0.4968
353.5,0.5312
354.0,0.5514
354.5,0.5591
355.0,0.5573
355.5,0.5033
356.0,0.5265
356.5,0.4496
357.0,0.3715
357.5,0.4547
358.0,0.3604
358.5,0.3079
359.0,0.4307
359.5,0.549
360.0,0.5819
360.5,0.465
361.0,0.4239
361.5,0.4879
362.0,0.4218
362.5,0.5836
363.0,0.5241
363.5,0.4827
364.0,0.5902
364.5,0.5045
365.0,0.5137
365.5,0.6447
366.0,0.683
366.5,0.6416
367.0,0.6248
367.5,0.6484
368.0,0.5674
368.5,0.5725
369.0,0.6182
369.5,0.6589
370.0,0.7023
370.5,0.545
371.0,0.5823
371.5,0.7286
372.0,0.4835
372.5,0.5798
373.0,0.5897
373.5,0.3836
374.0,0.5574
374.5,0.4616
375.0,0.4487
375.5,0.6699
376.0,0.5553
376.5,0.5755
377.0,0.6093
377.5,0.7127
378.0,0.7726
378.5,0.7303
379.0,0.6027
379.5,0.5506
380.0,0.5724
380.5,0.6933
381.0,0.6947
381.5,0.5506
382.0,0.4889
382.5,0.4167
383.0,0.3858
383.5,0.3716
384.0,0.4099
384.5,0.6028
385.0,0.5978
385.5,0.5567
386.0,0.4767
386.5,0.6262
387.0,0.5203
387.5,0.5844
388.0,0.5396
388.5,0.5334
389.0,0.5757
389.5,0.6973
390.0,0.6998
390.5,0.644
391.0,0.758
391.5,0.7732
392.0,0.6512
392.5,0.583
393.0,0.3244
393.5,0.2358
394.0,0.4797
394.5,0.6099
395.0,0.7443
395.5,0.7561
396.0,0.6555
396.5,0.3831
397.0,0.2875
397.5,0.5847
398.0,0.8189
398.5,0.8464
399.0,0.9164
399.5,0.9134
400.0,0.9486
401.0,0.964
402.0,1.017
403.0,0.9658
404.0,0.9509
405.0,0.9507
406.0,0.9351
407.0,0.9198
408.0,0.9558
409.0,1.023
410.0,0.8937
411.0,0.9679
412.0,1.039
413.0,1.014
414.0,1.026
415.0,1.028
416.0,1.046
417.0,1.02
418.0,1.001
419.0,1.014
420.0,1.01
421.0,1.056
422.0,1.004
423.0,0.9806
424.0,1.037
425.0,1.035
426.0,1.008
427.0,0.9891
428.0,0.9634
429.0,0.9123
430.0,0.7983
431.0,0.7913
432.0,1.021
433.0,1.027
434.0,0.9535
435.0,0.9959
436.0,1.122
437.0,1.106
438.0,1.007
439.0,1.042
440.0,1.075
441.0,1.114
442.0,1.194
443.0,1.164
444.0,1.189
445.0,1.163
446.0,1.109
447.0,1.199
448.0,1.218
449.0,1.222
450.0,1.256
451.0,1.302
452.0,1.255
453.0,1.18
454.0,1.231
455.0,1.239
456.0,1.268
457.0,1.289
458.0,1.246
459.0,1.239
460.0,1.242
461.0,1.271
462.0,1.28
463.0,1.272
464.0,1.25
465.0,1.234
466.0,1.245
467.0,1.223
468.0,1.237
469.0,1.244
470.0,1.204
471.0,1.202
472.0,1.267
473.0,1.251
474.0,1.253
475.0,1.264
476.0,1.227
477.0,1.231
478.0,1.264
479.0,1.256
480.0,1.258
481.0,1.281
482.0,1.287
483.0,1.271
484.0,1.245
485.0,1.186
486.0,1.036
487.0,1.086
488.0,1.191
489.0,1.195
490.0,1.257
491.0,1.235
492.0,1.166
493.0,1.204
494.0,1.216
495.0,1.227
496.0,1.234
497.0,1.253
498.0,1.195
499.0,1.21
500.0,1.175
501.0,1.154
502.0,1.138
503.0,1.185
504.0,1.158
505.0,1.197
506.0,1.236
507.0,1.176
508.0,1.139
509.0,1.17
510.0,1.163
511.0,1.194
512.0,1.207
513.0,1.142
514.0,1.134
515.0,1.123
516.0,1.12
517.0,0.9953
518.0,1.046
519.0,1.098
520.0,1.138
521.0,1.148
522.0,1.15
523.0,1.129
524.0,1.17
525.0,1.184
526.0,1.131
527.0,1.066
528.0,1.128
529.0,1.189
530.0,1.173
531.0,1.19
532.0,1.149
533.0,1.116
534.0,1.148
535.0,1.173
536.0,1.184
537.0,1.137
538.0,1.157
539.0,1.147
540.0,1.1
541.0,1.108
542.0,1.143
543.0,1.13
544.0,1.15
545.0,1.147
546.0,1.152
547.0,1.151
548.0,1.137
549.0,1.141
550.0,1.154
551.0,1.14
552.0,1.148
553.0,1.127
554.0,1.155
555.0,1.157
556.0,1.142
557.0,1.107
558.0,1.099
559.0,1.078
560.0,1.092
561.0,1.107
562.0,1.099
563.0,1.129
564.0,1.099
565.0,1.09
566.0,1.074
567.0,1.095
568.0,1.086
569.0,1.062
570.0,1.062
571.0,1.055
572.0,1.081
573.0,1.093
574.0,1.09
575.0,1.07
576.0,1.06
577.0,1.072
578.0,1.055
579.0,1.058
580.0,1.077
581.0,1.082
582.0,1.101
583.0,1.103
584.0,1.112
585.0,1.085
586.0,1.062
587.0,1.086
588.0,1.062
589.0,0.9461
590.0,0.989
591.0,1.044
592.0,1.032
593.0,1.045
594.0,1.039
595.0,1.015
596.0,1.051
597.0,1.04
598.0,1.037
599.0,1.037
600.0,1.037
601.0,1.028
602.0,1.021
603.0,1.038
604.0,1.055
605.0,1.049
606.0,1.044
607.0,1.054
608.0,1.042
609.0,1.044
610.0,1.036
611.0,1.041
612.0,1.038
613.0,1.024
614.0,1.01
615.0,1.032
616.0,0.9974
617.0,0.9952
618.0,1.033
619.0,1.023
620.0,1.029
621.0,1.031
622.0,1.019
623.0,1.004
624.0,0.9861
625.0,0.9838
626.0,0.9985
627.0,1.011
628.0,0.9543
629.0,0.9903
630.0,0.9678
631.0,0.9861
632.0,0.9737
633.0,1.002
634.0,0.9909
635.0,1.006
636.0,0.9918
637.0,1.008
638.0,1.016
639.0,1.005
640.0,0.9944
641.0,0.9934
642.0,0.9885
643.0,1.002
644.0,0.9981
645.0,0.9999
646.0,0.9779
647.0,0.9691
648.0,0.9704
649.0,0.9517
650.0,0.9527
651.0,0.9932
652.0,0.956
653.0,0.9799
654.0,0.9686
655.0,0.9346
656.0,0.8269
657.0,0.849
658.0,0.9503
659.0,0.9566
660.0,0.9604
661.0,0.967
662.0,0.9697
663.0,0.9503
664.0,0.9605
665.0,0.9605
666.0,0.9609
667.0,0.9596
668.0,0.9596
669.0,0.9742
670.0,0.9698
671.0,0.9694
672.0,0.961
673.0,0.9753
674.0,0.9715
675.0,0.9625
676.0,0.9689
677.0,0.9592
678.0,0.9618
679.0,0.9461
680.0,0.9536
681.0,0.9473
682.0,0.9461
683.0,0.9442
684.0,0.9395
685.0,0.9474
686.0,0.9419
687.0,0.6716
688.0,0.7647
689.0,0.7668
690.0,0.7968
691.0,0.8304
692.0,0.854
693.0,0.8478
694.0,0.8408
695.0,0.87
696.0,0.8712
697.0,0.9175
698.0,0.9033
699.0,0.8863
700.0,0.8757
701.0,0.8683
702.0,0.8726
703.0,0.8741
704.0,0.8993
705.0,0.9007
706.0,0.8988
707.0,0.8991
708.0,0.9011
709.0,0.9007
710.0,0.9015
711.0,0.8997
712.0,0.8963
713.0,0.8879
714.0,0.8911
715.0,0.8647
716.0,0.8657
717.0,0.7678
718.0,0.7081
719.0,0.6505
720.0,0.6826
721.0,0.7429
722.0,0.8385
723.0,0.7866
724.0,0.7155
725.0,0.7064
726.0,0.7382
727.0,0.7448
728.0,0.7054
729.0,0.7256
730.0,0.7677
731.0,0.7364
732.0,0.7813
733.0,0.8209
734.0,0.8387
735.0,0.8222
736.0,0.821
737.0,0.8245
738.0,0.8331
739.0,0.8168
740.0,0.8368
741.0,0.8278
742.0,0.8278
743.0,0.8487
744.0,0.8458
745.0,0.8456
746.0,0.8495
747.0,0.8512
748.0,0.8494
749.0,0.8397
750.0,0.8391
751.0,0.8306
752.0,0.8341
753.0,0.8383
754.0,0.8402
755.0,0.8355
756.0,0.8351
757.0,0.8363
758.0,0.826
759.0,0.8116
760.0,0.182
761.0,0.1061
762.0,0.4622
763.0,0.2594
764.0,0.3645
765.0,0.4624
766.0,0.5452
767.0,0.6659
768.0,0.7513
769.0,0.7632
770.0,0.7849
771.0,0.7893
772.0,0.7904
773.0,0.7958
774.0,0.7918
775.0,0.7857
776.0,0.7952
777.0,0.7847
778.0,0.78
779.0,0.7806
780.0,0.7762
781.0,0.777
782.0,0.7818
783.0,0.7681
784.0,0.7718
785.0,0.7662
786.0,0.7748
787.0,0.763
788.0,0.7544
789.0,0.7543
790.0,0.7369
791.0,0.7407
792.0,0.7349
793.0,0.7233
794.0,0.733
795.0,0.746
796.0,0.7267
797.0,0.7277
798.0,0.7455
799.0,0.7414
800.0,0.7294
801.0,0.7279
802.0,0.7258
803.0,0.7207
804.0,0.7213
805.0,0.718
806.0,0.7365
807.0,0.728
808.0,0.7285
809.0,0.7161
810.0,0.7111
811.0,0.7137
812.0,0.6958
813.0,0.6828
814.0,0.6091
815.0,0.6051
816.0,0.5644
817.0,0.5737
818.0,0.5541
819.0,0.6121
820.0,0.5794
821.0,0.6673
822.0,0.6498
823.0,0.4579
824.0,0.6343
825.0,0.6561
826.0,0.6342
827.0,0.6661
828.0,0.5737
829.0,0.6298
830.0,0.6225
831.0,0.6243
832.0,0.6068
833.0,0.641
834.0,0.6213
835.0,0.6761
836.0,0.6512
837.0,0.6778
838.0,0.6584
839.0,0.6672
840.0,0.6813
841.0,0.6724
842.0,0.6727
843.0,0.6711
844.0,0.6624
845.0,0.6839
846.0,0.6807
847.0,0.6677
848.0,0.6641
849.0,0.6452
850.0,0.6181
851.0,0.655
852.0,0.6501
853.0,0.6253
854.0,0.5403
855.0,0.5931
856.0,0.6484
857.0,0.6625
858.0,0.6577
859.0,0.6581
860.0,0.6591
861.0,0.6556
862.0,0.6658
863.0,0.6815
864.0,0.6474
865.0,0.6417
866.0,0.577
867.0,0.6021
868.0,0.6552
869.0,0.6416
870.0,0.6599
871.0,0.6509
872.0,0.6486
873.0,0.6472
874.0,0.6395
875.0,0.6266
876.0,0.6332
877.0,0.6395
878.0,0.6465
879.0,0.6366
880.0,0.6229
881.0,0.6138
882.0,0.6272
883.0,0.6289
884.0,0.6261
885.0,0.6309
886.0,0.6021
887.0,0.6078
888.0,0.6172
889.0,0.6235
890.0,0.6191
891.0,0.6176
892.0,0.601
893.0,0.5836
894.0,0.5658
895.0,0.5381
896.0,0.5084
897.0,0.4414
898.0,0.479
899.0,0.3701
900.0,0.4876
901.0,0.3877
902.0,0.4473
903.0,0.4542
904.0,0.5615
905.0,0.5437
906.0,0.51
907.0,0.4214
908.0,0.4287
909.0,0.4611
910.0,0.4137
911.0,0.4374
912.0,0.4559
913.0,0.4202
914.0,0.4155
915.0,0.4499
916.0,0.3826
917.0,0.479
918.0,0.3925
919.0,0.4862
920.0,0.4881
921.0,0.507
922.0,0.4575
923.0,0.4895
924.0,0.4692
925.0,0.459
926.0,0.4641
927.0,0.5155
928.0,0.3897
929.0,0.3588
930.0,0.2868
931.0,0.2709
932.0,0.2
933.0,0.1652
934.0,0.0962
935.0,0.1669
936.0,0.1077
937.0,0.1096
938.0,0.1334
939.0,0.2625
940.0,0.3124
941.0,0.2404
942.0,0.2754
943.0,0.1847
944.0,0.1913
945.0,0.2471
946.0,0.1306
947.0,0.2494
948.0,0.184
949.0,0.3291
950.0,0.09893
951.0,0.3232
952.0,0.18
953.0,0.2283
954.0,0.2753
955.0,0.2304
956.0,0.2213
957.0,0.1809
958.0,0.3072
959.0,0.249
960.0,0.279
961.0,0.3093
962.0,0.2931
963.0,0.3346
964.0,0.3076
965.0,0.333
966.0,0.3339
967.0,0.3328
968.0,0.4347
969.0,0.455
970.0,0.4194
971.0,0.4751
972.0,0.4554
973.0,0.4015
974.0,0.3818
975.0,0.3944
976.0,0.3771
977.0,0.4239
978.0,0.4049
979.0,0.4225
980.0,0.3983
981.0,0.4721
982.0,0.4532
983.0,0.4362
984.0,0.4845
985.0,0.4515
986.0,0.4918
987.0,0.4835
988.0,0.4826
989.0,0.4895
990.0,0.4796
991.0,0.4911
992.0,0.4938
993.0,0.4841
994.0,0.4935
995.0,0.4928
996.0,0.4908
997.0,0.4914
998.0,0.4891
999.0,0.4873
1000.0,0.4842
1001.0,0.4899
1002.0,0.4776
1003.0,0.4813
1004.0,0.4698
1005.0,0.4522
1006.0,0.4701
1007.0,0.4799
1008.0,0.4775
1009.0,0.4752
1010.0,0.4734
1011.0,0.4775
1012.0,0.4736
1013.0,0.4762
1014.0,0.4729
1015.0,0.4698
1016.0,0.4677
1017.0,0.4689
1018.0,0.467
1019.0,0.4575
1020.0,0.4646
1021.0,0.4639
1022.0,0.4605
1023.0,0.4654
1024.0,0.4598
1025.0,0.4649
1026.0,0.4631
1027.0,0.462
1028.0,0.461
1029.0,0.4556
1030.0,0.4586
1031.0,0.4568
1032.0,0.4554
1033.0,0.4486
1034.0,0.4486
1035.0,0.45
1036.0,0.4524
1037.0,0.445
1038.0,0.447
1039.0,0.4468
1040.0,0.445
1041.0,0.4468
1042.0,0.4437
1043.0,0.4423
1044.0,0.4439
1045.0,0.4379
1046.0,0.4331
1047.0,0.437
1048.0,0.4394
1049.0,0.4379
1050.0,0.4359
1051.0,0.4353
1052.0,0.4336
1053.0,0.4302
1054.0,0.4312
1055.0,0.4315
1056.0,0.4301
1057.0,0.4288
1058.0,0.4183
1059.0,0.4189
1060.0,0.4182
1061.0,0.4178
1062.0,0.4201
1063.0,0.416
1064.0,0.4209
1065.0,0.418
1066.0,0.4096
1067.0,0.415
1068.0,0.406
1069.0,0.3934
1070.0,0.4069
1071.0,0.4128
1072.0,0.4083
1073.0,0.4024
1074.0,0.4123
1075.0,0.393
1076.0,0.412
1077.0,0.4054
1078.0,0.398
1079.0,0.4052
1080.0,0.3992
1081.0,0.387
1082.0,0.3921
1083.0,0.393
1084.0,0.3864
1085.0,0.3999
1086.0,0.367
1087.0,0.3773
1088.0,0.3928
1089.0,0.382
1090.0,0.3745
1091.0,0.3919
1092.0,0.3906
1093.0,0.335
1094.0,0.3579
1095.0,0.3485
1096.0,0.3348
1097.0,0.3815
1098.0,0.33
1099.0,0.3436
1100.0,0.3211
1101.0,0.3246
1102.0,0.3111
1103.0,0.3088
1104.0,0.3091
1105.0,0.3361
1106.0,0.2636
1107.0,0.3205
1108.0,0.2756
1109.0,0.2753
1110.0,0.3182
1111.0,0.2211
1112.0,0.2729
1113.0,0.1792
1114.0,0.1996
1115.0,0.1657
1116.0,0.1356
1117.0,0.05353
1118.0,0.1463
1119.0,0.07554
1120.0,0.0952
1121.0,0.1245
1122.0,0.05494
1123.0,0.08592
1124.0,0.07256
1125.0,0.09395
1126.0,0.03524
1127.0,0.1058
1128.0,0.066
1129.0,0.06961
1130.0,0.04697
1131.0,0.1941
1132.0,0.1535
1133.0,0.1007
1134.0,0.02785
1135.0,0.01033
1136.0,0.08525
1137.0,0.1917
1138.0,0.1358
1139.0,0.196
1140.0,0.1663
1141.0,0.129
1142.0,0.1471
1143.0,0.2062
1144.0,0.0753
1145.0,0.09704
1146.0,0.1047
1147.0,0.03948
1148.0,0.1785
1149.0,0.1445
1150.0,0.08077
1151.0,0.1348
1152.0,0.1636
1153.0,0.1576
1154.0,0.09456
1155.0,0.2046
1156.0,0.1855
1157.0,0.2062
1158.0,0.2039
1159.0,0.2182
1160.0,0.1885
1161.0,0.2284
1162.0,0.2298
1163.0,0.3036
1164.0,0.2629
1165.0,0.2504
1166.0,0.247
1167.0,0.2677
1168.0,0.2712
1169.0,0.2768
1170.0,0.2987
1171.0,0.2916
1172.0,0.2956
1173.0,0.2981
1174.0,0.2186
1175.0,0.2903
1176.0,0.3163
1177.0,0.3055
1178.0,0.2338
1179.0,0.3187
1180.0,0.2876
1181.0,0.2965
1182.0,0.2094
1183.0,0.2913
1184.0,0.2746
1185.0,0.2664
1186.0,0.311
1187.0,0.2977
1188.0,0.2134
1189.0,0.2777
1190.0,0.3039
1191.0,0.2912
1192.0,0.3079
1193.0,0.296
1194.0,0.3044
1195.0,0.2897
1196.0,0.2802
1197.0,0.3036
1198.0,0.2791
1199.0,0.2416
1200.0,0.2924
1201.0,0.2834
1202.0,0.2809
1203.0,0.2787
1204.0,0.246
1205.0,0.2862
1206.0,0.3139
1207.0,0.2806
1208.0,0.275
1209.0,0.2803
1210.0,0.291
1211.0,0.2788
1212.0,0.2773
1213.0,0.3044
1214.0,0.283
1215.0,0.2781
1216.0,0.3034
1217.0,0.2962
1218.0,0.301
1219.0,0.2977
1220.0,0.3012
1221.0,0.3037
1222.0,0.2963
1223.0,0.2939
1224.0,0.2927
1225.0,0.3018
1226.0,0.3033
1227.0,0.2819
1228.0,0.3044
1229.0,0.3034
1230.0,0.2986
1231.0,0.3057
1232.0,0.3039
1233.0,0.2952
1234.0,0.3051
1235.0,0.3034
1236.0,0.3054
1237.0,0.3019
1238.0,0.3044
1239.0,0.3005
1240.0,0.3016
1241.0,0.3005
1242.0,0.2995
1243.0,0.2971
1244.0,0.2993
1245.0,0.3005
1246.0,0.2987
1247.0,0.2977
1248.0,0.2977
1249.0,0.2984
1250.0,0.2968
1251.0,0.2932
1252.0,0.2929
1253.0,0.2912
1254.0,0.2887
1255.0,0.2928
1256.0,0.2857
1257.0,0.2843
1258.0,0.2888
1259.0,0.28
1260.0,0.2812
1261.0,0.2676
1262.0,0.2607
1263.0,0.2613
1264.0,0.2438
1265.0,0.2595
1266.0,0.2513
1267.0,0.2546
1268.0,0.2432
1269.0,0.1625
1270.0,0.2541
1271.0,0.2664
1272.0,0.2671
1273.0,0.2645
1274.0,0.265
1275.0,0.2684
1276.0,0.2706
1277.0,0.2719
1278.0,0.2763
1279.0,0.2739
1280.0,0.2703
1281.0,0.2576
1282.0,0.2475
1283.0,0.2667
1284.0,0.2732
1285.0,0.2749
1286.0,0.2783
1287.0,0.2746
1288.0,0.2744
1289.0,0.267
1290.0,0.2719
1291.0,0.2754
1292.0,0.2613
1293.0,0.2707
1294.0,0.2689
1295.0,0.2682
1296.0,0.2577
1297.0,0.2451
1298.0,0.2612
1299.0,0.2708
1300.0,0.2336
1301.0,0.2399
1302.0,0.2603
1303.0,0.23
1304.0,0.2003
1305.0,0.2553
1306.0,0.2555
1307.0,0.2032
1308.0,0.2297
1309.0,0.2539
1310.0,0.1995
1311.0,0.2212
1312.0,0.2159
1313.0,0.2123
1314.0,0.1915
1315.0,0.1899
1316.0,0.2184
1317.0,0.2073
1318.0,0.2237
1319.0,0.1796
1320.0,0.173
1321.0,0.1999
1322.0,0.2026
1323.0,0.1564
1324.0,0.1762
1325.0,0.2155
1326.0,0.1875
1327.0,0.1794
1328.0,0.156
1329.0,0.1204
1330.0,0.1551
1331.0,0.0976
1332.0,0.09942
1333.0,0.1374
1334.0,0.1146
1335.0,0.1558
1336.0,0.1252
1337.0,0.1118
1338.0,0.1209
1339.0,0.1199
1340.0,0.1156
1341.0,0.1152
1342.0,0.1208
1343.0,0.08666
1344.0,0.0517
1345.0,0.07412
1346.0,0.04007
1347.0,0.04129
1348.0,0.003322
1349.0,0.0112
1350.0,0.01112
1351.0,0.003276
1352.0,0.001082
1353.0,6.978e-05
1354.0,0.0002078
1355.0,2.681e-06
1356.0,3.475e-05
1357.0,5.255e-05
1358.0,3.116e-06
1359.0,5.555e-07
1360.0,1.613e-06
1361.0,3.808e-09
1362.0,1.456e-11
1363.0,2.391e-06
1364.0,1.024e-06
1365.0,7.598e-12
1366.0,9.52e-06
1367.0,3.718e-06
1368.0,1.297e-13
1369.0,3.918e-07
1370.0,2.235e-07
1371.0,1.534e-08
1372.0,2.05e-06
1373.0,3.25e-05
1374.0,0.0001284
1375.0,0.0002332
1376.0,0.0001855
1377.0,8.829e-05
1378.0,0.0007965
1379.0,3.744e-05
1380.0,5.929e-05
1381.0,1.729e-06
1382.0,1.926e-06
1383.0,3.348e-08
1384.0,4.687e-07
1385.0,1.553e-06
1386.0,1.895e-06
1387.0,0.0001456
1388.0,2.957e-06
1389.0,0.0004159
1390.0,0.0003577
1391.0,0.0002483
1392.0,1.725e-05
1393.0,8.352e-05
1394.0,5.557e-05
1395.0,5.016e-07
1396.0,4.973e-09
1397.0,3.556e-05
1398.0,0.0009078
1399.0,0.0005754
1400.0,2.603e-09
1401.0,8.335e-09
1402.0,0.001296
1403.0,0.001692
1404.0,0.0005251
1405.0,2.77e-07
1406.0,0.001456
1407.0,0.0001244
1408.0,0.001179
1409.0,0.000446
1410.0,0.0003336
1411.0,0.001478
1412.0,0.001885
1413.0,0.01635
1414.0,0.0002598
1415.0,0.0001322
1416.0,0.02459
1417.0,0.008198
1418.0,0.009406
1419.0,0.001497
1420.0,0.005786
1421.0,0.006292
1422.0,0.03188
1423.0,0.006383
1424.0,0.01178
1425.0,0.0176
1426.0,0.01929
1427.0,0.0339
1428.0,0.00317
1429.0,0.02605
1430.0,0.04268
1431.0,0.04646
1432.0,0.002516
1433.0,0.03014
1434.0,0.01563
1435.0,0.01662
1436.0,0.0305
1437.0,0.02337
1438.0,0.01031
1439.0,0.04079
1440.0,0.03062
1441.0,0.02409
1442.0,0.02658
1443.0,0.03224
1444.0,0.04416
1445.0,0.03546
1446.0,0.01623
1447.0,0.02553
1448.0,0.08003
1449.0,0.07035
1450.0,0.01889
1451.0,0.007803
1452.0,0.04318
1453.0,0.05621
1454.0,0.09355
