interpolation:linear
wavelength,value
280.0,9.367999999999999e-22
280.5,3.021e-20
281.0,1.608e-19
281.5,5.272e-19
282.0,9.234e-19
282.5,2.29e-18
283.0,7.213e-18
283.5,1.172e-17
284.0,1.898e-16
284.5,5.493e-16
285.0,1.058e-15
285.5,5.122e-15
286.0,2.048e-14
286.5,9.082e-14
287.0,2.581e-13
287.5,9.838e-13
288.0,3.077e-12
288.5,9.568e-12
289.0,2.591e-11
289.5,7.91e-11
290.0,2.209e-10
290.5,4.519e-10
291.0,9.729e-10
291.5,2.798e-09
292.0,5.923e-09
292.5,8.468e-09
293.0,1.857e-08
293.5,4.644e-08
294.0,7.392e-08
294.5,9.757e-08
295.0,1.677e-07
295.5,3.699e-07
296.0,6.709e-07
296.5,9.678e-07
297.0,1.348e-06
297.5,3.81e-06
298.0,6.327e-06
298.5,6.664e-06
299.0,1.544e-05
299.5,2.833e-05
300.0,3.32e-05
300.5,5.164e-05
301.0,0.0001065
301.5,0.0001952
302.0,0.0001816
302.5,0.0003651
303.0,0.0006822
303.5,0.0008835
304.0,0.0008491
304.5,0.001343
305.0,0.00221
305.5,0.002664
306.0,0.002631
306.5,0.003387
307.0,0.005403
307.5,0.0077
308.0,0.008227
308.5,0.01006
309.0,0.01013
309.5,0.0121
310.0,0.0124
310.5,0.02029
311.0,0.02588
311.5,0.02516
312.0,0.02605
312.5,0.03244
313.0,0.03562
313.5,0.03421
314.0,0.04397
314.5,0.04042
315.0,0.05346
315.5,0.04397
316.0,0.03953
316.5,0.0582
317.0,0.07224
317.5,0.07467
318.0,0.05925
318.5,0.07597
319.0,0.09163
319.5,0.07281
320.0,0.08766
320.5,0.1133
321.0,0.1039
321.5,0.09991
322.0,0.1033
322.5,0.09002
323.0,0.09148
323.5,0.1145
324.0,0.1341
324.5,0.1351
325.0,0.1156
325.5,0.1511
326.0,0.1855
326.5,0.1877
327.0,0.1865
327.5,0.1793
328.0,0.1576
328.5,0.1684
329.0,0.2042
329.5,0.2328
330.0,0.2342
330.5,0.1857
331.0,0.1886
331.5,0.1931
332.0,0.2109
332.5,0.2097
333.0,0.2086
333.5,0.1874
334.0,0.1918
334.5,0.2233
335.0,0.211
335.5,0.2467
336.0,0.1708
336.5,0.1994
337.0,0.1631
337.5,0.2026
338.0,0.1993
338.5,0.2305
339.0,0.2283
339.5,0.2196
340.0,0.2579
340.5,0.2328
341.0,0.2272
341.5,0.2088
342.0,0.2497
342.5,0.2338
343.0,0.2571
343.5,0.2421
344.0,0.1789
344.5,0.1808
345.0,0.2396
345.5,0.2448
346.0,0.2082
346.5,0.2359
347.0,0.2533
347.5,0.2048
348.0,0.2338
348.5,0.2338
349.0,0.217
349.5,0.215
350.0,0.2661
350.5,0.2808
351.0,0.2509
351.5,0.2437
352.0,0.262
352.5,0.2047
353.0,0.258
353.5,0.276
354.0,0.2867
354.5,0.2908
355.0,0.2899
355.5,0.2621
356.0,0.2744
356.5,0.2344
357.0,0.1937
357.5,0.2372
358.0,0.1881
358.5,0.1608
359.0,0.2249
359.5,0.2867
360.0,0.304
360.5,0.2431
361.0,0.2218
361.5,0.2556
362.0,0.2212
362.5,0.3064
363.0,0.2754
363.5,0.2538
364.0,0.3106
364.5,0.2656
365.0,0.2707
365.5,0.3399
366.0,0.3603
366.5,0.3388
367.0,0.3301
367.5,0.3427
368.0,0.3
368.5,0.3029
369.0,0.3273
369.5,0.349
370.0,0.3723
370.5,0.2891
371.0,0.3091
371.5,0.3868
372.0,0.2568
372.5,0.3081
373.0,0.3136
373.5,0.2042
374.0,0.2968
374.5,0.2459
375.0,0.2392
375.5,0.3572
376.0,0.2962
376.5,0.3071
377.0,0.3253
377.5,0.3808
378.0,0.4129
378.5,0.3904
379.0,0.3223
379.5,0.2944
380.0,0.3062
380.5,0.3711
381.0,0.3722
381.5,0.2952
382.0,0.2624
382.5,0.2238
383.0,0.2073
383.5,0.1998
384.0,0.2205
384.5,0.3245
385.0,0.322
385.5,0.3
386.0,0.2571
386.5,0.3379
387.0,0.2809
387.5,0.3156
388.0,0.2915
388.5,0.2884
389.0,0.3114
389.5,0.3773
390.0,0.3789
390.5,0.3488
391.0,0.4108
391.5,0.4192
392.0,0.3532
392.5,0.3164
393.0,0.1762
393.5,0.1281
394.0,0.2608
394.5,0.3318
395.0,0.405
395.5,0.4115
396.0,0.357
396.5,0.2088
397.0,0.1568
397.5,0.319
398.0,0.4468
398.5,0.462
399.0,0.5006
399.5,0.4992
400.0,0.5184
401.0,0.5245
402.0,0.5539
403.0,0.5268
404.0,0.519
405.0,0.5193
406.0,0.5114
407.0,0.5036
408.0,0.5235
409.0,0.5607
410.0,0.4904
411.0,0.5316
412.0,0.5715
413.0,0.5576
414.0,0.5649
415.0,0.5669
416.0,0.5773
417.0,0.5635
418.0,0.5534
419.0,0.5611
420.0,0.5589
421.0,0.5851
422.0,0.5565
423.0,0.5439
424.0,0.5755
425.0,0.5749
426.0,0.5606
427.0,0.5504
428.0,0.5364
429.0,0.5086
430.0,0.4454
431.0,0.4415
432.0,0.5705
433.0,0.574
434.0,0.5332
435.0,0.557
436.0,0.6282
437.0,0.6203
438.0,0.5652
439.0,0.5843
440.0,0.6033
441.0,0.6256
442.0,0.6712
443.0,0.6537
444.0,0.6684
445.0,0.654
446.0,0.6248
447.0,0.676
448.0,0.6864
449.0,0.6898
450.0,0.7095
451.0,0.7361
452.0,0.7095
453.0,0.6677
454.0,0.6975
455.0,0.7019
456.0,0.7188
457.0,0.731
458.0,0.7058
459.0,0.7024
460.0,0.7042
461.0,0.7206
462.0,0.7266
463.0,0.7217
464.0,0.7104
465.0,0.702
466.0,0.7093
467.0,0.6962
468.0,0.7045
469.0,0.7083
470.0,0.6857
471.0,0.685
472.0,0.7218
473.0,0.7125
474.0,0.7132
475.0,0.7189
476.0,0.6969
477.0,0.6985
478.0,0.7181
479.0,0.7141
480.0,0.7158
481.0,0.7297
482.0,0.734
483.0,0.7258
484.0,0.7112
485.0,0.678
486.0,0.5931
487.0,0.6219
488.0,0.6823
489.0,0.6842
490.0,0.7201
491.0,0.708
492.0,0.6687
493.0,0.6907
494.0,0.6977
495.0,0.7037
496.0,0.7081
497.0,0.719
498.0,0.6854
499.0,0.694
500.0,0.6735
501.0,0.6608
502.0,0.6509
503.0,0.6767
504.0,0.6575
505.0,0.6827
506.0,0.7047
507.0,0.6707
508.0,0.6504
509.0,0.6692
510.0,0.666
511.0,0.6843
512.0,0.692
513.0,0.6551
514.0,0.6507
515.0,0.6443
516.0,0.6427
517.0,0.5712
518.0,0.6004
519.0,0.6298
520.0,0.6526
521.0,0.6587
522.0,0.6591
523.0,0.6472
524.0,0.67
525.0,0.6774
526.0,0.6469
527.0,0.6092
528.0,0.644
529.0,0.6785
530.0,0.6686
531.0,0.6783
532.0,0.6549
533.0,0.6358
534.0,0.6547
535.0,0.6693
536.0,0.6756
537.0,0.6492
538.0,0.6608
539.0,0.6552
540.0,0.6281
541.0,0.6316
542.0,0.6511
543.0,0.6448
544.0,0.6555
545.0,0.6535
546.0,0.6559
547.0,0.6561
548.0,0.6484
549.0,0.6506
550.0,0.6583
551.0,0.6504
552.0,0.6549
553.0,0.6431
554.0,0.6585
555.0,0.6597
556.0,0.651
557.0,0.6306
558.0,0.6255
559.0,0.6135
560.0,0.621
561.0,0.6287
562.0,0.6238
563.0,0.6404
564.0,0.6226
565.0,0.6169
566.0,0.6076
567.0,0.6187
568.0,0.6121
569.0,0.5955
570.0,0.5957
571.0,0.5926
572.0,0.6055
573.0,0.6117
574.0,0.6095
575.0,0.5976
576.0,0.5922
577.0,0.5988
578.0,0.5904
579.0,0.5937
580.0,0.6065
581.0,0.6107
582.0,0.6233
583.0,0.6256
584.0,0.6316
585.0,0.6165
586.0,0.6039
587.0,0.6165
588.0,0.5989
589.0,0.5257
590.0,0.5501
591.0,0.5851
592.0,0.576
593.0,0.5868
594.0,0.5817
595.0,0.5656
596.0,0.5919
597.0,0.5845
598.0,0.5842
599.0,0.5853
600.0,0.5872
601.0,0.5832
602.0,0.5793
603.0,0.5893
604.0,0.5993
605.0,0.5964
606.0,0.5944
607.0,0.6008
608.0,0.5946
609.0,0.596
610.0,0.5922
611.0,0.5955
612.0,0.594
613.0,0.5868
614.0,0.5792
615.0,0.5921
616.0,0.5729
617.0,0.572
618.0,0.5942
619.0,0.5883
620.0,0.592
621.0,0.5923
622.0,0.585
623.0,0.5758
624.0,0.5662
625.0,0.565
626.0,0.5733
627.0,0.5787
628.0,0.5292
629.0,0.5611
630.0,0.5478
631.0,0.564
632.0,0.558
633.0,0.5765
634.0,0.5722
635.0,0.5817
636.0,0.5748
637.0,0.5847
638.0,0.5912
639.0,0.585
640.0,0.5799
641.0,0.5799
642.0,0.5778
643.0,0.5856
644.0,0.5842
645.0,0.5849
646.0,0.5699
647.0,0.56
648.0,0.5604
649.0,0.5493
650.0,0.5559
651.0,0.5808
652.0,0.5524
653.0,0.5733
654.0,0.5672
655.0,0.544
656.0,0.4836
657.0,0.4969
658.0,0.5581
659.0,0.5626
660.0,0.5652
661.0,0.5693
662.0,0.5697
663.0,0.5587
664.0,0.5665
665.0,0.5678
666.0,0.5686
667.0,0.5686
668.0,0.5693
669.0,0.5784
670.0,0.5761
671.0,0.5761
672.0,0.5714
673.0,0.5802
674.0,0.5782
675.0,0.5731
676.0,0.5772
677.0,0.5716
678.0,0.5734
679.0,0.5643
680.0,0.5689
681.0,0.5652
682.0,0.5645
683.0,0.5635
684.0,0.5607
685.0,0.5656
686.0,0.5621
687.0,0.3255
688.0,0.4031
689.0,0.4053
690.0,0.4327
691.0,0.4642
692.0,0.4883
693.0,0.4837
694.0,0.4803
695.0,0.5061
696.0,0.5071
697.0,0.5452
698.0,0.5366
699.0,0.519
700.0,0.5125
701.0,0.5056
702.0,0.5109
703.0,0.5122
704.0,0.5314
705.0,0.5322
706.0,0.5329
707.0,0.5337
708.0,0.5347
709.0,0.5374
710.0,0.5364
711.0,0.5363
712.0,0.5356
713.0,0.5294
714.0,0.5316
715.0,0.5129
716.0,0.5127
717.0,0.4272
718.0,0.3904
719.0,0.3562
720.0,0.3714
721.0,0.4203
722.0,0.4919
723.0,0.4523
724.0,0.4009
725.0,0.3922
726.0,0.4113
727.0,0.4215
728.0,0.3904
729.0,0.4111
730.0,0.4342
731.0,0.414
732.0,0.4493
733.0,0.4817
734.0,0.495
735.0,0.4838
736.0,0.483
737.0,0.4849
738.0,0.4968
739.0,0.4871
740.0,0.5011
741.0,0.497
742.0,0.4983
743.0,0.5112
744.0,0.5103
745.0,0.5108
746.0,0.5131
747.0,0.5144
748.0,0.5133
749.0,0.5075
750.0,0.5072
751.0,0.5021
752.0,0.5044
753.0,0.507
754.0,0.5081
755.0,0.5052
756.0,0.505
757.0,0.5058
758.0,0.4994
759.0,0.4864
760.0,0.04453
761.0,0.01892
762.0,0.1998
763.0,0.07843
764.0,0.1356
765.0,0.1996
766.0,0.2666
767.0,0.36
768.0,0.4358
769.0,0.4496
770.0,0.4703
771.0,0.4765
772.0,0.4782
773.0,0.4818
774.0,0.4796
775.0,0.4761
776.0,0.482
777.0,0.4756
778.0,0.4727
779.0,0.4731
780.0,0.4705
781.0,0.471
782.0,0.474
783.0,0.4658
784.0,0.4682
785.0,0.4645
786.0,0.4695
787.0,0.4591
788.0,0.4524
789.0,0.452
790.0,0.437
791.0,0.4437
792.0,0.4409
793.0,0.4335
794.0,0.444
795.0,0.4506
796.0,0.4326
797.0,0.4329
798.0,0.4496
799.0,0.446
800.0,0.4372
801.0,0.4349
802.0,0.4336
803.0,0.4298
804.0,0.4309
805.0,0.4308
806.0,0.4449
807.0,0.4391
808.0,0.4397
809.0,0.4298
810.0,0.4253
811.0,0.4236
812.0,0.4087
813.0,0.3988
814.0,0.3423
815.0,0.3407
816.0,0.3161
817.0,0.3226
818.0,0.3085
819.0,0.3523
820.0,0.3291
821.0,0.3952
822.0,0.3822
823.0,0.2438
824.0,0.3671
825.0,0.3882
826.0,0.3701
827.0,0.394
828.0,0.3241
829.0,0.3686
830.0,0.3628
831.0,0.3642
832.0,0.3513
833.0,0.3785
834.0,0.3619
835.0,0.4048
836.0,0.3827
837.0,0.4061
838.0,0.3911
839.0,0.4005
840.0,0.4099
841.0,0.4031
842.0,0.4055
843.0,0.4069
844.0,0.4004
845.0,0.4151
846.0,0.4136
847.0,0.4064
848.0,0.4031
849.0,0.3916
850.0,0.3753
851.0,0.3966
852.0,0.3942
853.0,0.38
854.0,0.3276
855.0,0.3607
856.0,0.3938
857.0,0.4031
858.0,0.3999
859.0,0.4006
860.0,0.4015
861.0,0.3993
862.0,0.4057
863.0,0.4152
864.0,0.3945
865.0,0.3911
866.0,0.3517
867.0,0.3671
868.0,0.3994
869.0,0.3912
870.0,0.4024
871.0,0.3969
872.0,0.3955
873.0,0.3947
874.0,0.3901
875.0,0.3821
876.0,0.3861
877.0,0.39
878.0,0.3941
879.0,0.3881
880.0,0.3798
881.0,0.3737
882.0,0.3816
883.0,0.3832
884.0,0.3813
885.0,0.3842
886.0,0.3648
887.0,0.3697
888.0,0.3745
889.0,0.38
890.0,0.3754
891.0,0.3755
892.0,0.3627
893.0,0.3494
894.0,0.333
895.0,0.3096
896.0,0.2901
897.0,0.243
898.0,0.2684
899.0,0.1971
900.0,0.2787
901.0,0.2065
902.0,0.2519
903.0,0.2511
904.0,0.3305
905.0,0.3172
906.0,0.2952
907.0,0.23
908.0,0.2363
909.0,0.2601
910.0,0.2223
911.0,0.2423
912.0,0.2543
913.0,0.2252
914.0,0.2248
915.0,0.2434
916.0,0.2047
917.0,0.2675
918.0,0.2093
919.0,0.2749
920.0,0.2829
921.0,0.2943
922.0,0.2574
923.0,0.2848
924.0,0.2627
925.0,0.2572
926.0,0.2593
927.0,0.296
928.0,0.2009
929.0,0.1791
930.0,0.1341
931.0,0.1276
932.0,0.08502
933.0,0.06597
934.0,0.02981
935.0,0.07004
936.0,0.03954
937.0,0.03978
938.0,0.05046
939.0,0.1234
940.0,0.1535
941.0,0.1094
942.0,0.1303
943.0,0.0807
944.0,0.08989
945.0,0.1141
946.0,0.05148
947.0,0.1129
948.0,0.08218
949.0,0.1576
950.0,0.03451
951.0,0.1563
952.0,0.07553
953.0,0.1031
954.0,0.1328
955.0,0.105
956.0,0.1071
957.0,0.07504
958.0,0.1596
959.0,0.1192
960.0,0.1336
961.0,0.156
962.0,0.1471
963.0,0.1748
964.0,0.1586
965.0,0.1744
966.0,0.1734
967.0,0.172
968.0,0.2506
969.0,0.2592
970.0,0.2359
971.0,0.2788
972.0,0.2649
973.0,0.2218
974.0,0.2095
975.0,0.2207
976.0,0.2046
977.0,0.2428
978.0,0.2265
979.0,0.2399
980.0,0.2241
981.0,0.2775
982.0,0.262
983.0,0.2497
984.0,0.2898
985.0,0.261
986.0,0.2974
987.0,0.2886
988.0,0.2883
989.0,0.298
990.0,0.2865
991.0,0.2986
992.0,0.3006
993.0,0.2911
994.0,0.3008
995.0,0.3008
996.0,0.2991
997.0,0.2997
998.0,0.2981
999.0,0.2972
1000.0,0.2944
1001.0,0.2988
1002.0,0.2879
1003.0,0.2934
1004.0,0.2855
1005.0,0.276
1006.0,0.2863
1007.0,0.2926
1008.0,0.2906
1009.0,0.2885
1010.0,0.287
1011.0,0.2912
1012.0,0.2882
1013.0,0.2907
1014.0,0.2886
1015.0,0.2866
1016.0,0.2853
1017.0,0.2859
1018.0,0.2852
1019.0,0.2781
1020.0,0.2835
1021.0,0.2833
1022.0,0.2807
1023.0,0.2836
1024.0,0.2789
1025.0,0.2838
1026.0,0.2823
1027.0,0.2817
1028.0,0.281
1029.0,0.2776
1030.0,0.2799
1031.0,0.2786
1032.0,0.2779
1033.0,0.2737
1034.0,0.2738
1035.0,0.2746
1036.0,0.2759
1037.0,0.2715
1038.0,0.2727
1039.0,0.2724
1040.0,0.2713
1041.0,0.2723
1042.0,0.2704
1043.0,0.2695
1044.0,0.2704
1045.0,0.2666
1046.0,0.2636
1047.0,0.2659
1048.0,0.2673
1049.0,0.2662
1050.0,0.2649
1051.0,0.2644
1052.0,0.2633
1053.0,0.261
1054.0,0.2615
1055.0,0.2615
1056.0,0.2604
1057.0,0.2594
1058.0,0.2529
1059.0,0.253
1060.0,0.2525
1061.0,0.2521
1062.0,0.2533
1063.0,0.2507
1064.0,0.2537
1065.0,0.2515
1066.0,0.2468
1067.0,0.2499
1068.0,0.2441
1069.0,0.2368
1070.0,0.2446
1071.0,0.2493
1072.0,0.2457
1073.0,0.2423
1074.0,0.2497
1075.0,0.2344
1076.0,0.2493
1077.0,0.2433
1078.0,0.238
1079.0,0.2458
1080.0,0.2396
1081.0,0.2305
1082.0,0.2366
1083.0,0.2379
1084.0,0.2294
1085.0,0.2404
1086.0,0.2155
1087.0,0.2251
1088.0,0.2372
1089.0,0.2273
1090.0,0.2208
1091.0,0.2357
1092.0,0.2357
1093.0,0.1926
1094.0,0.2147
1095.0,0.2012
1096.0,0.1906
1097.0,0.2303
1098.0,0.1867
1099.0,0.1958
1100.0,0.1791
1101.0,0.1823
1102.0,0.1722
1103.0,0.1691
1104.0,0.1695
1105.0,0.1907
1106.0,0.1342
1107.0,0.1789
1108.0,0.1447
1109.0,0.1463
1110.0,0.1761
1111.0,0.1103
1112.0,0.1457
1113.0,0.08372
1114.0,0.09417
1115.0,0.07752
1116.0,0.05692
1117.0,0.01624
1118.0,0.06334
1119.0,0.02731
1120.0,0.03389
1121.0,0.04726
1122.0,0.01657
1123.0,0.03081
1124.0,0.02595
1125.0,0.03487
1126.0,0.009007
1127.0,0.03964
1128.0,0.02014
1129.0,0.02177
1130.0,0.0134
1131.0,0.08464
1132.0,0.06456
1133.0,0.03581
1134.0,0.006828
1135.0,0.002711
1136.0,0.02814
1137.0,0.08121
1138.0,0.0563
1139.0,0.09482
1140.0,0.07505
1141.0,0.05362
1142.0,0.06372
1143.0,0.09513
1144.0,0.02837
1145.0,0.03458
1146.0,0.03723
1147.0,0.009975
1148.0,0.08188
1149.0,0.0623
1150.0,0.03134
1151.0,0.05584
1152.0,0.07244
1153.0,0.07351
1154.0,0.03347
1155.0,0.09874
1156.0,0.08672
1157.0,0.1014
1158.0,0.1002
1159.0,0.1106
1160.0,0.09212
1161.0,0.1196
1162.0,0.1196
1163.0,0.1722
1164.0,0.1439
1165.0,0.1319
1166.0,0.134
1167.0,0.1478
1168.0,0.1486
1169.0,0.1533
1170.0,0.1698
1171.0,0.1654
1172.0,0.1704
1173.0,0.1695
1174.0,0.1135
1175.0,0.1673
1176.0,0.1882
1177.0,0.1778
1178.0,0.1278
1179.0,0.1898
1180.0,0.1648
1181.0,0.1703
1182.0,0.1112
1183.0,0.1687
1184.0,0.156
1185.0,0.1486
1186.0,0.1826
1187.0,0.1719
1188.0,0.1121
1189.0,0.1598
1190.0,0.1788
1191.0,0.1658
1192.0,0.1816
1193.0,0.1728
1194.0,0.1789
1195.0,0.1666
1196.0,0.1589
1197.0,0.1802
1198.0,0.1634
1199.0,0.1334
1200.0,0.1704
1201.0,0.1624
1202.0,0.163
1203.0,0.1608
1204.0,0.1381
1205.0,0.1684
1206.0,0.1888
1207.0,0.1618
1208.0,0.1609
1209.0,0.1646
1210.0,0.1728
1211.0,0.1625
1212.0,0.1577
1213.0,0.1812
1214.0,0.1626
1215.0,0.1591
1216.0,0.1809
1217.0,0.175
1218.0,0.1793
1219.0,0.1765
1220.0,0.1796
1221.0,0.182
1222.0,0.1768
1223.0,0.1747
1224.0,0.1726
1225.0,0.1807
1226.0,0.1827
1227.0,0.1657
1228.0,0.1842
1229.0,0.1827
1230.0,0.1791
1231.0,0.186
1232.0,0.1849
1233.0,0.1761
1234.0,0.1864
1235.0,0.1848
1236.0,0.1865
1237.0,0.1828
1238.0,0.1859
1239.0,0.1835
1240.0,0.1843
1241.0,0.1828
1242.0,0.1829
1243.0,0.1815
1244.0,0.1826
1245.0,0.1835
1246.0,0.1824
1247.0,0.1816
1248.0,0.1811
1249.0,0.182
1250.0,0.1807
1251.0,0.178
1252.0,0.1785
1253.0,0.1762
1254.0,0.1738
1255.0,0.1781
1256.0,0.1715
1257.0,0.1702
1258.0,0.1747
1259.0,0.1659
1260.0,0.1671
1261.0,0.1547
1262.0,0.1485
1263.0,0.1486
1264.0,0.1336
1265.0,0.1478
1266.0,0.1401
1267.0,0.144
1268.0,0.1342
1269.0,0.06934
1270.0,0.1429
1271.0,0.1545
1272.0,0.1554
1273.0,0.1534
1274.0,0.1543
1275.0,0.1571
1276.0,0.1593
1277.0,0.1611
1278.0,0.1654
1279.0,0.1638
1280.0,0.1618
1281.0,0.155
1282.0,0.1502
1283.0,0.1616
1284.0,0.1653
1285.0,0.1666
1286.0,0.1693
1287.0,0.1657
1288.0,0.166
1289.0,0.1589
1290.0,0.1646
1291.0,0.1673
1292.0,0.1537
1293.0,0.1632
1294.0,0.1619
1295.0,0.16
1296.0,0.1507
1297.0,0.1409
1298.0,0.1551
1299.0,0.1637
1300.0,0.133
1301.0,0.1381
1302.0,0.1547
1303.0,0.1318
1304.0,0.1073
1305.0,0.1512
1306.0,0.1507
1307.0,0.1115
1308.0,0.1329
1309.0,0.1488
1310.0,0.109
1311.0,0.1263
1312.0,0.122
1313.0,0.1186
1314.0,0.1043
1315.0,0.1018
1316.0,0.1233
1317.0,0.1161
1318.0,0.1284
1319.0,0.09418
1320.0,0.09255
1321.0,0.1099
1322.0,0.1099
1323.0,0.07772
1324.0,0.0926
1325.0,0.121
1326.0,0.1007
1327.0,0.09518
1328.0,0.08037
1329.0,0.05602
1330.0,0.07515
1331.0,0.04058
1332.0,0.04339
1333.0,0.06135
1334.0,0.05485
1335.0,0.07714
1336.0,0.05831
1337.0,0.05059
1338.0,0.05454
1339.0,0.05499
1340.0,0.05488
1341.0,0.05031
1342.0,0.05321
1343.0,0.03043
1344.0,0.01873
1345.0,0.02687
1346.0,0.01036
1347.0,0.01003
1348.0,0.000375
1349.0,0.001551
1350.0,0.001781
1351.0,0.0002605
1352.0,3.755e-05
1353.0,1.128e-06
1354.0,5.778e-06
1355.0,1.414e-08
1356.0,5.388e-07
1357.0,8.225e-07
1358.0,1.756e-08
1359.0,9.325e-10
1360.0,5.835e-09
1361.0,1.556e-12
1362.0,3.185e-15
1363.0,5.477e-09
1364.0,2.389e-09
1365.0,8.842e-16
1366.0,2.973e-08
1367.0,1.569e-08
1368.0,6.152e-18
1369.0,8.762e-10
1370.0,3.063e-10
1371.0,1.258e-11
1372.0,8.843e-09
1373.0,3.17e-07
1374.0,2.254e-06
1375.0,3.752e-06
1376.0,5.346e-06
1377.0,2.257e-06
1378.0,2.471e-05
1379.0,9.574e-07
1380.0,1.015e-06
1381.0,2.212e-08
1382.0,7.098e-09
1383.0,8.403e-11
1384.0,8.414e-10
1385.0,1.072e-08
1386.0,4.788e-09
1387.0,1.665e-06
1388.0,3.857e-08
1389.0,9.631e-06
1390.0,7.963e-06
1391.0,5.054e-06
1392.0,3.081e-07
1393.0,2.02e-06
1394.0,4.848e-07
1395.0,2.468e-09
1396.0,2.496e-12
1397.0,6.824e-07
1398.0,2.59e-05
1399.0,1.696e-05
1400.0,8.028e-13
1401.0,5.03e-12
1402.0,9.34e-05
1403.0,0.0001021
1404.0,2.909e-05
1405.0,8.652e-10
1406.0,5.969e-05
1407.0,6.898e-06
1408.0,5.123e-05
1409.0,1.192e-05
1410.0,1.307e-05
1411.0,9.25e-05
1412.0,0.000149
1413.0,0.002421
1414.0,1.091e-05
1415.0,4.472e-06
1416.0,0.005599
1417.0,0.001257
1418.0,0.001277
1419.0,0.0001848
1420.0,0.0007714
1421.0,0.0008961
1422.0,0.007353
1423.0,0.001331
1424.0,0.002655
1425.0,0.003593
1426.0,0.004742
1427.0,0.01011
1428.0,0.0003322
1429.0,0.006763
1430.0,0.01369
1431.0,0.01558
1432.0,0.0002561
1433.0,0.009205
