interpolation:linear
wavelength,value
280.0,9.668e-21
280.5,2.908e-19
281.0,1.514e-18
281.5,4.644e-19
282.0,1.496e-18
282.5,3.977e-18
283.0,1.285e-17
283.5,2.102e-17
284.0,3.332e-16
284.5,9.489e-16
285.0,1.848e-15
285.5,9.807e-15
286.0,4.003e-14
286.5,1.808e-13
287.0,5.166e-13
287.5,1.965e-12
288.0,5.197e-12
288.5,1.871e-11
289.0,5.688e-11
289.5,1.918e-10
290.0,5.738e-10
290.5,1.238e-09
291.0,2.826e-09
291.5,8.872e-09
292.0,2.151e-08
292.5,3.398e-08
293.0,8.514e-08
293.5,2.586e-07
294.0,4.773e-07
294.5,6.38e-07
295.0,1.277e-06
295.5,3.491e-06
296.0,6.912e-06
296.5,9.926e-06
297.0,1.374e-05
297.5,3.81e-05
298.0,6.183e-05
298.5,6.369e-05
299.0,0.0001438
299.5,0.0002486
300.0,0.0002804
300.5,0.0004174
301.0,0.0007919
301.5,0.001328
302.0,0.001171
302.5,0.002264
303.0,0.004006
303.5,0.004993
304.0,0.004655
304.5,0.006799
305.0,0.009997
305.5,0.01123
306.0,0.01078
306.5,0.01326
307.0,0.01911
307.5,0.02471
308.0,0.02599
308.5,0.03027
309.0,0.02954
309.5,0.03315
310.0,0.033
310.5,0.05322
311.0,0.0663
311.5,0.0638
312.0,0.06274
312.5,0.07549
313.0,0.0814
313.5,0.07949
314.0,0.09805
314.5,0.08537
315.0,0.1118
315.5,0.09439
316.0,0.08121
316.5,0.1151
317.0,0.143
317.5,0.1494
318.0,0.1155
318.5,0.1409
319.0,0.1658
319.5,0.1371
320.0,0.166
320.5,0.2041
321.0,0.1788
321.5,0.1712
322.0,0.1856
322.5,0.1614
323.0,0.1589
323.5,0.1932
324.0,0.2251
324.5,0.2296
325.0,0.1996
325.5,0.2543
326.0,0.3102
326.5,0.3087
327.0,0.3084
327.5,0.2987
328.0,0.2682
328.5,0.2791
329.0,0.3315
329.5,0.3754
330.0,0.3795
330.5,0.3056
331.0,0.3121
331.5,0.3157
332.0,0.3388
332.5,0.3341
333.0,0.3338
333.5,0.3036
334.0,0.3113
334.5,0.3572
335.0,0.3346
335.5,0.3908
336.0,0.2704
336.5,0.3172
337.0,0.2609
337.5,0.3248
338.0,0.3157
338.5,0.3643
339.0,0.3606
339.5,0.3469
340.0,0.4078
340.5,0.3674
341.0,0.3584
341.5,0.329
342.0,0.3932
342.5,0.3679
343.0,0.4047
343.5,0.3811
344.0,0.2817
344.5,0.2846
345.0,0.3765
345.5,0.3844
346.0,0.3267
346.5,0.37
347.0,0.3972
347.5,0.3212
348.0,0.3662
348.5,0.366
349.0,0.3396
349.5,0.3363
350.0,0.4159
350.5,0.4388
351.0,0.392
351.5,0.3811
352.0,0.4093
352.5,0.3194
353.0,0.4024
353.5,0.4303
354.0,0.4467
354.5,0.4531
355.0,0.4516
355.5,0.408
356.0,0.4269
356.5,0.3646
357.0,0.3013
357.5,0.3689
358.0,0.2924
358.5,0.2499
359.0,0.3495
359.5,0.4455
360.0,0.4723
360.5,0.3775
361.0,0.3442
361.5,0.3963
362.0,0.3428
362.5,0.4745
363.0,0.4262
363.5,0.3926
364.0,0.4802
364.5,0.4105
365.0,0.4182
365.5,0.5249
366.0,0.5562
366.5,0.5226
367.0,0.509
367.5,0.5283
368.0,0.4624
368.5,0.4667
369.0,0.504
369.5,0.5373
370.0,0.5728
370.5,0.4446
371.0,0.4752
371.5,0.5946
372.0,0.3947
372.5,0.4733
373.0,0.4815
373.5,0.3133
374.0,0.4553
374.5,0.3771
375.0,0.3667
375.5,0.5475
376.0,0.4539
376.5,0.4704
377.0,0.4981
377.5,0.5829
378.0,0.6319
378.5,0.5973
379.0,0.493
379.5,0.4504
380.0,0.4683
380.5,0.5673
381.0,0.5686
381.5,0.4508
382.0,0.4004
382.5,0.3414
383.0,0.3161
383.5,0.3045
384.0,0.3359
384.5,0.4942
385.0,0.4901
385.5,0.4565
386.0,0.391
386.5,0.5137
387.0,0.4269
387.5,0.4796
388.0,0.4429
388.5,0.4378
389.0,0.4727
389.5,0.5726
390.0,0.5747
390.5,0.529
391.0,0.6227
391.5,0.6353
392.0,0.5351
392.5,0.4791
393.0,0.2666
393.5,0.1938
394.0,0.3945
394.5,0.5017
395.0,0.6122
395.5,0.622
396.0,0.5393
396.5,0.3153
397.0,0.2367
397.5,0.4814
398.0,0.6742
398.5,0.6969
399.0,0.7548
399.5,0.7524
400.0,0.7813
401.0,0.793
402.0,0.8368
403.0,0.7951
404.0,0.783
405.0,0.783
406.0,0.7705
407.0,0.7582
408.0,0.7879
409.0,0.8434
410.0,0.7371
411.0,0.7985
412.0,0.8578
413.0,0.8366
414.0,0.847
415.0,0.8494
416.0,0.8644
417.0,0.8432
418.0,0.8277
419.0,0.8387
420.0,0.8352
421.0,0.8738
422.0,0.8306
423.0,0.8115
424.0,0.8584
425.0,0.8569
426.0,0.8348
427.0,0.8193
428.0,0.7981
429.0,0.7561
430.0,0.6617
431.0,0.656
432.0,0.847
433.0,0.8518
434.0,0.791
435.0,0.8261
436.0,0.9309
437.0,0.9184
438.0,0.8364
439.0,0.8652
440.0,0.8928
441.0,0.9251
442.0,0.9923
443.0,0.9666
444.0,0.9876
445.0,0.9663
446.0,0.9222
447.0,0.9969
448.0,1.013
449.0,1.017
450.0,1.045
451.0,1.084
452.0,1.044
453.0,0.9822
454.0,1.025
455.0,1.032
456.0,1.056
457.0,1.074
458.0,1.037
459.0,1.032
460.0,1.035
461.0,1.059
462.0,1.067
463.0,1.06
464.0,1.042
465.0,1.029
466.0,1.039
467.0,1.02
468.0,1.032
469.0,1.037
470.0,1.004
471.0,1.003
472.0,1.057
473.0,1.043
474.0,1.045
475.0,1.054
476.0,1.022
477.0,1.025
478.0,1.054
479.0,1.047
480.0,1.049
481.0,1.069
482.0,1.074
483.0,1.061
484.0,1.039
485.0,0.9902
486.0,0.8655
487.0,0.907
488.0,0.9951
489.0,0.9983
490.0,1.05
491.0,1.032
492.0,0.9746
493.0,1.007
494.0,1.017
495.0,1.025
496.0,1.032
497.0,1.048
498.0,0.9986
499.0,1.011
500.0,0.982
501.0,0.9641
502.0,0.9507
503.0,0.9895
504.0,0.9648
505.0,0.999
506.0,1.031
507.0,0.9813
508.0,0.9506
509.0,0.9772
510.0,0.972
511.0,0.9979
512.0,1.009
513.0,0.9547
514.0,0.9482
515.0,0.9387
516.0,0.9364
517.0,0.8321
518.0,0.8748
519.0,0.9175
520.0,0.9509
521.0,0.96
522.0,0.9609
523.0,0.9436
524.0,0.9774
525.0,0.9891
526.0,0.9449
527.0,0.8904
528.0,0.9418
529.0,0.9928
530.0,0.9786
531.0,0.9931
532.0,0.959
533.0,0.9309
534.0,0.9584
535.0,0.9793
536.0,0.9882
537.0,0.9492
538.0,0.9659
539.0,0.9578
540.0,0.9183
541.0,0.9246
542.0,0.9536
543.0,0.9434
544.0,0.9599
545.0,0.9569
546.0,0.9612
547.0,0.9607
548.0,0.9492
549.0,0.952
550.0,0.9633
551.0,0.9516
552.0,0.9582
553.0,0.9411
554.0,0.9636
555.0,0.9656
556.0,0.953
557.0,0.9234
558.0,0.9165
559.0,0.8995
560.0,0.9108
561.0,0.9226
562.0,0.916
563.0,0.9411
564.0,0.9155
565.0,0.9077
566.0,0.8944
567.0,0.9114
568.0,0.9035
569.0,0.8823
570.0,0.882
571.0,0.8766
572.0,0.8979
573.0,0.9075
574.0,0.9047
575.0,0.8879
576.0,0.8798
577.0,0.8893
578.0,0.8759
579.0,0.8792
580.0,0.8957
581.0,0.9001
582.0,0.917
583.0,0.9191
584.0,0.927
585.0,0.9043
586.0,0.8857
587.0,0.9052
588.0,0.8837
589.0,0.7837
590.0,0.8195
591.0,0.8667
592.0,0.856
593.0,0.8683
594.0,0.8625
595.0,0.8415
596.0,0.874
597.0,0.8647
598.0,0.8623
599.0,0.8629
600.0,0.8641
601.0,0.8569
602.0,0.851
603.0,0.8651
604.0,0.8793
605.0,0.8748
606.0,0.8711
607.0,0.8797
608.0,0.8699
609.0,0.8713
610.0,0.865
611.0,0.8695
612.0,0.8669
613.0,0.856
614.0,0.8442
615.0,0.8626
616.0,0.8341
617.0,0.8324
618.0,0.8644
619.0,0.8556
620.0,0.861
621.0,0.8619
622.0,0.8519
623.0,0.839
624.0,0.8245
625.0,0.8227
626.0,0.8349
627.0,0.8443
628.0,0.7901
629.0,0.8249
630.0,0.806
631.0,0.8236
632.0,0.8137
633.0,0.8382
634.0,0.8299
635.0,0.8427
636.0,0.8314
637.0,0.845
638.0,0.853
639.0,0.8434
640.0,0.8351
641.0,0.8345
642.0,0.8307
643.0,0.8419
644.0,0.8391
645.0,0.8405
646.0,0.821
647.0,0.8117
648.0,0.8125
649.0,0.7968
650.0,0.8001
651.0,0.8347
652.0,0.8006
653.0,0.8236
654.0,0.8144
655.0,0.7844
656.0,0.695
657.0,0.7136
658.0,0.7996
659.0,0.8052
660.0,0.8086
661.0,0.8142
662.0,0.816
663.0,0.7998
664.0,0.8091
665.0,0.8097
666.0,0.8102
667.0,0.8094
668.0,0.8097
669.0,0.8222
670.0,0.8186
671.0,0.8184
672.0,0.8114
673.0,0.8236
674.0,0.8205
675.0,0.813
676.0,0.8186
677.0,0.8104
678.0,0.8127
679.0,0.7996
680.0,0.8059
681.0,0.8006
682.0,0.7996
683.0,0.7981
684.0,0.7941
685.0,0.8009
686.0,0.7961
687.0,0.5353
688.0,0.6241
689.0,0.6263
690.0,0.6558
691.0,0.689
692.0,0.7132
693.0,0.7074
694.0,0.7015
695.0,0.7297
696.0,0.7307
697.0,0.7745
698.0,0.7625
699.0,0.7449
700.0,0.7359
701.0,0.7286
702.0,0.7334
703.0,0.7348
704.0,0.7579
705.0,0.759
706.0,0.7582
707.0,0.7587
708.0,0.7604
709.0,0.7612
710.0,0.7613
711.0,0.7602
712.0,0.7578
713.0,0.7503
714.0,0.7531
715.0,0.7295
716.0,0.73
717.0,0.6356
718.0,0.5842
719.0,0.5353
720.0,0.561
721.0,0.6178
722.0,0.7052
723.0,0.6573
724.0,0.5932
725.0,0.584
726.0,0.6112
727.0,0.6193
728.0,0.5826
729.0,0.6036
730.0,0.6387
731.0,0.6113
732.0,0.653
733.0,0.6903
734.0,0.7065
735.0,0.692
736.0,0.6911
737.0,0.6939
738.0,0.704
739.0,0.6901
740.0,0.7079
741.0,0.7008
742.0,0.7013
743.0,0.7191
744.0,0.717
745.0,0.7171
746.0,0.7204
747.0,0.722
748.0,0.7204
749.0,0.7122
750.0,0.7118
751.0,0.7046
752.0,0.7076
753.0,0.7112
754.0,0.7128
755.0,0.7087
756.0,0.7084
757.0,0.7094
758.0,0.7006
759.0,0.6867
760.0,0.1195
761.0,0.06357
762.0,0.3568
763.0,0.1809
764.0,0.2697
765.0,0.3568
766.0,0.4357
767.0,0.5475
768.0,0.6299
769.0,0.6427
770.0,0.6641
771.0,0.6693
772.0,0.6706
773.0,0.6753
774.0,0.672
775.0,0.6669
776.0,0.675
777.0,0.6661
778.0,0.6621
779.0,0.6626
780.0,0.6589
781.0,0.6596
782.0,0.6637
783.0,0.6521
784.0,0.6553
785.0,0.6504
786.0,0.6576
787.0,0.6463
788.0,0.6384
789.0,0.6382
790.0,0.6215
791.0,0.6266
792.0,0.6219
793.0,0.6119
794.0,0.622
795.0,0.6326
796.0,0.6136
797.0,0.6144
798.0,0.6319
799.0,0.628
800.0,0.6171
801.0,0.6153
802.0,0.6135
803.0,0.6089
804.0,0.6097
805.0,0.6077
806.0,0.6245
807.0,0.6171
808.0,0.6176
809.0,0.6062
810.0,0.6013
811.0,0.6023
812.0,0.5853
813.0,0.5733
814.0,0.5053
815.0,0.5022
816.0,0.4675
817.0,0.476
818.0,0.4584
819.0,0.5116
820.0,0.4822
821.0,0.5625
822.0,0.5466
823.0,0.3734
824.0,0.5311
825.0,0.5528
826.0,0.5321
827.0,0.5612
828.0,0.4767
829.0,0.5288
830.0,0.522
831.0,0.5238
832.0,0.5079
833.0,0.5399
834.0,0.5211
835.0,0.5719
836.0,0.5478
837.0,0.5734
838.0,0.5557
839.0,0.5648
840.0,0.5771
841.0,0.569
842.0,0.5701
843.0,0.5697
844.0,0.5618
845.0,0.5807
846.0,0.5782
847.0,0.5674
848.0,0.5639
849.0,0.5479
850.0,0.5249
851.0,0.5558
852.0,0.5519
853.0,0.5312
854.0,0.4586
855.0,0.5039
856.0,0.5507
857.0,0.5629
858.0,0.5588
859.0,0.5593
860.0,0.5603
861.0,0.5572
862.0,0.5659
863.0,0.5793
864.0,0.5504
865.0,0.5455
866.0,0.4905
867.0,0.5119
868.0,0.557
869.0,0.5455
870.0,0.561
871.0,0.5534
872.0,0.5514
873.0,0.5503
874.0,0.5438
875.0,0.5328
876.0,0.5383
877.0,0.5438
878.0,0.5497
879.0,0.5412
880.0,0.5296
881.0,0.5217
882.0,0.5329
883.0,0.5346
884.0,0.5322
885.0,0.5362
886.0,0.511
887.0,0.5164
888.0,0.524
889.0,0.53
890.0,0.5255
891.0,0.5247
892.0,0.5095
893.0,0.4935
894.0,0.4761
895.0,0.4497
896.0,0.4236
897.0,0.3637
898.0,0.397
899.0,0.3018
900.0,0.4066
901.0,0.3163
902.0,0.3715
903.0,0.3751
904.0,0.4725
905.0,0.4562
906.0,0.4269
907.0,0.3465
908.0,0.3534
909.0,0.383
910.0,0.3385
911.0,0.3609
912.0,0.3774
913.0,0.3435
914.0,0.3406
915.0,0.3692
916.0,0.3124
917.0,0.3969
918.0,0.3203
919.0,0.4042
920.0,0.4085
921.0,0.4249
922.0,0.3796
923.0,0.4105
924.0,0.389
925.0,0.3806
926.0,0.3847
927.0,0.4309
928.0,0.3152
929.0,0.2874
930.0,0.2253
931.0,0.2135
932.0,0.1531
933.0,0.1241
934.0,0.06721
935.0,0.1273
936.0,0.07894
937.0,0.07994
938.0,0.09853
939.0,0.2069
940.0,0.2494
941.0,0.1875
942.0,0.2176
943.0,0.1425
944.0,0.1506
945.0,0.1935
946.0,0.09764
947.0,0.1941
948.0,0.1425
949.0,0.2607
950.0,0.07112
951.0,0.2569
952.0,0.1369
953.0,0.1775
954.0,0.2185
955.0,0.1796
956.0,0.1749
957.0,0.137
958.0,0.249
959.0,0.1969
960.0,0.2207
961.0,0.2484
962.0,0.2349
963.0,0.2715
964.0,0.2485
965.0,0.2706
966.0,0.2704
967.0,0.2692
968.0,0.3633
969.0,0.3793
970.0,0.348
971.0,0.3994
972.0,0.3819
973.0,0.3314
974.0,0.3144
975.0,0.3268
976.0,0.3097
977.0,0.3536
978.0,0.3354
979.0,0.3517
980.0,0.3304
981.0,0.3971
982.0,0.3794
983.0,0.364
984.0,0.4096
985.0,0.3779
986.0,0.4171
987.0,0.4087
988.0,0.4079
989.0,0.416
990.0,0.4055
991.0,0.4172
992.0,0.4197
993.0,0.41
994.0,0.4196
995.0,0.4191
996.0,0.4172
997.0,0.4178
998.0,0.4158
999.0,0.4143
1000.0,0.4113
1001.0,0.4165
1002.0,0.4048
1003.0,0.4092
1004.0,0.3991
1005.0,0.3846
1006.0,0.3995
1007.0,0.408
1008.0,0.4058
1009.0,0.4035
1010.0,0.4018
1011.0,0.406
1012.0,0.4024
1013.0,0.405
1014.0,0.4022
1015.0,0.3995
1016.0,0.3977
1017.0,0.3987
1018.0,0.3972
1019.0,0.3886
1020.0,0.3951
1021.0,0.3946
1022.0,0.3915
1023.0,0.3956
1024.0,0.3903
1025.0,0.3954
1026.0,0.3937
1027.0,0.3928
1028.0,0.3919
1029.0,0.3873
1030.0,0.39
1031.0,0.3884
1032.0,0.3873
1033.0,0.3815
1034.0,0.3815
1035.0,0.3827
1036.0,0.3846
1037.0,0.3784
1038.0,0.3801
1039.0,0.3798
1040.0,0.3783
1041.0,0.3798
1042.0,0.3771
1043.0,0.3759
1044.0,0.3772
1045.0,0.3721
1046.0,0.368
1047.0,0.3713
1048.0,0.3733
1049.0,0.372
1050.0,0.3703
1051.0,0.3697
1052.0,0.3682
1053.0,0.3653
1054.0,0.366
1055.0,0.3662
1056.0,0.3649
1057.0,0.3638
1058.0,0.3548
1059.0,0.3552
1060.0,0.3546
1061.0,0.3542
1062.0,0.356
1063.0,0.3525
1064.0,0.3567
1065.0,0.3541
1066.0,0.3471
1067.0,0.3516
1068.0,0.3439
1069.0,0.3333
1070.0,0.3445
1071.0,0.35
1072.0,0.3459
1073.0,0.3409
1074.0,0.3499
1075.0,0.332
1076.0,0.3495
1077.0,0.3431
1078.0,0.3365
1079.0,0.344
1080.0,0.3378
1081.0,0.3268
1082.0,0.3324
1083.0,0.3335
1084.0,0.3259
1085.0,0.3386
1086.0,0.3085
1087.0,0.3188
1088.0,0.333
1089.0,0.3225
1090.0,0.3152
1091.0,0.3319
1092.0,0.3311
1093.0,0.2798
1094.0,0.3028
1095.0,0.2916
1096.0,0.279
1097.0,0.3234
1098.0,0.2745
1099.0,0.2865
1100.0,0.2659
1101.0,0.2693
1102.0,0.257
1103.0,0.2543
1104.0,0.2547
1105.0,0.2798
1106.0,0.2125
1107.0,0.2655
1108.0,0.2241
1109.0,0.2247
1110.0,0.263
1111.0,0.1771
1112.0,0.223
1113.0,0.1406
1114.0,0.1573
1115.0,0.1303
1116.0,0.1032
1117.0,0.03699
1118.0,0.1126
1119.0,0.05512
1120.0,0.06933
1121.0,0.09249
1122.0,0.03825
1123.0,0.06268
1124.0,0.0529
1125.0,0.0692
1126.0,0.02341
1127.0,0.07812
1128.0,0.046
1129.0,0.04891
1130.0,0.0319
1131.0,0.1499
1132.0,0.1173
1133.0,0.07336
1134.0,0.01819
1135.0,0.006849
1136.0,0.06085
1137.0,0.147
1138.0,0.1033
1139.0,0.156
1140.0,0.1296
1141.0,0.09822
1142.0,0.1134
1143.0,0.1617
1144.0,0.05559
1145.0,0.07078
1146.0,0.07632
1147.0,0.02614
1148.0,0.1399
1149.0,0.1112
1150.0,0.05988
1151.0,0.1025
1152.0,0.1269
1153.0,0.1241
1154.0,0.06849
1155.0,0.1627
1156.0,0.1461
1157.0,0.1645
1158.0,0.1627
1159.0,0.1759
1160.0,0.1499
1161.0,0.1855
1162.0,0.1864
1163.0,0.2528
1164.0,0.2165
1165.0,0.2039
1166.0,0.2027
1167.0,0.221
1168.0,0.2233
1169.0,0.2288
1170.0,0.2489
1171.0,0.2426
1172.0,0.2471
1173.0,0.2483
1174.0,0.1769
1175.0,0.2427
1176.0,0.2669
1177.0,0.2562
1178.0,0.1921
1179.0,0.2691
1180.0,0.24
1181.0,0.2477
1182.0,0.1707
1183.0,0.244
1184.0,0.2286
1185.0,0.2205
1186.0,0.2616
1187.0,0.2491
1188.0,0.1736
1189.0,0.2321
1190.0,0.2556
1191.0,0.2427
1192.0,0.2592
1193.0,0.2484
1194.0,0.256
1195.0,0.2421
1196.0,0.2332
1197.0,0.2562
1198.0,0.2344
1199.0,0.1993
1200.0,0.2453
1201.0,0.2366
1202.0,0.2352
1203.0,0.2332
1204.0,0.2039
1205.0,0.2406
1206.0,0.2658
1207.0,0.2346
1208.0,0.2309
1209.0,0.2356
1210.0,0.2454
1211.0,0.2338
1212.0,0.231
1213.0,0.2571
1214.0,0.2365
1215.0,0.232
1216.0,0.2562
1217.0,0.2495
1218.0,0.2542
1219.0,0.251
1220.0,0.2544
1221.0,0.2569
1222.0,0.2503
1223.0,0.248
1224.0,0.2464
1225.0,0.2553
1226.0,0.257
1227.0,0.2371
1228.0,0.2582
1229.0,0.257
1230.0,0.2526
1231.0,0.2598
1232.0,0.2582
1233.0,0.2494
1234.0,0.2595
1235.0,0.2579
1236.0,0.2598
1237.0,0.2562
1238.0,0.2589
1239.0,0.2556
1240.0,0.2565
1241.0,0.2553
1242.0,0.2548
1243.0,0.2527
1244.0,0.2545
1245.0,0.2556
1246.0,0.2541
1247.0,0.2531
1248.0,0.2529
1249.0,0.2537
1250.0,0.2522
1251.0,0.249
1252.0,0.249
1253.0,0.247
1254.0,0.2446
1255.0,0.2487
1256.0,0.2418
1257.0,0.2405
1258.0,0.245
1259.0,0.2362
1260.0,0.2374
1261.0,0.2242
1262.0,0.2175
1263.0,0.2179
1264.0,0.2012
1265.0,0.2165
1266.0,0.2084
1267.0,0.212
1268.0,0.2011
1269.0,0.1251
1270.0,0.2112
1271.0,0.2234
1272.0,0.2241
1273.0,0.2217
1274.0,0.2224
1275.0,0.2256
1276.0,0.2278
1277.0,0.2293
1278.0,0.2337
1279.0,0.2316
1280.0,0.2286
1281.0,0.2181
1282.0,0.2102
1283.0,0.2264
1284.0,0.2318
1285.0,0.2333
1286.0,0.2364
1287.0,0.2328
1288.0,0.2327
1289.0,0.2255
1290.0,0.2307
1291.0,0.2339
1292.0,0.2199
1293.0,0.2294
1294.0,0.2278
1295.0,0.2267
1296.0,0.2165
1297.0,0.2048
1298.0,0.2204
1299.0,0.2297
1300.0,0.1945
1301.0,0.2005
1302.0,0.2197
1303.0,0.192
1304.0,0.1638
1305.0,0.2152
1306.0,0.2152
1307.0,0.1673
1308.0,0.1923
1309.0,0.2135
1310.0,0.1641
1311.0,0.1844
1312.0,0.1794
1313.0,0.1759
1314.0,0.1575
1315.0,0.1554
1316.0,0.1814
1317.0,0.1719
1318.0,0.1868
1319.0,0.146
1320.0,0.1415
1321.0,0.1648
1322.0,0.1664
1323.0,0.1252
1324.0,0.1432
1325.0,0.1788
1326.0,0.1535
1327.0,0.1463
1328.0,0.1262
1329.0,0.09459
1330.0,0.1232
1331.0,0.07412
1332.0,0.07664
1333.0,0.1067
1334.0,0.09053
1335.0,0.1247
1336.0,0.09846
1337.0,0.08697
1338.0,0.09412
1339.0,0.09375
1340.0,0.09126
1341.0,0.08892
1342.0,0.09342
1343.0,0.06282
1344.0,0.03764
1345.0,0.05432
1346.0,0.02668
1347.0,0.02707
1348.0,0.001719
1349.0,0.006217
1350.0,0.006487
1351.0,0.001548
1352.0,0.0004103
1353.0,2.055e-05
1354.0,7.173e-05
1355.0,5.572e-07
1356.0,1.003e-05
1357.0,1.529e-05
1358.0,6.61e-07
1359.0,8.11e-08
1360.0,2.996e-07
1361.0,3.158e-10
1362.0,8.44e-13
1363.0,4.027e-07
1364.0,1.665e-07
1365.0,2.873e-13
1366.0,1.774e-06
1367.0,7.303e-07
1368.0,2.093e-15
1369.0,6.216e-08
1370.0,3.033e-08
1371.0,1.698e-09
1372.0,4.02e-07
1373.0,8.285e-06
1374.0,3.906e-05
1375.0,7.1e-05
1376.0,6.461e-05
1377.0,2.951e-05
1378.0,0.000291
1379.0,1.239e-05
1380.0,1.771e-05
1381.0,4.591e-07
1382.0,3.614e-07
1383.0,5.359e-09
1384.0,7e-08
1385.0,3.465e-07
1386.0,3.195e-07
1387.0,4.023e-05
1388.0,7.936e-07
1389.0,0.0001387
1390.0,0.0001194
1391.0,7.938e-05
1392.0,5.138e-06
1393.0,2.75e-05
1394.0,1.39e-05
1395.0,1.006e-07
1396.0,4.59e-10
1397.0,1.089e-05
1398.0,0.0003265
1399.0,0.0002072
1400.0,1.953e-10
1401.0,8.31e-10
1402.0,0.00059
1403.0,0.0007385
1404.0,0.0002246
1405.0,4.849e-08
1406.0,0.0005804
1407.0,5.153e-05
1408.0,0.0004754
1409.0,0.0001572
1410.0,0.0001271
1411.0,0.00065
1412.0,0.0008839
1413.0,0.009363
1414.0,0.0001005
1415.0,4.79e-05
1416.0,0.01575
1417.0,0.004619
1418.0,0.005237
1419.0,0.0008063
1420.0,0.003199
1421.0,0.003462
1422.0,0.02059
1423.0,0.00395
1424.0,0.007448
1425.0,0.01089
1426.0,0.01255
1427.0,0.02351
1428.0,0.001611
1429.0,0.01736
1430.0,0.03017
1431.0,0.0333
1432.0,0.001265
1433.0,0.02096
1434.0,0.01055
1435.0,0.01017
1436.0,0.02022
1437.0,0.0155
1438.0,0.006384
1439.0,0.02776
1440.0,0.02078
1441.0,0.01552
1442.0,0.01725
1443.0,0.02216
