interpolation:linear
wavelength,value
280.0,1.6510000000000001e-21
280.5,5.2560000000000004e-20
281.0,2.787e-19
281.5,4.611e-19
282.0,1.013e-18
282.5,2.568e-18
283.0,8.16e-18
283.5,1.329e-17
284.0,2.151e-16
284.5,6.213e-16
285.0,1.314e-15
285.5,6.304e-15
286.0,2.515e-14
286.5,1.108e-13
287.0,3.138e-13
287.5,1.19e-12
288.0,3.438e-12
288.5,1.101e-11
289.0,3.042e-11
289.5,9.428e-11
290.0,2.657e-10
290.5,5.471e-10
291.0,1.185e-09
291.5,3.425e-09
292.0,6.99e-09
292.5,1.029e-08
293.0,2.339e-08
293.5,6.142e-08
294.0,1.012e-07
294.5,1.318e-07
295.0,2.342e-07
295.5,5.697e-07
296.0,1.081e-06
296.5,1.573e-06
297.0,2.207e-06
297.5,6.301e-06
298.0,1.055e-05
298.5,1.118e-05
299.0,2.605e-05
299.5,4.809e-05
300.0,5.652e-05
300.5,8.815e-05
301.0,0.0001825
301.5,0.0003372
302.0,0.0003157
302.5,0.0006298
303.0,0.001163
303.5,0.001492
304.0,0.001422
304.5,0.002201
305.0,0.003507
305.5,0.004142
306.0,0.004057
306.5,0.005152
307.0,0.007972
307.5,0.01103
308.0,0.01173
308.5,0.01412
309.0,0.01404
309.5,0.01644
310.0,0.01669
310.5,0.02718
311.0,0.03442
311.5,0.03336
312.0,0.03399
312.5,0.04187
313.0,0.04571
313.5,0.04414
314.0,0.056
314.5,0.05061
315.0,0.06675
315.5,0.05535
316.0,0.04909
316.5,0.07142
317.0,0.08866
317.5,0.09196
318.0,0.07238
318.5,0.09138
319.0,0.1094
319.5,0.08799
320.0,0.1061
320.5,0.1351
321.0,0.1221
321.5,0.1172
322.0,0.123
322.5,0.1072
323.0,0.1078
323.5,0.1337
324.0,0.1564
324.5,0.1582
325.0,0.136
325.5,0.1764
326.0,0.2161
326.5,0.2175
327.0,0.2165
327.5,0.2087
328.0,0.1847
328.5,0.1956
329.0,0.2357
329.5,0.2682
330.0,0.2702
330.5,0.2153
331.0,0.2191
331.5,0.2235
332.0,0.2427
332.5,0.2407
333.0,0.2397
333.5,0.2162
334.0,0.2215
334.5,0.2567
335.0,0.2419
335.5,0.2826
336.0,0.1956
336.5,0.2288
337.0,0.1875
337.5,0.2331
338.0,0.2284
338.5,0.2639
339.0,0.2613
339.5,0.2514
340.0,0.2954
340.5,0.2665
341.0,0.26
341.5,0.2389
342.0,0.2856
342.5,0.2673
343.0,0.294
343.5,0.2769
344.0,0.2047
344.5,0.2068
345.0,0.2739
345.5,0.2798
346.0,0.2379
346.5,0.2695
347.0,0.2894
347.5,0.234
348.0,0.267
348.5,0.267
349.0,0.2478
349.5,0.2455
350.0,0.3037
350.5,0.3205
351.0,0.2863
351.5,0.2783
352.0,0.2991
352.5,0.2335
353.0,0.2943
353.5,0.3148
354.0,0.327
354.5,0.3317
355.0,0.3306
355.5,0.2989
356.0,0.3128
356.5,0.2672
357.0,0.2208
357.5,0.2704
358.0,0.2144
358.5,0.1832
359.0,0.2564
359.5,0.3267
360.0,0.3465
360.5,0.277
361.0,0.2527
361.5,0.2911
362.0,0.2519
362.5,0.3489
363.0,0.3135
363.5,0.2889
364.0,0.3535
364.5,0.3023
365.0,0.308
365.5,0.3867
366.0,0.4099
366.5,0.3853
367.0,0.3754
367.5,0.3897
368.0,0.3412
368.5,0.3444
369.0,0.3721
369.5,0.3968
370.0,0.4231
370.5,0.3286
371.0,0.3512
371.5,0.4396
372.0,0.2918
372.5,0.35
373.0,0.3562
373.5,0.2319
374.0,0.3371
374.5,0.2793
375.0,0.2716
375.5,0.4056
376.0,0.3363
376.5,0.3486
377.0,0.3693
377.5,0.4322
378.0,0.4686
378.5,0.443
379.0,0.3657
379.5,0.3341
380.0,0.3475
380.5,0.4211
381.0,0.4222
381.5,0.3348
382.0,0.2975
382.5,0.2538
383.0,0.235
383.5,0.2265
384.0,0.2499
384.5,0.3678
385.0,0.3648
385.5,0.3399
386.0,0.2913
386.5,0.3828
387.0,0.3182
387.5,0.3575
388.0,0.3302
388.5,0.3265
389.0,0.3526
389.5,0.4272
390.0,0.4289
390.5,0.3949
391.0,0.465
391.5,0.4744
392.0,0.3997
392.5,0.358
393.0,0.1993
393.5,0.1449
394.0,0.295
394.5,0.3752
395.0,0.458
395.5,0.4654
396.0,0.4036
396.5,0.2361
397.0,0.1772
397.5,0.3605
398.0,0.505
398.5,0.5221
399.0,0.5657
399.5,0.564
400.0,0.5858
401.0,0.5932
402.0,0.6264
403.0,0.5955
404.0,0.5866
405.0,0.5869
406.0,0.5778
407.0,0.5689
408.0,0.5913
409.0,0.6332
410.0,0.5536
411.0,0.6001
412.0,0.645
413.0,0.6292
414.0,0.6373
415.0,0.6394
416.0,0.6511
417.0,0.6353
418.0,0.6239
419.0,0.6324
420.0,0.6299
421.0,0.6593
422.0,0.627
423.0,0.6127
424.0,0.6483
425.0,0.6474
426.0,0.6311
427.0,0.6196
428.0,0.6037
429.0,0.5723
430.0,0.5011
431.0,0.4967
432.0,0.6417
433.0,0.6455
434.0,0.5996
435.0,0.6263
436.0,0.7062
437.0,0.6971
438.0,0.6351
439.0,0.6567
440.0,0.6779
441.0,0.7028
442.0,0.754
443.0,0.7344
444.0,0.7507
445.0,0.7345
446.0,0.7015
447.0,0.7588
448.0,0.7705
449.0,0.7741
450.0,0.7961
451.0,0.8258
452.0,0.7959
453.0,0.7488
454.0,0.7821
455.0,0.7871
456.0,0.806
457.0,0.8195
458.0,0.7914
459.0,0.7875
460.0,0.7896
461.0,0.8079
462.0,0.8145
463.0,0.8089
464.0,0.796
465.0,0.7864
466.0,0.7944
467.0,0.7798
468.0,0.7891
469.0,0.7933
470.0,0.768
471.0,0.7671
472.0,0.8083
473.0,0.7979
474.0,0.7988
475.0,0.8054
476.0,0.781
477.0,0.7829
478.0,0.8048
479.0,0.8002
480.0,0.8019
481.0,0.8173
482.0,0.8219
483.0,0.8125
484.0,0.7961
485.0,0.7587
486.0,0.6635
487.0,0.6956
488.0,0.7632
489.0,0.7654
490.0,0.8055
491.0,0.7918
492.0,0.7478
493.0,0.7723
494.0,0.7802
495.0,0.7869
496.0,0.7918
497.0,0.804
498.0,0.7664
499.0,0.7761
500.0,0.7533
501.0,0.7392
502.0,0.7284
503.0,0.7576
504.0,0.7369
505.0,0.7645
506.0,0.7892
507.0,0.751
508.0,0.7281
509.0,0.7489
510.0,0.7452
511.0,0.7655
512.0,0.774
513.0,0.7326
514.0,0.7277
515.0,0.7205
516.0,0.7187
517.0,0.6387
518.0,0.6714
519.0,0.7042
520.0,0.7298
521.0,0.7367
522.0,0.7372
523.0,0.7239
524.0,0.7496
525.0,0.758
526.0,0.724
527.0,0.682
528.0,0.721
529.0,0.7598
530.0,0.7488
531.0,0.7598
532.0,0.7336
533.0,0.7121
534.0,0.7333
535.0,0.7495
536.0,0.7565
537.0,0.7268
538.0,0.7398
539.0,0.7335
540.0,0.7032
541.0,0.7074
542.0,0.7294
543.0,0.722
544.0,0.7342
545.0,0.732
546.0,0.7349
547.0,0.7349
548.0,0.7262
549.0,0.7286
550.0,0.7372
551.0,0.7284
552.0,0.7334
553.0,0.7202
554.0,0.7374
555.0,0.7388
556.0,0.7291
557.0,0.7063
558.0,0.7008
559.0,0.6875
560.0,0.6959
561.0,0.7047
562.0,0.6994
563.0,0.7182
564.0,0.6983
565.0,0.6921
566.0,0.6817
567.0,0.6944
568.0,0.6874
569.0,0.6696
570.0,0.6696
571.0,0.666
572.0,0.681
573.0,0.6881
574.0,0.6857
575.0,0.6725
576.0,0.6664
577.0,0.6738
578.0,0.6641
579.0,0.6674
580.0,0.6812
581.0,0.6855
582.0,0.6992
583.0,0.7015
584.0,0.708
585.0,0.691
586.0,0.6768
587.0,0.6911
588.0,0.6725
589.0,0.5922
590.0,0.6196
591.0,0.6578
592.0,0.6482
593.0,0.6595
594.0,0.6542
595.0,0.6367
596.0,0.6648
597.0,0.6569
598.0,0.6561
599.0,0.6571
600.0,0.6588
601.0,0.654
602.0,0.6496
603.0,0.6606
604.0,0.6717
605.0,0.6684
606.0,0.666
607.0,0.6729
608.0,0.6658
609.0,0.6672
610.0,0.6628
611.0,0.6664
612.0,0.6647
613.0,0.6565
614.0,0.6478
615.0,0.6622
616.0,0.6406
617.0,0.6394
618.0,0.6642
619.0,0.6575
620.0,0.6617
621.0,0.6621
622.0,0.6541
623.0,0.6439
624.0,0.6331
625.0,0.6317
626.0,0.641
627.0,0.6475
628.0,0.5965
629.0,0.6293
630.0,0.6145
631.0,0.6312
632.0,0.6242
633.0,0.6443
634.0,0.6389
635.0,0.6493
636.0,0.6413
637.0,0.6522
638.0,0.6591
639.0,0.652
640.0,0.6461
641.0,0.6459
642.0,0.6433
643.0,0.652
644.0,0.6503
645.0,0.6511
646.0,0.635
647.0,0.6252
648.0,0.6257
649.0,0.6133
650.0,0.6192
651.0,0.6466
652.0,0.6166
653.0,0.6381
654.0,0.6313
655.0,0.6063
656.0,0.5384
657.0,0.5531
658.0,0.6207
659.0,0.6255
660.0,0.6283
661.0,0.6328
662.0,0.6336
663.0,0.6213
664.0,0.6294
665.0,0.6306
666.0,0.6313
667.0,0.6311
668.0,0.6317
669.0,0.6417
670.0,0.639
671.0,0.639
672.0,0.6337
673.0,0.6434
674.0,0.6411
675.0,0.6354
676.0,0.6399
677.0,0.6336
678.0,0.6355
679.0,0.6254
680.0,0.6304
681.0,0.6263
682.0,0.6256
683.0,0.6244
684.0,0.6213
685.0,0.6267
686.0,0.6228
687.0,0.3785
688.0,0.4597
689.0,0.4619
690.0,0.4901
691.0,0.5222
692.0,0.5465
693.0,0.5415
694.0,0.5373
695.0,0.5639
696.0,0.5649
697.0,0.6047
698.0,0.5952
699.0,0.5775
700.0,0.5703
701.0,0.5633
702.0,0.5686
703.0,0.5698
704.0,0.5901
705.0,0.591
706.0,0.5913
707.0,0.5921
708.0,0.5933
709.0,0.5955
710.0,0.5948
711.0,0.5944
712.0,0.5933
713.0,0.5867
714.0,0.5891
715.0,0.5691
716.0,0.5691
717.0,0.4808
718.0,0.44
719.0,0.4019
720.0,0.4198
721.0,0.4711
722.0,0.5471
723.0,0.5052
724.0,0.4502
725.0,0.4413
726.0,0.4625
727.0,0.4723
728.0,0.4396
729.0,0.4606
730.0,0.4869
731.0,0.4647
732.0,0.5018
733.0,0.5357
734.0,0.5498
735.0,0.5377
736.0,0.5369
737.0,0.539
738.0,0.5506
739.0,0.5397
740.0,0.5548
741.0,0.5499
742.0,0.551
743.0,0.5652
744.0,0.564
745.0,0.5644
746.0,0.5669
747.0,0.5683
748.0,0.5671
749.0,0.5607
750.0,0.5604
751.0,0.5547
752.0,0.5571
753.0,0.56
754.0,0.5613
755.0,0.5581
756.0,0.5579
757.0,0.5587
758.0,0.5516
759.0,0.5384
760.0,0.06055
761.0,0.0276
762.0,0.2386
763.0,0.1017
764.0,0.1676
765.0,0.2385
766.0,0.3094
767.0,0.4082
768.0,0.486
769.0,0.4997
770.0,0.5206
771.0,0.5265
772.0,0.5282
773.0,0.532
774.0,0.5296
775.0,0.5256
776.0,0.5321
777.0,0.5251
778.0,0.5219
779.0,0.5223
780.0,0.5194
781.0,0.52
782.0,0.5233
783.0,0.5142
784.0,0.5168
785.0,0.5128
786.0,0.5183
787.0,0.5077
788.0,0.5006
789.0,0.5003
790.0,0.4848
791.0,0.4911
792.0,0.4878
793.0,0.4797
794.0,0.4902
795.0,0.4979
796.0,0.4795
797.0,0.48
798.0,0.4969
799.0,0.4932
800.0,0.4839
801.0,0.4817
802.0,0.4803
803.0,0.4763
804.0,0.4773
805.0,0.4767
806.0,0.4915
807.0,0.4853
808.0,0.4859
809.0,0.4756
810.0,0.471
811.0,0.4699
812.0,0.4544
813.0,0.4439
814.0,0.3841
815.0,0.382
816.0,0.3548
817.0,0.3619
818.0,0.3469
819.0,0.3934
820.0,0.3684
821.0,0.4385
822.0,0.4247
823.0,0.2766
824.0,0.4094
825.0,0.4307
826.0,0.4119
827.0,0.4373
828.0,0.3633
829.0,0.4099
830.0,0.4039
831.0,0.4054
832.0,0.3916
833.0,0.4203
834.0,0.403
835.0,0.4481
836.0,0.4254
837.0,0.4495
838.0,0.4338
839.0,0.4431
840.0,0.4533
841.0,0.4461
842.0,0.4482
843.0,0.4492
844.0,0.4423
845.0,0.4581
846.0,0.4563
847.0,0.4482
848.0,0.4449
849.0,0.4322
850.0,0.4142
851.0,0.4379
852.0,0.4351
853.0,0.4193
854.0,0.3616
855.0,0.3979
856.0,0.4345
857.0,0.4446
858.0,0.4412
859.0,0.4418
860.0,0.4428
861.0,0.4403
862.0,0.4473
863.0,0.4579
864.0,0.435
865.0,0.4312
866.0,0.3878
867.0,0.4047
868.0,0.4404
869.0,0.4313
870.0,0.4436
871.0,0.4375
872.0,0.436
873.0,0.4352
874.0,0.43
875.0,0.4212
876.0,0.4256
877.0,0.4299
878.0,0.4345
879.0,0.4279
880.0,0.4187
881.0,0.4121
882.0,0.4209
883.0,0.4225
884.0,0.4205
885.0,0.4237
886.0,0.4027
887.0,0.4078
888.0,0.4133
889.0,0.419
890.0,0.4143
891.0,0.4142
892.0,0.4008
893.0,0.3867
894.0,0.37
895.0,0.3457
896.0,0.3244
897.0,0.2738
898.0,0.3013
899.0,0.2236
900.0,0.3116
901.0,0.2344
902.0,0.2827
903.0,0.2829
904.0,0.3672
905.0,0.353
906.0,0.3291
907.0,0.2598
908.0,0.2662
909.0,0.2917
910.0,0.2518
911.0,0.2725
912.0,0.2858
913.0,0.2552
914.0,0.2542
915.0,0.2755
916.0,0.232
917.0,0.3007
918.0,0.2375
919.0,0.3081
920.0,0.3152
921.0,0.328
922.0,0.2887
923.0,0.3172
924.0,0.2951
925.0,0.2888
926.0,0.2915
927.0,0.3309
928.0,0.2298
929.0,0.2063
930.0,0.1567
931.0,0.149
932.0,0.1017
933.0,0.07994
934.0,0.03829
935.0,0.084
936.0,0.04885
937.0,0.0492
938.0,0.06186
939.0,0.1443
940.0,0.1776
941.0,0.1287
942.0,0.1521
943.0,0.09589
944.0,0.105
945.0,0.1338
946.0,0.06255
947.0,0.1329
948.0,0.09698
949.0,0.1834
950.0,0.04297
951.0,0.1815
952.0,0.09037
953.0,0.1215
954.0,0.1543
955.0,0.1234
956.0,0.1238
957.0,0.08995
958.0,0.1823
959.0,0.1385
960.0,0.1553
961.0,0.1793
962.0,0.1691
963.0,0.1993
964.0,0.1813
965.0,0.1988
966.0,0.1979
967.0,0.1966
968.0,0.2796
969.0,0.2902
970.0,0.2647
971.0,0.31
972.0,0.2951
973.0,0.2498
974.0,0.2363
975.0,0.2479
976.0,0.2315
977.0,0.2713
978.0,0.2544
979.0,0.2686
980.0,0.2513
981.0,0.3084
982.0,0.2923
983.0,0.2791
984.0,0.3209
985.0,0.2912
986.0,0.3284
987.0,0.3198
988.0,0.3193
989.0,0.3286
990.0,0.3173
991.0,0.3294
992.0,0.3315
993.0,0.322
994.0,0.3316
995.0,0.3315
996.0,0.3297
997.0,0.3304
998.0,0.3287
999.0,0.3276
1000.0,0.3248
1001.0,0.3294
1002.0,0.3182
1003.0,0.3235
1004.0,0.315
1005.0,0.3042
1006.0,0.3157
1007.0,0.3226
1008.0,0.3205
1009.0,0.3183
1010.0,0.3168
1011.0,0.321
1012.0,0.3178
1013.0,0.3204
1014.0,0.3181
1015.0,0.316
1016.0,0.3145
1017.0,0.3152
1018.0,0.3143
1019.0,0.3068
1020.0,0.3125
1021.0,0.3122
1022.0,0.3095
1023.0,0.3127
1024.0,0.3078
1025.0,0.3128
1026.0,0.3112
1027.0,0.3106
1028.0,0.3098
1029.0,0.3061
1030.0,0.3085
1031.0,0.3071
1032.0,0.3063
1033.0,0.3017
1034.0,0.3017
1035.0,0.3027
1036.0,0.3042
1037.0,0.2993
1038.0,0.3005
1039.0,0.3003
1040.0,0.2991
1041.0,0.3002
1042.0,0.2981
1043.0,0.2971
1044.0,0.2981
1045.0,0.294
1046.0,0.2907
1047.0,0.2933
1048.0,0.2948
1049.0,0.2937
1050.0,0.2923
1051.0,0.2918
1052.0,0.2905
1053.0,0.2881
1054.0,0.2886
1055.0,0.2887
1056.0,0.2875
1057.0,0.2865
1058.0,0.2794
1059.0,0.2795
1060.0,0.279
1061.0,0.2786
1062.0,0.28
1063.0,0.2771
1064.0,0.2804
1065.0,0.2781
1066.0,0.2728
1067.0,0.2763
1068.0,0.27
1069.0,0.2619
1070.0,0.2705
1071.0,0.2755
1072.0,0.2717
1073.0,0.2679
1074.0,0.2757
1075.0,0.2597
1076.0,0.2753
1077.0,0.2692
1078.0,0.2635
1079.0,0.2713
1080.0,0.2651
1081.0,0.2555
1082.0,0.2614
1083.0,0.2627
1084.0,0.2544
1085.0,0.2658
1086.0,0.2395
1087.0,0.2494
1088.0,0.2621
1089.0,0.252
1090.0,0.2452
1091.0,0.2607
1092.0,0.2604
1093.0,0.215
1094.0,0.2375
1095.0,0.2246
1096.0,0.2134
1097.0,0.2544
1098.0,0.2093
1099.0,0.2192
1100.0,0.2014
1101.0,0.2047
1102.0,0.1939
1103.0,0.1909
1104.0,0.1913
1105.0,0.2137
1106.0,0.154
1107.0,0.2011
1108.0,0.1648
1109.0,0.1662
1110.0,0.1984
1111.0,0.1271
1112.0,0.1654
1113.0,0.0978
1114.0,0.1099
1115.0,0.09068
1116.0,0.06816
1117.0,0.02087
1118.0,0.07544
1119.0,0.03386
1120.0,0.04224
1121.0,0.05811
1122.0,0.02149
1123.0,0.03833
1124.0,0.0323
1125.0,0.04302
1126.0,0.01214
1127.0,0.0488
1128.0,0.026
1129.0,0.02797
1130.0,0.01747
1131.0,0.1007
1132.0,0.07746
1133.0,0.04466
1134.0,0.009256
1135.0,0.003607
1136.0,0.03573
1137.0,0.09734
1138.0,0.06778
1139.0,0.1102
1140.0,0.08859
1141.0,0.0645
1142.0,0.07595
1143.0,0.1117
1144.0,0.03484
1145.0,0.04313
1146.0,0.04646
1147.0,0.01348
1148.0,0.09638
1149.0,0.07431
1150.0,0.0381
1151.0,0.06722
1152.0,0.0859
1153.0,0.08617
1154.0,0.04163
1155.0,0.1148
1156.0,0.1016
1157.0,0.1172
1158.0,0.1159
1159.0,0.1272
1160.0,0.1065
1161.0,0.1363
1162.0,0.1365
1163.0,0.193
1164.0,0.1625
1165.0,0.1502
1166.0,0.1515
1167.0,0.1665
1168.0,0.1677
1169.0,0.1726
1170.0,0.1902
1171.0,0.1852
1172.0,0.1902
1173.0,0.1898
1174.0,0.1294
1175.0,0.1867
1176.0,0.2086
1177.0,0.198
1178.0,0.1442
1179.0,0.2104
1180.0,0.1842
1181.0,0.1903
1182.0,0.1263
1183.0,0.1881
1184.0,0.1746
1185.0,0.167
1186.0,0.203
1187.0,0.1918
1188.0,0.1277
1189.0,0.1784
1190.0,0.1986
1191.0,0.1856
1192.0,0.2017
1193.0,0.1923
1194.0,0.1989
1195.0,0.186
1196.0,0.178
1197.0,0.1999
1198.0,0.1817
1199.0,0.1503
1200.0,0.1897
1201.0,0.1815
1202.0,0.1816
1203.0,0.1795
1204.0,0.155
1205.0,0.187
1206.0,0.2088
1207.0,0.1805
1208.0,0.179
1209.0,0.183
1210.0,0.1916
1211.0,0.1809
1212.0,0.1766
1213.0,0.2009
1214.0,0.1817
1215.0,0.1779
1216.0,0.2004
1217.0,0.1943
1218.0,0.1987
1219.0,0.1958
1220.0,0.199
1221.0,0.2014
1222.0,0.1958
1223.0,0.1936
1224.0,0.1917
1225.0,0.2001
1226.0,0.202
1227.0,0.1842
1228.0,0.2034
1229.0,0.202
1230.0,0.1982
1231.0,0.2052
1232.0,0.2039
1233.0,0.1951
1234.0,0.2054
1235.0,0.2038
1236.0,0.2055
1237.0,0.2019
1238.0,0.2048
1239.0,0.2022
1240.0,0.203
1241.0,0.2016
1242.0,0.2016
1243.0,0.2
1244.0,0.2013
1245.0,0.2022
1246.0,0.201
1247.0,0.2001
1248.0,0.1998
1249.0,0.2006
1250.0,0.1992
1251.0,0.1964
1252.0,0.1968
1253.0,0.1946
1254.0,0.1922
1255.0,0.1964
1256.0,0.1898
1257.0,0.1885
1258.0,0.1929
1259.0,0.1841
1260.0,0.1853
1261.0,0.1727
1262.0,0.1663
1263.0,0.1666
1264.0,0.1511
1265.0,0.1655
1266.0,0.1577
1267.0,0.1616
1268.0,0.1515
1269.0,0.08315
1270.0,0.1606
1271.0,0.1724
1272.0,0.1732
1273.0,0.1711
1274.0,0.172
1275.0,0.1749
1276.0,0.177
1277.0,0.1788
1278.0,0.1831
1279.0,0.1814
1280.0,0.1792
1281.0,0.1714
1282.0,0.1658
1283.0,0.1784
1284.0,0.1826
1285.0,0.1839
1286.0,0.1867
1287.0,0.1831
1288.0,0.1833
1289.0,0.1761
1290.0,0.1818
1291.0,0.1846
1292.0,0.1708
1293.0,0.1804
1294.0,0.179
1295.0,0.1773
1296.0,0.1677
1297.0,0.1574
1298.0,0.172
1299.0,0.1808
1300.0,0.1488
1301.0,0.1542
1302.0,0.1715
1303.0,0.1473
1304.0,0.1217
1305.0,0.1677
1306.0,0.1674
1307.0,0.1258
1308.0,0.1482
1309.0,0.1656
1310.0,0.1231
1311.0,0.1412
1312.0,0.1367
1313.0,0.1333
1314.0,0.1179
1315.0,0.1154
1316.0,0.1382
1317.0,0.1304
1318.0,0.1434
1319.0,0.1073
1320.0,0.105
1321.0,0.124
1322.0,0.1243
1323.0,0.08965
1324.0,0.1054
1325.0,0.1359
1326.0,0.1141
1327.0,0.1082
1328.0,0.09197
1329.0,0.06562
1330.0,0.08717
1331.0,0.04871
1332.0,0.05156
1333.0,0.07257
1334.0,0.06371
1335.0,0.08913
1336.0,0.06833
1337.0,0.05954
1338.0,0.06431
1339.0,0.0646
1340.0,0.06396
1341.0,0.05983
1342.0,0.06311
1343.0,0.03801
1344.0,0.02316
1345.0,0.03338
1346.0,0.01391
1347.0,0.01368
1348.0,0.0006013
1349.0,0.002396
1350.0,0.002679
1351.0,0.0004556
1352.0,8.034e-05
1353.0,2.784e-06
1354.0,1.268e-05
1355.0,4.336e-08
1356.0,1.333e-06
1357.0,2.04e-06
1358.0,5.318e-08
1359.0,3.463e-09
1360.0,1.922e-08
1361.0,5.842e-12
1362.0,1.019e-14
1363.0,2.011e-08
1364.0,8.492e-09
1365.0,2.016e-15
1366.0,1.043e-07
1367.0,5.063e-08
1368.0,8.059e-18
1369.0,3.113e-09
1370.0,1.164e-09
1371.0,4.905e-11
1372.0,2.825e-08
1373.0,8.739e-07
1374.0,5.502e-06
1375.0,9.533e-06
1376.0,1.163e-05
1377.0,5.015e-06
1378.0,5.404e-05
1379.0,2.111e-06
1380.0,2.471e-06
1381.0,5.591e-08
1382.0,2.344e-08
1383.0,2.881e-10
1384.0,3.117e-09
1385.0,3.1e-08
1386.0,1.7e-08
1387.0,4.562e-06
1388.0,9.745e-08
1389.0,2.234e-05
1390.0,1.882e-05
1391.0,1.201e-05
1392.0,7.345e-07
1393.0,4.548e-06
1394.0,1.384e-06
1395.0,7.607e-09
1396.0,9.932e-12
1397.0,1.61e-06
1398.0,5.807e-05
1399.0,3.754e-05
1400.0,3.043e-12
1401.0,2.019e-11
1402.0,0.0001659
1403.0,0.0001901
1404.0,5.549e-05
1405.0,2.91e-09
1406.0,0.0001233
1407.0,1.281e-05
1408.0,0.000104
1409.0,2.71e-05
1410.0,2.658e-05
1411.0,0.0001704
1412.0,0.0002598
1413.0,0.003719
1414.0,2.176e-05
1415.0,9.339e-06
1416.0,0.007728
1417.0,0.001876
1418.0,0.001996
1419.0,0.0002939
1420.0,0.001209
1421.0,0.001357
1422.0,0.01015
1423.0,0.001862
1424.0,0.003642
1425.0,0.005068
1426.0,0.006394
1427.0,0.01315
1428.0,0.0005431
1429.0,0.009074
1430.0,0.01747
1431.0,0.01971
1432.0,0.0004207
1433.0,0.01186
1434.0,0.00571
1435.0,0.004646
