interpolation:linear
wavelength,value
280.0,9.012e-20
280.5,2.448e-18
281.0,1.112e-19
281.5,4.998e-19
282.0,2.387e-18
282.5,6.942e-18
283.0,2.35e-17
283.5,3.901e-17
284.0,6.198e-16
284.5,1.752e-15
285.0,4.082e-15
285.5,2.647e-14
286.0,1.152e-13
286.5,5.775e-13
287.0,1.761e-12
287.5,7.19e-12
288.0,2.181e-11
288.5,8.721e-11
289.0,2.954e-10
289.5,1.12e-09
290.0,3.697e-09
290.5,8.68e-09
291.0,2.186e-08
291.5,7.609e-08
292.0,1.945e-07
292.5,3.029e-07
293.0,7.408e-07
293.5,2.161e-06
294.0,3.885e-06
294.5,4.993e-06
295.0,9.55e-06
295.5,2.217e-05
296.0,4.143e-05
296.5,5.609e-05
297.0,7.387e-05
297.5,0.00019
298.0,0.0002887
298.5,0.0002824
299.0,0.0006053
299.5,0.0009547
300.0,0.001021
300.5,0.001435
301.0,0.002472
301.5,0.003766
302.0,0.003148
302.5,0.005889
303.0,0.009998
303.5,0.01214
304.0,0.01113
304.5,0.01557
305.0,0.02159
305.5,0.02339
306.0,0.02216
306.5,0.02664
307.0,0.0366
307.5,0.04526
308.0,0.04724
308.5,0.05386
309.0,0.05167
309.5,0.05628
310.0,0.05524
310.5,0.08844
311.0,0.1089
311.5,0.1042
312.0,0.09994
312.5,0.1183
313.0,0.1264
313.5,0.1244
314.0,0.1503
314.5,0.1275
315.0,0.1662
315.5,0.142
316.0,0.1196
316.5,0.1664
317.0,0.2067
317.5,0.217
318.0,0.1657
318.5,0.1974
319.0,0.2295
319.5,0.1933
320.0,0.2347
320.5,0.2817
321.0,0.2416
321.5,0.2307
322.0,0.2559
322.5,0.2221
323.0,0.2155
323.5,0.2582
324.0,0.3001
324.5,0.3079
325.0,0.2697
325.5,0.3396
326.0,0.4123
326.5,0.4071
327.0,0.4077
327.5,0.3963
328.0,0.3595
328.5,0.3693
329.0,0.4343
329.5,0.4903
330.0,0.4966
330.5,0.4029
331.0,0.4123
331.5,0.4147
332.0,0.4414
332.5,0.4336
333.0,0.434
333.5,0.397
334.0,0.4074
334.5,0.4642
335.0,0.4331
335.5,0.5057
336.0,0.3498
336.5,0.411
337.0,0.3389
337.5,0.4222
338.0,0.4081
338.5,0.4708
339.0,0.4658
339.5,0.448
340.0,0.5265
340.5,0.4741
341.0,0.4624
341.5,0.4244
342.0,0.507
342.5,0.4742
343.0,0.5216
343.5,0.4912
344.0,0.3628
344.5,0.3666
345.0,0.4848
345.5,0.4947
346.0,0.4203
346.5,0.4758
347.0,0.5108
347.5,0.413
348.0,0.4706
348.5,0.4702
349.0,0.4361
349.5,0.4317
350.0,0.5338
350.5,0.563
351.0,0.503
351.5,0.4889
352.0,0.5249
352.5,0.4095
353.0,0.5156
353.5,0.5512
354.0,0.5722
354.5,0.5802
355.0,0.5783
355.5,0.5223
356.0,0.5463
356.5,0.4665
357.0,0.3854
357.5,0.4718
358.0,0.3739
358.5,0.3195
359.0,0.4468
359.5,0.5695
360.0,0.6036
360.5,0.4824
361.0,0.4397
361.5,0.5061
362.0,0.4375
362.5,0.6053
363.0,0.5435
363.5,0.5005
364.0,0.612
364.5,0.5231
365.0,0.5327
365.5,0.6685
366.0,0.7081
366.5,0.6652
367.0,0.6478
367.5,0.6722
368.0,0.5882
368.5,0.5935
369.0,0.6408
369.5,0.683
370.0,0.728
370.5,0.5649
371.0,0.6036
371.5,0.7551
372.0,0.5011
372.5,0.6008
373.0,0.6111
373.5,0.3976
374.0,0.5776
374.5,0.4783
375.0,0.4649
375.5,0.6941
376.0,0.5754
376.5,0.5963
377.0,0.6312
377.5,0.7384
378.0,0.8005
378.5,0.7566
379.0,0.6244
379.5,0.5704
380.0,0.593
380.5,0.7182
381.0,0.7196
381.5,0.5703
382.0,0.5064
382.5,0.4316
383.0,0.3996
383.5,0.3848
384.0,0.4245
384.5,0.6243
385.0,0.619
385.5,0.5764
386.0,0.4937
386.5,0.6484
387.0,0.5388
387.5,0.6051
388.0,0.5587
388.5,0.5522
389.0,0.5961
389.5,0.7219
390.0,0.7245
390.5,0.6667
391.0,0.7847
391.5,0.8004
392.0,0.6741
392.5,0.6035
393.0,0.3358
393.5,0.244
394.0,0.4966
394.5,0.6313
395.0,0.7703
395.5,0.7825
396.0,0.6784
396.5,0.3965
397.0,0.2976
397.5,0.6051
398.0,0.8475
398.5,0.8759
399.0,0.9483
399.5,0.9452
400.0,0.9815
401.0,0.9977
402.0,1.052
403.0,0.9995
404.0,0.984
405.0,0.9838
406.0,0.9675
407.0,0.9517
408.0,0.9889
409.0,1.058
410.0,0.9245
411.0,1.001
412.0,1.075
413.0,1.048
414.0,1.061
415.0,1.064
416.0,1.082
417.0,1.055
418.0,1.036
419.0,1.049
420.0,1.044
421.0,1.092
422.0,1.038
423.0,1.014
424.0,1.072
425.0,1.07
426.0,1.042
427.0,1.022
428.0,0.996
429.0,0.943
430.0,0.8251
431.0,0.8179
432.0,1.056
433.0,1.061
434.0,0.9855
435.0,1.029
436.0,1.159
437.0,1.143
438.0,1.041
439.0,1.077
440.0,1.111
441.0,1.151
442.0,1.234
443.0,1.202
444.0,1.228
445.0,1.202
446.0,1.146
447.0,1.239
448.0,1.258
449.0,1.262
450.0,1.297
451.0,1.345
452.0,1.296
453.0,1.219
454.0,1.272
455.0,1.28
456.0,1.31
457.0,1.332
458.0,1.287
459.0,1.28
460.0,1.283
461.0,1.313
462.0,1.322
463.0,1.313
464.0,1.291
465.0,1.274
466.0,1.286
467.0,1.263
468.0,1.277
469.0,1.284
470.0,1.243
471.0,1.242
472.0,1.308
473.0,1.291
474.0,1.294
475.0,1.305
476.0,1.267
477.0,1.271
478.0,1.306
479.0,1.297
480.0,1.299
481.0,1.323
482.0,1.329
483.0,1.313
484.0,1.285
485.0,1.224
486.0,1.07
487.0,1.121
488.0,1.23
489.0,1.234
490.0,1.298
491.0,1.275
492.0,1.204
493.0,1.243
494.0,1.256
495.0,1.266
496.0,1.274
497.0,1.294
498.0,1.233
499.0,1.249
500.0,1.213
501.0,1.191
502.0,1.175
503.0,1.224
504.0,1.195
505.0,1.236
506.0,1.276
507.0,1.214
508.0,1.176
509.0,1.208
510.0,1.201
511.0,1.233
512.0,1.246
513.0,1.179
514.0,1.171
515.0,1.159
516.0,1.156
517.0,1.027
518.0,1.08
519.0,1.133
520.0,1.174
521.0,1.185
522.0,1.187
523.0,1.165
524.0,1.208
525.0,1.222
526.0,1.168
527.0,1.101
528.0,1.165
529.0,1.228
530.0,1.211
531.0,1.229
532.0,1.187
533.0,1.152
534.0,1.186
535.0,1.211
536.0,1.222
537.0,1.174
538.0,1.194
539.0,1.184
540.0,1.136
541.0,1.144
542.0,1.18
543.0,1.167
544.0,1.188
545.0,1.184
546.0,1.19
547.0,1.189
548.0,1.174
549.0,1.178
550.0,1.192
551.0,1.177
552.0,1.185
553.0,1.164
554.0,1.192
555.0,1.195
556.0,1.179
557.0,1.143
558.0,1.134
559.0,1.114
560.0,1.128
561.0,1.143
562.0,1.135
563.0,1.166
564.0,1.135
565.0,1.126
566.0,1.109
567.0,1.131
568.0,1.122
569.0,1.098
570.0,1.097
571.0,1.09
572.0,1.118
573.0,1.13
574.0,1.126
575.0,1.106
576.0,1.096
577.0,1.108
578.0,1.09
579.0,1.093
580.0,1.113
581.0,1.117
582.0,1.137
583.0,1.139
584.0,1.148
585.0,1.12
586.0,1.097
587.0,1.122
588.0,1.097
589.0,0.9781
590.0,1.022
591.0,1.078
592.0,1.067
593.0,1.08
594.0,1.074
595.0,1.049
596.0,1.086
597.0,1.075
598.0,1.071
599.0,1.071
600.0,1.072
601.0,1.062
602.0,1.055
603.0,1.072
604.0,1.089
605.0,1.083
606.0,1.078
607.0,1.088
608.0,1.076
609.0,1.077
610.0,1.069
611.0,1.074
612.0,1.071
613.0,1.057
614.0,1.043
615.0,1.065
616.0,1.029
617.0,1.027
618.0,1.066
619.0,1.055
620.0,1.062
621.0,1.064
622.0,1.052
623.0,1.036
624.0,1.018
625.0,1.015
626.0,1.031
627.0,1.043
628.0,0.9866
629.0,1.023
630.0,0.9996
631.0,1.018
632.0,1.005
633.0,1.034
634.0,1.022
635.0,1.038
636.0,1.023
637.0,1.039
638.0,1.048
639.0,1.036
640.0,1.026
641.0,1.025
642.0,1.019
643.0,1.033
644.0,1.029
645.0,1.031
646.0,1.009
647.0,1.0
648.0,1.001
649.0,0.9822
650.0,0.9826
651.0,1.024
652.0,0.9865
653.0,1.011
654.0,0.9989
655.0,0.9641
656.0,0.8528
657.0,0.8755
658.0,0.9799
659.0,0.9863
660.0,0.9901
661.0,0.997
662.0,0.9999
663.0,0.9798
664.0,0.9902
665.0,0.99
666.0,0.9904
667.0,0.989
668.0,0.989
669.0,1.004
670.0,0.9994
671.0,0.999
672.0,0.9903
673.0,1.005
674.0,1.001
675.0,0.9918
676.0,0.9984
677.0,0.9884
678.0,0.991
679.0,0.9749
680.0,0.9826
681.0,0.976
682.0,0.9748
683.0,0.9729
684.0,0.968
685.0,0.9761
686.0,0.9705
687.0,0.6986
688.0,0.7925
689.0,0.7945
690.0,0.8246
691.0,0.8581
692.0,0.8817
693.0,0.8753
694.0,0.8682
695.0,0.8975
696.0,0.8988
697.0,0.9455
698.0,0.931
699.0,0.9141
700.0,0.9032
701.0,0.8957
702.0,0.8999
703.0,0.9015
704.0,0.9271
705.0,0.9285
706.0,0.9264
707.0,0.9266
708.0,0.9287
709.0,0.9281
710.0,0.929
711.0,0.9271
712.0,0.9234
713.0,0.9149
714.0,0.9182
715.0,0.8912
716.0,0.8923
717.0,0.7938
718.0,0.7326
719.0,0.6733
720.0,0.7067
721.0,0.7676
722.0,0.8647
723.0,0.8121
724.0,0.7397
725.0,0.7306
726.0,0.7632
727.0,0.7695
728.0,0.7296
729.0,0.7497
730.0,0.7931
731.0,0.7611
732.0,0.8066
733.0,0.8465
734.0,0.8646
735.0,0.8477
736.0,0.8465
737.0,0.8501
738.0,0.8585
739.0,0.8417
740.0,0.8621
741.0,0.8527
742.0,0.8526
743.0,0.874
744.0,0.871
745.0,0.8708
746.0,0.8748
747.0,0.8766
748.0,0.8747
749.0,0.8647
750.0,0.8641
751.0,0.8553
752.0,0.8589
753.0,0.8632
754.0,0.8652
755.0,0.8603
756.0,0.8599
757.0,0.8611
758.0,0.8505
759.0,0.836
760.0,0.1954
761.0,0.1156
762.0,0.4833
763.0,0.2758
764.0,0.3839
765.0,0.4836
766.0,0.5669
767.0,0.6893
768.0,0.7751
769.0,0.7869
770.0,0.8086
771.0,0.8129
772.0,0.8139
773.0,0.8194
774.0,0.8153
775.0,0.809
776.0,0.8188
777.0,0.808
778.0,0.8031
779.0,0.8037
780.0,0.7992
781.0,0.8
782.0,0.8049
783.0,0.7909
784.0,0.7946
785.0,0.7889
786.0,0.7977
787.0,0.7859
788.0,0.7771
789.0,0.7771
790.0,0.7595
791.0,0.7631
792.0,0.7571
793.0,0.7452
794.0,0.7547
795.0,0.7683
796.0,0.7489
797.0,0.7499
798.0,0.7678
799.0,0.7637
800.0,0.7515
801.0,0.75
802.0,0.7478
803.0,0.7426
804.0,0.7432
805.0,0.7396
806.0,0.7584
807.0,0.7497
808.0,0.7502
809.0,0.7376
810.0,0.7327
811.0,0.7356
812.0,0.7174
813.0,0.7044
814.0,0.6296
815.0,0.6254
816.0,0.5835
817.0,0.593
818.0,0.573
819.0,0.6319
820.0,0.5985
821.0,0.6878
822.0,0.6701
823.0,0.4747
824.0,0.6547
825.0,0.6764
826.0,0.6543
827.0,0.6867
828.0,0.5929
829.0,0.6496
830.0,0.6423
831.0,0.6441
832.0,0.6263
833.0,0.6608
834.0,0.641
835.0,0.6966
836.0,0.6715
837.0,0.6982
838.0,0.6786
839.0,0.6872
840.0,0.7018
841.0,0.6927
842.0,0.6928
843.0,0.691
844.0,0.6822
845.0,0.7041
846.0,0.7008
847.0,0.6874
848.0,0.6837
849.0,0.6643
850.0,0.6364
851.0,0.6744
852.0,0.6694
853.0,0.6438
854.0,0.5563
855.0,0.6106
856.0,0.6675
857.0,0.682
858.0,0.6771
859.0,0.6775
860.0,0.6785
861.0,0.6748
862.0,0.6853
863.0,0.7015
864.0,0.6664
865.0,0.6606
866.0,0.5939
867.0,0.6198
868.0,0.6744
869.0,0.6604
870.0,0.6792
871.0,0.67
872.0,0.6676
873.0,0.6662
874.0,0.6583
875.0,0.645
876.0,0.6517
877.0,0.6583
878.0,0.6655
879.0,0.6553
880.0,0.6412
881.0,0.6319
882.0,0.6457
883.0,0.6474
884.0,0.6445
885.0,0.6494
886.0,0.62
887.0,0.6258
888.0,0.6355
889.0,0.6418
890.0,0.6375
891.0,0.6359
892.0,0.6189
893.0,0.6013
894.0,0.5834
895.0,0.5554
896.0,0.5251
897.0,0.4568
898.0,0.4952
899.0,0.3837
900.0,0.5035
901.0,0.4019
902.0,0.4623
903.0,0.4699
904.0,0.579
905.0,0.5609
906.0,0.5264
907.0,0.4362
908.0,0.4437
909.0,0.4765
910.0,0.4287
911.0,0.4525
912.0,0.4714
913.0,0.4354
914.0,0.4304
915.0,0.4659
916.0,0.3966
917.0,0.4952
918.0,0.4068
919.0,0.5024
920.0,0.5038
921.0,0.5231
922.0,0.4729
923.0,0.505
924.0,0.485
925.0,0.4745
926.0,0.4798
927.0,0.5321
928.0,0.4045
929.0,0.3731
930.0,0.2992
931.0,0.2825
932.0,0.2095
933.0,0.1737
934.0,0.1023
935.0,0.1749
936.0,0.1136
937.0,0.1158
938.0,0.1406
939.0,0.2737
940.0,0.3251
941.0,0.2511
942.0,0.287
943.0,0.1933
944.0,0.1995
945.0,0.2579
946.0,0.1373
947.0,0.2606
948.0,0.1924
949.0,0.3428
950.0,0.1048
951.0,0.3364
952.0,0.1888
953.0,0.2385
954.0,0.2867
955.0,0.2406
956.0,0.2308
957.0,0.1899
958.0,0.3187
959.0,0.2595
960.0,0.2907
961.0,0.3215
962.0,0.3048
963.0,0.3472
964.0,0.3195
965.0,0.3454
966.0,0.3465
967.0,0.3454
968.0,0.4488
969.0,0.4699
970.0,0.4335
971.0,0.49
972.0,0.4699
973.0,0.4154
974.0,0.3952
975.0,0.4077
976.0,0.3905
977.0,0.4378
978.0,0.4187
979.0,0.4365
980.0,0.4117
981.0,0.4869
982.0,0.4678
983.0,0.4504
984.0,0.4991
985.0,0.4659
986.0,0.5064
987.0,0.4981
988.0,0.4972
989.0,0.5039
990.0,0.4941
991.0,0.5056
992.0,0.5084
993.0,0.4987
994.0,0.5081
995.0,0.5072
996.0,0.5052
997.0,0.5058
998.0,0.5035
999.0,0.5016
1000.0,0.4985
1001.0,0.5043
1002.0,0.4919
1003.0,0.4954
1004.0,0.4837
1005.0,0.4655
1006.0,0.4839
1007.0,0.494
1008.0,0.4916
1009.0,0.4893
1010.0,0.4874
1011.0,0.4915
1012.0,0.4875
1013.0,0.4902
1014.0,0.4868
1015.0,0.4836
1016.0,0.4814
1017.0,0.4827
1018.0,0.4807
1019.0,0.471
1020.0,0.4783
1021.0,0.4775
1022.0,0.474
1023.0,0.4791
1024.0,0.4735
1025.0,0.4786
1026.0,0.4767
1027.0,0.4755
1028.0,0.4746
1029.0,0.469
1030.0,0.472
1031.0,0.4702
1032.0,0.4688
1033.0,0.4617
1034.0,0.4617
1035.0,0.4632
1036.0,0.4656
1037.0,0.4581
1038.0,0.4601
1039.0,0.4599
1040.0,0.458
1041.0,0.4599
1042.0,0.4567
1043.0,0.4553
1044.0,0.4569
1045.0,0.4508
1046.0,0.4458
1047.0,0.4499
1048.0,0.4524
1049.0,0.4508
1050.0,0.4488
1051.0,0.4482
1052.0,0.4464
1053.0,0.4429
1054.0,0.444
1055.0,0.4443
1056.0,0.4429
1057.0,0.4416
1058.0,0.4308
1059.0,0.4313
1060.0,0.4307
1061.0,0.4303
1062.0,0.4326
1063.0,0.4284
1064.0,0.4335
1065.0,0.4306
1066.0,0.4219
1067.0,0.4274
1068.0,0.4182
1069.0,0.4052
1070.0,0.4191
1071.0,0.4251
1072.0,0.4206
1073.0,0.4144
1074.0,0.4245
1075.0,0.4049
1076.0,0.4243
1077.0,0.4176
1078.0,0.4101
1079.0,0.4172
1080.0,0.4112
1081.0,0.3988
1082.0,0.4038
1083.0,0.4047
1084.0,0.3982
1085.0,0.412
1086.0,0.3785
1087.0,0.3888
1088.0,0.4046
1089.0,0.3937
1090.0,0.3861
1091.0,0.4037
1092.0,0.4023
1093.0,0.3459
1094.0,0.3687
1095.0,0.3596
1096.0,0.3458
1097.0,0.3929
1098.0,0.3409
1099.0,0.3548
1100.0,0.332
1101.0,0.3355
1102.0,0.3217
1103.0,0.3196
1104.0,0.3199
1105.0,0.3472
1106.0,0.2738
1107.0,0.3313
1108.0,0.2858
1109.0,0.2853
1110.0,0.329
1111.0,0.2299
1112.0,0.2828
1113.0,0.1869
1114.0,0.2081
1115.0,0.1728
1116.0,0.1422
1117.0,0.05707
1118.0,0.1531
1119.0,0.07977
1120.0,0.1005
1121.0,0.1311
1122.0,0.05845
1123.0,0.09073
1124.0,0.07662
1125.0,0.09905
1126.0,0.03778
1127.0,0.1114
1128.0,0.07022
1129.0,0.07395
1130.0,0.05021
1131.0,0.203
1132.0,0.1608
1133.0,0.1064
1134.0,0.02995
1135.0,0.01109
1136.0,0.09032
1137.0,0.2007
1138.0,0.1424
1139.0,0.204
1140.0,0.1737
1141.0,0.1353
1142.0,0.1539
1143.0,0.2151
1144.0,0.07938
1145.0,0.1025
1146.0,0.1106
1147.0,0.04235
1148.0,0.1862
1149.0,0.1513
1150.0,0.08512
1151.0,0.1414
1152.0,0.1709
1153.0,0.1643
1154.0,0.1
1155.0,0.213
1156.0,0.1934
1157.0,0.2146
1158.0,0.2121
1159.0,0.2266
1160.0,0.1963
1161.0,0.2369
1162.0,0.2384
1163.0,0.3136
1164.0,0.2721
1165.0,0.2596
1166.0,0.2558
1167.0,0.277
1168.0,0.2807
1169.0,0.2862
1170.0,0.3086
1171.0,0.3012
1172.0,0.3052
1173.0,0.3079
1174.0,0.2269
1175.0,0.2997
1176.0,0.326
1177.0,0.3152
1178.0,0.2421
1179.0,0.3285
1180.0,0.297
1181.0,0.3061
1182.0,0.2171
1183.0,0.3006
1184.0,0.2837
1185.0,0.2754
1186.0,0.3208
1187.0,0.3073
1188.0,0.2214
1189.0,0.2867
1190.0,0.3134
1191.0,0.3007
1192.0,0.3175
1193.0,0.3053
1194.0,0.3139
1195.0,0.2991
1196.0,0.2895
1197.0,0.3129
1198.0,0.288
1199.0,0.2499
1200.0,0.3017
1201.0,0.2927
1202.0,0.2899
1203.0,0.2876
1204.0,0.2543
1205.0,0.2952
1206.0,0.3233
1207.0,0.2897
1208.0,0.2836
1209.0,0.2891
1210.0,0.3
1211.0,0.2877
1212.0,0.2864
1213.0,0.3137
1214.0,0.2922
1215.0,0.2871
1216.0,0.3126
1217.0,0.3053
1218.0,0.3102
1219.0,0.3068
1220.0,0.3104
1221.0,0.3129
1222.0,0.3054
1223.0,0.3029
1224.0,0.3018
1225.0,0.311
1226.0,0.3124
1227.0,0.2907
1228.0,0.3135
1229.0,0.3124
1230.0,0.3076
1231.0,0.3147
1232.0,0.3129
1233.0,0.3042
1234.0,0.314
1235.0,0.3123
1236.0,0.3144
1237.0,0.3108
1238.0,0.3133
1239.0,0.3093
1240.0,0.3104
1241.0,0.3094
1242.0,0.3083
1243.0,0.3058
1244.0,0.3081
1245.0,0.3093
1246.0,0.3075
1247.0,0.3064
1248.0,0.3065
1249.0,0.3072
1250.0,0.3055
1251.0,0.3019
1252.0,0.3016
1253.0,0.2998
1254.0,0.2974
1255.0,0.3014
1256.0,0.2943
1257.0,0.2929
1258.0,0.2974
1259.0,0.2886
1260.0,0.2899
1261.0,0.2761
1262.0,0.2692
1263.0,0.2698
1264.0,0.2522
1265.0,0.268
1266.0,0.2597
1267.0,0.263
1268.0,0.2515
1269.0,0.17
1270.0,0.2625
1271.0,0.2749
1272.0,0.2755
1273.0,0.2729
1274.0,0.2734
1275.0,0.2768
1276.0,0.279
1277.0,0.2803
1278.0,0.2846
1279.0,0.2822
1280.0,0.2785
1281.0,0.2653
1282.0,0.2548
1283.0,0.2746
1284.0,0.2813
1285.0,0.2831
1286.0,0.2865
1287.0,0.2829
1288.0,0.2826
1289.0,0.2752
1290.0,0.28
1291.0,0.2836
1292.0,0.2694
1293.0,0.2788
1294.0,0.277
1295.0,0.2764
1296.0,0.2658
1297.0,0.253
1298.0,0.2692
1299.0,0.2789
1300.0,0.2413
1301.0,0.2476
1302.0,0.2683
1303.0,0.2376
1304.0,0.2075
1305.0,0.2631
1306.0,0.2635
1307.0,0.2103
1308.0,0.2371
1309.0,0.2619
1310.0,0.2065
1311.0,0.2285
1312.0,0.2231
1313.0,0.2195
1314.0,0.1983
1315.0,0.1968
1316.0,0.2257
1317.0,0.2143
1318.0,0.2309
1319.0,0.1863
1320.0,0.1793
1321.0,0.2068
1322.0,0.2097
1323.0,0.1626
1324.0,0.1827
1325.0,0.2227
1326.0,0.1942
1327.0,0.186
1328.0,0.1619
1329.0,0.1256
1330.0,0.1615
1331.0,0.1024
1332.0,0.104
1333.0,0.1436
1334.0,0.1195
1335.0,0.162
1336.0,0.1306
1337.0,0.1169
1338.0,0.1263
1339.0,0.1251
1340.0,0.1205
1341.0,0.1205
1342.0,0.1263
1343.0,0.0916
1344.0,0.05464
1345.0,0.07819
1346.0,0.04294
1347.0,0.04436
1348.0,0.003716
1349.0,0.01237
1350.0,0.01218
1351.0,0.003718
1352.0,0.001271
1353.0,8.568e-05
1354.0,0.0002485
1355.0,3.49e-06
1356.0,4.284e-05
1357.0,6.467e-05
1358.0,4.043e-06
1359.0,7.657e-07
1360.0,2.139e-06
1361.0,5.772e-09
1362.0,2.351e-11
1363.0,3.209e-06
1364.0,1.386e-06
1365.0,1.313e-11
1366.0,1.256e-05
1367.0,4.882e-06
1368.0,2.571e-13
1369.0,5.334e-07
1370.0,3.12e-07
1371.0,2.219e-08
1372.0,2.695e-06
1373.0,4.084e-05
1374.0,0.0001568
1375.0,0.0002839
1376.0,0.0002215
1377.0,0.0001062
1378.0,0.0009418
1379.0,4.517e-05
1380.0,7.264e-05
1381.0,2.166e-06
1382.0,2.549e-06
1383.0,4.564e-08
1384.0,6.44e-07
1385.0,2.001e-06
1386.0,2.55e-06
1387.0,0.0001801
1388.0,3.698e-06
1389.0,0.0004995
1390.0,0.0004291
1391.0,0.0003003
1392.0,2.117e-05
1393.0,0.0001007
1394.0,6.998e-05
1395.0,6.58e-07
1396.0,7.411e-09
1397.0,4.343e-05
1398.0,0.001075
1399.0,0.000682
1400.0,4.009e-09
1401.0,1.226e-08
1402.0,0.001481
1403.0,0.001946
1404.0,0.0006056
1405.0,3.715e-07
1406.0,0.001696
1407.0,0.0001447
1408.0,0.001372
1409.0,0.0005301
1410.0,0.0003926
1411.0,0.001698
1412.0,0.002143
1413.0,0.01795
1414.0,0.0003051
1415.0,0.000157
1416.0,0.02653
1417.0,0.009045
1418.0,0.01038
1419.0,0.001662
1420.0,0.006393
1421.0,0.006971
1422.0,0.03433
1423.0,0.006933
1424.0,0.01275
1425.0,0.0191
1426.0,0.02077
1427.0,0.03609
1428.0,0.003556
1429.0,0.02791
1430.0,0.0453
1431.0,0.0492
1432.0,0.002828
1433.0,0.03209
1434.0,0.01672
1435.0,0.01808
1436.0,0.03273
1437.0,0.02509
1438.0,0.0112
1439.0,0.04355
1440.0,0.03274
1441.0,0.02596
1442.0,0.02859
1443.0,0.03436
1444.0,0.04693
1445.0,0.03795
1446.0,0.01745
1447.0,0.02745
1448.0,0.08412
1449.0,0.07424
1450.0,0.02031
1451.0,0.008461
1452.0,0.04583
1453.0,0.05949
1454.0,0.09801
1455.0,0.04774
1456.0,0.06479
