interpolation:linear
wavelength,value
280.0,4.520999999999999e-22
280.5,8.744e-21
281.0,3.947e-20
281.5,8.281e-19
282.0,5.264e-18
282.5,1.739e-17
283.0,6.572e-17
283.5,1.139e-16
284.0,2.153e-15
284.5,6.452e-15
285.0,1.863e-14
285.5,1.26e-13
286.0,5.54e-13
286.5,2.85e-12
287.0,8.804e-12
287.5,3.642e-11
288.0,1.264e-10
288.5,4.757e-10
289.0,1.511e-09
289.5,5.329e-09
290.0,1.653e-08
290.5,3.679e-08
291.0,8.696e-08
291.5,2.804e-07
292.0,6.397e-07
292.5,9.35e-07
293.0,2.105e-06
293.5,5.461e-06
294.0,8.965e-06
294.5,1.751e-05
295.0,3.124e-05
295.5,6.6e-05
296.0,0.0001176
296.5,0.000152
297.0,0.0001929
297.5,0.0004702
298.0,0.0006834
298.5,0.0006458
299.0,0.00134
299.5,0.001999
300.0,0.002073
300.5,0.002826
301.0,0.004638
301.5,0.006768
302.0,0.005537
302.5,0.01013
303.0,0.01675
303.5,0.02002
304.0,0.01818
304.5,0.02485
305.0,0.0334
305.5,0.03551
306.0,0.03339
306.5,0.03966
307.0,0.05314
307.5,0.0642
308.0,0.06676
308.5,0.07527
309.0,0.0712
309.5,0.07627
310.0,0.07428
310.5,0.1184
311.0,0.1449
311.5,0.1383
312.0,0.1307
312.5,0.1533
313.0,0.163
313.5,0.1611
314.0,0.1926
314.5,0.161
315.0,0.2092
315.5,0.18
316.0,0.1498
316.5,0.2064
317.0,0.2564
317.5,0.2699
318.0,0.2046
318.5,0.2408
319.0,0.2781
319.5,0.2365
320.0,0.2876
320.5,0.3408
321.0,0.289
321.5,0.2756
322.0,0.3093
322.5,0.2683
323.0,0.2582
323.5,0.3069
324.0,0.3561
324.5,0.3665
325.0,0.3225
325.5,0.4034
326.0,0.4885
326.5,0.4802
327.0,0.4816
327.5,0.469
328.0,0.4277
328.5,0.4363
329.0,0.5104
329.5,0.5752
330.0,0.5833
330.5,0.475
331.0,0.4867
331.5,0.4879
332.0,0.5171
332.5,0.507
333.0,0.5078
333.5,0.466
334.0,0.4783
334.5,0.543
335.0,0.5055
335.5,0.5901
336.0,0.4081
336.5,0.48
337.0,0.3963
337.5,0.4939
338.0,0.4759
338.5,0.5489
339.0,0.5429
339.5,0.5221
340.0,0.6136
340.5,0.5523
341.0,0.5387
341.5,0.4943
342.0,0.5904
342.5,0.5521
343.0,0.6072
343.5,0.5717
344.0,0.4221
344.5,0.4265
345.0,0.564
345.5,0.5754
346.0,0.4887
346.5,0.5531
347.0,0.5938
347.5,0.48
348.0,0.5468
348.5,0.5464
349.0,0.5066
349.5,0.5014
350.0,0.6199
350.5,0.6537
351.0,0.5839
351.5,0.5676
352.0,0.6092
352.5,0.4752
353.0,0.5982
353.5,0.6394
354.0,0.6636
354.5,0.6729
355.0,0.6706
355.5,0.6055
356.0,0.6333
356.5,0.5407
357.0,0.4467
357.5,0.5468
358.0,0.4332
358.5,0.3701
359.0,0.5177
359.5,0.6598
360.0,0.6992
360.5,0.5587
361.0,0.5092
361.5,0.5859
362.0,0.5063
362.5,0.7004
363.0,0.6287
363.5,0.5789
364.0,0.7077
364.5,0.6048
365.0,0.6158
365.5,0.7727
366.0,0.8184
366.5,0.7687
367.0,0.7484
367.5,0.7765
368.0,0.6794
368.5,0.6854
369.0,0.74
369.5,0.7885
370.0,0.8404
370.5,0.6521
371.0,0.6966
371.5,0.8713
372.0,0.5782
372.5,0.6932
373.0,0.7049
373.5,0.4585
374.0,0.6661
374.5,0.5515
375.0,0.536
375.5,0.8002
376.0,0.6633
376.5,0.6873
377.0,0.7275
377.5,0.8509
378.0,0.9224
378.5,0.8718
379.0,0.7194
379.5,0.6572
380.0,0.6832
380.5,0.8273
381.0,0.8287
381.5,0.6567
382.0,0.583
382.5,0.4968
383.0,0.4598
383.5,0.4428
384.0,0.4884
384.5,0.7182
385.0,0.7121
385.5,0.663
386.0,0.5677
386.5,0.7455
387.0,0.6195
387.5,0.6957
388.0,0.6422
388.5,0.6347
389.0,0.6851
389.5,0.8296
390.0,0.8324
390.5,0.766
391.0,0.9015
391.5,0.9194
392.0,0.7743
392.5,0.693
393.0,0.3855
393.5,0.2802
394.0,0.5701
394.5,0.7247
395.0,0.8842
395.5,0.8981
396.0,0.7786
396.5,0.455
397.0,0.3414
397.5,0.6942
398.0,0.9722
398.5,1.005
399.0,1.088
399.5,1.084
400.0,1.126
401.0,1.145
402.0,1.207
403.0,1.147
404.0,1.129
405.0,1.128
406.0,1.109
407.0,1.091
408.0,1.133
409.0,1.213
410.0,1.059
411.0,1.147
412.0,1.231
413.0,1.201
414.0,1.215
415.0,1.217
416.0,1.238
417.0,1.207
418.0,1.185
419.0,1.2
420.0,1.195
421.0,1.249
422.0,1.187
423.0,1.159
424.0,1.226
425.0,1.223
426.0,1.191
427.0,1.168
428.0,1.138
429.0,1.077
430.0,0.9423
431.0,0.9341
432.0,1.205
433.0,1.212
434.0,1.125
435.0,1.175
436.0,1.323
437.0,1.304
438.0,1.187
439.0,1.229
440.0,1.267
441.0,1.312
442.0,1.407
443.0,1.371
444.0,1.4
445.0,1.37
446.0,1.307
447.0,1.412
448.0,1.434
449.0,1.439
450.0,1.478
451.0,1.533
452.0,1.476
453.0,1.388
454.0,1.448
455.0,1.457
456.0,1.491
457.0,1.516
458.0,1.465
459.0,1.457
460.0,1.461
461.0,1.494
462.0,1.505
463.0,1.495
464.0,1.469
465.0,1.45
466.0,1.463
467.0,1.436
468.0,1.453
469.0,1.461
470.0,1.414
471.0,1.412
472.0,1.488
473.0,1.469
474.0,1.472
475.0,1.485
476.0,1.442
477.0,1.447
478.0,1.486
479.0,1.476
480.0,1.479
481.0,1.505
482.0,1.512
483.0,1.492
484.0,1.461
485.0,1.392
486.0,1.216
487.0,1.274
488.0,1.397
489.0,1.402
490.0,1.474
491.0,1.448
492.0,1.368
493.0,1.412
494.0,1.426
495.0,1.438
496.0,1.447
497.0,1.469
498.0,1.401
499.0,1.419
500.0,1.378
501.0,1.353
502.0,1.336
503.0,1.391
504.0,1.36
505.0,1.405
506.0,1.451
507.0,1.38
508.0,1.336
509.0,1.373
510.0,1.365
511.0,1.4
512.0,1.415
513.0,1.339
514.0,1.33
515.0,1.316
516.0,1.313
517.0,1.167
518.0,1.227
519.0,1.287
520.0,1.334
521.0,1.346
522.0,1.348
523.0,1.324
524.0,1.372
525.0,1.389
526.0,1.327
527.0,1.251
528.0,1.324
529.0,1.396
530.0,1.376
531.0,1.397
532.0,1.349
533.0,1.31
534.0,1.348
535.0,1.377
536.0,1.389
537.0,1.334
538.0,1.357
539.0,1.346
540.0,1.291
541.0,1.3
542.0,1.342
543.0,1.327
544.0,1.351
545.0,1.346
546.0,1.353
547.0,1.352
548.0,1.335
549.0,1.339
550.0,1.355
551.0,1.338
552.0,1.347
553.0,1.323
554.0,1.355
555.0,1.358
556.0,1.341
557.0,1.299
558.0,1.29
559.0,1.267
560.0,1.283
561.0,1.3
562.0,1.291
563.0,1.327
564.0,1.292
565.0,1.281
566.0,1.263
567.0,1.288
568.0,1.278
569.0,1.252
570.0,1.251
571.0,1.242
572.0,1.275
573.0,1.289
574.0,1.285
575.0,1.262
576.0,1.25
577.0,1.264
578.0,1.244
579.0,1.247
580.0,1.268
581.0,1.272
582.0,1.294
583.0,1.296
584.0,1.306
585.0,1.274
586.0,1.248
587.0,1.276
588.0,1.25
589.0,1.117
590.0,1.168
591.0,1.23
592.0,1.218
593.0,1.231
594.0,1.225
595.0,1.198
596.0,1.237
597.0,1.225
598.0,1.22
599.0,1.22
600.0,1.22
601.0,1.208
602.0,1.2
603.0,1.219
604.0,1.239
605.0,1.232
606.0,1.226
607.0,1.238
608.0,1.223
609.0,1.225
610.0,1.215
611.0,1.221
612.0,1.217
613.0,1.201
614.0,1.184
615.0,1.209
616.0,1.169
617.0,1.166
618.0,1.211
619.0,1.198
620.0,1.206
621.0,1.208
622.0,1.194
623.0,1.177
624.0,1.156
625.0,1.153
626.0,1.17
627.0,1.185
628.0,1.127
629.0,1.164
630.0,1.138
631.0,1.157
632.0,1.142
633.0,1.174
634.0,1.16
635.0,1.177
636.0,1.16
637.0,1.178
638.0,1.188
639.0,1.174
640.0,1.162
641.0,1.16
642.0,1.154
643.0,1.17
644.0,1.165
645.0,1.167
646.0,1.143
647.0,1.135
648.0,1.136
649.0,1.115
650.0,1.113
651.0,1.16
652.0,1.119
653.0,1.144
654.0,1.131
655.0,1.092
656.0,0.9655
657.0,0.9912
658.0,1.109
659.0,1.116
660.0,1.12
661.0,1.127
662.0,1.131
663.0,1.108
664.0,1.119
665.0,1.119
666.0,1.119
667.0,1.117
668.0,1.117
669.0,1.134
670.0,1.128
671.0,1.128
672.0,1.118
673.0,1.134
674.0,1.13
675.0,1.119
676.0,1.127
677.0,1.115
678.0,1.118
679.0,1.1
680.0,1.109
681.0,1.101
682.0,1.1
683.0,1.098
684.0,1.092
685.0,1.101
686.0,1.095
687.0,0.8173
688.0,0.9136
689.0,0.9155
690.0,0.9457
691.0,0.9792
692.0,1.002
693.0,0.9955
694.0,0.9876
695.0,1.018
696.0,1.019
697.0,1.068
698.0,1.051
699.0,1.035
700.0,1.023
701.0,1.015
702.0,1.019
703.0,1.021
704.0,1.048
705.0,1.05
706.0,1.046
707.0,1.046
708.0,1.049
709.0,1.047
710.0,1.049
711.0,1.046
712.0,1.042
713.0,1.032
714.0,1.036
715.0,1.007
716.0,1.008
717.0,0.9077
718.0,0.8401
719.0,0.7735
720.0,0.8123
721.0,0.8756
722.0,0.9787
723.0,0.9233
724.0,0.8454
725.0,0.8366
726.0,0.8728
727.0,0.8778
728.0,0.8358
729.0,0.855
730.0,0.9039
731.0,0.869
732.0,0.9167
733.0,0.9581
734.0,0.9776
735.0,0.9591
736.0,0.9576
737.0,0.9618
738.0,0.9688
739.0,0.9499
740.0,0.9721
741.0,0.9611
742.0,0.9606
743.0,0.9846
744.0,0.9809
745.0,0.9804
746.0,0.9849
747.0,0.9869
748.0,0.9847
749.0,0.9734
750.0,0.9728
751.0,0.9629
752.0,0.9669
753.0,0.9717
754.0,0.9739
755.0,0.9685
756.0,0.9679
757.0,0.9694
758.0,0.9575
759.0,0.9426
760.0,0.2577
761.0,0.1614
762.0,0.5767
763.0,0.3503
764.0,0.4702
765.0,0.5771
766.0,0.6621
767.0,0.7911
768.0,0.8788
769.0,0.8898
770.0,0.9117
771.0,0.9153
772.0,0.9161
773.0,0.9222
774.0,0.9175
775.0,0.9104
776.0,0.9213
777.0,0.9092
778.0,0.9037
779.0,0.9044
780.0,0.8993
781.0,0.9002
782.0,0.9057
783.0,0.8898
784.0,0.894
785.0,0.8877
786.0,0.8977
787.0,0.8855
788.0,0.8761
789.0,0.8763
790.0,0.8582
791.0,0.8606
792.0,0.8537
793.0,0.8404
794.0,0.8494
795.0,0.8651
796.0,0.8455
797.0,0.8467
798.0,0.8648
799.0,0.8606
800.0,0.8474
801.0,0.8462
802.0,0.8436
803.0,0.838
804.0,0.8384
805.0,0.8338
806.0,0.854
807.0,0.8444
808.0,0.8448
809.0,0.8314
810.0,0.8265
811.0,0.8307
812.0,0.8119
813.0,0.7982
814.0,0.7193
815.0,0.7144
816.0,0.6676
817.0,0.6775
818.0,0.656
819.0,0.7183
820.0,0.6825
821.0,0.7775
822.0,0.7586
823.0,0.549
824.0,0.7434
825.0,0.7651
826.0,0.7421
827.0,0.7766
828.0,0.6767
829.0,0.7363
830.0,0.7287
831.0,0.7305
832.0,0.7115
833.0,0.7473
834.0,0.7269
835.0,0.7856
836.0,0.76
837.0,0.7873
838.0,0.7663
839.0,0.7747
840.0,0.7907
841.0,0.7811
842.0,0.7804
843.0,0.7776
844.0,0.7681
845.0,0.7922
846.0,0.7884
847.0,0.7729
848.0,0.7692
849.0,0.7474
850.0,0.7159
851.0,0.7591
852.0,0.7532
853.0,0.7242
854.0,0.626
855.0,0.6867
856.0,0.7509
857.0,0.7669
858.0,0.7616
859.0,0.7618
860.0,0.7628
861.0,0.7588
862.0,0.7705
863.0,0.7887
864.0,0.7492
865.0,0.7426
866.0,0.6677
867.0,0.6968
868.0,0.7582
869.0,0.7424
870.0,0.7636
871.0,0.7532
872.0,0.7505
873.0,0.7489
874.0,0.74
875.0,0.7251
876.0,0.7327
877.0,0.74
878.0,0.7482
879.0,0.7367
880.0,0.7209
881.0,0.7105
882.0,0.7261
883.0,0.7279
884.0,0.7247
885.0,0.7302
886.0,0.6977
887.0,0.7038
888.0,0.7151
889.0,0.7216
890.0,0.7174
891.0,0.7152
892.0,0.697
893.0,0.6783
894.0,0.6602
895.0,0.6313
896.0,0.5983
897.0,0.5245
898.0,0.5661
899.0,0.4437
900.0,0.5734
901.0,0.4644
902.0,0.5279
903.0,0.5385
904.0,0.6552
905.0,0.6361
906.0,0.598
907.0,0.5013
908.0,0.5092
909.0,0.544
910.0,0.4945
911.0,0.5191
912.0,0.5394
913.0,0.5024
914.0,0.4959
915.0,0.5358
916.0,0.4581
917.0,0.5661
918.0,0.47
919.0,0.5731
920.0,0.5724
921.0,0.5935
922.0,0.5402
923.0,0.5729
924.0,0.554
925.0,0.5423
926.0,0.5481
927.0,0.6044
928.0,0.4697
929.0,0.436
930.0,0.3543
931.0,0.3336
932.0,0.2521
933.0,0.2116
934.0,0.1304
935.0,0.211
936.0,0.1406
937.0,0.1439
938.0,0.1733
939.0,0.3233
940.0,0.3807
941.0,0.2986
942.0,0.3383
943.0,0.2314
944.0,0.236
945.0,0.3059
946.0,0.1679
947.0,0.3103
948.0,0.2302
949.0,0.4032
950.0,0.1317
951.0,0.3949
952.0,0.2285
953.0,0.2844
954.0,0.337
955.0,0.2863
956.0,0.273
957.0,0.2305
958.0,0.3698
959.0,0.3062
960.0,0.3427
961.0,0.3753
962.0,0.3564
963.0,0.4026
964.0,0.3717
965.0,0.4001
966.0,0.4023
967.0,0.4012
968.0,0.5104
969.0,0.5348
970.0,0.4952
971.0,0.5549
972.0,0.533
973.0,0.4761
974.0,0.4539
975.0,0.4662
976.0,0.449
977.0,0.4986
978.0,0.4788
979.0,0.4975
980.0,0.4704
981.0,0.5511
982.0,0.5312
983.0,0.5126
984.0,0.5631
985.0,0.529
986.0,0.5702
987.0,0.562
988.0,0.561
989.0,0.5667
990.0,0.5573
991.0,0.5687
992.0,0.5717
993.0,0.5619
994.0,0.5712
995.0,0.5701
996.0,0.568
997.0,0.5686
998.0,0.5661
999.0,0.5639
1000.0,0.5606
1001.0,0.5668
1002.0,0.5541
1003.0,0.557
1004.0,0.5441
1005.0,0.5232
1006.0,0.5441
1007.0,0.5554
1008.0,0.5529
1009.0,0.5505
1010.0,0.5485
1011.0,0.5525
1012.0,0.5483
1013.0,0.551
1014.0,0.5471
1015.0,0.5436
1016.0,0.5412
1017.0,0.5427
1018.0,0.5403
1019.0,0.5299
1020.0,0.5376
1021.0,0.5367
1022.0,0.5329
1023.0,0.5387
1024.0,0.5328
1025.0,0.5379
1026.0,0.5359
1027.0,0.5346
1028.0,0.5336
1029.0,0.5274
1030.0,0.5306
1031.0,0.5286
1032.0,0.5269
1033.0,0.519
1034.0,0.519
1035.0,0.5206
1036.0,0.5235
1037.0,0.5149
1038.0,0.5172
1039.0,0.517
1040.0,0.5149
1041.0,0.5171
1042.0,0.5135
1043.0,0.5119
1044.0,0.5138
1045.0,0.5069
1046.0,0.5013
1047.0,0.5059
1048.0,0.5088
1049.0,0.507
1050.0,0.5048
1051.0,0.5042
1052.0,0.5022
1053.0,0.4984
1054.0,0.4996
1055.0,0.5001
1056.0,0.4985
1057.0,0.4971
1058.0,0.485
1059.0,0.4857
1060.0,0.485
1061.0,0.4846
1062.0,0.4873
1063.0,0.4826
1064.0,0.4883
1065.0,0.4852
1066.0,0.4753
1067.0,0.4815
1068.0,0.4713
1069.0,0.4565
1070.0,0.4723
1071.0,0.4786
1072.0,0.4739
1073.0,0.4669
1074.0,0.4779
1075.0,0.457
1076.0,0.4776
1077.0,0.4709
1078.0,0.4626
1079.0,0.4695
1080.0,0.4637
1081.0,0.4502
1082.0,0.4548
1083.0,0.4556
1084.0,0.45
1085.0,0.4644
1086.0,0.4288
1087.0,0.4388
1088.0,0.4557
1089.0,0.4446
1090.0,0.437
1091.0,0.455
1092.0,0.4532
1093.0,0.3934
1094.0,0.4157
1095.0,0.4084
1096.0,0.3939
1097.0,0.4425
1098.0,0.3886
1099.0,0.4039
1100.0,0.3798
1101.0,0.3832
1102.0,0.3685
1103.0,0.3667
1104.0,0.367
1105.0,0.3955
1106.0,0.3185
1107.0,0.3788
1108.0,0.3308
1109.0,0.3295
1110.0,0.3766
1111.0,0.2687
1112.0,0.3262
1113.0,0.2216
1114.0,0.2459
1115.0,0.2043
1116.0,0.1719
1117.0,0.07344
1118.0,0.1835
1119.0,0.09904
1120.0,0.1247
1121.0,0.1604
1122.0,0.07452
1123.0,0.1125
1124.0,0.09504
1125.0,0.1221
1126.0,0.04959
1127.0,0.1371
1128.0,0.08957
1129.0,0.09378
1130.0,0.06533
1131.0,0.2425
1132.0,0.1935
1133.0,0.1319
1134.0,0.03988
1135.0,0.01469
1136.0,0.1134
1137.0,0.2407
1138.0,0.1718
1139.0,0.2393
1140.0,0.2064
1141.0,0.1632
1142.0,0.1841
1143.0,0.2544
1144.0,0.09783
1145.0,0.1269
1146.0,0.137
1147.0,0.05572
1148.0,0.2203
1149.0,0.1813
1150.0,0.1049
1151.0,0.1706
1152.0,0.2037
1153.0,0.1939
1154.0,0.1248
1155.0,0.2498
1156.0,0.2282
1157.0,0.2514
1158.0,0.2485
1159.0,0.2636
1160.0,0.2307
1161.0,0.2744
1162.0,0.2765
1163.0,0.3571
1164.0,0.3124
1165.0,0.3002
1166.0,0.2944
1167.0,0.3175
1168.0,0.3221
1169.0,0.3276
1170.0,0.3514
1171.0,0.3434
1172.0,0.347
1173.0,0.3506
1174.0,0.2637
1175.0,0.3406
1176.0,0.3682
1177.0,0.3575
1178.0,0.2786
1179.0,0.3709
1180.0,0.338
1181.0,0.3481
1182.0,0.2512
1183.0,0.3412
1184.0,0.3234
1185.0,0.3151
1186.0,0.3631
1187.0,0.3491
1188.0,0.2563
1189.0,0.326
1190.0,0.3549
1191.0,0.3424
1192.0,0.3592
1193.0,0.3462
1194.0,0.3554
1195.0,0.34
1196.0,0.3299
1197.0,0.3535
1198.0,0.3265
1199.0,0.2866
1200.0,0.3422
1201.0,0.333
1202.0,0.3294
1203.0,0.3267
1204.0,0.2908
1205.0,0.3344
1206.0,0.3644
1207.0,0.3293
1208.0,0.3215
1209.0,0.3275
1210.0,0.3391
1211.0,0.3264
1212.0,0.3261
1213.0,0.3542
1214.0,0.3321
1215.0,0.3267
1216.0,0.3529
1217.0,0.3453
1218.0,0.3502
1219.0,0.3467
1220.0,0.3504
1221.0,0.3529
1222.0,0.3448
1223.0,0.3423
1224.0,0.3414
1225.0,0.3507
1226.0,0.352
1227.0,0.3291
1228.0,0.3529
1229.0,0.352
1230.0,0.3468
1231.0,0.354
1232.0,0.352
1233.0,0.3433
1234.0,0.3529
1235.0,0.3512
1236.0,0.3534
1237.0,0.3498
1238.0,0.3522
1239.0,0.3477
1240.0,0.3488
1241.0,0.348
1242.0,0.3465
1243.0,0.3436
1244.0,0.3464
1245.0,0.3477
1246.0,0.3456
1247.0,0.3445
1248.0,0.3447
1249.0,0.3454
1250.0,0.3435
1251.0,0.3397
1252.0,0.3391
1253.0,0.3375
1254.0,0.335
1255.0,0.339
1256.0,0.3317
1257.0,0.3303
1258.0,0.3348
1259.0,0.326
1260.0,0.3273
1261.0,0.3133
1262.0,0.3062
1263.0,0.3069
1264.0,0.2887
1265.0,0.3048
1266.0,0.2965
1267.0,0.2995
1268.0,0.2876
1269.0,0.2031
1270.0,0.2993
1271.0,0.3117
1272.0,0.3122
1273.0,0.3094
1274.0,0.3097
1275.0,0.3134
1276.0,0.3156
1277.0,0.3167
1278.0,0.321
1279.0,0.3183
1280.0,0.3141
1281.0,0.299
1282.0,0.2867
1283.0,0.3091
1284.0,0.3167
1285.0,0.3186
1286.0,0.3222
1287.0,0.3186
1288.0,0.3181
1289.0,0.3107
1290.0,0.3151
1291.0,0.3191
1292.0,0.3048
1293.0,0.3141
1294.0,0.3122
1295.0,0.3119
1296.0,0.3011
1297.0,0.2875
1298.0,0.3042
1299.0,0.314
1300.0,0.275
1301.0,0.2815
1302.0,0.303
1303.0,0.2704
1304.0,0.2393
1305.0,0.2975
1306.0,0.298
1307.0,0.2415
1308.0,0.2694
1309.0,0.2964
1310.0,0.2372
1311.0,0.2602
1312.0,0.2546
1313.0,0.251
1314.0,0.2279
1315.0,0.2268
1316.0,0.2576
1317.0,0.245
1318.0,0.2627
1319.0,0.2158
1320.0,0.2068
1321.0,0.2373
1322.0,0.2411
1323.0,0.1902
1324.0,0.2116
1325.0,0.2543
1326.0,0.2238
1327.0,0.2149
1328.0,0.1881
1329.0,0.1487
1330.0,0.1897
1331.0,0.1239
1332.0,0.1247
1333.0,0.1709
1334.0,0.1412
1335.0,0.1893
1336.0,0.1543
1337.0,0.1394
1338.0,0.1503
1339.0,0.1485
1340.0,0.1421
1341.0,0.144
1342.0,0.1509
1343.0,0.1139
1344.0,0.06805
1345.0,0.09655
1346.0,0.0563
1347.0,0.05862
1348.0,0.005756
1349.0,0.01822
1350.0,0.01732
1351.0,0.006066
1352.0,0.002355
1353.0,0.0001893
1354.0,0.0004967
1355.0,9.679e-06
1356.0,9.635e-05
1357.0,0.0001442
1358.0,1.107e-05
1359.0,2.629e-06
1360.0,6.353e-06
1361.0,2.86e-08
1362.0,1.5e-10
1363.0,9.849e-06
1364.0,4.453e-06
1365.0,1.074e-10
1366.0,3.612e-05
1367.0,1.393e-05
1368.0,3.523e-12
1369.0,1.754e-06
1370.0,1.126e-06
1371.0,9.215e-08
1372.0,7.744e-06
1373.0,9.854e-05
1374.0,0.0003379
1375.0,0.0006022
1376.0,0.0004408
1377.0,0.0002179
1378.0,0.001792
1379.0,9.38e-05
1380.0,0.0001594
1381.0,5.226e-06
1382.0,7.51e-06
1383.0,1.523e-07
1384.0,2.187e-06
1385.0,5.349e-06
1386.0,7.976e-06
1387.0,0.0004054
1388.0,8.836e-06
1389.0,0.00101
1390.0,0.0008616
1391.0,0.000625
1392.0,4.7e-05
1393.0,0.0002085
1394.0,0.0001695
1395.0,1.888e-06
1396.0,3.447e-08
1397.0,9.435e-05
1398.0,0.002054
1399.0,0.00131
1400.0,2.107e-08
1401.0,5.432e-08
1402.0,0.002488
1403.0,0.003338
1404.0,0.001052
1405.0,1.158e-06
1406.0,0.003044
1407.0,0.0002611
1408.0,0.002452
1409.0,0.001027
1410.0,0.0007384
1411.0,0.002903
1412.0,0.003527
1413.0,0.02574
1414.0,0.0005699
1415.0,0.0003062
1416.0,0.03572
1417.0,0.0133
1418.0,0.01518
1419.0,0.002497
1420.0,0.00941
1421.0,0.01043
1422.0,0.0458
1423.0,0.009607
1424.0,0.0174
1425.0,0.02631
1426.0,0.02778
1427.0,0.04614
1428.0,0.005562
1429.0,0.0366
1430.0,0.05728
1431.0,0.06163
1432.0,0.00446
1433.0,0.04108
1434.0,0.02185
1435.0,0.02507
1436.0,0.04313
1437.0,0.03315
1438.0,0.01548
1439.0,0.05632
1440.0,0.04256
1441.0,0.03484
1442.0,0.038
1443.0,0.04407
1444.0,0.05964
1445.0,0.0495
1446.0,0.02316
1447.0,0.03651
1448.0,0.1024
1449.0,0.09181
1450.0,0.02701
1451.0,0.01164
1452.0,0.05797
1453.0,0.07437
1454.0,0.1179
1455.0,0.05926
1456.0,0.08116
1457.0,0.103
1458.0,0.1159
1459.0,0.1378
1460.0,0.07484
1461.0,0.08049
1462.0,0.1133
1463.0,0.04
