interpolation:linear
wavelength,value
280.0,4.108e-21
280.5,1.274e-19
281.0,6.702e-19
281.5,4.465e-19
282.0,1.221e-18
282.5,3.174e-18
283.0,1.018e-17
283.5,1.662e-17
284.0,2.666e-16
284.5,7.654e-16
285.0,1.671e-15
285.5,8.269e-15
286.0,3.32e-14
286.5,1.47e-13
287.0,4.164e-13
287.5,1.574e-12
288.0,4.077e-12
288.5,1.385e-11
289.0,4.003e-11
289.5,1.286e-10
290.0,3.713e-10
290.5,7.781e-10
291.0,1.716e-09
291.5,5.385e-09
292.0,1.177e-08
292.5,1.798e-08
293.0,4.3e-08
293.5,1.217e-07
294.0,2.124e-07
294.5,2.757e-07
295.0,5.211e-07
295.5,1.409e-06
296.0,2.823e-06
296.5,4.111e-06
297.0,5.766e-06
297.5,1.637e-05
298.0,2.719e-05
298.5,2.855e-05
299.0,6.576e-05
299.5,0.0001183
300.0,0.0001366
300.5,0.0002087
301.0,0.0004157
301.5,0.0007351
302.0,0.00067
302.5,0.001315
303.0,0.002375
303.5,0.002999
304.0,0.002823
304.5,0.004228
305.0,0.006434
305.5,0.007382
306.0,0.00715
306.5,0.008909
307.0,0.01323
307.5,0.01759
308.0,0.01858
308.5,0.02194
309.0,0.02155
309.5,0.02462
310.0,0.02471
310.5,0.04001
311.0,0.05019
311.5,0.04844
312.0,0.04834
312.5,0.05874
313.0,0.06367
313.5,0.06189
314.0,0.07724
314.5,0.0683
315.0,0.08973
315.5,0.07518
316.0,0.06551
316.5,0.09387
317.0,0.1166
317.5,0.1214
318.0,0.09458
318.5,0.1171
319.0,0.1387
319.5,0.1134
320.0,0.1371
320.5,0.171
321.0,0.1517
321.5,0.1454
322.0,0.1556
322.5,0.1354
323.0,0.1345
323.5,0.1649
324.0,0.1925
324.5,0.1957
325.0,0.1693
325.5,0.2173
326.0,0.2656
326.5,0.2655
327.0,0.2648
327.5,0.2561
328.0,0.2285
328.5,0.2396
329.0,0.2862
329.5,0.3248
330.0,0.3278
330.5,0.2629
331.0,0.2681
331.5,0.2721
332.0,0.2935
332.5,0.2901
333.0,0.2894
333.5,0.2624
334.0,0.2689
334.5,0.3098
335.0,0.2909
335.5,0.3398
336.0,0.2352
336.5,0.2756
337.0,0.2263
337.5,0.2816
338.0,0.2746
338.5,0.317
339.0,0.3138
339.5,0.302
340.0,0.355
340.5,0.32
341.0,0.3121
341.5,0.2866
342.0,0.3426
342.5,0.3206
343.0,0.3526
343.5,0.3321
344.0,0.2455
344.5,0.248
345.0,0.3283
345.5,0.3353
346.0,0.285
346.5,0.3228
347.0,0.3466
347.5,0.2803
348.0,0.3196
348.5,0.3195
349.0,0.2965
349.5,0.2936
350.0,0.3633
350.5,0.3833
351.0,0.3424
351.5,0.3329
352.0,0.3576
352.5,0.2791
353.0,0.3517
353.5,0.3761
354.0,0.3905
354.5,0.3961
355.0,0.3949
355.5,0.3568
356.0,0.3734
356.5,0.3189
357.0,0.2636
357.5,0.3227
358.0,0.2558
358.5,0.2186
359.0,0.3059
359.5,0.3898
360.0,0.4133
360.5,0.3304
361.0,0.3013
361.5,0.3471
362.0,0.3002
362.5,0.4157
363.0,0.3734
363.5,0.3441
364.0,0.4209
364.5,0.3599
365.0,0.3666
365.5,0.4602
366.0,0.4878
366.5,0.4584
367.0,0.4466
367.5,0.4635
368.0,0.4057
368.5,0.4095
369.0,0.4424
369.5,0.4716
370.0,0.5029
370.5,0.3904
371.0,0.4173
371.5,0.5221
372.0,0.3466
372.5,0.4157
373.0,0.423
373.5,0.2753
374.0,0.4001
374.5,0.3314
375.0,0.3223
375.5,0.4812
376.0,0.399
376.5,0.4136
377.0,0.438
377.5,0.5125
378.0,0.5557
378.5,0.5253
379.0,0.4336
379.5,0.3961
380.0,0.4119
380.5,0.4991
381.0,0.5003
381.5,0.3967
382.0,0.3524
382.5,0.3005
383.0,0.2783
383.5,0.2681
384.0,0.2958
384.5,0.4352
385.0,0.4317
385.5,0.4022
386.0,0.3445
386.5,0.4527
387.0,0.3762
387.5,0.4227
388.0,0.3903
388.5,0.386
389.0,0.4167
389.5,0.5048
390.0,0.5068
390.5,0.4665
391.0,0.5492
391.5,0.5603
392.0,0.472
392.5,0.4227
393.0,0.2353
393.5,0.1711
394.0,0.3482
394.5,0.4428
395.0,0.5404
395.5,0.549
396.0,0.4761
396.5,0.2784
397.0,0.209
397.5,0.4251
398.0,0.5954
398.5,0.6155
399.0,0.6668
399.5,0.6647
400.0,0.6903
401.0,0.7
402.0,0.7389
403.0,0.7022
404.0,0.6916
405.0,0.6917
406.0,0.6808
407.0,0.6701
408.0,0.6964
409.0,0.7456
410.0,0.6518
411.0,0.7062
412.0,0.7588
413.0,0.7402
414.0,0.7495
415.0,0.7518
416.0,0.7652
417.0,0.7466
418.0,0.733
419.0,0.7429
420.0,0.7398
421.0,0.7742
422.0,0.736
423.0,0.7191
424.0,0.7608
425.0,0.7596
426.0,0.7402
427.0,0.7265
428.0,0.7079
429.0,0.6707
430.0,0.5871
431.0,0.582
432.0,0.7517
433.0,0.756
434.0,0.7021
435.0,0.7334
436.0,0.8266
437.0,0.8157
438.0,0.743
439.0,0.7684
440.0,0.7931
441.0,0.822
442.0,0.8817
443.0,0.8588
444.0,0.8777
445.0,0.8587
446.0,0.8198
447.0,0.8865
448.0,0.9003
449.0,0.9041
450.0,0.9296
451.0,0.9642
452.0,0.9291
453.0,0.874
454.0,0.9126
455.0,0.9183
456.0,0.9402
457.0,0.9559
458.0,0.9233
459.0,0.9187
460.0,0.9211
461.0,0.9424
462.0,0.9498
463.0,0.9433
464.0,0.928
465.0,0.9164
466.0,0.9254
467.0,0.9085
468.0,0.9193
469.0,0.9241
470.0,0.8947
471.0,0.8936
472.0,0.9416
473.0,0.9294
474.0,0.9307
475.0,0.9386
476.0,0.9104
477.0,0.9129
478.0,0.9383
479.0,0.9327
480.0,0.9346
481.0,0.9522
482.0,0.9573
483.0,0.9459
484.0,0.9266
485.0,0.8829
486.0,0.7719
487.0,0.8091
488.0,0.8876
489.0,0.8904
490.0,0.9368
491.0,0.9207
492.0,0.8695
493.0,0.898
494.0,0.907
495.0,0.9148
496.0,0.9205
497.0,0.9347
498.0,0.891
499.0,0.9024
500.0,0.8761
501.0,0.8599
502.0,0.8477
503.0,0.8821
504.0,0.8592
505.0,0.8904
506.0,0.9191
507.0,0.8746
508.0,0.8475
509.0,0.8714
510.0,0.8669
511.0,0.8902
512.0,0.9
513.0,0.8518
514.0,0.846
515.0,0.8376
516.0,0.8356
517.0,0.7425
518.0,0.7806
519.0,0.8187
520.0,0.8485
521.0,0.8566
522.0,0.8573
523.0,0.8418
524.0,0.8719
525.0,0.882
526.0,0.8426
527.0,0.7939
528.0,0.8395
529.0,0.8849
530.0,0.8721
531.0,0.885
532.0,0.8546
533.0,0.8295
534.0,0.8541
535.0,0.8728
536.0,0.8809
537.0,0.8462
538.0,0.8612
539.0,0.8539
540.0,0.8187
541.0,0.824
542.0,0.8497
543.0,0.8409
544.0,0.8553
545.0,0.8527
546.0,0.8563
547.0,0.8561
548.0,0.8459
549.0,0.8485
550.0,0.8586
551.0,0.8482
552.0,0.8541
553.0,0.8388
554.0,0.8588
555.0,0.8605
556.0,0.8493
557.0,0.8229
558.0,0.8166
559.0,0.8013
560.0,0.8112
561.0,0.8217
562.0,0.8156
563.0,0.8378
564.0,0.8149
565.0,0.8078
566.0,0.7959
567.0,0.8108
568.0,0.8033
569.0,0.7837
570.0,0.7836
571.0,0.779
572.0,0.7973
573.0,0.8058
574.0,0.8032
575.0,0.788
576.0,0.7808
577.0,0.7894
578.0,0.7777
579.0,0.781
580.0,0.7963
581.0,0.8007
582.0,0.8161
583.0,0.8183
584.0,0.8256
585.0,0.8055
586.0,0.7889
587.0,0.806
588.0,0.7858
589.0,0.6948
590.0,0.7267
591.0,0.7698
592.0,0.7596
593.0,0.7715
594.0,0.7659
595.0,0.7465
596.0,0.777
597.0,0.7683
598.0,0.7667
599.0,0.7675
600.0,0.7689
601.0,0.7629
602.0,0.7577
603.0,0.7703
604.0,0.7832
605.0,0.7792
606.0,0.7761
607.0,0.7839
608.0,0.7754
609.0,0.7768
610.0,0.7714
611.0,0.7755
612.0,0.7733
613.0,0.7636
614.0,0.7533
615.0,0.7698
616.0,0.7445
617.0,0.743
618.0,0.7717
619.0,0.7639
620.0,0.7687
621.0,0.7694
622.0,0.7603
623.0,0.7486
624.0,0.7359
625.0,0.7342
626.0,0.7451
627.0,0.7532
628.0,0.7003
629.0,0.7343
630.0,0.7172
631.0,0.7345
632.0,0.7259
633.0,0.7484
634.0,0.7414
635.0,0.7532
636.0,0.7434
637.0,0.7557
638.0,0.7632
639.0,0.7548
640.0,0.7476
641.0,0.7472
642.0,0.744
643.0,0.754
644.0,0.7517
645.0,0.7528
646.0,0.7349
647.0,0.7253
648.0,0.7259
649.0,0.7118
650.0,0.7164
651.0,0.7476
652.0,0.7153
653.0,0.7377
654.0,0.7296
655.0,0.7019
656.0,0.6225
657.0,0.6393
658.0,0.7168
659.0,0.7221
660.0,0.7252
661.0,0.7303
662.0,0.7315
663.0,0.7172
664.0,0.726
665.0,0.7268
666.0,0.7275
667.0,0.7269
668.0,0.7274
669.0,0.7387
670.0,0.7355
671.0,0.7354
672.0,0.7292
673.0,0.7402
674.0,0.7375
675.0,0.7308
676.0,0.7359
677.0,0.7286
678.0,0.7307
679.0,0.719
680.0,0.7248
681.0,0.72
682.0,0.7191
683.0,0.7177
684.0,0.7141
685.0,0.7203
686.0,0.716
687.0,0.4618
688.0,0.5476
689.0,0.5498
690.0,0.5788
691.0,0.6117
692.0,0.6359
693.0,0.6305
694.0,0.6253
695.0,0.6529
696.0,0.6538
697.0,0.6959
698.0,0.685
699.0,0.6673
700.0,0.6592
701.0,0.6521
702.0,0.6571
703.0,0.6584
704.0,0.6802
705.0,0.6812
706.0,0.681
707.0,0.6816
708.0,0.683
709.0,0.6845
710.0,0.6842
711.0,0.6835
712.0,0.6817
713.0,0.6746
714.0,0.6772
715.0,0.6553
716.0,0.6555
717.0,0.5636
718.0,0.517
719.0,0.4731
720.0,0.4951
721.0,0.5496
722.0,0.632
723.0,0.5867
724.0,0.5266
725.0,0.5175
726.0,0.542
727.0,0.551
728.0,0.516
729.0,0.5371
730.0,0.5682
731.0,0.5431
732.0,0.5828
733.0,0.6187
734.0,0.6339
735.0,0.6205
736.0,0.6197
737.0,0.6222
738.0,0.633
739.0,0.6205
740.0,0.637
741.0,0.6309
742.0,0.6318
743.0,0.6479
744.0,0.6462
745.0,0.6465
746.0,0.6494
747.0,0.6509
748.0,0.6495
749.0,0.6421
750.0,0.6417
751.0,0.6352
752.0,0.638
753.0,0.6412
754.0,0.6427
755.0,0.639
756.0,0.6388
757.0,0.6397
758.0,0.6317
759.0,0.6181
760.0,0.08992
761.0,0.04488
762.0,0.3009
763.0,0.1421
764.0,0.2208
765.0,0.3009
766.0,0.3766
767.0,0.4828
768.0,0.5633
769.0,0.5765
770.0,0.5977
771.0,0.6032
772.0,0.6047
773.0,0.609
774.0,0.6061
775.0,0.6016
776.0,0.6089
777.0,0.6009
778.0,0.5972
779.0,0.5977
780.0,0.5944
781.0,0.595
782.0,0.5987
783.0,0.5883
784.0,0.5912
785.0,0.5868
786.0,0.5932
787.0,0.5822
788.0,0.5747
789.0,0.5744
790.0,0.5582
791.0,0.5639
792.0,0.5599
793.0,0.5507
794.0,0.5611
795.0,0.5703
796.0,0.5515
797.0,0.5522
798.0,0.5695
799.0,0.5656
800.0,0.5555
801.0,0.5535
802.0,0.5519
803.0,0.5475
804.0,0.5484
805.0,0.5471
806.0,0.563
807.0,0.5561
808.0,0.5567
809.0,0.5457
810.0,0.541
811.0,0.541
812.0,0.5247
813.0,0.5133
814.0,0.4489
815.0,0.4462
816.0,0.415
817.0,0.4229
818.0,0.4064
819.0,0.4568
820.0,0.4293
821.0,0.5051
822.0,0.4901
823.0,0.3281
824.0,0.4746
825.0,0.4962
826.0,0.4764
827.0,0.5038
828.0,0.424
829.0,0.4737
830.0,0.4672
831.0,0.4689
832.0,0.4539
833.0,0.4845
834.0,0.4663
835.0,0.5146
836.0,0.4911
837.0,0.5161
838.0,0.4993
839.0,0.5085
840.0,0.5198
841.0,0.5121
842.0,0.5137
843.0,0.514
844.0,0.5065
845.0,0.524
846.0,0.5218
847.0,0.5122
848.0,0.5088
849.0,0.4944
850.0,0.4737
851.0,0.5013
852.0,0.4979
853.0,0.4794
854.0,0.4138
855.0,0.4548
856.0,0.4969
857.0,0.5082
858.0,0.5044
859.0,0.5049
860.0,0.5059
861.0,0.5031
862.0,0.5111
863.0,0.5231
864.0,0.497
865.0,0.4927
866.0,0.443
867.0,0.4623
868.0,0.5031
869.0,0.4927
870.0,0.5067
871.0,0.4998
872.0,0.498
873.0,0.4971
874.0,0.4911
875.0,0.4812
876.0,0.4862
877.0,0.4911
878.0,0.4964
879.0,0.4888
880.0,0.4783
881.0,0.471
882.0,0.4811
883.0,0.4828
884.0,0.4805
885.0,0.4841
886.0,0.4609
887.0,0.4662
888.0,0.4728
889.0,0.4786
890.0,0.4741
891.0,0.4736
892.0,0.4592
893.0,0.4441
894.0,0.4269
895.0,0.4015
896.0,0.3775
897.0,0.3218
898.0,0.3525
899.0,0.2652
900.0,0.3625
901.0,0.278
902.0,0.3302
903.0,0.3321
904.0,0.4237
905.0,0.4083
906.0,0.3815
907.0,0.3061
908.0,0.3127
909.0,0.3405
910.0,0.2979
911.0,0.3197
912.0,0.3348
913.0,0.3022
914.0,0.3002
915.0,0.3255
916.0,0.2748
917.0,0.3522
918.0,0.2816
919.0,0.3595
920.0,0.3652
921.0,0.38
922.0,0.3373
923.0,0.3672
924.0,0.3454
925.0,0.3379
926.0,0.3414
927.0,0.3846
928.0,0.2752
929.0,0.2493
930.0,0.1929
931.0,0.1831
932.0,0.1286
933.0,0.1029
934.0,0.05302
935.0,0.1067
936.0,0.06441
937.0,0.06506
938.0,0.08086
939.0,0.1774
940.0,0.2157
941.0,0.1597
942.0,0.1868
943.0,0.1204
944.0,0.1291
945.0,0.1653
946.0,0.0808
947.0,0.1651
948.0,0.1209
949.0,0.2243
950.0,0.05739
951.0,0.2215
952.0,0.1146
953.0,0.1509
954.0,0.1883
955.0,0.153
956.0,0.1507
957.0,0.1144
958.0,0.2178
959.0,0.1693
960.0,0.1898
961.0,0.216
962.0,0.204
963.0,0.2377
964.0,0.2169
965.0,0.237
966.0,0.2364
967.0,0.2352
968.0,0.3244
969.0,0.3379
970.0,0.3092
971.0,0.358
972.0,0.3416
973.0,0.2934
974.0,0.2779
975.0,0.2901
976.0,0.2732
977.0,0.3153
978.0,0.2977
979.0,0.3131
980.0,0.2936
981.0,0.356
982.0,0.339
983.0,0.3246
984.0,0.3686
985.0,0.3377
986.0,0.3761
987.0,0.3675
988.0,0.3669
989.0,0.3756
990.0,0.3647
991.0,0.3766
992.0,0.3789
993.0,0.3693
994.0,0.3789
995.0,0.3786
996.0,0.3767
997.0,0.3774
998.0,0.3755
999.0,0.3742
1000.0,0.3713
1001.0,0.3762
1002.0,0.3647
1003.0,0.3695
1004.0,0.3602
1005.0,0.3474
1006.0,0.3608
1007.0,0.3685
1008.0,0.3663
1009.0,0.3641
1010.0,0.3625
1011.0,0.3667
1012.0,0.3633
1013.0,0.3658
1014.0,0.3633
1015.0,0.3608
1016.0,0.3592
1017.0,0.3601
1018.0,0.3589
1019.0,0.3508
1020.0,0.3569
1021.0,0.3565
1022.0,0.3535
1023.0,0.3573
1024.0,0.3522
1025.0,0.3572
1026.0,0.3555
1027.0,0.3547
1028.0,0.354
1029.0,0.3497
1030.0,0.3523
1031.0,0.3508
1032.0,0.3498
1033.0,0.3446
1034.0,0.3446
1035.0,0.3457
1036.0,0.3474
1037.0,0.3418
1038.0,0.3433
1039.0,0.343
1040.0,0.3417
1041.0,0.343
1042.0,0.3406
1043.0,0.3395
1044.0,0.3406
1045.0,0.336
1046.0,0.3323
1047.0,0.3352
1048.0,0.337
1049.0,0.3358
1050.0,0.3342
1051.0,0.3337
1052.0,0.3323
1053.0,0.3296
1054.0,0.3302
1055.0,0.3303
1056.0,0.3291
1057.0,0.328
1058.0,0.3199
1059.0,0.3202
1060.0,0.3196
1061.0,0.3192
1062.0,0.3208
1063.0,0.3176
1064.0,0.3214
1065.0,0.3189
1066.0,0.3127
1067.0,0.3167
1068.0,0.3097
1069.0,0.3002
1070.0,0.3103
1071.0,0.3155
1072.0,0.3116
1073.0,0.3071
1074.0,0.3155
1075.0,0.2985
1076.0,0.3152
1077.0,0.3089
1078.0,0.3027
1079.0,0.3104
1080.0,0.3041
1081.0,0.2938
1082.0,0.2995
1083.0,0.3007
1084.0,0.2928
1085.0,0.3049
1086.0,0.2765
1087.0,0.2866
1088.0,0.3002
1089.0,0.2898
1090.0,0.2827
1091.0,0.2989
1092.0,0.2984
1093.0,0.2497
1094.0,0.2726
1095.0,0.2605
1096.0,0.2485
1097.0,0.2915
1098.0,0.2442
1099.0,0.2553
1100.0,0.2359
1101.0,0.2393
1102.0,0.2276
1103.0,0.2248
1104.0,0.2251
1105.0,0.2491
1106.0,0.1851
1107.0,0.2355
1108.0,0.1964
1109.0,0.1974
1110.0,0.233
1111.0,0.1537
1112.0,0.1961
1113.0,0.1204
1114.0,0.1349
1115.0,0.1116
1116.0,0.0865
1117.0,0.02903
1118.0,0.09498
1119.0,0.04484
1120.0,0.05624
1121.0,0.07601
1122.0,0.03003
1123.0,0.05092
1124.0,0.04295
1125.0,0.0566
1126.0,0.01779
1127.0,0.06402
1128.0,0.03619
1129.0,0.03868
1130.0,0.02473
1131.0,0.1267
1132.0,0.09837
1133.0,0.0595
1134.0,0.0137
1135.0,0.005225
1136.0,0.04864
1137.0,0.1234
1138.0,0.08642
1139.0,0.1345
1140.0,0.1102
1141.0,0.08217
1142.0,0.09565
1143.0,0.1382
1144.0,0.04559
1145.0,0.05744
1146.0,0.06191
1147.0,0.01981
1148.0,0.1194
1149.0,0.0937
1150.0,0.04937
1151.0,0.08572
1152.0,0.1075
1153.0,0.1063
1154.0,0.05545
1155.0,0.1402
1156.0,0.1252
1157.0,0.1423
1158.0,0.1407
1159.0,0.1531
1160.0,0.1295
1161.0,0.1625
1162.0,0.1631
1163.0,0.2251
1164.0,0.1913
1165.0,0.1788
1166.0,0.1788
1167.0,0.1956
1168.0,0.1974
1169.0,0.2026
1170.0,0.2216
1171.0,0.2159
1172.0,0.2207
1173.0,0.2212
1174.0,0.1546
1175.0,0.2167
1176.0,0.2399
1177.0,0.2292
1178.0,0.1697
1179.0,0.2419
1180.0,0.2141
1181.0,0.221
1182.0,0.1499
1183.0,0.2181
1184.0,0.2035
1185.0,0.1956
1186.0,0.2344
1187.0,0.2225
1188.0,0.1521
1189.0,0.2071
1190.0,0.2292
1191.0,0.2162
1192.0,0.2326
1193.0,0.2224
1194.0,0.2295
1195.0,0.2161
1196.0,0.2075
1197.0,0.2301
1198.0,0.2099
1199.0,0.1765
1200.0,0.2195
1201.0,0.211
1202.0,0.2103
1203.0,0.2083
1204.0,0.1811
1205.0,0.2158
1206.0,0.2394
1207.0,0.2095
1208.0,0.2068
1209.0,0.2112
1210.0,0.2205
1211.0,0.2092
1212.0,0.2057
1213.0,0.231
1214.0,0.2111
1215.0,0.2069
1216.0,0.2304
1217.0,0.2239
1218.0,0.2285
1219.0,0.2255
1220.0,0.2287
1221.0,0.2312
1222.0,0.225
1223.0,0.2228
1224.0,0.2211
1225.0,0.2297
1226.0,0.2315
1227.0,0.2126
1228.0,0.2329
1229.0,0.2315
1230.0,0.2274
1231.0,0.2345
1232.0,0.2331
1233.0,0.2243
1234.0,0.2345
1235.0,0.2329
1236.0,0.2347
1237.0,0.231
1238.0,0.2339
1239.0,0.2309
1240.0,0.2318
1241.0,0.2305
1242.0,0.2302
1243.0,0.2283
1244.0,0.2299
1245.0,0.2309
1246.0,0.2295
1247.0,0.2286
1248.0,0.2283
1249.0,0.2291
1250.0,0.2277
1251.0,0.2247
1252.0,0.2248
1253.0,0.2228
1254.0,0.2203
1255.0,0.2245
1256.0,0.2177
1257.0,0.2164
1258.0,0.2209
1259.0,0.2121
1260.0,0.2133
1261.0,0.2003
1262.0,0.1938
1263.0,0.1941
1264.0,0.1779
1265.0,0.1929
1266.0,0.1849
1267.0,0.1886
1268.0,0.1781
1269.0,0.1053
1270.0,0.1877
1271.0,0.1998
1272.0,0.2005
1273.0,0.1983
1274.0,0.1991
1275.0,0.2021
1276.0,0.2043
1277.0,0.2059
1278.0,0.2103
1279.0,0.2083
1280.0,0.2057
1281.0,0.1965
1282.0,0.1896
1283.0,0.2042
1284.0,0.209
1285.0,0.2104
1286.0,0.2134
1287.0,0.2098
1288.0,0.2099
1289.0,0.2026
1290.0,0.2081
1291.0,0.2111
1292.0,0.1972
1293.0,0.2067
1294.0,0.2052
1295.0,0.2039
1296.0,0.1939
1297.0,0.1828
1298.0,0.198
1299.0,0.2071
1300.0,0.1733
1301.0,0.179
1302.0,0.1974
1303.0,0.1712
1304.0,0.1441
1305.0,0.1932
1306.0,0.1931
1307.0,0.148
1308.0,0.1718
1309.0,0.1913
1310.0,0.145
1311.0,0.1643
1312.0,0.1595
1313.0,0.1561
1314.0,0.139
1315.0,0.1368
1316.0,0.1613
1317.0,0.1526
1318.0,0.1667
1319.0,0.1279
1320.0,0.1244
1321.0,0.1458
1322.0,0.1468
1323.0,0.1085
1324.0,0.1255
1325.0,0.1589
1326.0,0.1351
1327.0,0.1285
1328.0,0.1101
1329.0,0.08092
1330.0,0.1063
1331.0,0.06199
1332.0,0.06473
1333.0,0.09058
1334.0,0.07786
1335.0,0.108
1336.0,0.08427
1337.0,0.07396
1338.0,0.08002
1339.0,0.07998
1340.0,0.0784
1341.0,0.07514
1342.0,0.07906
1343.0,0.0508
1344.0,0.03062
1345.0,0.04423
1346.0,0.02031
1347.0,0.02036
1348.0,0.001106
1349.0,0.004176
1350.0,0.004493
1351.0,0.00093
1352.0,0.0002095
1353.0,8.935e-06
1354.0,3.482e-05
1355.0,1.914e-07
1356.0,4.317e-06
1357.0,6.6e-06
1358.0,2.303e-07
1359.0,2.166e-08
1360.0,9.498e-08
1361.0,5.763e-11
1362.0,1.232e-13
1363.0,1.163e-07
1364.0,4.798e-08
1365.0,3.083e-14
1366.0,5.496e-07
1367.0,2.398e-07
1368.0,1.248e-16
1369.0,1.772e-08
1370.0,7.723e-09
1371.0,3.796e-10
1372.0,1.324e-07
1373.0,3.25e-06
1374.0,1.73e-05
1375.0,3.104e-05
1376.0,3.159e-05
1377.0,1.406e-05
1378.0,0.0001452
1379.0,5.898e-06
1380.0,7.79e-06
1381.0,1.892e-07
1382.0,1.152e-07
1383.0,1.562e-09
1384.0,1.903e-08
1385.0,1.259e-07
1386.0,9.401e-08
1387.0,1.641e-05
1388.0,3.286e-07
1389.0,6.512e-05
1390.0,5.573e-05
1391.0,3.628e-05
1392.0,2.273e-06
1393.0,1.296e-05
1394.0,5.344e-06
1395.0,3.402e-08
1396.0,9.035e-11
1397.0,4.896e-06
1398.0,0.0001604
1399.0,0.0001023
1400.0,3.31e-11
1401.0,1.725e-10
1402.0,0.000347
1403.0,0.0004199
1404.0,0.0001258
1405.0,1.489e-08
1406.0,0.0003066
1407.0,2.866e-05
1408.0,0.0002539
1409.0,7.621e-05
1410.0,6.615e-05
1411.0,0.0003721
1412.0,0.0005299
1413.0,0.006388
1414.0,5.3e-05
1415.0,2.416e-05
1416.0,0.01169
1417.0,0.003159
1418.0,0.00351
1419.0,0.0005299
1420.0,0.002136
1421.0,0.002331
1422.0,0.01533
1423.0,0.002877
1424.0,0.005504
1425.0,0.0079
1426.0,0.00944
1427.0,0.01842
1428.0,0.001022
1429.0,0.01323
1430.0,0.02397
1431.0,0.0267
1432.0,0.0007977
1433.0,0.01649
1434.0,0.008144
1435.0,0.007324
1436.0,0.01538
1437.0,0.01182
1438.0,0.00465
