interpolation:linear
wavelength,value
280.0,4.311999999999999e-22
280.5,1.4090000000000003e-20
281.0,7.537000000000001e-20
281.5,4.52e-19
282.0,7.479e-19
282.5,1.853e-18
283.0,5.849e-18
283.5,9.512e-18
284.0,1.558e-16
284.5,4.532e-16
285.0,7.749e-16
285.5,3.841e-15
286.0,1.546e-14
286.5,6.933e-14
287.0,1.984e-13
287.5,7.625e-13
288.0,2.561e-12
288.5,7.789e-12
289.0,2.081e-11
289.5,6.293e-11
290.0,1.748e-10
290.5,3.566e-10
291.0,7.656e-10
291.5,2.198e-09
292.0,4.604e-09
292.5,6.469e-09
293.0,1.39e-08
293.5,3.389e-08
294.0,5.305e-08
294.5,7.206e-08
295.0,1.222e-07
295.5,2.159e-07
296.0,4.232e-07
296.5,6.027e-07
297.0,8.292e-07
297.5,2.292e-06
298.0,3.722e-06
298.5,3.844e-06
299.0,8.725e-06
299.5,1.537e-05
300.0,1.755e-05
300.5,2.652e-05
301.0,5.179e-05
301.5,8.921e-05
302.0,7.968e-05
302.5,0.000161
303.0,0.0003034
303.5,0.0003962
304.0,0.0003845
304.5,0.0006253
305.0,0.001072
305.5,0.001328
306.0,0.001325
306.5,0.001737
307.0,0.00289
307.5,0.004297
308.0,0.004623
308.5,0.005774
309.0,0.005923
309.5,0.007324
310.0,0.007625
310.5,0.01257
311.0,0.01624
311.5,0.01588
312.0,0.0169
312.5,0.02142
313.0,0.02374
313.5,0.0226
314.0,0.02968
314.5,0.02807
315.0,0.03731
315.5,0.03027
316.0,0.02785
316.5,0.04182
317.0,0.05188
317.5,0.05332
318.0,0.04289
318.5,0.05642
319.0,0.06894
319.5,0.05365
320.0,0.06438
320.5,0.08546
321.0,0.08021
321.5,0.07733
322.0,0.07792
322.5,0.068
323.0,0.07027
323.5,0.08928
324.0,0.1048
324.5,0.1049
325.0,0.08905
325.5,0.118
326.0,0.1454
326.5,0.1484
327.0,0.1469
327.5,0.1407
328.0,0.1222
328.5,0.1325
329.0,0.1625
329.5,0.1859
330.0,0.1865
330.5,0.1465
331.0,0.1484
331.5,0.153
332.0,0.1687
332.5,0.1685
333.0,0.1671
333.5,0.1491
334.0,0.1524
334.5,0.179
335.0,0.1699
335.5,0.1988
336.0,0.1376
336.5,0.1602
337.0,0.1306
337.5,0.162
338.0,0.1605
338.5,0.1859
339.0,0.1842
339.5,0.1772
340.0,0.2077
340.5,0.1876
341.0,0.1834
341.5,0.1687
342.0,0.2018
342.5,0.189
343.0,0.2077
343.5,0.1955
344.0,0.1443
344.5,0.146
345.0,0.1936
345.5,0.1979
346.0,0.1684
346.5,0.1909
347.0,0.2048
347.5,0.1657
348.0,0.1892
348.5,0.1893
349.0,0.1757
349.5,0.1741
350.0,0.2155
350.5,0.2274
351.0,0.2032
351.5,0.1973
352.0,0.2122
352.5,0.1658
353.0,0.2091
353.5,0.2238
354.0,0.2324
354.5,0.2358
355.0,0.2351
355.5,0.2126
356.0,0.2226
356.5,0.1901
357.0,0.1571
357.5,0.1925
358.0,0.1526
358.5,0.1305
359.0,0.1826
359.5,0.2326
360.0,0.2468
360.5,0.1974
361.0,0.1801
361.5,0.2076
362.0,0.1797
362.5,0.249
363.0,0.2238
363.5,0.2063
364.0,0.2526
364.5,0.216
365.0,0.2201
365.5,0.2764
366.0,0.2931
366.5,0.2757
367.0,0.2686
367.5,0.2789
368.0,0.2442
368.5,0.2466
369.0,0.2665
369.5,0.2842
370.0,0.3032
370.5,0.2355
371.0,0.2518
371.5,0.3152
372.0,0.2093
372.5,0.2511
373.0,0.2556
373.5,0.1665
374.0,0.242
374.5,0.2006
375.0,0.1951
375.5,0.2914
376.0,0.2417
376.5,0.2506
377.0,0.2655
377.5,0.3108
378.0,0.337
378.5,0.3187
379.0,0.2631
379.5,0.2404
380.0,0.25
380.5,0.3031
381.0,0.304
381.5,0.2412
382.0,0.2144
382.5,0.1829
383.0,0.1695
383.5,0.1634
384.0,0.1803
384.5,0.2654
385.0,0.2634
385.5,0.2455
386.0,0.2104
386.5,0.2766
387.0,0.2299
387.5,0.2584
388.0,0.2387
388.5,0.2362
389.0,0.2551
389.5,0.3091
390.0,0.3104
390.5,0.2859
391.0,0.3367
391.5,0.3436
392.0,0.2896
392.5,0.2594
393.0,0.1445
393.5,0.1051
394.0,0.214
394.5,0.2722
395.0,0.3323
395.5,0.3377
396.0,0.293
396.5,0.1714
397.0,0.1287
397.5,0.262
398.0,0.3669
398.5,0.3795
399.0,0.4113
399.5,0.4102
400.0,0.426
401.0,0.4303
402.0,0.4546
403.0,0.4324
404.0,0.4262
405.0,0.4265
406.0,0.4202
407.0,0.4139
408.0,0.4303
409.0,0.461
410.0,0.4033
411.0,0.4374
412.0,0.4705
413.0,0.459
414.0,0.4652
415.0,0.467
416.0,0.4758
417.0,0.4645
418.0,0.4563
419.0,0.4628
420.0,0.4611
421.0,0.4828
422.0,0.4593
423.0,0.449
424.0,0.4752
425.0,0.4748
426.0,0.4632
427.0,0.4549
428.0,0.4434
429.0,0.4206
430.0,0.3684
431.0,0.3653
432.0,0.4722
433.0,0.4752
434.0,0.4414
435.0,0.4612
436.0,0.5203
437.0,0.514
438.0,0.4685
439.0,0.4842
440.0,0.5001
441.0,0.5187
442.0,0.5567
443.0,0.5421
444.0,0.5544
445.0,0.5425
446.0,0.5186
447.0,0.5614
448.0,0.5699
449.0,0.573
450.0,0.5895
451.0,0.6117
452.0,0.5898
453.0,0.5551
454.0,0.5801
455.0,0.5838
456.0,0.598
457.0,0.6081
458.0,0.5871
459.0,0.5844
460.0,0.5858
461.0,0.5995
462.0,0.6047
463.0,0.6006
464.0,0.5915
465.0,0.5849
466.0,0.5911
467.0,0.5802
468.0,0.5871
469.0,0.5903
470.0,0.5714
471.0,0.5709
472.0,0.6016
473.0,0.5938
474.0,0.5943
475.0,0.5989
476.0,0.5803
477.0,0.5814
478.0,0.5978
479.0,0.5946
480.0,0.5962
481.0,0.608
482.0,0.6119
483.0,0.6053
484.0,0.5934
485.0,0.5659
486.0,0.4952
487.0,0.5195
488.0,0.5699
489.0,0.5714
490.0,0.6016
491.0,0.5915
492.0,0.5587
493.0,0.5771
494.0,0.583
495.0,0.5881
496.0,0.5918
497.0,0.6009
498.0,0.5727
499.0,0.5798
500.0,0.5625
501.0,0.5518
502.0,0.5431
503.0,0.5643
504.0,0.5473
505.0,0.5691
506.0,0.5874
507.0,0.5591
508.0,0.5426
509.0,0.5584
510.0,0.556
511.0,0.5715
512.0,0.578
513.0,0.5472
514.0,0.5437
515.0,0.5383
516.0,0.5369
517.0,0.4772
518.0,0.5017
519.0,0.5262
520.0,0.5452
521.0,0.5503
522.0,0.5505
523.0,0.5405
524.0,0.5593
525.0,0.5652
526.0,0.5397
527.0,0.508
528.0,0.5369
529.0,0.5655
530.0,0.5571
531.0,0.5651
532.0,0.5456
533.0,0.5296
534.0,0.5455
535.0,0.5578
536.0,0.5632
537.0,0.5413
538.0,0.551
539.0,0.5463
540.0,0.5237
541.0,0.5263
542.0,0.5424
543.0,0.5373
544.0,0.546
545.0,0.5444
546.0,0.5462
547.0,0.5465
548.0,0.5403
549.0,0.5421
550.0,0.5486
551.0,0.5421
552.0,0.5458
553.0,0.536
554.0,0.5487
555.0,0.5496
556.0,0.5424
557.0,0.5252
558.0,0.5209
559.0,0.5107
560.0,0.5168
561.0,0.5231
562.0,0.5188
563.0,0.5324
564.0,0.5174
565.0,0.5125
566.0,0.5046
567.0,0.5136
568.0,0.5076
569.0,0.4929
570.0,0.4931
571.0,0.4908
572.0,0.5008
573.0,0.5058
574.0,0.5038
575.0,0.4937
576.0,0.4893
577.0,0.4949
578.0,0.4882
579.0,0.4914
580.0,0.5028
581.0,0.5069
582.0,0.5178
583.0,0.5202
584.0,0.5254
585.0,0.513
586.0,0.5025
587.0,0.5127
588.0,0.4968
589.0,0.4336
590.0,0.454
591.0,0.4844
592.0,0.476
593.0,0.486
594.0,0.4814
595.0,0.467
596.0,0.4909
597.0,0.4842
598.0,0.4846
599.0,0.4857
600.0,0.4878
601.0,0.4848
602.0,0.4817
603.0,0.4902
604.0,0.4986
605.0,0.4964
606.0,0.4949
607.0,0.5005
608.0,0.4955
609.0,0.4969
610.0,0.4939
611.0,0.4969
612.0,0.4958
613.0,0.4898
614.0,0.4837
615.0,0.4947
616.0,0.4788
617.0,0.4781
618.0,0.4968
619.0,0.492
620.0,0.4951
621.0,0.4951
622.0,0.4889
623.0,0.4811
624.0,0.4732
625.0,0.4722
626.0,0.479
627.0,0.4831
628.0,0.4361
629.0,0.4664
630.0,0.4552
631.0,0.4706
632.0,0.4659
633.0,0.4822
634.0,0.4792
635.0,0.4876
636.0,0.4821
637.0,0.4907
638.0,0.4966
639.0,0.4917
640.0,0.4877
641.0,0.4879
642.0,0.4863
643.0,0.4929
644.0,0.492
645.0,0.4924
646.0,0.4791
647.0,0.4692
648.0,0.4697
649.0,0.4601
650.0,0.4677
651.0,0.489
652.0,0.4632
653.0,0.4828
654.0,0.4779
655.0,0.4573
656.0,0.4073
657.0,0.4186
658.0,0.4708
659.0,0.4749
660.0,0.4772
661.0,0.4807
662.0,0.4807
663.0,0.4716
664.0,0.4787
665.0,0.4803
666.0,0.4811
667.0,0.4813
668.0,0.4821
669.0,0.49
670.0,0.4881
671.0,0.4883
672.0,0.4843
673.0,0.4919
674.0,0.4903
675.0,0.4861
676.0,0.4897
677.0,0.485
678.0,0.4866
679.0,0.479
680.0,0.4829
681.0,0.4798
682.0,0.4793
683.0,0.4784
684.0,0.476
685.0,0.4803
686.0,0.4772
687.0,0.254
688.0,0.3253
689.0,0.3275
690.0,0.3535
691.0,0.3838
692.0,0.4074
693.0,0.4034
694.0,0.4011
695.0,0.4257
696.0,0.4267
697.0,0.4622
698.0,0.4548
699.0,0.4376
700.0,0.432
701.0,0.4252
702.0,0.4306
703.0,0.4319
704.0,0.4496
705.0,0.4502
706.0,0.4513
707.0,0.4523
708.0,0.4531
709.0,0.4563
710.0,0.4549
711.0,0.4552
712.0,0.4551
713.0,0.4493
714.0,0.4514
715.0,0.4345
716.0,0.4341
717.0,0.3534
718.0,0.3224
719.0,0.2935
720.0,0.3051
721.0,0.3501
722.0,0.4149
723.0,0.3791
724.0,0.3328
725.0,0.3246
726.0,0.3406
727.0,0.3513
728.0,0.3227
729.0,0.3429
730.0,0.3613
731.0,0.344
732.0,0.3765
733.0,0.4064
734.0,0.4186
735.0,0.4086
736.0,0.4078
737.0,0.4094
738.0,0.4218
739.0,0.4136
740.0,0.4262
741.0,0.4231
742.0,0.4246
743.0,0.4357
744.0,0.4352
745.0,0.4359
746.0,0.4379
747.0,0.439
748.0,0.4381
749.0,0.4332
750.0,0.433
751.0,0.4286
752.0,0.4306
753.0,0.4328
754.0,0.4338
755.0,0.4313
756.0,0.4312
757.0,0.4318
758.0,0.4263
759.0,0.4138
760.0,0.0266
761.0,0.01011
762.0,0.1487
763.0,0.05072
764.0,0.09505
765.0,0.1485
766.0,0.2086
767.0,0.2935
768.0,0.3657
769.0,0.3797
770.0,0.4
771.0,0.4065
772.0,0.4084
773.0,0.4115
774.0,0.4098
775.0,0.4068
776.0,0.4119
777.0,0.4065
778.0,0.404
779.0,0.4043
780.0,0.4021
781.0,0.4026
782.0,0.4052
783.0,0.3982
784.0,0.4002
785.0,0.397
786.0,0.4011
787.0,0.3912
788.0,0.3849
789.0,0.3846
790.0,0.3704
791.0,0.3776
792.0,0.3754
793.0,0.3689
794.0,0.3793
795.0,0.3846
796.0,0.3672
797.0,0.3672
798.0,0.3835
799.0,0.38
800.0,0.3721
801.0,0.3696
802.0,0.3685
803.0,0.365
804.0,0.3661
805.0,0.3666
806.0,0.3797
807.0,0.3745
808.0,0.3751
809.0,0.3659
810.0,0.3616
811.0,0.359
812.0,0.345
813.0,0.3361
814.0,0.2847
815.0,0.2837
816.0,0.2627
817.0,0.2683
818.0,0.2557
819.0,0.2953
820.0,0.2747
821.0,0.3348
822.0,0.3231
823.0,0.199
824.0,0.3085
825.0,0.329
826.0,0.312
827.0,0.3338
828.0,0.27
829.0,0.3111
830.0,0.3059
831.0,0.3071
832.0,0.2953
833.0,0.3203
834.0,0.3048
835.0,0.3444
836.0,0.3233
837.0,0.3456
838.0,0.3316
839.0,0.341
840.0,0.3493
841.0,0.3429
842.0,0.3458
843.0,0.3479
844.0,0.3418
845.0,0.355
846.0,0.3538
847.0,0.3479
848.0,0.3447
849.0,0.3349
850.0,0.321
851.0,0.3388
852.0,0.3369
853.0,0.3251
854.0,0.28
855.0,0.3087
856.0,0.3369
857.0,0.3451
858.0,0.3422
859.0,0.343
860.0,0.3439
861.0,0.3419
862.0,0.3475
863.0,0.3557
864.0,0.3379
865.0,0.3351
866.0,0.3013
867.0,0.3145
868.0,0.3422
869.0,0.3352
870.0,0.3448
871.0,0.34
872.0,0.3389
873.0,0.3382
874.0,0.3342
875.0,0.3274
876.0,0.3308
877.0,0.3342
878.0,0.3376
879.0,0.3325
880.0,0.3254
881.0,0.32
882.0,0.3267
883.0,0.3283
884.0,0.3265
885.0,0.329
886.0,0.3117
887.0,0.3165
888.0,0.3203
889.0,0.3255
890.0,0.3209
891.0,0.3213
892.0,0.3095
893.0,0.2974
894.0,0.2816
895.0,0.2595
896.0,0.2426
897.0,0.2007
898.0,0.2229
899.0,0.1609
900.0,0.2332
901.0,0.1686
902.0,0.2095
903.0,0.2074
904.0,0.2794
905.0,0.2674
906.0,0.2481
907.0,0.1892
908.0,0.1953
909.0,0.2165
910.0,0.182
911.0,0.2009
912.0,0.2109
913.0,0.1842
914.0,0.1846
915.0,0.1995
916.0,0.1674
917.0,0.2218
918.0,0.1709
919.0,0.229
920.0,0.2381
921.0,0.2474
922.0,0.2143
923.0,0.2398
924.0,0.2179
925.0,0.2136
926.0,0.2148
927.0,0.2474
928.0,0.1618
929.0,0.1425
930.0,0.104
931.0,0.09892
932.0,0.0633
933.0,0.04802
934.0,0.01961
935.0,0.05185
936.0,0.02784
937.0,0.02798
938.0,0.03602
939.0,0.09564
940.0,0.121
941.0,0.08378
942.0,0.101
943.0,0.06074
944.0,0.06969
945.0,0.08802
946.0,0.03732
947.0,0.08636
948.0,0.06269
949.0,0.1231
950.0,0.02406
951.0,0.1223
952.0,0.0563
953.0,0.07895
954.0,0.104
955.0,0.08062
956.0,0.08498
957.0,0.05581
958.0,0.1288
959.0,0.09339
960.0,0.1047
961.0,0.1246
962.0,0.1174
963.0,0.1416
964.0,0.1279
965.0,0.141
966.0,0.1401
967.0,0.1387
968.0,0.2104
969.0,0.2162
970.0,0.1963
971.0,0.2355
972.0,0.2229
973.0,0.1832
974.0,0.1729
975.0,0.1831
976.0,0.1678
977.0,0.2035
978.0,0.1881
979.0,0.2001
980.0,0.1865
981.0,0.2344
982.0,0.22
983.0,0.2091
984.0,0.2465
985.0,0.2191
986.0,0.2539
987.0,0.2453
988.0,0.2452
989.0,0.2552
990.0,0.2435
991.0,0.2556
992.0,0.2574
993.0,0.2481
994.0,0.2577
995.0,0.2579
996.0,0.2562
997.0,0.2569
998.0,0.2554
999.0,0.2547
1000.0,0.252
1001.0,0.2561
1002.0,0.2456
1003.0,0.2514
1004.0,0.2443
1005.0,0.2366
1006.0,0.2453
1007.0,0.2508
1008.0,0.2488
1009.0,0.2468
1010.0,0.2454
1011.0,0.2496
1012.0,0.2468
1013.0,0.2492
1014.0,0.2474
1015.0,0.2457
1016.0,0.2445
1017.0,0.245
1018.0,0.2445
1019.0,0.238
1020.0,0.243
1021.0,0.2429
1022.0,0.2405
1023.0,0.243
1024.0,0.2385
1025.0,0.2433
1026.0,0.2419
1027.0,0.2414
1028.0,0.2408
1029.0,0.2378
1030.0,0.2399
1031.0,0.2388
1032.0,0.2382
1033.0,0.2346
1034.0,0.2347
1035.0,0.2354
1036.0,0.2365
1037.0,0.2327
1038.0,0.2337
1039.0,0.2334
1040.0,0.2325
1041.0,0.2333
1042.0,0.2316
1043.0,0.2308
1044.0,0.2316
1045.0,0.2283
1046.0,0.2257
1047.0,0.2277
1048.0,0.2288
1049.0,0.2279
1050.0,0.2267
1051.0,0.2262
1052.0,0.2252
1053.0,0.2232
1054.0,0.2235
1055.0,0.2235
1056.0,0.2224
1057.0,0.2216
1058.0,0.2159
1059.0,0.2159
1060.0,0.2155
1061.0,0.2151
1062.0,0.216
1063.0,0.2137
1064.0,0.2163
1065.0,0.2143
1066.0,0.2104
1067.0,0.213
1068.0,0.208
1069.0,0.2019
1070.0,0.2084
1071.0,0.2128
1072.0,0.2094
1073.0,0.2066
1074.0,0.2133
1075.0,0.1991
1076.0,0.2129
1077.0,0.2072
1078.0,0.2023
1079.0,0.2101
1080.0,0.204
1081.0,0.1957
1082.0,0.2019
1083.0,0.2033
1084.0,0.1945
1085.0,0.2048
1086.0,0.1822
1087.0,0.1912
1088.0,0.2025
1089.0,0.1929
1090.0,0.1869
1091.0,0.201
1092.0,0.2011
1093.0,0.1615
1094.0,0.1828
1095.0,0.1689
1096.0,0.1592
1097.0,0.1965
1098.0,0.1554
1099.0,0.1635
1100.0,0.1485
1101.0,0.1516
1102.0,0.1423
1103.0,0.1392
1104.0,0.1396
1105.0,0.159
1106.0,0.1075
1107.0,0.1483
1108.0,0.1174
1109.0,0.1191
1110.0,0.1454
1111.0,0.08763
1112.0,0.1187
1113.0,0.06501
1114.0,0.07321
1115.0,0.05995
1116.0,0.04231
1117.0,0.01072
1118.0,0.04743
1119.0,0.01911
1120.0,0.02345
1121.0,0.03344
1122.0,0.01067
1123.0,0.02138
1124.0,0.01798
1125.0,0.02456
1126.0,0.005422
1127.0,0.02801
1128.0,0.0131
1129.0,0.01426
1130.0,0.008624
1131.0,0.06343
1132.0,0.04771
1133.0,0.02474
1134.0,0.004082
1135.0,0.001679
1136.0,0.01883
1137.0,0.06014
1138.0,0.04137
1139.0,0.07403
1140.0,0.05709
1141.0,0.03946
1142.0,0.04762
1143.0,0.07303
1144.0,0.02018
1145.0,0.02386
1146.0,0.02567
1147.0,0.005979
1148.0,0.06254
1149.0,0.04651
1150.0,0.02275
1151.0,0.04104
1152.0,0.05463
1153.0,0.05655
1154.0,0.02331
1155.0,0.07705
1156.0,0.06683
1157.0,0.08008
1158.0,0.07902
1159.0,0.08803
1160.0,0.07282
1161.0,0.09679
1162.0,0.09656
1163.0,0.1434
1164.0,0.1184
1165.0,0.107
1166.0,0.1101
1167.0,0.1221
1168.0,0.1224
1169.0,0.1266
1170.0,0.1416
1171.0,0.1379
1172.0,0.1431
1173.0,0.1414
1174.0,0.09187
1175.0,0.1405
1176.0,0.1598
1177.0,0.1497
1178.0,0.1055
1179.0,0.1612
1180.0,0.138
1181.0,0.1427
1182.0,0.09068
1183.0,0.1417
1184.0,0.1302
1185.0,0.1232
1186.0,0.1541
1187.0,0.1442
1188.0,0.09085
1189.0,0.134
1190.0,0.1511
1191.0,0.1384
1192.0,0.1537
1193.0,0.1456
1194.0,0.1512
1195.0,0.1395
1196.0,0.1325
1197.0,0.1528
1198.0,0.1381
1199.0,0.1103
1200.0,0.1436
1201.0,0.1359
1202.0,0.1373
1203.0,0.1349
1204.0,0.1149
1205.0,0.1425
1206.0,0.1609
1207.0,0.1359
1208.0,0.1359
1209.0,0.1392
1210.0,0.1466
1211.0,0.1371
1212.0,0.1315
1213.0,0.1538
1214.0,0.1362
1215.0,0.1331
1216.0,0.1537
1217.0,0.1482
1218.0,0.1523
1219.0,0.1496
1220.0,0.1526
1221.0,0.1549
1222.0,0.1503
1223.0,0.1483
1224.0,0.146
1225.0,0.1537
1226.0,0.1558
1227.0,0.14
1228.0,0.1574
1229.0,0.1558
1230.0,0.1525
1231.0,0.1593
1232.0,0.1582
1233.0,0.1495
1234.0,0.1598
1235.0,0.1583
1236.0,0.1599
1237.0,0.1563
1238.0,0.1594
1239.0,0.1573
1240.0,0.158
1241.0,0.1565
1242.0,0.1569
1243.0,0.1556
1244.0,0.1565
1245.0,0.1573
1246.0,0.1564
1247.0,0.1556
1248.0,0.1551
1249.0,0.1559
1250.0,0.1547
1251.0,0.1522
1252.0,0.1529
1253.0,0.1505
1254.0,0.1481
1255.0,0.1524
1256.0,0.146
1257.0,0.1448
1258.0,0.1492
1259.0,0.1405
1260.0,0.1416
1261.0,0.1296
1262.0,0.1236
1263.0,0.1237
1264.0,0.1095
1265.0,0.123
1266.0,0.1156
1267.0,0.1196
1268.0,0.1103
1269.0,0.05116
1270.0,0.1184
1271.0,0.1297
1272.0,0.1306
1273.0,0.1287
1274.0,0.1297
1275.0,0.1324
1276.0,0.1345
1277.0,0.1364
1278.0,0.1406
1279.0,0.1392
1280.0,0.1376
1281.0,0.1321
1282.0,0.1285
1283.0,0.1381
1284.0,0.1412
1285.0,0.1424
1286.0,0.145
1287.0,0.1414
1288.0,0.1418
1289.0,0.1348
1290.0,0.1407
1291.0,0.1431
1292.0,0.1298
1293.0,0.1393
1294.0,0.1381
1295.0,0.1359
1296.0,0.1269
1297.0,0.1181
1298.0,0.1315
1299.0,0.1399
1300.0,0.1112
1301.0,0.1158
1302.0,0.1312
1303.0,0.1104
1304.0,0.08768
1305.0,0.1281
1306.0,0.1275
1307.0,0.09199
1308.0,0.1118
1309.0,0.1254
1310.0,0.08968
1311.0,0.1056
1312.0,0.1018
1313.0,0.09833
1314.0,0.08568
1315.0,0.0831
1316.0,0.1027
1317.0,0.09637
1318.0,0.1075
1319.0,0.0763
1320.0,0.07548
1321.0,0.09064
1322.0,0.0901
1323.0,0.06161
1324.0,0.07514
1325.0,0.1004
1326.0,0.08231
1327.0,0.0774
1328.0,0.0646
1329.0,0.04322
1330.0,0.05903
1331.0,0.03005
1332.0,0.03266
1333.0,0.04652
1334.0,0.04301
1335.0,0.06091
1336.0,0.04492
1337.0,0.03877
1338.0,0.04161
1339.0,0.04221
1340.0,0.04272
1341.0,0.03778
1342.0,0.04017
1343.0,0.02102
1344.0,0.01318
1345.0,0.01866
1346.0,0.006286
1347.0,0.005907
1348.0,0.0001699
1349.0,0.0007413
1350.0,0.0008827
1351.0,0.000101
1352.0,1.038e-05
1353.0,2.671e-07
1354.0,1.586e-06
1355.0,3.028e-09
1356.0,1.281e-07
1357.0,1.94e-07
1358.0,3.738e-09
1359.0,2.577e-10
1360.0,1.289e-09
1361.0,8.484e-13
1362.0,2.273e-15
1363.0,1.337e-09
1364.0,5.815e-10
1365.0,7.864e-16
1366.0,6.562e-09
1367.0,3.343e-09
1368.0,6.063e-18
1369.0,2.147e-10
1370.0,9.003e-11
1371.0,4.663e-12
1372.0,1.881e-09
1373.0,6.725e-08
1374.0,5.33e-07
1375.0,8.26e-07
1376.0,1.484e-06
1377.0,6.114e-07
1378.0,6.62e-06
1379.0,2.643e-07
1380.0,2.429e-07
1381.0,5.231e-09
1382.0,1.516e-09
1383.0,1.966e-11
1384.0,2.161e-10
1385.0,2.271e-09
1386.0,1.096e-09
1387.0,3.401e-07
1388.0,9.062e-09
1389.0,2.393e-06
1390.0,1.905e-06
1391.0,1.221e-06
1392.0,7.651e-08
1393.0,5.352e-07
1394.0,9.813e-08
1395.0,5.172e-10
1396.0,1.131e-12
1397.0,1.704e-07
1398.0,6.63e-06
1399.0,4.451e-06
1400.0,4.68e-13
1401.0,2.048e-12
1402.0,3.555e-05
1403.0,3.564e-05
1404.0,9.67e-06
1405.0,1.863e-10
1406.0,1.729e-05
1407.0,2.481e-06
1408.0,1.529e-05
1409.0,2.99e-06
1410.0,4e-06
1411.0,3.293e-05
1412.0,5.832e-05
1413.0,0.001154
1414.0,3.453e-06
1415.0,1.322e-06
1416.0,0.00324
1417.0,0.0006449
1418.0,0.0005914
1419.0,8.334e-05
1420.0,0.000356
1421.0,0.0004496
1422.0,0.004241
1423.0,0.0007566
1424.0,0.00157
1425.0,0.002012
1426.0,0.002879
1427.0,0.006484
1428.0,0.0001449
1429.0,0.004102
1430.0,0.009071
