interpolation:linear
wavelength,value
280.0,5.1330000000000003e-20
280.5,1.434e-18
281.0,7.286e-18
281.5,4.638e-19
282.0,2.054e-18
282.5,5.843e-18
283.0,1.951e-17
283.5,3.222e-17
284.0,5.075e-16
284.5,1.431e-15
285.0,2.828e-15
285.5,1.756e-14
286.0,7.522e-14
286.5,3.662e-13
287.0,1.095e-12
287.5,4.371e-12
288.0,1.284e-11
288.5,5.11e-11
289.0,1.723e-10
289.5,6.507e-10
290.0,2.139e-09
290.5,5.003e-09
291.0,1.254e-08
291.5,4.338e-08
292.0,1.166e-07
292.5,1.832e-07
293.0,4.54e-07
293.5,1.35e-06
294.0,2.461e-06
294.5,3.208e-06
295.0,6.249e-06
295.5,1.501e-05
296.0,2.846e-05
296.5,3.911e-05
297.0,5.214e-05
297.5,0.0001365
298.0,0.0002107
298.5,0.0002085
299.0,0.0004522
299.5,0.0007277
300.0,0.0007869
300.5,0.00112
301.0,0.001966
301.5,0.003048
302.0,0.002573
302.5,0.004847
303.0,0.008303
303.5,0.01014
304.0,0.009326
304.5,0.01316
305.0,0.01846
305.5,0.02014
306.0,0.01914
306.5,0.0231
307.0,0.03204
307.5,0.03997
308.0,0.04178
308.5,0.04783
309.0,0.04608
309.5,0.05049
310.0,0.04971
310.5,0.07969
311.0,0.09836
311.5,0.09424
312.0,0.09083
312.5,0.1078
313.0,0.1155
313.5,0.1134
314.0,0.1377
314.5,0.1174
315.0,0.1531
315.5,0.1305
316.0,0.1104
316.5,0.1542
317.0,0.1916
317.5,0.2009
318.0,0.1538
318.5,0.1841
319.0,0.2145
319.5,0.18
320.0,0.2185
320.5,0.2635
321.0,0.2269
321.5,0.2168
322.0,0.2394
322.5,0.2079
323.0,0.2023
323.5,0.2431
324.0,0.2826
324.5,0.2897
325.0,0.2533
325.5,0.3197
326.0,0.3886
326.5,0.3842
327.0,0.3847
327.5,0.3737
328.0,0.3382
328.5,0.3484
329.0,0.4105
329.5,0.4637
330.0,0.4695
330.5,0.3803
331.0,0.3891
331.5,0.3918
332.0,0.4177
332.5,0.4106
333.0,0.4108
333.5,0.3754
334.0,0.3852
334.5,0.4395
335.0,0.4103
335.5,0.4792
336.0,0.3315
336.5,0.3894
337.0,0.3209
337.5,0.3997
338.0,0.3868
338.5,0.4462
339.0,0.4415
339.5,0.4247
340.0,0.4991
340.5,0.4495
341.0,0.4385
341.5,0.4024
342.0,0.4808
342.5,0.4497
343.0,0.4946
343.5,0.4658
344.0,0.3441
344.5,0.3477
345.0,0.4598
345.5,0.4693
346.0,0.3987
346.5,0.4514
347.0,0.4846
347.5,0.3918
348.0,0.4465
348.5,0.4462
349.0,0.4139
349.5,0.4097
350.0,0.5067
350.5,0.5344
351.0,0.4774
351.5,0.4641
352.0,0.4983
352.5,0.3888
353.0,0.4896
353.5,0.5234
354.0,0.5433
354.5,0.551
355.0,0.5492
355.5,0.496
356.0,0.5189
356.5,0.4431
357.0,0.3661
357.5,0.4482
358.0,0.3551
358.5,0.3035
359.0,0.4245
359.5,0.541
360.0,0.5735
360.5,0.4583
361.0,0.4177
361.5,0.4809
362.0,0.4157
362.5,0.5753
363.0,0.5166
363.5,0.4758
364.0,0.5818
364.5,0.4973
365.0,0.5064
365.5,0.6356
366.0,0.6733
366.5,0.6325
367.0,0.616
367.5,0.6392
368.0,0.5593
368.5,0.5644
369.0,0.6095
369.5,0.6496
370.0,0.6924
370.5,0.5374
371.0,0.5741
371.5,0.7183
372.0,0.4767
372.5,0.5716
373.0,0.5814
373.5,0.3783
374.0,0.5496
374.5,0.4551
375.0,0.4424
375.5,0.6605
376.0,0.5476
376.5,0.5675
377.0,0.6008
377.5,0.7028
378.0,0.7619
378.5,0.7201
379.0,0.5943
379.5,0.5429
380.0,0.5645
380.5,0.6837
381.0,0.685
381.5,0.543
382.0,0.4822
382.5,0.411
383.0,0.3805
383.5,0.3664
384.0,0.4042
384.5,0.5945
385.0,0.5895
385.5,0.549
386.0,0.4702
386.5,0.6176
387.0,0.5132
387.5,0.5764
388.0,0.5322
388.5,0.5261
389.0,0.5679
389.5,0.6878
390.0,0.6902
390.5,0.6352
391.0,0.7477
391.5,0.7626
392.0,0.6423
392.5,0.575
393.0,0.32
393.5,0.2326
394.0,0.4732
394.5,0.6017
395.0,0.7342
395.5,0.7458
396.0,0.6466
396.5,0.378
397.0,0.2836
397.5,0.5769
398.0,0.8079
398.5,0.835
399.0,0.9041
399.5,0.9011
400.0,0.9358
401.0,0.9509
402.0,1.003
403.0,0.9528
404.0,0.9381
405.0,0.9379
406.0,0.9225
407.0,0.9075
408.0,0.943
409.0,1.009
410.0,0.8817
411.0,0.955
412.0,1.025
413.0,1.0
414.0,1.012
415.0,1.015
416.0,1.032
417.0,1.007
418.0,0.9882
419.0,1.001
420.0,0.9966
421.0,1.042
422.0,0.9908
423.0,0.9678
424.0,1.024
425.0,1.022
426.0,0.9948
427.0,0.9761
428.0,0.9508
429.0,0.9004
430.0,0.7879
431.0,0.781
432.0,1.008
433.0,1.014
434.0,0.9412
435.0,0.9829
436.0,1.107
437.0,1.092
438.0,0.9942
439.0,1.029
440.0,1.061
441.0,1.099
442.0,1.179
443.0,1.149
444.0,1.173
445.0,1.148
446.0,1.095
447.0,1.183
448.0,1.202
449.0,1.206
450.0,1.24
451.0,1.286
452.0,1.239
453.0,1.165
454.0,1.216
455.0,1.223
456.0,1.252
457.0,1.273
458.0,1.23
459.0,1.223
460.0,1.227
461.0,1.255
462.0,1.264
463.0,1.256
464.0,1.234
465.0,1.218
466.0,1.23
467.0,1.207
468.0,1.222
469.0,1.228
470.0,1.189
471.0,1.187
472.0,1.251
473.0,1.235
474.0,1.237
475.0,1.248
476.0,1.211
477.0,1.215
478.0,1.248
479.0,1.24
480.0,1.243
481.0,1.265
482.0,1.271
483.0,1.255
484.0,1.229
485.0,1.171
486.0,1.023
487.0,1.072
488.0,1.176
489.0,1.18
490.0,1.241
491.0,1.22
492.0,1.152
493.0,1.189
494.0,1.201
495.0,1.211
496.0,1.219
497.0,1.238
498.0,1.18
499.0,1.195
500.0,1.16
501.0,1.14
502.0,1.124
503.0,1.171
504.0,1.143
505.0,1.182
506.0,1.22
507.0,1.161
508.0,1.124
509.0,1.155
510.0,1.149
511.0,1.179
512.0,1.192
513.0,1.128
514.0,1.12
515.0,1.109
516.0,1.106
517.0,0.9829
518.0,1.033
519.0,1.084
520.0,1.123
521.0,1.134
522.0,1.135
523.0,1.115
524.0,1.155
525.0,1.169
526.0,1.117
527.0,1.053
528.0,1.114
529.0,1.175
530.0,1.158
531.0,1.175
532.0,1.135
533.0,1.102
534.0,1.134
535.0,1.158
536.0,1.169
537.0,1.123
538.0,1.142
539.0,1.133
540.0,1.086
541.0,1.094
542.0,1.128
543.0,1.116
544.0,1.136
545.0,1.132
546.0,1.138
547.0,1.137
548.0,1.123
549.0,1.126
550.0,1.14
551.0,1.126
552.0,1.134
553.0,1.113
554.0,1.14
555.0,1.142
556.0,1.128
557.0,1.093
558.0,1.085
559.0,1.065
560.0,1.078
561.0,1.093
562.0,1.085
563.0,1.115
564.0,1.085
565.0,1.076
566.0,1.06
567.0,1.081
568.0,1.072
569.0,1.049
570.0,1.048
571.0,1.041
572.0,1.068
573.0,1.079
574.0,1.076
575.0,1.056
576.0,1.047
577.0,1.058
578.0,1.041
579.0,1.045
580.0,1.063
581.0,1.068
582.0,1.087
583.0,1.089
584.0,1.098
585.0,1.071
586.0,1.049
587.0,1.072
588.0,1.049
589.0,0.9338
590.0,0.9761
591.0,1.03
592.0,1.019
593.0,1.032
594.0,1.025
595.0,1.002
596.0,1.037
597.0,1.027
598.0,1.023
599.0,1.024
600.0,1.024
601.0,1.015
602.0,1.008
603.0,1.025
604.0,1.041
605.0,1.036
606.0,1.031
607.0,1.041
608.0,1.029
609.0,1.03
610.0,1.023
611.0,1.028
612.0,1.025
613.0,1.012
614.0,0.9974
615.0,1.019
616.0,0.985
617.0,0.9828
618.0,1.02
619.0,1.01
620.0,1.016
621.0,1.018
622.0,1.006
623.0,0.9911
624.0,0.9738
625.0,0.9716
626.0,0.9861
627.0,0.9979
628.0,0.9418
629.0,0.9777
630.0,0.9555
631.0,0.9737
632.0,0.9615
633.0,0.9893
634.0,0.9786
635.0,0.9934
636.0,0.9796
637.0,0.9952
638.0,1.004
639.0,0.9924
640.0,0.9823
641.0,0.9814
642.0,0.9765
643.0,0.9896
644.0,0.986
645.0,0.9878
646.0,0.966
647.0,0.9572
648.0,0.9584
649.0,0.94
650.0,0.9411
651.0,0.9812
652.0,0.9441
653.0,0.9681
654.0,0.9569
655.0,0.9232
656.0,0.8169
657.0,0.8387
658.0,0.9389
659.0,0.9451
660.0,0.9488
661.0,0.9554
662.0,0.958
663.0,0.9388
664.0,0.949
665.0,0.949
666.0,0.9494
667.0,0.9482
668.0,0.9482
669.0,0.9627
670.0,0.9583
671.0,0.9579
672.0,0.9496
673.0,0.9638
674.0,0.96
675.0,0.9511
676.0,0.9575
677.0,0.9479
678.0,0.9505
679.0,0.935
680.0,0.9424
681.0,0.9362
682.0,0.9349
683.0,0.9331
684.0,0.9285
685.0,0.9363
686.0,0.9309
687.0,0.6611
688.0,0.754
689.0,0.756
690.0,0.7861
691.0,0.8196
692.0,0.8433
693.0,0.8371
694.0,0.8302
695.0,0.8593
696.0,0.8605
697.0,0.9066
698.0,0.8926
699.0,0.8756
700.0,0.8651
701.0,0.8577
702.0,0.862
703.0,0.8635
704.0,0.8886
705.0,0.8899
706.0,0.8881
707.0,0.8884
708.0,0.8904
709.0,0.8901
710.0,0.8909
711.0,0.8891
712.0,0.8858
713.0,0.8775
714.0,0.8806
715.0,0.8544
716.0,0.8554
717.0,0.7577
718.0,0.6986
719.0,0.6417
720.0,0.6733
721.0,0.7334
722.0,0.8284
723.0,0.7768
724.0,0.7061
725.0,0.697
726.0,0.7285
727.0,0.7352
728.0,0.696
729.0,0.7163
730.0,0.7579
731.0,0.7269
732.0,0.7715
733.0,0.8109
734.0,0.8286
735.0,0.8123
736.0,0.8112
737.0,0.8146
738.0,0.8233
739.0,0.8072
740.0,0.827
741.0,0.8181
742.0,0.8182
743.0,0.8388
744.0,0.836
745.0,0.8358
746.0,0.8396
747.0,0.8414
748.0,0.8396
749.0,0.83
750.0,0.8295
751.0,0.8211
752.0,0.8245
753.0,0.8287
754.0,0.8305
755.0,0.8258
756.0,0.8254
757.0,0.8266
758.0,0.8164
759.0,0.8021
760.0,0.1769
761.0,0.1025
762.0,0.454
763.0,0.2531
764.0,0.3571
765.0,0.4543
766.0,0.5368
767.0,0.6569
768.0,0.742
769.0,0.7541
770.0,0.7757
771.0,0.7802
772.0,0.7813
773.0,0.7866
774.0,0.7827
775.0,0.7767
776.0,0.7861
777.0,0.7757
778.0,0.771
779.0,0.7717
780.0,0.7673
781.0,0.7681
782.0,0.7728
783.0,0.7593
784.0,0.7629
785.0,0.7574
786.0,0.7659
787.0,0.7542
788.0,0.7456
789.0,0.7455
790.0,0.7281
791.0,0.732
792.0,0.7263
793.0,0.7149
794.0,0.7245
795.0,0.7374
796.0,0.7181
797.0,0.7191
798.0,0.7369
799.0,0.7328
800.0,0.7209
801.0,0.7194
802.0,0.7172
803.0,0.7122
804.0,0.7128
805.0,0.7096
806.0,0.728
807.0,0.7196
808.0,0.72
809.0,0.7077
810.0,0.7028
811.0,0.7053
812.0,0.6874
813.0,0.6745
814.0,0.6012
815.0,0.5972
816.0,0.557
817.0,0.5662
818.0,0.5468
819.0,0.6045
820.0,0.5719
821.0,0.6593
822.0,0.642
823.0,0.4514
824.0,0.6265
825.0,0.6483
826.0,0.6265
827.0,0.6581
828.0,0.5663
829.0,0.6221
830.0,0.6148
831.0,0.6167
832.0,0.5993
833.0,0.6333
834.0,0.6137
835.0,0.6682
836.0,0.6433
837.0,0.6699
838.0,0.6506
839.0,0.6594
840.0,0.6734
841.0,0.6646
842.0,0.6649
843.0,0.6634
844.0,0.6548
845.0,0.6761
846.0,0.6729
847.0,0.6601
848.0,0.6565
849.0,0.6378
850.0,0.611
851.0,0.6474
852.0,0.6427
853.0,0.6182
854.0,0.5341
855.0,0.5863
856.0,0.6409
857.0,0.6549
858.0,0.6502
859.0,0.6506
860.0,0.6516
861.0,0.6481
862.0,0.6582
863.0,0.6737
864.0,0.64
865.0,0.6344
866.0,0.5704
867.0,0.5953
868.0,0.6477
869.0,0.6343
870.0,0.6523
871.0,0.6435
872.0,0.6412
873.0,0.6399
874.0,0.6323
875.0,0.6195
876.0,0.6259
877.0,0.6322
878.0,0.6392
879.0,0.6293
880.0,0.6158
881.0,0.6068
882.0,0.62
883.0,0.6218
884.0,0.619
885.0,0.6237
886.0,0.5952
887.0,0.6009
888.0,0.6101
889.0,0.6164
890.0,0.612
891.0,0.6106
892.0,0.594
893.0,0.5767
894.0,0.5589
895.0,0.5313
896.0,0.5019
897.0,0.4355
898.0,0.4727
899.0,0.3648
900.0,0.4814
901.0,0.3822
902.0,0.4415
903.0,0.4482
904.0,0.5547
905.0,0.537
906.0,0.5037
907.0,0.4156
908.0,0.423
909.0,0.4551
910.0,0.408
911.0,0.4315
912.0,0.4499
913.0,0.4143
914.0,0.4098
915.0,0.4437
916.0,0.3772
917.0,0.4728
918.0,0.3869
919.0,0.4799
920.0,0.482
921.0,0.5007
922.0,0.4515
923.0,0.4835
924.0,0.463
925.0,0.4531
926.0,0.458
927.0,0.5091
928.0,0.384
929.0,0.3533
930.0,0.282
931.0,0.2665
932.0,0.1964
933.0,0.162
934.0,0.09387
935.0,0.1638
936.0,0.1054
937.0,0.1072
938.0,0.1306
939.0,0.2582
940.0,0.3076
941.0,0.2363
942.0,0.271
943.0,0.1814
944.0,0.1882
945.0,0.2429
946.0,0.128
947.0,0.2451
948.0,0.1807
949.0,0.3238
950.0,0.0967
951.0,0.3181
952.0,0.1766
953.0,0.2243
954.0,0.2709
955.0,0.2264
956.0,0.2177
957.0,0.1774
958.0,0.3027
959.0,0.2449
960.0,0.2744
961.0,0.3046
962.0,0.2886
963.0,0.3298
964.0,0.3031
965.0,0.3282
966.0,0.329
967.0,0.3279
968.0,0.4293
969.0,0.4492
970.0,0.414
971.0,0.4694
972.0,0.4498
973.0,0.3962
974.0,0.3767
975.0,0.3892
976.0,0.372
977.0,0.4186
978.0,0.3996
979.0,0.4171
980.0,0.3931
981.0,0.4664
982.0,0.4476
983.0,0.4307
984.0,0.4788
985.0,0.4459
986.0,0.4861
987.0,0.4778
988.0,0.4769
989.0,0.4839
990.0,0.474
991.0,0.4855
992.0,0.4882
993.0,0.4785
994.0,0.4879
995.0,0.4872
996.0,0.4852
997.0,0.4858
998.0,0.4836
999.0,0.4818
1000.0,0.4786
1001.0,0.4843
1002.0,0.4721
1003.0,0.4758
1004.0,0.4645
1005.0,0.4471
1006.0,0.4647
1007.0,0.4745
1008.0,0.4721
1009.0,0.4698
1010.0,0.4679
1011.0,0.472
1012.0,0.4682
1013.0,0.4708
1014.0,0.4675
1015.0,0.4645
1016.0,0.4624
1017.0,0.4636
1018.0,0.4617
1019.0,0.4523
1020.0,0.4594
1021.0,0.4587
1022.0,0.4553
1023.0,0.4601
1024.0,0.4546
1025.0,0.4596
1026.0,0.4578
1027.0,0.4567
1028.0,0.4558
1029.0,0.4504
1030.0,0.4534
1031.0,0.4516
1032.0,0.4503
1033.0,0.4435
1034.0,0.4435
1035.0,0.4449
1036.0,0.4472
1037.0,0.4399
1038.0,0.4419
1039.0,0.4417
1040.0,0.4399
1041.0,0.4417
1042.0,0.4386
1043.0,0.4372
1044.0,0.4388
1045.0,0.4329
1046.0,0.4281
1047.0,0.432
1048.0,0.4344
1049.0,0.4329
1050.0,0.4309
1051.0,0.4304
1052.0,0.4286
1053.0,0.4253
1054.0,0.4263
1055.0,0.4266
1056.0,0.4251
1057.0,0.4239
1058.0,0.4135
1059.0,0.414
1060.0,0.4134
1061.0,0.413
1062.0,0.4152
1063.0,0.4111
1064.0,0.416
1065.0,0.4132
1066.0,0.4049
1067.0,0.4101
1068.0,0.4013
1069.0,0.3888
1070.0,0.4021
1071.0,0.408
1072.0,0.4036
1073.0,0.3977
1074.0,0.4076
1075.0,0.3883
1076.0,0.4073
1077.0,0.4007
1078.0,0.3933
1079.0,0.4006
1080.0,0.3945
1081.0,0.3824
1082.0,0.3876
1083.0,0.3885
1084.0,0.3818
1085.0,0.3953
1086.0,0.3626
1087.0,0.3729
1088.0,0.3883
1089.0,0.3775
1090.0,0.37
1091.0,0.3873
1092.0,0.3861
1093.0,0.3308
1094.0,0.3537
1095.0,0.3441
1096.0,0.3305
1097.0,0.3771
1098.0,0.3257
1099.0,0.3393
1100.0,0.3169
1101.0,0.3204
1102.0,0.3069
1103.0,0.3046
1104.0,0.3049
1105.0,0.3318
1106.0,0.2597
1107.0,0.3163
1108.0,0.2716
1109.0,0.2714
1110.0,0.3139
1111.0,0.2177
1112.0,0.269
1113.0,0.1762
1114.0,0.1963
1115.0,0.1629
1116.0,0.1331
1117.0,0.05219
1118.0,0.1437
1119.0,0.07391
1120.0,0.09315
1121.0,0.122
1122.0,0.0536
1123.0,0.08408
1124.0,0.071
1125.0,0.092
1126.0,0.03428
1127.0,0.1036
1128.0,0.06439
1129.0,0.06796
1130.0,0.04574
1131.0,0.1907
1132.0,0.1507
1133.0,0.09855
1134.0,0.02705
1135.0,0.01004
1136.0,0.0833
1137.0,0.1883
1138.0,0.1333
1139.0,0.1929
1140.0,0.1634
1141.0,0.1266
1142.0,0.1445
1143.0,0.2027
1144.0,0.07374
1145.0,0.09496
1146.0,0.1025
1147.0,0.03839
1148.0,0.1755
1149.0,0.1419
1150.0,0.07911
1151.0,0.1323
1152.0,0.1607
1153.0,0.155
1154.0,0.09249
1155.0,0.2014
1156.0,0.1825
1157.0,0.203
1158.0,0.2007
1159.0,0.215
1160.0,0.1855
1161.0,0.2251
1162.0,0.2265
1163.0,0.2997
1164.0,0.2594
1165.0,0.2468
1166.0,0.2436
1167.0,0.2642
1168.0,0.2675
1169.0,0.2731
1170.0,0.2949
1171.0,0.2879
1172.0,0.2919
1173.0,0.2943
1174.0,0.2154
1175.0,0.2866
1176.0,0.3125
1177.0,0.3017
1178.0,0.2306
1179.0,0.3149
1180.0,0.284
1181.0,0.2928
1182.0,0.2064
1183.0,0.2877
1184.0,0.2711
1185.0,0.2629
1186.0,0.3073
1187.0,0.294
1188.0,0.2104
1189.0,0.2742
1190.0,0.3003
1191.0,0.2875
1192.0,0.3042
1193.0,0.2923
1194.0,0.3007
1195.0,0.2861
1196.0,0.2766
1197.0,0.3
1198.0,0.2757
1199.0,0.2383
1200.0,0.2888
1201.0,0.2798
1202.0,0.2774
1203.0,0.2752
1204.0,0.2428
1205.0,0.2827
1206.0,0.3102
1207.0,0.2771
1208.0,0.2716
1209.0,0.2769
1210.0,0.2876
1211.0,0.2754
1212.0,0.2737
1213.0,0.3008
1214.0,0.2795
1215.0,0.2746
1216.0,0.2998
1217.0,0.2926
1218.0,0.2974
1219.0,0.2941
1220.0,0.2976
1221.0,0.3002
1222.0,0.2928
1223.0,0.2904
1224.0,0.2892
1225.0,0.2983
1226.0,0.2998
1227.0,0.2785
1228.0,0.3009
1229.0,0.2998
1230.0,0.2951
1231.0,0.3022
1232.0,0.3005
1233.0,0.2917
1234.0,0.3016
1235.0,0.3
1236.0,0.302
1237.0,0.2984
1238.0,0.3009
1239.0,0.2971
1240.0,0.2981
1241.0,0.2971
1242.0,0.2961
1243.0,0.2937
1244.0,0.2959
1245.0,0.2971
1246.0,0.2953
1247.0,0.2943
1248.0,0.2943
1249.0,0.295
1250.0,0.2934
1251.0,0.2899
1252.0,0.2896
1253.0,0.2878
1254.0,0.2854
1255.0,0.2894
1256.0,0.2823
1257.0,0.281
1258.0,0.2854
1259.0,0.2767
1260.0,0.2779
1261.0,0.2643
1262.0,0.2574
1263.0,0.258
1264.0,0.2405
1265.0,0.2563
1266.0,0.248
1267.0,0.2514
1268.0,0.24
1269.0,0.1596
1270.0,0.2509
1271.0,0.2632
1272.0,0.2638
1273.0,0.2612
1274.0,0.2618
1275.0,0.2652
1276.0,0.2674
1277.0,0.2687
1278.0,0.273
1279.0,0.2707
1280.0,0.2672
1281.0,0.2546
1282.0,0.2447
1283.0,0.2636
1284.0,0.2701
1285.0,0.2718
1286.0,0.2751
1287.0,0.2715
1288.0,0.2712
1289.0,0.2639
1290.0,0.2688
1291.0,0.2723
1292.0,0.2581
1293.0,0.2676
1294.0,0.2658
1295.0,0.2651
1296.0,0.2546
1297.0,0.242
1298.0,0.2581
1299.0,0.2677
1300.0,0.2306
1301.0,0.2369
1302.0,0.2572
1303.0,0.2271
1304.0,0.1975
1305.0,0.2522
1306.0,0.2525
1307.0,0.2004
1308.0,0.2269
1309.0,0.2509
1310.0,0.1968
1311.0,0.2184
1312.0,0.2131
1313.0,0.2096
1314.0,0.1889
1315.0,0.1873
1316.0,0.2155
1317.0,0.2046
1318.0,0.2208
1319.0,0.177
1320.0,0.1706
1321.0,0.1972
1322.0,0.1998
1323.0,0.154
1324.0,0.1736
1325.0,0.2127
1326.0,0.1849
1327.0,0.1769
1328.0,0.1537
1329.0,0.1184
1330.0,0.1527
1331.0,0.09576
1332.0,0.09764
1333.0,0.135
1334.0,0.1128
1335.0,0.1534
1336.0,0.1231
1337.0,0.1099
1338.0,0.1188
1339.0,0.1178
1340.0,0.1137
1341.0,0.1131
1342.0,0.1187
1343.0,0.08477
1344.0,0.05058
1345.0,0.07256
1346.0,0.03897
1347.0,0.04013
1348.0,0.003176
1349.0,0.01076
1350.0,0.01073
1351.0,0.003115
1352.0,0.001014
1353.0,6.428e-05
1354.0,0.0001934
1355.0,2.412e-06
1356.0,3.196e-05
1357.0,4.836e-05
1358.0,2.807e-06
1359.0,4.884e-07
1360.0,1.441e-06
1361.0,3.223e-09
1362.0,1.202e-11
1363.0,2.125e-06
1364.0,9.064e-07
1365.0,6.103e-12
1366.0,8.517e-06
1367.0,3.334e-06
1368.0,9.855e-14
1369.0,3.462e-07
1370.0,1.955e-07
1371.0,1.323e-08
1372.0,1.838e-06
1373.0,2.965e-05
1374.0,0.0001186
1375.0,0.0002155
1376.0,0.0001727
1377.0,8.199e-05
1378.0,0.0007447
1379.0,3.474e-05
1380.0,5.466e-05
1381.0,1.58e-06
1382.0,1.722e-06
1383.0,2.957e-08
1384.0,4.127e-07
1385.0,1.403e-06
1386.0,1.683e-06
1387.0,0.0001337
1388.0,2.705e-06
1389.0,0.0003865
1390.0,0.0003325
1391.0,0.00023
1392.0,1.589e-05
1393.0,7.749e-05
1394.0,5.066e-05
1395.0,4.5e-07
1396.0,4.239e-09
1397.0,3.283e-05
1398.0,0.0008482
1399.0,0.0005375
1400.0,2.189e-09
1401.0,7.14e-09
1402.0,0.001229
1403.0,0.001601
1404.0,0.000496
1405.0,2.463e-07
1406.0,0.00137
1407.0,0.0001172
1408.0,0.00111
1409.0,0.0004161
1410.0,0.0003126
1411.0,0.001399
1412.0,0.001791
1413.0,0.01575
1414.0,0.0002436
1415.0,0.0001234
1416.0,0.02386
1417.0,0.007883
1418.0,0.009043
1419.0,0.001436
1420.0,0.00556
1421.0,0.00604
1422.0,0.03095
1423.0,0.006176
1424.0,0.01142
1425.0,0.01703
1426.0,0.01873
1427.0,0.03307
1428.0,0.003028
1429.0,0.02534
1430.0,0.04168
1431.0,0.04542
1432.0,0.002402
1433.0,0.0294
1434.0,0.01521
1435.0,0.01608
1436.0,0.02966
1437.0,0.02272
1438.0,0.009978
1439.0,0.03973
1440.0,0.02982
1441.0,0.02338
1442.0,0.02581
1443.0,0.03143
1444.0,0.0431
1445.0,0.03451
1446.0,0.01576
1447.0,0.0248
1448.0,0.07845
1449.0,0.06887
1450.0,0.01836
1451.0,0.007556
1452.0,0.04217
1453.0,0.05495
