interpolation:linear
wavelength,value
280.0,6.367e-23
280.5,2.135e-21
281.0,1.1550000000000001e-20
281.5,3.742e-19
282.0,5.065e-19
282.5,1.196e-18
283.0,3.712e-18
283.5,6.031e-18
284.0,9.898e-17
284.5,2.903e-16
285.0,6.314e-16
285.5,2.831e-15
286.0,1.121e-14
286.5,4.928e-14
287.0,1.402e-13
287.5,5.378e-13
288.0,1.805e-12
288.5,5.178e-12
289.0,1.34e-11
289.5,3.976e-11
290.0,1.097e-10
290.5,2.234e-10
291.0,4.796e-10
291.5,1.379e-09
292.0,2.818e-09
292.5,3.924e-09
293.0,8.339e-09
293.5,2.008e-08
294.0,3.129e-08
294.5,3.949e-08
295.0,6.647e-08
295.5,1.131e-07
296.0,2.131e-07
296.5,2.905e-07
297.0,3.841e-07
297.5,9.933e-07
298.0,1.512e-06
298.5,1.478e-06
299.0,3.163e-06
299.5,4.963e-06
300.0,5.273e-06
300.5,7.358e-06
301.0,1.249e-05
301.5,1.87e-05
302.0,1.546e-05
302.5,2.968e-05
303.0,5.225e-05
303.5,6.555e-05
304.0,6.282e-05
304.5,9.913e-05
305.0,0.0001636
305.5,0.0001984
306.0,0.0001963
306.5,0.000254
307.0,0.0004117
307.5,0.0005981
308.0,0.0006407
308.5,0.0007915
309.0,0.000911
309.5,0.001259
310.0,0.001379
310.5,0.002332
311.0,0.003142
311.5,0.003127
312.0,0.003647
312.5,0.004915
313.0,0.005623
313.5,0.005193
314.0,0.00734
314.5,0.007661
315.0,0.01036
315.5,0.008002
316.0,0.007978
316.5,0.01284
317.0,0.01591
317.5,0.01602
318.0,0.01351
318.5,0.01948
319.0,0.02493
319.5,0.01798
320.0,0.02132
320.5,0.03111
321.0,0.0318
321.5,0.03091
322.0,0.02839
322.5,0.02488
323.0,0.02729
323.5,0.03819
324.0,0.04534
324.5,0.04404
325.0,0.03489
325.5,0.04853
326.0,0.06329
326.5,0.06699
327.0,0.0654
327.5,0.06153
328.0,0.05081
328.5,0.05846
329.0,0.07513
329.5,0.08712
330.0,0.08637
330.5,0.06545
331.0,0.06544
331.5,0.06927
332.0,0.07935
332.5,0.08059
333.0,0.07913
333.5,0.0686
334.0,0.06978
334.5,0.08456
335.0,0.08175
335.5,0.09668
336.0,0.06691
336.5,0.07631
337.0,0.06134
337.5,0.07573
338.0,0.07699
338.5,0.09044
339.0,0.08977
339.5,0.08623
340.0,0.0997
340.5,0.09025
341.0,0.08926
341.5,0.08238
342.0,0.09861
342.5,0.09243
343.0,0.1013
343.5,0.09525
344.0,0.06943
344.5,0.07089
345.0,0.09439
345.5,0.09666
346.0,0.08232
346.5,0.09336
347.0,0.09999
347.5,0.08081
348.0,0.09246
348.5,0.09263
349.0,0.08606
349.5,0.08523
350.0,0.1055
350.5,0.1113
351.0,0.09932
351.5,0.09616
352.0,0.1036
352.5,0.08107
353.0,0.1023
353.5,0.1096
354.0,0.1139
354.5,0.1155
355.0,0.1151
355.5,0.1041
356.0,0.109
356.5,0.09314
357.0,0.07697
357.5,0.09429
358.0,0.07478
358.5,0.06394
359.0,0.08943
359.5,0.1139
360.0,0.1208
360.5,0.09666
361.0,0.08823
361.5,0.1017
362.0,0.0881
362.5,0.1221
363.0,0.1098
363.5,0.1012
364.0,0.1239
364.5,0.106
365.0,0.108
365.5,0.1356
366.0,0.1438
366.5,0.1353
367.0,0.1319
367.5,0.1369
368.0,0.1199
368.5,0.1211
369.0,0.1309
369.5,0.1396
370.0,0.149
370.5,0.1157
371.0,0.1238
371.5,0.1549
372.0,0.1029
372.5,0.1235
373.0,0.1257
373.5,0.08188
374.0,0.1191
374.5,0.0987
375.0,0.09602
375.5,0.1434
376.0,0.119
376.5,0.1234
377.0,0.1307
377.5,0.1531
378.0,0.166
378.5,0.157
379.0,0.1296
379.5,0.1185
380.0,0.1232
380.5,0.1494
381.0,0.1499
381.5,0.119
382.0,0.1058
382.5,0.09033
383.0,0.08372
383.5,0.08072
384.0,0.08913
384.5,0.1312
385.0,0.1302
385.5,0.1214
386.0,0.1041
386.5,0.1369
387.0,0.1138
387.5,0.128
388.0,0.1183
388.5,0.117
389.0,0.1264
389.5,0.1533
390.0,0.154
390.5,0.1418
391.0,0.1671
391.5,0.1706
392.0,0.1438
392.5,0.1289
393.0,0.0718
393.5,0.05224
394.0,0.1064
394.5,0.1354
395.0,0.1654
395.5,0.1681
396.0,0.1459
396.5,0.0854
397.0,0.06416
397.5,0.1306
398.0,0.183
398.5,0.1893
399.0,0.2053
399.5,0.2048
400.0,0.2127
401.0,0.2132
402.0,0.2255
403.0,0.2147
404.0,0.2117
405.0,0.2121
406.0,0.2091
407.0,0.2062
408.0,0.2144
409.0,0.2299
410.0,0.2013
411.0,0.2184
412.0,0.2352
413.0,0.2296
414.0,0.2329
415.0,0.234
416.0,0.2387
417.0,0.2331
418.0,0.2292
419.0,0.2327
420.0,0.232
421.0,0.2431
422.0,0.2314
423.0,0.2264
424.0,0.2396
425.0,0.2396
426.0,0.2341
427.0,0.2301
428.0,0.2244
429.0,0.2132
430.0,0.1869
431.0,0.1853
432.0,0.2398
433.0,0.2415
434.0,0.2245
435.0,0.2347
436.0,0.2651
437.0,0.2622
438.0,0.2392
439.0,0.247
440.0,0.2553
441.0,0.265
442.0,0.2846
443.0,0.277
444.0,0.2837
445.0,0.2777
446.0,0.2659
447.0,0.2883
448.0,0.2926
449.0,0.2947
450.0,0.3034
451.0,0.315
452.0,0.304
453.0,0.2863
454.0,0.2996
455.0,0.3016
456.0,0.3091
457.0,0.3144
458.0,0.3033
459.0,0.3019
460.0,0.3025
461.0,0.3097
462.0,0.3128
463.0,0.3108
464.0,0.3067
465.0,0.3038
466.0,0.3075
467.0,0.3017
468.0,0.3053
469.0,0.307
470.0,0.2971
471.0,0.297
472.0,0.313
473.0,0.3091
474.0,0.309
475.0,0.311
476.0,0.3008
477.0,0.301
478.0,0.3095
479.0,0.3081
480.0,0.3092
481.0,0.3157
482.0,0.3182
483.0,0.3154
484.0,0.3096
485.0,0.2956
486.0,0.2592
487.0,0.2723
488.0,0.2987
489.0,0.2995
490.0,0.3156
491.0,0.3106
492.0,0.2934
493.0,0.3033
494.0,0.3065
495.0,0.3093
496.0,0.3113
497.0,0.3161
498.0,0.3012
499.0,0.3047
500.0,0.2953
501.0,0.2892
502.0,0.284
503.0,0.2943
504.0,0.2836
505.0,0.2964
506.0,0.3059
507.0,0.2913
508.0,0.2833
509.0,0.2922
510.0,0.2914
511.0,0.2999
512.0,0.3036
513.0,0.2874
514.0,0.2858
515.0,0.2829
516.0,0.2821
517.0,0.2508
518.0,0.2636
519.0,0.2764
520.0,0.2863
521.0,0.2889
522.0,0.2888
523.0,0.2833
524.0,0.2928
525.0,0.2952
526.0,0.2817
527.0,0.2647
528.0,0.2793
529.0,0.2939
530.0,0.2893
531.0,0.2932
532.0,0.2829
533.0,0.2747
534.0,0.2831
535.0,0.2897
536.0,0.2928
537.0,0.2816
538.0,0.2868
539.0,0.2843
540.0,0.2724
541.0,0.2731
542.0,0.2811
543.0,0.2789
544.0,0.2828
545.0,0.2821
546.0,0.2825
547.0,0.2832
548.0,0.2802
549.0,0.2813
550.0,0.2847
551.0,0.2814
552.0,0.2833
553.0,0.2781
554.0,0.2847
555.0,0.285
556.0,0.2811
557.0,0.272
558.0,0.2694
559.0,0.2637
560.0,0.2666
561.0,0.2695
562.0,0.2668
563.0,0.2733
564.0,0.2652
565.0,0.2624
566.0,0.258
567.0,0.2621
568.0,0.2579
569.0,0.2483
570.0,0.2486
571.0,0.2479
572.0,0.2515
573.0,0.2538
574.0,0.2524
575.0,0.2468
576.0,0.2446
577.0,0.2477
578.0,0.245
579.0,0.2476
580.0,0.255
581.0,0.2583
582.0,0.265
583.0,0.2671
584.0,0.2704
585.0,0.2644
586.0,0.2591
587.0,0.2637
588.0,0.2529
589.0,0.2158
590.0,0.2263
591.0,0.2445
592.0,0.2385
593.0,0.2458
594.0,0.2426
595.0,0.2332
596.0,0.2495
597.0,0.2448
598.0,0.2463
599.0,0.2474
600.0,0.2495
601.0,0.2488
602.0,0.2474
603.0,0.2522
604.0,0.2568
605.0,0.2559
606.0,0.2556
607.0,0.259
608.0,0.257
609.0,0.2581
610.0,0.257
611.0,0.2589
612.0,0.2587
613.0,0.2559
614.0,0.2531
615.0,0.2593
616.0,0.2513
617.0,0.2512
618.0,0.2613
619.0,0.259
620.0,0.2606
621.0,0.2603
622.0,0.2569
623.0,0.2527
624.0,0.2488
625.0,0.2481
626.0,0.2515
627.0,0.2526
628.0,0.2155
629.0,0.2393
630.0,0.233
631.0,0.2453
632.0,0.2438
633.0,0.2541
634.0,0.254
635.0,0.2591
636.0,0.257
637.0,0.2623
638.0,0.2665
639.0,0.2644
640.0,0.263
641.0,0.2636
642.0,0.2633
643.0,0.267
644.0,0.2671
645.0,0.267
646.0,0.2583
647.0,0.2493
648.0,0.2503
649.0,0.2442
650.0,0.2531
651.0,0.2653
652.0,0.2472
653.0,0.2624
654.0,0.26
655.0,0.2467
656.0,0.2212
657.0,0.2277
658.0,0.2577
659.0,0.2605
660.0,0.2622
661.0,0.2646
662.0,0.2639
663.0,0.2592
664.0,0.2642
665.0,0.266
666.0,0.2668
667.0,0.2674
668.0,0.2684
669.0,0.2731
670.0,0.2723
671.0,0.2727
672.0,0.2707
673.0,0.2752
674.0,0.2745
675.0,0.2724
676.0,0.2746
677.0,0.2722
678.0,0.2733
679.0,0.2692
680.0,0.2716
681.0,0.2699
682.0,0.2696
683.0,0.2692
684.0,0.2678
685.0,0.2705
686.0,0.2684
687.0,0.09918
688.0,0.1464
689.0,0.1481
690.0,0.1676
691.0,0.1917
692.0,0.2121
693.0,0.21
694.0,0.2114
695.0,0.2311
696.0,0.2323
697.0,0.2586
698.0,0.2543
699.0,0.2396
700.0,0.2362
701.0,0.23
702.0,0.2351
703.0,0.2368
704.0,0.2496
705.0,0.2498
706.0,0.2514
707.0,0.2526
708.0,0.2528
709.0,0.2569
710.0,0.2548
711.0,0.2559
712.0,0.257
713.0,0.2526
714.0,0.2542
715.0,0.2424
716.0,0.2417
717.0,0.1794
718.0,0.1631
719.0,0.1471
720.0,0.1508
721.0,0.1827
722.0,0.2272
723.0,0.2028
724.0,0.1716
725.0,0.1658
726.0,0.1741
727.0,0.1841
728.0,0.1641
729.0,0.1803
730.0,0.1876
731.0,0.1781
732.0,0.2017
733.0,0.2231
734.0,0.232
735.0,0.2253
736.0,0.2241
737.0,0.2254
738.0,0.2376
739.0,0.2333
740.0,0.2419
741.0,0.241
742.0,0.243
743.0,0.2497
744.0,0.25
745.0,0.251
746.0,0.2521
747.0,0.2529
748.0,0.2525
749.0,0.2497
750.0,0.2497
751.0,0.2472
752.0,0.2484
753.0,0.2498
754.0,0.2503
755.0,0.2489
756.0,0.2489
757.0,0.2492
758.0,0.2459
759.0,0.2348
760.0,0.004642
761.0,0.001754
762.0,0.04735
763.0,0.01013
764.0,0.02413
765.0,0.04714
766.0,0.08156
767.0,0.1374
768.0,0.1951
769.0,0.2086
770.0,0.2269
771.0,0.2338
772.0,0.236
773.0,0.2381
774.0,0.2373
775.0,0.2357
776.0,0.2387
777.0,0.2356
778.0,0.2342
779.0,0.2344
780.0,0.2332
781.0,0.2335
782.0,0.2351
783.0,0.2311
784.0,0.2324
785.0,0.2303
786.0,0.2325
787.0,0.2238
788.0,0.219
789.0,0.219
790.0,0.2076
791.0,0.2152
792.0,0.2145
793.0,0.2105
794.0,0.2197
795.0,0.2218
796.0,0.2068
797.0,0.2062
798.0,0.2205
799.0,0.2177
800.0,0.212
801.0,0.2093
802.0,0.2084
803.0,0.2056
804.0,0.207
805.0,0.2088
806.0,0.219
807.0,0.2155
808.0,0.2159
809.0,0.2085
810.0,0.2051
811.0,0.2021
812.0,0.1895
813.0,0.1842
814.0,0.1487
815.0,0.1492
816.0,0.1366
817.0,0.1394
818.0,0.1312
819.0,0.1577
820.0,0.145
821.0,0.1875
822.0,0.1791
823.0,0.09643
824.0,0.1668
825.0,0.1847
826.0,0.1713
827.0,0.187
828.0,0.1411
829.0,0.1716
830.0,0.1684
831.0,0.1687
832.0,0.1604
833.0,0.1783
834.0,0.1672
835.0,0.1971
836.0,0.1788
837.0,0.1975
838.0,0.1866
839.0,0.1945
840.0,0.2
841.0,0.1951
842.0,0.1987
843.0,0.2021
844.0,0.1975
845.0,0.2065
846.0,0.2062
847.0,0.2034
848.0,0.2006
849.0,0.1949
850.0,0.1869
851.0,0.1962
852.0,0.1957
853.0,0.1896
854.0,0.1626
855.0,0.1802
856.0,0.1963
857.0,0.2017
858.0,0.1997
859.0,0.2006
860.0,0.2015
861.0,0.2002
862.0,0.2036
863.0,0.2084
864.0,0.1981
865.0,0.1965
866.0,0.1767
867.0,0.1844
868.0,0.2008
869.0,0.1967
870.0,0.2023
871.0,0.1996
872.0,0.1989
873.0,0.1986
874.0,0.1962
875.0,0.1922
876.0,0.1941
877.0,0.1962
878.0,0.198
879.0,0.195
880.0,0.1909
881.0,0.1873
882.0,0.191
883.0,0.1924
884.0,0.1912
885.0,0.1926
886.0,0.181
887.0,0.185
888.0,0.1866
889.0,0.1909
890.0,0.1865
891.0,0.1876
892.0,0.1786
893.0,0.1699
894.0,0.1566
895.0,0.1393
896.0,0.1292
897.0,0.1019
898.0,0.1151
899.0,0.0779
900.0,0.1238
901.0,0.08167
902.0,0.108
903.0,0.1044
904.0,0.1548
905.0,0.1469
906.0,0.1346
907.0,0.09371
908.0,0.09926
909.0,0.1125
910.0,0.08924
911.0,0.1042
912.0,0.1083
913.0,0.09002
914.0,0.09161
915.0,0.09777
916.0,0.08178
917.0,0.1138
918.0,0.08276
919.0,0.1197
920.0,0.1304
921.0,0.1343
922.0,0.1123
923.0,0.1308
924.0,0.112
925.0,0.1103
926.0,0.1097
927.0,0.1302
928.0,0.07383
929.0,0.06221
930.0,0.04038
931.0,0.03762
932.0,0.02025
933.0,0.01406
934.0,0.003829
935.0,0.01606
936.0,0.00709
937.0,0.007192
938.0,0.009748
939.0,0.03621
940.0,0.04948
941.0,0.03038
942.0,0.03819
943.0,0.02029
944.0,0.02645
945.0,0.0329
946.0,0.01073
947.0,0.0313
948.0,0.0225
949.0,0.04902
950.0,0.006131
951.0,0.04845
952.0,0.01857
953.0,0.02882
954.0,0.04122
955.0,0.02993
956.0,0.03724
957.0,0.01844
958.0,0.05829
959.0,0.03767
960.0,0.04241
961.0,0.05452
962.0,0.05154
963.0,0.06592
964.0,0.05867
965.0,0.06478
966.0,0.06483
967.0,0.0633
968.0,0.1136
969.0,0.1133
970.0,0.1022
971.0,0.13
972.0,0.121
973.0,0.09243
974.0,0.08733
975.0,0.09397
976.0,0.08181
977.0,0.1095
978.0,0.09714
979.0,0.1049
980.0,0.09728
981.0,0.1295
982.0,0.1191
983.0,0.1118
984.0,0.1401
985.0,0.118
986.0,0.1469
987.0,0.1402
988.0,0.1403
989.0,0.1494
990.0,0.1392
991.0,0.1493
992.0,0.1507
993.0,0.1431
994.0,0.1512
995.0,0.1518
996.0,0.1503
997.0,0.1509
998.0,0.1499
999.0,0.1496
1000.0,0.1473
1001.0,0.1506
1002.0,0.1412
1003.0,0.1476
1004.0,0.1426
1005.0,0.1392
1006.0,0.1438
1007.0,0.1473
1008.0,0.1456
1009.0,0.1438
1010.0,0.1427
1011.0,0.1467
1012.0,0.1445
1013.0,0.1466
1014.0,0.1456
1015.0,0.1445
1016.0,0.1437
1017.0,0.1439
1018.0,0.144
1019.0,0.1389
1020.0,0.1429
1021.0,0.1431
1022.0,0.1412
1023.0,0.1426
1024.0,0.1388
1025.0,0.1432
1026.0,0.142
1027.0,0.1418
1028.0,0.1414
1029.0,0.1395
1030.0,0.1412
1031.0,0.1403
1032.0,0.1401
1033.0,0.138
1034.0,0.1381
1035.0,0.1385
1036.0,0.139
1037.0,0.1368
1038.0,0.1373
1039.0,0.1371
1040.0,0.1365
1041.0,0.1369
1042.0,0.1359
1043.0,0.1354
1044.0,0.1357
1045.0,0.1337
1046.0,0.1321
1047.0,0.1332
1048.0,0.1337
1049.0,0.1331
1050.0,0.1323
1051.0,0.1319
1052.0,0.1311
1053.0,0.1298
1054.0,0.1299
1055.0,0.1296
1056.0,0.1288
1057.0,0.1281
1058.0,0.1247
1059.0,0.1245
1060.0,0.1241
1061.0,0.1238
1062.0,0.1241
1063.0,0.1226
1064.0,0.1242
1065.0,0.1225
1066.0,0.1207
1067.0,0.1221
1068.0,0.1189
1069.0,0.1157
1070.0,0.1191
1071.0,0.1227
1072.0,0.12
1073.0,0.1185
1074.0,0.1236
1075.0,0.1131
1076.0,0.1232
1077.0,0.1186
1078.0,0.115
1079.0,0.1222
1080.0,0.1167
1081.0,0.1106
1082.0,0.1163
1083.0,0.1179
1084.0,0.1095
1085.0,0.1173
1086.0,0.1013
1087.0,0.1083
1088.0,0.1171
1089.0,0.1086
1090.0,0.1044
1091.0,0.1155
1092.0,0.1158
1093.0,0.08714
1094.0,0.1046
1095.0,0.09079
1096.0,0.08416
1097.0,0.1132
1098.0,0.08095
1099.0,0.08586
1100.0,0.07605
1101.0,0.0787
1102.0,0.0721
1103.0,0.06928
1104.0,0.0698
1105.0,0.08282
1106.0,0.04812
1107.0,0.07607
1108.0,0.05532
1109.0,0.05634
1110.0,0.07272
1111.0,0.03711
1112.0,0.05639
1113.0,0.02531
1114.0,0.02837
1115.0,0.02245
1116.0,0.01345
1117.0,0.002182
1118.0,0.01532
1119.0,0.004642
1120.0,0.005353
1121.0,0.008283
1122.0,0.001749
1123.0,0.004905
1124.0,0.004103
1125.0,0.006066
1126.0,0.0006817
1127.0,0.006987
1128.0,0.002295
1129.0,0.002547
1130.0,0.001581
1131.0,0.02051
1132.0,0.01442
1133.0,0.005592
1134.0,0.0005133
1135.0,0.0002454
1136.0,0.00369
1137.0,0.01872
1138.0,0.01219
1139.0,0.02848
1140.0,0.01967
1141.0,0.01175
1142.0,0.0151
1143.0,0.02639
1144.0,0.005275
1145.0,0.005288
1146.0,0.005682
1147.0,0.0007358
1148.0,0.02176
1149.0,0.01472
1150.0,0.006701
1151.0,0.01215
1152.0,0.01808
1153.0,0.02038
1154.0,0.005706
1155.0,0.02967
1156.0,0.02443
1157.0,0.03317
1158.0,0.03262
1159.0,0.03712
1160.0,0.03072
1161.0,0.04482
1162.0,0.04411
1163.0,0.07421
1164.0,0.05855
1165.0,0.05026
1166.0,0.05436
1167.0,0.06159
1168.0,0.06147
1169.0,0.064
1170.0,0.07429
1171.0,0.07244
1172.0,0.07724
1173.0,0.07423
1174.0,0.04327
1175.0,0.07591
1176.0,0.09044
1177.0,0.08192
1178.0,0.05373
1179.0,0.091
1180.0,0.07376
1181.0,0.0763
1182.0,0.04341
1183.0,0.07655
1184.0,0.06844
1185.0,0.06308
1186.0,0.08492
1187.0,0.07748
1188.0,0.04219
1189.0,0.07177
1190.0,0.08398
1191.0,0.07274
1192.0,0.08585
1193.0,0.07983
1194.0,0.08392
1195.0,0.07463
1196.0,0.06947
1197.0,0.08558
1198.0,0.07676
1199.0,0.05594
1200.0,0.07896
1201.0,0.07244
1202.0,0.07555
1203.0,0.0724
1204.0,0.05989
1205.0,0.07965
1206.0,0.0925
1207.0,0.07377
1208.0,0.0755
1209.0,0.07727
1210.0,0.08281
1211.0,0.07576
1212.0,0.06897
1213.0,0.08649
1214.0,0.07257
1215.0,0.0709
1216.0,0.08707
1217.0,0.083
1218.0,0.08617
1219.0,0.08382
1220.0,0.08647
1221.0,0.08877
1222.0,0.08562
1223.0,0.08392
1224.0,0.08112
1225.0,0.08761
1226.0,0.08992
1227.0,0.07751
1228.0,0.09135
1229.0,0.08998
1230.0,0.08742
1231.0,0.09323
1232.0,0.09255
1233.0,0.08492
1234.0,0.09426
1235.0,0.09288
1236.0,0.09417
1237.0,0.0912
1238.0,0.09388
1239.0,0.09263
1240.0,0.09324
1241.0,0.09152
1242.0,0.09246
1243.0,0.09179
1244.0,0.09202
1245.0,0.09266
1246.0,0.09218
1247.0,0.09144
1248.0,0.09072
1249.0,0.09159
1250.0,0.09063
1251.0,0.08864
1252.0,0.08971
1253.0,0.0871
1254.0,0.08486
1255.0,0.08913
1256.0,0.08319
1257.0,0.08204
1258.0,0.08629
1259.0,0.078
1260.0,0.07903
1261.0,0.06852
1262.0,0.06345
1263.0,0.06342
1264.0,0.05215
1265.0,0.06312
1266.0,0.05686
1267.0,0.06055
1268.0,0.05323
1269.0,0.01493
1270.0,0.05925
1271.0,0.06918
1272.0,0.06992
1273.0,0.0685
1274.0,0.06967
1275.0,0.07174
1276.0,0.07367
1277.0,0.07586
1278.0,0.07966
1279.0,0.07899
1280.0,0.07802
1281.0,0.07564
1282.0,0.07484
1283.0,0.08019
1284.0,0.08178
1285.0,0.08267
1286.0,0.08483
1287.0,0.08156
1288.0,0.08224
1289.0,0.07574
1290.0,0.08164
1291.0,0.08352
1292.0,0.07176
1293.0,0.08039
1294.0,0.07958
1295.0,0.07667
1296.0,0.0694
1297.0,0.06307
1298.0,0.07378
1299.0,0.08103
1300.0,0.05914
1301.0,0.06229
1302.0,0.07389
1303.0,0.05906
1304.0,0.04253
1305.0,0.07189
1306.0,0.07063
1307.0,0.04622
1308.0,0.06053
1309.0,0.06835
1310.0,0.04439
1311.0,0.05606
1312.0,0.05382
1313.0,0.05019
1314.0,0.04184
1315.0,0.03983
1316.0,0.05361
1317.0,0.04938
1318.0,0.05728
1319.0,0.03546
1320.0,0.03579
1321.0,0.04524
1322.0,0.04381
1323.0,0.02589
1324.0,0.03526
1325.0,0.0513
1326.0,0.03965
1327.0,0.03641
1328.0,0.02869
1329.0,0.01597
1330.0,0.02404
1331.0,0.009411
1332.0,0.0108
1333.0,0.01598
1334.0,0.01742
1335.0,0.02483
1336.0,0.01638
1337.0,0.01417
1338.0,0.01486
1339.0,0.01529
1340.0,0.01643
1341.0,0.01227
1342.0,0.0135
1343.0,0.004928
1344.0,0.003318
1345.0,0.004227
1346.0,0.00081
1347.0,0.0006622
1348.0,9.924e-06
1349.0,4.392e-05
1350.0,5.201e-05
1351.0,5.063e-06
1352.0,9.796e-07
1353.0,4.91e-08
1354.0,1.719e-07
1355.0,1.353e-09
1356.0,2.379e-08
1357.0,3.613e-08
1358.0,1.589e-09
1359.0,2.001e-10
1360.0,7.232e-10
1361.0,8.089e-13
1362.0,2.213e-15
1363.0,9.724e-10
1364.0,4.014e-10
1365.0,7.726e-16
1366.0,4.214e-09
1367.0,1.72e-09
1368.0,5.965e-18
1369.0,1.479e-10
1370.0,7.285e-11
1371.0,4.129e-12
1372.0,9.33e-10
1373.0,1.881e-08
1374.0,8.76e-08
1375.0,1.584e-07
1376.0,1.458e-07
1377.0,6.629e-08
1378.0,6.438e-07
1379.0,2.787e-08
1380.0,3.913e-08
1381.0,1.019e-09
1382.0,8.176e-10
1383.0,1.222e-11
1384.0,1.603e-10
1385.0,7.669e-10
1386.0,7.208e-10
1387.0,8.723e-08
1388.0,1.724e-09
1389.0,2.97e-07
1390.0,2.54e-07
1391.0,1.692e-07
1392.0,1.101e-08
1393.0,5.888e-08
1394.0,2.975e-08
1395.0,2.18e-10
1396.0,1.053e-12
1397.0,2.298e-08
1398.0,6.795e-07
1399.0,4.313e-07
1400.0,4.503e-13
1401.0,1.868e-12
1402.0,1.718e-06
1403.0,1.791e-06
1404.0,5.049e-07
1405.0,1.032e-10
1406.0,1.202e-06
1407.0,1.363e-07
1408.0,9.894e-07
1409.0,3.171e-07
1410.0,2.714e-07
1411.0,1.603e-06
1412.0,2.7e-06
1413.0,5.77e-05
