interpolation:linear
wavelength,value
280.0,5.342e-23
280.5,1.795e-21
281.0,9.722e-21
281.5,3.158e-19
282.0,4.982e-19
282.5,1.162e-18
283.0,3.591e-18
283.5,5.829e-18
284.0,9.546e-17
284.5,2.801e-16
285.0,6.805e-16
285.5,2.918e-15
286.0,1.146e-14
286.5,4.984e-14
287.0,1.412e-13
287.5,5.394e-13
288.0,1.752e-12
288.5,5.002e-12
289.0,1.291e-11
289.5,3.829e-11
290.0,1.056e-10
290.5,2.152e-10
291.0,4.623e-10
291.5,1.331e-09
292.0,2.726e-09
292.5,3.792e-09
293.0,8.052e-09
293.5,1.936e-08
294.0,3.017e-08
294.5,3.736e-08
295.0,6.282e-08
295.5,1.066e-07
296.0,2e-07
296.5,2.716e-07
297.0,3.579e-07
297.5,9.205e-07
298.0,1.395e-06
298.5,1.358e-06
299.0,2.895e-06
299.5,4.512e-06
300.0,4.776e-06
300.5,6.639e-06
301.0,1.12e-05
301.5,1.667e-05
302.0,1.375e-05
302.5,2.632e-05
303.0,4.594e-05
303.5,5.732e-05
304.0,5.476e-05
304.5,8.573e-05
305.0,0.0001401
305.5,0.0001688
306.0,0.0001667
306.5,0.0002149
307.0,0.0003459
307.5,0.0004994
308.0,0.0005344
308.5,0.0006583
309.0,0.0007359
309.5,0.001026
310.0,0.001128
310.5,0.001912
311.0,0.002585
311.5,0.002577
312.0,0.003031
312.5,0.004108
313.0,0.004714
313.5,0.00434
314.0,0.006178
314.5,0.006512
315.0,0.008822
315.5,0.006781
316.0,0.006816
316.5,0.01105
317.0,0.01368
317.5,0.01375
318.0,0.01165
318.5,0.01697
319.0,0.02183
319.5,0.01562
320.0,0.0185
320.5,0.02726
321.0,0.02814
321.5,0.02737
322.0,0.02488
322.5,0.02181
323.0,0.02408
323.5,0.03437
324.0,0.04087
324.5,0.03952
325.0,0.03082
325.5,0.04311
326.0,0.0571
326.5,0.06075
327.0,0.05919
327.5,0.05554
328.0,0.04553
328.5,0.05285
329.0,0.06834
329.5,0.0794
330.0,0.07859
330.5,0.05925
331.0,0.05914
331.5,0.06283
332.0,0.07234
332.5,0.07364
333.0,0.07221
333.5,0.06235
334.0,0.06338
334.5,0.07714
335.0,0.07475
335.5,0.08859
336.0,0.0613
336.5,0.06968
337.0,0.05591
337.5,0.06897
338.0,0.07036
338.5,0.08286
339.0,0.08226
339.5,0.079
340.0,0.09111
340.5,0.0825
341.0,0.08177
341.5,0.0755
342.0,0.09039
342.5,0.08472
343.0,0.09287
343.5,0.08726
344.0,0.06345
344.5,0.06491
345.0,0.08647
345.5,0.08856
346.0,0.07544
346.5,0.08555
347.0,0.0916
347.5,0.07402
348.0,0.08471
348.5,0.08488
349.0,0.07886
349.5,0.07809
350.0,0.09667
350.5,0.102
351.0,0.09097
351.5,0.08805
352.0,0.09489
352.5,0.07426
353.0,0.09372
353.5,0.1004
354.0,0.1043
354.5,0.1058
355.0,0.1054
355.5,0.09535
356.0,0.09987
356.5,0.08531
357.0,0.07049
357.5,0.08635
358.0,0.06848
358.5,0.05856
359.0,0.0819
359.5,0.1043
360.0,0.1106
360.5,0.08851
361.0,0.08078
361.5,0.09315
362.0,0.08066
362.5,0.1118
363.0,0.1005
363.5,0.09264
364.0,0.1134
364.5,0.09698
365.0,0.09883
365.5,0.1241
366.0,0.1317
366.5,0.1238
367.0,0.1207
367.5,0.1253
368.0,0.1097
368.5,0.1108
369.0,0.1198
369.5,0.1278
370.0,0.1363
370.5,0.1059
371.0,0.1132
371.5,0.1418
372.0,0.09415
372.5,0.113
373.0,0.115
373.5,0.07491
374.0,0.1089
374.5,0.09029
375.0,0.08784
375.5,0.1312
376.0,0.1088
376.5,0.1129
377.0,0.1196
377.5,0.14
378.0,0.1519
378.5,0.1436
379.0,0.1186
379.5,0.1084
380.0,0.1127
380.5,0.1367
381.0,0.1371
381.5,0.1089
382.0,0.09679
382.5,0.08262
383.0,0.07658
383.5,0.07383
384.0,0.08152
384.5,0.12
385.0,0.1191
385.5,0.1111
386.0,0.09522
386.5,0.1252
387.0,0.1041
387.5,0.117
388.0,0.1082
388.5,0.107
389.0,0.1156
389.5,0.1402
390.0,0.1408
390.5,0.1297
391.0,0.1528
391.5,0.156
392.0,0.1315
392.5,0.1179
393.0,0.06567
393.5,0.04778
394.0,0.09732
394.5,0.1239
395.0,0.1513
395.5,0.1538
396.0,0.1334
396.5,0.07811
397.0,0.05869
397.5,0.1195
398.0,0.1674
398.5,0.1731
399.0,0.1878
399.5,0.1873
400.0,0.1946
401.0,0.1949
402.0,0.2061
403.0,0.1962
404.0,0.1935
405.0,0.1938
406.0,0.1911
407.0,0.1885
408.0,0.196
409.0,0.2101
410.0,0.184
411.0,0.1997
412.0,0.2151
413.0,0.21
414.0,0.213
415.0,0.214
416.0,0.2183
417.0,0.2132
418.0,0.2096
419.0,0.2128
420.0,0.2122
421.0,0.2224
422.0,0.2117
423.0,0.2071
424.0,0.2192
425.0,0.2192
426.0,0.2142
427.0,0.2105
428.0,0.2054
429.0,0.1951
430.0,0.1711
431.0,0.1696
432.0,0.2195
433.0,0.2211
434.0,0.2055
435.0,0.2148
436.0,0.2427
437.0,0.2401
438.0,0.219
439.0,0.2261
440.0,0.2338
441.0,0.2427
442.0,0.2606
443.0,0.2537
444.0,0.2599
445.0,0.2544
446.0,0.2437
447.0,0.2642
448.0,0.2681
449.0,0.27
450.0,0.2781
451.0,0.2887
452.0,0.2786
453.0,0.2625
454.0,0.2747
455.0,0.2765
456.0,0.2834
457.0,0.2882
458.0,0.278
459.0,0.2768
460.0,0.2774
461.0,0.284
462.0,0.2868
463.0,0.285
464.0,0.2813
465.0,0.2787
466.0,0.2821
467.0,0.2768
468.0,0.2802
469.0,0.2817
470.0,0.2726
471.0,0.2725
472.0,0.2872
473.0,0.2836
474.0,0.2835
475.0,0.2853
476.0,0.2759
477.0,0.276
478.0,0.2838
479.0,0.2825
480.0,0.2836
481.0,0.2896
482.0,0.2919
483.0,0.2894
484.0,0.2841
485.0,0.2714
486.0,0.238
487.0,0.25
488.0,0.2743
489.0,0.275
490.0,0.2898
491.0,0.2852
492.0,0.2695
493.0,0.2786
494.0,0.2815
495.0,0.2842
496.0,0.286
497.0,0.2904
498.0,0.2767
499.0,0.2798
500.0,0.2711
501.0,0.2655
502.0,0.2606
503.0,0.27
504.0,0.2599
505.0,0.2719
506.0,0.2807
507.0,0.2674
508.0,0.2601
509.0,0.2683
510.0,0.2677
511.0,0.2756
512.0,0.279
513.0,0.2641
514.0,0.2626
515.0,0.26
516.0,0.2592
517.0,0.2305
518.0,0.2422
519.0,0.254
520.0,0.263
521.0,0.2654
522.0,0.2653
523.0,0.2603
524.0,0.2689
525.0,0.271
526.0,0.2586
527.0,0.2429
528.0,0.2563
529.0,0.2696
530.0,0.2653
531.0,0.2689
532.0,0.2595
533.0,0.2519
534.0,0.2596
535.0,0.2657
536.0,0.2686
537.0,0.2584
538.0,0.2632
539.0,0.2609
540.0,0.2499
541.0,0.2504
542.0,0.2577
543.0,0.2558
544.0,0.2593
545.0,0.2587
546.0,0.259
547.0,0.2596
548.0,0.2569
549.0,0.258
550.0,0.2611
551.0,0.2581
552.0,0.2599
553.0,0.255
554.0,0.261
555.0,0.2613
556.0,0.2577
557.0,0.2494
558.0,0.2469
559.0,0.2417
560.0,0.2443
561.0,0.2469
562.0,0.2444
563.0,0.2502
564.0,0.2428
565.0,0.2401
566.0,0.2361
567.0,0.2398
568.0,0.2357
569.0,0.2267
570.0,0.227
571.0,0.2265
572.0,0.2296
573.0,0.2316
574.0,0.2303
575.0,0.2251
576.0,0.2231
577.0,0.2259
578.0,0.2235
579.0,0.2261
580.0,0.233
581.0,0.2362
582.0,0.2425
583.0,0.2446
584.0,0.2477
585.0,0.2422
586.0,0.2374
587.0,0.2415
588.0,0.2313
589.0,0.1968
590.0,0.2063
591.0,0.2234
592.0,0.2176
593.0,0.2246
594.0,0.2216
595.0,0.2126
596.0,0.2281
597.0,0.2236
598.0,0.2252
599.0,0.2263
600.0,0.2283
601.0,0.2278
602.0,0.2265
603.0,0.231
604.0,0.2352
605.0,0.2345
606.0,0.2342
607.0,0.2374
608.0,0.2356
609.0,0.2367
610.0,0.2357
611.0,0.2376
612.0,0.2374
613.0,0.2349
614.0,0.2324
615.0,0.2381
616.0,0.2308
617.0,0.2308
618.0,0.2401
619.0,0.2379
620.0,0.2395
621.0,0.2392
622.0,0.2361
623.0,0.2322
624.0,0.2286
625.0,0.2279
626.0,0.231
627.0,0.2318
628.0,0.1961
629.0,0.2191
630.0,0.2132
631.0,0.2251
632.0,0.2238
633.0,0.2335
634.0,0.2336
635.0,0.2384
636.0,0.2366
637.0,0.2416
638.0,0.2456
639.0,0.2437
640.0,0.2425
641.0,0.2431
642.0,0.2429
643.0,0.2463
644.0,0.2465
645.0,0.2464
646.0,0.2381
647.0,0.2293
648.0,0.2304
649.0,0.2247
650.0,0.2335
651.0,0.2449
652.0,0.2277
653.0,0.2423
654.0,0.2401
655.0,0.2275
656.0,0.2042
657.0,0.2103
658.0,0.2382
659.0,0.2408
660.0,0.2425
661.0,0.2448
662.0,0.2442
663.0,0.2398
664.0,0.2446
665.0,0.2463
666.0,0.2471
667.0,0.2477
668.0,0.2487
669.0,0.2531
670.0,0.2524
671.0,0.2528
672.0,0.251
673.0,0.2552
674.0,0.2546
675.0,0.2527
676.0,0.2547
677.0,0.2526
678.0,0.2536
679.0,0.2498
680.0,0.252
681.0,0.2504
682.0,0.2502
683.0,0.2498
684.0,0.2485
685.0,0.2511
686.0,0.2491
687.0,0.08727
688.0,0.1314
689.0,0.133
690.0,0.1515
691.0,0.1747
692.0,0.1945
693.0,0.1926
694.0,0.1944
695.0,0.2134
696.0,0.2146
697.0,0.2398
698.0,0.2358
699.0,0.2215
700.0,0.2184
701.0,0.2122
702.0,0.2172
703.0,0.219
704.0,0.2313
705.0,0.2313
706.0,0.233
707.0,0.2341
708.0,0.2343
709.0,0.2385
710.0,0.2363
711.0,0.2374
712.0,0.2386
713.0,0.2344
714.0,0.2359
715.0,0.2247
716.0,0.224
717.0,0.1641
718.0,0.1492
719.0,0.1344
720.0,0.1374
721.0,0.1678
722.0,0.21
723.0,0.1869
724.0,0.1573
725.0,0.1518
726.0,0.1595
727.0,0.1692
728.0,0.1502
729.0,0.1658
730.0,0.1721
731.0,0.1634
732.0,0.186
733.0,0.2064
734.0,0.2149
735.0,0.2085
736.0,0.2073
737.0,0.2085
738.0,0.2206
739.0,0.2167
740.0,0.2249
741.0,0.2241
742.0,0.2261
743.0,0.2324
744.0,0.2328
745.0,0.2338
746.0,0.2348
747.0,0.2356
748.0,0.2352
749.0,0.2326
750.0,0.2326
751.0,0.2303
752.0,0.2314
753.0,0.2327
754.0,0.2332
755.0,0.2319
756.0,0.2319
757.0,0.2322
758.0,0.2291
759.0,0.2182
760.0,0.003965
761.0,0.001594
762.0,0.04049
763.0,0.008424
764.0,0.02017
765.0,0.04028
766.0,0.07164
767.0,0.1239
768.0,0.1795
769.0,0.1928
770.0,0.2108
771.0,0.2177
772.0,0.2199
773.0,0.2219
774.0,0.2212
775.0,0.2198
776.0,0.2226
777.0,0.2197
778.0,0.2183
779.0,0.2185
780.0,0.2174
781.0,0.2177
782.0,0.2192
783.0,0.2155
784.0,0.2168
785.0,0.2147
786.0,0.2167
787.0,0.2083
788.0,0.2036
789.0,0.2037
790.0,0.1926
791.0,0.2001
792.0,0.1996
793.0,0.1958
794.0,0.2049
795.0,0.2067
796.0,0.192
797.0,0.1913
798.0,0.2054
799.0,0.2027
800.0,0.1972
801.0,0.1944
802.0,0.1935
803.0,0.1909
804.0,0.1922
805.0,0.1942
806.0,0.204
807.0,0.2007
808.0,0.2011
809.0,0.1939
810.0,0.1906
811.0,0.1877
812.0,0.1753
813.0,0.1703
814.0,0.1367
815.0,0.1373
816.0,0.1254
817.0,0.128
818.0,0.1203
819.0,0.1453
820.0,0.1334
821.0,0.1739
822.0,0.1659
823.0,0.08764
824.0,0.1539
825.0,0.1714
826.0,0.1585
827.0,0.1735
828.0,0.1295
829.0,0.1589
830.0,0.1559
831.0,0.1561
832.0,0.1481
833.0,0.1653
834.0,0.1548
835.0,0.1836
836.0,0.1656
837.0,0.1839
838.0,0.1734
839.0,0.1809
840.0,0.1861
841.0,0.1814
842.0,0.185
843.0,0.1885
844.0,0.1841
845.0,0.1926
846.0,0.1925
847.0,0.1899
848.0,0.1872
849.0,0.1819
850.0,0.1744
851.0,0.1829
852.0,0.1825
853.0,0.1769
854.0,0.1517
855.0,0.1682
856.0,0.1832
857.0,0.1883
858.0,0.1864
859.0,0.1873
860.0,0.1881
861.0,0.187
862.0,0.1902
863.0,0.1947
864.0,0.185
865.0,0.1836
866.0,0.1651
867.0,0.1723
868.0,0.1875
869.0,0.1837
870.0,0.189
871.0,0.1864
872.0,0.1859
873.0,0.1855
874.0,0.1833
875.0,0.1796
876.0,0.1813
877.0,0.1833
878.0,0.185
879.0,0.1822
880.0,0.1783
881.0,0.1749
882.0,0.1783
883.0,0.1797
884.0,0.1786
885.0,0.1799
886.0,0.1688
887.0,0.1727
888.0,0.1742
889.0,0.1783
890.0,0.1739
891.0,0.1751
892.0,0.1664
893.0,0.1582
894.0,0.1452
895.0,0.1285
896.0,0.119
897.0,0.09323
898.0,0.1055
899.0,0.07078
900.0,0.1139
901.0,0.07424
902.0,0.0989
903.0,0.09531
904.0,0.1434
905.0,0.1359
906.0,0.1243
907.0,0.08537
908.0,0.09083
909.0,0.1032
910.0,0.08126
911.0,0.09575
912.0,0.09917
913.0,0.08193
914.0,0.08357
915.0,0.08902
916.0,0.07442
917.0,0.1043
918.0,0.0752
919.0,0.11
920.0,0.1206
921.0,0.124
922.0,0.1032
923.0,0.1209
924.0,0.1027
925.0,0.1012
926.0,0.1004
927.0,0.1197
928.0,0.06652
929.0,0.05571
930.0,0.03548
931.0,0.0329
932.0,0.01727
933.0,0.01185
934.0,0.00308
935.0,0.01362
936.0,0.005868
937.0,0.005967
938.0,0.008132
939.0,0.03164
940.0,0.04374
941.0,0.02639
942.0,0.03334
943.0,0.0174
944.0,0.02311
945.0,0.02871
946.0,0.009018
947.0,0.02719
948.0,0.01953
949.0,0.04323
950.0,0.005096
951.0,0.04261
952.0,0.01595
953.0,0.02509
954.0,0.03626
955.0,0.02614
956.0,0.03339
957.0,0.01586
958.0,0.05233
959.0,0.03328
960.0,0.03752
961.0,0.04875
962.0,0.04613
963.0,0.05951
964.0,0.05286
965.0,0.0583
966.0,0.0585
967.0,0.05699
968.0,0.1049
969.0,0.104
970.0,0.0938
971.0,0.1203
972.0,0.1117
973.0,0.08445
974.0,0.07985
975.0,0.08603
976.0,0.07435
977.0,0.101
978.0,0.08907
979.0,0.09639
980.0,0.08933
981.0,0.1199
982.0,0.11
983.0,0.1031
984.0,0.1302
985.0,0.1089
986.0,0.1369
987.0,0.1305
988.0,0.1308
989.0,0.1395
990.0,0.1296
991.0,0.1394
992.0,0.1407
993.0,0.1335
994.0,0.1413
995.0,0.1419
996.0,0.1404
997.0,0.1411
998.0,0.1401
999.0,0.1398
1000.0,0.1376
1001.0,0.1407
1002.0,0.1315
1003.0,0.1379
1004.0,0.1331
1005.0,0.1301
1006.0,0.1344
1007.0,0.1376
1008.0,0.136
1009.0,0.1342
1010.0,0.1332
1011.0,0.137
1012.0,0.1349
1013.0,0.137
1014.0,0.1361
1015.0,0.135
1016.0,0.1343
1017.0,0.1344
1018.0,0.1346
1019.0,0.1297
1020.0,0.1336
1021.0,0.1337
1022.0,0.1319
1023.0,0.1333
1024.0,0.1295
1025.0,0.1338
1026.0,0.1327
1027.0,0.1325
1028.0,0.1321
1029.0,0.1303
1030.0,0.1319
1031.0,0.1311
1032.0,0.131
1033.0,0.129
1034.0,0.129
1035.0,0.1294
1036.0,0.1299
1037.0,0.1278
1038.0,0.1283
1039.0,0.1281
1040.0,0.1275
1041.0,0.1279
1042.0,0.1269
1043.0,0.1264
1044.0,0.1267
1045.0,0.1249
1046.0,0.1234
1047.0,0.1243
1048.0,0.1249
1049.0,0.1242
1050.0,0.1235
1051.0,0.1231
1052.0,0.1224
1053.0,0.1211
1054.0,0.1211
1055.0,0.1209
1056.0,0.1201
1057.0,0.1194
1058.0,0.1162
1059.0,0.116
1060.0,0.1156
1061.0,0.1153
1062.0,0.1156
1063.0,0.1142
1064.0,0.1156
1065.0,0.114
1066.0,0.1124
1067.0,0.1136
1068.0,0.1106
1069.0,0.1077
1070.0,0.1108
1071.0,0.1143
1072.0,0.1117
1073.0,0.1103
1074.0,0.1152
1075.0,0.1052
1076.0,0.1148
1077.0,0.1105
1078.0,0.107
1079.0,0.114
1080.0,0.1086
1081.0,0.1028
1082.0,0.1083
1083.0,0.1099
1084.0,0.1017
1085.0,0.1092
1086.0,0.09391
1087.0,0.1006
1088.0,0.1091
1089.0,0.1008
1090.0,0.09685
1091.0,0.1075
1092.0,0.1079
1093.0,0.08044
1094.0,0.09731
1095.0,0.08372
1096.0,0.07744
1097.0,0.1055
1098.0,0.07432
1099.0,0.0789
1100.0,0.06963
1101.0,0.07225
1102.0,0.06594
1103.0,0.06318
1104.0,0.06372
1105.0,0.07598
1106.0,0.04325
1107.0,0.06968
1108.0,0.05008
1109.0,0.05095
1110.0,0.06631
1111.0,0.03298
1112.0,0.05102
1113.0,0.02223
1114.0,0.02489
1115.0,0.01956
1116.0,0.01143
1117.0,0.001758
1118.0,0.01304
1119.0,0.003795
1120.0,0.004332
1121.0,0.006767
1122.0,0.001351
1123.0,0.003966
1124.0,0.003316
1125.0,0.004964
1126.0,0.0005139
1127.0,0.00572
1128.0,0.001793
1129.0,0.001992
1130.0,0.001256
1131.0,0.01746
1132.0,0.01215
1133.0,0.004517
1134.0,0.0003878
1135.0,0.0001879
1136.0,0.002921
1137.0,0.01589
1138.0,0.01022
1139.0,0.02488
1140.0,0.0169
1141.0,0.009877
1142.0,0.01281
1143.0,0.02286
1144.0,0.004359
1145.0,0.00425
1146.0,0.004567
1147.0,0.0005524
1148.0,0.01871
1149.0,0.01248
1150.0,0.005649
1151.0,0.01021
1152.0,0.01544
1153.0,0.01762
1154.0,0.004684
1155.0,0.02593
1156.0,0.02119
1157.0,0.02938
1158.0,0.0289
1159.0,0.03292
1160.0,0.02733
1161.0,0.04041
1162.0,0.03969
1163.0,0.068
1164.0,0.05331
1165.0,0.04546
1166.0,0.04951
1167.0,0.05626
1168.0,0.05618
1169.0,0.05853
1170.0,0.06828
1171.0,0.06658
1172.0,0.07128
1173.0,0.06822
1174.0,0.03919
1175.0,0.07007
1176.0,0.08403
1177.0,0.07577
1178.0,0.04921
1179.0,0.08451
1180.0,0.06797
1181.0,0.07032
1182.0,0.03935
1183.0,0.07064
1184.0,0.0629
1185.0,0.05776
1186.0,0.07858
1187.0,0.07142
1188.0,0.03805
1189.0,0.06614
1190.0,0.07782
1191.0,0.06687
1192.0,0.07962
1193.0,0.07382
1194.0,0.07776
1195.0,0.06878
1196.0,0.06384
1197.0,0.07938
1198.0,0.07117
1199.0,0.05115
1200.0,0.07308
1201.0,0.06671
1202.0,0.06995
1203.0,0.06675
1204.0,0.05499
1205.0,0.07389
1206.0,0.08615
1207.0,0.06817
1208.0,0.07
1209.0,0.0716
1210.0,0.07693
1211.0,0.0702
1212.0,0.06338
1213.0,0.08028
1214.0,0.06684
1215.0,0.06531
1216.0,0.08094
1217.0,0.07702
1218.0,0.08007
1219.0,0.07777
1220.0,0.08037
1221.0,0.0827
1222.0,0.07966
1223.0,0.07801
1224.0,0.07518
1225.0,0.08152
1226.0,0.08383
1227.0,0.07179
1228.0,0.0852
1229.0,0.0839
1230.0,0.08143
1231.0,0.08707
1232.0,0.08642
1233.0,0.07899
1234.0,0.08813
1235.0,0.08677
1236.0,0.08803
1237.0,0.08516
1238.0,0.08776
1239.0,0.08659
1240.0,0.08719
1241.0,0.08546
1242.0,0.08644
1243.0,0.08582
1244.0,0.086
1245.0,0.08662
1246.0,0.08617
1247.0,0.08545
1248.0,0.08471
1249.0,0.08558
1250.0,0.08465
1251.0,0.08271
1252.0,0.0838
1253.0,0.08119
1254.0,0.07897
1255.0,0.08322
1256.0,0.07735
1257.0,0.07621
1258.0,0.08043
1259.0,0.07222
1260.0,0.07323
1261.0,0.06294
1262.0,0.058
1263.0,0.05797
1264.0,0.0471
1265.0,0.0577
1266.0,0.05162
1267.0,0.05523
1268.0,0.04817
1269.0,0.01247
1270.0,0.05395
1271.0,0.06365
1272.0,0.06436
1273.0,0.06298
1274.0,0.06416
1275.0,0.06616
1276.0,0.06806
1277.0,0.07026
1278.0,0.074
1279.0,0.07342
1280.0,0.07249
1281.0,0.0704
1282.0,0.06983
1283.0,0.07478
1284.0,0.07624
1285.0,0.07711
1286.0,0.07922
1287.0,0.07599
1288.0,0.0767
1289.0,0.0703
1290.0,0.07614
1291.0,0.07796
1292.0,0.06646
1293.0,0.07493
1294.0,0.07415
1295.0,0.0712
1296.0,0.06417
1297.0,0.05812
1298.0,0.06846
1299.0,0.07555
1300.0,0.05449
1301.0,0.05745
1302.0,0.06864
1303.0,0.05443
1304.0,0.03865
1305.0,0.06671
1306.0,0.0654
1307.0,0.0422
1308.0,0.05586
1309.0,0.06313
1310.0,0.04042
1311.0,0.0516
1312.0,0.04954
1313.0,0.0459
1314.0,0.03798
1315.0,0.03609
1316.0,0.04923
1317.0,0.04519
1318.0,0.05273
1319.0,0.03199
1320.0,0.03236
1321.0,0.04124
1322.0,0.03977
1323.0,0.02298
1324.0,0.03186
1325.0,0.0469
1326.0,0.03596
1327.0,0.03288
1328.0,0.02567
1329.0,0.01388
1330.0,0.02126
1331.0,0.007989
1332.0,0.009217
1333.0,0.01374
1334.0,0.01538
1335.0,0.0219
1336.0,0.0142
1337.0,0.01232
1338.0,0.01288
1339.0,0.01325
1340.0,0.01436
1341.0,0.01045
1342.0,0.01156
1343.0,0.004016
1344.0,0.002724
1345.0,0.003398
1346.0,0.0006049
1347.0,0.0004859
1348.0,7.588e-06
1349.0,3.239e-05
1350.0,3.737e-05
1351.0,4.343e-06
1352.0,9.644e-07
1353.0,4.88e-08
1354.0,1.69e-07
1355.0,1.348e-09
1356.0,2.364e-08
1357.0,3.591e-08
1358.0,1.583e-09
1359.0,1.994e-10
1360.0,7.207e-10
1361.0,8.062e-13
1362.0,2.205e-15
1363.0,9.691e-10
1364.0,4.001e-10
1365.0,7.7e-16
1366.0,4.2e-09
1367.0,1.714e-09
1368.0,5.945e-18
1369.0,1.474e-10
1370.0,7.26e-11
1371.0,4.115e-12
1372.0,9.298e-10
1373.0,1.874e-08
1374.0,8.702e-08
1375.0,1.576e-07
1376.0,1.43e-07
1377.0,6.517e-08
1378.0,6.349e-07
1379.0,2.732e-08
1380.0,3.884e-08
1381.0,1.012e-09
1382.0,8.148e-10
1383.0,1.218e-11
1384.0,1.597e-10
1385.0,7.639e-10
1386.0,7.184e-10
1387.0,8.69e-08
1388.0,1.713e-09
1389.0,2.943e-07
1390.0,2.522e-07
1391.0,1.679e-07
1392.0,1.09e-08
1393.0,5.798e-08
1394.0,2.964e-08
1395.0,2.172e-10
1396.0,1.05e-12
1397.0,2.274e-08
1398.0,6.721e-07
1399.0,4.257e-07
1400.0,4.488e-13
1401.0,1.862e-12
1402.0,1.462e-06
1403.0,1.623e-06
1404.0,4.717e-07
1405.0,1.028e-10
1406.0,1.171e-06
1407.0,1.201e-07
1408.0,9.577e-07
1409.0,3.139e-07
1410.0,2.595e-07
1411.0,1.431e-06
1412.0,2.241e-06
1413.0,4.119e-05
