interpolation:linear
wavelength,value
280.0,3.467e-21
280.5,1.081e-19
281.0,5.696e-19
281.5,3.653e-19
282.0,1.092e-18
282.5,2.887e-18
283.0,9.361e-18
283.5,1.534e-17
284.0,2.494e-16
284.5,7.19e-16
285.0,1.617e-15
285.5,7.921e-15
286.0,3.173e-14
286.5,1.402e-13
287.0,3.967e-13
287.5,1.5e-12
288.0,3.919e-12
288.5,1.318e-11
289.0,3.779e-11
289.5,1.206e-10
290.0,3.466e-10
290.5,7.237e-10
291.0,1.59e-09
291.5,4.762e-09
292.0,1.049e-08
292.5,1.591e-08
293.0,3.767e-08
293.5,1.051e-07
294.0,1.812e-07
294.5,2.347e-07
295.0,4.383e-07
295.5,1.172e-06
296.0,2.348e-06
296.5,3.424e-06
297.0,4.809e-06
297.5,1.37e-05
298.0,2.282e-05
298.5,2.403e-05
299.0,5.553e-05
299.5,0.0001005
300.0,0.0001166
300.5,0.0001791
301.0,0.00036
301.5,0.0006432
302.0,0.0005901
302.5,0.001162
303.0,0.002107
303.5,0.002669
304.0,0.002518
304.5,0.003792
305.0,0.005815
305.5,0.006704
306.0,0.006506
306.5,0.008133
307.0,0.01216
307.5,0.01627
308.0,0.01721
308.5,0.02038
309.0,0.02006
309.5,0.023
310.0,0.02314
310.5,0.0375
311.0,0.04711
311.5,0.0455
312.0,0.04556
312.5,0.05549
313.0,0.06022
313.5,0.05847
314.0,0.07317
314.5,0.06494
315.0,0.08536
315.5,0.0714
316.0,0.0624
316.5,0.08964
317.0,0.1113
317.5,0.1159
318.0,0.0904
318.5,0.1123
319.0,0.1332
319.5,0.1086
320.0,0.1313
320.5,0.1643
321.0,0.1462
321.5,0.1402
322.0,0.1496
322.5,0.1301
323.0,0.1296
323.5,0.1592
324.0,0.1858
324.5,0.1887
325.0,0.1631
325.5,0.2097
326.0,0.2564
326.5,0.2567
327.0,0.2559
327.5,0.2473
328.0,0.2204
328.5,0.2315
329.0,0.277
329.5,0.3144
330.0,0.3173
330.5,0.2541
331.0,0.2591
331.5,0.2632
332.0,0.2842
332.5,0.281
333.0,0.2803
333.5,0.2539
334.0,0.2602
334.5,0.3001
335.0,0.2819
335.5,0.3293
336.0,0.2279
336.5,0.267
337.0,0.2192
337.5,0.2727
338.0,0.2662
338.5,0.3073
339.0,0.3042
339.5,0.2927
340.0,0.3441
340.5,0.3102
341.0,0.3026
341.5,0.2779
342.0,0.3322
342.5,0.3108
343.0,0.3419
343.5,0.322
344.0,0.2381
344.5,0.2405
345.0,0.3183
345.5,0.3251
346.0,0.2764
346.5,0.313
347.0,0.3361
347.5,0.2718
348.0,0.31
348.5,0.3099
349.0,0.2876
349.5,0.2848
350.0,0.3524
350.5,0.3718
351.0,0.3322
351.5,0.3229
352.0,0.3469
352.5,0.2708
353.0,0.3412
353.5,0.3649
354.0,0.3789
354.5,0.3844
355.0,0.3832
355.5,0.3463
356.0,0.3624
356.5,0.3095
357.0,0.2558
357.5,0.3132
358.0,0.2482
358.5,0.2122
359.0,0.2968
359.5,0.3783
360.0,0.4011
360.5,0.3207
361.0,0.2924
361.5,0.3369
362.0,0.2914
362.5,0.4035
363.0,0.3625
363.5,0.334
364.0,0.4087
364.5,0.3494
365.0,0.3559
365.5,0.4468
366.0,0.4736
366.5,0.4451
367.0,0.4336
367.5,0.4501
368.0,0.394
368.5,0.3977
369.0,0.4296
369.5,0.458
370.0,0.4884
370.5,0.3791
371.0,0.4052
371.5,0.5071
372.0,0.3366
372.5,0.4038
373.0,0.4108
373.5,0.2674
374.0,0.3886
374.5,0.322
375.0,0.313
375.5,0.4675
376.0,0.3876
376.5,0.4017
377.0,0.4255
377.5,0.4979
378.0,0.5398
378.5,0.5104
379.0,0.4212
379.5,0.3848
380.0,0.4002
380.5,0.4849
381.0,0.4861
381.5,0.3855
382.0,0.3424
382.5,0.292
383.0,0.2704
383.5,0.2606
384.0,0.2875
384.5,0.423
385.0,0.4196
385.5,0.3909
386.0,0.3349
386.5,0.44
387.0,0.3657
387.5,0.4108
388.0,0.3794
388.5,0.3752
389.0,0.4051
389.5,0.4907
390.0,0.4926
390.5,0.4535
391.0,0.534
391.5,0.5447
392.0,0.4589
392.5,0.411
393.0,0.2287
393.5,0.1663
394.0,0.3385
394.5,0.4305
395.0,0.5255
395.5,0.5339
396.0,0.463
396.5,0.2707
397.0,0.2032
397.5,0.4134
398.0,0.579
398.5,0.5986
399.0,0.6484
399.5,0.6465
400.0,0.6714
401.0,0.6806
402.0,0.7185
403.0,0.6828
404.0,0.6726
405.0,0.6727
406.0,0.6621
407.0,0.6518
408.0,0.6774
409.0,0.7253
410.0,0.634
411.0,0.687
412.0,0.7382
413.0,0.7201
414.0,0.7292
415.0,0.7314
416.0,0.7445
417.0,0.7264
418.0,0.7132
419.0,0.7229
420.0,0.7199
421.0,0.7534
422.0,0.7163
423.0,0.6999
424.0,0.7404
425.0,0.7393
426.0,0.7204
427.0,0.7072
428.0,0.689
429.0,0.6529
430.0,0.5716
431.0,0.5666
432.0,0.7318
433.0,0.736
434.0,0.6836
435.0,0.714
436.0,0.8048
437.0,0.7942
438.0,0.7235
439.0,0.7482
440.0,0.7722
441.0,0.8004
442.0,0.8586
443.0,0.8363
444.0,0.8547
445.0,0.8363
446.0,0.7984
447.0,0.8634
448.0,0.8768
449.0,0.8806
450.0,0.9054
451.0,0.9392
452.0,0.905
453.0,0.8514
454.0,0.889
455.0,0.8946
456.0,0.9159
457.0,0.9313
458.0,0.8995
459.0,0.895
460.0,0.8974
461.0,0.9181
462.0,0.9254
463.0,0.9191
464.0,0.9041
465.0,0.8929
466.0,0.9018
467.0,0.8853
468.0,0.8957
469.0,0.9005
470.0,0.8718
471.0,0.8708
472.0,0.9175
473.0,0.9057
474.0,0.9069
475.0,0.9145
476.0,0.887
477.0,0.8894
478.0,0.9142
479.0,0.9088
480.0,0.9106
481.0,0.9278
482.0,0.9328
483.0,0.9218
484.0,0.903
485.0,0.8605
486.0,0.7523
487.0,0.7886
488.0,0.8652
489.0,0.8678
490.0,0.9131
491.0,0.8974
492.0,0.8475
493.0,0.8753
494.0,0.8841
495.0,0.8917
496.0,0.8972
497.0,0.9111
498.0,0.8685
499.0,0.8796
500.0,0.8539
501.0,0.8381
502.0,0.8262
503.0,0.8596
504.0,0.8371
505.0,0.8676
506.0,0.8957
507.0,0.8523
508.0,0.826
509.0,0.8493
510.0,0.8449
511.0,0.8677
512.0,0.8772
513.0,0.8303
514.0,0.8247
515.0,0.8165
516.0,0.8145
517.0,0.7238
518.0,0.7609
519.0,0.7981
520.0,0.8271
521.0,0.8349
522.0,0.8356
523.0,0.8205
524.0,0.8498
525.0,0.8596
526.0,0.8212
527.0,0.7737
528.0,0.8181
529.0,0.8623
530.0,0.8498
531.0,0.8624
532.0,0.8327
533.0,0.8083
534.0,0.8323
535.0,0.8505
536.0,0.8584
537.0,0.8246
538.0,0.8392
539.0,0.8322
540.0,0.7978
541.0,0.8029
542.0,0.828
543.0,0.8194
544.0,0.8335
545.0,0.8309
546.0,0.8344
547.0,0.8342
548.0,0.8243
549.0,0.8268
550.0,0.8367
551.0,0.8266
552.0,0.8323
553.0,0.8174
554.0,0.8369
555.0,0.8386
556.0,0.8276
557.0,0.8018
558.0,0.7957
559.0,0.7807
560.0,0.7904
561.0,0.8006
562.0,0.7946
563.0,0.8162
564.0,0.7939
565.0,0.7869
566.0,0.7753
567.0,0.7898
568.0,0.7824
569.0,0.7631
570.0,0.763
571.0,0.7586
572.0,0.7763
573.0,0.7845
574.0,0.7819
575.0,0.7671
576.0,0.7602
577.0,0.7685
578.0,0.7572
579.0,0.7605
580.0,0.7755
581.0,0.7799
582.0,0.795
583.0,0.7972
584.0,0.8043
585.0,0.7848
586.0,0.7687
587.0,0.7853
588.0,0.7653
589.0,0.6763
590.0,0.7074
591.0,0.7496
592.0,0.7395
593.0,0.7512
594.0,0.7457
595.0,0.7267
596.0,0.7567
597.0,0.7482
598.0,0.7467
599.0,0.7476
600.0,0.7491
601.0,0.7432
602.0,0.7382
603.0,0.7505
604.0,0.763
605.0,0.7592
606.0,0.7562
607.0,0.7639
608.0,0.7556
609.0,0.757
610.0,0.7518
611.0,0.7558
612.0,0.7537
613.0,0.7443
614.0,0.7342
615.0,0.7503
616.0,0.7257
617.0,0.7243
618.0,0.7523
619.0,0.7447
620.0,0.7494
621.0,0.75
622.0,0.7411
623.0,0.7297
624.0,0.7173
625.0,0.7157
626.0,0.7263
627.0,0.7341
628.0,0.6815
629.0,0.7153
630.0,0.6987
631.0,0.7158
632.0,0.7075
633.0,0.7296
634.0,0.723
635.0,0.7344
636.0,0.725
637.0,0.737
638.0,0.7444
639.0,0.7362
640.0,0.7293
641.0,0.729
642.0,0.7258
643.0,0.7356
644.0,0.7334
645.0,0.7345
646.0,0.7169
647.0,0.7073
648.0,0.7078
649.0,0.6941
650.0,0.6988
651.0,0.7294
652.0,0.6975
653.0,0.7198
654.0,0.7119
655.0,0.6846
656.0,0.6073
657.0,0.6237
658.0,0.6994
659.0,0.7047
660.0,0.7077
661.0,0.7127
662.0,0.7139
663.0,0.6999
664.0,0.7086
665.0,0.7094
666.0,0.7101
667.0,0.7096
668.0,0.7101
669.0,0.7212
670.0,0.7181
671.0,0.718
672.0,0.712
673.0,0.7227
674.0,0.7201
675.0,0.7136
676.0,0.7186
677.0,0.7115
678.0,0.7136
679.0,0.7021
680.0,0.7078
681.0,0.7031
682.0,0.7022
683.0,0.7009
684.0,0.6974
685.0,0.7034
686.0,0.6992
687.0,0.4467
688.0,0.5317
689.0,0.5339
690.0,0.5628
691.0,0.5955
692.0,0.6198
693.0,0.6145
694.0,0.6094
695.0,0.6368
696.0,0.6378
697.0,0.6795
698.0,0.6688
699.0,0.6511
700.0,0.6432
701.0,0.636
702.0,0.6411
703.0,0.6424
704.0,0.664
705.0,0.665
706.0,0.6648
707.0,0.6655
708.0,0.6668
709.0,0.6685
710.0,0.6681
711.0,0.6674
712.0,0.6657
713.0,0.6587
714.0,0.6613
715.0,0.6397
716.0,0.6399
717.0,0.5486
718.0,0.503
719.0,0.4602
720.0,0.4815
721.0,0.5354
722.0,0.6167
723.0,0.5719
724.0,0.5128
725.0,0.5037
726.0,0.5276
727.0,0.5367
728.0,0.5021
729.0,0.5232
730.0,0.5535
731.0,0.5289
732.0,0.5682
733.0,0.6037
734.0,0.6187
735.0,0.6056
736.0,0.6048
737.0,0.6072
738.0,0.6181
739.0,0.6059
740.0,0.6222
741.0,0.6163
742.0,0.6172
743.0,0.633
744.0,0.6314
745.0,0.6317
746.0,0.6345
747.0,0.636
748.0,0.6347
749.0,0.6274
750.0,0.6271
751.0,0.6207
752.0,0.6234
753.0,0.6266
754.0,0.628
755.0,0.6244
756.0,0.6242
757.0,0.6251
758.0,0.6173
759.0,0.6038
760.0,0.08422
761.0,0.04141
762.0,0.2895
763.0,0.1344
764.0,0.2109
765.0,0.2894
766.0,0.3644
767.0,0.4693
768.0,0.5493
769.0,0.5627
770.0,0.5838
771.0,0.5894
772.0,0.5909
773.0,0.5951
774.0,0.5923
775.0,0.5879
776.0,0.595
777.0,0.5872
778.0,0.5836
779.0,0.5841
780.0,0.5809
781.0,0.5815
782.0,0.5851
783.0,0.575
784.0,0.5778
785.0,0.5734
786.0,0.5797
787.0,0.5688
788.0,0.5613
789.0,0.561
790.0,0.5449
791.0,0.5508
792.0,0.5469
793.0,0.5379
794.0,0.5483
795.0,0.5572
796.0,0.5385
797.0,0.5391
798.0,0.5564
799.0,0.5525
800.0,0.5426
801.0,0.5405
802.0,0.539
803.0,0.5347
804.0,0.5356
805.0,0.5344
806.0,0.5501
807.0,0.5433
808.0,0.5439
809.0,0.5331
810.0,0.5283
811.0,0.5282
812.0,0.512
813.0,0.5008
814.0,0.4371
815.0,0.4346
816.0,0.4041
817.0,0.4118
818.0,0.3956
819.0,0.4453
820.0,0.4182
821.0,0.4931
822.0,0.4783
823.0,0.3187
824.0,0.4628
825.0,0.4844
826.0,0.4647
827.0,0.4918
828.0,0.413
829.0,0.4622
830.0,0.4557
831.0,0.4574
832.0,0.4427
833.0,0.4729
834.0,0.4549
835.0,0.5026
836.0,0.4792
837.0,0.5041
838.0,0.4875
839.0,0.4967
840.0,0.5078
841.0,0.5002
842.0,0.5019
843.0,0.5023
844.0,0.4949
845.0,0.5121
846.0,0.51
847.0,0.5007
848.0,0.4973
849.0,0.4832
850.0,0.4629
851.0,0.4898
852.0,0.4865
853.0,0.4686
854.0,0.4044
855.0,0.4446
856.0,0.4857
857.0,0.4967
858.0,0.493
859.0,0.4936
860.0,0.4945
861.0,0.4918
862.0,0.4996
863.0,0.5114
864.0,0.4858
865.0,0.4816
866.0,0.433
867.0,0.4519
868.0,0.4918
869.0,0.4816
870.0,0.4953
871.0,0.4886
872.0,0.4869
873.0,0.4859
874.0,0.4801
875.0,0.4704
876.0,0.4753
877.0,0.4801
878.0,0.4852
879.0,0.4778
880.0,0.4676
881.0,0.4604
882.0,0.4703
883.0,0.4719
884.0,0.4697
885.0,0.4732
886.0,0.4504
887.0,0.4557
888.0,0.4621
889.0,0.4679
890.0,0.4633
891.0,0.4629
892.0,0.4487
893.0,0.4337
894.0,0.4166
895.0,0.3914
896.0,0.3679
897.0,0.313
898.0,0.3432
899.0,0.2576
900.0,0.3533
901.0,0.27
902.0,0.3216
903.0,0.3232
904.0,0.4135
905.0,0.3983
906.0,0.372
907.0,0.2977
908.0,0.3043
909.0,0.3317
910.0,0.2895
911.0,0.3111
912.0,0.3259
913.0,0.2936
914.0,0.2919
915.0,0.3165
916.0,0.267
917.0,0.3429
918.0,0.2735
919.0,0.3502
920.0,0.3561
921.0,0.3706
922.0,0.3285
923.0,0.3582
924.0,0.3363
925.0,0.329
926.0,0.3323
927.0,0.3749
928.0,0.2669
929.0,0.2415
930.0,0.1862
931.0,0.1769
932.0,0.1237
933.0,0.09865
934.0,0.05022
935.0,0.1025
936.0,0.0615
937.0,0.06208
938.0,0.07731
939.0,0.1713
940.0,0.2087
941.0,0.154
942.0,0.1804
943.0,0.1159
944.0,0.1247
945.0,0.1595
946.0,0.0774
947.0,0.1592
948.0,0.1165
949.0,0.2168
950.0,0.05467
951.0,0.2142
952.0,0.1101
953.0,0.1455
954.0,0.1821
955.0,0.1476
956.0,0.1457
957.0,0.1099
958.0,0.2113
959.0,0.1637
960.0,0.1835
961.0,0.2093
962.0,0.1976
963.0,0.2307
964.0,0.2104
965.0,0.23
966.0,0.2294
967.0,0.2281
968.0,0.3163
969.0,0.3293
970.0,0.3012
971.0,0.3493
972.0,0.3332
973.0,0.2855
974.0,0.2704
975.0,0.2824
976.0,0.2657
977.0,0.3073
978.0,0.2899
979.0,0.305
980.0,0.2859
981.0,0.3474
982.0,0.3305
983.0,0.3163
984.0,0.36
985.0,0.3293
986.0,0.3675
987.0,0.3589
988.0,0.3583
989.0,0.3671
990.0,0.3561
991.0,0.3681
992.0,0.3703
993.0,0.3607
994.0,0.3704
995.0,0.3701
996.0,0.3683
997.0,0.3689
998.0,0.3671
999.0,0.3658
1000.0,0.3629
1001.0,0.3678
1002.0,0.3563
1003.0,0.3612
1004.0,0.352
1005.0,0.3396
1006.0,0.3526
1007.0,0.3602
1008.0,0.358
1009.0,0.3559
1010.0,0.3542
1011.0,0.3584
1012.0,0.3551
1013.0,0.3576
1014.0,0.3551
1015.0,0.3528
1016.0,0.3511
1017.0,0.352
1018.0,0.3508
1019.0,0.3428
1020.0,0.3489
1021.0,0.3485
1022.0,0.3456
1023.0,0.3492
1024.0,0.3442
1025.0,0.3492
1026.0,0.3475
1027.0,0.3468
1028.0,0.346
1029.0,0.3419
1030.0,0.3444
1031.0,0.3429
1032.0,0.342
1033.0,0.3368
1034.0,0.3369
1035.0,0.3379
1036.0,0.3396
1037.0,0.3341
1038.0,0.3356
1039.0,0.3353
1040.0,0.334
1041.0,0.3353
1042.0,0.3329
1043.0,0.3318
1044.0,0.333
1045.0,0.3284
1046.0,0.3248
1047.0,0.3277
1048.0,0.3294
1049.0,0.3282
1050.0,0.3266
1051.0,0.3261
1052.0,0.3247
1053.0,0.3221
1054.0,0.3227
1055.0,0.3228
1056.0,0.3216
1057.0,0.3205
1058.0,0.3126
1059.0,0.3128
1060.0,0.3123
1061.0,0.3119
1062.0,0.3135
1063.0,0.3103
1064.0,0.314
1065.0,0.3115
1066.0,0.3055
1067.0,0.3094
1068.0,0.3025
1069.0,0.2933
1070.0,0.3031
1071.0,0.3083
1072.0,0.3044
1073.0,0.3001
1074.0,0.3083
1075.0,0.2915
1076.0,0.308
1077.0,0.3017
1078.0,0.2957
1079.0,0.3033
1080.0,0.2971
1081.0,0.2869
1082.0,0.2927
1083.0,0.2939
1084.0,0.2858
1085.0,0.2979
1086.0,0.2698
1087.0,0.2799
1088.0,0.2933
1089.0,0.283
1090.0,0.276
1091.0,0.292
1092.0,0.2915
1093.0,0.2434
1094.0,0.2663
1095.0,0.254
1096.0,0.2421
1097.0,0.2848
1098.0,0.2379
1099.0,0.2487
1100.0,0.2296
1101.0,0.233
1102.0,0.2215
1103.0,0.2186
1104.0,0.219
1105.0,0.2427
1106.0,0.1794
1107.0,0.2293
1108.0,0.1906
1109.0,0.1917
1110.0,0.2267
1111.0,0.1488
1112.0,0.1905
1113.0,0.1162
1114.0,0.1303
1115.0,0.1078
1116.0,0.0831
1117.0,0.02747
1118.0,0.09138
1119.0,0.04278
1120.0,0.05361
1121.0,0.07268
1122.0,0.02841
1123.0,0.04856
1124.0,0.04095
1125.0,0.05406
1126.0,0.0167
1127.0,0.06118
1128.0,0.03425
1129.0,0.03665
1130.0,0.02333
1131.0,0.1219
1132.0,0.09451
1133.0,0.05672
1134.0,0.01283
1135.0,0.004912
1136.0,0.0462
1137.0,0.1186
1138.0,0.08297
1139.0,0.1301
1140.0,0.1063
1141.0,0.0789
1142.0,0.09202
1143.0,0.1333
1144.0,0.04358
1145.0,0.05476
1146.0,0.05902
1147.0,0.01859
1148.0,0.1152
1149.0,0.09013
1150.0,0.04726
1151.0,0.0823
1152.0,0.1035
1153.0,0.1026
1154.0,0.05285
1155.0,0.1356
1156.0,0.1208
1157.0,0.1377
1158.0,0.1362
1159.0,0.1484
1160.0,0.1253
1161.0,0.1577
1162.0,0.1582
1163.0,0.2193
1164.0,0.1861
1165.0,0.1736
1166.0,0.1739
1167.0,0.1903
1168.0,0.192
1169.0,0.1972
1170.0,0.2159
1171.0,0.2104
1172.0,0.2152
1173.0,0.2155
1174.0,0.15
1175.0,0.2113
1176.0,0.2343
1177.0,0.2235
1178.0,0.165
1179.0,0.2362
1180.0,0.2087
1181.0,0.2155
1182.0,0.1456
1183.0,0.2127
1184.0,0.1983
1185.0,0.1904
1186.0,0.2288
1187.0,0.217
1188.0,0.1477
1189.0,0.2019
1190.0,0.2237
1191.0,0.2107
1192.0,0.227
1193.0,0.2169
1194.0,0.224
1195.0,0.2107
1196.0,0.2022
1197.0,0.2247
1198.0,0.2048
1199.0,0.1717
1200.0,0.2141
1201.0,0.2056
1202.0,0.2051
1203.0,0.2031
1204.0,0.1764
1205.0,0.2106
1206.0,0.2339
1207.0,0.2042
1208.0,0.2018
1209.0,0.2061
1210.0,0.2152
1211.0,0.2041
1212.0,0.2005
1213.0,0.2256
1214.0,0.2058
1215.0,0.2017
1216.0,0.225
1217.0,0.2186
1218.0,0.2231
1219.0,0.2201
1220.0,0.2234
1221.0,0.2258
1222.0,0.2198
1223.0,0.2175
1224.0,0.2158
1225.0,0.2244
1226.0,0.2262
1227.0,0.2075
1228.0,0.2276
1229.0,0.2262
1230.0,0.2221
1231.0,0.2292
1232.0,0.2278
1233.0,0.219
1234.0,0.2292
1235.0,0.2276
1236.0,0.2294
1237.0,0.2258
1238.0,0.2286
1239.0,0.2257
1240.0,0.2266
1241.0,0.2253
1242.0,0.225
1243.0,0.2232
1244.0,0.2247
1245.0,0.2257
1246.0,0.2244
1247.0,0.2235
1248.0,0.2232
1249.0,0.224
1250.0,0.2226
1251.0,0.2196
1252.0,0.2198
1253.0,0.2177
1254.0,0.2152
1255.0,0.2195
1256.0,0.2127
1257.0,0.2114
1258.0,0.2158
1259.0,0.207
1260.0,0.2082
1261.0,0.1953
1262.0,0.1888
1263.0,0.1891
1264.0,0.1731
1265.0,0.1879
1266.0,0.18
1267.0,0.1837
1268.0,0.1733
1269.0,0.1012
1270.0,0.1828
1271.0,0.1948
1272.0,0.1956
1273.0,0.1934
1274.0,0.1942
1275.0,0.1972
1276.0,0.1994
1277.0,0.201
1278.0,0.2054
1279.0,0.2035
1280.0,0.2009
1281.0,0.192
1282.0,0.1853
1283.0,0.1995
1284.0,0.2042
1285.0,0.2056
1286.0,0.2086
1287.0,0.205
1288.0,0.2051
1289.0,0.1978
1290.0,0.2033
1291.0,0.2063
1292.0,0.1924
1293.0,0.202
1294.0,0.2005
1295.0,0.1991
1296.0,0.1892
1297.0,0.1782
1298.0,0.1933
1299.0,0.2023
1300.0,0.1688
1301.0,0.1745
1302.0,0.1927
1303.0,0.1669
1304.0,0.1401
1305.0,0.1886
1306.0,0.1884
1307.0,0.1439
1308.0,0.1676
1309.0,0.1867
1310.0,0.141
1311.0,0.1601
1312.0,0.1554
1313.0,0.152
1314.0,0.1352
1315.0,0.1329
1316.0,0.1571
1317.0,0.1486
1318.0,0.1625
1319.0,0.1241
1320.0,0.1209
1321.0,0.1418
1322.0,0.1427
1323.0,0.105
1324.0,0.1219
1325.0,0.1547
1326.0,0.1313
1327.0,0.1248
1328.0,0.1068
1329.0,0.07812
1330.0,0.1028
1331.0,0.05953
1332.0,0.0623
1333.0,0.08727
1334.0,0.07526
1335.0,0.1046
1336.0,0.08135
1337.0,0.0713
1338.0,0.07713
1339.0,0.07715
1340.0,0.07575
1341.0,0.07232
1342.0,0.07612
1343.0,0.0484
1344.0,0.02922
1345.0,0.04221
1346.0,0.01907
1347.0,0.01906
1348.0,0.0009998
1349.0,0.003809
1350.0,0.004126
1351.0,0.0008266
1352.0,0.000179
1353.0,7.367e-06
1354.0,2.946e-05
1355.0,1.496e-07
1356.0,3.553e-06
1357.0,5.434e-06
1358.0,1.805e-07
1359.0,1.595e-08
1360.0,7.282e-08
1361.0,3.895e-11
1362.0,7.939e-14
1363.0,8.705e-08
1364.0,3.596e-08
1365.0,1.856e-14
1366.0,4.179e-07
1367.0,1.853e-07
1368.0,6.682e-17
1369.0,1.326e-08
1370.0,5.628e-09
1371.0,2.688e-10
1372.0,1.025e-07
1373.0,2.616e-06
1374.0,1.432e-05
1375.0,2.558e-05
1376.0,2.677e-05
1377.0,1.185e-05
1378.0,0.0001235
1379.0,4.972e-06
1380.0,6.442e-06
1381.0,1.544e-07
1382.0,8.846e-08
1383.0,1.177e-09
1384.0,1.408e-08
1385.0,9.969e-08
1386.0,7.078e-08
1387.0,1.331e-05
1388.0,2.683e-07
1389.0,5.461e-05
1390.0,4.664e-05
1391.0,3.024e-05
1392.0,1.884e-06
1393.0,1.09e-05
1394.0,4.278e-06
1395.0,2.65e-08
1396.0,6.212e-11
1397.0,4.071e-06
1398.0,0.0001358
1399.0,8.681e-05
1400.0,2.199e-11
1401.0,1.2e-10
1402.0,0.0003071
1403.0,0.0003684
1404.0,0.0001099
1405.0,1.134e-08
1406.0,0.0002641
1407.0,2.506e-05
1408.0,0.0002193
1409.0,6.434e-05
1410.0,5.689e-05
1411.0,0.0003271
1412.0,0.0004709
1413.0,0.005845
1414.0,4.572e-05
1415.0,2.064e-05
1416.0,0.01091
1417.0,0.002895
1418.0,0.003199
1419.0,0.0004808
1420.0,0.001945
1421.0,0.002129
1422.0,0.01432
1423.0,0.002676
1424.0,0.005137
1425.0,0.007338
1426.0,0.008845
1427.0,0.01742
1428.0,0.0009204
1429.0,0.01243
1430.0,0.02274
1431.0,0.02538
1432.0,0.0007173
1433.0,0.01561
1434.0,0.007676
1435.0,0.006791
1436.0,0.01445
1437.0,0.01111
1438.0,0.004325
