interpolation:linear
wavelength,value
280.0,2.815e-22
280.5,9.258e-21
281.0,4.9630000000000007e-20
281.5,4.035e-19
282.0,6.626e-19
282.5,1.644e-18
283.0,5.2e-18
283.5,8.467e-18
284.0,1.395e-16
284.5,4.068e-16
285.0,6.702e-16
285.5,3.348e-15
286.0,1.35e-14
286.5,6.083e-14
287.0,1.746e-13
287.5,6.734e-13
288.0,2.331e-12
288.5,7.019e-12
289.0,1.864e-11
289.5,5.616e-11
290.0,1.557e-10
290.5,3.173e-10
291.0,6.809e-10
291.5,1.955e-09
292.0,3.943e-09
292.5,5.544e-09
293.0,1.192e-08
293.5,2.91e-08
294.0,4.559e-08
294.5,6.248e-08
295.0,1.06e-07
295.5,1.784e-07
296.0,3.474e-07
296.5,4.911e-07
297.0,6.708e-07
297.5,1.83e-06
298.0,2.932e-06
298.5,2.992e-06
299.0,6.698e-06
299.5,1.147e-05
300.0,1.286e-05
300.5,1.903e-05
301.0,3.575e-05
301.5,5.909e-05
302.0,5.151e-05
302.5,0.0001039
303.0,0.0001956
303.5,0.0002556
304.0,0.000249
304.5,0.000409
305.0,0.0007123
305.5,0.0008924
306.0,0.0008946
306.5,0.001182
307.0,0.002002
307.5,0.003033
308.0,0.003273
308.5,0.004127
309.0,0.004194
309.5,0.005306
310.0,0.005582
310.5,0.009248
311.0,0.01205
311.5,0.01182
312.0,0.01281
312.5,0.01643
313.0,0.01832
313.5,0.01734
314.0,0.02309
314.5,0.02225
315.0,0.02967
315.5,0.02385
316.0,0.02227
316.5,0.03388
317.0,0.04202
317.5,0.04303
318.0,0.03491
318.5,0.04672
319.0,0.05757
319.5,0.04418
320.0,0.0529
320.5,0.07145
321.0,0.06811
321.5,0.06576
322.0,0.06516
322.5,0.05691
323.0,0.05945
323.5,0.0764
324.0,0.08988
324.5,0.08951
325.0,0.07547
325.5,0.1009
326.0,0.1248
326.5,0.1281
327.0,0.1266
327.5,0.1209
328.0,0.1042
328.5,0.114
329.0,0.1409
329.5,0.1615
330.0,0.1617
330.5,0.1263
331.0,0.1277
331.5,0.1322
332.0,0.1467
332.5,0.1469
333.0,0.1455
333.5,0.1292
334.0,0.132
334.5,0.1558
335.0,0.1483
335.5,0.1738
336.0,0.1203
336.5,0.1397
337.0,0.1136
337.5,0.1408
338.0,0.1401
338.5,0.1626
339.0,0.1611
339.5,0.155
340.0,0.1814
340.5,0.1639
341.0,0.1604
341.5,0.1477
342.0,0.1766
342.5,0.1655
343.0,0.1818
343.5,0.1711
344.0,0.1261
344.5,0.1277
345.0,0.1695
345.5,0.1733
346.0,0.1475
346.5,0.1672
347.0,0.1794
347.5,0.1451
348.0,0.1657
348.5,0.1658
349.0,0.154
349.5,0.1526
350.0,0.1889
350.5,0.1993
351.0,0.178
351.5,0.1728
352.0,0.1859
352.5,0.1453
353.0,0.1833
353.5,0.1962
354.0,0.2038
354.5,0.2068
355.0,0.2061
355.5,0.1864
356.0,0.1952
356.5,0.1668
357.0,0.1378
357.5,0.1688
358.0,0.1339
358.5,0.1145
359.0,0.1601
359.5,0.2041
360.0,0.2165
360.5,0.1731
361.0,0.158
361.5,0.1821
362.0,0.1577
362.5,0.2185
363.0,0.1965
363.5,0.1811
364.0,0.2217
364.5,0.1896
365.0,0.1933
365.5,0.2427
366.0,0.2574
366.5,0.2421
367.0,0.2359
367.5,0.245
368.0,0.2145
368.5,0.2166
369.0,0.2341
369.5,0.2497
370.0,0.2664
370.5,0.207
371.0,0.2213
371.5,0.277
372.0,0.184
372.5,0.2207
373.0,0.2247
373.5,0.1463
374.0,0.2128
374.5,0.1764
375.0,0.1716
375.5,0.2562
376.0,0.2125
376.5,0.2204
377.0,0.2335
377.5,0.2734
378.0,0.2965
378.5,0.2804
379.0,0.2315
379.5,0.2115
380.0,0.22
380.5,0.2667
381.0,0.2675
381.5,0.2123
382.0,0.1887
382.5,0.1611
383.0,0.1492
383.5,0.1439
384.0,0.1588
384.5,0.2338
385.0,0.232
385.5,0.2162
386.0,0.1853
386.5,0.2437
387.0,0.2026
387.5,0.2277
388.0,0.2104
388.5,0.2081
389.0,0.2248
389.5,0.2725
390.0,0.2737
390.5,0.252
391.0,0.2969
391.5,0.303
392.0,0.2553
392.5,0.2288
393.0,0.1274
393.5,0.09269
394.0,0.1887
394.5,0.2402
395.0,0.2932
395.5,0.298
396.0,0.2585
396.5,0.1513
397.0,0.1136
397.5,0.2312
398.0,0.3239
398.5,0.335
399.0,0.3632
399.5,0.3622
400.0,0.3762
401.0,0.3795
402.0,0.401
403.0,0.3815
404.0,0.3761
405.0,0.3765
406.0,0.3709
407.0,0.3655
408.0,0.38
409.0,0.4072
410.0,0.3563
411.0,0.3864
412.0,0.4158
413.0,0.4057
414.0,0.4113
415.0,0.413
416.0,0.4208
417.0,0.4108
418.0,0.4037
419.0,0.4095
420.0,0.408
421.0,0.4274
422.0,0.4066
423.0,0.3976
424.0,0.4208
425.0,0.4205
426.0,0.4103
427.0,0.403
428.0,0.3929
429.0,0.3728
430.0,0.3266
431.0,0.3238
432.0,0.4187
433.0,0.4214
434.0,0.3915
435.0,0.4091
436.0,0.4617
437.0,0.4562
438.0,0.4158
439.0,0.4297
440.0,0.4439
441.0,0.4605
442.0,0.4943
443.0,0.4813
444.0,0.4924
445.0,0.4818
446.0,0.4607
447.0,0.4989
448.0,0.5064
449.0,0.5093
450.0,0.5241
451.0,0.5439
452.0,0.5244
453.0,0.4937
454.0,0.5161
455.0,0.5194
456.0,0.5321
457.0,0.5411
458.0,0.5223
459.0,0.5199
460.0,0.5212
461.0,0.5334
462.0,0.5382
463.0,0.5345
464.0,0.5266
465.0,0.5209
466.0,0.5266
467.0,0.5168
468.0,0.523
469.0,0.5258
470.0,0.509
471.0,0.5086
472.0,0.5359
473.0,0.529
474.0,0.5293
475.0,0.5333
476.0,0.5166
477.0,0.5175
478.0,0.5321
479.0,0.5294
480.0,0.5309
481.0,0.5415
482.0,0.5451
483.0,0.5394
484.0,0.5289
485.0,0.5045
486.0,0.4416
487.0,0.4634
488.0,0.5084
489.0,0.5098
490.0,0.5367
491.0,0.5278
492.0,0.4986
493.0,0.515
494.0,0.5203
495.0,0.5249
496.0,0.5281
497.0,0.5363
498.0,0.5111
499.0,0.5174
500.0,0.5018
501.0,0.4921
502.0,0.4842
503.0,0.5029
504.0,0.4871
505.0,0.507
506.0,0.5233
507.0,0.4981
508.0,0.4836
509.0,0.4979
510.0,0.4959
511.0,0.5098
512.0,0.5157
513.0,0.4882
514.0,0.4851
515.0,0.4803
516.0,0.479
517.0,0.4258
518.0,0.4476
519.0,0.4695
520.0,0.4864
521.0,0.4909
522.0,0.4911
523.0,0.4821
524.0,0.4988
525.0,0.5039
526.0,0.4811
527.0,0.4527
528.0,0.4783
529.0,0.5037
530.0,0.4962
531.0,0.5032
532.0,0.4858
533.0,0.4716
534.0,0.4858
535.0,0.4968
536.0,0.5017
537.0,0.4822
538.0,0.4909
539.0,0.4868
540.0,0.4665
541.0,0.4687
542.0,0.4829
543.0,0.4785
544.0,0.4861
545.0,0.4847
546.0,0.4862
547.0,0.4866
548.0,0.4811
549.0,0.4828
550.0,0.4886
551.0,0.4828
552.0,0.4861
553.0,0.4773
554.0,0.4887
555.0,0.4894
556.0,0.4829
557.0,0.4676
558.0,0.4636
559.0,0.4545
560.0,0.4598
561.0,0.4653
562.0,0.4614
563.0,0.4733
564.0,0.4599
565.0,0.4555
566.0,0.4483
567.0,0.4562
568.0,0.4506
569.0,0.4369
570.0,0.4371
571.0,0.4353
572.0,0.4437
573.0,0.4481
574.0,0.4462
575.0,0.4371
576.0,0.4332
577.0,0.4382
578.0,0.4325
579.0,0.4356
580.0,0.4462
581.0,0.4501
582.0,0.4602
583.0,0.4625
584.0,0.4674
585.0,0.4564
586.0,0.4471
587.0,0.456
588.0,0.4411
589.0,0.3836
590.0,0.4017
591.0,0.4294
592.0,0.4215
593.0,0.431
594.0,0.4267
595.0,0.4134
596.0,0.4357
597.0,0.4294
598.0,0.4301
599.0,0.4313
600.0,0.4335
601.0,0.4311
602.0,0.4283
603.0,0.436
604.0,0.4436
605.0,0.4416
606.0,0.4405
607.0,0.4456
608.0,0.4413
609.0,0.4426
610.0,0.4402
611.0,0.4428
612.0,0.442
613.0,0.4367
614.0,0.4314
615.0,0.4413
616.0,0.4272
617.0,0.4267
618.0,0.4435
619.0,0.4392
620.0,0.442
621.0,0.4419
622.0,0.4363
623.0,0.4292
624.0,0.4223
625.0,0.4214
626.0,0.4274
627.0,0.4308
628.0,0.3854
629.0,0.4147
630.0,0.4045
631.0,0.4194
632.0,0.4155
633.0,0.4306
634.0,0.4283
635.0,0.4359
636.0,0.4313
637.0,0.4392
638.0,0.4447
639.0,0.4404
640.0,0.437
641.0,0.4373
642.0,0.4361
643.0,0.442
644.0,0.4413
645.0,0.4416
646.0,0.4293
647.0,0.4195
648.0,0.42
649.0,0.4113
650.0,0.4193
651.0,0.4386
652.0,0.4143
653.0,0.4331
654.0,0.4288
655.0,0.4098
656.0,0.3653
657.0,0.3755
658.0,0.4228
659.0,0.4266
660.0,0.4288
661.0,0.4321
662.0,0.4318
663.0,0.4237
664.0,0.4305
665.0,0.4321
666.0,0.433
667.0,0.4333
668.0,0.4342
669.0,0.4413
670.0,0.4397
671.0,0.44
672.0,0.4365
673.0,0.4433
674.0,0.442
675.0,0.4382
676.0,0.4415
677.0,0.4374
678.0,0.4389
679.0,0.432
680.0,0.4356
681.0,0.4328
682.0,0.4323
683.0,0.4315
684.0,0.4294
685.0,0.4333
686.0,0.4304
687.0,0.2162
688.0,0.2834
689.0,0.2855
690.0,0.3105
691.0,0.3399
692.0,0.3631
693.0,0.3595
694.0,0.3579
695.0,0.3817
696.0,0.3828
697.0,0.4165
698.0,0.4098
699.0,0.3929
700.0,0.3878
701.0,0.3811
702.0,0.3866
703.0,0.3879
704.0,0.4046
705.0,0.4052
706.0,0.4064
707.0,0.4075
708.0,0.4081
709.0,0.4116
710.0,0.4101
711.0,0.4106
712.0,0.4107
713.0,0.4053
714.0,0.4072
715.0,0.3914
716.0,0.3909
717.0,0.3134
718.0,0.2856
719.0,0.2596
720.0,0.2693
721.0,0.3119
722.0,0.3727
723.0,0.3391
724.0,0.2959
725.0,0.288
726.0,0.3023
727.0,0.3131
728.0,0.2861
729.0,0.3057
730.0,0.3216
731.0,0.306
732.0,0.3368
733.0,0.3651
734.0,0.3766
735.0,0.3673
736.0,0.3665
737.0,0.368
738.0,0.3806
739.0,0.3732
740.0,0.385
741.0,0.3823
742.0,0.384
743.0,0.3942
744.0,0.3938
745.0,0.3946
746.0,0.3964
747.0,0.3974
748.0,0.3967
749.0,0.3922
750.0,0.3921
751.0,0.3881
752.0,0.3899
753.0,0.392
754.0,0.3928
755.0,0.3906
756.0,0.3905
757.0,0.391
758.0,0.386
759.0,0.3738
760.0,0.01902
761.0,0.0068
762.0,0.1226
763.0,0.03808
764.0,0.07522
765.0,0.1224
766.0,0.1778
767.0,0.2574
768.0,0.3272
769.0,0.3413
770.0,0.3613
771.0,0.3679
772.0,0.3699
773.0,0.3728
774.0,0.3713
775.0,0.3686
776.0,0.3732
777.0,0.3683
778.0,0.3661
779.0,0.3664
780.0,0.3644
781.0,0.3648
782.0,0.3672
783.0,0.3609
784.0,0.3628
785.0,0.3598
786.0,0.3635
787.0,0.3538
788.0,0.3478
789.0,0.3475
790.0,0.3338
791.0,0.3412
792.0,0.3394
793.0,0.3334
794.0,0.3437
795.0,0.3482
796.0,0.3312
797.0,0.3311
798.0,0.3471
799.0,0.3437
800.0,0.3362
801.0,0.3337
802.0,0.3326
803.0,0.3293
804.0,0.3305
805.0,0.3313
806.0,0.3438
807.0,0.339
808.0,0.3395
809.0,0.3307
810.0,0.3265
811.0,0.3236
812.0,0.31
813.0,0.3017
814.0,0.2535
815.0,0.2528
816.0,0.2338
817.0,0.2388
818.0,0.2271
819.0,0.2641
820.0,0.2451
821.0,0.3017
822.0,0.2906
823.0,0.1751
824.0,0.2764
825.0,0.2965
826.0,0.2802
827.0,0.3008
828.0,0.2406
829.0,0.2796
830.0,0.2748
831.0,0.2758
832.0,0.2647
833.0,0.2883
834.0,0.2736
835.0,0.3112
836.0,0.2907
837.0,0.3123
838.0,0.2989
839.0,0.3082
840.0,0.3159
841.0,0.3098
842.0,0.3129
843.0,0.3153
844.0,0.3096
845.0,0.3218
846.0,0.3209
847.0,0.3156
848.0,0.3126
849.0,0.3037
850.0,0.2911
851.0,0.307
852.0,0.3054
853.0,0.2949
854.0,0.2538
855.0,0.28
856.0,0.3055
857.0,0.3131
858.0,0.3104
859.0,0.3112
860.0,0.3121
861.0,0.3103
862.0,0.3154
863.0,0.3228
864.0,0.3068
865.0,0.3042
866.0,0.2735
867.0,0.2855
868.0,0.3107
869.0,0.3043
870.0,0.313
871.0,0.3087
872.0,0.3077
873.0,0.3071
874.0,0.3034
875.0,0.2973
876.0,0.3003
877.0,0.3034
878.0,0.3065
879.0,0.3018
880.0,0.2954
881.0,0.2904
882.0,0.2964
883.0,0.298
884.0,0.2964
885.0,0.2986
886.0,0.2825
887.0,0.2871
888.0,0.2905
889.0,0.2955
890.0,0.2908
891.0,0.2914
892.0,0.2802
893.0,0.2688
894.0,0.2534
895.0,0.2321
896.0,0.2168
897.0,0.1779
898.0,0.1982
899.0,0.1415
900.0,0.2083
901.0,0.1483
902.0,0.1863
903.0,0.1837
904.0,0.2513
905.0,0.2401
906.0,0.2224
907.0,0.1671
908.0,0.1731
909.0,0.1928
910.0,0.1604
911.0,0.1786
912.0,0.1873
913.0,0.1622
914.0,0.163
915.0,0.1758
916.0,0.1474
917.0,0.197
918.0,0.1503
919.0,0.2041
920.0,0.2137
921.0,0.2218
922.0,0.1909
923.0,0.2151
924.0,0.1936
925.0,0.1899
926.0,0.1907
927.0,0.2208
928.0,0.1409
929.0,0.1232
930.0,0.08837
931.0,0.0839
932.0,0.05222
933.0,0.03903
934.0,0.01488
935.0,0.0426
936.0,0.02212
937.0,0.02224
938.0,0.02889
939.0,0.08107
940.0,0.1038
941.0,0.07049
942.0,0.08565
943.0,0.05047
944.0,0.0591
945.0,0.07441
946.0,0.03024
947.0,0.07263
948.0,0.05263
949.0,0.105
950.0,0.01904
951.0,0.1044
952.0,0.04656
953.0,0.06644
954.0,0.08877
955.0,0.06799
956.0,0.0734
957.0,0.04611
958.0,0.1122
959.0,0.07984
960.0,0.08951
961.0,0.1079
962.0,0.1017
963.0,0.1238
964.0,0.1116
965.0,0.1232
966.0,0.1224
967.0,0.1209
968.0,0.1884
969.0,0.1928
970.0,0.1747
971.0,0.2117
972.0,0.1999
973.0,0.1623
974.0,0.1531
975.0,0.1627
976.0,0.1479
977.0,0.1821
978.0,0.1672
979.0,0.1784
980.0,0.1661
981.0,0.2108
982.0,0.1971
983.0,0.1869
984.0,0.2226
985.0,0.1962
986.0,0.23
987.0,0.2216
988.0,0.2215
989.0,0.2316
990.0,0.22
991.0,0.2318
992.0,0.2336
993.0,0.2245
994.0,0.2339
995.0,0.2342
996.0,0.2326
997.0,0.2332
998.0,0.2319
999.0,0.2312
1000.0,0.2287
1001.0,0.2326
1002.0,0.2222
1003.0,0.2282
1004.0,0.2216
1005.0,0.2149
1006.0,0.2226
1007.0,0.2277
1008.0,0.2258
1009.0,0.2238
1010.0,0.2224
1011.0,0.2266
1012.0,0.2239
1013.0,0.2263
1014.0,0.2247
1015.0,0.2231
1016.0,0.222
1017.0,0.2224
1018.0,0.2221
1019.0,0.2158
1020.0,0.2207
1021.0,0.2206
1022.0,0.2184
1023.0,0.2206
1024.0,0.2162
1025.0,0.221
1026.0,0.2196
1027.0,0.2192
1028.0,0.2186
1029.0,0.2159
1030.0,0.2179
1031.0,0.2168
1032.0,0.2164
1033.0,0.2131
1034.0,0.2131
1035.0,0.2138
1036.0,0.2147
1037.0,0.2113
1038.0,0.2122
1039.0,0.212
1040.0,0.2111
1041.0,0.2118
1042.0,0.2103
1043.0,0.2095
1044.0,0.2102
1045.0,0.2072
1046.0,0.2048
1047.0,0.2066
1048.0,0.2076
1049.0,0.2067
1050.0,0.2056
1051.0,0.2052
1052.0,0.2042
1053.0,0.2024
1054.0,0.2026
1055.0,0.2025
1056.0,0.2015
1057.0,0.2007
1058.0,0.1956
1059.0,0.1955
1060.0,0.1951
1061.0,0.1947
1062.0,0.1955
1063.0,0.1934
1064.0,0.1957
1065.0,0.1938
1066.0,0.1904
1067.0,0.1927
1068.0,0.1881
1069.0,0.1826
1070.0,0.1884
1071.0,0.1927
1072.0,0.1894
1073.0,0.1869
1074.0,0.1933
1075.0,0.1797
1076.0,0.1929
1077.0,0.1873
1078.0,0.1827
1079.0,0.1905
1080.0,0.1845
1081.0,0.1766
1082.0,0.1827
1083.0,0.1842
1084.0,0.1754
1085.0,0.1852
1086.0,0.1639
1087.0,0.1725
1088.0,0.1834
1089.0,0.174
1090.0,0.1683
1091.0,0.1818
1092.0,0.182
1093.0,0.1446
1094.0,0.1653
1095.0,0.1512
1096.0,0.1421
1097.0,0.1779
1098.0,0.1384
1099.0,0.1458
1100.0,0.1319
1101.0,0.1348
1102.0,0.1261
1103.0,0.123
1104.0,0.1234
1105.0,0.1416
1106.0,0.09336
1107.0,0.1317
1108.0,0.1028
1109.0,0.1045
1110.0,0.1287
1111.0,0.07558
1112.0,0.1042
1113.0,0.05526
1114.0,0.06224
1115.0,0.05075
1116.0,0.03489
1117.0,0.008173
1118.0,0.03927
1119.0,0.01511
1120.0,0.01838
1121.0,0.0266
1122.0,0.007951
1123.0,0.01679
1124.0,0.01411
1125.0,0.01949
1126.0,0.003858
1127.0,0.02228
1128.0,0.009839
1129.0,0.01076
1130.0,0.006465
1131.0,0.05253
1132.0,0.03912
1133.0,0.01937
1134.0,0.002897
1135.0,0.001222
1136.0,0.01442
1137.0,0.04942
1138.0,0.03379
1139.0,0.06303
1140.0,0.04776
1141.0,0.03227
1142.0,0.03934
1143.0,0.0615
1144.0,0.01614
1145.0,0.01865
1146.0,0.02006
1147.0,0.004242
1148.0,0.05243
1149.0,0.0384
1150.0,0.01849
1151.0,0.03353
1152.0,0.04542
1153.0,0.04766
1154.0,0.0184
1155.0,0.06559
1156.0,0.05641
1157.0,0.0688
1158.0,0.06784
1159.0,0.07597
1160.0,0.06265
1161.0,0.0846
1162.0,0.08422
1163.0,0.1277
1164.0,0.1046
1165.0,0.09367
1166.0,0.09716
1167.0,0.1082
1168.0,0.1083
1169.0,0.1122
1170.0,0.1263
1171.0,0.123
1172.0,0.1281
1173.0,0.1261
1174.0,0.08038
1175.0,0.1258
1176.0,0.1443
1177.0,0.1343
1178.0,0.09352
1179.0,0.1455
1180.0,0.1234
1181.0,0.1276
1182.0,0.07965
1183.0,0.1269
1184.0,0.1161
1185.0,0.1094
1186.0,0.1385
1187.0,0.1291
1188.0,0.07945
1189.0,0.1199
1190.0,0.136
1191.0,0.1234
1192.0,0.1385
1193.0,0.1308
1194.0,0.1361
1195.0,0.1248
1196.0,0.1181
1197.0,0.1377
1198.0,0.1242
1199.0,0.09777
1200.0,0.129
1201.0,0.1215
1202.0,0.1233
1203.0,0.1207
1204.0,0.1023
1205.0,0.1283
1206.0,0.1456
1207.0,0.1218
1208.0,0.1223
1209.0,0.1252
1210.0,0.1323
1211.0,0.1232
1212.0,0.1172
1213.0,0.1387
1214.0,0.1217
1215.0,0.119
1216.0,0.1387
1217.0,0.1335
1218.0,0.1374
1219.0,0.1348
1220.0,0.1377
1221.0,0.14
1222.0,0.1358
1223.0,0.1338
1224.0,0.1314
1225.0,0.1389
1226.0,0.141
1227.0,0.1259
1228.0,0.1427
1229.0,0.141
1230.0,0.1379
1231.0,0.1445
1232.0,0.1436
1233.0,0.135
1234.0,0.1452
1235.0,0.1437
1236.0,0.1452
1237.0,0.1417
1238.0,0.1447
1239.0,0.1429
1240.0,0.1436
1241.0,0.142
1242.0,0.1425
1243.0,0.1414
1244.0,0.1421
1245.0,0.1429
1246.0,0.1421
1247.0,0.1413
1248.0,0.1407
1249.0,0.1416
1250.0,0.1404
1251.0,0.138
1252.0,0.1388
1253.0,0.1363
1254.0,0.134
1255.0,0.1383
1256.0,0.132
1257.0,0.1307
1258.0,0.1351
1259.0,0.1265
1260.0,0.1276
1261.0,0.1158
1262.0,0.11
1263.0,0.1101
1264.0,0.09637
1265.0,0.1095
1266.0,0.1022
1267.0,0.1062
1268.0,0.09726
1269.0,0.04183
1270.0,0.1049
1271.0,0.116
1272.0,0.1169
1273.0,0.1152
1274.0,0.1162
1275.0,0.1187
1276.0,0.1208
1277.0,0.1228
1278.0,0.127
1279.0,0.1257
1280.0,0.1243
1281.0,0.1194
1282.0,0.1165
1283.0,0.1252
1284.0,0.1279
1285.0,0.129
1286.0,0.1315
1287.0,0.1281
1288.0,0.1285
1289.0,0.1215
1290.0,0.1275
1291.0,0.1298
1292.0,0.1167
1293.0,0.1261
1294.0,0.125
1295.0,0.1226
1296.0,0.1139
1297.0,0.1056
1298.0,0.1185
1299.0,0.1267
1300.0,0.09927
1301.0,0.1037
1302.0,0.1183
1303.0,0.09875
1304.0,0.07713
1305.0,0.1155
1306.0,0.1147
1307.0,0.08143
1308.0,0.1002
1309.0,0.1126
1310.0,0.07922
1311.0,0.09434
1312.0,0.09081
1313.0,0.08731
1314.0,0.07558
1315.0,0.07304
1316.0,0.09146
1317.0,0.08562
1318.0,0.09614
1319.0,0.06672
1320.0,0.06627
1321.0,0.08019
1322.0,0.07939
1323.0,0.05307
1324.0,0.06579
1325.0,0.08923
1326.0,0.07241
1327.0,0.06785
1328.0,0.05616
1329.0,0.03653
1330.0,0.05055
1331.0,0.02471
1332.0,0.02714
1333.0,0.03885
1334.0,0.03681
1335.0,0.05228
1336.0,0.03791
1337.0,0.03265
1338.0,0.03493
1339.0,0.03555
1340.0,0.03633
1341.0,0.03132
1342.0,0.03345
1343.0,0.01649
1344.0,0.01047
1345.0,0.01466
1346.0,0.004502
1347.0,0.00414
1348.0,0.0001009
1349.0,0.000453
1350.0,0.0005491
1351.0,5.413e-05
1352.0,4.654e-06
1353.0,1.23e-07
1354.0,7.281e-07
1355.0,1.787e-09
1356.0,5.935e-08
1357.0,8.948e-08
1358.0,2.154e-09
1359.0,2.122e-10
1360.0,8.564e-10
1361.0,8.233e-13
1362.0,2.247e-15
1363.0,1.045e-09
1364.0,4.402e-10
1365.0,7.838e-16
1366.0,4.701e-09
1367.0,2.109e-09
1368.0,6.051e-18
1369.0,1.625e-10
1370.0,7.647e-11
1371.0,4.255e-12
1372.0,1.166e-09
1373.0,3.297e-08
1374.0,2.395e-07
1375.0,3.672e-07
1376.0,6.795e-07
1377.0,2.797e-07
1378.0,2.928e-06
1379.0,1.223e-07
1380.0,1.098e-07
1381.0,2.463e-09
1382.0,9.816e-10
1383.0,1.396e-11
1384.0,1.719e-10
1385.0,1.195e-09
1386.0,8.01e-10
1387.0,1.588e-07
1388.0,4.23e-09
1389.0,1.05e-06
1390.0,8.233e-07
1391.0,5.379e-07
1392.0,3.479e-08
1393.0,2.422e-07
1394.0,4.857e-08
1395.0,2.968e-10
1396.0,1.075e-12
1397.0,7.682e-08
1398.0,2.869e-06
1399.0,1.946e-06
1400.0,4.577e-13
1401.0,1.914e-12
1402.0,1.89e-05
1403.0,1.79e-05
1404.0,4.689e-06
1405.0,1.227e-10
1406.0,7.776e-06
1407.0,1.289e-06
1408.0,6.987e-06
1409.0,1.285e-06
1410.0,1.888e-06
1411.0,1.675e-05
1412.0,3.146e-05
1413.0,0.0006976
1414.0,1.662e-06
1415.0,6.173e-07
1416.0,0.002246
1417.0,0.0004161
1418.0,0.0003512
1419.0,4.871e-05
1420.0,0.000211
1421.0,0.0002864
1422.0,0.00293
1423.0,0.0005196
1424.0,0.001113
1425.0,0.001369
1426.0,0.002074
1427.0,0.004814
1428.0,8.372e-05
