interpolation:linear
wavelength,value
280.0,1.5059999999999999e-22
280.5,4.993e-21
281.0,2.6860000000000003e-20
281.5,3.966e-19
282.0,5.71e-19
282.5,1.406e-18
283.0,4.438e-18
283.5,7.23e-18
284.0,1.195e-16
284.5,3.497e-16
285.0,5.849e-16
285.5,2.894e-15
286.0,1.167e-14
286.5,5.255e-14
287.0,1.51e-13
287.5,5.836e-13
288.0,2.074e-12
288.5,6.129e-12
289.0,1.61e-11
289.5,4.82e-11
290.0,1.333e-10
290.5,2.713e-10
291.0,5.819e-10
291.5,1.67e-09
292.0,3.355e-09
292.5,4.699e-09
293.0,1.006e-08
293.5,2.443e-08
294.0,3.818e-08
294.5,5.16e-08
295.0,8.733e-08
295.5,1.446e-07
296.0,2.782e-07
296.5,3.878e-07
297.0,5.229e-07
297.5,1.396e-06
298.0,2.188e-06
298.5,2.191e-06
299.0,4.805e-06
299.5,7.897e-06
300.0,8.622e-06
300.5,1.238e-05
301.0,2.207e-05
301.5,3.457e-05
302.0,2.926e-05
302.5,5.842e-05
303.0,0.0001073
303.5,0.0001383
304.0,0.0001342
304.5,0.0002184
305.0,0.000376
305.5,0.0004677
306.0,0.0004674
306.5,0.0006145
307.0,0.00103
307.5,0.001543
308.0,0.001662
308.5,0.002084
309.0,0.002349
309.5,0.003085
310.0,0.003301
310.5,0.005516
311.0,0.007286
311.5,0.00719
312.0,0.008026
312.5,0.0105
313.0,0.01183
313.5,0.01109
314.0,0.01512
314.5,0.01503
315.0,0.02015
315.5,0.01595
316.0,0.01528
316.5,0.02376
317.0,0.02945
317.5,0.02996
318.0,0.02467
318.5,0.03397
319.0,0.04247
319.5,0.03183
320.0,0.03798
320.5,0.05281
321.0,0.0517
321.5,0.05004
322.0,0.04818
322.5,0.04213
323.0,0.04483
323.5,0.05901
324.0,0.06964
324.5,0.06876
325.0,0.05707
325.5,0.07744
326.0,0.09687
326.5,0.1005
327.0,0.0989
327.5,0.09395
328.0,0.0798
328.5,0.08883
329.0,0.1113
329.5,0.1282
330.0,0.1279
330.5,0.09882
331.0,0.09951
331.5,0.1038
332.0,0.1165
332.5,0.1173
333.0,0.1158
333.5,0.102
334.0,0.104
334.5,0.1239
335.0,0.1186
335.5,0.1394
336.0,0.09649
336.5,0.1114
337.0,0.0902
337.5,0.1117
338.0,0.112
338.5,0.1304
339.0,0.1293
339.5,0.1243
340.0,0.145
340.5,0.1311
341.0,0.1287
341.5,0.1186
342.0,0.1419
342.5,0.1329
343.0,0.146
343.5,0.1373
344.0,0.1009
344.5,0.1024
345.0,0.1361
345.5,0.1392
346.0,0.1185
346.5,0.1344
347.0,0.1441
347.5,0.1165
348.0,0.1332
348.5,0.1333
349.0,0.1238
349.5,0.1227
350.0,0.1519
350.5,0.1603
351.0,0.1431
351.5,0.1388
352.0,0.1494
352.5,0.1168
353.0,0.1474
353.5,0.1578
354.0,0.164
354.5,0.1663
355.0,0.1658
355.5,0.15
356.0,0.1571
356.5,0.1342
357.0,0.1109
357.5,0.1358
358.0,0.1077
358.5,0.09211
359.0,0.1289
359.5,0.1642
360.0,0.1742
360.5,0.1393
361.0,0.1272
361.5,0.1466
362.0,0.127
362.5,0.1759
363.0,0.1582
363.5,0.1459
364.0,0.1786
364.5,0.1527
365.0,0.1557
365.5,0.1955
366.0,0.2074
366.5,0.1951
367.0,0.1901
367.5,0.1974
368.0,0.1729
368.5,0.1746
369.0,0.1887
369.5,0.2013
370.0,0.2148
370.5,0.1668
371.0,0.1784
371.5,0.2234
372.0,0.1483
372.5,0.178
373.0,0.1812
373.5,0.118
374.0,0.1716
374.5,0.1423
375.0,0.1384
375.5,0.2067
376.0,0.1715
376.5,0.1778
377.0,0.1884
377.5,0.2206
378.0,0.2393
378.5,0.2263
379.0,0.1868
379.5,0.1707
380.0,0.1776
380.5,0.2153
381.0,0.216
381.5,0.1715
382.0,0.1524
382.5,0.1301
383.0,0.1206
383.5,0.1163
384.0,0.1284
384.5,0.1889
385.0,0.1875
385.5,0.1748
386.0,0.1499
386.5,0.1971
387.0,0.1639
387.5,0.1842
388.0,0.1702
388.5,0.1684
389.0,0.1819
389.5,0.2205
390.0,0.2215
390.5,0.204
391.0,0.2403
391.5,0.2453
392.0,0.2068
392.5,0.1853
393.0,0.1032
393.5,0.07509
394.0,0.1529
394.5,0.1946
395.0,0.2376
395.5,0.2415
396.0,0.2096
396.5,0.1227
397.0,0.09213
397.5,0.1875
398.0,0.2627
398.5,0.2717
399.0,0.2946
399.5,0.2939
400.0,0.3052
401.0,0.3072
402.0,0.3248
403.0,0.3091
404.0,0.3048
405.0,0.3051
406.0,0.3008
407.0,0.2965
408.0,0.3082
409.0,0.3304
410.0,0.2892
411.0,0.3137
412.0,0.3377
413.0,0.3296
414.0,0.3342
415.0,0.3356
416.0,0.3421
417.0,0.3341
418.0,0.3283
419.0,0.3332
420.0,0.3321
421.0,0.3479
422.0,0.331
423.0,0.3238
424.0,0.3427
425.0,0.3426
426.0,0.3344
427.0,0.3286
428.0,0.3204
429.0,0.3042
430.0,0.2666
431.0,0.2643
432.0,0.3418
433.0,0.3441
434.0,0.3198
435.0,0.3342
436.0,0.3773
437.0,0.3729
438.0,0.3401
439.0,0.3513
440.0,0.363
441.0,0.3767
442.0,0.4044
443.0,0.3937
444.0,0.403
445.0,0.3943
446.0,0.3773
447.0,0.4087
448.0,0.4148
449.0,0.4175
450.0,0.4297
451.0,0.446
452.0,0.4302
453.0,0.4051
454.0,0.4236
455.0,0.4263
456.0,0.4368
457.0,0.4442
458.0,0.4287
459.0,0.4268
460.0,0.4278
461.0,0.4379
462.0,0.4419
463.0,0.439
464.0,0.4328
465.0,0.4283
466.0,0.4331
467.0,0.425
468.0,0.4302
469.0,0.4325
470.0,0.4186
471.0,0.4184
472.0,0.4409
473.0,0.4352
474.0,0.4354
475.0,0.4385
476.0,0.4245
477.0,0.4251
478.0,0.4371
479.0,0.435
480.0,0.4363
481.0,0.4452
482.0,0.4484
483.0,0.444
484.0,0.4355
485.0,0.4156
486.0,0.364
487.0,0.3821
488.0,0.4192
489.0,0.4203
490.0,0.4427
491.0,0.4355
492.0,0.4114
493.0,0.4251
494.0,0.4295
495.0,0.4333
496.0,0.436
497.0,0.4427
498.0,0.4219
499.0,0.4269
500.0,0.4139
501.0,0.4057
502.0,0.3989
503.0,0.4139
504.0,0.4002
505.0,0.4171
506.0,0.4306
507.0,0.4099
508.0,0.3982
509.0,0.4102
510.0,0.4087
511.0,0.4204
512.0,0.4253
513.0,0.4027
514.0,0.4002
515.0,0.3963
516.0,0.3952
517.0,0.3513
518.0,0.3693
519.0,0.3873
520.0,0.4012
521.0,0.4049
522.0,0.4049
523.0,0.3974
524.0,0.411
525.0,0.415
526.0,0.3961
527.0,0.3726
528.0,0.3934
529.0,0.4142
530.0,0.4079
531.0,0.4137
532.0,0.3993
533.0,0.3876
534.0,0.3993
535.0,0.4085
536.0,0.4126
537.0,0.3967
538.0,0.4039
539.0,0.4005
540.0,0.3838
541.0,0.3853
542.0,0.3968
543.0,0.3934
544.0,0.3994
545.0,0.3983
546.0,0.3993
547.0,0.3998
548.0,0.3954
549.0,0.3969
550.0,0.4017
551.0,0.3969
552.0,0.3997
553.0,0.3924
554.0,0.4017
555.0,0.4023
556.0,0.3969
557.0,0.3842
558.0,0.3808
559.0,0.3731
560.0,0.3774
561.0,0.3818
562.0,0.3784
563.0,0.3879
564.0,0.3768
565.0,0.373
566.0,0.367
567.0,0.3733
568.0,0.3682
569.0,0.3561
570.0,0.3564
571.0,0.3551
572.0,0.3614
573.0,0.3648
574.0,0.3631
575.0,0.3555
576.0,0.3524
577.0,0.3565
578.0,0.3522
579.0,0.3551
580.0,0.3644
581.0,0.3682
582.0,0.3768
583.0,0.3791
584.0,0.3833
585.0,0.3745
586.0,0.3669
587.0,0.3739
588.0,0.3607
589.0,0.3115
590.0,0.3264
591.0,0.3502
592.0,0.343
593.0,0.3517
594.0,0.3478
595.0,0.3361
596.0,0.356
597.0,0.3504
598.0,0.3515
599.0,0.3527
600.0,0.3549
601.0,0.3533
602.0,0.3511
603.0,0.3576
604.0,0.3639
605.0,0.3624
606.0,0.3617
607.0,0.3661
608.0,0.3628
609.0,0.364
610.0,0.3622
611.0,0.3645
612.0,0.364
613.0,0.3598
614.0,0.3555
615.0,0.3639
616.0,0.3524
617.0,0.3521
618.0,0.366
619.0,0.3626
620.0,0.3649
621.0,0.3647
622.0,0.3599
623.0,0.354
624.0,0.3485
625.0,0.3476
626.0,0.3526
627.0,0.3549
628.0,0.3124
629.0,0.3398
630.0,0.3313
631.0,0.3453
632.0,0.3424
633.0,0.3556
634.0,0.3543
635.0,0.3609
636.0,0.3574
637.0,0.3642
638.0,0.3692
639.0,0.3659
640.0,0.3633
641.0,0.3637
642.0,0.3629
643.0,0.3679
644.0,0.3676
645.0,0.3677
646.0,0.3568
647.0,0.3472
648.0,0.3479
649.0,0.3403
650.0,0.3489
651.0,0.3652
652.0,0.3433
653.0,0.3609
654.0,0.3574
655.0,0.3406
656.0,0.3043
657.0,0.3129
658.0,0.3529
659.0,0.3564
660.0,0.3584
661.0,0.3612
662.0,0.3607
663.0,0.354
664.0,0.3602
665.0,0.3619
666.0,0.3628
667.0,0.3632
668.0,0.3642
669.0,0.3704
670.0,0.3691
671.0,0.3694
672.0,0.3665
673.0,0.3724
674.0,0.3714
675.0,0.3683
676.0,0.3711
677.0,0.3678
678.0,0.3691
679.0,0.3634
680.0,0.3665
681.0,0.3642
682.0,0.3637
683.0,0.3631
684.0,0.3613
685.0,0.3647
686.0,0.3622
687.0,0.1638
688.0,0.2238
689.0,0.2257
690.0,0.2489
691.0,0.2765
692.0,0.2989
693.0,0.2958
694.0,0.2954
695.0,0.3178
696.0,0.3189
697.0,0.3499
698.0,0.3442
699.0,0.328
700.0,0.3236
701.0,0.3171
702.0,0.3224
703.0,0.3239
704.0,0.3391
705.0,0.3395
706.0,0.341
707.0,0.3421
708.0,0.3426
709.0,0.3464
710.0,0.3446
711.0,0.3454
712.0,0.3459
713.0,0.3409
714.0,0.3427
715.0,0.3285
716.0,0.3279
717.0,0.2558
718.0,0.2329
719.0,0.2112
720.0,0.2182
721.0,0.2567
722.0,0.3111
723.0,0.2811
724.0,0.2427
725.0,0.2355
726.0,0.2473
727.0,0.258
728.0,0.2336
729.0,0.2522
730.0,0.2643
731.0,0.2512
732.0,0.2793
733.0,0.305
734.0,0.3155
735.0,0.3072
736.0,0.3063
737.0,0.3077
738.0,0.3203
739.0,0.3142
740.0,0.3247
741.0,0.3229
742.0,0.3247
743.0,0.3334
744.0,0.3334
745.0,0.3342
746.0,0.3357
747.0,0.3367
748.0,0.3361
749.0,0.3323
750.0,0.3322
751.0,0.3289
752.0,0.3304
753.0,0.3322
754.0,0.3329
755.0,0.331
756.0,0.331
757.0,0.3314
758.0,0.3271
759.0,0.3153
760.0,0.01083
761.0,0.003646
762.0,0.08754
763.0,0.02325
764.0,0.05006
765.0,0.08731
766.0,0.1349
767.0,0.2057
768.0,0.2713
769.0,0.2853
770.0,0.3047
771.0,0.3115
772.0,0.3136
773.0,0.3162
774.0,0.3149
775.0,0.3128
776.0,0.3167
777.0,0.3126
778.0,0.3106
779.0,0.3109
780.0,0.3092
781.0,0.3096
782.0,0.3117
783.0,0.3064
784.0,0.308
785.0,0.3054
786.0,0.3084
787.0,0.2991
788.0,0.2936
789.0,0.2934
790.0,0.2805
791.0,0.2881
792.0,0.2867
793.0,0.2816
794.0,0.2916
795.0,0.2951
796.0,0.2787
797.0,0.2784
798.0,0.2938
799.0,0.2907
800.0,0.2839
801.0,0.2812
802.0,0.2803
803.0,0.2772
804.0,0.2784
805.0,0.2797
806.0,0.2913
807.0,0.287
808.0,0.2875
809.0,0.2793
810.0,0.2753
811.0,0.2722
812.0,0.259
813.0,0.2519
814.0,0.2086
815.0,0.2084
816.0,0.1922
817.0,0.1963
818.0,0.186
819.0,0.2189
820.0,0.2024
821.0,0.2534
822.0,0.2435
823.0,0.141
824.0,0.2298
825.0,0.2492
826.0,0.2341
827.0,0.2527
828.0,0.1981
829.0,0.2339
830.0,0.2297
831.0,0.2304
832.0,0.2204
833.0,0.2418
834.0,0.2284
835.0,0.263
836.0,0.2433
837.0,0.2638
838.0,0.2513
839.0,0.2603
840.0,0.2671
841.0,0.2615
842.0,0.2649
843.0,0.2677
844.0,0.2624
845.0,0.2734
846.0,0.2727
847.0,0.2685
848.0,0.2655
849.0,0.258
850.0,0.2473
851.0,0.2604
852.0,0.2593
853.0,0.2506
854.0,0.2155
855.0,0.2381
856.0,0.2596
857.0,0.2663
858.0,0.2639
859.0,0.2648
860.0,0.2656
861.0,0.264
862.0,0.2684
863.0,0.2748
864.0,0.2611
865.0,0.2589
866.0,0.2328
867.0,0.243
868.0,0.2645
869.0,0.2591
870.0,0.2665
871.0,0.2628
872.0,0.262
873.0,0.2615
874.0,0.2584
875.0,0.2531
876.0,0.2557
877.0,0.2583
878.0,0.2609
879.0,0.257
880.0,0.2515
881.0,0.2471
882.0,0.2521
883.0,0.2536
884.0,0.2522
885.0,0.254
886.0,0.2398
887.0,0.2442
888.0,0.2468
889.0,0.2515
890.0,0.2469
891.0,0.2478
892.0,0.2374
893.0,0.2271
894.0,0.2124
895.0,0.1926
896.0,0.1795
897.0,0.1452
898.0,0.1626
899.0,0.114
900.0,0.1724
901.0,0.1194
902.0,0.1529
903.0,0.1497
904.0,0.2105
905.0,0.2006
906.0,0.1851
907.0,0.1355
908.0,0.1414
909.0,0.1585
910.0,0.1296
911.0,0.1466
912.0,0.1534
913.0,0.131
914.0,0.1321
915.0,0.142
916.0,0.119
917.0,0.1613
918.0,0.121
919.0,0.1681
920.0,0.1783
921.0,0.1846
922.0,0.1572
923.0,0.1794
924.0,0.1586
925.0,0.1558
926.0,0.156
927.0,0.1823
928.0,0.1116
929.0,0.09625
930.0,0.06682
931.0,0.06316
932.0,0.03738
933.0,0.02723
934.0,0.009182
935.0,0.03024
936.0,0.01481
937.0,0.01492
938.0,0.0197
939.0,0.06095
940.0,0.07978
941.0,0.05233
942.0,0.06439
943.0,0.03661
944.0,0.04448
945.0,0.05572
946.0,0.02099
947.0,0.05389
948.0,0.03893
949.0,0.08001
950.0,0.01271
951.0,0.07953
952.0,0.03357
953.0,0.04938
954.0,0.06762
955.0,0.05075
956.0,0.05737
957.0,0.03324
958.0,0.08877
959.0,0.06106
960.0,0.06851
961.0,0.08446
962.0,0.07965
963.0,0.09862
964.0,0.08847
965.0,0.0978
966.0,0.09727
967.0,0.09572
968.0,0.1566
969.0,0.1589
970.0,0.1437
971.0,0.1771
972.0,0.1665
973.0,0.1323
974.0,0.1248
975.0,0.1333
976.0,0.1194
977.0,0.1512
978.0,0.1372
979.0,0.1471
980.0,0.1367
981.0,0.1764
982.0,0.1639
983.0,0.1549
984.0,0.1878
985.0,0.163
986.0,0.195
987.0,0.1871
988.0,0.1871
989.0,0.197
990.0,0.1858
991.0,0.1972
992.0,0.1987
993.0,0.1901
994.0,0.1992
995.0,0.1996
996.0,0.198
997.0,0.1987
998.0,0.1974
999.0,0.1969
1000.0,0.1945
1001.0,0.1981
1002.0,0.1882
1003.0,0.1944
1004.0,0.1884
1005.0,0.1831
1006.0,0.1895
1007.0,0.1939
1008.0,0.1921
1009.0,0.1902
1010.0,0.1889
1011.0,0.193
1012.0,0.1905
1013.0,0.1928
1014.0,0.1915
1015.0,0.1901
1016.0,0.1891
1017.0,0.1894
1018.0,0.1893
1019.0,0.1835
1020.0,0.188
1021.0,0.1881
1022.0,0.1859
1023.0,0.1878
1024.0,0.1836
1025.0,0.1883
1026.0,0.187
1027.0,0.1867
1028.0,0.1862
1029.0,0.1838
1030.0,0.1857
1031.0,0.1847
1032.0,0.1843
1033.0,0.1815
1034.0,0.1816
1035.0,0.1822
1036.0,0.1829
1037.0,0.18
1038.0,0.1807
1039.0,0.1805
1040.0,0.1797
1041.0,0.1803
1042.0,0.179
1043.0,0.1784
1044.0,0.1789
1045.0,0.1763
1046.0,0.1743
1047.0,0.1757
1048.0,0.1765
1049.0,0.1758
1050.0,0.1748
1051.0,0.1744
1052.0,0.1735
1053.0,0.1719
1054.0,0.172
1055.0,0.1719
1056.0,0.1709
1057.0,0.1702
1058.0,0.1658
1059.0,0.1656
1060.0,0.1653
1061.0,0.1649
1062.0,0.1655
1063.0,0.1636
1064.0,0.1656
1065.0,0.1638
1066.0,0.1611
1067.0,0.163
1068.0,0.1589
1069.0,0.1544
1070.0,0.1593
1071.0,0.1632
1072.0,0.1602
1073.0,0.1581
1074.0,0.164
1075.0,0.1515
1076.0,0.1636
1077.0,0.1583
1078.0,0.1541
1079.0,0.1618
1080.0,0.1559
1081.0,0.1487
1082.0,0.1548
1083.0,0.1563
1084.0,0.1476
1085.0,0.1566
1086.0,0.1374
1087.0,0.1454
1088.0,0.1555
1089.0,0.1464
1090.0,0.1413
1091.0,0.1539
1092.0,0.1542
1093.0,0.1201
1094.0,0.1397
1095.0,0.1255
1096.0,0.1174
1097.0,0.1507
1098.0,0.1138
1099.0,0.1202
1100.0,0.108
1101.0,0.1108
1102.0,0.1029
1103.0,0.09988
1104.0,0.1003
1105.0,0.1166
1106.0,0.07346
1107.0,0.1079
1108.0,0.0821
1109.0,0.08362
1110.0,0.1047
1111.0,0.05866
1112.0,0.08354
1113.0,0.04183
1114.0,0.04708
1115.0,0.03805
1116.0,0.02496
1117.0,0.005111
1118.0,0.02825
1119.0,0.01001
1120.0,0.01197
1121.0,0.01776
1122.0,0.004711
1123.0,0.01096
1124.0,0.009194
1125.0,0.01299
1126.0,0.002106
1127.0,0.0149
1128.0,0.005932
1129.0,0.006528
1130.0,0.003921
1131.0,0.0378
1132.0,0.02763
1133.0,0.01258
1134.0,0.001578
1135.0,0.0006975
1136.0,0.008991
1137.0,0.03513
1138.0,0.0237
1139.0,0.04768
1140.0,0.035
1141.0,0.02269
1142.0,0.02817
1143.0,0.04566
1144.0,0.01092
1145.0,0.01207
1146.0,0.01297
1147.0,0.002302
1148.0,0.03856
1149.0,0.02748
1150.0,0.01292
1151.0,0.02354
1152.0,0.03292
1153.0,0.03539
1154.0,0.01219
1155.0,0.04961
1156.0,0.04203
1157.0,0.05305
1158.0,0.05224
1159.0,0.05894
1160.0,0.04851
1161.0,0.0673
1162.0,0.06675
1163.0,0.1049
1164.0,0.08479
1165.0,0.07477
1166.0,0.07871
1167.0,0.08819
1168.0,0.08808
1169.0,0.09145
1170.0,0.1041
1171.0,0.1014
1172.0,0.1065
1173.0,0.104
1174.0,0.06417
1175.0,0.1046
1176.0,0.1215
1177.0,0.1121
1178.0,0.07638
1179.0,0.1225
1180.0,0.1023
1181.0,0.1058
1182.0,0.06397
1183.0,0.1055
1184.0,0.09578
1185.0,0.08955
1186.0,0.1158
1187.0,0.1072
1188.0,0.06327
1189.0,0.09943
1190.0,0.114
1191.0,0.1018
1192.0,0.1162
1193.0,0.1092
1194.0,0.114
1195.0,0.1034
1196.0,0.09732
1197.0,0.1157
1198.0,0.1041
1199.0,0.07981
1200.0,0.1078
1201.0,0.1006
1202.0,0.103
1203.0,0.1002
1204.0,0.08417
1205.0,0.1077
1206.0,0.1232
1207.0,0.1013
1208.0,0.1024
1209.0,0.1049
1210.0,0.1114
1211.0,0.103
1212.0,0.09665
1213.0,0.1167
1214.0,0.1008
1215.0,0.09847
1216.0,0.1169
1217.0,0.1122
1218.0,0.1158
1219.0,0.1133
1220.0,0.1161
1221.0,0.1184
1222.0,0.1146
1223.0,0.1127
1224.0,0.1101
1225.0,0.1172
1226.0,0.1195
1227.0,0.1054
1228.0,0.1211
1229.0,0.1195
1230.0,0.1166
1231.0,0.123
1232.0,0.1221
1233.0,0.1138
1234.0,0.1238
1235.0,0.1224
1236.0,0.1238
1237.0,0.1204
1238.0,0.1234
1239.0,0.1218
1240.0,0.1224
1241.0,0.1208
1242.0,0.1215
1243.0,0.1206
1244.0,0.1211
1245.0,0.1218
1246.0,0.1211
1247.0,0.1203
1248.0,0.1197
1249.0,0.1206
1250.0,0.1195
1251.0,0.1173
1252.0,0.1182
1253.0,0.1156
1254.0,0.1133
1255.0,0.1176
1256.0,0.1114
1257.0,0.1102
1258.0,0.1146
1259.0,0.106
1260.0,0.1071
1261.0,0.09581
1262.0,0.09024
1263.0,0.09027
1264.0,0.07743
1265.0,0.08979
1266.0,0.08286
1267.0,0.08677
1268.0,0.07843
1269.0,0.02932
1270.0,0.08549
1271.0,0.0962
1272.0,0.09705
1273.0,0.09542
1274.0,0.09655
1275.0,0.09889
1276.0,0.1009
1277.0,0.103
1278.0,0.1071
1279.0,0.106
1280.0,0.1048
1281.0,0.101
1282.0,0.099
1283.0,0.1063
1284.0,0.1085
1285.0,0.1095
1286.0,0.1119
1287.0,0.1085
1288.0,0.109
1289.0,0.1022
1290.0,0.1082
1291.0,0.1103
1292.0,0.0977
1293.0,0.1068
1294.0,0.1058
1295.0,0.1032
1296.0,0.09504
1297.0,0.08748
1298.0,0.09964
1299.0,0.1075
1300.0,0.08214
1301.0,0.08609
1302.0,0.09951
1303.0,0.08186
1304.0,0.06214
1305.0,0.09707
1306.0,0.09607
1307.0,0.0663
1308.0,0.08336
1309.0,0.09385
1310.0,0.06424
1311.0,0.07805
1312.0,0.07499
1313.0,0.07144
1314.0,0.06109
1315.0,0.05869
1316.0,0.0753
1317.0,0.07013
1318.0,0.07963
1319.0,0.05313
1320.0,0.05312
1321.0,0.0652
1322.0,0.06407
1323.0,0.04109
1324.0,0.05253
1325.0,0.07305
1326.0,0.05827
1327.0,0.05424
1328.0,0.0442
1329.0,0.0273
1330.0,0.03877
1331.0,0.0176
1332.0,0.01966
1333.0,0.02842
1334.0,0.02819
1335.0,0.04018
1336.0,0.02823
1337.0,0.02429
1338.0,0.02582
1339.0,0.02641
1340.0,0.02746
1341.0,0.02259
1342.0,0.02433
1343.0,0.01079
1344.0,0.007013
1345.0,0.009554
1346.0,0.002486
1347.0,0.002196
1348.0,4.127e-05
1349.0,0.000191
1350.0,0.0002353
1351.0,1.903e-05
1352.0,1.622e-06
1353.0,5.968e-08
1354.0,2.737e-07
1355.0,1.401e-09
1356.0,2.898e-08
1357.0,4.376e-08
1358.0,1.651e-09
1359.0,2.025e-10
1360.0,7.387e-10
1361.0,8.173e-13
1362.0,2.236e-15
1363.0,9.846e-10
1364.0,4.072e-10
1365.0,7.805e-16
1366.0,4.276e-09
1367.0,1.763e-09
1368.0,6.027e-18
1369.0,1.501e-10
1370.0,7.369e-11
1371.0,4.174e-12
1372.0,9.585e-10
1373.0,2.044e-08
1374.0,1.093e-07
1375.0,1.836e-07
1376.0,2.461e-07
1377.0,1.054e-07
1378.0,1.029e-06
1379.0,4.595e-08
1380.0,4.965e-08
1381.0,1.237e-09
1382.0,8.36e-10
1383.0,1.245e-11
1384.0,1.623e-10
1385.0,8.169e-10
1386.0,7.317e-10
1387.0,9.473e-08
1388.0,2.099e-09
1389.0,4.128e-07
1390.0,3.343e-07
1391.0,2.239e-07
1392.0,1.489e-08
1393.0,9.148e-08
1394.0,3.173e-08
1395.0,2.268e-10
1396.0,1.064e-12
1397.0,3.178e-08
1398.0,1.023e-06
1399.0,6.802e-07
1400.0,4.549e-13
1401.0,1.888e-12
1402.0,6.594e-06
1403.0,5.844e-06
1404.0,1.472e-06
1405.0,1.054e-10
1406.0,2.442e-06
1407.0,4.51e-07
1408.0,2.177e-06
1409.0,4.65e-07
1410.0,6.218e-07
1411.0,5.53e-06
1412.0,1.11e-05
1413.0,0.0002835
1414.0,5.481e-07
1415.0,2.082e-07
1416.0,0.001167
1417.0,0.0001942
1418.0,0.0001388
1419.0,1.882e-05
1420.0,8.322e-05
1421.0,0.0001314
1422.0,0.001513
1423.0,0.0002668
1424.0,0.000611
