interpolation:linear
wavelength,value
280.0,1.004e-20
280.5,3.017e-19
281.0,1.57e-18
281.5,4.594e-19
282.0,1.501e-18
282.5,4e-18
283.0,1.295e-17
283.5,2.118e-17
284.0,3.358e-16
284.5,9.564e-16
285.0,1.854e-15
285.5,9.868e-15
286.0,4.032e-14
286.5,1.823e-13
287.0,5.212e-13
287.5,1.983e-12
288.0,5.256e-12
288.5,1.899e-11
289.0,5.789e-11
289.5,1.958e-10
290.0,5.873e-10
290.5,1.27e-09
291.0,2.905e-09
291.5,9.122e-09
292.0,2.209e-08
292.5,3.495e-08
293.0,8.772e-08
293.5,2.671e-07
294.0,4.941e-07
294.5,6.615e-07
295.0,1.327e-06
295.5,3.629e-06
296.0,7.178e-06
296.5,1.03e-05
297.0,1.424e-05
297.5,3.945e-05
298.0,6.395e-05
298.5,6.581e-05
299.0,0.0001484
299.5,0.0002562
300.0,0.0002887
300.5,0.0004291
301.0,0.0008125
301.5,0.001359
302.0,0.001197
302.5,0.002313
303.0,0.004089
303.5,0.005094
304.0,0.004747
304.5,0.006927
305.0,0.01017
305.5,0.01141
306.0,0.01096
306.5,0.01347
307.0,0.01939
307.5,0.02505
308.0,0.02634
308.5,0.03066
309.0,0.02991
309.5,0.03354
310.0,0.03338
310.5,0.05382
311.0,0.06704
311.5,0.0645
312.0,0.06339
312.5,0.07625
313.0,0.0822
313.5,0.08029
314.0,0.09898
314.5,0.08613
315.0,0.1128
315.5,0.09525
316.0,0.08191
316.5,0.1161
317.0,0.1441
317.5,0.1506
318.0,0.1164
318.5,0.142
319.0,0.167
319.5,0.1381
320.0,0.1673
320.5,0.2055
321.0,0.18
321.5,0.1723
322.0,0.187
322.5,0.1625
323.0,0.16
323.5,0.1944
324.0,0.2265
324.5,0.2311
325.0,0.2009
325.5,0.2559
326.0,0.3121
326.5,0.3105
327.0,0.3103
327.5,0.3006
328.0,0.27
328.5,0.2808
329.0,0.3335
329.5,0.3776
330.0,0.3817
330.5,0.3075
331.0,0.314
331.5,0.3176
332.0,0.3408
332.5,0.336
333.0,0.3357
333.5,0.3054
334.0,0.3132
334.5,0.3593
335.0,0.3365
335.5,0.393
336.0,0.272
336.5,0.319
337.0,0.2624
337.5,0.3267
338.0,0.3175
338.5,0.3664
339.0,0.3626
339.5,0.3488
340.0,0.4101
340.5,0.3695
341.0,0.3604
341.5,0.3308
342.0,0.3954
342.5,0.3699
343.0,0.4069
343.5,0.3832
344.0,0.2832
344.5,0.2861
345.0,0.3786
345.5,0.3865
346.0,0.3285
346.5,0.372
347.0,0.3994
347.5,0.323
348.0,0.3682
348.5,0.368
349.0,0.3414
349.5,0.3381
350.0,0.4182
350.5,0.4412
351.0,0.3942
351.5,0.3832
352.0,0.4116
352.5,0.3212
353.0,0.4045
353.5,0.4326
354.0,0.4491
354.5,0.4555
355.0,0.4541
355.5,0.4102
356.0,0.4292
356.5,0.3665
357.0,0.3029
357.5,0.3708
358.0,0.2939
358.5,0.2512
359.0,0.3514
359.5,0.4479
360.0,0.4748
360.5,0.3795
361.0,0.346
361.5,0.3984
362.0,0.3446
362.5,0.477
363.0,0.4284
363.5,0.3947
364.0,0.4828
364.5,0.4127
365.0,0.4204
365.5,0.5276
366.0,0.5591
366.5,0.5254
367.0,0.5117
367.5,0.5311
368.0,0.4648
368.5,0.4691
369.0,0.5067
369.5,0.5401
370.0,0.5758
370.5,0.447
371.0,0.4777
371.5,0.5977
372.0,0.3967
372.5,0.4757
373.0,0.484
373.5,0.3149
374.0,0.4577
374.5,0.3791
375.0,0.3686
375.5,0.5503
376.0,0.4562
376.5,0.4729
377.0,0.5007
377.5,0.5859
378.0,0.6351
378.5,0.6004
379.0,0.4955
379.5,0.4527
380.0,0.4707
380.5,0.5702
381.0,0.5715
381.5,0.4531
382.0,0.4024
382.5,0.3431
383.0,0.3177
383.5,0.306
384.0,0.3376
384.5,0.4967
385.0,0.4926
385.5,0.4588
386.0,0.393
386.5,0.5163
387.0,0.4291
387.5,0.482
388.0,0.4451
388.5,0.44
389.0,0.4751
389.5,0.5755
390.0,0.5776
390.5,0.5316
391.0,0.6259
391.5,0.6385
392.0,0.5378
392.5,0.4816
393.0,0.268
393.5,0.1948
394.0,0.3965
394.5,0.5042
395.0,0.6153
395.5,0.6251
396.0,0.542
396.5,0.3169
397.0,0.2378
397.5,0.4838
398.0,0.6775
398.5,0.7004
399.0,0.7585
399.5,0.7561
400.0,0.7852
401.0,0.797
402.0,0.841
403.0,0.7991
404.0,0.7869
405.0,0.7869
406.0,0.7743
407.0,0.7619
408.0,0.7918
409.0,0.8476
410.0,0.7407
411.0,0.8025
412.0,0.862
413.0,0.8408
414.0,0.8512
415.0,0.8535
416.0,0.8686
417.0,0.8473
418.0,0.8318
419.0,0.8428
420.0,0.8392
421.0,0.8781
422.0,0.8347
423.0,0.8154
424.0,0.8625
425.0,0.8611
426.0,0.8388
427.0,0.8232
428.0,0.802
429.0,0.7597
430.0,0.6649
431.0,0.6591
432.0,0.8511
433.0,0.8558
434.0,0.7948
435.0,0.8301
436.0,0.9354
437.0,0.9228
438.0,0.8404
439.0,0.8693
440.0,0.897
441.0,0.9295
442.0,0.997
443.0,0.9712
444.0,0.9923
445.0,0.9709
446.0,0.9265
447.0,1.002
448.0,1.017
449.0,1.021
450.0,1.05
451.0,1.089
452.0,1.049
453.0,0.9868
454.0,1.03
455.0,1.037
456.0,1.061
457.0,1.079
458.0,1.042
459.0,1.037
460.0,1.04
461.0,1.064
462.0,1.072
463.0,1.064
464.0,1.047
465.0,1.034
466.0,1.043
467.0,1.025
468.0,1.037
469.0,1.042
470.0,1.009
471.0,1.008
472.0,1.062
473.0,1.048
474.0,1.05
475.0,1.059
476.0,1.027
477.0,1.03
478.0,1.059
479.0,1.052
480.0,1.054
481.0,1.074
482.0,1.079
483.0,1.066
484.0,1.044
485.0,0.9947
486.0,0.8695
487.0,0.9112
488.0,0.9997
489.0,1.003
490.0,1.055
491.0,1.037
492.0,0.9791
493.0,1.011
494.0,1.021
495.0,1.03
496.0,1.036
497.0,1.052
498.0,1.003
499.0,1.016
500.0,0.9865
501.0,0.9685
502.0,0.955
503.0,0.9941
504.0,0.9693
505.0,1.004
506.0,1.036
507.0,0.9859
508.0,0.955
509.0,0.9817
510.0,0.9764
511.0,1.003
512.0,1.013
513.0,0.9591
514.0,0.9525
515.0,0.943
516.0,0.9407
517.0,0.8359
518.0,0.8788
519.0,0.9217
520.0,0.9553
521.0,0.9644
522.0,0.9653
523.0,0.9479
524.0,0.9819
525.0,0.9936
526.0,0.9492
527.0,0.8945
528.0,0.9462
529.0,0.9974
530.0,0.9831
531.0,0.9977
532.0,0.9634
533.0,0.9352
534.0,0.9628
535.0,0.9838
536.0,0.9928
537.0,0.9536
538.0,0.9704
539.0,0.9622
540.0,0.9226
541.0,0.9288
542.0,0.958
543.0,0.9478
544.0,0.9643
545.0,0.9613
546.0,0.9656
547.0,0.9651
548.0,0.9535
549.0,0.9564
550.0,0.9678
551.0,0.956
552.0,0.9626
553.0,0.9454
554.0,0.9681
555.0,0.97
556.0,0.9574
557.0,0.9277
558.0,0.9208
559.0,0.9037
560.0,0.915
561.0,0.9269
562.0,0.9203
563.0,0.9455
564.0,0.9198
565.0,0.9119
566.0,0.8986
567.0,0.9157
568.0,0.9077
569.0,0.8865
570.0,0.8862
571.0,0.8808
572.0,0.9022
573.0,0.9119
574.0,0.909
575.0,0.8921
576.0,0.884
577.0,0.8936
578.0,0.8801
579.0,0.8834
580.0,0.8999
581.0,0.9044
582.0,0.9213
583.0,0.9234
584.0,0.9313
585.0,0.9085
586.0,0.8899
587.0,0.9095
588.0,0.8878
589.0,0.7875
590.0,0.8234
591.0,0.8708
592.0,0.8601
593.0,0.8725
594.0,0.8666
595.0,0.8455
596.0,0.8781
597.0,0.8688
598.0,0.8663
599.0,0.867
600.0,0.8681
601.0,0.8609
602.0,0.855
603.0,0.8691
604.0,0.8834
605.0,0.8788
606.0,0.8751
607.0,0.8837
608.0,0.8739
609.0,0.8753
610.0,0.869
611.0,0.8735
612.0,0.8709
613.0,0.8599
614.0,0.8481
615.0,0.8665
616.0,0.8379
617.0,0.8362
618.0,0.8683
619.0,0.8595
620.0,0.865
621.0,0.8659
622.0,0.8558
623.0,0.8428
624.0,0.8283
625.0,0.8264
626.0,0.8387
627.0,0.8482
628.0,0.794
629.0,0.8288
630.0,0.8097
631.0,0.8274
632.0,0.8174
633.0,0.842
634.0,0.8336
635.0,0.8465
636.0,0.8352
637.0,0.8488
638.0,0.8568
639.0,0.8471
640.0,0.8388
641.0,0.8382
642.0,0.8344
643.0,0.8456
644.0,0.8428
645.0,0.8442
646.0,0.8247
647.0,0.8154
648.0,0.8162
649.0,0.8004
650.0,0.8037
651.0,0.8384
652.0,0.8042
653.0,0.8272
654.0,0.818
655.0,0.7879
656.0,0.698
657.0,0.7168
658.0,0.8031
659.0,0.8088
660.0,0.8121
661.0,0.8178
662.0,0.8196
663.0,0.8033
664.0,0.8127
665.0,0.8132
666.0,0.8138
667.0,0.8129
668.0,0.8132
669.0,0.8258
670.0,0.8222
671.0,0.8219
672.0,0.8149
673.0,0.8271
674.0,0.824
675.0,0.8165
676.0,0.8221
677.0,0.8139
678.0,0.8162
679.0,0.803
680.0,0.8094
681.0,0.8041
682.0,0.803
683.0,0.8015
684.0,0.7975
685.0,0.8043
686.0,0.7995
687.0,0.5384
688.0,0.6274
689.0,0.6295
690.0,0.6591
691.0,0.6923
692.0,0.7164
693.0,0.7107
694.0,0.7047
695.0,0.733
696.0,0.734
697.0,0.7778
698.0,0.7657
699.0,0.7482
700.0,0.7392
701.0,0.7319
702.0,0.7367
703.0,0.738
704.0,0.7612
705.0,0.7623
706.0,0.7615
707.0,0.762
708.0,0.7636
709.0,0.7645
710.0,0.7646
711.0,0.7634
712.0,0.761
713.0,0.7535
714.0,0.7563
715.0,0.7327
716.0,0.7332
717.0,0.6387
718.0,0.587
719.0,0.538
720.0,0.5638
721.0,0.6207
722.0,0.7083
723.0,0.6603
724.0,0.596
725.0,0.5868
726.0,0.6141
727.0,0.6222
728.0,0.5855
729.0,0.6064
730.0,0.6417
731.0,0.6142
732.0,0.656
733.0,0.6934
734.0,0.7096
735.0,0.695
736.0,0.6941
737.0,0.6969
738.0,0.707
739.0,0.6931
740.0,0.7109
741.0,0.7037
742.0,0.7043
743.0,0.7222
744.0,0.72
745.0,0.7201
746.0,0.7234
747.0,0.725
748.0,0.7234
749.0,0.7152
750.0,0.7147
751.0,0.7075
752.0,0.7105
753.0,0.7141
754.0,0.7157
755.0,0.7117
756.0,0.7114
757.0,0.7124
758.0,0.7035
759.0,0.6897
760.0,0.1208
761.0,0.06444
762.0,0.3592
763.0,0.1826
764.0,0.2718
765.0,0.3592
766.0,0.4383
767.0,0.5502
768.0,0.6327
769.0,0.6455
770.0,0.6669
771.0,0.6721
772.0,0.6734
773.0,0.6781
774.0,0.6748
775.0,0.6697
776.0,0.6778
777.0,0.6689
778.0,0.6648
779.0,0.6654
780.0,0.6616
781.0,0.6623
782.0,0.6664
783.0,0.6548
784.0,0.658
785.0,0.6531
786.0,0.6603
787.0,0.6491
788.0,0.6411
789.0,0.6409
790.0,0.6242
791.0,0.6292
792.0,0.6246
793.0,0.6145
794.0,0.6246
795.0,0.6353
796.0,0.6162
797.0,0.617
798.0,0.6346
799.0,0.6306
800.0,0.6198
801.0,0.618
802.0,0.6162
803.0,0.6115
804.0,0.6123
805.0,0.6103
806.0,0.6272
807.0,0.6196
808.0,0.6202
809.0,0.6087
810.0,0.6039
811.0,0.6049
812.0,0.5879
813.0,0.5758
814.0,0.5077
815.0,0.5045
816.0,0.4697
817.0,0.4782
818.0,0.4606
819.0,0.514
820.0,0.4844
821.0,0.565
822.0,0.549
823.0,0.3753
824.0,0.5335
825.0,0.5552
826.0,0.5345
827.0,0.5637
828.0,0.479
829.0,0.5312
830.0,0.5243
831.0,0.5262
832.0,0.5102
833.0,0.5423
834.0,0.5234
835.0,0.5743
836.0,0.5502
837.0,0.5759
838.0,0.5581
839.0,0.5671
840.0,0.5795
841.0,0.5714
842.0,0.5725
843.0,0.5721
844.0,0.5642
845.0,0.5831
846.0,0.5806
847.0,0.5697
848.0,0.5662
849.0,0.5502
850.0,0.5271
851.0,0.5581
852.0,0.5542
853.0,0.5334
854.0,0.4606
855.0,0.506
856.0,0.5529
857.0,0.5653
858.0,0.5611
859.0,0.5616
860.0,0.5626
861.0,0.5595
862.0,0.5683
863.0,0.5817
864.0,0.5526
865.0,0.5478
866.0,0.4925
867.0,0.514
868.0,0.5593
869.0,0.5477
870.0,0.5633
871.0,0.5557
872.0,0.5537
873.0,0.5526
874.0,0.546
875.0,0.535
876.0,0.5405
877.0,0.546
878.0,0.5519
879.0,0.5434
880.0,0.5318
881.0,0.5238
882.0,0.5351
883.0,0.5368
884.0,0.5344
885.0,0.5384
886.0,0.5131
887.0,0.5186
888.0,0.5262
889.0,0.5322
890.0,0.5277
891.0,0.5268
892.0,0.5116
893.0,0.4956
894.0,0.4782
895.0,0.4518
896.0,0.4256
897.0,0.3655
898.0,0.3989
899.0,0.3033
900.0,0.4085
901.0,0.318
902.0,0.3732
903.0,0.3769
904.0,0.4745
905.0,0.4582
906.0,0.4288
907.0,0.3483
908.0,0.3552
909.0,0.3848
910.0,0.3402
911.0,0.3627
912.0,0.3792
913.0,0.3452
914.0,0.3423
915.0,0.3711
916.0,0.3141
917.0,0.3988
918.0,0.322
919.0,0.4061
920.0,0.4104
921.0,0.4268
922.0,0.3814
923.0,0.4123
924.0,0.3909
925.0,0.3824
926.0,0.3865
927.0,0.4329
928.0,0.3169
929.0,0.2891
930.0,0.2267
931.0,0.2148
932.0,0.1542
933.0,0.125
934.0,0.06784
935.0,0.1282
936.0,0.07958
937.0,0.0806
938.0,0.09931
939.0,0.2081
940.0,0.2508
941.0,0.1887
942.0,0.2189
943.0,0.1435
944.0,0.1515
945.0,0.1947
946.0,0.09837
947.0,0.1954
948.0,0.1434
949.0,0.2623
950.0,0.07173
951.0,0.2584
952.0,0.1378
953.0,0.1787
954.0,0.2198
955.0,0.1808
956.0,0.1759
957.0,0.1379
958.0,0.2503
959.0,0.198
960.0,0.222
961.0,0.2498
962.0,0.2363
963.0,0.273
964.0,0.2499
965.0,0.272
966.0,0.2719
967.0,0.2707
968.0,0.365
969.0,0.3811
970.0,0.3497
971.0,0.4012
972.0,0.3836
973.0,0.3331
974.0,0.316
975.0,0.3284
976.0,0.3113
977.0,0.3552
978.0,0.3371
979.0,0.3533
980.0,0.332
981.0,0.3989
982.0,0.3811
983.0,0.3656
984.0,0.4114
985.0,0.3796
986.0,0.4188
987.0,0.4104
988.0,0.4096
989.0,0.4177
990.0,0.4072
991.0,0.4189
992.0,0.4214
993.0,0.4117
994.0,0.4213
995.0,0.4208
996.0,0.4189
997.0,0.4195
998.0,0.4175
999.0,0.416
1000.0,0.413
1001.0,0.4183
1002.0,0.4065
1003.0,0.4108
1004.0,0.4007
1005.0,0.3862
1006.0,0.4012
1007.0,0.4097
1008.0,0.4074
1009.0,0.4052
1010.0,0.4035
1011.0,0.4076
1012.0,0.404
1013.0,0.4067
1014.0,0.4038
1015.0,0.4011
1016.0,0.3993
1017.0,0.4003
1018.0,0.3989
1019.0,0.3902
1020.0,0.3967
1021.0,0.3962
1022.0,0.3931
1023.0,0.3972
1024.0,0.392
1025.0,0.397
1026.0,0.3953
1027.0,0.3944
1028.0,0.3935
1029.0,0.3889
1030.0,0.3916
1031.0,0.39
1032.0,0.3889
1033.0,0.383
1034.0,0.383
1035.0,0.3842
1036.0,0.3862
1037.0,0.38
1038.0,0.3816
1039.0,0.3814
1040.0,0.3799
1041.0,0.3814
1042.0,0.3787
1043.0,0.3775
1044.0,0.3788
1045.0,0.3737
1046.0,0.3695
1047.0,0.3728
1048.0,0.3749
1049.0,0.3735
1050.0,0.3718
1051.0,0.3713
1052.0,0.3697
1053.0,0.3668
1054.0,0.3676
1055.0,0.3678
1056.0,0.3664
1057.0,0.3653
1058.0,0.3563
1059.0,0.3567
1060.0,0.3561
1061.0,0.3557
1062.0,0.3575
1063.0,0.354
1064.0,0.3582
1065.0,0.3555
1066.0,0.3486
1067.0,0.353
1068.0,0.3453
1069.0,0.3347
1070.0,0.346
1071.0,0.3515
1072.0,0.3473
1073.0,0.3423
1074.0,0.3513
1075.0,0.3334
1076.0,0.351
1077.0,0.3446
1078.0,0.338
1079.0,0.3454
1080.0,0.3392
1081.0,0.3282
1082.0,0.3338
1083.0,0.3348
1084.0,0.3273
1085.0,0.34
1086.0,0.3098
1087.0,0.3201
1088.0,0.3344
1089.0,0.3239
1090.0,0.3166
1091.0,0.3333
1092.0,0.3325
1093.0,0.2811
1094.0,0.3041
1095.0,0.2929
1096.0,0.2802
1097.0,0.3248
1098.0,0.2758
1099.0,0.2878
1100.0,0.2672
1101.0,0.2706
1102.0,0.2583
1103.0,0.2556
1104.0,0.2559
1105.0,0.2811
1106.0,0.2136
1107.0,0.2667
1108.0,0.2253
1109.0,0.2258
1110.0,0.2643
1111.0,0.1781
1112.0,0.2242
1113.0,0.1415
1114.0,0.1583
1115.0,0.1311
1116.0,0.104
1117.0,0.03735
1118.0,0.1134
1119.0,0.05557
1120.0,0.0699
1121.0,0.09321
1122.0,0.03861
1123.0,0.0632
1124.0,0.05333
1125.0,0.06975
1126.0,0.02367
1127.0,0.07874
1128.0,0.04643
1129.0,0.04937
1130.0,0.03222
1131.0,0.151
1132.0,0.1181
1133.0,0.07397
1134.0,0.0184
1135.0,0.006923
1136.0,0.06139
1137.0,0.148
1138.0,0.1041
1139.0,0.1569
1140.0,0.1304
1141.0,0.09891
1142.0,0.1141
1143.0,0.1628
1144.0,0.05603
1145.0,0.07136
1146.0,0.07695
1147.0,0.02643
1148.0,0.1408
1149.0,0.1119
1150.0,0.06035
1151.0,0.1033
1152.0,0.1277
1153.0,0.1249
1154.0,0.06906
1155.0,0.1636
1156.0,0.147
1157.0,0.1655
1158.0,0.1637
1159.0,0.1769
1160.0,0.1508
1161.0,0.1865
1162.0,0.1874
1163.0,0.254
1164.0,0.2176
1165.0,0.2049
1166.0,0.2037
1167.0,0.2221
1168.0,0.2244
1169.0,0.2299
1170.0,0.25
1171.0,0.2438
1172.0,0.2483
1173.0,0.2495
1174.0,0.1778
1175.0,0.2438
1176.0,0.2681
1177.0,0.2573
1178.0,0.1931
1179.0,0.2703
1180.0,0.2411
1181.0,0.2488
1182.0,0.1716
1183.0,0.2451
1184.0,0.2296
1185.0,0.2216
1186.0,0.2627
1187.0,0.2502
1188.0,0.1745
1189.0,0.2331
1190.0,0.2568
1191.0,0.2438
1192.0,0.2603
1193.0,0.2495
1194.0,0.2571
1195.0,0.2432
1196.0,0.2343
1197.0,0.2573
1198.0,0.2354
1199.0,0.2003
1200.0,0.2463
1201.0,0.2376
1202.0,0.2362
1203.0,0.2342
1204.0,0.2049
1205.0,0.2417
1206.0,0.2669
1207.0,0.2356
1208.0,0.2319
1209.0,0.2367
1210.0,0.2465
1211.0,0.2348
1212.0,0.2321
1213.0,0.2582
1214.0,0.2376
1215.0,0.2331
1216.0,0.2573
1217.0,0.2506
1218.0,0.2553
1219.0,0.2521
1220.0,0.2555
1221.0,0.258
1222.0,0.2513
1223.0,0.249
1224.0,0.2475
1225.0,0.2564
1226.0,0.2581
1227.0,0.2382
1228.0,0.2593
1229.0,0.2581
1230.0,0.2537
1231.0,0.2608
1232.0,0.2593
1233.0,0.2505
1234.0,0.2606
1235.0,0.259
1236.0,0.2608
1237.0,0.2572
1238.0,0.2599
1239.0,0.2566
1240.0,0.2576
1241.0,0.2564
1242.0,0.2558
1243.0,0.2537
1244.0,0.2555
1245.0,0.2566
1246.0,0.2551
1247.0,0.2542
1248.0,0.254
1249.0,0.2548
1250.0,0.2532
1251.0,0.25
1252.0,0.25
1253.0,0.2481
1254.0,0.2456
1255.0,0.2498
1256.0,0.2428
1257.0,0.2415
1258.0,0.246
1259.0,0.2372
1260.0,0.2384
1261.0,0.2252
1262.0,0.2185
1263.0,0.2189
1264.0,0.2022
1265.0,0.2175
1266.0,0.2094
1267.0,0.213
1268.0,0.2021
1269.0,0.126
1270.0,0.2122
1271.0,0.2244
1272.0,0.2251
1273.0,0.2227
1274.0,0.2234
1275.0,0.2266
1276.0,0.2288
1277.0,0.2303
1278.0,0.2347
1279.0,0.2326
1280.0,0.2296
1281.0,0.2191
1282.0,0.211
1283.0,0.2273
1284.0,0.2327
1285.0,0.2343
1286.0,0.2374
1287.0,0.2338
1288.0,0.2337
1289.0,0.2264
1290.0,0.2317
1291.0,0.2349
1292.0,0.2208
1293.0,0.2304
1294.0,0.2287
1295.0,0.2277
1296.0,0.2175
1297.0,0.2058
1298.0,0.2213
1299.0,0.2306
1300.0,0.1954
1301.0,0.2014
1302.0,0.2206
1303.0,0.1929
1304.0,0.1647
1305.0,0.2161
1306.0,0.2161
1307.0,0.1682
1308.0,0.1931
1309.0,0.2145
1310.0,0.165
1311.0,0.1852
1312.0,0.1802
1313.0,0.1767
1314.0,0.1582
1315.0,0.1562
1316.0,0.1823
1317.0,0.1727
1318.0,0.1876
1319.0,0.1468
1320.0,0.1422
1321.0,0.1656
1322.0,0.1672
1323.0,0.1259
1324.0,0.144
1325.0,0.1797
1326.0,0.1542
1327.0,0.1471
1328.0,0.1268
1329.0,0.09518
1330.0,0.124
1331.0,0.07465
1332.0,0.07715
1333.0,0.1074
1334.0,0.09108
1335.0,0.1254
1336.0,0.09907
1337.0,0.08753
1338.0,0.09473
1339.0,0.09434
1340.0,0.09182
1341.0,0.08952
1342.0,0.09404
1343.0,0.06335
1344.0,0.03795
1345.0,0.05476
1346.0,0.02696
1347.0,0.02737
1348.0,0.001749
1349.0,0.006315
1350.0,0.006581
1351.0,0.001579
1352.0,0.0004211
1353.0,2.123e-05
1354.0,7.378e-05
1355.0,5.809e-07
1356.0,1.037e-05
1357.0,1.58e-05
1358.0,6.888e-07
1359.0,8.537e-08
1360.0,3.133e-07
1361.0,3.375e-10
1362.0,9.101e-13
1363.0,4.225e-07
1364.0,1.748e-07
1365.0,3.135e-13
1366.0,1.856e-06
1367.0,7.626e-07
1368.0,2.338e-15
1369.0,6.528e-08
1370.0,3.198e-08
1371.0,1.8e-09
1372.0,4.198e-07
1373.0,8.592e-06
1374.0,4.032e-05
1375.0,7.331e-05
1376.0,6.644e-05
1377.0,3.037e-05
1378.0,0.000299
1379.0,1.276e-05
1380.0,1.829e-05
1381.0,4.753e-07
1382.0,3.778e-07
1383.0,5.624e-09
1384.0,7.364e-08
1385.0,3.605e-07
1386.0,3.351e-07
1387.0,4.165e-05
1388.0,8.215e-07
1389.0,0.0001428
1390.0,0.0001229
1391.0,8.183e-05
1392.0,5.304e-06
1393.0,2.832e-05
1394.0,1.443e-05
1395.0,1.05e-07
1396.0,4.89e-10
1397.0,1.124e-05
1398.0,0.0003356
1399.0,0.000213
1400.0,2.093e-10
1401.0,8.835e-10
1402.0,0.0006023
1403.0,0.0007549
1404.0,0.0002297
1405.0,5.078e-08
1406.0,0.0005949
1407.0,5.273e-05
1408.0,0.0004871
1409.0,0.0001617
1410.0,0.0001304
1411.0,0.0006643
1412.0,0.0009017
1413.0,0.009504
1414.0,0.0001031
1415.0,4.92e-05
1416.0,0.01593
1417.0,0.004689
1418.0,0.005319
1419.0,0.0008196
1420.0,0.00325
1421.0,0.003516
1422.0,0.02083
1423.0,0.004
1424.0,0.007537
1425.0,0.01103
1426.0,0.01269
1427.0,0.02374
1428.0,0.00164
1429.0,0.01755
1430.0,0.03045
1431.0,0.03359
1432.0,0.001288
1433.0,0.02116
1434.0,0.01066
1435.0,0.01031
1436.0,0.02044
1437.0,0.01567
1438.0,0.006464
1439.0,0.02804
1440.0,0.02099
1441.0,0.0157
1442.0,0.01745
1443.0,0.02238
1444.0,0.03128
