interpolation:linear
wavelength,value
280.0,1.097e-21
280.5,3.5240000000000003e-20
281.0,1.874e-19
281.5,5.213e-19
282.0,9.547e-19
282.5,2.377e-18
283.0,7.493e-18
283.5,1.217e-17
284.0,1.97e-16
284.5,5.697e-16
285.0,1.128e-15
285.5,5.435e-15
286.0,2.171e-14
286.5,9.607e-14
287.0,2.727e-13
287.5,1.038e-12
288.0,3.184e-12
288.5,9.966e-12
289.0,2.711e-11
289.5,8.303e-11
290.0,2.323e-10
290.5,4.759e-10
291.0,1.026e-09
291.5,2.953e-09
292.0,6.094e-09
292.5,8.794e-09
293.0,1.95e-08
293.5,4.95e-08
294.0,7.958e-08
294.5,1.047e-07
295.0,1.816e-07
295.5,4.169e-07
296.0,7.528e-07
296.5,1.088e-06
297.0,1.52e-06
297.5,4.311e-06
298.0,7.185e-06
298.5,7.588e-06
299.0,1.764e-05
299.5,3.25e-05
300.0,3.817e-05
300.5,5.955e-05
301.0,0.0001234
301.5,0.0002279
302.0,0.000213
302.5,0.0004274
303.0,0.0007964
303.5,0.001029
304.0,0.0009865
304.5,0.001551
305.0,0.002529
305.5,0.003032
306.0,0.002987
306.5,0.00383
307.0,0.006057
307.5,0.008558
308.0,0.009131
308.5,0.01111
309.0,0.01115
309.5,0.01324
310.0,0.01353
310.5,0.0221
311.0,0.02814
311.5,0.02733
312.0,0.02816
312.5,0.03496
313.0,0.03831
313.5,0.03686
314.0,0.04719
314.5,0.04316
315.0,0.05705
315.5,0.04703
316.0,0.04212
316.5,0.06179
317.0,0.0767
317.5,0.07936
318.0,0.06282
318.5,0.08018
319.0,0.09648
319.5,0.07695
320.0,0.0927
320.5,0.1193
321.0,0.1089
321.5,0.1047
322.0,0.1087
322.5,0.09471
323.0,0.09597
323.5,0.1198
324.0,0.1402
324.5,0.1414
325.0,0.1212
325.5,0.1581
326.0,0.194
326.5,0.1959
327.0,0.1947
327.5,0.1874
328.0,0.1651
328.5,0.1759
329.0,0.2129
329.5,0.2426
330.0,0.2441
330.5,0.1938
331.0,0.197
331.5,0.2015
332.0,0.2197
332.5,0.2183
333.0,0.2172
333.5,0.1954
334.0,0.2
334.5,0.2326
335.0,0.2196
335.5,0.2566
336.0,0.1776
336.5,0.2076
337.0,0.1698
337.5,0.2111
338.0,0.2074
338.5,0.2397
339.0,0.2374
339.5,0.2285
340.0,0.2683
340.5,0.2421
341.0,0.2363
341.5,0.2172
342.0,0.2597
342.5,0.2431
343.0,0.2673
343.5,0.2517
344.0,0.1861
344.5,0.188
345.0,0.2491
345.5,0.2545
346.0,0.2165
346.5,0.2452
347.0,0.2633
347.5,0.2129
348.0,0.243
348.5,0.243
349.0,0.2256
349.5,0.2235
350.0,0.2765
350.5,0.2918
351.0,0.2607
351.5,0.2533
352.0,0.2723
352.5,0.2127
353.0,0.2681
353.5,0.2868
354.0,0.2979
354.5,0.3022
355.0,0.3012
355.5,0.2723
356.0,0.2851
356.5,0.2435
357.0,0.2012
357.5,0.2464
358.0,0.1954
358.5,0.167
359.0,0.2337
359.5,0.2978
360.0,0.3158
360.5,0.2525
361.0,0.2304
361.5,0.2655
362.0,0.2297
362.5,0.3182
363.0,0.286
363.5,0.2636
364.0,0.3226
364.5,0.2758
365.0,0.281
365.5,0.3529
366.0,0.3741
366.5,0.3517
367.0,0.3427
367.5,0.3558
368.0,0.3115
368.5,0.3145
369.0,0.3398
369.5,0.3623
370.0,0.3864
370.5,0.3001
371.0,0.3208
371.5,0.4015
372.0,0.2666
372.5,0.3198
373.0,0.3255
373.5,0.2119
374.0,0.308
374.5,0.2552
375.0,0.2482
375.5,0.3707
376.0,0.3074
376.5,0.3187
377.0,0.3376
377.5,0.3951
378.0,0.4284
378.5,0.4051
379.0,0.3344
379.5,0.3055
380.0,0.3177
380.5,0.3851
381.0,0.3861
381.5,0.3063
382.0,0.2722
382.5,0.2322
383.0,0.2151
383.5,0.2072
384.0,0.2287
384.5,0.3366
385.0,0.3339
385.5,0.3111
386.0,0.2666
386.5,0.3504
387.0,0.2913
387.5,0.3273
388.0,0.3023
388.5,0.299
389.0,0.3229
389.5,0.3912
390.0,0.3928
390.5,0.3617
391.0,0.4259
391.5,0.4346
392.0,0.3662
392.5,0.328
393.0,0.1826
393.5,0.1328
394.0,0.2703
394.5,0.3439
395.0,0.4198
395.5,0.4265
396.0,0.37
396.5,0.2164
397.0,0.1625
397.5,0.3306
398.0,0.463
398.5,0.4788
399.0,0.5188
399.5,0.5173
400.0,0.5372
401.0,0.5437
402.0,0.5742
403.0,0.5459
404.0,0.5379
405.0,0.5382
406.0,0.5299
407.0,0.5218
408.0,0.5424
409.0,0.5809
410.0,0.508
411.0,0.5507
412.0,0.5921
413.0,0.5776
414.0,0.5851
415.0,0.5872
416.0,0.5979
417.0,0.5835
418.0,0.5731
419.0,0.581
420.0,0.5788
421.0,0.6059
422.0,0.5762
423.0,0.5632
424.0,0.5959
425.0,0.5952
426.0,0.5803
427.0,0.5697
428.0,0.5552
429.0,0.5264
430.0,0.461
431.0,0.457
432.0,0.5905
433.0,0.594
434.0,0.5518
435.0,0.5764
436.0,0.65
437.0,0.6418
438.0,0.5847
439.0,0.6046
440.0,0.6242
441.0,0.6472
442.0,0.6944
443.0,0.6763
444.0,0.6914
445.0,0.6765
446.0,0.6462
447.0,0.6992
448.0,0.7099
449.0,0.7134
450.0,0.7337
451.0,0.7612
452.0,0.7337
453.0,0.6904
454.0,0.7212
455.0,0.7257
456.0,0.7432
457.0,0.7557
458.0,0.7298
459.0,0.7262
460.0,0.7281
461.0,0.7451
462.0,0.7512
463.0,0.7461
464.0,0.7344
465.0,0.7257
466.0,0.7331
467.0,0.7196
468.0,0.7282
469.0,0.7321
470.0,0.7087
471.0,0.708
472.0,0.746
473.0,0.7364
474.0,0.7371
475.0,0.7431
476.0,0.7204
477.0,0.7221
478.0,0.7424
479.0,0.7382
480.0,0.7399
481.0,0.7542
482.0,0.7586
483.0,0.75
484.0,0.735
485.0,0.7006
486.0,0.6128
487.0,0.6425
488.0,0.7049
489.0,0.707
490.0,0.744
491.0,0.7315
492.0,0.6908
493.0,0.7135
494.0,0.7208
495.0,0.727
496.0,0.7315
497.0,0.7428
498.0,0.7081
499.0,0.717
500.0,0.6958
501.0,0.6828
502.0,0.6726
503.0,0.6993
504.0,0.6798
505.0,0.7056
506.0,0.7284
507.0,0.6932
508.0,0.6722
509.0,0.6915
510.0,0.6882
511.0,0.7071
512.0,0.715
513.0,0.6768
514.0,0.6723
515.0,0.6656
516.0,0.664
517.0,0.5901
518.0,0.6203
519.0,0.6506
520.0,0.6742
521.0,0.6806
522.0,0.681
523.0,0.6686
524.0,0.6923
525.0,0.7
526.0,0.6685
527.0,0.6296
528.0,0.6655
529.0,0.7013
530.0,0.691
531.0,0.7011
532.0,0.677
533.0,0.6571
534.0,0.6767
535.0,0.6917
536.0,0.6983
537.0,0.6709
538.0,0.6829
539.0,0.6771
540.0,0.6491
541.0,0.6529
542.0,0.6731
543.0,0.6664
544.0,0.6775
545.0,0.6755
546.0,0.678
547.0,0.6781
548.0,0.6702
549.0,0.6724
550.0,0.6804
551.0,0.6722
552.0,0.6769
553.0,0.6647
554.0,0.6806
555.0,0.6818
556.0,0.6729
557.0,0.6518
558.0,0.6466
559.0,0.6342
560.0,0.642
561.0,0.65
562.0,0.645
563.0,0.6622
564.0,0.6438
565.0,0.638
566.0,0.6284
567.0,0.6399
568.0,0.6332
569.0,0.6163
570.0,0.6164
571.0,0.6131
572.0,0.6266
573.0,0.6331
574.0,0.6308
575.0,0.6186
576.0,0.613
577.0,0.6198
578.0,0.6111
579.0,0.6143
580.0,0.6274
581.0,0.6317
582.0,0.6445
583.0,0.6469
584.0,0.653
585.0,0.6373
586.0,0.6243
587.0,0.6374
588.0,0.6195
589.0,0.5443
590.0,0.5696
591.0,0.6055
592.0,0.5962
593.0,0.6071
594.0,0.602
595.0,0.5855
596.0,0.6123
597.0,0.6048
598.0,0.6044
599.0,0.6054
600.0,0.6073
601.0,0.603
602.0,0.599
603.0,0.6093
604.0,0.6196
605.0,0.6166
606.0,0.6145
607.0,0.621
608.0,0.6145
609.0,0.6159
610.0,0.612
611.0,0.6154
612.0,0.6138
613.0,0.6063
614.0,0.5984
615.0,0.6117
616.0,0.5919
617.0,0.5909
618.0,0.6138
619.0,0.6077
620.0,0.6116
621.0,0.6118
622.0,0.6044
623.0,0.5949
624.0,0.585
625.0,0.5837
626.0,0.5922
627.0,0.598
628.0,0.548
629.0,0.5802
630.0,0.5665
631.0,0.5828
632.0,0.5765
633.0,0.5955
634.0,0.5909
635.0,0.6007
636.0,0.5934
637.0,0.6036
638.0,0.6102
639.0,0.6038
640.0,0.5984
641.0,0.5984
642.0,0.5961
643.0,0.6042
644.0,0.6027
645.0,0.6034
646.0,0.5881
647.0,0.5783
648.0,0.5787
649.0,0.5672
650.0,0.5737
651.0,0.5992
652.0,0.5704
653.0,0.5914
654.0,0.5852
655.0,0.5615
656.0,0.499
657.0,0.5126
658.0,0.5756
659.0,0.5803
660.0,0.5829
661.0,0.5871
662.0,0.5876
663.0,0.5763
664.0,0.5842
665.0,0.5854
666.0,0.5862
667.0,0.5861
668.0,0.5868
669.0,0.5961
670.0,0.5937
671.0,0.5938
672.0,0.5888
673.0,0.5979
674.0,0.5958
675.0,0.5906
676.0,0.5948
677.0,0.589
678.0,0.5908
679.0,0.5814
680.0,0.5862
681.0,0.5824
682.0,0.5816
683.0,0.5806
684.0,0.5776
685.0,0.5828
686.0,0.5791
687.0,0.3402
688.0,0.4189
689.0,0.4211
690.0,0.4487
691.0,0.4805
692.0,0.5046
693.0,0.4999
694.0,0.4962
695.0,0.5223
696.0,0.5232
697.0,0.5619
698.0,0.553
699.0,0.5354
700.0,0.5287
701.0,0.5218
702.0,0.5271
703.0,0.5283
704.0,0.5479
705.0,0.5487
706.0,0.5492
707.0,0.5501
708.0,0.5511
709.0,0.5537
710.0,0.5528
711.0,0.5526
712.0,0.5518
713.0,0.5455
714.0,0.5477
715.0,0.5287
716.0,0.5285
717.0,0.4422
718.0,0.4043
719.0,0.3689
720.0,0.3849
721.0,0.4345
722.0,0.5074
723.0,0.4671
724.0,0.4147
725.0,0.4059
726.0,0.4256
727.0,0.4357
728.0,0.4041
729.0,0.425
730.0,0.4489
731.0,0.4282
732.0,0.464
733.0,0.4968
734.0,0.5103
735.0,0.4989
736.0,0.4981
737.0,0.5001
738.0,0.5119
739.0,0.5018
740.0,0.5162
741.0,0.5118
742.0,0.5131
743.0,0.5263
744.0,0.5253
745.0,0.5258
746.0,0.5282
747.0,0.5295
748.0,0.5284
749.0,0.5224
750.0,0.5221
751.0,0.5169
752.0,0.5192
753.0,0.5218
754.0,0.523
755.0,0.52
756.0,0.5199
757.0,0.5206
758.0,0.514
759.0,0.501
760.0,0.04876
761.0,0.02115
762.0,0.2105
763.0,0.08468
764.0,0.1443
765.0,0.2104
766.0,0.2785
767.0,0.3735
768.0,0.4498
769.0,0.4637
770.0,0.4844
771.0,0.4905
772.0,0.4923
773.0,0.4959
774.0,0.4936
775.0,0.49
776.0,0.496
777.0,0.4895
778.0,0.4865
779.0,0.4869
780.0,0.4842
781.0,0.4848
782.0,0.4878
783.0,0.4794
784.0,0.4818
785.0,0.478
786.0,0.4832
787.0,0.4727
788.0,0.4659
789.0,0.4656
790.0,0.4504
791.0,0.457
792.0,0.4541
793.0,0.4464
794.0,0.4569
795.0,0.4639
796.0,0.4458
797.0,0.4461
798.0,0.4629
799.0,0.4592
800.0,0.4503
801.0,0.448
802.0,0.4467
803.0,0.4428
804.0,0.4439
805.0,0.4436
806.0,0.458
807.0,0.452
808.0,0.4526
809.0,0.4427
810.0,0.4381
811.0,0.4365
812.0,0.4215
813.0,0.4114
814.0,0.354
815.0,0.3522
816.0,0.3269
817.0,0.3336
818.0,0.3192
819.0,0.3638
820.0,0.3401
821.0,0.4073
822.0,0.3941
823.0,0.2529
824.0,0.379
825.0,0.4001
826.0,0.3818
827.0,0.4061
828.0,0.3351
829.0,0.3801
830.0,0.3743
831.0,0.3758
832.0,0.3626
833.0,0.3902
834.0,0.3734
835.0,0.4169
836.0,0.3947
837.0,0.4183
838.0,0.4031
839.0,0.4125
840.0,0.4221
841.0,0.4151
842.0,0.4175
843.0,0.4188
844.0,0.4121
845.0,0.4272
846.0,0.4256
847.0,0.4181
848.0,0.4148
849.0,0.403
850.0,0.3862
851.0,0.4082
852.0,0.4056
853.0,0.391
854.0,0.3371
855.0,0.3711
856.0,0.4052
857.0,0.4148
858.0,0.4115
859.0,0.4122
860.0,0.4131
861.0,0.4108
862.0,0.4173
863.0,0.4272
864.0,0.4059
865.0,0.4024
866.0,0.3618
867.0,0.3776
868.0,0.4109
869.0,0.4024
870.0,0.4139
871.0,0.4083
872.0,0.4069
873.0,0.4061
874.0,0.4013
875.0,0.3931
876.0,0.3971
877.0,0.4012
878.0,0.4054
879.0,0.3992
880.0,0.3907
881.0,0.3845
882.0,0.3926
883.0,0.3943
884.0,0.3923
885.0,0.3953
886.0,0.3754
887.0,0.3804
888.0,0.3854
889.0,0.3909
890.0,0.3863
891.0,0.3863
892.0,0.3734
893.0,0.3599
894.0,0.3434
895.0,0.3197
896.0,0.2996
897.0,0.2516
898.0,0.2776
899.0,0.2044
900.0,0.2879
901.0,0.2143
902.0,0.2605
903.0,0.26
904.0,0.3408
905.0,0.3272
906.0,0.3046
907.0,0.2383
908.0,0.2447
909.0,0.2689
910.0,0.2305
911.0,0.2507
912.0,0.2631
913.0,0.2335
914.0,0.233
915.0,0.2524
916.0,0.2123
917.0,0.2768
918.0,0.2171
919.0,0.2842
920.0,0.2919
921.0,0.3037
922.0,0.2661
923.0,0.2939
924.0,0.2717
925.0,0.266
926.0,0.2683
927.0,0.3057
928.0,0.209
929.0,0.1867
930.0,0.1403
931.0,0.1335
932.0,0.0896
933.0,0.0698
934.0,0.03209
935.0,0.07388
936.0,0.04208
937.0,0.04234
938.0,0.05357
939.0,0.1292
940.0,0.1602
941.0,0.1147
942.0,0.1363
943.0,0.08489
944.0,0.09408
945.0,0.1196
946.0,0.05451
947.0,0.1184
948.0,0.08626
949.0,0.1648
950.0,0.0368
951.0,0.1633
952.0,0.07961
953.0,0.1082
954.0,0.1388
955.0,0.1101
956.0,0.1117
957.0,0.07913
958.0,0.1659
959.0,0.1246
960.0,0.1396
961.0,0.1625
962.0,0.1532
963.0,0.1816
964.0,0.1649
965.0,0.1812
966.0,0.1802
967.0,0.1788
968.0,0.2587
969.0,0.2678
970.0,0.244
971.0,0.2876
972.0,0.2734
973.0,0.2296
974.0,0.217
975.0,0.2283
976.0,0.2121
977.0,0.2508
978.0,0.2343
979.0,0.2479
980.0,0.2317
981.0,0.2862
982.0,0.2705
983.0,0.258
984.0,0.2985
985.0,0.2694
986.0,0.3061
987.0,0.2974
988.0,0.297
989.0,0.3066
990.0,0.2951
991.0,0.3072
992.0,0.3093
993.0,0.2998
994.0,0.3095
995.0,0.3094
996.0,0.3077
997.0,0.3083
998.0,0.3067
999.0,0.3057
1000.0,0.3029
1001.0,0.3074
1002.0,0.2964
1003.0,0.3018
1004.0,0.2938
1005.0,0.2839
1006.0,0.2946
1007.0,0.301
1008.0,0.299
1009.0,0.2969
1010.0,0.2953
1011.0,0.2996
1012.0,0.2965
1013.0,0.299
1014.0,0.2969
1015.0,0.2949
1016.0,0.2935
1017.0,0.2941
1018.0,0.2933
1019.0,0.2861
1020.0,0.2916
1021.0,0.2914
1022.0,0.2888
1023.0,0.2918
1024.0,0.287
1025.0,0.2919
1026.0,0.2904
1027.0,0.2898
1028.0,0.2891
1029.0,0.2856
1030.0,0.2879
1031.0,0.2866
1032.0,0.2859
1033.0,0.2816
1034.0,0.2816
1035.0,0.2825
1036.0,0.2838
1037.0,0.2793
1038.0,0.2805
1039.0,0.2803
1040.0,0.2791
1041.0,0.2801
1042.0,0.2782
1043.0,0.2772
1044.0,0.2781
1045.0,0.2743
1046.0,0.2712
1047.0,0.2736
1048.0,0.275
1049.0,0.2739
1050.0,0.2726
1051.0,0.2721
1052.0,0.2709
1053.0,0.2686
1054.0,0.2691
1055.0,0.2691
1056.0,0.268
1057.0,0.267
1058.0,0.2603
1059.0,0.2604
1060.0,0.26
1061.0,0.2596
1062.0,0.2608
1063.0,0.2581
1064.0,0.2612
1065.0,0.2589
1066.0,0.2541
1067.0,0.2573
1068.0,0.2514
1069.0,0.2438
1070.0,0.2519
1071.0,0.2567
1072.0,0.253
1073.0,0.2495
1074.0,0.257
1075.0,0.2414
1076.0,0.2566
1077.0,0.2505
1078.0,0.2451
1079.0,0.2529
1080.0,0.2467
1081.0,0.2375
1082.0,0.2435
1083.0,0.2449
1084.0,0.2364
1085.0,0.2475
1086.0,0.2222
1087.0,0.2319
1088.0,0.2442
1089.0,0.2342
1090.0,0.2276
1091.0,0.2427
1092.0,0.2426
1093.0,0.1988
1094.0,0.2211
1095.0,0.2078
1096.0,0.197
1097.0,0.237
1098.0,0.193
1099.0,0.2024
1100.0,0.1853
1101.0,0.1886
1102.0,0.1782
1103.0,0.1752
1104.0,0.1756
1105.0,0.1972
1106.0,0.1397
1107.0,0.1851
1108.0,0.1503
1109.0,0.1519
1110.0,0.1824
1111.0,0.115
1112.0,0.1512
1113.0,0.08761
1114.0,0.09852
1115.0,0.08117
1116.0,0.06001
1117.0,0.01748
1118.0,0.06668
1119.0,0.0291
1120.0,0.03616
1121.0,0.05023
1122.0,0.0179
1123.0,0.03286
1124.0,0.02768
1125.0,0.0371
1126.0,0.009839
1127.0,0.04214
1128.0,0.02172
1129.0,0.02344
1130.0,0.01448
1131.0,0.08909
1132.0,0.06811
1133.0,0.03822
1134.0,0.00747
1135.0,0.002949
1136.0,0.0302
1137.0,0.08565
1138.0,0.05946
1139.0,0.0991
1140.0,0.07879
1141.0,0.05661
1142.0,0.06709
1143.0,0.09973
1144.0,0.03014
1145.0,0.03691
1146.0,0.03974
1147.0,0.0109
1148.0,0.0859
1149.0,0.06561
1150.0,0.03318
1151.0,0.05897
1152.0,0.07616
1153.0,0.07702
1154.0,0.03569
1155.0,0.1032
1156.0,0.09084
1157.0,0.1058
1158.0,0.1045
1159.0,0.1152
1160.0,0.09612
1161.0,0.1242
1162.0,0.1243
1163.0,0.1781
1164.0,0.1491
1165.0,0.137
1166.0,0.1389
1167.0,0.1531
1168.0,0.1539
1169.0,0.1587
1170.0,0.1755
1171.0,0.1709
1172.0,0.176
1173.0,0.1752
1174.0,0.1179
1175.0,0.1728
1176.0,0.1939
1177.0,0.1834
1178.0,0.1324
1179.0,0.1956
1180.0,0.1702
1181.0,0.1759
1182.0,0.1154
1183.0,0.1741
1184.0,0.1612
1185.0,0.1537
1186.0,0.1883
1187.0,0.1774
1188.0,0.1164
1189.0,0.165
1190.0,0.1843
1191.0,0.1714
1192.0,0.1873
1193.0,0.1782
1194.0,0.1845
1195.0,0.172
1196.0,0.1642
1197.0,0.1858
1198.0,0.1685
1199.0,0.1381
1200.0,0.1758
1201.0,0.1677
1202.0,0.1682
1203.0,0.1661
1204.0,0.1428
1205.0,0.1736
1206.0,0.1944
1207.0,0.167
1208.0,0.166
1209.0,0.1698
1210.0,0.178
1211.0,0.1676
1212.0,0.163
1213.0,0.1867
1214.0,0.1679
1215.0,0.1644
1216.0,0.1863
1217.0,0.1804
1218.0,0.1847
1219.0,0.1819
1220.0,0.185
1221.0,0.1874
1222.0,0.1821
1223.0,0.18
1224.0,0.1779
1225.0,0.1861
1226.0,0.1881
1227.0,0.1709
1228.0,0.1896
1229.0,0.1881
1230.0,0.1844
1231.0,0.1914
1232.0,0.1902
1233.0,0.1814
1234.0,0.1917
1235.0,0.1902
1236.0,0.1918
1237.0,0.1882
1238.0,0.1912
1239.0,0.1887
1240.0,0.1895
1241.0,0.1881
1242.0,0.1882
1243.0,0.1867
1244.0,0.1878
1245.0,0.1887
1246.0,0.1877
1247.0,0.1868
1248.0,0.1864
1249.0,0.1872
1250.0,0.1859
1251.0,0.1832
1252.0,0.1836
1253.0,0.1814
1254.0,0.1789
1255.0,0.1832
1256.0,0.1766
1257.0,0.1753
1258.0,0.1798
1259.0,0.171
1260.0,0.1722
1261.0,0.1597
1262.0,0.1535
1263.0,0.1537
1264.0,0.1385
1265.0,0.1527
1266.0,0.145
1267.0,0.1489
1268.0,0.139
1269.0,0.07315
1270.0,0.1478
1271.0,0.1595
1272.0,0.1604
1273.0,0.1583
1274.0,0.1593
1275.0,0.1621
1276.0,0.1642
1277.0,0.166
1278.0,0.1704
1279.0,0.1687
1280.0,0.1667
1281.0,0.1596
1282.0,0.1546
1283.0,0.1663
1284.0,0.1701
1285.0,0.1714
1286.0,0.1742
1287.0,0.1706
1288.0,0.1708
1289.0,0.1637
1290.0,0.1694
1291.0,0.1721
1292.0,0.1585
1293.0,0.168
1294.0,0.1667
1295.0,0.1649
1296.0,0.1554
1297.0,0.1455
1298.0,0.1598
1299.0,0.1685
1300.0,0.1374
1301.0,0.1426
1302.0,0.1594
1303.0,0.1362
1304.0,0.1113
1305.0,0.1558
1306.0,0.1554
1307.0,0.1155
1308.0,0.1372
1309.0,0.1535
1310.0,0.1129
1311.0,0.1304
1312.0,0.1262
1313.0,0.1227
1314.0,0.1081
1315.0,0.1056
1316.0,0.1275
1317.0,0.1201
1318.0,0.1326
1319.0,0.09784
1320.0,0.09603
1321.0,0.1138
1322.0,0.1139
1323.0,0.08103
1324.0,0.09617
1325.0,0.1252
1326.0,0.1044
1327.0,0.0988
1328.0,0.0836
1329.0,0.05868
1330.0,0.07848
1331.0,0.04282
1332.0,0.04565
1333.0,0.06445
1334.0,0.0573
1335.0,0.08047
1336.0,0.06109
1337.0,0.05306
1338.0,0.05724
1339.0,0.05765
1340.0,0.0574
1341.0,0.05294
1342.0,0.05595
1343.0,0.03249
1344.0,0.01993
1345.0,0.02864
1346.0,0.0113
1347.0,0.011
1348.0,0.0004311
1349.0,0.001764
1350.0,0.002011
1351.0,0.0003074
1352.0,4.706e-05
1353.0,1.471e-06
1354.0,7.285e-06
1355.0,1.955e-08
1356.0,7.031e-07
1357.0,1.074e-06
1358.0,2.42e-08
1359.0,1.342e-09
1360.0,8.211e-09
1361.0,2.122e-12
1362.0,4.012e-15
1363.0,7.91e-09
1364.0,3.417e-09
1365.0,9.939e-16
1366.0,4.259e-08
1367.0,2.199e-08
1368.0,6.277e-18
1369.0,1.253e-09
1370.0,4.419e-10
1371.0,1.799e-11
1372.0,1.236e-08
1373.0,4.267e-07
1374.0,2.932e-06
1375.0,4.943e-06
1376.0,6.723e-06
1377.0,2.855e-06
1378.0,3.117e-05
1379.0,1.208e-06
1380.0,1.319e-06
1381.0,2.901e-08
1382.0,1.001e-08
1383.0,1.191e-10
1384.0,1.214e-09
1385.0,1.459e-08
1386.0,6.864e-09
1387.0,2.242e-06
1388.0,5.058e-08
1389.0,1.235e-05
1390.0,1.027e-05
1391.0,6.527e-06
1392.0,3.977e-07
1393.0,2.565e-06
1394.0,6.595e-07
1395.0,3.418e-09
1396.0,3.524e-12
1397.0,8.785e-07
1398.0,3.291e-05
1399.0,2.147e-05
1400.0,1.086e-12
1401.0,7.189e-12
1402.0,0.0001107
1403.0,0.0001227
1404.0,3.524e-05
1405.0,1.225e-09
1406.0,7.406e-05
1407.0,8.276e-06
1408.0,6.324e-05
1409.0,1.521e-05
1410.0,1.612e-05
1411.0,0.0001108
1412.0,0.0001756
1413.0,0.002751
1414.0,1.337e-05
1415.0,5.556e-06
1416.0,0.006159
1417.0,0.001414
1418.0,0.001458
1419.0,0.0002121
1420.0,0.0008816
1421.0,0.001012
1422.0,0.008091
1423.0,0.00147
1424.0,0.002914
1425.0,0.003977
1426.0,0.005178
1427.0,0.01093
1428.0,0.0003841
1429.0,0.007378
1430.0,0.01471
1431.0,0.0167
1432.0,0.0002965
1433.0,0.009921
1434.0,0.004708
1435.0,0.003623
