interpolation:linear
wavelength,value
280.0,1.4389999999999999e-22
280.5,4.772e-21
281.0,2.567e-20
281.5,4.01e-19
282.0,5.659e-19
282.5,1.392e-18
283.0,4.391e-18
283.5,7.153e-18
284.0,1.182e-16
284.5,3.46e-16
285.0,5.82e-16
285.5,2.874e-15
286.0,1.158e-14
286.5,5.213e-14
287.0,1.498e-13
287.5,5.788e-13
288.0,2.059e-12
288.5,6.073e-12
289.0,1.594e-11
289.5,4.769e-11
290.0,1.318e-10
290.5,2.684e-10
291.0,5.755e-10
291.5,1.652e-09
292.0,3.321e-09
292.5,4.65e-09
293.0,9.949e-09
293.5,2.415e-08
294.0,3.773e-08
294.5,5.088e-08
295.0,8.61e-08
295.5,1.428e-07
296.0,2.745e-07
296.5,3.822e-07
297.0,5.15e-07
297.5,1.372e-06
298.0,2.148e-06
298.5,2.148e-06
299.0,4.704e-06
299.5,7.709e-06
300.0,8.403e-06
300.5,1.205e-05
301.0,2.14e-05
301.5,3.341e-05
302.0,2.823e-05
302.5,5.617e-05
303.0,0.000103
303.5,0.0001324
304.0,0.0001284
304.5,0.0002088
305.0,0.0003587
305.5,0.0004455
306.0,0.000445
306.5,0.0005846
307.0,0.0009783
307.5,0.001463
308.0,0.001575
308.5,0.001973
309.0,0.002243
309.5,0.002955
310.0,0.003165
310.5,0.005292
311.0,0.006998
311.5,0.006909
312.0,0.007731
312.5,0.01013
313.0,0.01142
313.5,0.0107
314.0,0.01461
314.5,0.01456
315.0,0.01954
315.5,0.01544
316.0,0.01482
316.5,0.02309
317.0,0.02862
317.5,0.0291
318.0,0.02399
318.5,0.03311
319.0,0.04144
319.5,0.031
320.0,0.03697
320.5,0.05154
321.0,0.05056
321.5,0.04894
322.0,0.04702
322.5,0.04112
323.0,0.04382
323.5,0.05781
324.0,0.06824
324.5,0.06733
325.0,0.0558
325.5,0.0758
326.0,0.09494
326.5,0.09862
327.0,0.09698
327.5,0.09209
328.0,0.07812
328.5,0.08709
329.0,0.1093
329.5,0.1258
330.0,0.1255
330.5,0.09691
331.0,0.09756
331.5,0.1019
332.0,0.1144
332.5,0.1152
333.0,0.1137
333.5,0.1001
334.0,0.1021
334.5,0.1217
335.0,0.1166
335.5,0.137
336.0,0.09482
336.5,0.1094
337.0,0.08856
337.5,0.1096
338.0,0.11
338.5,0.1281
339.0,0.1271
339.5,0.1222
340.0,0.1425
340.5,0.1288
341.0,0.1265
341.5,0.1165
342.0,0.1395
342.5,0.1307
343.0,0.1435
343.5,0.135
344.0,0.09913
344.5,0.1006
345.0,0.1337
345.5,0.1368
346.0,0.1165
346.5,0.1321
347.0,0.1416
347.5,0.1145
348.0,0.1309
348.5,0.131
349.0,0.1217
349.5,0.1206
350.0,0.1493
350.5,0.1575
351.0,0.1406
351.5,0.1364
352.0,0.1469
352.5,0.1148
353.0,0.1449
353.5,0.1551
354.0,0.1611
354.5,0.1635
355.0,0.163
355.5,0.1474
356.0,0.1544
356.5,0.1319
357.0,0.109
357.5,0.1335
358.0,0.1059
358.5,0.09053
359.0,0.1267
359.5,0.1613
360.0,0.1712
360.5,0.1369
361.0,0.125
361.5,0.1441
362.0,0.1248
362.5,0.1729
363.0,0.1555
363.5,0.1434
364.0,0.1755
364.5,0.1501
365.0,0.153
365.5,0.1922
366.0,0.2038
366.5,0.1917
367.0,0.1868
367.5,0.194
368.0,0.1699
368.5,0.1716
369.0,0.1855
369.5,0.1979
370.0,0.2111
370.5,0.164
371.0,0.1754
371.5,0.2196
372.0,0.1458
372.5,0.175
373.0,0.1782
373.5,0.116
374.0,0.1687
374.5,0.1399
375.0,0.136
375.5,0.2032
376.0,0.1686
376.5,0.1748
377.0,0.1852
377.5,0.2169
378.0,0.2352
378.5,0.2225
379.0,0.1837
379.5,0.1678
380.0,0.1746
380.5,0.2117
381.0,0.2124
381.5,0.1686
382.0,0.1499
382.5,0.1279
383.0,0.1185
383.5,0.1143
384.0,0.1262
384.5,0.1858
385.0,0.1844
385.5,0.1719
386.0,0.1473
386.5,0.1937
387.0,0.1611
387.5,0.1811
388.0,0.1673
388.5,0.1656
389.0,0.1788
389.5,0.2168
390.0,0.2178
390.5,0.2006
391.0,0.2363
391.5,0.2412
392.0,0.2033
392.5,0.1822
393.0,0.1015
393.5,0.07383
394.0,0.1504
394.5,0.1913
395.0,0.2336
395.5,0.2375
396.0,0.206
396.5,0.1206
397.0,0.09059
397.5,0.1844
398.0,0.2583
398.5,0.2672
399.0,0.2897
399.5,0.289
400.0,0.3001
401.0,0.3021
402.0,0.3193
403.0,0.3039
404.0,0.2997
405.0,0.3
406.0,0.2957
407.0,0.2915
408.0,0.3031
409.0,0.3249
410.0,0.2843
411.0,0.3085
412.0,0.3321
413.0,0.3241
414.0,0.3286
415.0,0.3301
416.0,0.3365
417.0,0.3286
418.0,0.3229
419.0,0.3277
420.0,0.3266
421.0,0.3422
422.0,0.3256
423.0,0.3185
424.0,0.3371
425.0,0.337
426.0,0.329
427.0,0.3232
428.0,0.3152
429.0,0.2992
430.0,0.2622
431.0,0.26
432.0,0.3363
433.0,0.3386
434.0,0.3146
435.0,0.3287
436.0,0.3712
437.0,0.3669
438.0,0.3346
439.0,0.3456
440.0,0.3571
441.0,0.3707
442.0,0.3979
443.0,0.3874
444.0,0.3965
445.0,0.388
446.0,0.3713
447.0,0.4022
448.0,0.4082
449.0,0.4108
450.0,0.4229
451.0,0.4389
452.0,0.4233
453.0,0.3986
454.0,0.4169
455.0,0.4196
456.0,0.4299
457.0,0.4372
458.0,0.4219
459.0,0.42
460.0,0.421
461.0,0.431
462.0,0.435
463.0,0.4321
464.0,0.4259
465.0,0.4215
466.0,0.4263
467.0,0.4184
468.0,0.4234
469.0,0.4257
470.0,0.4121
471.0,0.4118
472.0,0.434
473.0,0.4284
474.0,0.4286
475.0,0.4316
476.0,0.4178
477.0,0.4184
478.0,0.4302
479.0,0.4281
480.0,0.4295
481.0,0.4382
482.0,0.4414
483.0,0.4371
484.0,0.4287
485.0,0.4091
486.0,0.3583
487.0,0.3762
488.0,0.4127
489.0,0.4138
490.0,0.4358
491.0,0.4288
492.0,0.4051
493.0,0.4185
494.0,0.4229
495.0,0.4267
496.0,0.4293
497.0,0.4359
498.0,0.4154
499.0,0.4203
500.0,0.4076
501.0,0.3995
502.0,0.3927
503.0,0.4075
504.0,0.3939
505.0,0.4106
506.0,0.4238
507.0,0.4035
508.0,0.392
509.0,0.4038
510.0,0.4024
511.0,0.4139
512.0,0.4188
513.0,0.3965
514.0,0.3941
515.0,0.3902
516.0,0.3891
517.0,0.3459
518.0,0.3636
519.0,0.3813
520.0,0.395
521.0,0.3987
522.0,0.3987
523.0,0.3913
524.0,0.4047
525.0,0.4085
526.0,0.3899
527.0,0.3667
528.0,0.3873
529.0,0.4077
530.0,0.4015
531.0,0.4072
532.0,0.393
533.0,0.3815
534.0,0.3931
535.0,0.4021
536.0,0.4062
537.0,0.3905
538.0,0.3976
539.0,0.3942
540.0,0.3778
541.0,0.3792
542.0,0.3906
543.0,0.3873
544.0,0.3931
545.0,0.3921
546.0,0.393
547.0,0.3935
548.0,0.3892
549.0,0.3907
550.0,0.3954
551.0,0.3907
552.0,0.3934
553.0,0.3862
554.0,0.3954
555.0,0.3959
556.0,0.3906
557.0,0.3782
558.0,0.3748
559.0,0.3672
560.0,0.3714
561.0,0.3757
562.0,0.3723
563.0,0.3817
564.0,0.3707
565.0,0.367
566.0,0.3611
567.0,0.3672
568.0,0.3622
569.0,0.3503
570.0,0.3506
571.0,0.3493
572.0,0.3554
573.0,0.3588
574.0,0.3571
575.0,0.3496
576.0,0.3465
577.0,0.3506
578.0,0.3464
579.0,0.3493
580.0,0.3585
581.0,0.3622
582.0,0.3708
583.0,0.3731
584.0,0.3772
585.0,0.3686
586.0,0.3611
587.0,0.368
588.0,0.3548
589.0,0.3063
590.0,0.3209
591.0,0.3445
592.0,0.3373
593.0,0.346
594.0,0.3421
595.0,0.3305
596.0,0.3503
597.0,0.3447
598.0,0.3459
599.0,0.347
600.0,0.3492
601.0,0.3477
602.0,0.3455
603.0,0.3519
604.0,0.3581
605.0,0.3567
606.0,0.3559
607.0,0.3603
608.0,0.3571
609.0,0.3583
610.0,0.3565
611.0,0.3589
612.0,0.3583
613.0,0.3542
614.0,0.35
615.0,0.3583
616.0,0.347
617.0,0.3467
618.0,0.3604
619.0,0.357
620.0,0.3593
621.0,0.3591
622.0,0.3544
623.0,0.3486
624.0,0.3431
625.0,0.3423
626.0,0.3471
627.0,0.3494
628.0,0.3072
629.0,0.3344
630.0,0.326
631.0,0.3399
632.0,0.3371
633.0,0.3501
634.0,0.3489
635.0,0.3554
636.0,0.352
637.0,0.3587
638.0,0.3637
639.0,0.3604
640.0,0.3579
641.0,0.3584
642.0,0.3576
643.0,0.3625
644.0,0.3622
645.0,0.3623
646.0,0.3516
647.0,0.342
648.0,0.3427
649.0,0.3352
650.0,0.3438
651.0,0.3599
652.0,0.3382
653.0,0.3556
654.0,0.3522
655.0,0.3356
656.0,0.2999
657.0,0.3084
658.0,0.3478
659.0,0.3512
660.0,0.3532
661.0,0.356
662.0,0.3555
663.0,0.349
664.0,0.355
665.0,0.3568
666.0,0.3577
667.0,0.3581
668.0,0.3591
669.0,0.3652
670.0,0.3639
671.0,0.3643
672.0,0.3614
673.0,0.3672
674.0,0.3662
675.0,0.3632
676.0,0.366
677.0,0.3627
678.0,0.364
679.0,0.3584
680.0,0.3614
681.0,0.3591
682.0,0.3587
683.0,0.3581
684.0,0.3563
685.0,0.3597
686.0,0.3572
687.0,0.1601
688.0,0.2195
689.0,0.2215
690.0,0.2444
691.0,0.2719
692.0,0.2943
693.0,0.2912
694.0,0.2909
695.0,0.3131
696.0,0.3143
697.0,0.345
698.0,0.3394
699.0,0.3233
700.0,0.3189
701.0,0.3124
702.0,0.3178
703.0,0.3193
704.0,0.3343
705.0,0.3347
706.0,0.3362
707.0,0.3373
708.0,0.3378
709.0,0.3417
710.0,0.3398
711.0,0.3406
712.0,0.3412
713.0,0.3362
714.0,0.338
715.0,0.3239
716.0,0.3233
717.0,0.2517
718.0,0.2291
719.0,0.2077
720.0,0.2145
721.0,0.2527
722.0,0.3066
723.0,0.2769
724.0,0.2388
725.0,0.2317
726.0,0.2433
727.0,0.254
728.0,0.2299
729.0,0.2483
730.0,0.2601
731.0,0.2473
732.0,0.2751
733.0,0.3007
734.0,0.3111
735.0,0.3029
736.0,0.3019
737.0,0.3033
738.0,0.3159
739.0,0.3099
740.0,0.3203
741.0,0.3185
742.0,0.3203
743.0,0.3289
744.0,0.3289
745.0,0.3298
746.0,0.3313
747.0,0.3322
748.0,0.3316
749.0,0.3279
750.0,0.3278
751.0,0.3245
752.0,0.326
753.0,0.3278
754.0,0.3285
755.0,0.3266
756.0,0.3266
757.0,0.3271
758.0,0.3228
759.0,0.311
760.0,0.01036
761.0,0.003484
762.0,0.08515
763.0,0.02234
764.0,0.04842
765.0,0.08491
766.0,0.1319
767.0,0.2019
768.0,0.2672
769.0,0.2812
770.0,0.3005
771.0,0.3074
772.0,0.3095
773.0,0.312
774.0,0.3108
775.0,0.3087
776.0,0.3125
777.0,0.3085
778.0,0.3066
779.0,0.3068
780.0,0.3052
781.0,0.3056
782.0,0.3076
783.0,0.3024
784.0,0.304
785.0,0.3014
786.0,0.3044
787.0,0.2951
788.0,0.2896
789.0,0.2894
790.0,0.2766
791.0,0.2842
792.0,0.2829
793.0,0.2778
794.0,0.2878
795.0,0.2912
796.0,0.2749
797.0,0.2745
798.0,0.2899
799.0,0.2868
800.0,0.2801
801.0,0.2774
802.0,0.2764
803.0,0.2733
804.0,0.2746
805.0,0.2759
806.0,0.2875
807.0,0.2832
808.0,0.2837
809.0,0.2755
810.0,0.2716
811.0,0.2684
812.0,0.2553
813.0,0.2482
814.0,0.2054
815.0,0.2052
816.0,0.1892
817.0,0.1933
818.0,0.183
819.0,0.2156
820.0,0.1993
821.0,0.2499
822.0,0.24
823.0,0.1385
824.0,0.2265
825.0,0.2458
826.0,0.2307
827.0,0.2492
828.0,0.195
829.0,0.2305
830.0,0.2264
831.0,0.2271
832.0,0.2172
833.0,0.2384
834.0,0.2252
835.0,0.2595
836.0,0.2399
837.0,0.2603
838.0,0.2479
839.0,0.2568
840.0,0.2635
841.0,0.258
842.0,0.2614
843.0,0.2642
844.0,0.259
845.0,0.2698
846.0,0.2692
847.0,0.265
848.0,0.2621
849.0,0.2546
850.0,0.2441
851.0,0.257
852.0,0.2559
853.0,0.2474
854.0,0.2127
855.0,0.235
856.0,0.2562
857.0,0.2629
858.0,0.2605
859.0,0.2613
860.0,0.2622
861.0,0.2607
862.0,0.265
863.0,0.2712
864.0,0.2578
865.0,0.2556
866.0,0.2299
867.0,0.2399
868.0,0.2611
869.0,0.2558
870.0,0.2631
871.0,0.2595
872.0,0.2587
873.0,0.2582
874.0,0.2551
875.0,0.2499
876.0,0.2524
877.0,0.255
878.0,0.2576
879.0,0.2537
880.0,0.2483
881.0,0.2439
882.0,0.2489
883.0,0.2504
884.0,0.2489
885.0,0.2508
886.0,0.2366
887.0,0.241
888.0,0.2436
889.0,0.2483
890.0,0.2437
891.0,0.2446
892.0,0.2343
893.0,0.224
894.0,0.2094
895.0,0.1897
896.0,0.1767
897.0,0.1429
898.0,0.16
899.0,0.112
900.0,0.1698
901.0,0.1173
902.0,0.1505
903.0,0.1472
904.0,0.2076
905.0,0.1977
906.0,0.1824
907.0,0.1333
908.0,0.1391
909.0,0.156
910.0,0.1274
911.0,0.1443
912.0,0.151
913.0,0.1287
914.0,0.1299
915.0,0.1396
916.0,0.117
917.0,0.1587
918.0,0.1189
919.0,0.1655
920.0,0.1758
921.0,0.1819
922.0,0.1548
923.0,0.1768
924.0,0.1561
925.0,0.1534
926.0,0.1535
927.0,0.1795
928.0,0.1095
929.0,0.09434
930.0,0.06532
931.0,0.0617
932.0,0.03637
933.0,0.02643
934.0,0.008825
935.0,0.0294
936.0,0.01433
937.0,0.01443
938.0,0.01908
939.0,0.05954
940.0,0.07808
941.0,0.05106
942.0,0.0629
943.0,0.03565
944.0,0.04345
945.0,0.05441
946.0,0.02037
947.0,0.05259
948.0,0.03799
949.0,0.07825
950.0,0.0123
951.0,0.07777
952.0,0.03269
953.0,0.04819
954.0,0.06613
955.0,0.04955
956.0,0.05624
957.0,0.03236
958.0,0.08709
959.0,0.05974
960.0,0.06703
961.0,0.0828
962.0,0.07809
963.0,0.09682
964.0,0.08682
965.0,0.09599
966.0,0.09548
967.0,0.09392
968.0,0.1543
969.0,0.1565
970.0,0.1415
971.0,0.1746
972.0,0.164
973.0,0.1301
974.0,0.1227
975.0,0.1312
976.0,0.1173
977.0,0.1489
978.0,0.1351
979.0,0.1448
980.0,0.1345
981.0,0.1739
982.0,0.1615
983.0,0.1526
984.0,0.1853
985.0,0.1605
986.0,0.1925
987.0,0.1846
988.0,0.1846
989.0,0.1945
990.0,0.1833
991.0,0.1946
992.0,0.1962
993.0,0.1876
994.0,0.1966
995.0,0.1971
996.0,0.1955
997.0,0.1961
998.0,0.1949
999.0,0.1944
1000.0,0.192
1001.0,0.1956
1002.0,0.1857
1003.0,0.1919
1004.0,0.186
1005.0,0.1808
1006.0,0.1871
1007.0,0.1914
1008.0,0.1896
1009.0,0.1877
1010.0,0.1865
1011.0,0.1906
1012.0,0.1881
1013.0,0.1904
1014.0,0.189
1015.0,0.1877
1016.0,0.1867
1017.0,0.187
1018.0,0.1869
1019.0,0.1811
1020.0,0.1856
1021.0,0.1857
1022.0,0.1836
1023.0,0.1854
1024.0,0.1813
1025.0,0.1859
1026.0,0.1846
1027.0,0.1843
1028.0,0.1838
1029.0,0.1814
1030.0,0.1833
1031.0,0.1823
1032.0,0.182
1033.0,0.1792
1034.0,0.1793
1035.0,0.1798
1036.0,0.1806
1037.0,0.1777
1038.0,0.1784
1039.0,0.1782
1040.0,0.1774
1041.0,0.178
1042.0,0.1767
1043.0,0.1761
1044.0,0.1766
1045.0,0.1741
1046.0,0.172
1047.0,0.1735
1048.0,0.1743
1049.0,0.1735
1050.0,0.1725
1051.0,0.1721
1052.0,0.1712
1053.0,0.1697
1054.0,0.1698
1055.0,0.1696
1056.0,0.1687
1057.0,0.1679
1058.0,0.1636
1059.0,0.1635
1060.0,0.1631
1061.0,0.1627
1062.0,0.1633
1063.0,0.1614
1064.0,0.1634
1065.0,0.1616
1066.0,0.1589
1067.0,0.1608
1068.0,0.1568
1069.0,0.1524
1070.0,0.1571
1071.0,0.1611
1072.0,0.1581
1073.0,0.156
1074.0,0.1618
1075.0,0.1495
1076.0,0.1614
1077.0,0.1562
1078.0,0.152
1079.0,0.1597
1080.0,0.1538
1081.0,0.1467
1082.0,0.1527
1083.0,0.1543
1084.0,0.1455
1085.0,0.1545
1086.0,0.1355
1087.0,0.1434
1088.0,0.1534
1089.0,0.1444
1090.0,0.1393
1091.0,0.1518
1092.0,0.1521
1093.0,0.1184
1094.0,0.1378
1095.0,0.1236
1096.0,0.1156
1097.0,0.1487
1098.0,0.112
1099.0,0.1184
1100.0,0.1062
1101.0,0.1091
1102.0,0.1012
1103.0,0.09821
1104.0,0.09867
1105.0,0.1148
1106.0,0.07205
1107.0,0.1061
1108.0,0.08062
1109.0,0.08213
1110.0,0.103
1111.0,0.05746
1112.0,0.08206
1113.0,0.04089
1114.0,0.04602
1115.0,0.03716
1116.0,0.02428
1117.0,0.004918
1118.0,0.02749
1119.0,0.009674
1120.0,0.01155
1121.0,0.01717
1122.0,0.004509
1123.0,0.01058
1124.0,0.008873
1125.0,0.01256
1126.0,0.002002
1127.0,0.01441
1128.0,0.005688
1129.0,0.006262
1130.0,0.003763
1131.0,0.03679
1132.0,0.02685
1133.0,0.01214
1134.0,0.001501
1135.0,0.0006657
1136.0,0.008644
1137.0,0.03416
1138.0,0.02301
1139.0,0.0466
1140.0,0.03412
1141.0,0.02204
1142.0,0.02741
1143.0,0.04455
1144.0,0.01057
1145.0,0.01164
1146.0,0.01251
1147.0,0.002188
1148.0,0.03759
1149.0,0.02673
1150.0,0.01255
1151.0,0.02286
1152.0,0.03206
1153.0,0.03453
1154.0,0.01179
1155.0,0.04849
1156.0,0.04103
1157.0,0.05194
1158.0,0.05114
1159.0,0.05773
1160.0,0.04751
1161.0,0.06606
1162.0,0.06551
1163.0,0.1032
1164.0,0.08337
1165.0,0.07342
1166.0,0.07739
1167.0,0.08675
1168.0,0.08662
1169.0,0.08995
1170.0,0.1025
1171.0,0.09985
1172.0,0.1049
1173.0,0.1024
1174.0,0.06302
1175.0,0.103
1176.0,0.1199
1177.0,0.1105
1178.0,0.07515
1179.0,0.1208
1180.0,0.1008
1181.0,0.1042
1182.0,0.06284
1183.0,0.104
1184.0,0.09431
1185.0,0.08812
1186.0,0.1142
1187.0,0.1056
1188.0,0.06211
1189.0,0.09794
1190.0,0.1124
1191.0,0.1002
1192.0,0.1146
1193.0,0.1076
1194.0,0.1124
1195.0,0.1019
1196.0,0.09581
1197.0,0.1141
1198.0,0.1026
1199.0,0.07852
1200.0,0.1062
1201.0,0.0991
1202.0,0.1015
1203.0,0.09871
1204.0,0.08285
1205.0,0.1062
1206.0,0.1216
1207.0,0.09985
1208.0,0.101
1209.0,0.1034
1210.0,0.1099
1211.0,0.1016
1212.0,0.09516
1213.0,0.1151
1214.0,0.09928
1215.0,0.09699
1216.0,0.1153
1217.0,0.1106
1218.0,0.1142
1219.0,0.1117
1220.0,0.1145
1221.0,0.1168
1222.0,0.1131
1223.0,0.1112
1224.0,0.1086
1225.0,0.1156
1226.0,0.1179
1227.0,0.1039
1228.0,0.1195
1229.0,0.1179
1230.0,0.115
1231.0,0.1214
1232.0,0.1206
1233.0,0.1122
1234.0,0.1222
1235.0,0.1208
1236.0,0.1222
1237.0,0.1189
1238.0,0.1218
1239.0,0.1202
1240.0,0.1209
1241.0,0.1192
1242.0,0.1199
1243.0,0.119
1244.0,0.1195
1245.0,0.1202
1246.0,0.1196
1247.0,0.1188
1248.0,0.1182
1249.0,0.119
1250.0,0.118
1251.0,0.1158
1252.0,0.1167
1253.0,0.1141
1254.0,0.1118
1255.0,0.1161
1256.0,0.1099
1257.0,0.1087
1258.0,0.1131
1259.0,0.1046
1260.0,0.1056
1261.0,0.09435
1262.0,0.0888
1263.0,0.08883
1264.0,0.07606
1265.0,0.08836
1266.0,0.08145
1267.0,0.08536
1268.0,0.07706
1269.0,0.02846
1270.0,0.08407
1271.0,0.09475
1272.0,0.0956
1273.0,0.09398
1274.0,0.09511
1275.0,0.09744
1276.0,0.09947
1277.0,0.1016
1278.0,0.1056
1279.0,0.1046
1280.0,0.1034
1281.0,0.09966
1282.0,0.09772
1283.0,0.1049
1284.0,0.1071
1285.0,0.1081
1286.0,0.1105
1287.0,0.1071
1288.0,0.1076
1289.0,0.1008
1290.0,0.1068
1291.0,0.1089
1292.0,0.09631
1293.0,0.1054
1294.0,0.1044
1295.0,0.1018
1296.0,0.09367
1297.0,0.08616
1298.0,0.09826
1299.0,0.1061
1300.0,0.0809
1301.0,0.08481
1302.0,0.09814
1303.0,0.08064
1304.0,0.06107
1305.0,0.09572
1306.0,0.09471
1307.0,0.06521
1308.0,0.08213
1309.0,0.09249
1310.0,0.06316
1311.0,0.07687
1312.0,0.07385
1313.0,0.07029
1314.0,0.06004
1315.0,0.05766
1316.0,0.07413
1317.0,0.06901
1318.0,0.07843
1319.0,0.05216
1320.0,0.05217
1321.0,0.06412
1322.0,0.06297
1323.0,0.04025
1324.0,0.05158
1325.0,0.07188
1326.0,0.05725
1327.0,0.05326
1328.0,0.04334
1329.0,0.02665
1330.0,0.03794
1331.0,0.01711
1332.0,0.01914
1333.0,0.0277
1334.0,0.02759
1335.0,0.03932
1336.0,0.02756
1337.0,0.02371
1338.0,0.02518
1339.0,0.02578
1340.0,0.02683
1341.0,0.02198
1342.0,0.0237
1343.0,0.01042
1344.0,0.006785
1345.0,0.009219
1346.0,0.002366
1347.0,0.002083
1348.0,3.84e-05
1349.0,0.0001779
1350.0,0.0002193
1351.0,1.756e-05
1352.0,1.532e-06
1353.0,5.808e-08
1354.0,2.599e-07
1355.0,1.394e-09
1356.0,2.821e-08
1357.0,4.261e-08
1358.0,1.642e-09
1359.0,2.024e-10
1360.0,7.368e-10
1361.0,8.17e-13
1362.0,2.235e-15
1363.0,9.837e-10
1364.0,4.067e-10
1365.0,7.802e-16
1366.0,4.27e-09
1367.0,1.757e-09
1368.0,6.025e-18
1369.0,1.499e-10
1370.0,7.364e-11
1371.0,4.172e-12
1372.0,9.55e-10
1373.0,2.018e-08
1374.0,1.061e-07
1375.0,1.795e-07
1376.0,2.327e-07
1377.0,1.001e-07
1378.0,9.742e-07
1379.0,4.357e-08
1380.0,4.809e-08
1381.0,1.206e-09
1382.0,8.336e-10
1383.0,1.242e-11
1384.0,1.622e-10
1385.0,8.092e-10
1386.0,7.306e-10
1387.0,9.347e-08
1388.0,2.044e-09
1389.0,3.957e-07
1390.0,3.219e-07
1391.0,2.157e-07
1392.0,1.434e-08
1393.0,8.701e-08
1394.0,3.14e-08
1395.0,2.255e-10
1396.0,1.064e-12
1397.0,3.053e-08
1398.0,9.726e-07
1399.0,6.442e-07
1400.0,4.547e-13
1401.0,1.887e-12
1402.0,6.081e-06
1403.0,5.382e-06
1404.0,1.355e-06
1405.0,1.052e-10
1406.0,2.274e-06
1407.0,4.172e-07
1408.0,2.02e-06
1409.0,4.429e-07
1410.0,5.783e-07
1411.0,5.091e-06
1412.0,1.023e-05
1413.0,0.0002631
1414.0,5.084e-07
1415.0,1.945e-07
1416.0,0.001104
1417.0,0.0001825
1418.0,0.0001286
1419.0,1.741e-05
1420.0,7.706e-05
1421.0,0.0001233
1422.0,0.001432
1423.0,0.0002524
1424.0,0.0005816
