interpolation:linear
wavelength,value
280.0,1.6419999999999998e-22
280.5,5.438e-21
281.0,2.924e-20
281.5,3.908e-19
282.0,5.811e-19
282.5,1.434e-18
283.0,4.53e-18
283.5,7.38e-18
284.0,1.22e-16
284.5,3.568e-16
285.0,5.917e-16
285.5,2.938e-15
286.0,1.185e-14
286.5,5.34e-14
287.0,1.535e-13
287.5,5.931e-13
288.0,2.105e-12
288.5,6.239e-12
289.0,1.641e-11
289.5,4.918e-11
290.0,1.361e-10
290.5,2.77e-10
291.0,5.941e-10
291.5,1.705e-09
292.0,3.422e-09
292.5,4.796e-09
293.0,1.027e-08
293.5,2.497e-08
294.0,3.904e-08
294.5,5.298e-08
295.0,8.971e-08
295.5,1.486e-07
296.0,2.865e-07
296.5,4.003e-07
297.0,5.409e-07
297.5,1.449e-06
298.0,2.279e-06
298.5,2.288e-06
299.0,5.034e-06
299.5,8.322e-06
300.0,9.119e-06
300.5,1.315e-05
301.0,2.36e-05
301.5,3.722e-05
302.0,3.162e-05
302.5,6.294e-05
303.0,0.0001162
303.5,0.0001501
304.0,0.0001458
304.5,0.000238
305.0,0.0004113
305.5,0.0005128
306.0,0.000513
306.5,0.0006755
307.0,0.001136
307.5,0.001709
308.0,0.001841
308.5,0.002312
309.0,0.002559
309.5,0.003343
310.0,0.003568
310.5,0.005954
311.0,0.00785
311.5,0.00774
312.0,0.008602
312.5,0.01122
313.0,0.01262
313.5,0.01185
314.0,0.0161
314.5,0.01593
315.0,0.02135
315.5,0.01693
316.0,0.01616
316.5,0.02504
317.0,0.03105
317.5,0.03162
318.0,0.02598
318.5,0.03562
319.0,0.04444
319.5,0.03342
320.0,0.0399
320.5,0.05525
321.0,0.05387
321.5,0.05212
322.0,0.0504
322.5,0.04407
323.0,0.04676
323.5,0.0613
324.0,0.07231
324.5,0.07149
325.0,0.0595
325.5,0.08056
326.0,0.1005
326.5,0.1042
327.0,0.1026
327.5,0.0975
328.0,0.083
328.5,0.09215
329.0,0.1152
329.5,0.1326
330.0,0.1324
330.5,0.1025
331.0,0.1032
331.5,0.1076
332.0,0.1206
332.5,0.1212
333.0,0.1198
333.5,0.1056
334.0,0.1077
334.5,0.1282
335.0,0.1226
335.5,0.144
336.0,0.09967
336.5,0.1151
337.0,0.09331
337.5,0.1156
338.0,0.1157
338.5,0.1347
339.0,0.1336
339.5,0.1284
340.0,0.1499
340.5,0.1355
341.0,0.1329
341.5,0.1225
342.0,0.1465
342.5,0.1373
343.0,0.1508
343.5,0.1419
344.0,0.1043
344.5,0.1058
345.0,0.1405
345.5,0.1438
346.0,0.1224
346.5,0.1388
347.0,0.1488
347.5,0.1203
348.0,0.1375
348.5,0.1377
349.0,0.1279
349.5,0.1267
350.0,0.1568
350.5,0.1655
351.0,0.1478
351.5,0.1434
352.0,0.1543
352.5,0.1207
353.0,0.1522
353.5,0.1629
354.0,0.1693
354.5,0.1718
355.0,0.1712
355.5,0.1549
356.0,0.1622
356.5,0.1385
357.0,0.1145
357.5,0.1403
358.0,0.1112
358.5,0.09511
359.0,0.1331
359.5,0.1695
360.0,0.1798
360.5,0.1439
361.0,0.1313
361.5,0.1514
362.0,0.1311
362.5,0.1817
363.0,0.1633
363.5,0.1506
364.0,0.1844
364.5,0.1577
365.0,0.1607
365.5,0.2019
366.0,0.2141
366.5,0.2014
367.0,0.1963
367.5,0.2038
368.0,0.1785
368.5,0.1802
369.0,0.1948
369.5,0.2078
370.0,0.2217
370.5,0.1722
371.0,0.1842
371.5,0.2306
372.0,0.1531
372.5,0.1838
373.0,0.1871
373.5,0.1218
374.0,0.1772
374.5,0.1469
375.0,0.1429
375.5,0.2134
376.0,0.177
376.5,0.1836
377.0,0.1945
377.5,0.2278
378.0,0.247
378.5,0.2336
379.0,0.1929
379.5,0.1762
380.0,0.1833
380.5,0.2223
381.0,0.223
381.5,0.177
382.0,0.1573
382.5,0.1343
383.0,0.1245
383.5,0.12
384.0,0.1325
384.5,0.195
385.0,0.1935
385.5,0.1804
386.0,0.1547
386.5,0.2034
387.0,0.1691
387.5,0.1901
388.0,0.1756
388.5,0.1738
389.0,0.1877
389.5,0.2275
390.0,0.2285
390.5,0.2105
391.0,0.248
391.5,0.2531
392.0,0.2133
392.5,0.1912
393.0,0.1065
393.5,0.07747
394.0,0.1578
394.5,0.2008
395.0,0.2451
395.5,0.2492
396.0,0.2162
396.5,0.1265
397.0,0.09504
397.5,0.1934
398.0,0.271
398.5,0.2803
399.0,0.3039
399.5,0.3031
400.0,0.3149
401.0,0.317
402.0,0.3351
403.0,0.3189
404.0,0.3144
405.0,0.3148
406.0,0.3103
407.0,0.3058
408.0,0.318
409.0,0.3408
410.0,0.2983
411.0,0.3236
412.0,0.3483
413.0,0.3399
414.0,0.3446
415.0,0.3461
416.0,0.3528
417.0,0.3445
418.0,0.3386
419.0,0.3435
420.0,0.3424
421.0,0.3587
422.0,0.3413
423.0,0.3338
424.0,0.3533
425.0,0.3532
426.0,0.3448
427.0,0.3387
428.0,0.3303
429.0,0.3135
430.0,0.2748
431.0,0.2724
432.0,0.3523
433.0,0.3547
434.0,0.3296
435.0,0.3444
436.0,0.3888
437.0,0.3843
438.0,0.3504
439.0,0.362
440.0,0.374
441.0,0.3882
442.0,0.4166
443.0,0.4057
444.0,0.4152
445.0,0.4063
446.0,0.3887
447.0,0.421
448.0,0.4273
449.0,0.43
450.0,0.4426
451.0,0.4594
452.0,0.4431
453.0,0.4172
454.0,0.4362
455.0,0.439
456.0,0.4498
457.0,0.4575
458.0,0.4415
459.0,0.4395
460.0,0.4406
461.0,0.451
462.0,0.4551
463.0,0.4521
464.0,0.4456
465.0,0.4409
466.0,0.4459
467.0,0.4376
468.0,0.4429
469.0,0.4453
470.0,0.431
471.0,0.4307
472.0,0.4539
473.0,0.4481
474.0,0.4482
475.0,0.4514
476.0,0.4371
477.0,0.4377
478.0,0.4501
479.0,0.4479
480.0,0.4493
481.0,0.4584
482.0,0.4617
483.0,0.4571
484.0,0.4483
485.0,0.4278
486.0,0.3746
487.0,0.3932
488.0,0.4314
489.0,0.4325
490.0,0.4556
491.0,0.4482
492.0,0.4234
493.0,0.4374
494.0,0.442
495.0,0.4459
496.0,0.4486
497.0,0.4555
498.0,0.4341
499.0,0.4393
500.0,0.426
501.0,0.4176
502.0,0.4106
503.0,0.4261
504.0,0.4121
505.0,0.4294
506.0,0.4433
507.0,0.422
508.0,0.4099
509.0,0.4222
510.0,0.4207
511.0,0.4326
512.0,0.4377
513.0,0.4144
514.0,0.4119
515.0,0.4078
516.0,0.4067
517.0,0.3615
518.0,0.38
519.0,0.3985
520.0,0.4129
521.0,0.4167
522.0,0.4167
523.0,0.409
524.0,0.4231
525.0,0.4272
526.0,0.4077
527.0,0.3835
528.0,0.4051
529.0,0.4265
530.0,0.42
531.0,0.4259
532.0,0.4111
533.0,0.3991
534.0,0.4112
535.0,0.4206
536.0,0.4248
537.0,0.4084
538.0,0.4159
539.0,0.4123
540.0,0.3951
541.0,0.3967
542.0,0.4086
543.0,0.4051
544.0,0.4113
545.0,0.4102
546.0,0.4112
547.0,0.4117
548.0,0.4072
549.0,0.4087
550.0,0.4136
551.0,0.4087
552.0,0.4115
553.0,0.404
554.0,0.4136
555.0,0.4142
556.0,0.4087
557.0,0.3956
558.0,0.3921
559.0,0.3842
560.0,0.3887
561.0,0.3932
562.0,0.3897
563.0,0.3996
564.0,0.3881
565.0,0.3843
566.0,0.3781
567.0,0.3846
568.0,0.3794
569.0,0.3671
570.0,0.3674
571.0,0.3661
572.0,0.3726
573.0,0.3762
574.0,0.3745
575.0,0.3667
576.0,0.3634
577.0,0.3677
578.0,0.3631
579.0,0.3662
580.0,0.3756
581.0,0.3794
582.0,0.3882
583.0,0.3905
584.0,0.3948
585.0,0.3857
586.0,0.3779
587.0,0.3851
588.0,0.3717
589.0,0.3213
590.0,0.3366
591.0,0.361
592.0,0.3537
593.0,0.3626
594.0,0.3586
595.0,0.3466
596.0,0.3669
597.0,0.3612
598.0,0.3623
599.0,0.3635
600.0,0.3657
601.0,0.364
602.0,0.3617
603.0,0.3683
604.0,0.3748
605.0,0.3733
606.0,0.3724
607.0,0.3769
608.0,0.3735
609.0,0.3748
610.0,0.3729
611.0,0.3753
612.0,0.3747
613.0,0.3703
614.0,0.3659
615.0,0.3745
616.0,0.3627
617.0,0.3623
618.0,0.3767
619.0,0.3731
620.0,0.3754
621.0,0.3753
622.0,0.3704
623.0,0.3644
624.0,0.3586
625.0,0.3577
626.0,0.3628
627.0,0.3653
628.0,0.3224
629.0,0.3501
630.0,0.3413
631.0,0.3555
632.0,0.3525
633.0,0.3658
634.0,0.3644
635.0,0.3712
636.0,0.3675
637.0,0.3745
638.0,0.3796
639.0,0.3761
640.0,0.3734
641.0,0.3739
642.0,0.373
643.0,0.3781
644.0,0.3777
645.0,0.3779
646.0,0.3668
647.0,0.3571
648.0,0.3578
649.0,0.3501
650.0,0.3586
651.0,0.3753
652.0,0.3531
653.0,0.3708
654.0,0.3672
655.0,0.3501
656.0,0.3127
657.0,0.3215
658.0,0.3625
659.0,0.366
660.0,0.3681
661.0,0.3709
662.0,0.3705
663.0,0.3636
664.0,0.3698
665.0,0.3716
666.0,0.3725
667.0,0.3729
668.0,0.3739
669.0,0.3801
670.0,0.3788
671.0,0.3791
672.0,0.3762
673.0,0.3822
674.0,0.3811
675.0,0.3779
676.0,0.3808
677.0,0.3773
678.0,0.3787
679.0,0.3728
680.0,0.376
681.0,0.3736
682.0,0.3732
683.0,0.3725
684.0,0.3707
685.0,0.3742
686.0,0.3716
687.0,0.1708
688.0,0.2319
689.0,0.2338
690.0,0.2572
691.0,0.2852
692.0,0.3077
693.0,0.3046
694.0,0.304
695.0,0.3266
696.0,0.3277
697.0,0.3591
698.0,0.3532
699.0,0.3369
700.0,0.3324
701.0,0.3259
702.0,0.3313
703.0,0.3327
704.0,0.3481
705.0,0.3485
706.0,0.35
707.0,0.3511
708.0,0.3516
709.0,0.3554
710.0,0.3536
711.0,0.3543
712.0,0.3549
713.0,0.3498
714.0,0.3516
715.0,0.3372
716.0,0.3366
717.0,0.2637
718.0,0.2401
719.0,0.2177
720.0,0.2251
721.0,0.2643
722.0,0.3196
723.0,0.2891
724.0,0.2499
725.0,0.2427
726.0,0.2548
727.0,0.2655
728.0,0.2408
729.0,0.2595
730.0,0.2721
731.0,0.2587
732.0,0.2871
733.0,0.3133
734.0,0.3239
735.0,0.3155
736.0,0.3146
737.0,0.316
738.0,0.3286
739.0,0.3223
740.0,0.333
741.0,0.3311
742.0,0.3328
743.0,0.3417
744.0,0.3417
745.0,0.3425
746.0,0.3441
747.0,0.3451
748.0,0.3444
749.0,0.3406
750.0,0.3404
751.0,0.337
752.0,0.3386
753.0,0.3404
754.0,0.3412
755.0,0.3392
756.0,0.3392
757.0,0.3396
758.0,0.3352
759.0,0.3233
760.0,0.01176
761.0,0.003975
762.0,0.09211
763.0,0.02503
764.0,0.05324
765.0,0.09188
766.0,0.1407
767.0,0.2127
768.0,0.2789
769.0,0.293
770.0,0.3125
771.0,0.3193
772.0,0.3214
773.0,0.324
774.0,0.3227
775.0,0.3205
776.0,0.3245
777.0,0.3202
778.0,0.3183
779.0,0.3185
780.0,0.3169
781.0,0.3172
782.0,0.3193
783.0,0.3139
784.0,0.3156
785.0,0.3129
786.0,0.316
787.0,0.3066
788.0,0.301
789.0,0.3008
790.0,0.2878
791.0,0.2954
792.0,0.294
793.0,0.2887
794.0,0.2988
795.0,0.3024
796.0,0.2859
797.0,0.2856
798.0,0.3012
799.0,0.298
800.0,0.2911
801.0,0.2884
802.0,0.2875
803.0,0.2843
804.0,0.2856
805.0,0.2868
806.0,0.2986
807.0,0.2942
808.0,0.2947
809.0,0.2864
810.0,0.2824
811.0,0.2792
812.0,0.266
813.0,0.2587
814.0,0.2147
815.0,0.2144
816.0,0.1978
817.0,0.2021
818.0,0.1916
819.0,0.2251
820.0,0.2083
821.0,0.2601
822.0,0.25
823.0,0.1456
824.0,0.2362
825.0,0.2557
826.0,0.2404
827.0,0.2593
828.0,0.2039
829.0,0.2401
830.0,0.2358
831.0,0.2366
832.0,0.2265
833.0,0.2482
834.0,0.2346
835.0,0.2696
836.0,0.2498
837.0,0.2705
838.0,0.2579
839.0,0.2669
840.0,0.2738
841.0,0.2682
842.0,0.2715
843.0,0.2743
844.0,0.2689
845.0,0.28
846.0,0.2793
847.0,0.275
848.0,0.272
849.0,0.2643
850.0,0.2533
851.0,0.2668
852.0,0.2656
853.0,0.2567
854.0,0.2208
855.0,0.2438
856.0,0.2659
857.0,0.2727
858.0,0.2703
859.0,0.2712
860.0,0.272
861.0,0.2704
862.0,0.2749
863.0,0.2814
864.0,0.2674
865.0,0.2652
866.0,0.2384
867.0,0.2489
868.0,0.2709
869.0,0.2653
870.0,0.2729
871.0,0.2692
872.0,0.2683
873.0,0.2678
874.0,0.2646
875.0,0.2592
876.0,0.2618
877.0,0.2646
878.0,0.2672
879.0,0.2631
880.0,0.2575
881.0,0.253
882.0,0.2582
883.0,0.2597
884.0,0.2583
885.0,0.2602
886.0,0.2457
887.0,0.2501
888.0,0.2528
889.0,0.2576
890.0,0.253
891.0,0.2538
892.0,0.2433
893.0,0.2328
894.0,0.218
895.0,0.198
896.0,0.1846
897.0,0.1497
898.0,0.1675
899.0,0.1177
900.0,0.1773
901.0,0.1233
902.0,0.1575
903.0,0.1543
904.0,0.2161
905.0,0.206
906.0,0.1902
907.0,0.1398
908.0,0.1457
909.0,0.1632
910.0,0.1338
911.0,0.151
912.0,0.1581
913.0,0.1352
914.0,0.1363
915.0,0.1466
916.0,0.1229
917.0,0.1662
918.0,0.125
919.0,0.173
920.0,0.1832
921.0,0.1897
922.0,0.1618
923.0,0.1843
924.0,0.1634
925.0,0.1605
926.0,0.1607
927.0,0.1875
928.0,0.1155
929.0,0.09987
930.0,0.06969
931.0,0.06592
932.0,0.03932
933.0,0.02875
934.0,0.009878
935.0,0.03185
936.0,0.01574
937.0,0.01584
938.0,0.02087
939.0,0.06363
940.0,0.08301
941.0,0.05473
942.0,0.06722
943.0,0.03843
944.0,0.04643
945.0,0.0582
946.0,0.02218
947.0,0.05637
948.0,0.04074
949.0,0.08335
950.0,0.01351
951.0,0.08286
952.0,0.03527
953.0,0.05164
954.0,0.07045
955.0,0.05303
956.0,0.05952
957.0,0.03491
958.0,0.09195
959.0,0.06357
960.0,0.07131
961.0,0.08762
962.0,0.08262
963.0,0.102
964.0,0.09159
965.0,0.1012
966.0,0.1007
967.0,0.09911
968.0,0.161
969.0,0.1636
970.0,0.1479
971.0,0.1819
972.0,0.1711
973.0,0.1364
974.0,0.1286
975.0,0.1374
976.0,0.1233
977.0,0.1554
978.0,0.1413
979.0,0.1514
980.0,0.1407
981.0,0.1811
982.0,0.1685
983.0,0.1593
984.0,0.1926
985.0,0.1675
986.0,0.1999
987.0,0.1919
988.0,0.1918
989.0,0.2018
990.0,0.1905
991.0,0.2019
992.0,0.2035
993.0,0.1948
994.0,0.204
995.0,0.2044
996.0,0.2028
997.0,0.2034
998.0,0.2022
999.0,0.2017
1000.0,0.1992
1001.0,0.2029
1002.0,0.1928
1003.0,0.199
1004.0,0.193
1005.0,0.1875
1006.0,0.1941
1007.0,0.1986
1008.0,0.1967
1009.0,0.1948
1010.0,0.1935
1011.0,0.1977
1012.0,0.1951
1013.0,0.1974
1014.0,0.196
1015.0,0.1946
1016.0,0.1937
1017.0,0.194
1018.0,0.1938
1019.0,0.188
1020.0,0.1925
1021.0,0.1925
1022.0,0.1904
1023.0,0.1924
1024.0,0.1881
1025.0,0.1928
1026.0,0.1915
1027.0,0.1912
1028.0,0.1906
1029.0,0.1882
1030.0,0.1901
1031.0,0.1891
1032.0,0.1887
1033.0,0.1859
1034.0,0.1859
1035.0,0.1865
1036.0,0.1873
1037.0,0.1843
1038.0,0.1851
1039.0,0.1848
1040.0,0.1841
1041.0,0.1846
1042.0,0.1833
1043.0,0.1827
1044.0,0.1832
1045.0,0.1806
1046.0,0.1785
1047.0,0.18
1048.0,0.1808
1049.0,0.18
1050.0,0.1791
1051.0,0.1786
1052.0,0.1777
1053.0,0.1761
1054.0,0.1762
1055.0,0.1761
1056.0,0.1752
1057.0,0.1744
1058.0,0.1699
1059.0,0.1698
1060.0,0.1694
1061.0,0.169
1062.0,0.1696
1063.0,0.1677
1064.0,0.1698
1065.0,0.1679
1066.0,0.1651
1067.0,0.1671
1068.0,0.163
1069.0,0.1583
1070.0,0.1633
1071.0,0.1673
1072.0,0.1642
1073.0,0.1621
1074.0,0.168
1075.0,0.1554
1076.0,0.1676
1077.0,0.1623
1078.0,0.1581
1079.0,0.1657
1080.0,0.1599
1081.0,0.1525
1082.0,0.1586
1083.0,0.1601
1084.0,0.1514
1085.0,0.1605
1086.0,0.141
1087.0,0.1491
1088.0,0.1593
1089.0,0.1502
1090.0,0.145
1091.0,0.1577
1092.0,0.158
1093.0,0.1235
1094.0,0.1432
1095.0,0.129
1096.0,0.1208
1097.0,0.1544
1098.0,0.1172
1099.0,0.1237
1100.0,0.1112
1101.0,0.1141
1102.0,0.1061
1103.0,0.103
1104.0,0.1035
1105.0,0.12
1106.0,0.07614
1107.0,0.1111
1108.0,0.0849
1109.0,0.08645
1110.0,0.108
1111.0,0.06093
1112.0,0.08635
1113.0,0.04362
1114.0,0.0491
1115.0,0.03974
1116.0,0.02625
1117.0,0.005486
1118.0,0.0297
1119.0,0.01066
1120.0,0.01278
1121.0,0.01889
1122.0,0.005103
1123.0,0.0117
1124.0,0.009815
1125.0,0.01381
1126.0,0.00231
1127.0,0.01584
1128.0,0.006409
1129.0,0.007046
1130.0,0.004229
1131.0,0.03974
1132.0,0.02913
1133.0,0.01344
1134.0,0.001731
1135.0,0.0007597
1136.0,0.009663
1137.0,0.03699
1138.0,0.02501
1139.0,0.04974
1140.0,0.03669
1141.0,0.02394
1142.0,0.02964
1143.0,0.04776
1144.0,0.01159
1145.0,0.0129
1146.0,0.01386
1147.0,0.002528
1148.0,0.0404
1149.0,0.02892
1150.0,0.01364
1151.0,0.02484
1152.0,0.03457
1153.0,0.03702
1154.0,0.01298
1155.0,0.05175
1156.0,0.04394
1157.0,0.05517
1158.0,0.05433
1159.0,0.06124
1160.0,0.05041
1161.0,0.06964
1162.0,0.06912
1163.0,0.108
1164.0,0.08749
1165.0,0.07733
1166.0,0.08122
1167.0,0.09092
1168.0,0.09082
1169.0,0.09427
1170.0,0.1071
1171.0,0.1044
1172.0,0.1095
1173.0,0.107
1174.0,0.06636
1175.0,0.1075
1176.0,0.1247
1177.0,0.1151
1178.0,0.07871
1179.0,0.1257
1180.0,0.1052
1181.0,0.1088
1182.0,0.0661
1183.0,0.1085
1184.0,0.09856
1185.0,0.09226
1186.0,0.119
1187.0,0.1102
1188.0,0.06546
1189.0,0.1022
1190.0,0.117
1191.0,0.1048
1192.0,0.1193
1193.0,0.1122
1194.0,0.117
1195.0,0.1064
1196.0,0.1002
1197.0,0.1187
1198.0,0.1069
1199.0,0.08226
1200.0,0.1107
1201.0,0.1035
1202.0,0.1058
1203.0,0.103
1204.0,0.08664
1205.0,0.1105
1206.0,0.1263
1207.0,0.1041
1208.0,0.1052
1209.0,0.1077
1210.0,0.1142
1211.0,0.1058
1212.0,0.09947
1213.0,0.1197
1214.0,0.1037
1215.0,0.1013
1216.0,0.1199
1217.0,0.1151
1218.0,0.1188
1219.0,0.1162
1220.0,0.1191
1221.0,0.1214
1222.0,0.1175
1223.0,0.1156
1224.0,0.113
1225.0,0.1202
1226.0,0.1224
1227.0,0.1082
1228.0,0.124
1229.0,0.1224
1230.0,0.1195
1231.0,0.1259
1232.0,0.1251
1233.0,0.1167
1234.0,0.1268
1235.0,0.1253
1236.0,0.1267
1237.0,0.1233
1238.0,0.1263
1239.0,0.1247
1240.0,0.1253
1241.0,0.1237
1242.0,0.1244
1243.0,0.1234
1244.0,0.124
1245.0,0.1247
1246.0,0.124
1247.0,0.1232
1248.0,0.1226
1249.0,0.1235
1250.0,0.1224
1251.0,0.1201
1252.0,0.121
1253.0,0.1185
1254.0,0.1162
1255.0,0.1205
1256.0,0.1143
1257.0,0.1131
1258.0,0.1174
1259.0,0.1089
1260.0,0.11
1261.0,0.09857
1262.0,0.09295
1263.0,0.09299
1264.0,0.08001
1265.0,0.09249
1266.0,0.0855
1267.0,0.08943
1268.0,0.081
1269.0,0.03095
1270.0,0.08815
1271.0,0.09892
1272.0,0.09978
1273.0,0.09813
1274.0,0.09925
1275.0,0.1016
1276.0,0.1037
1277.0,0.1057
1278.0,0.1098
1279.0,0.1087
1280.0,0.1075
1281.0,0.1035
1282.0,0.1014
1283.0,0.1089
1284.0,0.1112
1285.0,0.1122
1286.0,0.1146
1287.0,0.1112
1288.0,0.1117
1289.0,0.1049
1290.0,0.1109
1291.0,0.113
1292.0,0.1003
1293.0,0.1095
1294.0,0.1085
1295.0,0.1059
1296.0,0.09763
1297.0,0.08995
1298.0,0.1022
1299.0,0.1101
1300.0,0.08449
1301.0,0.08851
1302.0,0.1021
1303.0,0.08418
1304.0,0.06417
1305.0,0.0996
1306.0,0.09863
1307.0,0.06836
1308.0,0.08566
1309.0,0.09643
1310.0,0.06628
1311.0,0.08028
1312.0,0.07715
1313.0,0.07361
1314.0,0.06306
1315.0,0.06064
1316.0,0.07751
1317.0,0.07225
1318.0,0.08189
1319.0,0.05497
1320.0,0.05491
1321.0,0.06724
1322.0,0.06615
1323.0,0.0427
1324.0,0.05432
1325.0,0.07526
1326.0,0.06019
1327.0,0.05609
1328.0,0.04581
1329.0,0.02852
1330.0,0.04035
1331.0,0.01852
1332.0,0.02064
1333.0,0.0298
1334.0,0.02935
1335.0,0.04181
1336.0,0.02952
1337.0,0.0254
1338.0,0.02702
1339.0,0.02763
1340.0,0.02864
1341.0,0.02373
1342.0,0.02553
1343.0,0.01151
1344.0,0.007454
1345.0,0.0102
1346.0,0.002723
1347.0,0.00242
1348.0,4.714e-05
1349.0,0.0002176
1350.0,0.0002678
1351.0,2.214e-05
1352.0,1.825e-06
1353.0,6.336e-08
1354.0,3.046e-07
1355.0,1.418e-09
1356.0,3.077e-08
1357.0,4.642e-08
1358.0,1.674e-09
1359.0,2.029e-10
1360.0,7.434e-10
1361.0,8.179e-13
1362.0,2.237e-15
1363.0,9.867e-10
1364.0,4.084e-10
1365.0,7.811e-16
1366.0,4.291e-09
1367.0,1.777e-09
1368.0,6.031e-18
1369.0,1.506e-10
1370.0,7.38e-11
1371.0,4.178e-12
1372.0,9.671e-10
1373.0,2.107e-08
1374.0,1.169e-07
1375.0,1.932e-07
1376.0,2.76e-07
1377.0,1.172e-07
1378.0,1.153e-06
1379.0,5.124e-08
1380.0,5.324e-08
1381.0,1.31e-09
1382.0,8.417e-10
1383.0,1.251e-11
1384.0,1.627e-10
1385.0,8.353e-10
1386.0,7.342e-10
1387.0,9.775e-08
1388.0,2.225e-09
1389.0,4.52e-07
1390.0,3.629e-07
1391.0,2.427e-07
1392.0,1.614e-08
1393.0,1.015e-07
1394.0,3.25e-08
1395.0,2.299e-10
1396.0,1.065e-12
1397.0,3.463e-08
1398.0,1.139e-06
1399.0,7.617e-07
1400.0,4.552e-13
1401.0,1.889e-12
1402.0,7.676e-06
1403.0,6.836e-06
1404.0,1.725e-06
1405.0,1.061e-10
1406.0,2.816e-06
1407.0,5.226e-07
1408.0,2.523e-06
1409.0,5.156e-07
1410.0,7.168e-07
1411.0,6.468e-06
1412.0,1.292e-05
1413.0,0.0003253
1414.0,6.342e-07
1415.0,2.382e-07
1416.0,0.00129
1417.0,0.0002179
1418.0,0.0001599
1419.0,2.174e-05
1420.0,9.587e-05
1421.0,0.0001477
1422.0,0.001674
1423.0,0.0002954
1424.0,0.000669
1425.0,0.0007692
1426.0,0.001274
