interpolation:linear
wavelength,value
280.0,3.0569999999999998e-22
280.5,1.004e-20
281.0,5.3810000000000004e-20
281.5,4.11e-19
282.0,6.777e-19
282.5,1.681e-18
283.0,5.318e-18
283.5,8.656e-18
284.0,1.425e-16
284.5,4.153e-16
285.0,6.875e-16
285.5,3.431e-15
286.0,1.384e-14
286.5,6.229e-14
287.0,1.787e-13
287.5,6.888e-13
288.0,2.372e-12
288.5,7.156e-12
289.0,1.902e-11
289.5,5.737e-11
290.0,1.591e-10
290.5,3.243e-10
291.0,6.96e-10
291.5,1.998e-09
292.0,4.046e-09
292.5,5.69e-09
293.0,1.224e-08
293.5,2.988e-08
294.0,4.682e-08
294.5,6.413e-08
295.0,1.089e-07
295.5,1.844e-07
296.0,3.597e-07
296.5,5.092e-07
297.0,6.965e-07
297.5,1.905e-06
298.0,3.061e-06
298.5,3.13e-06
299.0,7.027e-06
299.5,1.21e-05
300.0,1.362e-05
300.5,2.022e-05
301.0,3.828e-05
301.5,6.377e-05
302.0,5.585e-05
302.5,0.0001127
303.0,0.0002123
303.5,0.0002775
304.0,0.0002701
304.5,0.000443
305.0,0.0007696
305.5,0.0009625
306.0,0.0009642
306.5,0.001272
307.0,0.002149
307.5,0.003245
308.0,0.0035
308.5,0.004408
309.0,0.004497
309.5,0.005663
310.0,0.005944
310.5,0.009839
311.0,0.0128
311.5,0.01255
312.0,0.01354
312.5,0.01733
313.0,0.0193
313.5,0.01829
314.0,0.02429
314.5,0.02332
315.0,0.03108
315.5,0.02502
316.0,0.0233
316.5,0.03535
317.0,0.04385
317.5,0.04493
318.0,0.03639
318.5,0.04853
319.0,0.0597
319.5,0.04594
320.0,0.05504
320.5,0.07407
321.0,0.07039
321.5,0.06794
322.0,0.06755
322.5,0.05899
323.0,0.06149
323.5,0.07882
324.0,0.0927
324.5,0.09241
325.0,0.07803
325.5,0.1041
326.0,0.1287
326.5,0.132
327.0,0.1304
327.5,0.1246
328.0,0.1076
328.5,0.1174
329.0,0.145
329.5,0.1662
330.0,0.1664
330.5,0.1302
331.0,0.1316
331.5,0.1361
332.0,0.1509
332.5,0.151
333.0,0.1496
333.5,0.133
334.0,0.1359
334.5,0.1602
335.0,0.1524
335.5,0.1786
336.0,0.1236
336.5,0.1436
337.0,0.1168
337.5,0.1449
338.0,0.144
338.5,0.167
339.0,0.1655
339.5,0.1592
340.0,0.1864
340.5,0.1684
341.0,0.1648
341.5,0.1516
342.0,0.1814
342.5,0.1699
343.0,0.1867
343.5,0.1758
344.0,0.1296
344.5,0.1312
345.0,0.1741
345.5,0.178
346.0,0.1515
346.5,0.1717
347.0,0.1842
347.5,0.149
348.0,0.1702
348.5,0.1703
349.0,0.1581
349.5,0.1567
350.0,0.1939
350.5,0.2047
351.0,0.1828
351.5,0.1775
352.0,0.1909
352.5,0.1492
353.0,0.1882
353.5,0.2014
354.0,0.2093
354.5,0.2123
355.0,0.2116
355.5,0.1914
356.0,0.2004
356.5,0.1712
357.0,0.1415
357.5,0.1733
358.0,0.1374
358.5,0.1175
359.0,0.1644
359.5,0.2095
360.0,0.2222
360.5,0.1777
361.0,0.1622
361.5,0.187
362.0,0.1619
362.5,0.2243
363.0,0.2017
363.5,0.1859
364.0,0.2276
364.5,0.1947
365.0,0.1984
365.5,0.2492
366.0,0.2642
366.5,0.2485
367.0,0.2422
367.5,0.2515
368.0,0.2202
368.5,0.2223
369.0,0.2403
369.5,0.2563
370.0,0.2734
370.5,0.2124
371.0,0.2271
371.5,0.2843
372.0,0.1888
372.5,0.2265
373.0,0.2306
373.5,0.1502
374.0,0.2184
374.5,0.181
375.0,0.176
375.5,0.263
376.0,0.2181
376.5,0.2261
377.0,0.2396
377.5,0.2805
378.0,0.3042
378.5,0.2877
379.0,0.2375
379.5,0.217
380.0,0.2257
380.5,0.2737
381.0,0.2745
381.5,0.2178
382.0,0.1936
382.5,0.1652
383.0,0.1531
383.5,0.1476
384.0,0.1629
384.5,0.2398
385.0,0.238
385.5,0.2218
386.0,0.1901
386.5,0.25
387.0,0.2078
387.5,0.2336
388.0,0.2158
388.5,0.2135
389.0,0.2306
389.5,0.2795
390.0,0.2807
390.5,0.2585
391.0,0.3045
391.5,0.3107
392.0,0.2619
392.5,0.2347
393.0,0.1307
393.5,0.09506
394.0,0.1936
394.5,0.2463
395.0,0.3007
395.5,0.3056
396.0,0.2651
396.5,0.1551
397.0,0.1165
397.5,0.2371
398.0,0.3321
398.5,0.3435
399.0,0.3724
399.5,0.3714
400.0,0.3857
401.0,0.3892
402.0,0.4113
403.0,0.3913
404.0,0.3857
405.0,0.386
406.0,0.3804
407.0,0.3748
408.0,0.3897
409.0,0.4175
410.0,0.3653
411.0,0.3962
412.0,0.4263
413.0,0.416
414.0,0.4216
415.0,0.4233
416.0,0.4314
417.0,0.4211
418.0,0.4137
419.0,0.4197
420.0,0.4182
421.0,0.438
422.0,0.4167
423.0,0.4074
424.0,0.4312
425.0,0.4309
426.0,0.4205
427.0,0.413
428.0,0.4026
429.0,0.382
430.0,0.3347
431.0,0.3318
432.0,0.429
433.0,0.4317
434.0,0.4011
435.0,0.4191
436.0,0.4729
437.0,0.4673
438.0,0.426
439.0,0.4402
440.0,0.4547
441.0,0.4717
442.0,0.5063
443.0,0.493
444.0,0.5043
445.0,0.4935
446.0,0.4718
447.0,0.5109
448.0,0.5186
449.0,0.5216
450.0,0.5367
451.0,0.5569
452.0,0.537
453.0,0.5055
454.0,0.5284
455.0,0.5318
456.0,0.5448
457.0,0.554
458.0,0.5348
459.0,0.5323
460.0,0.5336
461.0,0.5461
462.0,0.551
463.0,0.5472
464.0,0.5391
465.0,0.5332
466.0,0.539
467.0,0.529
468.0,0.5353
469.0,0.5382
470.0,0.521
471.0,0.5206
472.0,0.5486
473.0,0.5415
474.0,0.5418
475.0,0.5459
476.0,0.5288
477.0,0.5298
478.0,0.5447
479.0,0.5419
480.0,0.5434
481.0,0.5543
482.0,0.558
483.0,0.5521
484.0,0.5413
485.0,0.5163
486.0,0.4519
487.0,0.4742
488.0,0.5202
489.0,0.5216
490.0,0.5492
491.0,0.5401
492.0,0.5101
493.0,0.527
494.0,0.5324
495.0,0.5371
496.0,0.5404
497.0,0.5487
498.0,0.523
499.0,0.5294
500.0,0.5135
501.0,0.5036
502.0,0.4955
503.0,0.5147
504.0,0.4987
505.0,0.5189
506.0,0.5356
507.0,0.5099
508.0,0.4949
509.0,0.5095
510.0,0.5074
511.0,0.5217
512.0,0.5277
513.0,0.4996
514.0,0.4964
515.0,0.4915
516.0,0.4902
517.0,0.4357
518.0,0.458
519.0,0.4804
520.0,0.4977
521.0,0.5024
522.0,0.5025
523.0,0.4933
524.0,0.5104
525.0,0.5157
526.0,0.4923
527.0,0.4633
528.0,0.4895
529.0,0.5156
530.0,0.5079
531.0,0.5152
532.0,0.4973
533.0,0.4828
534.0,0.4973
535.0,0.5085
536.0,0.5135
537.0,0.4936
538.0,0.5025
539.0,0.4982
540.0,0.4775
541.0,0.4798
542.0,0.4944
543.0,0.4899
544.0,0.4976
545.0,0.4962
546.0,0.4977
547.0,0.4981
548.0,0.4925
549.0,0.4942
550.0,0.5001
551.0,0.4942
552.0,0.4976
553.0,0.4886
554.0,0.5002
555.0,0.501
556.0,0.4944
557.0,0.4787
558.0,0.4746
559.0,0.4653
560.0,0.4708
561.0,0.4764
562.0,0.4724
563.0,0.4847
564.0,0.471
565.0,0.4664
566.0,0.4592
567.0,0.4673
568.0,0.4615
569.0,0.4476
570.0,0.4479
571.0,0.4459
572.0,0.4547
573.0,0.4591
574.0,0.4573
575.0,0.448
576.0,0.444
577.0,0.4491
578.0,0.4432
579.0,0.4464
580.0,0.457
581.0,0.461
582.0,0.4712
583.0,0.4736
584.0,0.4785
585.0,0.4673
586.0,0.4578
587.0,0.4669
588.0,0.4518
589.0,0.3932
590.0,0.4117
591.0,0.44
592.0,0.4319
593.0,0.4416
594.0,0.4372
595.0,0.4237
596.0,0.4463
597.0,0.4399
598.0,0.4406
599.0,0.4418
600.0,0.4439
601.0,0.4414
602.0,0.4386
603.0,0.4464
604.0,0.4541
605.0,0.4522
606.0,0.4509
607.0,0.4561
608.0,0.4517
609.0,0.4531
610.0,0.4505
611.0,0.4532
612.0,0.4523
613.0,0.447
614.0,0.4414
615.0,0.4516
616.0,0.4372
617.0,0.4366
618.0,0.4537
619.0,0.4493
620.0,0.4522
621.0,0.4521
622.0,0.4464
623.0,0.4392
624.0,0.4321
625.0,0.4311
626.0,0.4374
627.0,0.4409
628.0,0.3952
629.0,0.4246
630.0,0.4143
631.0,0.4293
632.0,0.4252
633.0,0.4405
634.0,0.4381
635.0,0.4459
636.0,0.4411
637.0,0.4491
638.0,0.4547
639.0,0.4503
640.0,0.4468
641.0,0.4471
642.0,0.4458
643.0,0.4518
644.0,0.4511
645.0,0.4514
646.0,0.4389
647.0,0.4291
648.0,0.4296
649.0,0.4207
650.0,0.4287
651.0,0.4483
652.0,0.4237
653.0,0.4427
654.0,0.4383
655.0,0.4189
656.0,0.3734
657.0,0.3838
658.0,0.432
659.0,0.4359
660.0,0.4382
661.0,0.4414
662.0,0.4412
663.0,0.4329
664.0,0.4398
665.0,0.4414
666.0,0.4423
667.0,0.4425
668.0,0.4434
669.0,0.4507
670.0,0.4491
671.0,0.4493
672.0,0.4457
673.0,0.4527
674.0,0.4513
675.0,0.4475
676.0,0.4508
677.0,0.4466
678.0,0.4481
679.0,0.4411
680.0,0.4447
681.0,0.4419
682.0,0.4414
683.0,0.4406
684.0,0.4384
685.0,0.4424
686.0,0.4395
687.0,0.2234
688.0,0.2914
689.0,0.2935
690.0,0.3187
691.0,0.3483
692.0,0.3717
693.0,0.3679
694.0,0.3662
695.0,0.3902
696.0,0.3912
697.0,0.4253
698.0,0.4185
699.0,0.4015
700.0,0.3963
701.0,0.3896
702.0,0.3951
703.0,0.3964
704.0,0.4133
705.0,0.4139
706.0,0.4151
707.0,0.4161
708.0,0.4168
709.0,0.4202
710.0,0.4187
711.0,0.4192
712.0,0.4193
713.0,0.4138
714.0,0.4157
715.0,0.3997
716.0,0.3992
717.0,0.3211
718.0,0.2926
719.0,0.2661
720.0,0.2762
721.0,0.3192
722.0,0.3808
723.0,0.3468
724.0,0.303
725.0,0.295
726.0,0.3096
727.0,0.3204
728.0,0.2931
729.0,0.3128
730.0,0.3292
731.0,0.3133
732.0,0.3444
733.0,0.3731
734.0,0.3847
735.0,0.3753
736.0,0.3745
737.0,0.376
738.0,0.3885
739.0,0.381
740.0,0.3929
741.0,0.3902
742.0,0.3918
743.0,0.4022
744.0,0.4018
745.0,0.4026
746.0,0.4044
747.0,0.4055
748.0,0.4047
749.0,0.4001
750.0,0.4
751.0,0.3959
752.0,0.3977
753.0,0.3998
754.0,0.4007
755.0,0.3984
756.0,0.3984
757.0,0.3989
758.0,0.3938
759.0,0.3815
760.0,0.02036
761.0,0.007361
762.0,0.1275
763.0,0.04037
764.0,0.07889
765.0,0.1273
766.0,0.1837
767.0,0.2643
768.0,0.3346
769.0,0.3487
770.0,0.3687
771.0,0.3754
772.0,0.3773
773.0,0.3803
774.0,0.3787
775.0,0.376
776.0,0.3807
777.0,0.3757
778.0,0.3734
779.0,0.3737
780.0,0.3717
781.0,0.3721
782.0,0.3745
783.0,0.3681
784.0,0.37
785.0,0.367
786.0,0.3708
787.0,0.361
788.0,0.355
789.0,0.3547
790.0,0.3408
791.0,0.3482
792.0,0.3463
793.0,0.3402
794.0,0.3506
795.0,0.3553
796.0,0.3381
797.0,0.3381
798.0,0.3541
799.0,0.3507
800.0,0.3432
801.0,0.3406
802.0,0.3395
803.0,0.3361
804.0,0.3374
805.0,0.3381
806.0,0.3508
807.0,0.3458
808.0,0.3464
809.0,0.3375
810.0,0.3333
811.0,0.3304
812.0,0.3167
813.0,0.3083
814.0,0.2595
815.0,0.2587
816.0,0.2393
817.0,0.2445
818.0,0.2326
819.0,0.2701
820.0,0.2508
821.0,0.3081
822.0,0.2969
823.0,0.1796
824.0,0.2825
825.0,0.3027
826.0,0.2864
827.0,0.3072
828.0,0.2462
829.0,0.2856
830.0,0.2808
831.0,0.2818
832.0,0.2706
833.0,0.2945
834.0,0.2796
835.0,0.3176
836.0,0.297
837.0,0.3187
838.0,0.3052
839.0,0.3145
840.0,0.3223
841.0,0.3162
842.0,0.3193
843.0,0.3216
844.0,0.3158
845.0,0.3282
846.0,0.3272
847.0,0.3219
848.0,0.3188
849.0,0.3097
850.0,0.2968
851.0,0.3131
852.0,0.3115
853.0,0.3007
854.0,0.2589
855.0,0.2855
856.0,0.3116
857.0,0.3193
858.0,0.3166
859.0,0.3174
860.0,0.3183
861.0,0.3164
862.0,0.3216
863.0,0.3292
864.0,0.3128
865.0,0.3101
866.0,0.2789
867.0,0.2911
868.0,0.3168
869.0,0.3102
870.0,0.3191
871.0,0.3148
872.0,0.3137
873.0,0.3131
874.0,0.3094
875.0,0.3031
876.0,0.3062
877.0,0.3093
878.0,0.3125
879.0,0.3077
880.0,0.3012
881.0,0.2961
882.0,0.3023
883.0,0.3038
884.0,0.3022
885.0,0.3044
886.0,0.2881
887.0,0.2928
888.0,0.2962
889.0,0.3013
890.0,0.2966
891.0,0.2972
892.0,0.2859
893.0,0.2743
894.0,0.2588
895.0,0.2374
896.0,0.2217
897.0,0.1823
898.0,0.2029
899.0,0.1452
900.0,0.2131
901.0,0.1522
902.0,0.1908
903.0,0.1883
904.0,0.2567
905.0,0.2454
906.0,0.2273
907.0,0.1714
908.0,0.1774
909.0,0.1973
910.0,0.1645
911.0,0.1828
912.0,0.1918
913.0,0.1664
914.0,0.1671
915.0,0.1803
916.0,0.1513
917.0,0.2017
918.0,0.1543
919.0,0.2089
920.0,0.2184
921.0,0.2268
922.0,0.1953
923.0,0.2199
924.0,0.1982
925.0,0.1944
926.0,0.1953
927.0,0.2259
928.0,0.1449
929.0,0.1269
930.0,0.09134
931.0,0.08675
932.0,0.0543
933.0,0.04071
934.0,0.01574
935.0,0.04433
936.0,0.02318
937.0,0.0233
938.0,0.03022
939.0,0.08383
940.0,0.1071
941.0,0.073
942.0,0.08857
943.0,0.05241
944.0,0.06111
945.0,0.07699
946.0,0.03156
947.0,0.07522
948.0,0.05453
949.0,0.1085
950.0,0.01996
951.0,0.1078
952.0,0.04839
953.0,0.06881
954.0,0.09166
955.0,0.07038
956.0,0.0756
957.0,0.04793
958.0,0.1154
959.0,0.08242
960.0,0.09239
961.0,0.1111
962.0,0.1047
963.0,0.1272
964.0,0.1147
965.0,0.1266
966.0,0.1258
967.0,0.1242
968.0,0.1926
969.0,0.1973
970.0,0.1789
971.0,0.2163
972.0,0.2043
973.0,0.1663
974.0,0.1569
975.0,0.1667
976.0,0.1517
977.0,0.1862
978.0,0.1712
979.0,0.1826
980.0,0.17
981.0,0.2153
982.0,0.2015
983.0,0.1912
984.0,0.2272
985.0,0.2006
986.0,0.2346
987.0,0.2262
988.0,0.2261
989.0,0.2361
990.0,0.2245
991.0,0.2364
992.0,0.2382
993.0,0.229
994.0,0.2385
995.0,0.2388
996.0,0.2371
997.0,0.2378
998.0,0.2364
999.0,0.2357
1000.0,0.2332
1001.0,0.2371
1002.0,0.2267
1003.0,0.2327
1004.0,0.226
1005.0,0.2191
1006.0,0.227
1007.0,0.2321
1008.0,0.2302
1009.0,0.2282
1010.0,0.2269
1011.0,0.2311
1012.0,0.2283
1013.0,0.2307
1014.0,0.2291
1015.0,0.2275
1016.0,0.2264
1017.0,0.2268
1018.0,0.2264
1019.0,0.2201
1020.0,0.225
1021.0,0.2249
1022.0,0.2226
1023.0,0.2249
1024.0,0.2205
1025.0,0.2253
1026.0,0.2239
1027.0,0.2235
1028.0,0.2229
1029.0,0.2201
1030.0,0.2222
1031.0,0.2211
1032.0,0.2206
1033.0,0.2172
1034.0,0.2173
1035.0,0.218
1036.0,0.2189
1037.0,0.2154
1038.0,0.2163
1039.0,0.2161
1040.0,0.2152
1041.0,0.2159
1042.0,0.2144
1043.0,0.2136
1044.0,0.2143
1045.0,0.2113
1046.0,0.2089
1047.0,0.2106
1048.0,0.2117
1049.0,0.2108
1050.0,0.2097
1051.0,0.2092
1052.0,0.2082
1053.0,0.2064
1054.0,0.2067
1055.0,0.2065
1056.0,0.2056
1057.0,0.2047
1058.0,0.1995
1059.0,0.1995
1060.0,0.199
1061.0,0.1987
1062.0,0.1995
1063.0,0.1973
1064.0,0.1997
1065.0,0.1977
1066.0,0.1942
1067.0,0.1966
1068.0,0.1919
1069.0,0.1863
1070.0,0.1923
1071.0,0.1966
1072.0,0.1933
1073.0,0.1907
1074.0,0.1971
1075.0,0.1835
1076.0,0.1968
1077.0,0.1911
1078.0,0.1865
1079.0,0.1943
1080.0,0.1883
1081.0,0.1802
1082.0,0.1864
1083.0,0.1879
1084.0,0.1791
1085.0,0.189
1086.0,0.1674
1087.0,0.1761
1088.0,0.1871
1089.0,0.1776
1090.0,0.1719
1091.0,0.1855
1092.0,0.1857
1093.0,0.1478
1094.0,0.1687
1095.0,0.1546
1096.0,0.1454
1097.0,0.1815
1098.0,0.1416
1099.0,0.1492
1100.0,0.1351
1101.0,0.138
1102.0,0.1292
1103.0,0.1261
1104.0,0.1265
1105.0,0.145
1106.0,0.09606
1107.0,0.1349
1108.0,0.1056
1109.0,0.1073
1110.0,0.1319
1111.0,0.07788
1112.0,0.107
1113.0,0.05711
1114.0,0.06432
1115.0,0.05249
1116.0,0.03628
1117.0,0.008635
1118.0,0.04081
1119.0,0.01585
1120.0,0.01932
1121.0,0.02787
1122.0,0.008444
1123.0,0.01764
1124.0,0.01482
1125.0,0.02043
1126.0,0.004136
1127.0,0.02335
1128.0,0.01043
1129.0,0.01139
1130.0,0.006855
1131.0,0.05458
1132.0,0.04073
1133.0,0.02036
1134.0,0.003108
1135.0,0.001304
1136.0,0.01523
1137.0,0.05143
1138.0,0.03521
1139.0,0.06512
1140.0,0.04952
1141.0,0.03362
1142.0,0.0409
1143.0,0.06368
1144.0,0.01689
1145.0,0.01961
1146.0,0.0211
1147.0,0.004551
1148.0,0.05435
1149.0,0.03993
1150.0,0.01929
1151.0,0.03494
1152.0,0.04716
1153.0,0.04934
1154.0,0.01931
1155.0,0.06777
1156.0,0.05839
1157.0,0.07095
1158.0,0.06997
1159.0,0.07827
1160.0,0.06459
1161.0,0.08693
1162.0,0.08658
1163.0,0.1307
1164.0,0.1072
1165.0,0.09622
1166.0,0.09964
1167.0,0.1109
1168.0,0.111
1169.0,0.1149
1170.0,0.1292
1171.0,0.1258
1172.0,0.131
1173.0,0.129
1174.0,0.08257
1175.0,0.1286
1176.0,0.1473
1177.0,0.1373
1178.0,0.09582
1179.0,0.1485
1180.0,0.1262
1181.0,0.1305
1182.0,0.08176
1183.0,0.1298
1184.0,0.1188
1185.0,0.112
1186.0,0.1415
1187.0,0.132
1188.0,0.08163
1189.0,0.1226
1190.0,0.1389
1191.0,0.1263
1192.0,0.1414
1193.0,0.1336
1194.0,0.139
1195.0,0.1276
1196.0,0.1208
1197.0,0.1406
1198.0,0.1269
1199.0,0.1002
1200.0,0.1318
1201.0,0.1243
1202.0,0.126
1203.0,0.1235
1204.0,0.1047
1205.0,0.131
1206.0,0.1486
1207.0,0.1245
1208.0,0.1249
1209.0,0.1279
1210.0,0.135
1211.0,0.1258
1212.0,0.12
1213.0,0.1416
1214.0,0.1245
1215.0,0.1217
1216.0,0.1416
1217.0,0.1364
1218.0,0.1403
1219.0,0.1377
1220.0,0.1406
1221.0,0.1429
1222.0,0.1386
1223.0,0.1366
1224.0,0.1342
1225.0,0.1417
1226.0,0.1439
1227.0,0.1286
1228.0,0.1455
1229.0,0.1439
1230.0,0.1407
1231.0,0.1474
1232.0,0.1464
1233.0,0.1378
1234.0,0.148
1235.0,0.1466
1236.0,0.148
1237.0,0.1445
1238.0,0.1476
1239.0,0.1456
1240.0,0.1464
1241.0,0.1448
1242.0,0.1453
1243.0,0.1441
1244.0,0.1449
1245.0,0.1457
1246.0,0.1449
1247.0,0.144
1248.0,0.1435
1249.0,0.1443
1250.0,0.1432
1251.0,0.1408
1252.0,0.1415
1253.0,0.1391
1254.0,0.1367
1255.0,0.141
1256.0,0.1347
1257.0,0.1334
1258.0,0.1379
1259.0,0.1292
1260.0,0.1303
1261.0,0.1185
1262.0,0.1126
1263.0,0.1127
1264.0,0.0989
1265.0,0.1121
1266.0,0.1048
1267.0,0.1088
1268.0,0.09976
1269.0,0.04359
1270.0,0.1075
1271.0,0.1187
1272.0,0.1195
1273.0,0.1178
1274.0,0.1188
1275.0,0.1214
1276.0,0.1234
1277.0,0.1254
1278.0,0.1296
1279.0,0.1283
1280.0,0.1268
1281.0,0.1219
1282.0,0.1188
1283.0,0.1277
1284.0,0.1305
1285.0,0.1316
1286.0,0.1341
1287.0,0.1306
1288.0,0.1311
1289.0,0.1241
1290.0,0.13
1291.0,0.1324
1292.0,0.1193
1293.0,0.1286
1294.0,0.1275
1295.0,0.1252
1296.0,0.1164
1297.0,0.108
1298.0,0.121
1299.0,0.1292
1300.0,0.1016
1301.0,0.106
1302.0,0.1208
1303.0,0.101
1304.0,0.07915
1305.0,0.1179
1306.0,0.1171
1307.0,0.08345
1308.0,0.1024
1309.0,0.115
1310.0,0.08123
1311.0,0.09651
1312.0,0.09292
1313.0,0.08943
1314.0,0.07752
1315.0,0.07496
1316.0,0.09362
1317.0,0.08768
1318.0,0.09833
1319.0,0.06855
1320.0,0.06804
1321.0,0.0822
1322.0,0.08144
1323.0,0.0547
1324.0,0.06758
1325.0,0.09138
1326.0,0.0743
1327.0,0.06968
1328.0,0.05777
1329.0,0.0378
1330.0,0.05216
1331.0,0.02571
1332.0,0.02818
1333.0,0.0403
1334.0,0.03799
1335.0,0.05393
1336.0,0.03924
1337.0,0.0338
1338.0,0.03619
1339.0,0.03681
1340.0,0.03754
1341.0,0.03254
1342.0,0.03472
1343.0,0.01733
1344.0,0.01098
1345.0,0.0154
1346.0,0.00482
1347.0,0.004453
1348.0,0.0001122
1349.0,0.0005009
1350.0,0.0006053
1351.0,6.143e-05
1352.0,5.443e-06
1353.0,1.413e-07
1354.0,8.458e-07
1355.0,1.923e-09
1356.0,6.814e-08
1357.0,1.028e-07
1358.0,2.33e-09
1359.0,2.163e-10
1360.0,9.013e-10
1361.0,8.253e-13
1362.0,2.249e-15
1363.0,1.072e-09
1364.0,4.538e-10
1365.0,7.841e-16
1366.0,4.88e-09
1367.0,2.239e-09
1368.0,6.054e-18
1369.0,1.675e-10
1370.0,7.768e-11
1371.0,4.289e-12
1372.0,1.242e-09
1373.0,3.703e-08
1374.0,2.771e-07
1375.0,4.239e-07
1376.0,7.906e-07
1377.0,3.25e-07
1378.0,3.431e-06
1379.0,1.419e-07
1380.0,1.27e-07
1381.0,2.816e-09
1382.0,1.037e-09
1383.0,1.454e-11
1384.0,1.76e-10
1385.0,1.32e-09
1386.0,8.296e-10
1387.0,1.801e-07
1388.0,4.846e-09
1389.0,1.227e-06
1390.0,9.636e-07
1391.0,6.269e-07
1392.0,4.028e-08
1393.0,2.82e-07
1394.0,5.427e-08
1395.0,3.213e-10
1396.0,1.08e-12
1397.0,8.919e-08
1398.0,3.373e-06
1399.0,2.285e-06
1400.0,4.585e-13
1401.0,1.924e-12
1402.0,2.148e-05
1403.0,2.057e-05
1404.0,5.427e-06
1405.0,1.293e-10
1406.0,9.114e-06
1407.0,1.47e-06
1408.0,8.169e-06
1409.0,1.512e-06
1410.0,2.192e-06
1411.0,1.92e-05
1412.0,3.566e-05
1413.0,0.0007736
1414.0,1.922e-06
1415.0,7.172e-07
1416.0,0.002421
1417.0,0.0004549
1418.0,0.0003909
1419.0,5.438e-05
1420.0,0.0002349
1421.0,0.0003139
1422.0,0.003161
1423.0,0.0005611
1424.0,0.001193
1425.0,0.001481
1426.0,0.002217
1427.0,0.005117
1428.0,9.361e-05
