interpolation:linear
wavelength,value
280.0,4.4520000000000004e-21
280.5,1.377e-19
281.0,7.238e-19
281.5,4.761e-19
282.0,1.272e-18
282.5,3.292e-18
283.0,1.053e-17
283.5,1.716e-17
284.0,2.742e-16
284.5,7.858e-16
285.0,1.693e-15
285.5,8.429e-15
286.0,3.389e-14
286.5,1.502e-13
287.0,4.258e-13
287.5,1.61e-12
288.0,4.163e-12
288.5,1.421e-11
289.0,4.12e-11
289.5,1.328e-10
290.0,3.842e-10
290.5,8.065e-10
291.0,1.782e-09
291.5,5.705e-09
292.0,1.245e-08
292.5,1.908e-08
293.0,4.583e-08
293.5,1.307e-07
294.0,2.293e-07
294.5,2.981e-07
295.0,5.667e-07
295.5,1.538e-06
296.0,3.079e-06
296.5,4.482e-06
297.0,6.281e-06
297.5,1.78e-05
298.0,2.951e-05
298.5,3.094e-05
299.0,7.114e-05
299.5,0.0001275
300.0,0.000147
300.5,0.0002241
301.0,0.0004442
301.5,0.0007816
302.0,0.0007101
302.5,0.001392
303.0,0.002508
303.5,0.003164
304.0,0.002975
304.5,0.004444
305.0,0.006738
305.5,0.007713
306.0,0.007464
306.5,0.009288
307.0,0.01375
307.5,0.01822
308.0,0.01924
308.5,0.02268
309.0,0.02227
309.5,0.02539
310.0,0.02547
310.5,0.04122
311.0,0.05166
311.5,0.04985
312.0,0.04967
312.5,0.0603
313.0,0.06532
313.5,0.06352
314.0,0.07918
314.5,0.0699
315.0,0.0918
315.5,0.07698
316.0,0.06699
316.5,0.09588
317.0,0.1191
317.5,0.124
318.0,0.09655
318.5,0.1193
319.0,0.1413
319.5,0.1156
320.0,0.1398
320.5,0.1741
321.0,0.1543
321.5,0.1479
322.0,0.1585
322.5,0.1379
323.0,0.1369
323.5,0.1677
324.0,0.1956
324.5,0.1989
325.0,0.1722
325.5,0.2208
326.0,0.2698
326.5,0.2697
327.0,0.269
327.5,0.2602
328.0,0.2323
328.5,0.2434
329.0,0.2906
329.5,0.3296
330.0,0.3328
330.5,0.267
331.0,0.2723
331.5,0.2763
332.0,0.2979
332.5,0.2943
333.0,0.2937
333.5,0.2664
334.0,0.273
334.5,0.3144
335.0,0.2951
335.5,0.3448
336.0,0.2386
336.5,0.2796
337.0,0.2297
337.5,0.2858
338.0,0.2786
338.5,0.3216
339.0,0.3184
339.5,0.3063
340.0,0.3601
340.5,0.3246
341.0,0.3166
341.5,0.2907
342.0,0.3475
342.5,0.3252
343.0,0.3577
343.5,0.3369
344.0,0.249
344.5,0.2516
345.0,0.333
345.5,0.34
346.0,0.289
346.5,0.3273
347.0,0.3515
347.5,0.2843
348.0,0.3241
348.5,0.324
349.0,0.3007
349.5,0.2978
350.0,0.3684
350.5,0.3886
351.0,0.3472
351.5,0.3375
352.0,0.3626
352.5,0.283
353.0,0.3566
353.5,0.3814
354.0,0.396
354.5,0.4017
355.0,0.4004
355.5,0.3618
356.0,0.3786
356.5,0.3234
357.0,0.2672
357.5,0.3272
358.0,0.2594
358.5,0.2217
359.0,0.3101
359.5,0.3952
360.0,0.4191
360.5,0.335
361.0,0.3055
361.5,0.3518
362.0,0.3044
362.5,0.4214
363.0,0.3786
363.5,0.3488
364.0,0.4267
364.5,0.3648
365.0,0.3716
365.5,0.4665
366.0,0.4944
366.5,0.4647
367.0,0.4526
367.5,0.4698
368.0,0.4112
368.5,0.4151
369.0,0.4483
369.5,0.478
370.0,0.5097
370.5,0.3957
371.0,0.4229
371.5,0.5292
372.0,0.3513
372.5,0.4213
373.0,0.4287
373.5,0.279
374.0,0.4055
374.5,0.3359
375.0,0.3266
375.5,0.4877
376.0,0.4043
376.5,0.4191
377.0,0.4438
377.5,0.5194
378.0,0.5631
378.5,0.5323
379.0,0.4394
379.5,0.4014
380.0,0.4174
380.5,0.5057
381.0,0.5069
381.5,0.402
382.0,0.3571
382.5,0.3045
383.0,0.282
383.5,0.2717
384.0,0.2997
384.5,0.441
385.0,0.4374
385.5,0.4075
386.0,0.3491
386.5,0.4586
387.0,0.3812
387.5,0.4282
388.0,0.3955
388.5,0.391
389.0,0.4222
389.5,0.5114
390.0,0.5134
390.5,0.4726
391.0,0.5564
391.5,0.5676
392.0,0.4782
392.5,0.4282
393.0,0.2383
393.5,0.1733
394.0,0.3527
394.5,0.4485
395.0,0.5474
395.5,0.5562
396.0,0.4823
396.5,0.282
397.0,0.2117
397.5,0.4306
398.0,0.6031
398.5,0.6235
399.0,0.6753
399.5,0.6733
400.0,0.6992
401.0,0.7091
402.0,0.7484
403.0,0.7113
404.0,0.7005
405.0,0.7007
406.0,0.6896
407.0,0.6787
408.0,0.7054
409.0,0.7552
410.0,0.6601
411.0,0.7152
412.0,0.7685
413.0,0.7496
414.0,0.759
415.0,0.7613
416.0,0.7749
417.0,0.756
418.0,0.7423
419.0,0.7522
420.0,0.7491
421.0,0.7839
422.0,0.7452
423.0,0.7282
424.0,0.7703
425.0,0.7691
426.0,0.7494
427.0,0.7356
428.0,0.7167
429.0,0.6791
430.0,0.5944
431.0,0.5892
432.0,0.761
433.0,0.7654
434.0,0.7108
435.0,0.7424
436.0,0.8368
437.0,0.8257
438.0,0.7521
439.0,0.7779
440.0,0.8028
441.0,0.8321
442.0,0.8925
443.0,0.8694
444.0,0.8884
445.0,0.8692
446.0,0.8298
447.0,0.8973
448.0,0.9113
449.0,0.9151
450.0,0.9409
451.0,0.9759
452.0,0.9403
453.0,0.8846
454.0,0.9236
455.0,0.9294
456.0,0.9516
457.0,0.9675
458.0,0.9345
459.0,0.9297
460.0,0.9323
461.0,0.9538
462.0,0.9613
463.0,0.9547
464.0,0.9391
465.0,0.9274
466.0,0.9365
467.0,0.9194
468.0,0.9303
469.0,0.9352
470.0,0.9054
471.0,0.9043
472.0,0.9529
473.0,0.9405
474.0,0.9418
475.0,0.9498
476.0,0.9214
477.0,0.9239
478.0,0.9496
479.0,0.9439
480.0,0.9458
481.0,0.9636
482.0,0.9687
483.0,0.9571
484.0,0.9376
485.0,0.8934
486.0,0.7811
487.0,0.8187
488.0,0.8981
489.0,0.9009
490.0,0.9479
491.0,0.9316
492.0,0.8798
493.0,0.9086
494.0,0.9178
495.0,0.9256
496.0,0.9313
497.0,0.9458
498.0,0.9015
499.0,0.9131
500.0,0.8864
501.0,0.8701
502.0,0.8578
503.0,0.8926
504.0,0.8695
505.0,0.901
506.0,0.9301
507.0,0.8851
508.0,0.8576
509.0,0.8818
510.0,0.8772
511.0,0.9008
512.0,0.9106
513.0,0.8619
514.0,0.856
515.0,0.8475
516.0,0.8454
517.0,0.7513
518.0,0.7898
519.0,0.8284
520.0,0.8585
521.0,0.8667
522.0,0.8674
523.0,0.8518
524.0,0.8822
525.0,0.8925
526.0,0.8526
527.0,0.8033
528.0,0.8495
529.0,0.8954
530.0,0.8825
531.0,0.8956
532.0,0.8648
533.0,0.8395
534.0,0.8643
535.0,0.8832
536.0,0.8914
537.0,0.8563
538.0,0.8714
539.0,0.8641
540.0,0.8284
541.0,0.8338
542.0,0.8599
543.0,0.8509
544.0,0.8656
545.0,0.8629
546.0,0.8666
547.0,0.8663
548.0,0.856
549.0,0.8586
550.0,0.8688
551.0,0.8583
552.0,0.8643
553.0,0.8488
554.0,0.8691
555.0,0.8708
556.0,0.8595
557.0,0.8327
558.0,0.8264
559.0,0.8109
560.0,0.821
561.0,0.8315
562.0,0.8255
563.0,0.8479
564.0,0.8247
565.0,0.8176
566.0,0.8055
567.0,0.8207
568.0,0.8131
569.0,0.7933
570.0,0.7932
571.0,0.7885
572.0,0.8072
573.0,0.8157
574.0,0.8131
575.0,0.7978
576.0,0.7905
577.0,0.7992
578.0,0.7873
579.0,0.7906
580.0,0.806
581.0,0.8104
582.0,0.826
583.0,0.8282
584.0,0.8355
585.0,0.8152
586.0,0.7984
587.0,0.8158
588.0,0.7953
589.0,0.7035
590.0,0.7358
591.0,0.7793
592.0,0.7691
593.0,0.781
594.0,0.7753
595.0,0.7558
596.0,0.7865
597.0,0.7778
598.0,0.776
599.0,0.7768
600.0,0.7782
601.0,0.7721
602.0,0.7668
603.0,0.7796
604.0,0.7926
605.0,0.7885
606.0,0.7854
607.0,0.7933
608.0,0.7846
609.0,0.7861
610.0,0.7805
611.0,0.7847
612.0,0.7824
613.0,0.7726
614.0,0.7622
615.0,0.7788
616.0,0.7533
617.0,0.7518
618.0,0.7808
619.0,0.7729
620.0,0.7778
621.0,0.7784
622.0,0.7693
623.0,0.7575
624.0,0.7446
625.0,0.7429
626.0,0.7539
627.0,0.7621
628.0,0.7091
629.0,0.7431
630.0,0.7259
631.0,0.7432
632.0,0.7345
633.0,0.7572
634.0,0.7501
635.0,0.7619
636.0,0.752
637.0,0.7645
638.0,0.772
639.0,0.7635
640.0,0.7562
641.0,0.7558
642.0,0.7525
643.0,0.7626
644.0,0.7602
645.0,0.7614
646.0,0.7433
647.0,0.7338
648.0,0.7344
649.0,0.7201
650.0,0.7246
651.0,0.7561
652.0,0.7237
653.0,0.7461
654.0,0.7379
655.0,0.71
656.0,0.6296
657.0,0.6466
658.0,0.7249
659.0,0.7302
660.0,0.7333
661.0,0.7385
662.0,0.7398
663.0,0.7253
664.0,0.7341
665.0,0.7349
666.0,0.7356
667.0,0.735
668.0,0.7354
669.0,0.7469
670.0,0.7437
671.0,0.7436
672.0,0.7372
673.0,0.7484
674.0,0.7456
675.0,0.7389
676.0,0.744
677.0,0.7366
678.0,0.7388
679.0,0.7269
680.0,0.7327
681.0,0.7279
682.0,0.727
683.0,0.7256
684.0,0.722
685.0,0.7282
686.0,0.7238
687.0,0.469
688.0,0.5551
689.0,0.5573
690.0,0.5863
691.0,0.6192
692.0,0.6435
693.0,0.6381
694.0,0.6328
695.0,0.6604
696.0,0.6613
697.0,0.7036
698.0,0.6926
699.0,0.6749
700.0,0.6667
701.0,0.6596
702.0,0.6646
703.0,0.6658
704.0,0.6878
705.0,0.6889
706.0,0.6885
707.0,0.6891
708.0,0.6906
709.0,0.692
710.0,0.6918
711.0,0.691
712.0,0.6891
713.0,0.682
714.0,0.6846
715.0,0.6626
716.0,0.6628
717.0,0.5706
718.0,0.5235
719.0,0.4791
720.0,0.5016
721.0,0.5562
722.0,0.6391
723.0,0.5936
724.0,0.5331
725.0,0.524
726.0,0.5488
727.0,0.5576
728.0,0.5225
729.0,0.5436
730.0,0.5751
731.0,0.5498
732.0,0.5897
733.0,0.6257
734.0,0.641
735.0,0.6275
736.0,0.6267
737.0,0.6292
738.0,0.6399
739.0,0.6273
740.0,0.644
741.0,0.6378
742.0,0.6386
743.0,0.6549
744.0,0.6532
745.0,0.6534
746.0,0.6564
747.0,0.6578
748.0,0.6565
749.0,0.649
750.0,0.6486
751.0,0.642
752.0,0.6448
753.0,0.6481
754.0,0.6495
755.0,0.6459
756.0,0.6456
757.0,0.6465
758.0,0.6385
759.0,0.6248
760.0,0.09265
761.0,0.04656
762.0,0.3063
763.0,0.1457
764.0,0.2254
765.0,0.3063
766.0,0.3824
767.0,0.4891
768.0,0.5698
769.0,0.583
770.0,0.6042
771.0,0.6097
772.0,0.6112
773.0,0.6155
774.0,0.6126
775.0,0.608
776.0,0.6154
777.0,0.6073
778.0,0.6036
779.0,0.6041
780.0,0.6007
781.0,0.6013
782.0,0.6051
783.0,0.5946
784.0,0.5975
785.0,0.593
786.0,0.5995
787.0,0.5885
788.0,0.5809
789.0,0.5806
790.0,0.5644
791.0,0.57
792.0,0.5659
793.0,0.5567
794.0,0.567
795.0,0.5764
796.0,0.5576
797.0,0.5583
798.0,0.5756
799.0,0.5717
800.0,0.5615
801.0,0.5595
802.0,0.5579
803.0,0.5536
804.0,0.5544
805.0,0.553
806.0,0.569
807.0,0.5621
808.0,0.5626
809.0,0.5517
810.0,0.5469
811.0,0.547
812.0,0.5306
813.0,0.5192
814.0,0.4544
815.0,0.4517
816.0,0.4201
817.0,0.4281
818.0,0.4115
819.0,0.4621
820.0,0.4344
821.0,0.5107
822.0,0.4956
823.0,0.3325
824.0,0.4802
825.0,0.5017
826.0,0.4818
827.0,0.5094
828.0,0.4291
829.0,0.4791
830.0,0.4725
831.0,0.4742
832.0,0.4592
833.0,0.4899
834.0,0.4717
835.0,0.5202
836.0,0.4966
837.0,0.5217
838.0,0.5048
839.0,0.514
840.0,0.5254
841.0,0.5177
842.0,0.5192
843.0,0.5194
844.0,0.5119
845.0,0.5296
846.0,0.5273
847.0,0.5176
848.0,0.5142
849.0,0.4996
850.0,0.4787
851.0,0.5066
852.0,0.5031
853.0,0.4845
854.0,0.4182
855.0,0.4596
856.0,0.5022
857.0,0.5136
858.0,0.5097
859.0,0.5103
860.0,0.5112
861.0,0.5084
862.0,0.5164
863.0,0.5286
864.0,0.5022
865.0,0.4978
866.0,0.4476
867.0,0.4672
868.0,0.5084
869.0,0.4978
870.0,0.512
871.0,0.5051
872.0,0.5033
873.0,0.5023
874.0,0.4963
875.0,0.4862
876.0,0.4913
877.0,0.4963
878.0,0.5016
879.0,0.4939
880.0,0.4833
881.0,0.476
882.0,0.4862
883.0,0.4879
884.0,0.4856
885.0,0.4892
886.0,0.4658
887.0,0.4711
888.0,0.4778
889.0,0.4837
890.0,0.4791
891.0,0.4786
892.0,0.4641
893.0,0.4489
894.0,0.4317
895.0,0.4062
896.0,0.382
897.0,0.3258
898.0,0.3568
899.0,0.2687
900.0,0.3668
901.0,0.2817
902.0,0.3342
903.0,0.3363
904.0,0.4285
905.0,0.413
906.0,0.3859
907.0,0.31
908.0,0.3167
909.0,0.3447
910.0,0.3019
911.0,0.3237
912.0,0.3389
913.0,0.3062
914.0,0.3042
915.0,0.3298
916.0,0.2784
917.0,0.3565
918.0,0.2853
919.0,0.3639
920.0,0.3694
921.0,0.3844
922.0,0.3414
923.0,0.3714
924.0,0.3496
925.0,0.342
926.0,0.3456
927.0,0.3891
928.0,0.2791
929.0,0.253
930.0,0.196
931.0,0.1861
932.0,0.131
933.0,0.1049
934.0,0.05435
935.0,0.1086
936.0,0.06579
937.0,0.06647
938.0,0.08254
939.0,0.1802
940.0,0.2189
941.0,0.1624
942.0,0.1898
943.0,0.1225
944.0,0.1312
945.0,0.168
946.0,0.08241
947.0,0.1679
948.0,0.123
949.0,0.2278
950.0,0.05868
951.0,0.2249
952.0,0.1168
953.0,0.1535
954.0,0.1912
955.0,0.1556
956.0,0.153
957.0,0.1166
958.0,0.2208
959.0,0.172
960.0,0.1928
961.0,0.2191
962.0,0.207
963.0,0.241
964.0,0.22
965.0,0.2403
966.0,0.2397
967.0,0.2385
968.0,0.3282
969.0,0.342
970.0,0.313
971.0,0.362
972.0,0.3456
973.0,0.2971
974.0,0.2815
975.0,0.2937
976.0,0.2768
977.0,0.3191
978.0,0.3014
979.0,0.3169
980.0,0.2972
981.0,0.3601
982.0,0.3429
983.0,0.3284
984.0,0.3726
985.0,0.3416
986.0,0.3801
987.0,0.3715
988.0,0.3709
989.0,0.3795
990.0,0.3687
991.0,0.3806
992.0,0.3829
993.0,0.3733
994.0,0.3829
995.0,0.3826
996.0,0.3807
997.0,0.3813
998.0,0.3795
999.0,0.3781
1000.0,0.3752
1001.0,0.3802
1002.0,0.3686
1003.0,0.3734
1004.0,0.364
1005.0,0.351
1006.0,0.3646
1007.0,0.3724
1008.0,0.3702
1009.0,0.368
1010.0,0.3663
1011.0,0.3705
1012.0,0.3671
1013.0,0.3697
1014.0,0.3671
1015.0,0.3646
1016.0,0.363
1017.0,0.3638
1018.0,0.3626
1019.0,0.3545
1020.0,0.3606
1021.0,0.3602
1022.0,0.3573
1023.0,0.361
1024.0,0.3559
1025.0,0.3609
1026.0,0.3593
1027.0,0.3585
1028.0,0.3577
1029.0,0.3534
1030.0,0.356
1031.0,0.3545
1032.0,0.3535
1033.0,0.3482
1034.0,0.3482
1035.0,0.3493
1036.0,0.3511
1037.0,0.3454
1038.0,0.3469
1039.0,0.3467
1040.0,0.3452
1041.0,0.3466
1042.0,0.3442
1043.0,0.3431
1044.0,0.3442
1045.0,0.3395
1046.0,0.3358
1047.0,0.3387
1048.0,0.3406
1049.0,0.3393
1050.0,0.3377
1051.0,0.3372
1052.0,0.3358
1053.0,0.3331
1054.0,0.3337
1055.0,0.3339
1056.0,0.3326
1057.0,0.3315
1058.0,0.3233
1059.0,0.3236
1060.0,0.3231
1061.0,0.3227
1062.0,0.3243
1063.0,0.321
1064.0,0.3248
1065.0,0.3223
1066.0,0.3161
1067.0,0.3201
1068.0,0.313
1069.0,0.3035
1070.0,0.3136
1071.0,0.3189
1072.0,0.3149
1073.0,0.3104
1074.0,0.3189
1075.0,0.3018
1076.0,0.3186
1077.0,0.3122
1078.0,0.306
1079.0,0.3137
1080.0,0.3074
1081.0,0.297
1082.0,0.3028
1083.0,0.3039
1084.0,0.296
1085.0,0.3082
1086.0,0.2796
1087.0,0.2898
1088.0,0.3034
1089.0,0.293
1090.0,0.2859
1091.0,0.3021
1092.0,0.3016
1093.0,0.2526
1094.0,0.2756
1095.0,0.2636
1096.0,0.2515
1097.0,0.2946
1098.0,0.2471
1099.0,0.2583
1100.0,0.2388
1101.0,0.2422
1102.0,0.2305
1103.0,0.2276
1104.0,0.228
1105.0,0.2521
1106.0,0.1877
1107.0,0.2385
1108.0,0.1991
1109.0,0.2
1110.0,0.2359
1111.0,0.1559
1112.0,0.1987
1113.0,0.1223
1114.0,0.1371
1115.0,0.1134
1116.0,0.0881
1117.0,0.02977
1118.0,0.09668
1119.0,0.04581
1120.0,0.05748
1121.0,0.07759
1122.0,0.0308
1123.0,0.05204
1124.0,0.04389
1125.0,0.0578
1126.0,0.01831
1127.0,0.06537
1128.0,0.03711
1129.0,0.03964
1130.0,0.02539
1131.0,0.1289
1132.0,0.1002
1133.0,0.06082
1134.0,0.01411
1135.0,0.005375
1136.0,0.04979
1137.0,0.1257
1138.0,0.08804
1139.0,0.1366
1140.0,0.1121
1141.0,0.08371
1142.0,0.09735
1143.0,0.1404
1144.0,0.04654
1145.0,0.05871
1146.0,0.06328
1147.0,0.0204
1148.0,0.1214
1149.0,0.09538
1150.0,0.05036
1151.0,0.08733
1152.0,0.1094
1153.0,0.108
1154.0,0.05669
1155.0,0.1424
1156.0,0.1272
1157.0,0.1444
1158.0,0.1428
1159.0,0.1554
1160.0,0.1314
1161.0,0.1647
1162.0,0.1653
1163.0,0.2278
1164.0,0.1938
1165.0,0.1812
1166.0,0.1811
1167.0,0.1981
1168.0,0.1999
1169.0,0.2052
1170.0,0.2243
1171.0,0.2185
1172.0,0.2233
1173.0,0.2238
1174.0,0.1568
1175.0,0.2192
1176.0,0.2426
1177.0,0.2318
1178.0,0.1719
1179.0,0.2446
1180.0,0.2166
1181.0,0.2236
1182.0,0.1519
1183.0,0.2206
1184.0,0.2059
1185.0,0.198
1186.0,0.2371
1187.0,0.2251
1188.0,0.1542
1189.0,0.2096
1190.0,0.2318
1191.0,0.2188
1192.0,0.2352
1193.0,0.2249
1194.0,0.2321
1195.0,0.2186
1196.0,0.21
1197.0,0.2327
1198.0,0.2123
1199.0,0.1787
1200.0,0.222
1201.0,0.2135
1202.0,0.2127
1203.0,0.2107
1204.0,0.1834
1205.0,0.2182
1206.0,0.242
1207.0,0.2119
1208.0,0.2091
1209.0,0.2136
1210.0,0.2229
1211.0,0.2116
1212.0,0.2082
1213.0,0.2336
1214.0,0.2136
1215.0,0.2094
1216.0,0.2329
1217.0,0.2264
1218.0,0.231
1219.0,0.228
1220.0,0.2313
1221.0,0.2337
1222.0,0.2275
1223.0,0.2252
1224.0,0.2236
1225.0,0.2322
1226.0,0.234
1227.0,0.215
1228.0,0.2354
1229.0,0.234
1230.0,0.2299
1231.0,0.237
1232.0,0.2355
1233.0,0.2267
1234.0,0.2369
1235.0,0.2353
1236.0,0.2371
1237.0,0.2335
1238.0,0.2363
1239.0,0.2333
1240.0,0.2342
1241.0,0.2329
1242.0,0.2326
1243.0,0.2307
1244.0,0.2323
1245.0,0.2333
1246.0,0.2319
1247.0,0.231
1248.0,0.2308
1249.0,0.2316
1250.0,0.2301
1251.0,0.227
1252.0,0.2272
1253.0,0.2251
1254.0,0.2227
1255.0,0.2269
1256.0,0.2201
1257.0,0.2188
1258.0,0.2232
1259.0,0.2144
1260.0,0.2156
1261.0,0.2026
1262.0,0.1961
1263.0,0.1964
1264.0,0.1802
1265.0,0.1952
1266.0,0.1872
1267.0,0.1909
1268.0,0.1803
1269.0,0.1072
1270.0,0.19
1271.0,0.2021
1272.0,0.2028
1273.0,0.2006
1274.0,0.2014
1275.0,0.2044
1276.0,0.2066
1277.0,0.2082
1278.0,0.2126
1279.0,0.2106
1280.0,0.208
1281.0,0.1986
1282.0,0.1917
1283.0,0.2064
1284.0,0.2112
1285.0,0.2127
1286.0,0.2157
1287.0,0.2121
1288.0,0.2121
1289.0,0.2049
1290.0,0.2103
1291.0,0.2133
1292.0,0.1994
1293.0,0.2089
1294.0,0.2074
1295.0,0.2061
1296.0,0.1961
1297.0,0.185
1298.0,0.2002
1299.0,0.2093
1300.0,0.1754
1301.0,0.1811
1302.0,0.1995
1303.0,0.1733
1304.0,0.1461
1305.0,0.1953
1306.0,0.1952
1307.0,0.1498
1308.0,0.1738
1309.0,0.1935
1310.0,0.1469
1311.0,0.1663
1312.0,0.1615
1313.0,0.158
1314.0,0.1408
1315.0,0.1386
1316.0,0.1633
1317.0,0.1545
1318.0,0.1686
1319.0,0.1296
1320.0,0.1261
1321.0,0.1476
1322.0,0.1487
1323.0,0.1101
1324.0,0.1272
1325.0,0.1608
1326.0,0.1369
1327.0,0.1302
1328.0,0.1117
1329.0,0.08224
1330.0,0.1079
1331.0,0.06315
1332.0,0.06588
1333.0,0.09214
1334.0,0.07908
1335.0,0.1096
1336.0,0.08564
1337.0,0.07521
1338.0,0.08138
1339.0,0.0813
1340.0,0.07964
1341.0,0.07647
1342.0,0.08044
1343.0,0.05194
1344.0,0.03128
1345.0,0.04519
1346.0,0.0209
1347.0,0.02098
1348.0,0.001159
1349.0,0.004355
1350.0,0.004671
1351.0,0.0009813
1352.0,0.0002249
1353.0,9.755e-06
1354.0,3.758e-05
1355.0,2.142e-07
1356.0,4.718e-06
1357.0,7.212e-06
1358.0,2.574e-07
1359.0,2.49e-08
1360.0,1.072e-07
1361.0,6.892e-11
1362.0,1.506e-13
1363.0,1.327e-07
1364.0,5.471e-08
1365.0,3.893e-14
1366.0,6.225e-07
1367.0,2.697e-07
1368.0,1.671e-16
1369.0,2.022e-08
1370.0,8.922e-09
1371.0,4.444e-10
1372.0,1.489e-07
1373.0,3.588e-06
1374.0,1.885e-05
1375.0,3.389e-05
1376.0,3.406e-05
1377.0,1.52e-05
1378.0,0.0001563
1379.0,6.376e-06
1380.0,8.495e-06
1381.0,2.076e-07
1382.0,1.3e-07
1383.0,1.778e-09
1384.0,2.183e-08
1385.0,1.4e-07
1386.0,1.07e-07
1387.0,1.805e-05
1388.0,3.604e-07
1389.0,7.055e-05
1390.0,6.042e-05
1391.0,3.941e-05
1392.0,2.476e-06
1393.0,1.403e-05
1394.0,5.914e-06
1395.0,3.812e-08
1396.0,1.072e-10
1397.0,5.325e-06
1398.0,0.000173
1399.0,0.0001103
1400.0,3.99e-11
1401.0,2.035e-10
1402.0,0.0003669
1403.0,0.0004456
1404.0,0.0001337
1405.0,1.686e-08
1406.0,0.0003281
1407.0,3.048e-05
1408.0,0.0002713
1409.0,8.231e-05
1410.0,7.086e-05
1411.0,0.0003946
1412.0,0.0005592
1413.0,0.006652
1414.0,5.668e-05
1415.0,2.597e-05
1416.0,0.01206
1417.0,0.003287
1418.0,0.003662
1419.0,0.0005539
1420.0,0.002229
1421.0,0.002429
1422.0,0.01582
1423.0,0.002974
1424.0,0.005681
1425.0,0.00817
1426.0,0.009724
1427.0,0.0189
1428.0,0.001072
1429.0,0.01361
1430.0,0.02456
1431.0,0.02733
1432.0,0.0008373
1433.0,0.01691
1434.0,0.008368
1435.0,0.007581
1436.0,0.01583
1437.0,0.01216
