interpolation:linear
wavelength,value
280.0,9.47e-21
280.5,2.851e-19
281.0,1.485e-18
281.5,4.671e-19
282.0,1.493e-18
282.5,3.964e-18
283.0,1.28e-17
283.5,2.093e-17
284.0,3.317e-16
284.5,9.449e-16
285.0,1.845e-15
285.5,9.773e-15
286.0,3.988e-14
286.5,1.8e-13
287.0,5.142e-13
287.5,1.955e-12
288.0,5.165e-12
288.5,1.857e-11
289.0,5.634e-11
289.5,1.897e-10
290.0,5.667e-10
290.5,1.222e-09
291.0,2.785e-09
291.5,8.74e-09
292.0,2.12e-08
292.5,3.347e-08
293.0,8.378e-08
293.5,2.541e-07
294.0,4.685e-07
294.5,6.256e-07
295.0,1.251e-06
295.5,3.419e-06
296.0,6.772e-06
296.5,9.729e-06
297.0,1.347e-05
297.5,3.738e-05
298.0,6.071e-05
298.5,6.256e-05
299.0,0.0001413
299.5,0.0002446
300.0,0.0002761
300.5,0.0004111
301.0,0.000781
301.5,0.001311
302.0,0.001157
302.5,0.002238
303.0,0.003961
303.5,0.004939
304.0,0.004605
304.5,0.006731
305.0,0.009903
305.5,0.01113
306.0,0.01069
306.5,0.01314
307.0,0.01896
307.5,0.02453
308.0,0.0258
308.5,0.03007
309.0,0.02934
309.5,0.03294
310.0,0.0328
310.5,0.05289
311.0,0.06591
311.5,0.06342
312.0,0.06239
312.5,0.07509
313.0,0.08097
313.5,0.07907
314.0,0.09754
314.5,0.08496
315.0,0.1113
315.5,0.09393
316.0,0.08084
316.5,0.1146
317.0,0.1423
317.5,0.1487
318.0,0.115
318.5,0.1404
319.0,0.1651
319.5,0.1365
320.0,0.1653
320.5,0.2033
321.0,0.1782
321.5,0.1706
322.0,0.1849
322.5,0.1608
323.0,0.1583
323.5,0.1926
324.0,0.2244
324.5,0.2288
325.0,0.1989
325.5,0.2534
326.0,0.3091
326.5,0.3077
327.0,0.3074
327.5,0.2977
328.0,0.2673
328.5,0.2782
329.0,0.3305
329.5,0.3742
330.0,0.3783
330.5,0.3046
331.0,0.3111
331.5,0.3147
332.0,0.3378
332.5,0.3331
333.0,0.3327
333.5,0.3027
334.0,0.3104
334.5,0.3561
335.0,0.3336
335.5,0.3896
336.0,0.2696
336.5,0.3163
337.0,0.2601
337.5,0.3238
338.0,0.3147
338.5,0.3632
339.0,0.3595
339.5,0.3459
340.0,0.4066
340.5,0.3663
341.0,0.3573
341.5,0.328
342.0,0.392
342.5,0.3668
343.0,0.4035
343.5,0.38
344.0,0.2808
344.5,0.2837
345.0,0.3754
345.5,0.3833
346.0,0.3257
346.5,0.3689
347.0,0.3961
347.5,0.3203
348.0,0.3651
348.5,0.3649
349.0,0.3386
349.5,0.3353
350.0,0.4147
350.5,0.4375
351.0,0.3909
351.5,0.38
352.0,0.4081
352.5,0.3185
353.0,0.4012
353.5,0.429
354.0,0.4454
354.5,0.4518
355.0,0.4503
355.5,0.4068
356.0,0.4257
356.5,0.3635
357.0,0.3004
357.5,0.3678
358.0,0.2915
358.5,0.2491
359.0,0.3485
359.5,0.4442
360.0,0.4709
360.5,0.3764
361.0,0.3432
361.5,0.3952
362.0,0.3418
362.5,0.4731
363.0,0.425
363.5,0.3915
364.0,0.4789
364.5,0.4094
365.0,0.417
365.5,0.5234
366.0,0.5546
366.5,0.5212
367.0,0.5076
367.5,0.5268
368.0,0.4611
368.5,0.4653
369.0,0.5026
369.5,0.5358
370.0,0.5712
370.5,0.4434
371.0,0.4738
371.5,0.5929
372.0,0.3935
372.5,0.4719
373.0,0.4801
373.5,0.3124
374.0,0.4541
374.5,0.3761
375.0,0.3656
375.5,0.5459
376.0,0.4526
376.5,0.4691
377.0,0.4967
377.5,0.5812
378.0,0.6301
378.5,0.5957
379.0,0.4916
379.5,0.4491
380.0,0.467
380.5,0.5657
381.0,0.567
381.5,0.4495
382.0,0.3993
382.5,0.3404
383.0,0.3152
383.5,0.3036
384.0,0.335
384.5,0.4928
385.0,0.4888
385.5,0.4553
386.0,0.39
386.5,0.5123
387.0,0.4258
387.5,0.4783
388.0,0.4417
388.5,0.4366
389.0,0.4714
389.5,0.571
390.0,0.5732
390.5,0.5275
391.0,0.621
391.5,0.6335
392.0,0.5337
392.5,0.4778
393.0,0.2659
393.5,0.1933
394.0,0.3934
394.5,0.5003
395.0,0.6105
395.5,0.6203
396.0,0.5379
396.5,0.3145
397.0,0.236
397.5,0.4801
398.0,0.6723
398.5,0.695
399.0,0.7527
399.5,0.7503
400.0,0.7792
401.0,0.7909
402.0,0.8346
403.0,0.793
404.0,0.7809
405.0,0.7809
406.0,0.7684
407.0,0.7561
408.0,0.7858
409.0,0.8412
410.0,0.7351
411.0,0.7964
412.0,0.8555
413.0,0.8344
414.0,0.8448
415.0,0.8471
416.0,0.8621
417.0,0.841
418.0,0.8256
419.0,0.8365
420.0,0.833
421.0,0.8715
422.0,0.8285
423.0,0.8094
424.0,0.8561
425.0,0.8547
426.0,0.8326
427.0,0.8171
428.0,0.7961
429.0,0.7541
430.0,0.66
431.0,0.6543
432.0,0.8448
433.0,0.8495
434.0,0.7889
435.0,0.824
436.0,0.9285
437.0,0.9161
438.0,0.8342
439.0,0.8629
440.0,0.8905
441.0,0.9228
442.0,0.9897
443.0,0.9641
444.0,0.9851
445.0,0.9638
446.0,0.9198
447.0,0.9944
448.0,1.01
449.0,1.014
450.0,1.042
451.0,1.081
452.0,1.042
453.0,0.9797
454.0,1.023
455.0,1.029
456.0,1.054
457.0,1.071
458.0,1.035
459.0,1.029
460.0,1.032
461.0,1.056
462.0,1.064
463.0,1.057
464.0,1.039
465.0,1.026
466.0,1.036
467.0,1.017
468.0,1.029
469.0,1.035
470.0,1.002
471.0,1.0
472.0,1.054
473.0,1.04
474.0,1.042
475.0,1.051
476.0,1.02
477.0,1.023
478.0,1.051
479.0,1.045
480.0,1.047
481.0,1.066
482.0,1.071
483.0,1.058
484.0,1.037
485.0,0.9877
486.0,0.8634
487.0,0.9048
488.0,0.9927
489.0,0.9958
490.0,1.048
491.0,1.029
492.0,0.9722
493.0,1.004
494.0,1.014
495.0,1.023
496.0,1.029
497.0,1.045
498.0,0.9961
499.0,1.009
500.0,0.9796
501.0,0.9617
502.0,0.9483
503.0,0.9871
504.0,0.9624
505.0,0.9965
506.0,1.029
507.0,0.9789
508.0,0.9483
509.0,0.9748
510.0,0.9695
511.0,0.9955
512.0,1.006
513.0,0.9524
514.0,0.9458
515.0,0.9364
516.0,0.9341
517.0,0.83
518.0,0.8726
519.0,0.9153
520.0,0.9486
521.0,0.9576
522.0,0.9585
523.0,0.9413
524.0,0.975
525.0,0.9866
526.0,0.9425
527.0,0.8882
528.0,0.9395
529.0,0.9903
530.0,0.9761
531.0,0.9906
532.0,0.9566
533.0,0.9286
534.0,0.956
535.0,0.9768
536.0,0.9858
537.0,0.9468
538.0,0.9635
539.0,0.9554
540.0,0.9161
541.0,0.9222
542.0,0.9512
543.0,0.9411
544.0,0.9575
545.0,0.9545
546.0,0.9588
547.0,0.9583
548.0,0.9468
549.0,0.9496
550.0,0.9609
551.0,0.9492
552.0,0.9558
553.0,0.9387
554.0,0.9612
555.0,0.9631
556.0,0.9506
557.0,0.9211
558.0,0.9142
559.0,0.8972
560.0,0.9085
561.0,0.9203
562.0,0.9137
563.0,0.9387
564.0,0.9132
565.0,0.9054
566.0,0.8921
567.0,0.9091
568.0,0.9012
569.0,0.88
570.0,0.8798
571.0,0.8744
572.0,0.8956
573.0,0.9052
574.0,0.9024
575.0,0.8856
576.0,0.8775
577.0,0.887
578.0,0.8736
579.0,0.8769
580.0,0.8934
581.0,0.8978
582.0,0.9147
583.0,0.9168
584.0,0.9247
585.0,0.9021
586.0,0.8835
587.0,0.903
588.0,0.8814
589.0,0.7816
590.0,0.8174
591.0,0.8645
592.0,0.8538
593.0,0.8661
594.0,0.8602
595.0,0.8393
596.0,0.8718
597.0,0.8625
598.0,0.8601
599.0,0.8607
600.0,0.8619
601.0,0.8547
602.0,0.8489
603.0,0.8629
604.0,0.8771
605.0,0.8726
606.0,0.8689
607.0,0.8775
608.0,0.8677
609.0,0.8692
610.0,0.8629
611.0,0.8673
612.0,0.8648
613.0,0.8539
614.0,0.8422
615.0,0.8604
616.0,0.8321
617.0,0.8303
618.0,0.8623
619.0,0.8535
620.0,0.8589
621.0,0.8598
622.0,0.8498
623.0,0.8369
624.0,0.8225
625.0,0.8206
626.0,0.8328
627.0,0.8422
628.0,0.7881
629.0,0.8228
630.0,0.8039
631.0,0.8216
632.0,0.8116
633.0,0.8361
634.0,0.8278
635.0,0.8406
636.0,0.8294
637.0,0.8429
638.0,0.8509
639.0,0.8413
640.0,0.8331
641.0,0.8325
642.0,0.8287
643.0,0.8398
644.0,0.8371
645.0,0.8384
646.0,0.8191
647.0,0.8097
648.0,0.8105
649.0,0.7949
650.0,0.7982
651.0,0.8327
652.0,0.7986
653.0,0.8216
654.0,0.8124
655.0,0.7825
656.0,0.6933
657.0,0.7119
658.0,0.7977
659.0,0.8033
660.0,0.8067
661.0,0.8123
662.0,0.8141
663.0,0.7979
664.0,0.8072
665.0,0.8078
666.0,0.8083
667.0,0.8075
668.0,0.8078
669.0,0.8203
670.0,0.8167
671.0,0.8165
672.0,0.8095
673.0,0.8217
674.0,0.8186
675.0,0.8111
676.0,0.8167
677.0,0.8085
678.0,0.8108
679.0,0.7977
680.0,0.8041
681.0,0.7988
682.0,0.7978
683.0,0.7962
684.0,0.7923
685.0,0.799
686.0,0.7943
687.0,0.5336
688.0,0.6224
689.0,0.6245
690.0,0.654
691.0,0.6873
692.0,0.7114
693.0,0.7057
694.0,0.6998
695.0,0.728
696.0,0.729
697.0,0.7727
698.0,0.7607
699.0,0.7431
700.0,0.7341
701.0,0.7269
702.0,0.7317
703.0,0.733
704.0,0.7561
705.0,0.7572
706.0,0.7564
707.0,0.7569
708.0,0.7586
709.0,0.7594
710.0,0.7595
711.0,0.7584
712.0,0.756
713.0,0.7485
714.0,0.7513
715.0,0.7278
716.0,0.7283
717.0,0.634
718.0,0.5826
719.0,0.5339
720.0,0.5594
721.0,0.6162
722.0,0.7035
723.0,0.6557
724.0,0.5916
725.0,0.5824
726.0,0.6096
727.0,0.6177
728.0,0.5811
729.0,0.602
730.0,0.6371
731.0,0.6097
732.0,0.6514
733.0,0.6887
734.0,0.7048
735.0,0.6904
736.0,0.6894
737.0,0.6922
738.0,0.7023
739.0,0.6885
740.0,0.7063
741.0,0.6991
742.0,0.6997
743.0,0.7175
744.0,0.7154
745.0,0.7155
746.0,0.7187
747.0,0.7203
748.0,0.7188
749.0,0.7106
750.0,0.7102
751.0,0.703
752.0,0.706
753.0,0.7095
754.0,0.7112
755.0,0.7071
756.0,0.7068
757.0,0.7078
758.0,0.699
759.0,0.6852
760.0,0.1188
761.0,0.0631
762.0,0.3555
763.0,0.18
764.0,0.2685
765.0,0.3555
766.0,0.4344
767.0,0.546
768.0,0.6284
769.0,0.6412
770.0,0.6626
771.0,0.6677
772.0,0.6691
773.0,0.6738
774.0,0.6705
775.0,0.6654
776.0,0.6735
777.0,0.6646
778.0,0.6606
779.0,0.6611
780.0,0.6574
781.0,0.6581
782.0,0.6622
783.0,0.6507
784.0,0.6538
785.0,0.6489
786.0,0.6561
787.0,0.6449
788.0,0.6369
789.0,0.6367
790.0,0.62
791.0,0.6251
792.0,0.6205
793.0,0.6105
794.0,0.6206
795.0,0.6312
796.0,0.6122
797.0,0.613
798.0,0.6305
799.0,0.6265
800.0,0.6157
801.0,0.6139
802.0,0.6121
803.0,0.6075
804.0,0.6083
805.0,0.6063
806.0,0.6231
807.0,0.6156
808.0,0.6162
809.0,0.6048
810.0,0.5999
811.0,0.6009
812.0,0.5839
813.0,0.5719
814.0,0.504
815.0,0.5009
816.0,0.4663
817.0,0.4747
818.0,0.4572
819.0,0.5104
820.0,0.4809
821.0,0.5612
822.0,0.5453
823.0,0.3723
824.0,0.5298
825.0,0.5515
826.0,0.5309
827.0,0.5599
828.0,0.4755
829.0,0.5276
830.0,0.5207
831.0,0.5225
832.0,0.5067
833.0,0.5387
834.0,0.5198
835.0,0.5705
836.0,0.5464
837.0,0.5721
838.0,0.5545
839.0,0.5635
840.0,0.5758
841.0,0.5676
842.0,0.5688
843.0,0.5684
844.0,0.5606
845.0,0.5794
846.0,0.5769
847.0,0.5661
848.0,0.5626
849.0,0.5467
850.0,0.5237
851.0,0.5545
852.0,0.5506
853.0,0.53
854.0,0.4576
855.0,0.5028
856.0,0.5494
857.0,0.5617
858.0,0.5575
859.0,0.558
860.0,0.559
861.0,0.5559
862.0,0.5647
863.0,0.578
864.0,0.5491
865.0,0.5443
866.0,0.4894
867.0,0.5108
868.0,0.5558
869.0,0.5443
870.0,0.5598
871.0,0.5522
872.0,0.5502
873.0,0.5491
874.0,0.5426
875.0,0.5316
876.0,0.5371
877.0,0.5425
878.0,0.5484
879.0,0.54
880.0,0.5284
881.0,0.5205
882.0,0.5317
883.0,0.5334
884.0,0.531
885.0,0.535
886.0,0.5099
887.0,0.5153
888.0,0.5228
889.0,0.5288
890.0,0.5244
891.0,0.5235
892.0,0.5083
893.0,0.4924
894.0,0.4749
895.0,0.4486
896.0,0.4225
897.0,0.3628
898.0,0.396
899.0,0.3009
900.0,0.4056
901.0,0.3154
902.0,0.3705
903.0,0.3741
904.0,0.4713
905.0,0.4551
906.0,0.4258
907.0,0.3456
908.0,0.3525
909.0,0.382
910.0,0.3375
911.0,0.36
912.0,0.3764
913.0,0.3425
914.0,0.3397
915.0,0.3682
916.0,0.3116
917.0,0.3959
918.0,0.3194
919.0,0.4031
920.0,0.4075
921.0,0.4239
922.0,0.3786
923.0,0.4095
924.0,0.388
925.0,0.3796
926.0,0.3837
927.0,0.4299
928.0,0.3143
929.0,0.2865
930.0,0.2245
931.0,0.2128
932.0,0.1525
933.0,0.1236
934.0,0.06687
935.0,0.1268
936.0,0.0786
937.0,0.07959
938.0,0.09811
939.0,0.2062
940.0,0.2486
941.0,0.1869
942.0,0.2169
943.0,0.142
944.0,0.1501
945.0,0.1928
946.0,0.09724
947.0,0.1935
948.0,0.142
949.0,0.2599
950.0,0.07079
951.0,0.2561
952.0,0.1363
953.0,0.1769
954.0,0.2178
955.0,0.179
956.0,0.1743
957.0,0.1364
958.0,0.2483
959.0,0.1962
960.0,0.2199
961.0,0.2477
962.0,0.2342
963.0,0.2707
964.0,0.2478
965.0,0.2698
966.0,0.2696
967.0,0.2684
968.0,0.3624
969.0,0.3784
970.0,0.3471
971.0,0.3985
972.0,0.3809
973.0,0.3306
974.0,0.3136
975.0,0.3259
976.0,0.3089
977.0,0.3527
978.0,0.3346
979.0,0.3508
980.0,0.3296
981.0,0.3962
982.0,0.3784
983.0,0.3631
984.0,0.4087
985.0,0.377
986.0,0.4162
987.0,0.4077
988.0,0.407
989.0,0.4151
990.0,0.4045
991.0,0.4163
992.0,0.4187
993.0,0.4091
994.0,0.4186
995.0,0.4182
996.0,0.4162
997.0,0.4169
998.0,0.4149
999.0,0.4134
1000.0,0.4104
1001.0,0.4156
1002.0,0.4038
1003.0,0.4083
1004.0,0.3982
1005.0,0.3837
1006.0,0.3986
1007.0,0.4071
1008.0,0.4049
1009.0,0.4026
1010.0,0.4009
1011.0,0.4051
1012.0,0.4015
1013.0,0.4041
1014.0,0.4013
1015.0,0.3986
1016.0,0.3968
1017.0,0.3978
1018.0,0.3963
1019.0,0.3878
1020.0,0.3942
1021.0,0.3937
1022.0,0.3906
1023.0,0.3947
1024.0,0.3895
1025.0,0.3945
1026.0,0.3928
1027.0,0.3919
1028.0,0.3911
1029.0,0.3864
1030.0,0.3891
1031.0,0.3875
1032.0,0.3864
1033.0,0.3806
1034.0,0.3806
1035.0,0.3818
1036.0,0.3838
1037.0,0.3776
1038.0,0.3792
1039.0,0.379
1040.0,0.3775
1041.0,0.379
1042.0,0.3763
1043.0,0.3751
1044.0,0.3764
1045.0,0.3713
1046.0,0.3672
1047.0,0.3705
1048.0,0.3725
1049.0,0.3711
1050.0,0.3694
1051.0,0.3689
1052.0,0.3674
1053.0,0.3644
1054.0,0.3652
1055.0,0.3654
1056.0,0.3641
1057.0,0.3629
1058.0,0.354
1059.0,0.3544
1060.0,0.3538
1061.0,0.3534
1062.0,0.3552
1063.0,0.3517
1064.0,0.3559
1065.0,0.3532
1066.0,0.3463
1067.0,0.3508
1068.0,0.3431
1069.0,0.3325
1070.0,0.3437
1071.0,0.3492
1072.0,0.3451
1073.0,0.3401
1074.0,0.3491
1075.0,0.3312
1076.0,0.3488
1077.0,0.3423
1078.0,0.3357
1079.0,0.3432
1080.0,0.337
1081.0,0.3261
1082.0,0.3316
1083.0,0.3327
1084.0,0.3252
1085.0,0.3378
1086.0,0.3077
1087.0,0.318
1088.0,0.3323
1089.0,0.3218
1090.0,0.3145
1091.0,0.3311
1092.0,0.3303
1093.0,0.2791
1094.0,0.3021
1095.0,0.2909
1096.0,0.2782
1097.0,0.3227
1098.0,0.2738
1099.0,0.2858
1100.0,0.2652
1101.0,0.2687
1102.0,0.2563
1103.0,0.2536
1104.0,0.254
1105.0,0.2791
1106.0,0.2118
1107.0,0.2648
1108.0,0.2234
1109.0,0.224
1110.0,0.2623
1111.0,0.1766
1112.0,0.2224
1113.0,0.1401
1114.0,0.1568
1115.0,0.1299
1116.0,0.1028
1117.0,0.0368
1118.0,0.1122
1119.0,0.05487
1120.0,0.06902
1121.0,0.0921
1122.0,0.03805
1123.0,0.0624
1124.0,0.05266
1125.0,0.0689
1126.0,0.02328
1127.0,0.07779
1128.0,0.04576
1129.0,0.04867
1130.0,0.03173
1131.0,0.1494
1132.0,0.1168
1133.0,0.07303
1134.0,0.01808
1135.0,0.006809
1136.0,0.06056
1137.0,0.1464
1138.0,0.1029
1139.0,0.1555
1140.0,0.1292
1141.0,0.09784
1142.0,0.113
1143.0,0.1612
1144.0,0.05536
1145.0,0.07046
1146.0,0.07598
1147.0,0.02599
1148.0,0.1395
1149.0,0.1108
1150.0,0.05963
1151.0,0.1021
1152.0,0.1264
1153.0,0.1237
1154.0,0.06818
1155.0,0.1621
1156.0,0.1456
1157.0,0.164
1158.0,0.1622
1159.0,0.1754
1160.0,0.1494
1161.0,0.185
1162.0,0.1859
1163.0,0.2522
1164.0,0.2159
1165.0,0.2033
1166.0,0.2022
1167.0,0.2204
1168.0,0.2227
1169.0,0.2281
1170.0,0.2482
1171.0,0.242
1172.0,0.2465
1173.0,0.2477
1174.0,0.1764
1175.0,0.2421
1176.0,0.2663
1177.0,0.2555
1178.0,0.1916
1179.0,0.2685
1180.0,0.2394
1181.0,0.2471
1182.0,0.1702
1183.0,0.2434
1184.0,0.228
1185.0,0.2199
1186.0,0.2609
1187.0,0.2485
1188.0,0.1731
1189.0,0.2315
1190.0,0.255
1191.0,0.2421
1192.0,0.2586
1193.0,0.2478
1194.0,0.2554
1195.0,0.2415
1196.0,0.2326
1197.0,0.2556
1198.0,0.2338
1199.0,0.1988
1200.0,0.2447
1201.0,0.236
1202.0,0.2346
1203.0,0.2326
1204.0,0.2034
1205.0,0.2401
1206.0,0.2652
1207.0,0.234
1208.0,0.2303
1209.0,0.2351
1210.0,0.2449
1211.0,0.2332
1212.0,0.2304
1213.0,0.2565
1214.0,0.2359
1215.0,0.2315
1216.0,0.2556
1217.0,0.2489
1218.0,0.2536
1219.0,0.2505
1220.0,0.2538
1221.0,0.2563
1222.0,0.2497
1223.0,0.2474
1224.0,0.2459
1225.0,0.2547
1226.0,0.2564
1227.0,0.2366
1228.0,0.2577
1229.0,0.2564
1230.0,0.2521
1231.0,0.2592
1232.0,0.2576
1233.0,0.2489
1234.0,0.2589
1235.0,0.2573
1236.0,0.2592
1237.0,0.2556
1238.0,0.2583
1239.0,0.255
1240.0,0.256
1241.0,0.2548
1242.0,0.2542
1243.0,0.2521
1244.0,0.2539
1245.0,0.255
1246.0,0.2535
1247.0,0.2525
1248.0,0.2524
1249.0,0.2532
1250.0,0.2516
1251.0,0.2484
1252.0,0.2484
1253.0,0.2465
1254.0,0.244
1255.0,0.2482
1256.0,0.2413
1257.0,0.2399
1258.0,0.2444
1259.0,0.2356
1260.0,0.2368
1261.0,0.2236
1262.0,0.2169
1263.0,0.2173
1264.0,0.2007
1265.0,0.2159
1266.0,0.2078
1267.0,0.2115
1268.0,0.2006
1269.0,0.1247
1270.0,0.2107
1271.0,0.2228
1272.0,0.2236
1273.0,0.2212
1274.0,0.2219
1275.0,0.2251
1276.0,0.2273
1277.0,0.2288
1278.0,0.2331
1279.0,0.231
1280.0,0.2281
1281.0,0.2177
1282.0,0.2097
1283.0,0.2258
1284.0,0.2313
1285.0,0.2328
1286.0,0.2359
1287.0,0.2323
1288.0,0.2322
1289.0,0.2249
1290.0,0.2302
1291.0,0.2334
1292.0,0.2193
1293.0,0.2289
1294.0,0.2273
1295.0,0.2262
1296.0,0.216
1297.0,0.2043
1298.0,0.2199
1299.0,0.2291
1300.0,0.1941
1301.0,0.2
1302.0,0.2192
1303.0,0.1915
1304.0,0.1634
1305.0,0.2147
1306.0,0.2147
1307.0,0.1669
1308.0,0.1918
1309.0,0.213
1310.0,0.1637
1311.0,0.1839
1312.0,0.1789
1313.0,0.1754
1314.0,0.157
1315.0,0.155
1316.0,0.181
1317.0,0.1714
1318.0,0.1863
1319.0,0.1456
1320.0,0.1411
1321.0,0.1643
1322.0,0.166
1323.0,0.1248
1324.0,0.1428
1325.0,0.1784
1326.0,0.153
1327.0,0.1459
1328.0,0.1258
1329.0,0.09427
1330.0,0.1228
1331.0,0.07384
1332.0,0.07636
1333.0,0.1064
1334.0,0.09024
1335.0,0.1243
1336.0,0.09813
1337.0,0.08666
1338.0,0.09379
1339.0,0.09343
1340.0,0.09096
1341.0,0.0886
1342.0,0.09308
1343.0,0.06253
1344.0,0.03748
1345.0,0.05408
1346.0,0.02652
1347.0,0.0269
1348.0,0.001703
1349.0,0.006165
1350.0,0.006437
1351.0,0.001531
1352.0,0.0004045
1353.0,2.019e-05
1354.0,7.064e-05
1355.0,5.447e-07
1356.0,9.852e-06
1357.0,1.502e-05
1358.0,6.464e-07
1359.0,7.886e-08
1360.0,2.924e-07
1361.0,3.046e-10
1362.0,8.101e-13
1363.0,3.923e-07
1364.0,1.622e-07
1365.0,2.74e-13
1366.0,1.731e-06
1367.0,7.133e-07
1368.0,1.971e-15
1369.0,6.053e-08
1370.0,2.946e-08
1371.0,1.645e-09
1372.0,3.926e-07
1373.0,8.123e-06
1374.0,3.839e-05
1375.0,6.978e-05
1376.0,6.363e-05
1377.0,2.904e-05
1378.0,0.0002868
1379.0,1.22e-05
1380.0,1.741e-05
1381.0,4.505e-07
1382.0,3.527e-07
1383.0,5.22e-09
1384.0,6.809e-08
1385.0,3.392e-07
1386.0,3.114e-07
1387.0,3.948e-05
1388.0,7.788e-07
1389.0,0.0001365
1390.0,0.0001175
1391.0,7.808e-05
1392.0,5.049e-06
1393.0,2.706e-05
1394.0,1.362e-05
1395.0,9.83e-08
1396.0,4.434e-10
1397.0,1.071e-05
1398.0,0.0003217
1399.0,0.0002042
1400.0,1.881e-10
1401.0,8.037e-10
1402.0,0.0005833
1403.0,0.0007297
1404.0,0.0002219
1405.0,4.729e-08
1406.0,0.0005726
1407.0,5.088e-05
1408.0,0.0004692
1409.0,0.0001549
1410.0,0.0001254
1411.0,0.0006423
1412.0,0.0008743
1413.0,0.009288
1414.0,9.916e-05
1415.0,4.721e-05
1416.0,0.01565
1417.0,0.004582
1418.0,0.005193
1419.0,0.0007992
1420.0,0.003172
1421.0,0.003432
1422.0,0.02047
1423.0,0.003924
1424.0,0.0074
1425.0,0.01081
1426.0,0.01247
1427.0,0.02339
1428.0,0.001596
1429.0,0.01726
1430.0,0.03002
1431.0,0.03314
1432.0,0.001253
1433.0,0.02085
1434.0,0.01049
1435.0,0.0101
1436.0,0.0201
1437.0,0.01541
1438.0,0.006341
1439.0,0.02761
1440.0,0.02067
1441.0,0.01542
