interpolation:linear
wavelength,value
280.0,9.891e-22
280.5,3.1860000000000003e-20
281.0,1.695e-19
281.5,5.263e-19
282.0,9.346e-19
282.5,2.321e-18
283.0,7.311e-18
283.5,1.187e-17
284.0,1.923e-16
284.5,5.563e-16
285.0,1.082e-15
285.5,5.228e-15
286.0,2.09e-14
286.5,9.26e-14
287.0,2.631e-13
287.5,1.002e-12
288.0,3.114e-12
288.5,9.704e-12
289.0,2.632e-11
289.5,8.043e-11
290.0,2.247e-10
290.5,4.6e-10
291.0,9.906e-10
291.5,2.85e-09
292.0,5.972e-09
292.5,8.566e-09
293.0,1.886e-08
293.5,4.741e-08
294.0,7.574e-08
294.5,9.986e-08
295.0,1.722e-07
295.5,3.855e-07
296.0,6.957e-07
296.5,1.004e-06
297.0,1.401e-06
297.5,3.964e-06
298.0,6.592e-06
298.5,6.951e-06
299.0,1.613e-05
299.5,2.964e-05
300.0,3.477e-05
300.5,5.416e-05
301.0,0.0001119
301.5,0.0002059
302.0,0.0001919
302.5,0.0003856
303.0,0.0007199
303.5,0.0009316
304.0,0.0008946
304.5,0.001413
305.0,0.002316
305.5,0.002787
306.0,0.00275
306.5,0.003535
307.0,0.005623
307.5,0.00799
308.0,0.008532
308.5,0.01041
309.0,0.01047
309.5,0.01249
310.0,0.01278
310.5,0.0209
311.0,0.02665
311.5,0.0259
312.0,0.02677
312.5,0.0333
313.0,0.03654
313.5,0.03512
314.0,0.04507
314.5,0.04135
315.0,0.05469
315.5,0.04502
316.0,0.04042
316.5,0.05943
317.0,0.07377
317.5,0.07628
318.0,0.06048
318.5,0.07741
319.0,0.09329
319.5,0.07423
320.0,0.08939
320.5,0.1154
321.0,0.1056
321.5,0.1015
322.0,0.1051
322.5,0.09163
323.0,0.09303
323.5,0.1163
324.0,0.1362
324.5,0.1372
325.0,0.1175
325.5,0.1535
326.0,0.1884
326.5,0.1905
327.0,0.1893
327.5,0.1821
328.0,0.1602
328.5,0.1709
329.0,0.2072
329.5,0.2361
330.0,0.2376
330.5,0.1885
331.0,0.1915
331.5,0.196
332.0,0.214
332.5,0.2127
333.0,0.2116
333.5,0.1901
334.0,0.1946
334.5,0.2265
335.0,0.214
335.5,0.2501
336.0,0.1731
336.5,0.2022
337.0,0.1654
337.5,0.2055
338.0,0.2021
338.5,0.2336
339.0,0.2314
339.5,0.2227
340.0,0.2615
340.5,0.236
341.0,0.2303
341.5,0.2117
342.0,0.2532
342.5,0.237
343.0,0.2606
343.5,0.2454
344.0,0.1814
344.5,0.1833
345.0,0.2428
345.5,0.2481
346.0,0.2111
346.5,0.2391
347.0,0.2567
347.5,0.2076
348.0,0.2369
348.5,0.237
349.0,0.22
349.5,0.2179
350.0,0.2697
350.5,0.2846
351.0,0.2542
351.5,0.247
352.0,0.2656
352.5,0.2074
353.0,0.2615
353.5,0.2797
354.0,0.2905
354.5,0.2947
355.0,0.2938
355.5,0.2656
356.0,0.2781
356.5,0.2375
357.0,0.1963
357.5,0.2404
358.0,0.1906
358.5,0.1629
359.0,0.2279
359.5,0.2905
360.0,0.3081
360.5,0.2464
361.0,0.2247
361.5,0.259
362.0,0.2242
362.5,0.3105
363.0,0.279
363.5,0.2572
364.0,0.3147
364.5,0.2691
365.0,0.2742
365.5,0.3444
366.0,0.3651
366.5,0.3432
367.0,0.3344
367.5,0.3472
368.0,0.304
368.5,0.3069
369.0,0.3316
369.5,0.3536
370.0,0.3772
370.5,0.2929
371.0,0.3131
371.5,0.3919
372.0,0.2602
372.5,0.3121
373.0,0.3177
373.5,0.2068
374.0,0.3007
374.5,0.2491
375.0,0.2423
375.5,0.3618
376.0,0.3001
376.5,0.3111
377.0,0.3295
377.5,0.3857
378.0,0.4182
378.5,0.3954
379.0,0.3264
379.5,0.2982
380.0,0.3102
380.5,0.3759
381.0,0.377
381.5,0.299
382.0,0.2657
382.5,0.2267
383.0,0.21
383.5,0.2024
384.0,0.2233
384.5,0.3287
385.0,0.3261
385.5,0.3039
386.0,0.2604
386.5,0.3422
387.0,0.2845
387.5,0.3197
388.0,0.2953
388.5,0.292
389.0,0.3154
389.5,0.3821
390.0,0.3837
390.5,0.3533
391.0,0.416
391.5,0.4245
392.0,0.3577
392.5,0.3204
393.0,0.1784
393.5,0.1297
394.0,0.2641
394.5,0.3359
395.0,0.4101
395.5,0.4167
396.0,0.3614
396.5,0.2114
397.0,0.1587
397.5,0.323
398.0,0.4524
398.5,0.4678
399.0,0.5069
399.5,0.5054
400.0,0.5249
401.0,0.5311
402.0,0.5609
403.0,0.5334
404.0,0.5255
405.0,0.5258
406.0,0.5178
407.0,0.5099
408.0,0.53
409.0,0.5677
410.0,0.4965
411.0,0.5382
412.0,0.5786
413.0,0.5645
414.0,0.5719
415.0,0.5739
416.0,0.5845
417.0,0.5704
418.0,0.5602
419.0,0.568
420.0,0.5658
421.0,0.5923
422.0,0.5633
423.0,0.5506
424.0,0.5825
425.0,0.5819
426.0,0.5674
427.0,0.5571
428.0,0.5429
429.0,0.5147
430.0,0.4508
431.0,0.4469
432.0,0.5774
433.0,0.5809
434.0,0.5396
435.0,0.5637
436.0,0.6357
437.0,0.6277
438.0,0.5719
439.0,0.5913
440.0,0.6105
441.0,0.6331
442.0,0.6792
443.0,0.6615
444.0,0.6763
445.0,0.6618
446.0,0.6322
447.0,0.684
448.0,0.6945
449.0,0.698
450.0,0.7179
451.0,0.7448
452.0,0.7179
453.0,0.6755
454.0,0.7057
455.0,0.7101
456.0,0.7273
457.0,0.7395
458.0,0.7141
459.0,0.7106
460.0,0.7125
461.0,0.7291
462.0,0.7351
463.0,0.7301
464.0,0.7187
465.0,0.7102
466.0,0.7175
467.0,0.7043
468.0,0.7127
469.0,0.7165
470.0,0.6936
471.0,0.6929
472.0,0.7301
473.0,0.7207
474.0,0.7214
475.0,0.7272
476.0,0.705
477.0,0.7067
478.0,0.7265
479.0,0.7224
480.0,0.7241
481.0,0.7381
482.0,0.7425
483.0,0.7341
484.0,0.7194
485.0,0.6858
486.0,0.5999
487.0,0.629
488.0,0.6901
489.0,0.6921
490.0,0.7284
491.0,0.7161
492.0,0.6763
493.0,0.6986
494.0,0.7057
495.0,0.7117
496.0,0.7162
497.0,0.7272
498.0,0.6932
499.0,0.7019
500.0,0.6812
501.0,0.6684
502.0,0.6584
503.0,0.6845
504.0,0.6652
505.0,0.6906
506.0,0.7129
507.0,0.6785
508.0,0.6579
509.0,0.6769
510.0,0.6737
511.0,0.6922
512.0,0.6999
513.0,0.6626
514.0,0.6582
515.0,0.6517
516.0,0.65
517.0,0.5777
518.0,0.6073
519.0,0.637
520.0,0.6601
521.0,0.6663
522.0,0.6667
523.0,0.6546
524.0,0.6777
525.0,0.6852
526.0,0.6544
527.0,0.6162
528.0,0.6514
529.0,0.6864
530.0,0.6763
531.0,0.6862
532.0,0.6625
533.0,0.6431
534.0,0.6623
535.0,0.677
536.0,0.6834
537.0,0.6567
538.0,0.6684
539.0,0.6628
540.0,0.6353
541.0,0.639
542.0,0.6587
543.0,0.6522
544.0,0.6631
545.0,0.6611
546.0,0.6636
547.0,0.6637
548.0,0.656
549.0,0.6581
550.0,0.666
551.0,0.658
552.0,0.6625
553.0,0.6506
554.0,0.6661
555.0,0.6673
556.0,0.6586
557.0,0.6379
558.0,0.6328
559.0,0.6207
560.0,0.6282
561.0,0.6361
562.0,0.6311
563.0,0.6479
564.0,0.6299
565.0,0.6242
566.0,0.6148
567.0,0.626
568.0,0.6194
569.0,0.6027
570.0,0.6028
571.0,0.5997
572.0,0.6128
573.0,0.6191
574.0,0.6168
575.0,0.6048
576.0,0.5993
577.0,0.6061
578.0,0.5976
579.0,0.6008
580.0,0.6137
581.0,0.618
582.0,0.6306
583.0,0.633
584.0,0.639
585.0,0.6237
586.0,0.6109
587.0,0.6237
588.0,0.606
589.0,0.5321
590.0,0.5568
591.0,0.5921
592.0,0.583
593.0,0.5938
594.0,0.5887
595.0,0.5725
596.0,0.599
597.0,0.5915
598.0,0.5912
599.0,0.5922
600.0,0.5941
601.0,0.59
602.0,0.5861
603.0,0.5962
604.0,0.6063
605.0,0.6034
606.0,0.6013
607.0,0.6078
608.0,0.6015
609.0,0.6029
610.0,0.599
611.0,0.6024
612.0,0.6009
613.0,0.5935
614.0,0.5858
615.0,0.5989
616.0,0.5795
617.0,0.5785
618.0,0.601
619.0,0.595
620.0,0.5988
621.0,0.599
622.0,0.5917
623.0,0.5824
624.0,0.5727
625.0,0.5714
626.0,0.5798
627.0,0.5854
628.0,0.5357
629.0,0.5677
630.0,0.5543
631.0,0.5705
632.0,0.5644
633.0,0.5831
634.0,0.5786
635.0,0.5883
636.0,0.5812
637.0,0.5912
638.0,0.5978
639.0,0.5915
640.0,0.5863
641.0,0.5863
642.0,0.5841
643.0,0.592
644.0,0.5906
645.0,0.5913
646.0,0.5762
647.0,0.5663
648.0,0.5667
649.0,0.5555
650.0,0.562
651.0,0.5871
652.0,0.5587
653.0,0.5795
654.0,0.5734
655.0,0.55
656.0,0.4889
657.0,0.5023
658.0,0.5641
659.0,0.5687
660.0,0.5713
661.0,0.5755
662.0,0.5759
663.0,0.5648
664.0,0.5726
665.0,0.5739
666.0,0.5747
667.0,0.5746
668.0,0.5753
669.0,0.5845
670.0,0.5821
671.0,0.5822
672.0,0.5774
673.0,0.5863
674.0,0.5843
675.0,0.5791
676.0,0.5833
677.0,0.5776
678.0,0.5794
679.0,0.5702
680.0,0.5749
681.0,0.5711
682.0,0.5704
683.0,0.5694
684.0,0.5665
685.0,0.5716
686.0,0.568
687.0,0.3306
688.0,0.4085
689.0,0.4107
690.0,0.4382
691.0,0.4698
692.0,0.4939
693.0,0.4893
694.0,0.4858
695.0,0.5117
696.0,0.5126
697.0,0.551
698.0,0.5423
699.0,0.5246
700.0,0.5181
701.0,0.5112
702.0,0.5165
703.0,0.5177
704.0,0.5371
705.0,0.5379
706.0,0.5385
707.0,0.5394
708.0,0.5404
709.0,0.543
710.0,0.5421
711.0,0.542
712.0,0.5412
713.0,0.5349
714.0,0.5372
715.0,0.5184
716.0,0.5182
717.0,0.4324
718.0,0.3952
719.0,0.3606
720.0,0.3761
721.0,0.4252
722.0,0.4972
723.0,0.4574
724.0,0.4056
725.0,0.3969
726.0,0.4162
727.0,0.4264
728.0,0.3951
729.0,0.4159
730.0,0.4393
731.0,0.4189
732.0,0.4544
733.0,0.4869
734.0,0.5003
735.0,0.489
736.0,0.4882
737.0,0.4901
738.0,0.502
739.0,0.4922
740.0,0.5063
741.0,0.5021
742.0,0.5034
743.0,0.5164
744.0,0.5155
745.0,0.516
746.0,0.5183
747.0,0.5196
748.0,0.5185
749.0,0.5127
750.0,0.5124
751.0,0.5072
752.0,0.5095
753.0,0.5121
754.0,0.5133
755.0,0.5103
756.0,0.5102
757.0,0.5109
758.0,0.5044
759.0,0.4915
760.0,0.04597
761.0,0.01967
762.0,0.2035
763.0,0.08056
764.0,0.1386
765.0,0.2033
766.0,0.2707
767.0,0.3647
768.0,0.4406
769.0,0.4545
770.0,0.4752
771.0,0.4813
772.0,0.4831
773.0,0.4867
774.0,0.4845
775.0,0.4809
776.0,0.4868
777.0,0.4804
778.0,0.4775
779.0,0.4779
780.0,0.4753
781.0,0.4758
782.0,0.4788
783.0,0.4705
784.0,0.4729
785.0,0.4692
786.0,0.4742
787.0,0.4638
788.0,0.457
789.0,0.4567
790.0,0.4416
791.0,0.4483
792.0,0.4455
793.0,0.4379
794.0,0.4484
795.0,0.4552
796.0,0.4372
797.0,0.4374
798.0,0.4542
799.0,0.4505
800.0,0.4417
801.0,0.4394
802.0,0.4382
803.0,0.4343
804.0,0.4354
805.0,0.4352
806.0,0.4494
807.0,0.4436
808.0,0.4441
809.0,0.4343
810.0,0.4297
811.0,0.428
812.0,0.4131
813.0,0.4031
814.0,0.3463
815.0,0.3446
816.0,0.3198
817.0,0.3264
818.0,0.3122
819.0,0.3562
820.0,0.3329
821.0,0.3994
822.0,0.3863
823.0,0.2469
824.0,0.3712
825.0,0.3923
826.0,0.3741
827.0,0.3982
828.0,0.3279
829.0,0.3725
830.0,0.3668
831.0,0.3682
832.0,0.3552
833.0,0.3825
834.0,0.3658
835.0,0.409
836.0,0.3868
837.0,0.4103
838.0,0.3953
839.0,0.4046
840.0,0.4141
841.0,0.4072
842.0,0.4097
843.0,0.411
844.0,0.4044
845.0,0.4193
846.0,0.4177
847.0,0.4104
848.0,0.4072
849.0,0.3956
850.0,0.3791
851.0,0.4006
852.0,0.3981
853.0,0.3838
854.0,0.3309
855.0,0.3643
856.0,0.3978
857.0,0.4071
858.0,0.4039
859.0,0.4046
860.0,0.4055
861.0,0.4032
862.0,0.4097
863.0,0.4194
864.0,0.3985
865.0,0.395
866.0,0.3552
867.0,0.3707
868.0,0.4034
869.0,0.3951
870.0,0.4064
871.0,0.4008
872.0,0.3994
873.0,0.3987
874.0,0.3939
875.0,0.3859
876.0,0.3899
877.0,0.3939
878.0,0.398
879.0,0.3919
880.0,0.3835
881.0,0.3774
882.0,0.3854
883.0,0.387
884.0,0.3851
885.0,0.388
886.0,0.3685
887.0,0.3734
888.0,0.3783
889.0,0.3838
890.0,0.3791
891.0,0.3792
892.0,0.3664
893.0,0.353
894.0,0.3366
895.0,0.3131
896.0,0.2934
897.0,0.2459
898.0,0.2715
899.0,0.1996
900.0,0.2819
901.0,0.2092
902.0,0.2549
903.0,0.2542
904.0,0.334
905.0,0.3206
906.0,0.2984
907.0,0.2329
908.0,0.2392
909.0,0.2631
910.0,0.2251
911.0,0.2452
912.0,0.2574
913.0,0.2281
914.0,0.2276
915.0,0.2465
916.0,0.2073
917.0,0.2707
918.0,0.212
919.0,0.2781
920.0,0.286
921.0,0.2976
922.0,0.2604
923.0,0.2879
924.0,0.2658
925.0,0.2602
926.0,0.2624
927.0,0.2993
928.0,0.2037
929.0,0.1817
930.0,0.1362
931.0,0.1296
932.0,0.0866
933.0,0.06728
934.0,0.03059
935.0,0.07136
936.0,0.04041
937.0,0.04066
938.0,0.05153
939.0,0.1254
940.0,0.1558
941.0,0.1112
942.0,0.1324
943.0,0.08215
944.0,0.09133
945.0,0.116
946.0,0.05252
947.0,0.1148
948.0,0.08358
949.0,0.1601
950.0,0.03529
951.0,0.1587
952.0,0.07693
953.0,0.1049
954.0,0.1349
955.0,0.1067
956.0,0.1087
957.0,0.07644
958.0,0.1618
959.0,0.1211
960.0,0.1357
961.0,0.1582
962.0,0.1492
963.0,0.1772
964.0,0.1608
965.0,0.1767
966.0,0.1757
967.0,0.1744
968.0,0.2534
969.0,0.2622
970.0,0.2387
971.0,0.2818
972.0,0.2678
973.0,0.2245
974.0,0.2121
975.0,0.2233
976.0,0.2072
977.0,0.2456
978.0,0.2292
979.0,0.2426
980.0,0.2267
981.0,0.2805
982.0,0.2649
983.0,0.2526
984.0,0.2928
985.0,0.2639
986.0,0.3004
987.0,0.2917
988.0,0.2913
989.0,0.301
990.0,0.2895
991.0,0.3016
992.0,0.3036
993.0,0.2941
994.0,0.3038
995.0,0.3038
996.0,0.302
997.0,0.3027
998.0,0.3011
999.0,0.3001
1000.0,0.2974
1001.0,0.3018
1002.0,0.2909
1003.0,0.2963
1004.0,0.2884
1005.0,0.2788
1006.0,0.2892
1007.0,0.2955
1008.0,0.2935
1009.0,0.2914
1010.0,0.2899
1011.0,0.2941
1012.0,0.2911
1013.0,0.2936
1014.0,0.2915
1015.0,0.2895
1016.0,0.2881
1017.0,0.2888
1018.0,0.288
1019.0,0.2809
1020.0,0.2863
1021.0,0.2861
1022.0,0.2835
1023.0,0.2865
1024.0,0.2817
1025.0,0.2866
1026.0,0.2851
1027.0,0.2845
1028.0,0.2838
1029.0,0.2804
1030.0,0.2827
1031.0,0.2814
1032.0,0.2807
1033.0,0.2764
1034.0,0.2765
1035.0,0.2774
1036.0,0.2787
1037.0,0.2742
1038.0,0.2754
1039.0,0.2751
1040.0,0.274
1041.0,0.275
1042.0,0.2731
1043.0,0.2722
1044.0,0.273
1045.0,0.2693
1046.0,0.2662
1047.0,0.2686
1048.0,0.27
1049.0,0.2689
1050.0,0.2676
1051.0,0.2671
1052.0,0.2659
1053.0,0.2637
1054.0,0.2641
1055.0,0.2641
1056.0,0.263
1057.0,0.262
1058.0,0.2555
1059.0,0.2556
1060.0,0.2551
1061.0,0.2547
1062.0,0.2559
1063.0,0.2532
1064.0,0.2563
1065.0,0.254
1066.0,0.2493
1067.0,0.2524
1068.0,0.2466
1069.0,0.2393
1070.0,0.2471
1071.0,0.2519
1072.0,0.2483
1073.0,0.2448
1074.0,0.2522
1075.0,0.2368
1076.0,0.2518
1077.0,0.2458
1078.0,0.2404
1079.0,0.2483
1080.0,0.2421
1081.0,0.2329
1082.0,0.239
1083.0,0.2403
1084.0,0.2318
1085.0,0.2428
1086.0,0.2178
1087.0,0.2274
1088.0,0.2396
1089.0,0.2297
1090.0,0.2232
1091.0,0.2381
1092.0,0.2381
1093.0,0.1947
1094.0,0.2169
1095.0,0.2035
1096.0,0.1928
1097.0,0.2326
1098.0,0.1888
1099.0,0.1981
1100.0,0.1813
1101.0,0.1845
1102.0,0.1743
1103.0,0.1712
1104.0,0.1716
1105.0,0.193
1106.0,0.1361
1107.0,0.1811
1108.0,0.1467
1109.0,0.1482
1110.0,0.1783
1111.0,0.1119
1112.0,0.1476
1113.0,0.08506
1114.0,0.09567
1115.0,0.07878
1116.0,0.05798
1117.0,0.01666
1118.0,0.06448
1119.0,0.02792
1120.0,0.03467
1121.0,0.04828
1122.0,0.01702
1123.0,0.03151
1124.0,0.02654
1125.0,0.03563
1126.0,0.00929
1127.0,0.0405
1128.0,0.02068
1129.0,0.02234
1130.0,0.01377
1131.0,0.08617
1132.0,0.06578
1133.0,0.03663
1134.0,0.007046
1135.0,0.002792
1136.0,0.02885
1137.0,0.08273
1138.0,0.05739
1139.0,0.09629
1140.0,0.07634
1141.0,0.05465
1142.0,0.06488
1143.0,0.09671
1144.0,0.02898
1145.0,0.03537
1146.0,0.03809
1147.0,0.01029
1148.0,0.08327
1149.0,0.06344
1150.0,0.03197
1151.0,0.05691
1152.0,0.07372
1153.0,0.07472
1154.0,0.03423
1155.0,0.1003
1156.0,0.08814
1157.0,0.1029
1158.0,0.1017
1159.0,0.1122
1160.0,0.0935
1161.0,0.1212
1162.0,0.1212
1163.0,0.1743
1164.0,0.1457
1165.0,0.1337
1166.0,0.1357
1167.0,0.1496
1168.0,0.1504
1169.0,0.1551
1170.0,0.1718
1171.0,0.1673
1172.0,0.1723
1173.0,0.1715
1174.0,0.115
1175.0,0.1692
1176.0,0.1902
1177.0,0.1797
1178.0,0.1294
1179.0,0.1918
1180.0,0.1667
1181.0,0.1722
1182.0,0.1127
1183.0,0.1706
1184.0,0.1578
1185.0,0.1503
1186.0,0.1846
1187.0,0.1738
1188.0,0.1136
1189.0,0.1616
1190.0,0.1807
1191.0,0.1677
1192.0,0.1836
1193.0,0.1746
1194.0,0.1809
1195.0,0.1684
1196.0,0.1607
1197.0,0.1821
1198.0,0.1652
1199.0,0.1351
1200.0,0.1723
1201.0,0.1642
1202.0,0.1648
1203.0,0.1626
1204.0,0.1398
1205.0,0.1702
1206.0,0.1907
1207.0,0.1636
1208.0,0.1627
1209.0,0.1664
1210.0,0.1746
1211.0,0.1643
1212.0,0.1595
1213.0,0.1831
1214.0,0.1645
1215.0,0.1609
1216.0,0.1828
1217.0,0.1769
1218.0,0.1812
1219.0,0.1784
1220.0,0.1815
1221.0,0.1839
1222.0,0.1786
1223.0,0.1765
1224.0,0.1744
1225.0,0.1826
1226.0,0.1846
1227.0,0.1675
1228.0,0.1861
1229.0,0.1846
1230.0,0.1809
1231.0,0.1879
1232.0,0.1867
1233.0,0.1779
1234.0,0.1882
1235.0,0.1867
1236.0,0.1883
1237.0,0.1847
1238.0,0.1877
1239.0,0.1853
1240.0,0.1861
1241.0,0.1846
1242.0,0.1847
1243.0,0.1833
1244.0,0.1844
1245.0,0.1853
1246.0,0.1842
1247.0,0.1834
1248.0,0.1829
1249.0,0.1838
1250.0,0.1825
1251.0,0.1798
1252.0,0.1803
1253.0,0.178
1254.0,0.1756
1255.0,0.1799
1256.0,0.1733
1257.0,0.172
1258.0,0.1765
1259.0,0.1677
1260.0,0.1688
1261.0,0.1564
1262.0,0.1502
1263.0,0.1504
1264.0,0.1353
1265.0,0.1495
1266.0,0.1418
1267.0,0.1457
1268.0,0.1359
1269.0,0.07065
1270.0,0.1446
1271.0,0.1563
1272.0,0.1571
1273.0,0.1551
1274.0,0.156
1275.0,0.1589
1276.0,0.161
1277.0,0.1628
1278.0,0.1671
1279.0,0.1655
1280.0,0.1635
1281.0,0.1565
1282.0,0.1518
1283.0,0.1633
1284.0,0.167
1285.0,0.1682
1286.0,0.171
1287.0,0.1674
1288.0,0.1677
1289.0,0.1605
1290.0,0.1663
1291.0,0.169
1292.0,0.1554
1293.0,0.1649
1294.0,0.1636
1295.0,0.1617
1296.0,0.1523
1297.0,0.1425
1298.0,0.1567
1299.0,0.1654
1300.0,0.1345
1301.0,0.1397
1302.0,0.1563
1303.0,0.1333
1304.0,0.1087
1305.0,0.1528
1306.0,0.1523
1307.0,0.1129
1308.0,0.1344
1309.0,0.1504
1310.0,0.1104
1311.0,0.1277
1312.0,0.1235
1313.0,0.12
1314.0,0.1057
1315.0,0.1031
1316.0,0.1247
1317.0,0.1175
1318.0,0.1298
1319.0,0.09544
1320.0,0.09375
1321.0,0.1113
1322.0,0.1113
1323.0,0.07886
1324.0,0.09383
1325.0,0.1224
1326.0,0.102
1327.0,0.09643
1328.0,0.08149
1329.0,0.05694
1330.0,0.0763
1331.0,0.04135
1332.0,0.04417
1333.0,0.06241
1334.0,0.05569
1335.0,0.07829
1336.0,0.05927
1337.0,0.05144
1338.0,0.05547
1339.0,0.0559
1340.0,0.05575
1341.0,0.05121
1342.0,0.05415
1343.0,0.03114
1344.0,0.01914
1345.0,0.02747
1346.0,0.01068
1347.0,0.01036
1348.0,0.0003938
1349.0,0.001623
1350.0,0.001858
1351.0,0.0002761
1352.0,4.064e-05
1353.0,1.238e-06
1354.0,6.266e-06
1355.0,1.583e-08
1356.0,5.913e-07
1357.0,9.029e-07
1358.0,1.963e-08
1359.0,1.056e-09
1360.0,6.567e-09
1361.0,1.719e-12
1362.0,3.418e-15
1363.0,6.214e-09
1364.0,2.702e-09
1365.0,9.137e-16
1366.0,3.367e-08
1367.0,1.764e-08
1368.0,6.183e-18
1369.0,9.908e-10
1370.0,3.47e-10
1371.0,1.418e-11
1372.0,9.932e-09
1373.0,3.516e-07
1374.0,2.471e-06
1375.0,4.132e-06
1376.0,5.792e-06
1377.0,2.45e-06
1378.0,2.681e-05
1379.0,1.038e-06
1380.0,1.112e-06
1381.0,2.432e-08
1382.0,7.995e-09
1383.0,9.478e-11
1384.0,9.539e-10
1385.0,1.193e-08
1386.0,5.421e-09
1387.0,1.848e-06
1388.0,4.24e-08
1389.0,1.051e-05
1390.0,8.706e-06
1391.0,5.527e-06
1392.0,3.368e-07
1393.0,2.196e-06
1394.0,5.397e-07
1395.0,2.764e-09
1396.0,2.795e-12
1397.0,7.454e-07
1398.0,2.817e-05
1399.0,1.842e-05
1400.0,8.835e-13
1401.0,5.663e-12
1402.0,9.912e-05
1403.0,0.0001089
1404.0,3.111e-05
1405.0,9.757e-10
1406.0,6.438e-05
1407.0,7.352e-06
1408.0,5.516e-05
1409.0,1.298e-05
1410.0,1.407e-05
1411.0,9.855e-05
1412.0,0.0001578
1413.0,0.002532
1414.0,1.171e-05
1415.0,4.825e-06
1416.0,0.005789
1417.0,0.00131
1418.0,0.001338
1419.0,0.0001939
1420.0,0.0008084
1421.0,0.0009352
1422.0,0.007604
1423.0,0.001378
1424.0,0.002743
1425.0,0.003723
1426.0,0.00489
1427.0,0.01039
1428.0,0.0003495
1429.0,0.006972
1430.0,0.01404
1431.0,0.01597
1432.0,0.0002696
1433.0,0.00945
