interpolation:linear
wavelength,value
280.0,2.235e-21
280.5,7.059e-20
281.0,3.734e-19
281.5,3.91e-19
282.0,1.025e-18
282.5,2.659e-18
283.0,8.548e-18
283.5,1.397e-17
284.0,2.272e-16
284.5,6.563e-16
285.0,1.449e-15
285.5,6.973e-15
286.0,2.783e-14
286.5,1.226e-13
287.0,3.467e-13
287.5,1.312e-12
288.0,3.614e-12
288.5,1.181e-11
289.0,3.311e-11
289.5,1.038e-10
290.0,2.946e-10
290.5,6.098e-10
291.0,1.327e-09
291.5,3.858e-09
292.0,8.03e-09
292.5,1.196e-08
293.0,2.766e-08
293.5,7.439e-08
294.0,1.248e-07
294.5,1.617e-07
295.0,2.929e-07
295.5,7.334e-07
296.0,1.468e-06
296.5,2.14e-06
297.0,3.009e-06
297.5,8.6e-06
298.0,1.44e-05
298.5,1.525e-05
299.0,3.546e-05
299.5,6.512e-05
300.0,7.623e-05
300.5,0.0001183
301.0,0.0002428
301.5,0.000444
302.0,0.0004133
302.5,0.0008202
303.0,0.001504
303.5,0.001919
304.0,0.001821
304.5,0.002786
305.0,0.004368
305.5,0.005106
306.0,0.004981
306.5,0.006283
307.0,0.009578
307.5,0.01306
308.0,0.01385
308.5,0.01656
309.0,0.01639
309.5,0.01901
310.0,0.01922
310.5,0.03124
311.0,0.03943
311.5,0.03815
312.0,0.03858
312.5,0.04729
313.0,0.05149
313.5,0.04984
314.0,0.06286
314.5,0.05636
315.0,0.07423
315.5,0.06178
316.0,0.05444
316.5,0.07877
317.0,0.0978
317.5,0.1016
318.0,0.07966
318.5,0.09985
319.0,0.1191
319.5,0.09636
320.0,0.1163
320.5,0.1469
321.0,0.1319
321.5,0.1266
322.0,0.1338
322.5,0.1165
323.0,0.1167
323.5,0.1441
324.0,0.1684
324.5,0.1707
325.0,0.1471
325.5,0.19
326.0,0.2326
326.5,0.2336
327.0,0.2326
327.5,0.2245
328.0,0.1993
328.5,0.2103
329.0,0.2526
329.5,0.2871
330.0,0.2895
330.5,0.2312
331.0,0.2355
331.5,0.2398
332.0,0.2597
332.5,0.2573
333.0,0.2564
333.5,0.2317
334.0,0.2374
334.5,0.2745
335.0,0.2583
335.5,0.3018
336.0,0.2089
336.5,0.2445
337.0,0.2005
337.5,0.2494
338.0,0.2439
338.5,0.2817
339.0,0.2789
339.5,0.2684
340.0,0.3154
340.5,0.2845
341.0,0.2775
341.5,0.2549
342.0,0.3048
342.5,0.2852
343.0,0.3137
343.5,0.2955
344.0,0.2184
344.5,0.2206
345.0,0.2922
345.5,0.2984
346.0,0.2537
346.5,0.2874
347.0,0.3086
347.5,0.2496
348.0,0.2847
348.5,0.2846
349.0,0.2642
349.5,0.2617
350.0,0.3238
350.5,0.3416
351.0,0.3052
351.5,0.2967
352.0,0.3188
352.5,0.2489
353.0,0.3136
353.5,0.3355
354.0,0.3484
354.5,0.3534
355.0,0.3523
355.5,0.3184
356.0,0.3332
356.5,0.2846
357.0,0.2352
357.5,0.288
358.0,0.2283
358.5,0.1952
359.0,0.273
359.5,0.348
360.0,0.369
360.5,0.295
361.0,0.2691
361.5,0.31
362.0,0.2682
362.5,0.3714
363.0,0.3337
363.5,0.3075
364.0,0.3763
364.5,0.3217
365.0,0.3278
365.5,0.4115
366.0,0.4362
366.5,0.41
367.0,0.3994
367.5,0.4146
368.0,0.363
368.5,0.3664
369.0,0.3958
369.5,0.422
370.0,0.4501
370.5,0.3494
371.0,0.3735
371.5,0.4674
372.0,0.3103
372.5,0.3722
373.0,0.3788
373.5,0.2465
374.0,0.3584
374.5,0.2969
375.0,0.2887
375.5,0.4311
376.0,0.3575
376.5,0.3706
377.0,0.3925
377.5,0.4593
378.0,0.498
378.5,0.4708
379.0,0.3886
379.5,0.3551
380.0,0.3693
380.5,0.4474
381.0,0.4486
381.5,0.3557
382.0,0.3161
382.5,0.2696
383.0,0.2497
383.5,0.2406
384.0,0.2655
384.5,0.3906
385.0,0.3875
385.5,0.361
386.0,0.3093
386.5,0.4064
387.0,0.3378
387.5,0.3795
388.0,0.3505
388.5,0.3466
389.0,0.3743
389.5,0.4535
390.0,0.4553
390.5,0.4191
391.0,0.4935
391.5,0.5035
392.0,0.4242
392.5,0.3799
393.0,0.2115
393.5,0.1538
394.0,0.313
394.5,0.3981
395.0,0.4859
395.5,0.4937
396.0,0.4282
396.5,0.2504
397.0,0.188
397.5,0.3824
398.0,0.5356
398.5,0.5538
399.0,0.5999
399.5,0.5981
400.0,0.6212
401.0,0.6294
402.0,0.6645
403.0,0.6316
404.0,0.6222
405.0,0.6224
406.0,0.6127
407.0,0.6032
408.0,0.6269
409.0,0.6713
410.0,0.5869
411.0,0.636
412.0,0.6836
413.0,0.6668
414.0,0.6754
415.0,0.6775
416.0,0.6898
417.0,0.6731
418.0,0.6609
419.0,0.6699
420.0,0.6672
421.0,0.6983
422.0,0.6639
423.0,0.6488
424.0,0.6864
425.0,0.6855
426.0,0.6681
427.0,0.6559
428.0,0.6391
429.0,0.6057
430.0,0.5303
431.0,0.5257
432.0,0.679
433.0,0.683
434.0,0.6344
435.0,0.6626
436.0,0.747
437.0,0.7374
438.0,0.6717
439.0,0.6946
440.0,0.717
441.0,0.7433
442.0,0.7974
443.0,0.7766
444.0,0.7938
445.0,0.7767
446.0,0.7416
447.0,0.8021
448.0,0.8146
449.0,0.8183
450.0,0.8414
451.0,0.8728
452.0,0.8411
453.0,0.7913
454.0,0.8264
455.0,0.8316
456.0,0.8516
457.0,0.8658
458.0,0.8362
459.0,0.8321
460.0,0.8343
461.0,0.8536
462.0,0.8605
463.0,0.8546
464.0,0.8409
465.0,0.8306
466.0,0.8389
467.0,0.8235
468.0,0.8333
469.0,0.8377
470.0,0.811
471.0,0.8101
472.0,0.8536
473.0,0.8426
474.0,0.8436
475.0,0.8506
476.0,0.8249
477.0,0.8271
478.0,0.8501
479.0,0.8452
480.0,0.847
481.0,0.8631
482.0,0.8679
483.0,0.8578
484.0,0.8404
485.0,0.8009
486.0,0.7003
487.0,0.7342
488.0,0.8055
489.0,0.8079
490.0,0.8501
491.0,0.8356
492.0,0.7892
493.0,0.8151
494.0,0.8233
495.0,0.8303
496.0,0.8355
497.0,0.8484
498.0,0.8088
499.0,0.819
500.0,0.795
501.0,0.7803
502.0,0.769
503.0,0.7999
504.0,0.7785
505.0,0.8073
506.0,0.8333
507.0,0.793
508.0,0.7687
509.0,0.7905
510.0,0.7866
511.0,0.8079
512.0,0.8168
513.0,0.7731
514.0,0.7679
515.0,0.7603
516.0,0.7584
517.0,0.674
518.0,0.7085
519.0,0.7432
520.0,0.7702
521.0,0.7774
522.0,0.778
523.0,0.764
524.0,0.7911
525.0,0.8002
526.0,0.7643
527.0,0.72
528.0,0.7613
529.0,0.8023
530.0,0.7907
531.0,0.8023
532.0,0.7747
533.0,0.752
534.0,0.7744
535.0,0.7914
536.0,0.7988
537.0,0.7674
538.0,0.781
539.0,0.7745
540.0,0.7425
541.0,0.747
542.0,0.7703
543.0,0.7624
544.0,0.7754
545.0,0.773
546.0,0.7762
547.0,0.7761
548.0,0.7669
549.0,0.7693
550.0,0.7785
551.0,0.7691
552.0,0.7744
553.0,0.7605
554.0,0.7787
555.0,0.7802
556.0,0.77
557.0,0.746
558.0,0.7402
559.0,0.7262
560.0,0.7351
561.0,0.7445
562.0,0.7389
563.0,0.7588
564.0,0.738
565.0,0.7314
566.0,0.7205
567.0,0.7339
568.0,0.7268
569.0,0.7084
570.0,0.7083
571.0,0.7044
572.0,0.7205
573.0,0.7281
574.0,0.7256
575.0,0.7117
576.0,0.7053
577.0,0.7131
578.0,0.7027
579.0,0.706
580.0,0.7203
581.0,0.7247
582.0,0.7389
583.0,0.7412
584.0,0.748
585.0,0.7299
586.0,0.7149
587.0,0.7302
588.0,0.711
589.0,0.627
590.0,0.656
591.0,0.6959
592.0,0.6861
593.0,0.6975
594.0,0.6921
595.0,0.674
596.0,0.7029
597.0,0.6947
598.0,0.6937
599.0,0.6946
600.0,0.6962
601.0,0.691
602.0,0.6864
603.0,0.6979
604.0,0.7096
605.0,0.7061
606.0,0.7034
607.0,0.7107
608.0,0.7031
609.0,0.7045
610.0,0.6997
611.0,0.7035
612.0,0.7016
613.0,0.6929
614.0,0.6836
615.0,0.6987
616.0,0.6759
617.0,0.6747
618.0,0.7007
619.0,0.6937
620.0,0.6981
621.0,0.6986
622.0,0.6902
623.0,0.6795
624.0,0.668
625.0,0.6666
626.0,0.6764
627.0,0.6834
628.0,0.6317
629.0,0.665
630.0,0.6494
631.0,0.6663
632.0,0.6587
633.0,0.6797
634.0,0.6738
635.0,0.6846
636.0,0.676
637.0,0.6874
638.0,0.6945
639.0,0.687
640.0,0.6806
641.0,0.6804
642.0,0.6776
643.0,0.6867
644.0,0.6848
645.0,0.6857
646.0,0.669
647.0,0.6592
648.0,0.6597
649.0,0.6468
650.0,0.6522
651.0,0.681
652.0,0.6502
653.0,0.672
654.0,0.6648
655.0,0.6388
656.0,0.567
657.0,0.5824
658.0,0.6534
659.0,0.6584
660.0,0.6613
661.0,0.666
662.0,0.6669
663.0,0.6539
664.0,0.6623
665.0,0.6633
666.0,0.664
667.0,0.6637
668.0,0.6642
669.0,0.6747
670.0,0.6719
671.0,0.6718
672.0,0.6662
673.0,0.6763
674.0,0.6739
675.0,0.6679
676.0,0.6725
677.0,0.6659
678.0,0.6679
679.0,0.6572
680.0,0.6625
681.0,0.6582
682.0,0.6574
683.0,0.6561
684.0,0.6529
685.0,0.6586
686.0,0.6545
687.0,0.4066
688.0,0.4895
689.0,0.4917
690.0,0.5202
691.0,0.5526
692.0,0.5769
693.0,0.5718
694.0,0.5672
695.0,0.5942
696.0,0.5951
697.0,0.6357
698.0,0.6258
699.0,0.608
700.0,0.6005
701.0,0.5935
702.0,0.5987
703.0,0.5999
704.0,0.6208
705.0,0.6217
706.0,0.6218
707.0,0.6225
708.0,0.6238
709.0,0.6258
710.0,0.6252
711.0,0.6247
712.0,0.6234
713.0,0.6166
714.0,0.6191
715.0,0.5984
716.0,0.5985
717.0,0.5089
718.0,0.466
719.0,0.426
720.0,0.4453
721.0,0.4977
722.0,0.576
723.0,0.5328
724.0,0.4761
725.0,0.4671
726.0,0.4895
727.0,0.499
728.0,0.4654
729.0,0.4865
730.0,0.5145
731.0,0.4913
732.0,0.5293
733.0,0.5639
734.0,0.5784
735.0,0.5659
736.0,0.5651
737.0,0.5673
738.0,0.5786
739.0,0.5672
740.0,0.5828
741.0,0.5775
742.0,0.5785
743.0,0.5933
744.0,0.592
745.0,0.5923
746.0,0.595
747.0,0.5964
748.0,0.5952
749.0,0.5884
750.0,0.5881
751.0,0.5821
752.0,0.5847
753.0,0.5876
754.0,0.589
755.0,0.5856
756.0,0.5854
757.0,0.5862
758.0,0.5789
759.0,0.5656
760.0,0.06991
761.0,0.03294
762.0,0.2595
763.0,0.1148
764.0,0.1852
765.0,0.2594
766.0,0.3321
767.0,0.4335
768.0,0.5123
769.0,0.5258
770.0,0.5468
771.0,0.5526
772.0,0.5543
773.0,0.5582
774.0,0.5556
775.0,0.5515
776.0,0.5582
777.0,0.5509
778.0,0.5475
779.0,0.548
780.0,0.5449
781.0,0.5455
782.0,0.549
783.0,0.5394
784.0,0.5421
785.0,0.538
786.0,0.5438
787.0,0.533
788.0,0.5258
789.0,0.5255
790.0,0.5098
791.0,0.5159
792.0,0.5123
793.0,0.5039
794.0,0.5143
795.0,0.5225
796.0,0.504
797.0,0.5045
798.0,0.5216
799.0,0.5178
800.0,0.5082
801.0,0.5061
802.0,0.5047
803.0,0.5005
804.0,0.5015
805.0,0.5006
806.0,0.5159
807.0,0.5094
808.0,0.51
809.0,0.4995
810.0,0.4948
811.0,0.4941
812.0,0.4783
813.0,0.4675
814.0,0.406
815.0,0.4038
816.0,0.3752
817.0,0.3826
818.0,0.3671
819.0,0.4149
820.0,0.389
821.0,0.4611
822.0,0.4469
823.0,0.2939
824.0,0.4316
825.0,0.453
826.0,0.4338
827.0,0.4599
828.0,0.3839
829.0,0.4316
830.0,0.4253
831.0,0.427
832.0,0.4128
833.0,0.4421
834.0,0.4245
835.0,0.4707
836.0,0.4477
837.0,0.4722
838.0,0.4561
839.0,0.4654
840.0,0.4759
841.0,0.4686
842.0,0.4705
843.0,0.4712
844.0,0.4641
845.0,0.4805
846.0,0.4786
847.0,0.47
848.0,0.4666
849.0,0.4534
850.0,0.4344
851.0,0.4595
852.0,0.4565
853.0,0.4397
854.0,0.3794
855.0,0.4173
856.0,0.4558
857.0,0.4663
858.0,0.4627
859.0,0.4633
860.0,0.4642
861.0,0.4617
862.0,0.469
863.0,0.4801
864.0,0.4561
865.0,0.4522
866.0,0.4066
867.0,0.4243
868.0,0.4617
869.0,0.4522
870.0,0.4651
871.0,0.4587
872.0,0.4571
873.0,0.4562
874.0,0.4508
875.0,0.4416
876.0,0.4462
877.0,0.4508
878.0,0.4556
879.0,0.4486
880.0,0.439
881.0,0.4322
882.0,0.4414
883.0,0.443
884.0,0.4409
885.0,0.4442
886.0,0.4225
887.0,0.4277
888.0,0.4336
889.0,0.4393
890.0,0.4347
891.0,0.4344
892.0,0.4207
893.0,0.4062
894.0,0.3894
895.0,0.3646
896.0,0.3424
897.0,0.29
898.0,0.3187
899.0,0.2376
900.0,0.3289
901.0,0.2491
902.0,0.2988
903.0,0.2995
904.0,0.3864
905.0,0.3718
906.0,0.3469
907.0,0.2754
908.0,0.2819
909.0,0.3082
910.0,0.2673
911.0,0.2885
912.0,0.3024
913.0,0.2711
914.0,0.2698
915.0,0.2924
916.0,0.2464
917.0,0.3182
918.0,0.2523
919.0,0.3256
920.0,0.3322
921.0,0.3457
922.0,0.3052
923.0,0.3342
924.0,0.3121
925.0,0.3054
926.0,0.3084
927.0,0.3491
928.0,0.2451
929.0,0.2208
930.0,0.1688
931.0,0.1605
932.0,0.1107
933.0,0.08756
934.0,0.04308
935.0,0.09155
936.0,0.05397
937.0,0.05442
938.0,0.06813
939.0,0.1554
940.0,0.1904
941.0,0.1391
942.0,0.1638
943.0,0.1041
944.0,0.1131
945.0,0.1443
946.0,0.06859
947.0,0.1437
948.0,0.105
949.0,0.1971
950.0,0.04768
951.0,0.195
952.0,0.09843
953.0,0.1313
954.0,0.1657
955.0,0.1333
956.0,0.1328
957.0,0.09807
958.0,0.1943
959.0,0.1489
960.0,0.1669
961.0,0.1916
962.0,0.1809
963.0,0.2122
964.0,0.1933
965.0,0.2117
966.0,0.2109
967.0,0.2096
968.0,0.2948
969.0,0.3064
970.0,0.2798
971.0,0.3263
972.0,0.3109
973.0,0.2646
974.0,0.2504
975.0,0.2622
976.0,0.2456
977.0,0.2862
978.0,0.2691
979.0,0.2837
980.0,0.2657
981.0,0.3246
982.0,0.3081
983.0,0.2946
984.0,0.3371
985.0,0.307
986.0,0.3446
987.0,0.336
988.0,0.3355
989.0,0.3446
990.0,0.3334
991.0,0.3454
992.0,0.3476
993.0,0.3381
994.0,0.3477
995.0,0.3476
996.0,0.3457
997.0,0.3464
998.0,0.3446
999.0,0.3435
1000.0,0.3406
1001.0,0.3453
1002.0,0.3341
1003.0,0.3391
1004.0,0.3304
1005.0,0.3189
1006.0,0.331
1007.0,0.3382
1008.0,0.3361
1009.0,0.3339
1010.0,0.3323
1011.0,0.3366
1012.0,0.3333
1013.0,0.3358
1014.0,0.3335
1015.0,0.3312
1016.0,0.3297
1017.0,0.3305
1018.0,0.3294
1019.0,0.3217
1020.0,0.3276
1021.0,0.3273
1022.0,0.3245
1023.0,0.3279
1024.0,0.3229
1025.0,0.3279
1026.0,0.3263
1027.0,0.3256
1028.0,0.3248
1029.0,0.3209
1030.0,0.3234
1031.0,0.322
1032.0,0.3211
1033.0,0.3163
1034.0,0.3163
1035.0,0.3173
1036.0,0.3189
1037.0,0.3137
1038.0,0.3151
1039.0,0.3149
1040.0,0.3136
1041.0,0.3148
1042.0,0.3126
1043.0,0.3115
1044.0,0.3126
1045.0,0.3083
1046.0,0.3049
1047.0,0.3075
1048.0,0.3092
1049.0,0.308
1050.0,0.3065
1051.0,0.306
1052.0,0.3047
1053.0,0.3022
1054.0,0.3028
1055.0,0.3028
1056.0,0.3017
1057.0,0.3006
1058.0,0.2932
1059.0,0.2934
1060.0,0.2929
1061.0,0.2924
1062.0,0.2939
1063.0,0.2909
1064.0,0.2944
1065.0,0.292
1066.0,0.2864
1067.0,0.29
1068.0,0.2835
1069.0,0.2749
1070.0,0.2841
1071.0,0.2891
1072.0,0.2853
1073.0,0.2813
1074.0,0.2892
1075.0,0.2729
1076.0,0.2889
1077.0,0.2827
1078.0,0.2769
1079.0,0.2846
1080.0,0.2783
1081.0,0.2685
1082.0,0.2744
1083.0,0.2756
1084.0,0.2674
1085.0,0.2791
1086.0,0.2521
1087.0,0.262
1088.0,0.275
1089.0,0.2648
1090.0,0.258
1091.0,0.2737
1092.0,0.2733
1093.0,0.2268
1094.0,0.2495
1095.0,0.2368
1096.0,0.2253
1097.0,0.2671
1098.0,0.2211
1099.0,0.2314
1100.0,0.2131
1101.0,0.2164
1102.0,0.2053
1103.0,0.2024
1104.0,0.2027
1105.0,0.2257
1106.0,0.1644
1107.0,0.2128
1108.0,0.1755
1109.0,0.1768
1110.0,0.2101
1111.0,0.1361
1112.0,0.1758
1113.0,0.1054
1114.0,0.1183
1115.0,0.09772
1116.0,0.07426
1117.0,0.02351
1118.0,0.08197
1119.0,0.03747
1120.0,0.04685
1121.0,0.06404
1122.0,0.02427
1123.0,0.04248
1124.0,0.03581
1125.0,0.0475
1126.0,0.01395
1127.0,0.05383
1128.0,0.02931
1129.0,0.03146
1130.0,0.0198
1131.0,0.1094
1132.0,0.08443
1133.0,0.04954
1134.0,0.01067
1135.0,0.004124
1136.0,0.03995
1137.0,0.106
1138.0,0.07399
1139.0,0.1184
1140.0,0.09584
1141.0,0.07038
1142.0,0.08254
1143.0,0.1206
1144.0,0.03839
1145.0,0.04784
1146.0,0.05155
1147.0,0.01551
1148.0,0.1041
1149.0,0.08079
1150.0,0.04181
1151.0,0.07338
1152.0,0.09313
1153.0,0.09293
1154.0,0.04617
1155.0,0.1234
1156.0,0.1095
1157.0,0.1257
1158.0,0.1242
1159.0,0.1359
1160.0,0.1142
1161.0,0.1451
1162.0,0.1455
1163.0,0.2039
1164.0,0.1722
1165.0,0.1598
1166.0,0.1608
1167.0,0.1764
1168.0,0.1777
1169.0,0.1828
1170.0,0.2008
1171.0,0.1956
1172.0,0.2005
1173.0,0.2005
1174.0,0.1379
1175.0,0.1969
1176.0,0.2192
1177.0,0.2086
1178.0,0.1528
1179.0,0.2211
1180.0,0.1943
1181.0,0.2007
1182.0,0.1343
1183.0,0.1983
1184.0,0.1844
1185.0,0.1767
1186.0,0.2137
1187.0,0.2022
1188.0,0.1359
1189.0,0.1882
1190.0,0.209
1191.0,0.196
1192.0,0.2122
1193.0,0.2025
1194.0,0.2093
1195.0,0.1962
1196.0,0.188
1197.0,0.2102
1198.0,0.1913
1199.0,0.1591
1200.0,0.1998
1201.0,0.1915
1202.0,0.1913
1203.0,0.1893
1204.0,0.1638
1205.0,0.1968
1206.0,0.2192
1207.0,0.1903
1208.0,0.1884
1209.0,0.1925
1210.0,0.2014
1211.0,0.1905
1212.0,0.1865
1213.0,0.2111
1214.0,0.1917
1215.0,0.1878
1216.0,0.2106
1217.0,0.2044
1218.0,0.2088
1219.0,0.2059
1220.0,0.2091
1221.0,0.2116
1222.0,0.2057
1223.0,0.2035
1224.0,0.2017
1225.0,0.2101
1226.0,0.212
1227.0,0.1938
1228.0,0.2135
1229.0,0.212
1230.0,0.2081
1231.0,0.2151
1232.0,0.2138
1233.0,0.205
1234.0,0.2153
1235.0,0.2137
1236.0,0.2154
1237.0,0.2118
1238.0,0.2147
1239.0,0.2119
1240.0,0.2128
1241.0,0.2114
1242.0,0.2113
1243.0,0.2096
1244.0,0.211
1245.0,0.212
1246.0,0.2107
1247.0,0.2098
1248.0,0.2095
1249.0,0.2103
1250.0,0.2089
1251.0,0.206
1252.0,0.2063
1253.0,0.2042
1254.0,0.2017
1255.0,0.206
1256.0,0.1993
1257.0,0.198
1258.0,0.2024
1259.0,0.1936
1260.0,0.1948
1261.0,0.1821
1262.0,0.1756
1263.0,0.1759
1264.0,0.1602
1265.0,0.1748
1266.0,0.1669
1267.0,0.1708
1268.0,0.1605
1269.0,0.09056
1270.0,0.1698
1271.0,0.1817
1272.0,0.1825
1273.0,0.1803
1274.0,0.1812
1275.0,0.1842
1276.0,0.1863
1277.0,0.188
1278.0,0.1923
1279.0,0.1905
1280.0,0.1882
1281.0,0.1799
1282.0,0.1739
1283.0,0.1872
1284.0,0.1916
1285.0,0.1929
1286.0,0.1958
1287.0,0.1922
1288.0,0.1923
1289.0,0.1851
1290.0,0.1907
1291.0,0.1936
1292.0,0.1798
1293.0,0.1893
1294.0,0.1879
1295.0,0.1864
1296.0,0.1766
1297.0,0.166
1298.0,0.1808
1299.0,0.1898
1300.0,0.1571
1301.0,0.1626
1302.0,0.1803
1303.0,0.1554
1304.0,0.1293
1305.0,0.1764
1306.0,0.1761
1307.0,0.1333
1308.0,0.1562
1309.0,0.1744
1310.0,0.1305
1311.0,0.149
1312.0,0.1445
1313.0,0.141
1314.0,0.1251
1315.0,0.1227
1316.0,0.146
1317.0,0.138
1318.0,0.1513
1319.0,0.1143
1320.0,0.1116
1321.0,0.1313
1322.0,0.1319
1323.0,0.09599
1324.0,0.1122
1325.0,0.1437
1326.0,0.1212
1327.0,0.1151
1328.0,0.0981
1329.0,0.07075
1330.0,0.09359
1331.0,0.05313
1332.0,0.05596
1333.0,0.0786
1334.0,0.06845
1335.0,0.09549
1336.0,0.07368
1337.0,0.06436
1338.0,0.06957
1339.0,0.06975
1340.0,0.06881
1341.0,0.06494
1342.0,0.06844
1343.0,0.04221
1344.0,0.02561
1345.0,0.03696
1346.0,0.01596
1347.0,0.01581
1348.0,0.0007502
1349.0,0.002933
1350.0,0.003236
1351.0,0.0005909
1352.0,0.0001142
1353.0,4.255e-06
1354.0,1.831e-05
1355.0,7.425e-08
1356.0,2.043e-06
1357.0,3.127e-06
1358.0,9.045e-08
1359.0,6.704e-09
1360.0,3.426e-08
1361.0,1.302e-11
1362.0,2.368e-14
1363.0,3.805e-08
1364.0,1.588e-08
1365.0,4.747e-15
1366.0,1.91e-07
1367.0,8.899e-08
1368.0,1.497e-17
1369.0,5.829e-09
1370.0,2.298e-09
1371.0,1.017e-10
1372.0,4.944e-08
1373.0,1.41e-06
1374.0,8.354e-06
1375.0,1.469e-05
1376.0,1.673e-05
1377.0,7.294e-06
1378.0,7.761e-05
1379.0,3.064e-06
1380.0,3.752e-06
1381.0,8.687e-08
1382.0,4.174e-08
1383.0,5.292e-10
1384.0,5.987e-09
1385.0,5.148e-08
1386.0,3.158e-08
1387.0,7.293e-06
1388.0,1.513e-07
1389.0,3.303e-05
1390.0,2.801e-05
1391.0,1.799e-05
1392.0,1.106e-06
1393.0,6.656e-06
1394.0,2.266e-06
1395.0,1.307e-08
1396.0,2.169e-11
1397.0,2.412e-06
1398.0,8.43e-05
1399.0,5.42e-05
1400.0,7.003e-12
1401.0,4.328e-11
1402.0,0.0002169
1403.0,0.0002538
1404.0,7.483e-05
1405.0,5.248e-09
1406.0,0.0001722
1407.0,1.714e-05
1408.0,0.0001443
1409.0,3.96e-05
1410.0,3.704e-05
1411.0,0.0002265
1412.0,0.0003367
1413.0,0.004533
1414.0,3.007e-05
1415.0,1.319e-05
1416.0,0.008981
1417.0,0.002265
1418.0,0.002453
1419.0,0.0003645
1420.0,0.001489
1421.0,0.00165
1422.0,0.0118
1423.0,0.00218
1424.0,0.004228
1425.0,0.005954
1426.0,0.007362
1427.0,0.01486
1428.0,0.0006835
1429.0,0.01041
1430.0,0.01959
1431.0,0.022
1432.0,0.0005308
1433.0,0.01337
1434.0,0.006494
1435.0,0.005481
1436.0,0.0121
1437.0,0.009326
