interpolation:linear
wavelength,value
280.0,7.962e-23
280.5,2.661e-21
281.0,1.4370000000000002e-20
281.5,4.644e-19
282.0,5.182e-19
282.5,1.241e-18
283.0,3.874e-18
283.5,6.301e-18
284.0,1.037e-16
284.5,3.04e-16
285.0,5.941e-16
285.5,2.776e-15
286.0,1.108e-14
286.5,4.918e-14
287.0,1.406e-13
287.5,5.411e-13
288.0,1.871e-12
288.5,5.408e-12
289.0,1.404e-11
289.5,4.174e-11
290.0,1.152e-10
290.5,2.345e-10
291.0,5.031e-10
291.5,1.446e-09
292.0,2.941e-09
292.5,4.1e-09
293.0,8.728e-09
293.5,2.105e-08
294.0,3.283e-08
294.5,4.237e-08
295.0,7.141e-08
295.5,1.213e-07
296.0,2.298e-07
296.5,3.151e-07
297.0,4.188e-07
297.5,1.091e-06
298.0,1.673e-06
298.5,1.645e-06
299.0,3.54e-06
299.5,5.611e-06
300.0,5.997e-06
300.5,8.418e-06
301.0,1.443e-05
301.5,2.179e-05
302.0,1.809e-05
302.5,3.492e-05
303.0,6.215e-05
303.5,7.85e-05
304.0,7.549e-05
304.5,0.0001202
305.0,0.0002008
305.5,0.0002452
306.0,0.0002433
306.5,0.0003161
307.0,0.0005169
307.5,0.0007569
308.0,0.0008118
308.5,0.001006
309.0,0.001184
309.5,0.001616
310.0,0.001761
310.5,0.002968
311.0,0.00398
311.5,0.003952
312.0,0.004559
312.5,0.006097
313.0,0.006947
313.5,0.006441
314.0,0.009019
314.5,0.009294
315.0,0.01254
315.5,0.009748
316.0,0.009617
316.5,0.01534
317.0,0.019
317.5,0.01918
318.0,0.01607
318.5,0.0229
319.0,0.02911
319.5,0.02122
320.0,0.02521
320.5,0.03629
321.0,0.03667
321.5,0.03559
322.0,0.03312
322.5,0.02901
323.0,0.03155
323.5,0.04325
324.0,0.05126
324.5,0.05004
325.0,0.04029
325.5,0.05567
326.0,0.07148
326.5,0.07522
327.0,0.0736
327.5,0.06944
328.0,0.05783
328.5,0.06588
329.0,0.08404
329.5,0.09724
330.0,0.09659
330.5,0.07362
331.0,0.07377
331.5,0.07776
332.0,0.08853
332.5,0.08968
333.0,0.0882
333.5,0.0768
334.0,0.07819
334.5,0.09429
335.0,0.09089
335.5,0.1073
336.0,0.07424
336.5,0.08499
337.0,0.06847
337.5,0.0846
338.0,0.08566
338.5,0.1003
339.0,0.09958
339.5,0.09569
340.0,0.1109
340.5,0.1004
341.0,0.09905
341.5,0.09136
342.0,0.1094
342.5,0.1025
343.0,0.1124
343.5,0.1057
344.0,0.07724
344.5,0.07871
345.0,0.1047
345.5,0.1072
346.0,0.09132
346.5,0.1036
347.0,0.1109
347.5,0.08968
348.0,0.1026
348.5,0.1028
349.0,0.09546
349.5,0.09454
350.0,0.117
350.5,0.1235
351.0,0.1102
351.5,0.1068
352.0,0.115
352.5,0.08997
353.0,0.1135
353.5,0.1216
354.0,0.1263
354.5,0.1282
355.0,0.1277
355.5,0.1155
356.0,0.121
356.5,0.1034
357.0,0.08542
357.5,0.1046
358.0,0.08299
358.5,0.07096
359.0,0.09926
359.5,0.1264
360.0,0.1341
360.5,0.1073
361.0,0.09794
361.5,0.1129
362.0,0.09781
362.5,0.1355
363.0,0.1219
363.5,0.1124
364.0,0.1376
364.5,0.1176
365.0,0.1199
365.5,0.1506
366.0,0.1597
366.5,0.1502
367.0,0.1464
367.5,0.1521
368.0,0.1332
368.5,0.1345
369.0,0.1453
369.5,0.1551
370.0,0.1654
370.5,0.1285
371.0,0.1375
371.5,0.1721
372.0,0.1143
372.5,0.1371
373.0,0.1396
373.5,0.09094
374.0,0.1322
374.5,0.1096
375.0,0.1066
375.5,0.1593
376.0,0.1322
376.5,0.137
377.0,0.1452
377.5,0.1701
378.0,0.1844
378.5,0.1744
379.0,0.144
379.5,0.1316
380.0,0.1369
380.5,0.166
381.0,0.1666
381.5,0.1322
382.0,0.1175
382.5,0.1003
383.0,0.093
383.5,0.08967
384.0,0.099
384.5,0.1458
385.0,0.1447
385.5,0.1349
386.0,0.1156
386.5,0.1521
387.0,0.1264
387.5,0.1421
388.0,0.1314
388.5,0.13
389.0,0.1404
389.5,0.1702
390.0,0.171
390.5,0.1575
391.0,0.1856
391.5,0.1894
392.0,0.1597
392.5,0.1431
393.0,0.07973
393.5,0.05802
394.0,0.1182
394.5,0.1504
395.0,0.1836
395.5,0.1867
396.0,0.162
396.5,0.09482
397.0,0.07123
397.5,0.145
398.0,0.2031
398.5,0.2101
399.0,0.2279
399.5,0.2273
400.0,0.2361
401.0,0.237
402.0,0.2506
403.0,0.2386
404.0,0.2353
405.0,0.2356
406.0,0.2323
407.0,0.2291
408.0,0.2382
409.0,0.2554
410.0,0.2236
411.0,0.2426
412.0,0.2612
413.0,0.255
414.0,0.2587
415.0,0.2599
416.0,0.265
417.0,0.2588
418.0,0.2544
419.0,0.2582
420.0,0.2575
421.0,0.2698
422.0,0.2568
423.0,0.2512
424.0,0.2659
425.0,0.2659
426.0,0.2597
427.0,0.2552
428.0,0.2489
429.0,0.2364
430.0,0.2073
431.0,0.2055
432.0,0.2659
433.0,0.2678
434.0,0.2489
435.0,0.2601
436.0,0.2938
437.0,0.2906
438.0,0.265
439.0,0.2737
440.0,0.2829
441.0,0.2936
442.0,0.3152
443.0,0.3069
444.0,0.3143
445.0,0.3076
446.0,0.2945
447.0,0.3192
448.0,0.3239
449.0,0.3262
450.0,0.3358
451.0,0.3486
452.0,0.3364
453.0,0.3168
454.0,0.3315
455.0,0.3336
456.0,0.3419
457.0,0.3477
458.0,0.3355
459.0,0.334
460.0,0.3347
461.0,0.3427
462.0,0.346
463.0,0.3437
464.0,0.3391
465.0,0.3358
466.0,0.3398
467.0,0.3334
468.0,0.3375
469.0,0.3393
470.0,0.3284
471.0,0.3283
472.0,0.346
473.0,0.3416
474.0,0.3416
475.0,0.3438
476.0,0.3326
477.0,0.3329
478.0,0.3424
479.0,0.3408
480.0,0.3419
481.0,0.3491
482.0,0.3518
483.0,0.3485
484.0,0.342
485.0,0.3266
486.0,0.2862
487.0,0.3006
488.0,0.3298
489.0,0.3306
490.0,0.3484
491.0,0.3428
492.0,0.3239
493.0,0.3347
494.0,0.3383
495.0,0.3414
496.0,0.3435
497.0,0.3488
498.0,0.3324
499.0,0.3363
500.0,0.326
501.0,0.3194
502.0,0.3137
503.0,0.3252
504.0,0.3136
505.0,0.3275
506.0,0.338
507.0,0.3218
508.0,0.3129
509.0,0.3226
510.0,0.3216
511.0,0.331
512.0,0.335
513.0,0.3172
514.0,0.3153
515.0,0.3121
516.0,0.3112
517.0,0.2767
518.0,0.2908
519.0,0.305
520.0,0.3159
521.0,0.3188
522.0,0.3187
523.0,0.3128
524.0,0.3233
525.0,0.3261
526.0,0.3112
527.0,0.2925
528.0,0.3087
529.0,0.3248
530.0,0.3198
531.0,0.3242
532.0,0.3129
533.0,0.3037
534.0,0.313
535.0,0.3203
536.0,0.3236
537.0,0.3113
538.0,0.317
539.0,0.3142
540.0,0.3011
541.0,0.3019
542.0,0.3109
543.0,0.3084
544.0,0.3128
545.0,0.3121
546.0,0.3126
547.0,0.3132
548.0,0.3099
549.0,0.3111
550.0,0.3148
551.0,0.3111
552.0,0.3133
553.0,0.3075
554.0,0.3148
555.0,0.3152
556.0,0.3109
557.0,0.3009
558.0,0.2981
559.0,0.2919
560.0,0.2951
561.0,0.2984
562.0,0.2955
563.0,0.3028
564.0,0.2939
565.0,0.2908
566.0,0.286
567.0,0.2907
568.0,0.2862
569.0,0.2759
570.0,0.2763
571.0,0.2754
572.0,0.2797
573.0,0.2822
574.0,0.2808
575.0,0.2747
576.0,0.2722
577.0,0.2756
578.0,0.2724
579.0,0.2752
580.0,0.2831
581.0,0.2865
582.0,0.2937
583.0,0.2959
584.0,0.2995
585.0,0.2928
586.0,0.2868
587.0,0.292
588.0,0.2806
589.0,0.2403
590.0,0.2519
591.0,0.2716
592.0,0.2652
593.0,0.273
594.0,0.2696
595.0,0.2595
596.0,0.2768
597.0,0.2719
598.0,0.2733
599.0,0.2745
600.0,0.2766
601.0,0.2757
602.0,0.2741
603.0,0.2793
604.0,0.2844
605.0,0.2833
606.0,0.2829
607.0,0.2866
608.0,0.2842
609.0,0.2854
610.0,0.2841
611.0,0.2862
612.0,0.2859
613.0,0.2827
614.0,0.2795
615.0,0.2863
616.0,0.2774
617.0,0.2773
618.0,0.2884
619.0,0.2857
620.0,0.2875
621.0,0.2873
622.0,0.2835
623.0,0.2788
624.0,0.2745
625.0,0.2738
626.0,0.2776
627.0,0.279
628.0,0.2403
629.0,0.2652
630.0,0.2583
631.0,0.2711
632.0,0.2692
633.0,0.2803
634.0,0.2799
635.0,0.2855
636.0,0.283
637.0,0.2887
638.0,0.2931
639.0,0.2907
640.0,0.289
641.0,0.2895
642.0,0.2891
643.0,0.2932
644.0,0.2931
645.0,0.2931
646.0,0.2838
647.0,0.2746
648.0,0.2755
649.0,0.2691
650.0,0.2779
651.0,0.2912
652.0,0.2721
653.0,0.2879
654.0,0.2852
655.0,0.271
656.0,0.2427
657.0,0.2498
658.0,0.2824
659.0,0.2854
660.0,0.2872
661.0,0.2896
662.0,0.289
663.0,0.2838
664.0,0.2891
665.0,0.2909
666.0,0.2918
667.0,0.2923
668.0,0.2933
669.0,0.2984
670.0,0.2975
671.0,0.2979
672.0,0.2956
673.0,0.3005
674.0,0.2997
675.0,0.2974
676.0,0.2998
677.0,0.2971
678.0,0.2983
679.0,0.2937
680.0,0.2963
681.0,0.2944
682.0,0.2941
683.0,0.2937
684.0,0.2922
685.0,0.2951
686.0,0.2929
687.0,0.115
688.0,0.1659
689.0,0.1677
690.0,0.1883
691.0,0.2135
692.0,0.2345
693.0,0.2322
694.0,0.233
695.0,0.2535
696.0,0.2547
697.0,0.2823
698.0,0.2777
699.0,0.2625
700.0,0.2589
701.0,0.2526
702.0,0.2577
703.0,0.2594
704.0,0.2729
705.0,0.2731
706.0,0.2747
707.0,0.2759
708.0,0.2762
709.0,0.2803
710.0,0.2782
711.0,0.2792
712.0,0.2802
713.0,0.2756
714.0,0.2772
715.0,0.2648
716.0,0.2641
717.0,0.199
718.0,0.181
719.0,0.1635
720.0,0.168
721.0,0.2018
722.0,0.249
723.0,0.2231
724.0,0.1898
725.0,0.1836
726.0,0.1929
727.0,0.2031
728.0,0.1819
729.0,0.1988
730.0,0.2073
731.0,0.1969
732.0,0.2217
733.0,0.2444
734.0,0.2537
735.0,0.2466
736.0,0.2455
737.0,0.2468
738.0,0.2592
739.0,0.2544
740.0,0.2635
741.0,0.2624
742.0,0.2643
743.0,0.2715
744.0,0.2718
745.0,0.2727
746.0,0.274
747.0,0.2748
748.0,0.2743
749.0,0.2713
750.0,0.2712
751.0,0.2685
752.0,0.2698
753.0,0.2713
754.0,0.2719
755.0,0.2703
756.0,0.2704
757.0,0.2707
758.0,0.2671
759.0,0.2558
760.0,0.005759
761.0,0.002046
762.0,0.05678
763.0,0.01275
764.0,0.02984
765.0,0.05656
766.0,0.0947
767.0,0.1548
768.0,0.2148
769.0,0.2285
770.0,0.2472
771.0,0.2541
772.0,0.2563
773.0,0.2585
774.0,0.2576
775.0,0.2559
776.0,0.2591
777.0,0.2557
778.0,0.2541
779.0,0.2544
780.0,0.2531
781.0,0.2534
782.0,0.2551
783.0,0.2508
784.0,0.2522
785.0,0.2499
786.0,0.2523
787.0,0.2435
788.0,0.2385
789.0,0.2384
790.0,0.2266
791.0,0.2342
792.0,0.2333
793.0,0.229
794.0,0.2385
795.0,0.2409
796.0,0.2255
797.0,0.225
798.0,0.2397
799.0,0.2367
800.0,0.2308
801.0,0.228
802.0,0.2271
803.0,0.2243
804.0,0.2256
805.0,0.2273
806.0,0.2379
807.0,0.2342
808.0,0.2346
809.0,0.227
810.0,0.2234
811.0,0.2203
812.0,0.2076
813.0,0.2017
814.0,0.1641
815.0,0.1644
816.0,0.1509
817.0,0.1541
818.0,0.1453
819.0,0.1736
820.0,0.1598
821.0,0.2046
822.0,0.1959
823.0,0.1078
824.0,0.1831
825.0,0.2015
826.0,0.1876
827.0,0.2041
828.0,0.1558
829.0,0.1878
830.0,0.1843
831.0,0.1847
832.0,0.1759
833.0,0.1948
834.0,0.1831
835.0,0.2142
836.0,0.1955
837.0,0.2148
838.0,0.2034
839.0,0.2116
840.0,0.2175
841.0,0.2124
842.0,0.216
843.0,0.2192
844.0,0.2145
845.0,0.224
846.0,0.2236
847.0,0.2204
848.0,0.2176
849.0,0.2114
850.0,0.2027
851.0,0.213
852.0,0.2123
853.0,0.2055
854.0,0.1764
855.0,0.1953
856.0,0.2128
857.0,0.2186
858.0,0.2165
859.0,0.2174
860.0,0.2182
861.0,0.2169
862.0,0.2205
863.0,0.2258
864.0,0.2146
865.0,0.2128
866.0,0.1914
867.0,0.1998
868.0,0.2174
869.0,0.213
870.0,0.2191
871.0,0.2161
872.0,0.2154
873.0,0.215
874.0,0.2125
875.0,0.2081
876.0,0.2102
877.0,0.2124
878.0,0.2145
879.0,0.2112
880.0,0.2067
881.0,0.2029
882.0,0.207
883.0,0.2084
884.0,0.2071
885.0,0.2087
886.0,0.1963
887.0,0.2004
888.0,0.2024
889.0,0.2067
890.0,0.2023
891.0,0.2033
892.0,0.1939
893.0,0.1848
894.0,0.1711
895.0,0.153
896.0,0.1422
897.0,0.113
898.0,0.1273
899.0,0.08708
900.0,0.1363
901.0,0.09126
902.0,0.1196
903.0,0.116
904.0,0.1693
905.0,0.1608
906.0,0.1477
907.0,0.1044
908.0,0.1101
909.0,0.1244
910.0,0.09951
911.0,0.1151
912.0,0.1199
913.0,0.1004
914.0,0.1019
915.0,0.109
916.0,0.09125
917.0,0.126
918.0,0.09249
919.0,0.1322
920.0,0.1428
921.0,0.1473
922.0,0.1238
923.0,0.1434
924.0,0.124
925.0,0.122
926.0,0.1216
927.0,0.1436
928.0,0.08333
929.0,0.07069
930.0,0.04687
931.0,0.04389
932.0,0.0243
933.0,0.01711
934.0,0.004947
935.0,0.0194
936.0,0.008821
937.0,0.008926
938.0,0.01201
939.0,0.04227
940.0,0.05701
941.0,0.03571
942.0,0.04462
943.0,0.02419
944.0,0.03087
945.0,0.03847
946.0,0.0131
947.0,0.03678
948.0,0.02648
949.0,0.05665
950.0,0.0076
951.0,0.05613
952.0,0.02212
953.0,0.03381
954.0,0.04775
955.0,0.03499
956.0,0.04226
957.0,0.02194
958.0,0.066
959.0,0.04345
960.0,0.04886
961.0,0.06203
962.0,0.05859
963.0,0.0742
964.0,0.06619
965.0,0.07314
966.0,0.07302
967.0,0.07147
968.0,0.1248
969.0,0.125
970.0,0.1129
971.0,0.1422
972.0,0.1328
973.0,0.1026
974.0,0.09691
975.0,0.1041
976.0,0.0914
977.0,0.1203
978.0,0.1074
979.0,0.1158
980.0,0.1074
981.0,0.1417
982.0,0.1307
983.0,0.1229
984.0,0.1525
985.0,0.1297
986.0,0.1595
987.0,0.1524
988.0,0.1525
989.0,0.1619
990.0,0.1513
991.0,0.1618
992.0,0.1633
993.0,0.1554
994.0,0.1638
995.0,0.1643
996.0,0.1628
997.0,0.1634
998.0,0.1623
999.0,0.162
1000.0,0.1597
1001.0,0.163
1002.0,0.1535
1003.0,0.1598
1004.0,0.1546
1005.0,0.1507
1006.0,0.1558
1007.0,0.1595
1008.0,0.1578
1009.0,0.1559
1010.0,0.1548
1011.0,0.1588
1012.0,0.1565
1013.0,0.1587
1014.0,0.1576
1015.0,0.1564
1016.0,0.1556
1017.0,0.1558
1018.0,0.1558
1019.0,0.1506
1020.0,0.1547
1021.0,0.1548
1022.0,0.1529
1023.0,0.1545
1024.0,0.1505
1025.0,0.155
1026.0,0.1538
1027.0,0.1536
1028.0,0.1531
1029.0,0.1511
1030.0,0.1528
1031.0,0.1519
1032.0,0.1517
1033.0,0.1494
1034.0,0.1495
1035.0,0.1499
1036.0,0.1505
1037.0,0.1481
1038.0,0.1487
1039.0,0.1485
1040.0,0.1478
1041.0,0.1482
1042.0,0.1472
1043.0,0.1466
1044.0,0.147
1045.0,0.1449
1046.0,0.1431
1047.0,0.1443
1048.0,0.1449
1049.0,0.1442
1050.0,0.1434
1051.0,0.143
1052.0,0.1422
1053.0,0.1408
1054.0,0.1409
1055.0,0.1406
1056.0,0.1398
1057.0,0.1391
1058.0,0.1354
1059.0,0.1352
1060.0,0.1349
1061.0,0.1345
1062.0,0.1349
1063.0,0.1333
1064.0,0.135
1065.0,0.1333
1066.0,0.1312
1067.0,0.1328
1068.0,0.1293
1069.0,0.1258
1070.0,0.1296
1071.0,0.1333
1072.0,0.1305
1073.0,0.1288
1074.0,0.1341
1075.0,0.1231
1076.0,0.1337
1077.0,0.129
1078.0,0.1252
1079.0,0.1325
1080.0,0.1269
1081.0,0.1205
1082.0,0.1263
1083.0,0.1279
1084.0,0.1194
1085.0,0.1276
1086.0,0.1107
1087.0,0.1179
1088.0,0.1271
1089.0,0.1184
1090.0,0.114
1091.0,0.1255
1092.0,0.1259
1093.0,0.09566
1094.0,0.1137
1095.0,0.09976
1096.0,0.09272
1097.0,0.123
1098.0,0.0894
1099.0,0.09473
1100.0,0.08424
1101.0,0.08695
1102.0,0.07998
1103.0,0.0771
1104.0,0.0776
1105.0,0.09154
1106.0,0.05447
1107.0,0.08422
1108.0,0.06209
1109.0,0.06328
1110.0,0.08092
1111.0,0.0425
1112.0,0.0633
1113.0,0.02937
1114.0,0.03298
1115.0,0.02627
1116.0,0.01618
1117.0,0.002805
1118.0,0.0184
1119.0,0.005844
1120.0,0.006816
1121.0,0.01042
1122.0,0.002354
1123.0,0.006248
1124.0,0.005231
1125.0,0.007623
1126.0,0.0009511
1127.0,0.008774
1128.0,0.003049
1129.0,0.003377
1130.0,0.002067
1131.0,0.02464
1132.0,0.01754
1133.0,0.007134
1134.0,0.0007146
1135.0,0.0003347
1136.0,0.004821
1137.0,0.02259
1138.0,0.01489
1139.0,0.03323
1140.0,0.02338
1141.0,0.01432
1142.0,0.01821
1143.0,0.03109
1144.0,0.00656
1145.0,0.006781
1146.0,0.007287
1147.0,0.001031
1148.0,0.02584
1149.0,0.01775
1150.0,0.00815
1151.0,0.01482
1152.0,0.02164
1153.0,0.02404
1154.0,0.007156
1155.0,0.0346
1156.0,0.02873
1157.0,0.03812
1158.0,0.0375
1159.0,0.0426
1160.0,0.03515
1161.0,0.05051
1162.0,0.04983
1163.0,0.08213
1164.0,0.06527
1165.0,0.05646
1166.0,0.06058
1167.0,0.06842
1168.0,0.06826
1169.0,0.07102
1170.0,0.08196
1171.0,0.07991
1172.0,0.08481
1173.0,0.08189
1174.0,0.04855
1175.0,0.08332
1176.0,0.09854
1177.0,0.08973
1178.0,0.05953
1179.0,0.09921
1180.0,0.08113
1181.0,0.08391
1182.0,0.04864
1183.0,0.08405
1184.0,0.07549
1185.0,0.06988
1186.0,0.09294
1187.0,0.08517
1188.0,0.04753
1189.0,0.07893
1190.0,0.09177
1191.0,0.08023
1192.0,0.09374
1193.0,0.08745
1194.0,0.09173
1195.0,0.08207
1196.0,0.07664
1197.0,0.09343
1198.0,0.08386
1199.0,0.06206
1200.0,0.08643
1201.0,0.07972
1202.0,0.08265
1203.0,0.07959
1204.0,0.06613
1205.0,0.08694
1206.0,0.1005
1207.0,0.0809
1208.0,0.08249
1209.0,0.08445
1210.0,0.09024
1211.0,0.08283
1212.0,0.0761
1213.0,0.09435
1214.0,0.07986
1215.0,0.07801
1216.0,0.09484
1217.0,0.09058
1218.0,0.09387
1219.0,0.09148
1220.0,0.09418
1221.0,0.09647
1222.0,0.09317
1223.0,0.09141
1224.0,0.08865
1225.0,0.09531
1226.0,0.09761
1227.0,0.08475
1228.0,0.09911
1229.0,0.09766
1230.0,0.095
1231.0,0.101
1232.0,0.1003
1233.0,0.09241
1234.0,0.102
1235.0,0.1006
1236.0,0.1019
1237.0,0.09883
1238.0,0.1016
1239.0,0.1002
1240.0,0.1009
1241.0,0.09916
1242.0,0.1
1243.0,0.09931
1244.0,0.09961
1245.0,0.1003
1246.0,0.09974
1247.0,0.09899
1248.0,0.09829
1249.0,0.09917
1250.0,0.09818
1251.0,0.09613
1252.0,0.09715
1253.0,0.09456
1254.0,0.09229
1255.0,0.09658
1256.0,0.09057
1257.0,0.0894
1258.0,0.09369
1259.0,0.08531
1260.0,0.08636
1261.0,0.0756
1262.0,0.07038
1263.0,0.07037
1264.0,0.05863
1265.0,0.07002
1266.0,0.06355
1267.0,0.06732
1268.0,0.0597
1269.0,0.01831
1270.0,0.06602
1271.0,0.07619
1272.0,0.07697
1273.0,0.07549
1274.0,0.07665
1275.0,0.0788
1276.0,0.08076
1277.0,0.08293
1278.0,0.08681
1279.0,0.08603
1280.0,0.08501
1281.0,0.08226
1282.0,0.08115
1283.0,0.08701
1284.0,0.08876
1285.0,0.08968
1286.0,0.09191
1287.0,0.08859
1288.0,0.08923
1289.0,0.08262
1290.0,0.08858
1291.0,0.09053
1292.0,0.07849
1293.0,0.08729
1294.0,0.08643
1295.0,0.08358
1296.0,0.07604
1297.0,0.06937
1298.0,0.08051
1299.0,0.08793
1300.0,0.06507
1301.0,0.06845
1302.0,0.08055
1303.0,0.06495
1304.0,0.04751
1305.0,0.07844
1306.0,0.07725
1307.0,0.05136
1308.0,0.06645
1309.0,0.07497
1310.0,0.04947
1311.0,0.06174
1312.0,0.05927
1313.0,0.05565
1314.0,0.04677
1315.0,0.04463
1316.0,0.0592
1317.0,0.05472
1318.0,0.06306
1319.0,0.03994
1320.0,0.04021
1321.0,0.05036
1322.0,0.04899
1323.0,0.02969
1324.0,0.03964
1325.0,0.0569
1326.0,0.0444
1327.0,0.04094
1328.0,0.03261
1329.0,0.01874
1330.0,0.02769
1331.0,0.01135
1332.0,0.01292
1333.0,0.01898
1334.0,0.02009
1335.0,0.02866
1336.0,0.01928
1337.0,0.01663
1338.0,0.01752
1339.0,0.018
1340.0,0.01915
1341.0,0.01474
1342.0,0.0161
1343.0,0.006228
1344.0,0.004155
1345.0,0.005411
1346.0,0.001133
1347.0,0.0009475
1348.0,1.438e-05
1349.0,6.558e-05
1350.0,7.946e-05
1351.0,6.642e-06
1352.0,1.021e-06
1353.0,4.976e-08
1354.0,1.792e-07
1355.0,1.359e-09
1356.0,2.412e-08
1357.0,3.661e-08
1358.0,1.596e-09
1359.0,2.008e-10
1360.0,7.259e-10
1361.0,8.118e-13
1362.0,2.22e-15
1363.0,9.758e-10
1364.0,4.029e-10
1365.0,7.753e-16
1366.0,4.229e-09
1367.0,1.727e-09
1368.0,5.986e-18
1369.0,1.484e-10
1370.0,7.31e-11
1371.0,4.144e-12
1372.0,9.366e-10
1373.0,1.893e-08
1374.0,8.891e-08
1375.0,1.598e-07
1376.0,1.532e-07
1377.0,6.913e-08
1378.0,6.679e-07
1379.0,2.926e-08
1380.0,3.979e-08
1381.0,1.034e-09
1382.0,8.207e-10
1383.0,1.227e-11
1384.0,1.608e-10
1385.0,7.71e-10
1386.0,7.234e-10
1387.0,8.772e-08
1388.0,1.749e-09
1389.0,3.04e-07
1390.0,2.585e-07
1391.0,1.724e-07
1392.0,1.127e-08
1393.0,6.118e-08
1394.0,2.99e-08
1395.0,2.189e-10
1396.0,1.057e-12
1397.0,2.357e-08
1398.0,6.996e-07
1399.0,4.465e-07
1400.0,4.519e-13
1401.0,1.875e-12
1402.0,2.273e-06
1403.0,2.19e-06
1404.0,5.893e-07
1405.0,1.036e-10
1406.0,1.287e-06
1407.0,1.713e-07
1408.0,1.076e-06
1409.0,3.255e-07
1410.0,3.01e-07
1411.0,2.004e-06
1412.0,3.685e-06
1413.0,8.974e-05
1414.0,2.479e-07
1415.0,1.086e-07
