interpolation:linear
wavelength,value
280.0,3.359e-20
280.5,9.576e-19
281.0,4.899e-18
281.5,4.318e-19
282.0,1.828e-18
282.5,5.144e-18
283.0,1.709e-17
283.5,2.819e-17
284.0,4.457e-16
284.5,1.26e-15
285.0,2.184e-15
285.5,1.303e-14
286.0,5.503e-14
286.5,2.616e-13
287.0,7.7e-13
287.5,3.021e-12
288.0,9.165e-12
288.5,3.581e-11
289.0,1.192e-10
289.5,4.438e-10
290.0,1.441e-09
290.5,3.333e-09
291.0,8.251e-09
291.5,2.808e-08
292.0,7.731e-08
292.5,1.222e-07
293.0,3.051e-07
293.5,9.189e-07
294.0,1.688e-06
294.5,2.222e-06
295.0,4.381e-06
295.5,1.083e-05
296.0,2.079e-05
296.5,2.89e-05
297.0,3.889e-05
297.5,0.0001033
298.0,0.0001614
298.5,0.0001612
299.0,0.000353
299.5,0.0005776
300.0,0.0006306
300.5,0.0009061
301.0,0.001618
301.5,0.002549
302.0,0.00217
302.5,0.004113
303.0,0.007098
303.5,0.008708
304.0,0.008032
304.5,0.01142
305.0,0.01618
305.5,0.01776
306.0,0.01691
306.5,0.02049
307.0,0.02865
307.5,0.036
308.0,0.03769
308.5,0.0433
309.0,0.04185
309.5,0.04609
310.0,0.04548
310.5,0.07301
311.0,0.09029
311.5,0.08659
312.0,0.08381
312.5,0.0998
313.0,0.107
313.5,0.105
314.0,0.1279
314.5,0.1095
315.0,0.143
315.5,0.1217
316.0,0.1033
316.5,0.1447
317.0,0.1797
317.5,0.1883
318.0,0.1445
318.5,0.1737
319.0,0.2027
319.5,0.1696
320.0,0.2057
320.5,0.2491
321.0,0.2154
321.5,0.2058
322.0,0.2265
322.5,0.1967
323.0,0.1918
323.5,0.2311
324.0,0.2689
324.5,0.2753
325.0,0.2404
325.5,0.304
326.0,0.3698
326.5,0.3662
327.0,0.3664
327.5,0.3557
328.0,0.3215
328.5,0.3318
329.0,0.3916
329.5,0.4426
330.0,0.448
330.5,0.3625
331.0,0.3707
331.5,0.3736
332.0,0.3989
332.5,0.3924
333.0,0.3925
333.5,0.3583
334.0,0.3676
334.5,0.4199
335.0,0.3923
335.5,0.4582
336.0,0.317
336.5,0.3722
337.0,0.3066
337.5,0.3819
338.0,0.3699
338.5,0.4267
339.0,0.4223
339.5,0.4062
340.0,0.4774
340.5,0.43
341.0,0.4194
341.5,0.385
342.0,0.46
342.5,0.4303
343.0,0.4733
343.5,0.4457
344.0,0.3293
344.5,0.3327
345.0,0.4401
345.5,0.4492
346.0,0.3816
346.5,0.4321
347.0,0.4639
347.5,0.3751
348.0,0.4275
348.5,0.4272
349.0,0.3962
349.5,0.3923
350.0,0.4852
350.5,0.5117
351.0,0.4572
351.5,0.4444
352.0,0.4772
352.5,0.3723
353.0,0.4689
353.5,0.5013
354.0,0.5204
354.5,0.5278
355.0,0.526
355.5,0.4752
356.0,0.4971
356.5,0.4245
357.0,0.3507
357.5,0.4294
358.0,0.3403
358.5,0.2908
359.0,0.4067
359.5,0.5184
360.0,0.5495
360.5,0.4392
361.0,0.4003
361.5,0.4608
362.0,0.3985
362.5,0.5514
363.0,0.4952
363.5,0.4561
364.0,0.5577
364.5,0.4767
365.0,0.4855
365.5,0.6094
366.0,0.6456
366.5,0.6065
367.0,0.5907
367.5,0.613
368.0,0.5364
368.5,0.5413
369.0,0.5845
369.5,0.623
370.0,0.6641
370.5,0.5154
371.0,0.5507
371.5,0.689
372.0,0.4573
372.5,0.5484
373.0,0.5578
373.5,0.3629
374.0,0.5273
374.5,0.4367
375.0,0.4245
375.5,0.6338
376.0,0.5254
376.5,0.5445
377.0,0.5765
377.5,0.6745
378.0,0.7312
378.5,0.6911
379.0,0.5704
379.5,0.5211
380.0,0.5418
380.5,0.6562
381.0,0.6575
381.5,0.5212
382.0,0.4628
382.5,0.3945
383.0,0.3653
383.5,0.3518
384.0,0.3881
384.5,0.5708
385.0,0.5661
385.5,0.5272
386.0,0.4515
386.5,0.5931
387.0,0.4928
387.5,0.5536
388.0,0.5111
388.5,0.5052
389.0,0.5454
389.5,0.6606
390.0,0.663
390.5,0.6101
391.0,0.7182
391.5,0.7326
392.0,0.617
392.5,0.5524
393.0,0.3074
393.5,0.2234
394.0,0.4547
394.5,0.5781
395.0,0.7054
395.5,0.7166
396.0,0.6213
396.5,0.3632
397.0,0.2726
397.5,0.5543
398.0,0.7763
398.5,0.8025
399.0,0.8689
399.5,0.866
400.0,0.8994
401.0,0.9137
402.0,0.9639
403.0,0.9156
404.0,0.9015
405.0,0.9014
406.0,0.8867
407.0,0.8723
408.0,0.9064
409.0,0.9701
410.0,0.8476
411.0,0.9181
412.0,0.9859
413.0,0.9616
414.0,0.9733
415.0,0.9757
416.0,0.9927
417.0,0.9683
418.0,0.9504
419.0,0.9628
420.0,0.9586
421.0,1.003
422.0,0.9531
423.0,0.9309
424.0,0.9846
425.0,0.9828
426.0,0.9571
427.0,0.9392
428.0,0.9149
429.0,0.8664
430.0,0.7582
431.0,0.7515
432.0,0.9702
433.0,0.9755
434.0,0.9058
435.0,0.946
436.0,1.066
437.0,1.051
438.0,0.9571
439.0,0.9902
440.0,1.022
441.0,1.058
442.0,1.135
443.0,1.106
444.0,1.13
445.0,1.105
446.0,1.054
447.0,1.14
448.0,1.158
449.0,1.162
450.0,1.194
451.0,1.238
452.0,1.193
453.0,1.122
454.0,1.171
455.0,1.178
456.0,1.206
457.0,1.226
458.0,1.185
459.0,1.178
460.0,1.182
461.0,1.209
462.0,1.218
463.0,1.209
464.0,1.189
465.0,1.174
466.0,1.185
467.0,1.163
468.0,1.177
469.0,1.183
470.0,1.145
471.0,1.144
472.0,1.205
473.0,1.19
474.0,1.192
475.0,1.202
476.0,1.167
477.0,1.17
478.0,1.203
479.0,1.195
480.0,1.197
481.0,1.219
482.0,1.225
483.0,1.21
484.0,1.185
485.0,1.128
486.0,0.9862
487.0,1.033
488.0,1.134
489.0,1.137
490.0,1.196
491.0,1.175
492.0,1.11
493.0,1.146
494.0,1.158
495.0,1.168
496.0,1.175
497.0,1.193
498.0,1.137
499.0,1.152
500.0,1.119
501.0,1.098
502.0,1.083
503.0,1.128
504.0,1.101
505.0,1.139
506.0,1.176
507.0,1.119
508.0,1.083
509.0,1.113
510.0,1.107
511.0,1.137
512.0,1.149
513.0,1.087
514.0,1.08
515.0,1.069
516.0,1.066
517.0,0.9474
518.0,0.9961
519.0,1.045
520.0,1.083
521.0,1.093
522.0,1.094
523.0,1.075
524.0,1.113
525.0,1.127
526.0,1.077
527.0,1.015
528.0,1.074
529.0,1.132
530.0,1.116
531.0,1.132
532.0,1.094
533.0,1.061
534.0,1.093
535.0,1.116
536.0,1.126
537.0,1.082
538.0,1.101
539.0,1.092
540.0,1.047
541.0,1.054
542.0,1.087
543.0,1.076
544.0,1.095
545.0,1.091
546.0,1.096
547.0,1.095
548.0,1.082
549.0,1.085
550.0,1.098
551.0,1.085
552.0,1.092
553.0,1.073
554.0,1.099
555.0,1.101
556.0,1.087
557.0,1.053
558.0,1.045
559.0,1.026
560.0,1.039
561.0,1.053
562.0,1.045
563.0,1.074
564.0,1.045
565.0,1.036
566.0,1.021
567.0,1.041
568.0,1.033
569.0,1.01
570.0,1.009
571.0,1.003
572.0,1.028
573.0,1.039
574.0,1.036
575.0,1.017
576.0,1.007
577.0,1.018
578.0,1.002
579.0,1.006
580.0,1.024
581.0,1.028
582.0,1.047
583.0,1.049
584.0,1.058
585.0,1.032
586.0,1.01
587.0,1.033
588.0,1.01
589.0,0.8984
590.0,0.9392
591.0,0.9917
592.0,0.9804
593.0,0.9933
594.0,0.9871
595.0,0.964
596.0,0.999
597.0,0.9889
598.0,0.9855
599.0,0.9859
600.0,0.9866
601.0,0.978
602.0,0.9713
603.0,0.987
604.0,1.003
605.0,0.9979
606.0,0.9935
607.0,1.003
608.0,0.9916
609.0,0.9931
610.0,0.9856
611.0,0.9906
612.0,0.9875
613.0,0.975
614.0,0.9614
615.0,0.9821
616.0,0.9495
617.0,0.9474
618.0,0.9838
619.0,0.9737
620.0,0.9799
621.0,0.9811
622.0,0.9699
623.0,0.9553
624.0,0.9387
625.0,0.9366
626.0,0.9505
627.0,0.9618
628.0,0.9061
629.0,0.9418
630.0,0.9203
631.0,0.9384
632.0,0.9267
633.0,0.9538
634.0,0.9437
635.0,0.9579
636.0,0.9448
637.0,0.9599
638.0,0.9685
639.0,0.9574
640.0,0.9477
641.0,0.9468
642.0,0.9422
643.0,0.9549
644.0,0.9515
645.0,0.9532
646.0,0.9319
647.0,0.923
648.0,0.9241
649.0,0.9063
650.0,0.908
651.0,0.9467
652.0,0.9104
653.0,0.9341
654.0,0.9234
655.0,0.8906
656.0,0.7882
657.0,0.8093
658.0,0.9061
659.0,0.9122
660.0,0.9159
661.0,0.9223
662.0,0.9247
663.0,0.9062
664.0,0.9161
665.0,0.9163
666.0,0.9167
667.0,0.9156
668.0,0.9157
669.0,0.9297
670.0,0.9255
671.0,0.9252
672.0,0.9171
673.0,0.9308
674.0,0.9272
675.0,0.9187
676.0,0.9249
677.0,0.9156
678.0,0.9181
679.0,0.9032
680.0,0.9103
681.0,0.9043
682.0,0.9031
683.0,0.9014
684.0,0.8969
685.0,0.9045
686.0,0.8992
687.0,0.6313
688.0,0.7234
689.0,0.7254
690.0,0.7554
691.0,0.7889
692.0,0.8127
693.0,0.8066
694.0,0.7999
695.0,0.8288
696.0,0.83
697.0,0.8755
698.0,0.862
699.0,0.8448
700.0,0.8347
701.0,0.8273
702.0,0.8318
703.0,0.8333
704.0,0.8579
705.0,0.8592
706.0,0.8576
707.0,0.8579
708.0,0.8599
709.0,0.8598
710.0,0.8604
711.0,0.8588
712.0,0.8557
713.0,0.8476
714.0,0.8507
715.0,0.8251
716.0,0.8259
717.0,0.7289
718.0,0.6716
719.0,0.6165
720.0,0.6467
721.0,0.7061
722.0,0.7994
723.0,0.7486
724.0,0.6795
725.0,0.6703
726.0,0.7008
727.0,0.7078
728.0,0.6692
729.0,0.6897
730.0,0.7298
731.0,0.6996
732.0,0.7436
733.0,0.7826
734.0,0.7999
735.0,0.784
736.0,0.7829
737.0,0.7862
738.0,0.7953
739.0,0.7797
740.0,0.799
741.0,0.7905
742.0,0.7907
743.0,0.8107
744.0,0.808
745.0,0.8079
746.0,0.8116
747.0,0.8133
748.0,0.8116
749.0,0.8023
750.0,0.8018
751.0,0.7937
752.0,0.7971
753.0,0.801
754.0,0.8029
755.0,0.7983
756.0,0.7979
757.0,0.7991
758.0,0.7892
759.0,0.775
760.0,0.1626
761.0,0.09254
762.0,0.4309
763.0,0.2354
764.0,0.3361
765.0,0.431
766.0,0.5129
767.0,0.6311
768.0,0.7157
769.0,0.7279
770.0,0.7495
771.0,0.7542
772.0,0.7553
773.0,0.7605
774.0,0.7567
775.0,0.7509
776.0,0.76
777.0,0.7499
778.0,0.7454
779.0,0.746
780.0,0.7418
781.0,0.7426
782.0,0.7472
783.0,0.7341
784.0,0.7376
785.0,0.7323
786.0,0.7404
787.0,0.7288
788.0,0.7204
789.0,0.7203
790.0,0.703
791.0,0.7072
792.0,0.7018
793.0,0.6906
794.0,0.7005
795.0,0.7128
796.0,0.6935
797.0,0.6945
798.0,0.7122
799.0,0.7082
800.0,0.6965
801.0,0.6949
802.0,0.6929
803.0,0.6879
804.0,0.6886
805.0,0.6857
806.0,0.7037
807.0,0.6955
808.0,0.696
809.0,0.6838
810.0,0.6789
811.0,0.6811
812.0,0.6634
813.0,0.6507
814.0,0.5785
815.0,0.5748
816.0,0.5358
817.0,0.5449
818.0,0.5259
819.0,0.5826
820.0,0.5508
821.0,0.6365
822.0,0.6195
823.0,0.4329
824.0,0.604
825.0,0.6258
826.0,0.6042
827.0,0.6353
828.0,0.5452
829.0,0.6001
830.0,0.593
831.0,0.5948
832.0,0.5778
833.0,0.6113
834.0,0.5919
835.0,0.6456
836.0,0.6208
837.0,0.6472
838.0,0.6283
839.0,0.6371
840.0,0.6508
841.0,0.6421
842.0,0.6426
843.0,0.6414
844.0,0.633
845.0,0.6537
846.0,0.6507
847.0,0.6383
848.0,0.6347
849.0,0.6167
850.0,0.5908
851.0,0.6259
852.0,0.6213
853.0,0.5977
854.0,0.5164
855.0,0.5669
856.0,0.6197
857.0,0.6333
858.0,0.6287
859.0,0.6291
860.0,0.6301
861.0,0.6267
862.0,0.6365
863.0,0.6516
864.0,0.619
865.0,0.6135
866.0,0.5516
867.0,0.5757
868.0,0.6264
869.0,0.6134
870.0,0.6309
871.0,0.6223
872.0,0.6201
873.0,0.6188
874.0,0.6115
875.0,0.5991
876.0,0.6054
877.0,0.6114
878.0,0.6181
879.0,0.6086
880.0,0.5956
881.0,0.5868
882.0,0.5996
883.0,0.6013
884.0,0.5986
885.0,0.6031
886.0,0.5754
887.0,0.581
888.0,0.5899
889.0,0.5961
890.0,0.5917
891.0,0.5904
892.0,0.5741
893.0,0.5572
894.0,0.5394
895.0,0.5121
896.0,0.4834
897.0,0.4185
898.0,0.4548
899.0,0.3498
900.0,0.4637
901.0,0.3666
902.0,0.425
903.0,0.4309
904.0,0.5354
905.0,0.518
906.0,0.4856
907.0,0.3993
908.0,0.4065
909.0,0.4381
910.0,0.3915
911.0,0.4148
912.0,0.4328
913.0,0.3975
914.0,0.3934
915.0,0.4261
916.0,0.3618
917.0,0.4549
918.0,0.3711
919.0,0.4621
920.0,0.4647
921.0,0.4829
922.0,0.4345
923.0,0.4663
924.0,0.4456
925.0,0.4359
926.0,0.4407
927.0,0.4907
928.0,0.3676
929.0,0.3376
930.0,0.2685
931.0,0.2539
932.0,0.186
933.0,0.1528
934.0,0.08731
935.0,0.155
936.0,0.09897
937.0,0.1006
938.0,0.1228
939.0,0.246
940.0,0.2937
941.0,0.2246
942.0,0.2583
943.0,0.1721
944.0,0.1792
945.0,0.2311
946.0,0.1206
947.0,0.2329
948.0,0.1715
949.0,0.3088
950.0,0.09042
951.0,0.3035
952.0,0.167
953.0,0.2131
954.0,0.2584
955.0,0.2152
956.0,0.2074
957.0,0.1676
958.0,0.2899
959.0,0.2334
960.0,0.2616
961.0,0.2912
962.0,0.2758
963.0,0.3159
964.0,0.2901
965.0,0.3145
966.0,0.3151
967.0,0.3139
968.0,0.4137
969.0,0.4328
970.0,0.3984
971.0,0.4529
972.0,0.4338
973.0,0.3809
974.0,0.3619
975.0,0.3745
976.0,0.3572
977.0,0.4032
978.0,0.3845
979.0,0.4017
980.0,0.3783
981.0,0.4501
982.0,0.4315
983.0,0.415
984.0,0.4625
985.0,0.4299
986.0,0.4699
987.0,0.4616
988.0,0.4607
989.0,0.468
990.0,0.4579
991.0,0.4695
992.0,0.4721
993.0,0.4624
994.0,0.4719
995.0,0.4712
996.0,0.4692
997.0,0.4698
998.0,0.4677
999.0,0.4659
1000.0,0.4628
1001.0,0.4684
1002.0,0.4563
1003.0,0.4602
1004.0,0.4491
1005.0,0.4324
1006.0,0.4494
1007.0,0.4589
1008.0,0.4565
1009.0,0.4542
1010.0,0.4524
1011.0,0.4565
1012.0,0.4527
1013.0,0.4554
1014.0,0.4522
1015.0,0.4492
1016.0,0.4472
1017.0,0.4484
1018.0,0.4466
1019.0,0.4373
1020.0,0.4443
1021.0,0.4436
1022.0,0.4403
1023.0,0.4449
1024.0,0.4395
1025.0,0.4445
1026.0,0.4427
1027.0,0.4417
1028.0,0.4408
1029.0,0.4356
1030.0,0.4385
1031.0,0.4368
1032.0,0.4355
1033.0,0.4289
1034.0,0.4289
1035.0,0.4303
1036.0,0.4325
1037.0,0.4255
1038.0,0.4274
1039.0,0.4271
1040.0,0.4254
1041.0,0.4271
1042.0,0.4242
1043.0,0.4228
1044.0,0.4243
1045.0,0.4186
1046.0,0.414
1047.0,0.4177
1048.0,0.42
1049.0,0.4186
1050.0,0.4167
1051.0,0.4161
1052.0,0.4144
1053.0,0.4112
1054.0,0.4121
1055.0,0.4124
1056.0,0.411
1057.0,0.4097
1058.0,0.3997
1059.0,0.4002
1060.0,0.3996
1061.0,0.3992
1062.0,0.4013
1063.0,0.3974
1064.0,0.4021
1065.0,0.3993
1066.0,0.3913
1067.0,0.3964
1068.0,0.3878
1069.0,0.3758
1070.0,0.3886
1071.0,0.3944
1072.0,0.39
1073.0,0.3844
1074.0,0.394
1075.0,0.3751
1076.0,0.3937
1077.0,0.3871
1078.0,0.38
1079.0,0.3873
1080.0,0.3812
1081.0,0.3694
1082.0,0.3746
1083.0,0.3756
1084.0,0.3686
1085.0,0.382
1086.0,0.3498
1087.0,0.3601
1088.0,0.3753
1089.0,0.3646
1090.0,0.3571
1091.0,0.3743
1092.0,0.3732
1093.0,0.3188
1094.0,0.3417
1095.0,0.3318
1096.0,0.3184
1097.0,0.3645
1098.0,0.3137
1099.0,0.3268
1100.0,0.3049
1101.0,0.3084
1102.0,0.2952
1103.0,0.2927
1104.0,0.2931
1105.0,0.3195
1106.0,0.2485
1107.0,0.3043
1108.0,0.2603
1109.0,0.2603
1110.0,0.3019
1111.0,0.208
1112.0,0.2582
1113.0,0.1677
1114.0,0.187
1115.0,0.1552
1116.0,0.1259
1117.0,0.04843
1118.0,0.1362
1119.0,0.06934
1120.0,0.08736
1121.0,0.1149
1122.0,0.04984
1123.0,0.07888
1124.0,0.0666
1125.0,0.08647
1126.0,0.03158
1127.0,0.09741
1128.0,0.05987
1129.0,0.06329
1130.0,0.0423
1131.0,0.181
1132.0,0.1427
1133.0,0.09244
1134.0,0.02483
1135.0,0.009241
1136.0,0.07783
1137.0,0.1784
1138.0,0.1261
1139.0,0.1842
1140.0,0.1554
1141.0,0.1198
1142.0,0.137
1143.0,0.193
1144.0,0.06934
1145.0,0.0891
1146.0,0.09612
1147.0,0.03534
1148.0,0.1671
1149.0,0.1346
1150.0,0.07443
1151.0,0.1251
1152.0,0.1526
1153.0,0.1477
1154.0,0.08663
1155.0,0.1922
1156.0,0.1738
1157.0,0.1938
1158.0,0.1917
1159.0,0.2057
1160.0,0.177
1161.0,0.2157
1162.0,0.217
1163.0,0.2887
1164.0,0.2492
1165.0,0.2367
1166.0,0.2339
1167.0,0.2539
1168.0,0.2571
1169.0,0.2626
1170.0,0.2841
1171.0,0.2772
1172.0,0.2814
1173.0,0.2835
1174.0,0.2062
1175.0,0.2763
1176.0,0.3018
1177.0,0.291
1178.0,0.2215
1179.0,0.3042
1180.0,0.2736
1181.0,0.2822
1182.0,0.198
1183.0,0.2774
1184.0,0.261
1185.0,0.2529
1186.0,0.2965
1187.0,0.2835
1188.0,0.2016
1189.0,0.2643
1190.0,0.2898
1191.0,0.2769
1192.0,0.2936
1193.0,0.282
1194.0,0.2902
1195.0,0.2757
1196.0,0.2664
1197.0,0.2897
1198.0,0.266
1199.0,0.2291
1200.0,0.2785
1201.0,0.2696
1202.0,0.2675
1203.0,0.2653
1204.0,0.2336
1205.0,0.2728
1206.0,0.2998
1207.0,0.2671
1208.0,0.262
1209.0,0.2672
1210.0,0.2777
1211.0,0.2656
1212.0,0.2637
1213.0,0.2905
1214.0,0.2694
1215.0,0.2646
1216.0,0.2895
1217.0,0.2825
1218.0,0.2873
1219.0,0.284
1220.0,0.2875
1221.0,0.29
1222.0,0.2828
1223.0,0.2804
1224.0,0.2791
1225.0,0.2882
1226.0,0.2897
1227.0,0.2688
1228.0,0.2909
1229.0,0.2898
1230.0,0.2851
1231.0,0.2922
1232.0,0.2905
1233.0,0.2818
1234.0,0.2917
1235.0,0.2901
1236.0,0.292
1237.0,0.2885
1238.0,0.2911
1239.0,0.2873
1240.0,0.2884
1241.0,0.2873
1242.0,0.2864
1243.0,0.2841
1244.0,0.2862
1245.0,0.2873
1246.0,0.2857
1247.0,0.2846
1248.0,0.2846
1249.0,0.2853
1250.0,0.2837
1251.0,0.2803
1252.0,0.2801
1253.0,0.2782
1254.0,0.2758
1255.0,0.2799
1256.0,0.2728
1257.0,0.2715
1258.0,0.2759
1259.0,0.2671
1260.0,0.2684
1261.0,0.2549
1262.0,0.248
1263.0,0.2485
1264.0,0.2313
1265.0,0.2469
1266.0,0.2387
1267.0,0.2421
1268.0,0.2308
1269.0,0.1514
1270.0,0.2415
1271.0,0.2538
1272.0,0.2545
1273.0,0.2519
1274.0,0.2525
1275.0,0.2559
1276.0,0.2581
1277.0,0.2594
1278.0,0.2638
1279.0,0.2615
1280.0,0.2581
1281.0,0.246
1282.0,0.2366
1283.0,0.2549
1284.0,0.2611
1285.0,0.2627
1286.0,0.266
1287.0,0.2624
1288.0,0.2622
1289.0,0.2548
1290.0,0.2598
1291.0,0.2633
1292.0,0.2491
1293.0,0.2586
1294.0,0.2569
1295.0,0.2561
1296.0,0.2456
1297.0,0.2332
1298.0,0.2492
1299.0,0.2587
1300.0,0.2221
1301.0,0.2283
1302.0,0.2484
1303.0,0.2189
1304.0,0.1895
1305.0,0.2435
1306.0,0.2437
1307.0,0.1926
1308.0,0.2187
1309.0,0.2421
1310.0,0.1891
1311.0,0.2103
1312.0,0.2051
1313.0,0.2016
1314.0,0.1815
1315.0,0.1798
1316.0,0.2075
1317.0,0.1969
1318.0,0.2128
1319.0,0.1697
1320.0,0.1637
1321.0,0.1895
1322.0,0.1919
1323.0,0.1471
1324.0,0.1664
1325.0,0.2047
1326.0,0.1774
1327.0,0.1697
1328.0,0.1471
1329.0,0.1127
1330.0,0.1457
1331.0,0.09055
1332.0,0.0926
1333.0,0.1283
1334.0,0.1074
1335.0,0.1466
1336.0,0.1172
1337.0,0.1044
1338.0,0.1129
1339.0,0.1121
1340.0,0.1083
1341.0,0.1073
1342.0,0.1126
1343.0,0.07944
1344.0,0.04742
1345.0,0.06814
1346.0,0.03592
1347.0,0.03687
1348.0,0.002783
1349.0,0.009568
1350.0,0.009633
1351.0,0.002682
1352.0,0.0008373
1353.0,5.038e-05
1354.0,0.0001564
1355.0,1.763e-06
1356.0,2.494e-05
1357.0,3.781e-05
1358.0,2.06e-06
1359.0,3.333e-07
1360.0,1.031e-06
1361.0,1.965e-09
1362.0,6.808e-12
1363.0,1.495e-06
1364.0,6.318e-07
1365.0,3.184e-12
1366.0,6.114e-06
1367.0,2.412e-06
1368.0,4.354e-14
1369.0,2.4e-07
1370.0,1.315e-07
1371.0,8.535e-09
1372.0,1.328e-06
1373.0,2.26e-05
1374.0,9.358e-05
1375.0,0.0001704
1376.0,0.0001399
1377.0,6.585e-05
1378.0,0.00061
1379.0,2.783e-05
1380.0,4.295e-05
1381.0,1.21e-06
1382.0,1.234e-06
1383.0,2.049e-08
1384.0,2.828e-07
1385.0,1.04e-06
1386.0,1.182e-06
1387.0,0.0001037
1388.0,2.077e-06
1389.0,0.0003108
1390.0,0.0002676
1391.0,0.0001834
1392.0,1.247e-05
1393.0,6.205e-05
1394.0,3.849e-05
1395.0,3.263e-07
1396.0,2.638e-09
1397.0,2.591e-05
1398.0,0.0006929
1399.0,0.000439
1400.0,1.309e-09
1401.0,4.512e-09
1402.0,0.00105
1403.0,0.001357
1404.0,0.0004187
1405.0,1.739e-07
1406.0,0.001142
1407.0,9.812e-05
1408.0,0.0009268
1409.0,0.0003386
1410.0,0.0002578
1411.0,0.001187
1412.0,0.001539
1413.0,0.0141
1414.0,0.0002014
1415.0,0.0001007
1416.0,0.02181
1417.0,0.007022
1418.0,0.008047
1419.0,0.001269
1420.0,0.00494
1421.0,0.005354
1422.0,0.02836
1423.0,0.005605
1424.0,0.01041
1425.0,0.01547
1426.0,0.01717
1427.0,0.03072
1428.0,0.002644
1429.0,0.02335
1430.0,0.03887
1431.0,0.04246
1432.0,0.002092
1433.0,0.02732
1434.0,0.01405
1435.0,0.01457
1436.0,0.0273
1437.0,0.02092
1438.0,0.009058
1439.0,0.03678
1440.0,0.02758
1441.0,0.0214
1442.0,0.02367
1443.0,0.02916
1444.0,0.04013
1445.0,0.03185
1446.0,0.01446
1447.0,0.02276
1448.0,0.074
1449.0,0.06466
