interpolation:linear
wavelength,value
280.0,1.161e-21
280.5,3.728e-20
281.0,1.982e-19
281.5,5.166e-19
282.0,9.652e-19
282.5,2.407e-18
283.0,7.593e-18
283.5,1.234e-17
284.0,1.996e-16
284.5,5.771e-16
285.0,1.153e-15
285.5,5.553e-15
286.0,2.218e-14
286.5,9.806e-14
287.0,2.782e-13
287.5,1.058e-12
288.0,3.221e-12
288.5,1.011e-11
289.0,2.756e-11
289.5,8.452e-11
290.0,2.366e-10
290.5,4.851e-10
291.0,1.046e-09
291.5,3.013e-09
292.0,6.18e-09
292.5,8.945e-09
293.0,1.991e-08
293.5,5.08e-08
294.0,8.196e-08
294.5,1.077e-07
295.0,1.874e-07
295.5,4.356e-07
296.0,7.879e-07
296.5,1.141e-06
297.0,1.594e-06
297.5,4.528e-06
298.0,7.555e-06
298.5,7.986e-06
299.0,1.857e-05
299.5,3.426e-05
300.0,4.027e-05
300.5,6.284e-05
301.0,0.0001304
301.5,0.000241
302.0,0.0002255
302.5,0.0004523
303.0,0.0008417
303.5,0.001086
304.0,0.001041
304.5,0.001633
305.0,0.002654
305.5,0.003174
306.0,0.003125
306.5,0.004001
307.0,0.006307
307.5,0.008885
308.0,0.009475
308.5,0.01151
309.0,0.01153
309.5,0.01367
310.0,0.01395
310.5,0.02279
311.0,0.02898
311.5,0.02815
312.0,0.02895
312.5,0.0359
313.0,0.03932
313.5,0.03785
314.0,0.0484
314.5,0.04419
315.0,0.05838
315.5,0.04817
316.0,0.04307
316.5,0.06311
317.0,0.07835
317.5,0.08109
318.0,0.06414
318.5,0.08173
319.0,0.09827
319.5,0.07848
320.0,0.09456
320.5,0.1215
321.0,0.1107
321.5,0.1064
322.0,0.1107
322.5,0.09644
323.0,0.09763
323.5,0.1217
324.0,0.1425
324.5,0.1438
325.0,0.1233
325.5,0.1606
326.0,0.1971
326.5,0.199
327.0,0.1978
327.5,0.1904
328.0,0.1678
328.5,0.1787
329.0,0.2161
329.5,0.2461
330.0,0.2478
330.5,0.1968
331.0,0.2001
331.5,0.2046
332.0,0.223
332.5,0.2214
333.0,0.2204
333.5,0.1983
334.0,0.203
334.5,0.236
335.0,0.2227
335.5,0.2603
336.0,0.1802
336.5,0.2105
337.0,0.1723
337.5,0.2142
338.0,0.2104
338.5,0.2431
339.0,0.2408
339.5,0.2317
340.0,0.2721
340.5,0.2455
341.0,0.2396
341.5,0.2202
342.0,0.2633
342.5,0.2465
343.0,0.2711
343.5,0.2553
344.0,0.1887
344.5,0.1906
345.0,0.2525
345.5,0.2581
346.0,0.2195
346.5,0.2487
347.0,0.267
347.5,0.2159
348.0,0.2463
348.5,0.2464
349.0,0.2287
349.5,0.2266
350.0,0.2804
350.5,0.2958
351.0,0.2643
351.5,0.2568
352.0,0.2761
352.5,0.2156
353.0,0.2718
353.5,0.2907
354.0,0.3019
354.5,0.3063
355.0,0.3054
355.5,0.276
356.0,0.289
356.5,0.2468
357.0,0.204
357.5,0.2498
358.0,0.198
358.5,0.1693
359.0,0.2369
359.5,0.3019
360.0,0.3201
360.5,0.256
361.0,0.2335
361.5,0.2691
362.0,0.2329
362.5,0.3225
363.0,0.2899
363.5,0.2672
364.0,0.3269
364.5,0.2796
365.0,0.2848
365.5,0.3577
366.0,0.3792
366.5,0.3565
367.0,0.3473
367.5,0.3606
368.0,0.3157
368.5,0.3187
369.0,0.3443
369.5,0.3672
370.0,0.3916
370.5,0.3041
371.0,0.3251
371.5,0.4069
372.0,0.2701
372.5,0.3241
373.0,0.3298
373.5,0.2147
374.0,0.3121
374.5,0.2586
375.0,0.2515
375.5,0.3756
376.0,0.3115
376.5,0.3229
377.0,0.342
377.5,0.4003
378.0,0.4341
378.5,0.4104
379.0,0.3388
379.5,0.3095
380.0,0.3219
380.5,0.3901
381.0,0.3912
381.5,0.3103
382.0,0.2757
382.5,0.2352
383.0,0.2179
383.5,0.21
384.0,0.2317
384.5,0.341
385.0,0.3383
385.5,0.3152
386.0,0.2701
386.5,0.355
387.0,0.2951
387.5,0.3316
388.0,0.3063
388.5,0.3029
389.0,0.3271
389.5,0.3963
390.0,0.3979
390.5,0.3664
391.0,0.4314
391.5,0.4402
392.0,0.3709
392.5,0.3322
393.0,0.185
393.5,0.1345
394.0,0.2738
394.5,0.3483
395.0,0.4252
395.5,0.432
396.0,0.3747
396.5,0.2192
397.0,0.1646
397.5,0.3348
398.0,0.4689
398.5,0.4849
399.0,0.5254
399.5,0.5239
400.0,0.5441
401.0,0.5507
402.0,0.5815
403.0,0.5529
404.0,0.5448
405.0,0.545
406.0,0.5367
407.0,0.5285
408.0,0.5493
409.0,0.5883
410.0,0.5145
411.0,0.5577
412.0,0.5995
413.0,0.5849
414.0,0.5925
415.0,0.5945
416.0,0.6055
417.0,0.5909
418.0,0.5803
419.0,0.5883
420.0,0.586
421.0,0.6134
422.0,0.5834
423.0,0.5702
424.0,0.6033
425.0,0.6026
426.0,0.5875
427.0,0.5768
428.0,0.5621
429.0,0.5329
430.0,0.4666
431.0,0.4626
432.0,0.5977
433.0,0.6013
434.0,0.5585
435.0,0.5834
436.0,0.6579
437.0,0.6496
438.0,0.5919
439.0,0.6119
440.0,0.6318
441.0,0.6551
442.0,0.7028
443.0,0.6845
444.0,0.6998
445.0,0.6847
446.0,0.6541
447.0,0.7076
448.0,0.7185
449.0,0.722
450.0,0.7426
451.0,0.7704
452.0,0.7425
453.0,0.6987
454.0,0.7298
455.0,0.7344
456.0,0.7521
457.0,0.7648
458.0,0.7385
459.0,0.7349
460.0,0.7368
461.0,0.754
462.0,0.7602
463.0,0.755
464.0,0.7431
465.0,0.7343
466.0,0.7418
467.0,0.7282
468.0,0.7368
469.0,0.7407
470.0,0.7171
471.0,0.7164
472.0,0.7548
473.0,0.7451
474.0,0.7459
475.0,0.7519
476.0,0.729
477.0,0.7307
478.0,0.7512
479.0,0.747
480.0,0.7487
481.0,0.7631
482.0,0.7676
483.0,0.7589
484.0,0.7436
485.0,0.7088
486.0,0.62
487.0,0.65
488.0,0.7132
489.0,0.7152
490.0,0.7527
491.0,0.74
492.0,0.6989
493.0,0.7219
494.0,0.7292
495.0,0.7355
496.0,0.74
497.0,0.7515
498.0,0.7163
499.0,0.7253
500.0,0.704
501.0,0.6908
502.0,0.6805
503.0,0.7076
504.0,0.6878
505.0,0.714
506.0,0.737
507.0,0.7014
508.0,0.6801
509.0,0.6996
510.0,0.6963
511.0,0.7153
512.0,0.7233
513.0,0.6847
514.0,0.6802
515.0,0.6734
516.0,0.6717
517.0,0.597
518.0,0.6276
519.0,0.6582
520.0,0.6821
521.0,0.6885
522.0,0.689
523.0,0.6765
524.0,0.7004
525.0,0.7082
526.0,0.6764
527.0,0.637
528.0,0.6734
529.0,0.7096
530.0,0.6992
531.0,0.7094
532.0,0.685
533.0,0.6649
534.0,0.6847
535.0,0.6999
536.0,0.7065
537.0,0.6789
538.0,0.691
539.0,0.6851
540.0,0.6568
541.0,0.6606
542.0,0.681
543.0,0.6743
544.0,0.6855
545.0,0.6835
546.0,0.6861
547.0,0.6862
548.0,0.6782
549.0,0.6804
550.0,0.6885
551.0,0.6802
552.0,0.6849
553.0,0.6726
554.0,0.6886
555.0,0.6899
556.0,0.6809
557.0,0.6595
558.0,0.6543
559.0,0.6418
560.0,0.6496
561.0,0.6578
562.0,0.6527
563.0,0.6701
564.0,0.6515
565.0,0.6457
566.0,0.6359
567.0,0.6476
568.0,0.6409
569.0,0.6238
570.0,0.6239
571.0,0.6206
572.0,0.6343
573.0,0.6409
574.0,0.6386
575.0,0.6262
576.0,0.6205
577.0,0.6275
578.0,0.6186
579.0,0.6219
580.0,0.635
581.0,0.6393
582.0,0.6523
583.0,0.6546
584.0,0.6608
585.0,0.6449
586.0,0.6317
587.0,0.645
588.0,0.627
589.0,0.5511
590.0,0.5766
591.0,0.6129
592.0,0.6036
593.0,0.6145
594.0,0.6094
595.0,0.5928
596.0,0.6198
597.0,0.6121
598.0,0.6117
599.0,0.6127
600.0,0.6146
601.0,0.6102
602.0,0.6062
603.0,0.6166
604.0,0.627
605.0,0.6239
606.0,0.6218
607.0,0.6284
608.0,0.6218
609.0,0.6232
610.0,0.6192
611.0,0.6226
612.0,0.621
613.0,0.6134
614.0,0.6054
615.0,0.6189
616.0,0.5988
617.0,0.5978
618.0,0.621
619.0,0.6148
620.0,0.6187
621.0,0.619
622.0,0.6114
623.0,0.6018
624.0,0.5918
625.0,0.5905
626.0,0.5991
627.0,0.605
628.0,0.5549
629.0,0.5872
630.0,0.5733
631.0,0.5897
632.0,0.5833
633.0,0.6024
634.0,0.5977
635.0,0.6076
636.0,0.6002
637.0,0.6105
638.0,0.6172
639.0,0.6106
640.0,0.6052
641.0,0.6052
642.0,0.6028
643.0,0.611
644.0,0.6094
645.0,0.6102
646.0,0.5947
647.0,0.5849
648.0,0.5854
649.0,0.5738
650.0,0.5801
651.0,0.6059
652.0,0.577
653.0,0.5981
654.0,0.5917
655.0,0.5678
656.0,0.5046
657.0,0.5183
658.0,0.582
659.0,0.5867
660.0,0.5894
661.0,0.5936
662.0,0.5941
663.0,0.5826
664.0,0.5906
665.0,0.5918
666.0,0.5926
667.0,0.5925
668.0,0.5931
669.0,0.6026
670.0,0.6001
671.0,0.6002
672.0,0.5952
673.0,0.6043
674.0,0.6022
675.0,0.5969
676.0,0.6012
677.0,0.5953
678.0,0.5972
679.0,0.5877
680.0,0.5924
681.0,0.5886
682.0,0.5879
683.0,0.5868
684.0,0.5838
685.0,0.589
686.0,0.5853
687.0,0.3456
688.0,0.4246
689.0,0.4268
690.0,0.4546
691.0,0.4864
692.0,0.5105
693.0,0.5058
694.0,0.502
695.0,0.5282
696.0,0.5291
697.0,0.568
698.0,0.559
699.0,0.5413
700.0,0.5346
701.0,0.5276
702.0,0.533
703.0,0.5342
704.0,0.5539
705.0,0.5547
706.0,0.5552
707.0,0.556
708.0,0.5571
709.0,0.5596
710.0,0.5587
711.0,0.5586
712.0,0.5577
713.0,0.5513
714.0,0.5536
715.0,0.5344
716.0,0.5343
717.0,0.4477
718.0,0.4093
719.0,0.3736
720.0,0.3899
721.0,0.4397
722.0,0.513
723.0,0.4725
724.0,0.4197
725.0,0.4109
726.0,0.4308
727.0,0.4409
728.0,0.4091
729.0,0.43
730.0,0.4543
731.0,0.4333
732.0,0.4694
733.0,0.5023
734.0,0.5159
735.0,0.5044
736.0,0.5036
737.0,0.5056
738.0,0.5174
739.0,0.5072
740.0,0.5217
741.0,0.5172
742.0,0.5184
743.0,0.5318
744.0,0.5308
745.0,0.5313
746.0,0.5337
747.0,0.535
748.0,0.5339
749.0,0.5278
750.0,0.5276
751.0,0.5222
752.0,0.5245
753.0,0.5272
754.0,0.5284
755.0,0.5254
756.0,0.5252
757.0,0.526
758.0,0.5194
759.0,0.5063
760.0,0.05035
761.0,0.022
762.0,0.2145
763.0,0.087
764.0,0.1476
765.0,0.2143
766.0,0.2828
767.0,0.3784
768.0,0.455
769.0,0.4688
770.0,0.4895
771.0,0.4956
772.0,0.4974
773.0,0.501
774.0,0.4987
775.0,0.495
776.0,0.5011
777.0,0.4945
778.0,0.4915
779.0,0.4919
780.0,0.4892
781.0,0.4898
782.0,0.4929
783.0,0.4843
784.0,0.4868
785.0,0.483
786.0,0.4881
787.0,0.4777
788.0,0.4708
789.0,0.4705
790.0,0.4553
791.0,0.4619
792.0,0.4589
793.0,0.4511
794.0,0.4617
795.0,0.4687
796.0,0.4506
797.0,0.4509
798.0,0.4677
799.0,0.464
800.0,0.4551
801.0,0.4528
802.0,0.4515
803.0,0.4476
804.0,0.4486
805.0,0.4483
806.0,0.4627
807.0,0.4567
808.0,0.4573
809.0,0.4473
810.0,0.4428
811.0,0.4413
812.0,0.4262
813.0,0.416
814.0,0.3582
815.0,0.3564
816.0,0.3308
817.0,0.3376
818.0,0.3232
819.0,0.368
820.0,0.3441
821.0,0.4117
822.0,0.3984
823.0,0.2562
824.0,0.3833
825.0,0.4044
826.0,0.3861
827.0,0.4106
828.0,0.3391
829.0,0.3844
830.0,0.3785
831.0,0.38
832.0,0.3667
833.0,0.3945
834.0,0.3776
835.0,0.4213
836.0,0.399
837.0,0.4227
838.0,0.4074
839.0,0.4168
840.0,0.4265
841.0,0.4195
842.0,0.4219
843.0,0.4231
844.0,0.4164
845.0,0.4316
846.0,0.4299
847.0,0.4224
848.0,0.4191
849.0,0.4072
850.0,0.3902
851.0,0.4124
852.0,0.4098
853.0,0.395
854.0,0.3406
855.0,0.3749
856.0,0.4094
857.0,0.419
858.0,0.4157
859.0,0.4164
860.0,0.4173
861.0,0.415
862.0,0.4216
863.0,0.4315
864.0,0.41
865.0,0.4065
866.0,0.3655
867.0,0.3814
868.0,0.4151
869.0,0.4065
870.0,0.4181
871.0,0.4124
872.0,0.411
873.0,0.4102
874.0,0.4053
875.0,0.3971
876.0,0.4012
877.0,0.4053
878.0,0.4096
879.0,0.4033
880.0,0.3947
881.0,0.3884
882.0,0.3967
883.0,0.3983
884.0,0.3963
885.0,0.3993
886.0,0.3793
887.0,0.3843
888.0,0.3894
889.0,0.3949
890.0,0.3903
891.0,0.3903
892.0,0.3773
893.0,0.3637
894.0,0.3472
895.0,0.3234
896.0,0.3031
897.0,0.2547
898.0,0.2809
899.0,0.2071
900.0,0.2913
901.0,0.2171
902.0,0.2637
903.0,0.2632
904.0,0.3445
905.0,0.3309
906.0,0.3081
907.0,0.2414
908.0,0.2477
909.0,0.2721
910.0,0.2335
911.0,0.2538
912.0,0.2663
913.0,0.2366
914.0,0.236
915.0,0.2557
916.0,0.215
917.0,0.2802
918.0,0.22
919.0,0.2876
920.0,0.2952
921.0,0.3072
922.0,0.2693
923.0,0.2972
924.0,0.275
925.0,0.2693
926.0,0.2716
927.0,0.3093
928.0,0.2119
929.0,0.1894
930.0,0.1426
931.0,0.1357
932.0,0.09129
933.0,0.07121
934.0,0.03294
935.0,0.07529
936.0,0.04302
937.0,0.04329
938.0,0.05472
939.0,0.1313
940.0,0.1627
941.0,0.1167
942.0,0.1386
943.0,0.08643
944.0,0.09561
945.0,0.1216
946.0,0.05563
947.0,0.1204
948.0,0.08776
949.0,0.1674
950.0,0.03765
951.0,0.1659
952.0,0.08111
953.0,0.1101
954.0,0.1409
955.0,0.1119
956.0,0.1134
957.0,0.08063
958.0,0.1683
959.0,0.1265
960.0,0.1418
961.0,0.1648
962.0,0.1555
963.0,0.1841
964.0,0.1672
965.0,0.1836
966.0,0.1827
967.0,0.1813
968.0,0.2616
969.0,0.271
970.0,0.2469
971.0,0.2907
972.0,0.2764
973.0,0.2324
974.0,0.2197
975.0,0.2311
976.0,0.2148
977.0,0.2537
978.0,0.2372
979.0,0.2508
980.0,0.2345
981.0,0.2893
982.0,0.2736
983.0,0.261
984.0,0.3017
985.0,0.2725
986.0,0.3092
987.0,0.3005
988.0,0.3002
989.0,0.3097
990.0,0.2983
991.0,0.3104
992.0,0.3124
993.0,0.3029
994.0,0.3126
995.0,0.3126
996.0,0.3108
997.0,0.3115
998.0,0.3098
999.0,0.3088
1000.0,0.306
1001.0,0.3105
1002.0,0.2995
1003.0,0.3049
1004.0,0.2968
1005.0,0.2868
1006.0,0.2976
1007.0,0.3041
1008.0,0.302
1009.0,0.2999
1010.0,0.2984
1011.0,0.3026
1012.0,0.2995
1013.0,0.302
1014.0,0.2999
1015.0,0.2979
1016.0,0.2965
1017.0,0.2971
1018.0,0.2963
1019.0,0.2891
1020.0,0.2946
1021.0,0.2944
1022.0,0.2917
1023.0,0.2948
1024.0,0.29
1025.0,0.2949
1026.0,0.2934
1027.0,0.2928
1028.0,0.2921
1029.0,0.2885
1030.0,0.2908
1031.0,0.2895
1032.0,0.2888
1033.0,0.2844
1034.0,0.2845
1035.0,0.2854
1036.0,0.2867
1037.0,0.2821
1038.0,0.2833
1039.0,0.2831
1040.0,0.2819
1041.0,0.283
1042.0,0.281
1043.0,0.28
1044.0,0.281
1045.0,0.2771
1046.0,0.274
1047.0,0.2764
1048.0,0.2778
1049.0,0.2767
1050.0,0.2754
1051.0,0.2749
1052.0,0.2737
1053.0,0.2714
1054.0,0.2719
1055.0,0.2719
1056.0,0.2707
1057.0,0.2698
1058.0,0.263
1059.0,0.2631
1060.0,0.2627
1061.0,0.2623
1062.0,0.2635
1063.0,0.2608
1064.0,0.2639
1065.0,0.2616
1066.0,0.2568
1067.0,0.26
1068.0,0.254
1069.0,0.2464
1070.0,0.2545
1071.0,0.2593
1072.0,0.2557
1073.0,0.2521
1074.0,0.2596
1075.0,0.244
1076.0,0.2592
1077.0,0.2532
1078.0,0.2477
1079.0,0.2555
1080.0,0.2493
1081.0,0.2401
1082.0,0.2461
1083.0,0.2474
1084.0,0.2389
1085.0,0.2501
1086.0,0.2247
1087.0,0.2344
1088.0,0.2467
1089.0,0.2367
1090.0,0.2301
1091.0,0.2453
1092.0,0.2451
1093.0,0.2011
1094.0,0.2234
1095.0,0.2102
1096.0,0.1993
1097.0,0.2395
1098.0,0.1953
1099.0,0.2048
1100.0,0.1876
1101.0,0.1909
1102.0,0.1805
1103.0,0.1774
1104.0,0.1778
1105.0,0.1995
1106.0,0.1417
1107.0,0.1874
1108.0,0.1524
1109.0,0.1539
1110.0,0.1846
1111.0,0.1167
1112.0,0.1532
1113.0,0.08904
1114.0,0.1001
1115.0,0.0825
1116.0,0.06115
1117.0,0.01795
1118.0,0.0679
1119.0,0.02975
1120.0,0.037
1121.0,0.05132
1122.0,0.01839
1123.0,0.03362
1124.0,0.02832
1125.0,0.03792
1126.0,0.01015
1127.0,0.04307
1128.0,0.02231
1129.0,0.02406
1130.0,0.01489
1131.0,0.09072
1132.0,0.06942
1133.0,0.03911
1134.0,0.007711
1135.0,0.003038
1136.0,0.03096
1137.0,0.08728
1138.0,0.06062
1139.0,0.1007
1140.0,0.08017
1141.0,0.05771
1142.0,0.06833
1143.0,0.1014
1144.0,0.03079
1145.0,0.03777
1146.0,0.04067
1147.0,0.01125
1148.0,0.08737
1149.0,0.06683
1150.0,0.03386
1151.0,0.06012
1152.0,0.07752
1153.0,0.07831
1154.0,0.03651
1155.0,0.1048
1156.0,0.09234
1157.0,0.1074
1158.0,0.1061
1159.0,0.1169
1160.0,0.09758
1161.0,0.1259
1162.0,0.126
1163.0,0.1802
1164.0,0.151
1165.0,0.1389
1166.0,0.1407
1167.0,0.155
1168.0,0.1559
1169.0,0.1606
1170.0,0.1776
1171.0,0.1729
1172.0,0.178
1173.0,0.1773
1174.0,0.1195
1175.0,0.1747
1176.0,0.196
1177.0,0.1855
1178.0,0.134
1179.0,0.1977
1180.0,0.1722
1181.0,0.1779
1182.0,0.117
1183.0,0.1761
1184.0,0.1631
1185.0,0.1556
1186.0,0.1904
1187.0,0.1795
1188.0,0.118
1189.0,0.1669
1190.0,0.1864
1191.0,0.1734
1192.0,0.1893
1193.0,0.1802
1194.0,0.1865
1195.0,0.174
1196.0,0.1662
1197.0,0.1878
1198.0,0.1704
1199.0,0.1399
1200.0,0.1778
1201.0,0.1697
1202.0,0.1701
1203.0,0.168
1204.0,0.1446
1205.0,0.1755
1206.0,0.1964
1207.0,0.1689
1208.0,0.1678
1209.0,0.1716
1210.0,0.1799
1211.0,0.1695
1212.0,0.1649
1213.0,0.1887
1214.0,0.1699
1215.0,0.1663
1216.0,0.1883
1217.0,0.1824
1218.0,0.1867
1219.0,0.1839
1220.0,0.187
1221.0,0.1894
1222.0,0.1841
1223.0,0.1819
1224.0,0.1799
1225.0,0.1881
1226.0,0.1901
1227.0,0.1728
1228.0,0.1916
1229.0,0.1901
1230.0,0.1864
1231.0,0.1933
1232.0,0.1921
1233.0,0.1833
1234.0,0.1936
1235.0,0.1921
1236.0,0.1938
1237.0,0.1901
1238.0,0.1931
1239.0,0.1906
1240.0,0.1914
1241.0,0.19
1242.0,0.1901
1243.0,0.1886
1244.0,0.1897
1245.0,0.1906
1246.0,0.1895
1247.0,0.1887
1248.0,0.1883
1249.0,0.1891
1250.0,0.1878
1251.0,0.185
1252.0,0.1855
1253.0,0.1832
1254.0,0.1808
1255.0,0.1851
1256.0,0.1785
1257.0,0.1772
1258.0,0.1817
1259.0,0.1729
1260.0,0.1741
1261.0,0.1616
1262.0,0.1553
1263.0,0.1555
1264.0,0.1403
1265.0,0.1546
1266.0,0.1468
1267.0,0.1507
1268.0,0.1408
1269.0,0.07455
1270.0,0.1496
1271.0,0.1613
1272.0,0.1622
1273.0,0.1602
1274.0,0.1611
1275.0,0.1639
1276.0,0.1661
1277.0,0.1678
1278.0,0.1722
1279.0,0.1705
1280.0,0.1684
1281.0,0.1612
1282.0,0.1562
1283.0,0.1681
1284.0,0.1719
1285.0,0.1732
1286.0,0.176
1287.0,0.1724
1288.0,0.1726
1289.0,0.1655
1290.0,0.1712
1291.0,0.1739
1292.0,0.1603
1293.0,0.1698
1294.0,0.1684
1295.0,0.1667
1296.0,0.1572
1297.0,0.1472
1298.0,0.1615
1299.0,0.1703
1300.0,0.139
1301.0,0.1443
1302.0,0.1611
1303.0,0.1378
1304.0,0.1128
1305.0,0.1575
1306.0,0.1571
1307.0,0.117
1308.0,0.1388
1309.0,0.1552
1310.0,0.1144
1311.0,0.132
1312.0,0.1277
1313.0,0.1242
1314.0,0.1095
1315.0,0.107
1316.0,0.129
1317.0,0.1216
1318.0,0.1341
1319.0,0.09918
1320.0,0.0973
1321.0,0.1153
1322.0,0.1154
1323.0,0.08224
1324.0,0.09747
1325.0,0.1267
1326.0,0.1058
1327.0,0.1001
1328.0,0.08478
1329.0,0.05965
1330.0,0.0797
1331.0,0.04364
1332.0,0.04647
1333.0,0.06558
1334.0,0.0582
1335.0,0.08169
1336.0,0.06211
1337.0,0.05397
1338.0,0.05823
1339.0,0.05862
1340.0,0.05832
1341.0,0.0539
1342.0,0.05695
1343.0,0.03325
1344.0,0.02038
1345.0,0.0293
1346.0,0.01166
1347.0,0.01136
1348.0,0.0004529
1349.0,0.001846
1350.0,0.002098
1351.0,0.0003259
1352.0,5.096e-05
1353.0,1.617e-06
1354.0,7.908e-06
1355.0,2.197e-08
1356.0,7.727e-07
1357.0,1.181e-06
1358.0,2.715e-08
1359.0,1.535e-09
1360.0,9.29e-09
1361.0,2.412e-12
1362.0,4.454e-15
1363.0,9.048e-09
1364.0,3.895e-09
1365.0,1.057e-15
1366.0,4.851e-08
1367.0,2.484e-08
1368.0,6.359e-18
1369.0,1.428e-09
1370.0,5.066e-10
1371.0,2.064e-11
1372.0,1.394e-08
1373.0,4.742e-07
1374.0,3.218e-06
1375.0,5.45e-06
1376.0,7.291e-06
1377.0,3.103e-06
1378.0,3.383e-05
1379.0,1.312e-06
1380.0,1.447e-06
1381.0,3.195e-08
1382.0,1.133e-08
1383.0,1.353e-10
1384.0,1.389e-09
1385.0,1.63e-08
1386.0,7.825e-09
1387.0,2.491e-06
1388.0,5.571e-08
1389.0,1.349e-05
1390.0,1.124e-05
1391.0,7.145e-06
1392.0,4.353e-07
1393.0,2.792e-06
1394.0,7.357e-07
1395.0,3.841e-09
1396.0,4.041e-12
1397.0,9.608e-07
1398.0,3.582e-05
1399.0,2.333e-05
1400.0,1.233e-12
1401.0,8.263e-12
1402.0,0.0001175
1403.0,0.000131
1404.0,3.77e-05
1405.0,1.388e-09
1406.0,7.991e-05
1407.0,8.827e-06
1408.0,6.811e-05
1409.0,1.658e-05
1410.0,1.736e-05
1411.0,0.0001182
1412.0,0.0001861
1413.0,0.002877
1414.0,1.437e-05
1415.0,6e-06
1416.0,0.00637
1417.0,0.001475
1418.0,0.001528
1419.0,0.0002226
1420.0,0.0009241
1421.0,0.001057
1422.0,0.008369
1423.0,0.001522
1424.0,0.003012
1425.0,0.004123
1426.0,0.005342
1427.0,0.01123
1428.0,0.0004044
1429.0,0.007608
1430.0,0.01509
1431.0,0.01712
1432.0,0.0003123
1433.0,0.01019
1434.0,0.004845
1435.0,0.003759
1436.0,0.008867
