interpolation:linear
wavelength,value
280.0,4.022e-21
280.5,1.248e-19
281.0,6.567e-19
281.5,4.375e-19
282.0,1.207e-18
282.5,3.141e-18
283.0,1.009e-17
283.5,1.647e-17
284.0,2.646e-16
284.5,7.599e-16
285.0,1.664e-15
285.5,8.226e-15
286.0,3.302e-14
286.5,1.461e-13
287.0,4.139e-13
287.5,1.565e-12
288.0,4.056e-12
288.5,1.376e-11
289.0,3.973e-11
289.5,1.276e-10
290.0,3.68e-10
290.5,7.709e-10
291.0,1.699e-09
291.5,5.303e-09
292.0,1.16e-08
292.5,1.77e-08
293.0,4.228e-08
293.5,1.195e-07
294.0,2.082e-07
294.5,2.701e-07
295.0,5.097e-07
295.5,1.377e-06
296.0,2.759e-06
296.5,4.019e-06
297.0,5.637e-06
297.5,1.601e-05
298.0,2.66e-05
298.5,2.794e-05
299.0,6.439e-05
299.5,0.0001159
300.0,0.0001339
300.5,0.0002048
301.0,0.0004084
301.5,0.0007232
302.0,0.0006597
302.5,0.001295
303.0,0.00234
303.5,0.002957
304.0,0.002784
304.5,0.004172
305.0,0.006355
305.5,0.007295
306.0,0.007068
306.5,0.008811
307.0,0.01309
307.5,0.01742
308.0,0.01841
308.5,0.02174
309.0,0.02137
309.5,0.02441
310.0,0.02451
310.5,0.0397
311.0,0.0498
311.5,0.04807
312.0,0.04799
312.5,0.05833
313.0,0.06324
313.5,0.06146
314.0,0.07673
314.5,0.06788
315.0,0.08918
315.5,0.07471
316.0,0.06512
316.5,0.09334
317.0,0.1159
317.5,0.1207
318.0,0.09405
318.5,0.1165
319.0,0.138
319.5,0.1128
320.0,0.1364
320.5,0.1701
321.0,0.151
321.5,0.1448
322.0,0.1549
322.5,0.1347
323.0,0.1339
323.5,0.1642
324.0,0.1916
324.5,0.1948
325.0,0.1685
325.5,0.2163
326.0,0.2644
326.5,0.2644
327.0,0.2637
327.5,0.255
328.0,0.2275
328.5,0.2386
329.0,0.2851
329.5,0.3235
330.0,0.3265
330.5,0.2618
331.0,0.2669
331.5,0.271
332.0,0.2923
332.5,0.289
333.0,0.2883
333.5,0.2613
334.0,0.2678
334.5,0.3086
335.0,0.2898
335.5,0.3385
336.0,0.2343
336.5,0.2745
337.0,0.2254
337.5,0.2805
338.0,0.2736
338.5,0.3158
339.0,0.3126
339.5,0.3008
340.0,0.3536
340.5,0.3188
341.0,0.3109
341.5,0.2855
342.0,0.3413
342.5,0.3194
343.0,0.3513
343.5,0.3309
344.0,0.2446
344.5,0.2471
345.0,0.327
345.5,0.334
346.0,0.2839
346.5,0.3216
347.0,0.3453
347.5,0.2792
348.0,0.3184
348.5,0.3183
349.0,0.2954
349.5,0.2925
350.0,0.3619
350.5,0.3818
351.0,0.3412
351.5,0.3316
352.0,0.3563
352.5,0.2781
353.0,0.3504
353.5,0.3747
354.0,0.3891
354.5,0.3947
355.0,0.3934
355.5,0.3555
356.0,0.3721
356.5,0.3178
357.0,0.2626
357.5,0.3215
358.0,0.2549
358.5,0.2178
359.0,0.3047
359.5,0.3884
360.0,0.4118
360.5,0.3292
361.0,0.3002
361.5,0.3458
362.0,0.2991
362.5,0.4141
363.0,0.3721
363.5,0.3428
364.0,0.4194
364.5,0.3586
365.0,0.3653
365.5,0.4586
366.0,0.486
366.5,0.4568
367.0,0.4449
367.5,0.4618
368.0,0.4043
368.5,0.408
369.0,0.4408
369.5,0.4699
370.0,0.5011
370.5,0.389
371.0,0.4158
371.5,0.5203
372.0,0.3454
372.5,0.4142
373.0,0.4215
373.5,0.2743
374.0,0.3987
374.5,0.3303
375.0,0.3211
375.5,0.4795
376.0,0.3976
376.5,0.4121
377.0,0.4364
377.5,0.5107
378.0,0.5537
378.5,0.5234
379.0,0.4321
379.5,0.3947
380.0,0.4105
380.5,0.4973
381.0,0.4985
381.5,0.3953
382.0,0.3512
382.5,0.2995
383.0,0.2773
383.5,0.2672
384.0,0.2948
384.5,0.4337
385.0,0.4302
385.5,0.4008
386.0,0.3433
386.5,0.4511
387.0,0.3749
387.5,0.4212
388.0,0.389
388.5,0.3846
389.0,0.4153
389.5,0.5031
390.0,0.505
390.5,0.4649
391.0,0.5473
391.5,0.5584
392.0,0.4704
392.5,0.4213
393.0,0.2345
393.5,0.1705
394.0,0.347
394.5,0.4413
395.0,0.5385
395.5,0.5472
396.0,0.4745
396.5,0.2775
397.0,0.2083
397.5,0.4237
398.0,0.5934
398.5,0.6134
399.0,0.6645
399.5,0.6624
400.0,0.688
401.0,0.6976
402.0,0.7363
403.0,0.6998
404.0,0.6893
405.0,0.6894
406.0,0.6785
407.0,0.6678
408.0,0.6941
409.0,0.7431
410.0,0.6496
411.0,0.7038
412.0,0.7563
413.0,0.7377
414.0,0.747
415.0,0.7492
416.0,0.7626
417.0,0.7441
418.0,0.7305
419.0,0.7404
420.0,0.7373
421.0,0.7716
422.0,0.7335
423.0,0.7167
424.0,0.7582
425.0,0.7571
426.0,0.7377
427.0,0.7241
428.0,0.7055
429.0,0.6685
430.0,0.5852
431.0,0.5801
432.0,0.7492
433.0,0.7535
434.0,0.6998
435.0,0.731
436.0,0.8239
437.0,0.813
438.0,0.7405
439.0,0.7659
440.0,0.7905
441.0,0.8193
442.0,0.8788
443.0,0.856
444.0,0.8748
445.0,0.8559
446.0,0.8171
447.0,0.8836
448.0,0.8974
449.0,0.9012
450.0,0.9266
451.0,0.9611
452.0,0.9261
453.0,0.8712
454.0,0.9096
455.0,0.9153
456.0,0.9372
457.0,0.9529
458.0,0.9204
459.0,0.9157
460.0,0.9182
461.0,0.9394
462.0,0.9468
463.0,0.9403
464.0,0.925
465.0,0.9135
466.0,0.9225
467.0,0.9056
468.0,0.9163
469.0,0.9212
470.0,0.8918
471.0,0.8908
472.0,0.9386
473.0,0.9265
474.0,0.9277
475.0,0.9356
476.0,0.9075
477.0,0.91
478.0,0.9353
479.0,0.9297
480.0,0.9316
481.0,0.9491
482.0,0.9542
483.0,0.9429
484.0,0.9236
485.0,0.8801
486.0,0.7695
487.0,0.8065
488.0,0.8848
489.0,0.8876
490.0,0.9339
491.0,0.9178
492.0,0.8668
493.0,0.8952
494.0,0.9042
495.0,0.9119
496.0,0.9176
497.0,0.9318
498.0,0.8882
499.0,0.8996
500.0,0.8733
501.0,0.8572
502.0,0.845
503.0,0.8793
504.0,0.8564
505.0,0.8875
506.0,0.9162
507.0,0.8718
508.0,0.8448
509.0,0.8687
510.0,0.8642
511.0,0.8874
512.0,0.8971
513.0,0.8492
514.0,0.8434
515.0,0.835
516.0,0.833
517.0,0.7402
518.0,0.7781
519.0,0.8162
520.0,0.8459
521.0,0.8539
522.0,0.8546
523.0,0.8392
524.0,0.8691
525.0,0.8793
526.0,0.8399
527.0,0.7913
528.0,0.8369
529.0,0.8821
530.0,0.8693
531.0,0.8822
532.0,0.8519
533.0,0.8269
534.0,0.8514
535.0,0.87
536.0,0.8781
537.0,0.8435
538.0,0.8584
539.0,0.8512
540.0,0.8161
541.0,0.8214
542.0,0.847
543.0,0.8382
544.0,0.8526
545.0,0.85
546.0,0.8536
547.0,0.8534
548.0,0.8432
549.0,0.8458
550.0,0.8559
551.0,0.8455
552.0,0.8514
553.0,0.8361
554.0,0.8561
555.0,0.8578
556.0,0.8466
557.0,0.8203
558.0,0.814
559.0,0.7987
560.0,0.8087
561.0,0.819
562.0,0.813
563.0,0.8351
564.0,0.8123
565.0,0.8052
566.0,0.7933
567.0,0.8082
568.0,0.8007
569.0,0.7811
570.0,0.781
571.0,0.7764
572.0,0.7947
573.0,0.8031
574.0,0.8005
575.0,0.7854
576.0,0.7783
577.0,0.7868
578.0,0.7752
579.0,0.7785
580.0,0.7937
581.0,0.7981
582.0,0.8135
583.0,0.8157
584.0,0.8229
585.0,0.8029
586.0,0.7864
587.0,0.8035
588.0,0.7832
589.0,0.6925
590.0,0.7243
591.0,0.7673
592.0,0.7571
593.0,0.769
594.0,0.7634
595.0,0.744
596.0,0.7745
597.0,0.7658
598.0,0.7642
599.0,0.765
600.0,0.7665
601.0,0.7604
602.0,0.7553
603.0,0.7679
604.0,0.7807
605.0,0.7767
606.0,0.7736
607.0,0.7814
608.0,0.7729
609.0,0.7743
610.0,0.7689
611.0,0.773
612.0,0.7708
613.0,0.7612
614.0,0.7509
615.0,0.7673
616.0,0.7422
617.0,0.7407
618.0,0.7693
619.0,0.7615
620.0,0.7663
621.0,0.767
622.0,0.7579
623.0,0.7463
624.0,0.7336
625.0,0.7319
626.0,0.7427
627.0,0.7508
628.0,0.698
629.0,0.7319
630.0,0.7149
631.0,0.7322
632.0,0.7236
633.0,0.7461
634.0,0.7392
635.0,0.7508
636.0,0.7411
637.0,0.7534
638.0,0.7609
639.0,0.7525
640.0,0.7453
641.0,0.745
642.0,0.7417
643.0,0.7517
644.0,0.7494
645.0,0.7506
646.0,0.7327
647.0,0.7231
648.0,0.7237
649.0,0.7096
650.0,0.7142
651.0,0.7454
652.0,0.7131
653.0,0.7355
654.0,0.7274
655.0,0.6998
656.0,0.6206
657.0,0.6374
658.0,0.7146
659.0,0.7199
660.0,0.723
661.0,0.7281
662.0,0.7294
663.0,0.715
664.0,0.7238
665.0,0.7246
666.0,0.7253
667.0,0.7248
668.0,0.7252
669.0,0.7365
670.0,0.7334
671.0,0.7333
672.0,0.727
673.0,0.738
674.0,0.7353
675.0,0.7287
676.0,0.7337
677.0,0.7265
678.0,0.7286
679.0,0.7169
680.0,0.7226
681.0,0.7179
682.0,0.717
683.0,0.7156
684.0,0.7121
685.0,0.7182
686.0,0.7139
687.0,0.46
688.0,0.5456
689.0,0.5478
690.0,0.5768
691.0,0.6097
692.0,0.6339
693.0,0.6285
694.0,0.6234
695.0,0.6509
696.0,0.6518
697.0,0.6939
698.0,0.683
699.0,0.6653
700.0,0.6572
701.0,0.6501
702.0,0.6551
703.0,0.6564
704.0,0.6782
705.0,0.6792
706.0,0.679
707.0,0.6796
708.0,0.681
709.0,0.6825
710.0,0.6822
711.0,0.6815
712.0,0.6797
713.0,0.6726
714.0,0.6752
715.0,0.6534
716.0,0.6536
717.0,0.5618
718.0,0.5152
719.0,0.4715
720.0,0.4934
721.0,0.5478
722.0,0.6301
723.0,0.5849
724.0,0.5249
725.0,0.5158
726.0,0.5402
727.0,0.5492
728.0,0.5143
729.0,0.5354
730.0,0.5664
731.0,0.5414
732.0,0.581
733.0,0.6169
734.0,0.632
735.0,0.6187
736.0,0.6179
737.0,0.6203
738.0,0.6311
739.0,0.6187
740.0,0.6352
741.0,0.6291
742.0,0.63
743.0,0.6461
744.0,0.6444
745.0,0.6446
746.0,0.6476
747.0,0.649
748.0,0.6477
749.0,0.6403
750.0,0.6399
751.0,0.6334
752.0,0.6362
753.0,0.6394
754.0,0.6409
755.0,0.6372
756.0,0.637
757.0,0.6379
758.0,0.6299
759.0,0.6163
760.0,0.0892
761.0,0.04444
762.0,0.2995
763.0,0.1411
764.0,0.2195
765.0,0.2995
766.0,0.3751
767.0,0.4811
768.0,0.5616
769.0,0.5748
770.0,0.596
771.0,0.6015
772.0,0.603
773.0,0.6073
774.0,0.6044
775.0,0.5999
776.0,0.6072
777.0,0.5992
778.0,0.5955
779.0,0.596
780.0,0.5927
781.0,0.5933
782.0,0.5971
783.0,0.5867
784.0,0.5895
785.0,0.5851
786.0,0.5915
787.0,0.5805
788.0,0.573
789.0,0.5727
790.0,0.5565
791.0,0.5623
792.0,0.5582
793.0,0.5491
794.0,0.5595
795.0,0.5687
796.0,0.5499
797.0,0.5505
798.0,0.5678
799.0,0.564
800.0,0.5539
801.0,0.5519
802.0,0.5503
803.0,0.5459
804.0,0.5468
805.0,0.5455
806.0,0.5614
807.0,0.5545
808.0,0.5551
809.0,0.5442
810.0,0.5394
811.0,0.5394
812.0,0.5231
813.0,0.5117
814.0,0.4474
815.0,0.4448
816.0,0.4137
817.0,0.4215
818.0,0.4051
819.0,0.4553
820.0,0.4279
821.0,0.5036
822.0,0.4886
823.0,0.3269
824.0,0.4732
825.0,0.4947
826.0,0.4749
827.0,0.5023
828.0,0.4226
829.0,0.4722
830.0,0.4657
831.0,0.4675
832.0,0.4525
833.0,0.4831
834.0,0.4649
835.0,0.5131
836.0,0.4896
837.0,0.5146
838.0,0.4978
839.0,0.507
840.0,0.5183
841.0,0.5106
842.0,0.5123
843.0,0.5125
844.0,0.5051
845.0,0.5225
846.0,0.5203
847.0,0.5108
848.0,0.5074
849.0,0.493
850.0,0.4723
851.0,0.4998
852.0,0.4964
853.0,0.4781
854.0,0.4126
855.0,0.4536
856.0,0.4955
857.0,0.5068
858.0,0.503
859.0,0.5035
860.0,0.5045
861.0,0.5017
862.0,0.5096
863.0,0.5217
864.0,0.4956
865.0,0.4913
866.0,0.4418
867.0,0.461
868.0,0.5017
869.0,0.4913
870.0,0.5053
871.0,0.4984
872.0,0.4967
873.0,0.4957
874.0,0.4898
875.0,0.4798
876.0,0.4848
877.0,0.4897
878.0,0.495
879.0,0.4874
880.0,0.477
881.0,0.4697
882.0,0.4798
883.0,0.4814
884.0,0.4792
885.0,0.4828
886.0,0.4596
887.0,0.4649
888.0,0.4715
889.0,0.4773
890.0,0.4728
891.0,0.4722
892.0,0.4579
893.0,0.4428
894.0,0.4256
895.0,0.4002
896.0,0.3763
897.0,0.3207
898.0,0.3513
899.0,0.2642
900.0,0.3613
901.0,0.277
902.0,0.3291
903.0,0.331
904.0,0.4224
905.0,0.4071
906.0,0.3803
907.0,0.305
908.0,0.3117
909.0,0.3394
910.0,0.2969
911.0,0.3186
912.0,0.3337
913.0,0.3011
914.0,0.2992
915.0,0.3244
916.0,0.2738
917.0,0.351
918.0,0.2806
919.0,0.3584
920.0,0.364
921.0,0.3788
922.0,0.3362
923.0,0.3661
924.0,0.3442
925.0,0.3368
926.0,0.3402
927.0,0.3834
928.0,0.2742
929.0,0.2483
930.0,0.192
931.0,0.1823
932.0,0.128
933.0,0.1024
934.0,0.05267
935.0,0.1061
936.0,0.06405
937.0,0.06469
938.0,0.08042
939.0,0.1766
940.0,0.2148
941.0,0.159
942.0,0.186
943.0,0.1198
944.0,0.1285
945.0,0.1645
946.0,0.08038
947.0,0.1644
948.0,0.1203
949.0,0.2234
950.0,0.05705
951.0,0.2206
952.0,0.1141
953.0,0.1503
954.0,0.1875
955.0,0.1523
956.0,0.1501
957.0,0.1139
958.0,0.217
959.0,0.1686
960.0,0.189
961.0,0.2151
962.0,0.2032
963.0,0.2368
964.0,0.2161
965.0,0.2361
966.0,0.2356
967.0,0.2343
968.0,0.3234
969.0,0.3369
970.0,0.3082
971.0,0.3569
972.0,0.3406
973.0,0.2924
974.0,0.277
975.0,0.2891
976.0,0.2723
977.0,0.3143
978.0,0.2967
979.0,0.3121
980.0,0.2927
981.0,0.355
982.0,0.3379
983.0,0.3235
984.0,0.3675
985.0,0.3366
986.0,0.375
987.0,0.3664
988.0,0.3658
989.0,0.3745
990.0,0.3636
991.0,0.3755
992.0,0.3778
993.0,0.3682
994.0,0.3778
995.0,0.3775
996.0,0.3757
997.0,0.3763
998.0,0.3745
999.0,0.3732
1000.0,0.3702
1001.0,0.3752
1002.0,0.3637
1003.0,0.3685
1004.0,0.3592
1005.0,0.3464
1006.0,0.3597
1007.0,0.3675
1008.0,0.3653
1009.0,0.3631
1010.0,0.3614
1011.0,0.3657
1012.0,0.3623
1013.0,0.3648
1014.0,0.3623
1015.0,0.3598
1016.0,0.3582
1017.0,0.3591
1018.0,0.3579
1019.0,0.3498
1020.0,0.3559
1021.0,0.3555
1022.0,0.3526
1023.0,0.3563
1024.0,0.3512
1025.0,0.3562
1026.0,0.3545
1027.0,0.3537
1028.0,0.353
1029.0,0.3488
1030.0,0.3513
1031.0,0.3498
1032.0,0.3489
1033.0,0.3436
1034.0,0.3436
1035.0,0.3447
1036.0,0.3464
1037.0,0.3408
1038.0,0.3423
1039.0,0.3421
1040.0,0.3407
1041.0,0.342
1042.0,0.3396
1043.0,0.3385
1044.0,0.3397
1045.0,0.3351
1046.0,0.3313
1047.0,0.3343
1048.0,0.3361
1049.0,0.3348
1050.0,0.3332
1051.0,0.3327
1052.0,0.3313
1053.0,0.3286
1054.0,0.3293
1055.0,0.3294
1056.0,0.3282
1057.0,0.3271
1058.0,0.319
1059.0,0.3193
1060.0,0.3187
1061.0,0.3183
1062.0,0.3199
1063.0,0.3167
1064.0,0.3205
1065.0,0.318
1066.0,0.3118
1067.0,0.3158
1068.0,0.3088
1069.0,0.2994
1070.0,0.3094
1071.0,0.3146
1072.0,0.3107
1073.0,0.3063
1074.0,0.3146
1075.0,0.2976
1076.0,0.3143
1077.0,0.308
1078.0,0.3019
1079.0,0.3095
1080.0,0.3033
1081.0,0.2929
1082.0,0.2987
1083.0,0.2999
1084.0,0.2919
1085.0,0.3041
1086.0,0.2757
1087.0,0.2858
1088.0,0.2993
1089.0,0.289
1090.0,0.2819
1091.0,0.298
1092.0,0.2975
1093.0,0.2489
1094.0,0.2718
1095.0,0.2597
1096.0,0.2477
1097.0,0.2907
1098.0,0.2434
1099.0,0.2544
1100.0,0.2351
1101.0,0.2385
1102.0,0.2269
1103.0,0.224
1104.0,0.2244
1105.0,0.2483
1106.0,0.1843
1107.0,0.2348
1108.0,0.1957
1109.0,0.1967
1110.0,0.2322
1111.0,0.1531
1112.0,0.1954
1113.0,0.1198
1114.0,0.1344
1115.0,0.1112
1116.0,0.08607
1117.0,0.02883
1118.0,0.09453
1119.0,0.04458
1120.0,0.05591
1121.0,0.0756
1122.0,0.02983
1123.0,0.05063
1124.0,0.0427
1125.0,0.05628
1126.0,0.01765
1127.0,0.06367
1128.0,0.03594
1129.0,0.03842
1130.0,0.02455
1131.0,0.1261
1132.0,0.09788
1133.0,0.05915
1134.0,0.01359
1135.0,0.005185
1136.0,0.04833
1137.0,0.1228
1138.0,0.08599
1139.0,0.134
1140.0,0.1097
1141.0,0.08176
1142.0,0.09519
1143.0,0.1376
1144.0,0.04534
1145.0,0.05711
1146.0,0.06155
1147.0,0.01966
1148.0,0.1189
1149.0,0.09325
1150.0,0.0491
1151.0,0.08529
1152.0,0.107
1153.0,0.1058
1154.0,0.05513
1155.0,0.1396
1156.0,0.1246
1157.0,0.1417
1158.0,0.1402
1159.0,0.1525
1160.0,0.1289
1161.0,0.1619
1162.0,0.1625
1163.0,0.2244
1164.0,0.1907
1165.0,0.1781
1166.0,0.1782
1167.0,0.195
1168.0,0.1967
1169.0,0.202
1170.0,0.2209
1171.0,0.2153
1172.0,0.22
1173.0,0.2205
1174.0,0.154
1175.0,0.216
1176.0,0.2392
1177.0,0.2285
1178.0,0.1691
1179.0,0.2412
1180.0,0.2134
1181.0,0.2204
1182.0,0.1494
1183.0,0.2174
1184.0,0.2028
1185.0,0.1949
1186.0,0.2337
1187.0,0.2218
1188.0,0.1515
1189.0,0.2065
1190.0,0.2285
1191.0,0.2155
1192.0,0.2319
1193.0,0.2217
1194.0,0.2288
1195.0,0.2154
1196.0,0.2069
1197.0,0.2294
1198.0,0.2093
1199.0,0.1759
1200.0,0.2188
1201.0,0.2103
1202.0,0.2096
1203.0,0.2076
1204.0,0.1806
1205.0,0.2151
1206.0,0.2387
1207.0,0.2088
1208.0,0.2062
1209.0,0.2106
1210.0,0.2198
1211.0,0.2086
1212.0,0.2051
1213.0,0.2304
1214.0,0.2104
1215.0,0.2063
1216.0,0.2297
1217.0,0.2233
1218.0,0.2278
1219.0,0.2248
1220.0,0.2281
1221.0,0.2306
1222.0,0.2244
1223.0,0.2221
1224.0,0.2204
1225.0,0.2291
1226.0,0.2309
1227.0,0.212
1228.0,0.2322
1229.0,0.2309
1230.0,0.2268
1231.0,0.2338
1232.0,0.2324
1233.0,0.2236
1234.0,0.2338
1235.0,0.2322
1236.0,0.234
1237.0,0.2304
1238.0,0.2332
1239.0,0.2302
1240.0,0.2311
1241.0,0.2298
1242.0,0.2295
1243.0,0.2277
1244.0,0.2292
1245.0,0.2302
1246.0,0.2289
1247.0,0.228
1248.0,0.2277
1249.0,0.2285
1250.0,0.2271
1251.0,0.224
1252.0,0.2242
1253.0,0.2221
1254.0,0.2197
1255.0,0.2239
1256.0,0.2171
1257.0,0.2158
1258.0,0.2203
1259.0,0.2115
1260.0,0.2127
1261.0,0.1997
1262.0,0.1931
1263.0,0.1935
1264.0,0.1773
1265.0,0.1923
1266.0,0.1843
1267.0,0.188
1268.0,0.1775
1269.0,0.1048
1270.0,0.1871
1271.0,0.1991
1272.0,0.1999
1273.0,0.1977
1274.0,0.1985
1275.0,0.2015
1276.0,0.2037
1277.0,0.2053
1278.0,0.2097
1279.0,0.2077
1280.0,0.2051
1281.0,0.1959
1282.0,0.1891
1283.0,0.2036
1284.0,0.2084
1285.0,0.2098
1286.0,0.2128
1287.0,0.2092
1288.0,0.2093
1289.0,0.202
1290.0,0.2075
1291.0,0.2105
1292.0,0.1966
1293.0,0.2061
1294.0,0.2046
1295.0,0.2033
1296.0,0.1933
1297.0,0.1823
1298.0,0.1974
1299.0,0.2065
1300.0,0.1727
1301.0,0.1784
1302.0,0.1968
1303.0,0.1707
1304.0,0.1436
1305.0,0.1926
1306.0,0.1925
1307.0,0.1475
1308.0,0.1713
1309.0,0.1908
1310.0,0.1445
1311.0,0.1638
1312.0,0.159
1313.0,0.1556
1314.0,0.1386
1315.0,0.1363
1316.0,0.1608
1317.0,0.1521
1318.0,0.1661
1319.0,0.1274
1320.0,0.124
1321.0,0.1453
1322.0,0.1463
1323.0,0.1081
1324.0,0.1251
1325.0,0.1583
1326.0,0.1346
1327.0,0.1281
1328.0,0.1097
1329.0,0.08057
1330.0,0.1058
1331.0,0.06168
1332.0,0.06443
1333.0,0.09017
1334.0,0.07753
1335.0,0.1076
1336.0,0.0839
1337.0,0.07363
1338.0,0.07966
1339.0,0.07962
1340.0,0.07807
1341.0,0.07479
1342.0,0.07869
1343.0,0.0505
1344.0,0.03044
1345.0,0.04398
1346.0,0.02015
1347.0,0.0202
1348.0,0.001093
1349.0,0.004129
1350.0,0.004446
1351.0,0.0009167
1352.0,0.0002055
1353.0,8.727e-06
1354.0,3.412e-05
1355.0,1.858e-07
1356.0,4.216e-06
1357.0,6.445e-06
1358.0,2.236e-07
1359.0,2.086e-08
1360.0,9.194e-08
1361.0,5.493e-11
1362.0,1.167e-13
1363.0,1.123e-07
1364.0,4.632e-08
1365.0,2.896e-14
1366.0,5.316e-07
1367.0,2.323e-07
1368.0,1.155e-16
1369.0,1.71e-08
1370.0,7.43e-09
1371.0,3.639e-10
1372.0,1.283e-07
1373.0,3.165e-06
1374.0,1.69e-05
1375.0,3.032e-05
1376.0,3.096e-05
1377.0,1.377e-05
1378.0,0.0001423
1379.0,5.776e-06
1380.0,7.611e-06
1381.0,1.845e-07
1382.0,1.116e-07
1383.0,1.509e-09
1384.0,1.834e-08
1385.0,1.223e-07
1386.0,9.081e-08
1387.0,1.6e-05
1388.0,3.205e-07
1389.0,6.374e-05
1390.0,5.453e-05
1391.0,3.548e-05
1392.0,2.222e-06
1393.0,1.269e-05
1394.0,5.201e-06
1395.0,3.299e-08
1396.0,8.63e-11
1397.0,4.786e-06
1398.0,0.0001572
1399.0,0.0001003
1400.0,3.149e-11
1401.0,1.65e-10
1402.0,0.0003419
1403.0,0.0004132
1404.0,0.0001237
1405.0,1.44e-08
1406.0,0.0003011
1407.0,2.819e-05
1408.0,0.0002494
1409.0,7.466e-05
1410.0,6.494e-05
1411.0,0.0003663
1412.0,0.0005223
1413.0,0.006319
1414.0,5.205e-05
1415.0,2.37e-05
1416.0,0.01159
1417.0,0.003125
1418.0,0.003471
1419.0,0.0005237
1420.0,0.002112
1421.0,0.002305
1422.0,0.0152
1423.0,0.002852
1424.0,0.005458
1425.0,0.007829
1426.0,0.009365
1427.0,0.0183
1428.0,0.001009
1429.0,0.01313
1430.0,0.02382
1431.0,0.02654
1432.0,0.0007874
1433.0,0.01638
1434.0,0.008086
1435.0,0.007256
1436.0,0.01527
1437.0,0.01173
