interpolation:linear
wavelength,value
280.0,6.755e-22
280.5,2.1920000000000003e-20
281.0,1.169e-19
281.5,5.096e-19
282.0,8.503e-19
282.5,2.103e-18
283.0,6.623e-18
283.5,1.076e-17
284.0,1.75e-16
284.5,5.075e-16
285.0,9.254e-16
285.5,4.524e-15
286.0,1.814e-14
286.5,8.084e-14
287.0,2.304e-13
287.5,8.814e-13
288.0,2.851e-12
288.5,8.769e-12
289.0,2.358e-11
289.5,7.164e-11
290.0,1.995e-10
290.5,4.074e-10
291.0,8.757e-10
291.5,2.515e-09
292.0,5.864e-09
292.5,8.18e-09
293.0,1.743e-08
293.5,4.204e-08
294.0,6.542e-08
294.5,8.671e-08
295.0,1.462e-07
295.5,2.88e-07
296.0,5.446e-07
296.5,7.811e-07
297.0,1.082e-06
297.5,3.03e-06
298.0,4.988e-06
298.5,5.214e-06
299.0,1.199e-05
299.5,2.168e-05
300.0,2.518e-05
300.5,3.877e-05
301.0,7.848e-05
301.5,0.0001407
302.0,0.0001289
302.5,0.0002599
303.0,0.0004881
303.5,0.0006349
304.0,0.0006129
304.5,0.0009819
305.0,0.001645
305.5,0.002007
306.0,0.001992
306.5,0.002584
307.0,0.004198
307.5,0.006093
308.0,0.00653
308.5,0.008055
309.0,0.008189
309.5,0.009915
310.0,0.01022
310.5,0.01678
311.0,0.02151
311.5,0.02096
312.0,0.02193
312.5,0.02751
313.0,0.03031
313.5,0.02902
314.0,0.0376
314.5,0.03495
315.0,0.04633
315.5,0.0379
316.0,0.03438
316.5,0.05102
317.0,0.06331
317.5,0.0653
318.0,0.05209
318.5,0.06747
319.0,0.08179
319.5,0.06446
320.0,0.07751
320.5,0.1013
321.0,0.09368
321.5,0.09019
322.0,0.0923
322.5,0.08049
323.0,0.08233
323.5,0.1036
324.0,0.1215
324.5,0.1221
325.0,0.1042
325.5,0.1369
326.0,0.1683
326.5,0.1708
327.0,0.1695
327.5,0.1627
328.0,0.1424
328.5,0.1529
329.0,0.1863
329.5,0.2127
330.0,0.2137
330.5,0.1689
331.0,0.1713
331.5,0.1759
332.0,0.1929
332.5,0.1921
333.0,0.1909
333.5,0.171
334.0,0.1749
334.5,0.2044
335.0,0.1934
335.5,0.2262
336.0,0.1566
336.5,0.1827
337.0,0.1492
337.5,0.1853
338.0,0.1827
338.5,0.2114
339.0,0.2094
339.5,0.2015
340.0,0.2365
340.5,0.2135
341.0,0.2085
341.5,0.1917
342.0,0.2293
342.5,0.2147
343.0,0.236
343.5,0.2222
344.0,0.1641
344.5,0.1659
345.0,0.2199
345.5,0.2248
346.0,0.1912
346.5,0.2167
347.0,0.2326
347.5,0.1881
348.0,0.2147
348.5,0.2148
349.0,0.1994
349.5,0.1976
350.0,0.2445
350.5,0.258
351.0,0.2305
351.5,0.224
352.0,0.2408
352.5,0.1881
353.0,0.2372
353.5,0.2538
354.0,0.2636
354.5,0.2674
355.0,0.2666
355.5,0.241
356.0,0.2523
356.5,0.2155
357.0,0.1781
357.5,0.2182
358.0,0.173
358.5,0.1479
359.0,0.2069
359.5,0.2637
360.0,0.2797
360.5,0.2237
361.0,0.204
361.5,0.2352
362.0,0.2036
362.5,0.282
363.0,0.2535
363.5,0.2336
364.0,0.2859
364.5,0.2445
365.0,0.2492
365.5,0.3129
366.0,0.3318
366.5,0.312
367.0,0.304
367.5,0.3156
368.0,0.2763
368.5,0.279
369.0,0.3015
369.5,0.3215
370.0,0.3429
370.5,0.2663
371.0,0.2848
371.5,0.3564
372.0,0.2367
372.5,0.2839
373.0,0.289
373.5,0.1882
374.0,0.2736
374.5,0.2267
375.0,0.2205
375.5,0.3293
376.0,0.2731
376.5,0.2831
377.0,0.2999
377.5,0.3511
378.0,0.3807
378.5,0.36
379.0,0.2972
379.5,0.2715
380.0,0.2824
380.5,0.3423
381.0,0.3433
381.5,0.2723
382.0,0.242
382.5,0.2065
383.0,0.1913
383.5,0.1844
384.0,0.2035
384.5,0.2995
385.0,0.2972
385.5,0.2769
386.0,0.2373
386.5,0.3119
387.0,0.2593
387.5,0.2914
388.0,0.2692
388.5,0.2663
389.0,0.2875
389.5,0.3485
390.0,0.3499
390.5,0.3222
391.0,0.3795
391.5,0.3872
392.0,0.3263
392.5,0.2923
393.0,0.1627
393.5,0.1184
394.0,0.241
394.5,0.3066
395.0,0.3742
395.5,0.3803
396.0,0.3299
396.5,0.193
397.0,0.1449
397.5,0.2949
398.0,0.413
398.5,0.4271
399.0,0.4629
399.5,0.4616
400.0,0.4794
401.0,0.4846
402.0,0.5119
403.0,0.4869
404.0,0.4798
405.0,0.4801
406.0,0.4728
407.0,0.4657
408.0,0.4841
409.0,0.5186
410.0,0.4536
411.0,0.4918
412.0,0.5288
413.0,0.516
414.0,0.5228
415.0,0.5247
416.0,0.5345
417.0,0.5217
418.0,0.5124
419.0,0.5196
420.0,0.5176
421.0,0.542
422.0,0.5155
423.0,0.5039
424.0,0.5332
425.0,0.5326
426.0,0.5195
427.0,0.5101
428.0,0.4971
429.0,0.4715
430.0,0.4129
431.0,0.4094
432.0,0.5291
433.0,0.5323
434.0,0.4945
435.0,0.5166
436.0,0.5827
437.0,0.5755
438.0,0.5244
439.0,0.5421
440.0,0.5598
441.0,0.5806
442.0,0.6229
443.0,0.6067
444.0,0.6204
445.0,0.607
446.0,0.58
447.0,0.6277
448.0,0.6373
449.0,0.6406
450.0,0.659
451.0,0.6837
452.0,0.6591
453.0,0.6203
454.0,0.6481
455.0,0.6522
456.0,0.668
457.0,0.6792
458.0,0.6558
459.0,0.6527
460.0,0.6544
461.0,0.6696
462.0,0.6753
463.0,0.6707
464.0,0.6604
465.0,0.6527
466.0,0.6595
467.0,0.6474
468.0,0.6551
469.0,0.6586
470.0,0.6376
471.0,0.637
472.0,0.6712
473.0,0.6625
474.0,0.6631
475.0,0.6684
476.0,0.6478
477.0,0.6492
478.0,0.6674
479.0,0.6638
480.0,0.6654
481.0,0.6784
482.0,0.6826
483.0,0.6751
484.0,0.6616
485.0,0.6308
486.0,0.5519
487.0,0.5788
488.0,0.635
489.0,0.6367
490.0,0.6702
491.0,0.659
492.0,0.6224
493.0,0.6429
494.0,0.6494
495.0,0.6551
496.0,0.6591
497.0,0.6693
498.0,0.638
499.0,0.6459
500.0,0.6268
501.0,0.6149
502.0,0.6055
503.0,0.6294
504.0,0.6111
505.0,0.6349
506.0,0.6554
507.0,0.6237
508.0,0.605
509.0,0.6226
510.0,0.6198
511.0,0.6369
512.0,0.644
513.0,0.6097
514.0,0.6057
515.0,0.5997
516.0,0.5982
517.0,0.5316
518.0,0.5589
519.0,0.5862
520.0,0.6074
521.0,0.6131
522.0,0.6134
523.0,0.6023
524.0,0.6234
525.0,0.6302
526.0,0.6018
527.0,0.5666
528.0,0.5989
529.0,0.6309
530.0,0.6217
531.0,0.6307
532.0,0.6089
533.0,0.5911
534.0,0.6088
535.0,0.6223
536.0,0.6283
537.0,0.6038
538.0,0.6146
539.0,0.6094
540.0,0.5841
541.0,0.5873
542.0,0.6054
543.0,0.5995
544.0,0.6094
545.0,0.6076
546.0,0.6097
547.0,0.6099
548.0,0.6029
549.0,0.6049
550.0,0.6121
551.0,0.6048
552.0,0.609
553.0,0.598
554.0,0.6123
555.0,0.6134
556.0,0.6053
557.0,0.5862
558.0,0.5815
559.0,0.5702
560.0,0.5771
561.0,0.5843
562.0,0.5796
563.0,0.5949
564.0,0.5783
565.0,0.573
566.0,0.5642
567.0,0.5744
568.0,0.5681
569.0,0.5523
570.0,0.5525
571.0,0.5497
572.0,0.5614
573.0,0.5671
574.0,0.5649
575.0,0.5538
576.0,0.5488
577.0,0.555
578.0,0.5474
579.0,0.5506
580.0,0.5628
581.0,0.567
582.0,0.5789
583.0,0.5812
584.0,0.5869
585.0,0.5729
586.0,0.5612
587.0,0.5728
588.0,0.5559
589.0,0.4869
590.0,0.5096
591.0,0.5427
592.0,0.5338
593.0,0.5443
594.0,0.5395
595.0,0.5241
596.0,0.5494
597.0,0.5423
598.0,0.5423
599.0,0.5434
600.0,0.5454
601.0,0.5418
602.0,0.5383
603.0,0.5476
604.0,0.5569
605.0,0.5543
606.0,0.5525
607.0,0.5586
608.0,0.5529
609.0,0.5543
610.0,0.5508
611.0,0.554
612.0,0.5527
613.0,0.546
614.0,0.539
615.0,0.5511
616.0,0.5333
617.0,0.5325
618.0,0.5533
619.0,0.5478
620.0,0.5513
621.0,0.5514
622.0,0.5446
623.0,0.536
624.0,0.5271
625.0,0.526
626.0,0.5336
627.0,0.5385
628.0,0.49
629.0,0.5213
630.0,0.5088
631.0,0.5247
632.0,0.5193
633.0,0.5369
634.0,0.5331
635.0,0.5421
636.0,0.5358
637.0,0.5452
638.0,0.5515
639.0,0.5458
640.0,0.5411
641.0,0.5412
642.0,0.5393
643.0,0.5466
644.0,0.5454
645.0,0.546
646.0,0.5317
647.0,0.5218
648.0,0.5223
649.0,0.5118
650.0,0.5189
651.0,0.5422
652.0,0.5149
653.0,0.5352
654.0,0.5297
655.0,0.5076
656.0,0.4515
657.0,0.4639
658.0,0.5214
659.0,0.5257
660.0,0.5282
661.0,0.5321
662.0,0.5323
663.0,0.5221
664.0,0.5296
665.0,0.531
666.0,0.5319
667.0,0.5319
668.0,0.5327
669.0,0.5412
670.0,0.5391
671.0,0.5393
672.0,0.5348
673.0,0.5431
674.0,0.5413
675.0,0.5366
676.0,0.5404
677.0,0.5353
678.0,0.537
679.0,0.5285
680.0,0.5328
681.0,0.5294
682.0,0.5287
683.0,0.5277
684.0,0.5251
685.0,0.5298
686.0,0.5264
687.0,0.2951
688.0,0.3702
689.0,0.3724
690.0,0.3993
691.0,0.4303
692.0,0.4543
693.0,0.4499
694.0,0.4469
695.0,0.4723
696.0,0.4733
697.0,0.5104
698.0,0.5022
699.0,0.4848
700.0,0.4786
701.0,0.4718
702.0,0.4772
703.0,0.4784
704.0,0.497
705.0,0.4978
706.0,0.4986
707.0,0.4995
708.0,0.5004
709.0,0.5033
710.0,0.5022
711.0,0.5023
712.0,0.5018
713.0,0.4958
714.0,0.4979
715.0,0.48
716.0,0.4797
717.0,0.3961
718.0,0.3617
719.0,0.3297
720.0,0.3434
721.0,0.3907
722.0,0.4595
723.0,0.4215
724.0,0.3722
725.0,0.3636
726.0,0.3814
727.0,0.3919
728.0,0.3618
729.0,0.3823
730.0,0.4035
731.0,0.3845
732.0,0.4186
733.0,0.45
734.0,0.4629
735.0,0.4522
736.0,0.4514
737.0,0.4532
738.0,0.4653
739.0,0.4562
740.0,0.4697
741.0,0.4659
742.0,0.4673
743.0,0.4795
744.0,0.4788
745.0,0.4793
746.0,0.4815
747.0,0.4827
748.0,0.4818
749.0,0.4763
750.0,0.4761
751.0,0.4713
752.0,0.4734
753.0,0.4758
754.0,0.4769
755.0,0.4742
756.0,0.474
757.0,0.4747
758.0,0.4687
759.0,0.4559
760.0,0.03635
761.0,0.01476
762.0,0.1779
763.0,0.06608
764.0,0.1179
765.0,0.1777
766.0,0.2419
767.0,0.3319
768.0,0.4063
769.0,0.4203
770.0,0.4408
771.0,0.4471
772.0,0.4489
773.0,0.4523
774.0,0.4503
775.0,0.447
776.0,0.4525
777.0,0.4466
778.0,0.4439
779.0,0.4442
780.0,0.4418
781.0,0.4423
782.0,0.4451
783.0,0.4374
784.0,0.4397
785.0,0.4362
786.0,0.4408
787.0,0.4306
788.0,0.424
789.0,0.4237
790.0,0.409
791.0,0.4159
792.0,0.4134
793.0,0.4063
794.0,0.4168
795.0,0.4229
796.0,0.4051
797.0,0.4053
798.0,0.4219
799.0,0.4183
800.0,0.4099
801.0,0.4075
802.0,0.4063
803.0,0.4026
804.0,0.4037
805.0,0.4038
806.0,0.4175
807.0,0.412
808.0,0.4126
809.0,0.403
810.0,0.3985
811.0,0.3964
812.0,0.3819
813.0,0.3724
814.0,0.318
815.0,0.3166
816.0,0.2935
817.0,0.2997
818.0,0.2862
819.0,0.3283
820.0,0.3061
821.0,0.3698
822.0,0.3573
823.0,0.2248
824.0,0.3424
825.0,0.3633
826.0,0.3457
827.0,0.3687
828.0,0.3013
829.0,0.3444
830.0,0.3388
831.0,0.3402
832.0,0.3277
833.0,0.354
834.0,0.3378
835.0,0.3794
836.0,0.3577
837.0,0.3807
838.0,0.3661
839.0,0.3755
840.0,0.3844
841.0,0.3778
842.0,0.3804
843.0,0.3821
844.0,0.3758
845.0,0.3899
846.0,0.3885
847.0,0.3818
848.0,0.3786
849.0,0.3678
850.0,0.3525
851.0,0.3723
852.0,0.3701
853.0,0.357
854.0,0.3076
855.0,0.3388
856.0,0.3699
857.0,0.3787
858.0,0.3757
859.0,0.3764
860.0,0.3773
861.0,0.3752
862.0,0.3812
863.0,0.3902
864.0,0.3708
865.0,0.3676
866.0,0.3305
867.0,0.345
868.0,0.3754
869.0,0.3677
870.0,0.3782
871.0,0.373
872.0,0.3718
873.0,0.371
874.0,0.3666
875.0,0.3592
876.0,0.3628
877.0,0.3666
878.0,0.3704
879.0,0.3647
880.0,0.3569
881.0,0.3512
882.0,0.3586
883.0,0.3601
884.0,0.3583
885.0,0.361
886.0,0.3425
887.0,0.3474
888.0,0.3518
889.0,0.3571
890.0,0.3525
891.0,0.3527
892.0,0.3404
893.0,0.3275
894.0,0.3114
895.0,0.2885
896.0,0.2701
897.0,0.2251
898.0,0.2492
899.0,0.1817
900.0,0.2595
901.0,0.1905
902.0,0.234
903.0,0.2327
904.0,0.309
905.0,0.2962
906.0,0.2753
907.0,0.2128
908.0,0.219
909.0,0.2417
910.0,0.2052
911.0,0.2248
912.0,0.236
913.0,0.2078
914.0,0.2078
915.0,0.2248
916.0,0.1889
917.0,0.2482
918.0,0.193
919.0,0.2556
920.0,0.264
921.0,0.2746
922.0,0.2392
923.0,0.2659
924.0,0.2438
925.0,0.2388
926.0,0.2405
927.0,0.2755
928.0,0.1843
929.0,0.1636
930.0,0.1212
931.0,0.1153
932.0,0.07567
933.0,0.05819
934.0,0.02528
935.0,0.0622
936.0,0.03443
937.0,0.03462
938.0,0.04417
939.0,0.1116
940.0,0.1397
941.0,0.09841
942.0,0.1178
943.0,0.07213
944.0,0.08126
945.0,0.103
946.0,0.04534
947.0,0.1015
948.0,0.07381
949.0,0.1429
950.0,0.02992
951.0,0.1418
952.0,0.06723
953.0,0.09277
954.0,0.1205
955.0,0.09454
956.0,0.09766
957.0,0.06672
958.0,0.1466
959.0,0.1082
960.0,0.1213
961.0,0.1427
962.0,0.1345
963.0,0.1607
964.0,0.1456
965.0,0.1602
966.0,0.1593
967.0,0.1578
968.0,0.2336
969.0,0.2411
970.0,0.2192
971.0,0.2606
972.0,0.2472
973.0,0.2055
974.0,0.194
975.0,0.2049
976.0,0.189
977.0,0.2263
978.0,0.2103
979.0,0.2231
980.0,0.2082
981.0,0.2594
982.0,0.2443
983.0,0.2326
984.0,0.2716
985.0,0.2433
986.0,0.2791
987.0,0.2704
988.0,0.2702
989.0,0.28
990.0,0.2684
991.0,0.2805
992.0,0.2825
993.0,0.273
994.0,0.2827
995.0,0.2828
996.0,0.2811
997.0,0.2817
998.0,0.2802
999.0,0.2793
1000.0,0.2766
1001.0,0.2809
1002.0,0.2701
1003.0,0.2758
1004.0,0.2682
1005.0,0.2595
1006.0,0.2691
1007.0,0.2751
1008.0,0.273
1009.0,0.271
1010.0,0.2695
1011.0,0.2737
1012.0,0.2708
1013.0,0.2733
1014.0,0.2713
1015.0,0.2695
1016.0,0.2682
1017.0,0.2687
1018.0,0.2681
1019.0,0.2612
1020.0,0.2665
1021.0,0.2663
1022.0,0.2638
1023.0,0.2666
1024.0,0.2619
1025.0,0.2668
1026.0,0.2653
1027.0,0.2648
1028.0,0.2641
1029.0,0.2609
1030.0,0.2631
1031.0,0.2619
1032.0,0.2613
1033.0,0.2573
1034.0,0.2574
1035.0,0.2582
1036.0,0.2594
1037.0,0.2552
1038.0,0.2563
1039.0,0.2561
1040.0,0.255
1041.0,0.2559
1042.0,0.2541
1043.0,0.2533
1044.0,0.2541
1045.0,0.2505
1046.0,0.2477
1047.0,0.2499
1048.0,0.2511
1049.0,0.2501
1050.0,0.2489
1051.0,0.2484
1052.0,0.2473
1053.0,0.2452
1054.0,0.2455
1055.0,0.2455
1056.0,0.2444
1057.0,0.2435
1058.0,0.2374
1059.0,0.2374
1060.0,0.237
1061.0,0.2366
1062.0,0.2376
1063.0,0.2352
1064.0,0.238
1065.0,0.2358
1066.0,0.2315
1067.0,0.2344
1068.0,0.229
1069.0,0.2221
1070.0,0.2294
1071.0,0.234
1072.0,0.2305
1073.0,0.2273
1074.0,0.2344
1075.0,0.2195
1076.0,0.234
1077.0,0.2281
1078.0,0.223
1079.0,0.2308
1080.0,0.2247
1081.0,0.2159
1082.0,0.222
1083.0,0.2234
1084.0,0.2147
1085.0,0.2254
1086.0,0.2015
1087.0,0.2108
1088.0,0.2226
1089.0,0.2128
1090.0,0.2065
1091.0,0.2211
1092.0,0.2211
1093.0,0.1795
1094.0,0.2013
1095.0,0.1876
1096.0,0.1774
1097.0,0.2161
1098.0,0.1735
1099.0,0.1822
1100.0,0.1662
1101.0,0.1694
1102.0,0.1596
1103.0,0.1565
1104.0,0.1569
1105.0,0.1774
1106.0,0.1229
1107.0,0.166
1108.0,0.1331
1109.0,0.1348
1110.0,0.1632
1111.0,0.1007
1112.0,0.1343
1113.0,0.07572
1114.0,0.08522
1115.0,0.07002
1116.0,0.05062
1117.0,0.01378
1118.0,0.0565
1119.0,0.02373
1120.0,0.02932
1121.0,0.04126
1122.0,0.01395
1123.0,0.02669
1124.0,0.02246
1125.0,0.03038
1126.0,0.007386
1127.0,0.03458
1128.0,0.01701
1129.0,0.01844
1130.0,0.01126
1131.0,0.07553
1132.0,0.0573
1133.0,0.03096
1134.0,0.005582
1135.0,0.002246
1136.0,0.02404
1137.0,0.07213
1138.0,0.04986
1139.0,0.08597
1140.0,0.06736
1141.0,0.04752
1142.0,0.0568
1143.0,0.08568
1144.0,0.02481
1145.0,0.02989
1146.0,0.03217
1147.0,0.008167
1148.0,0.07362
1149.0,0.05551
1150.0,0.0276
1151.0,0.04945
1152.0,0.0648
1153.0,0.06627
1154.0,0.02902
1155.0,0.08951
1156.0,0.07823
1157.0,0.09232
1158.0,0.09117
1159.0,0.101
1160.0,0.08389
1161.0,0.1099
1162.0,0.1098
1163.0,0.1601
1164.0,0.1331
1165.0,0.1214
1166.0,0.1239
1167.0,0.137
1168.0,0.1375
1169.0,0.142
1170.0,0.1579
1171.0,0.1538
1172.0,0.1589
1173.0,0.1577
1174.0,0.1043
1175.0,0.156
1176.0,0.1763
1177.0,0.166
1178.0,0.1184
1179.0,0.1778
1180.0,0.1535
1181.0,0.1587
1182.0,0.1025
1183.0,0.1573
1184.0,0.1451
1185.0,0.1378
1186.0,0.1706
1187.0,0.1602
1188.0,0.1031
1189.0,0.1489
1190.0,0.1671
1191.0,0.1543
1192.0,0.1699
1193.0,0.1613
1194.0,0.1673
1195.0,0.1552
1196.0,0.1477
1197.0,0.1687
1198.0,0.1528
1199.0,0.1237
1200.0,0.1592
1201.0,0.1512
1202.0,0.1522
1203.0,0.1499
1204.0,0.1283
1205.0,0.1575
1206.0,0.1771
1207.0,0.1509
1208.0,0.1504
1209.0,0.1539
1210.0,0.1618
1211.0,0.1518
1212.0,0.1466
1213.0,0.1697
1214.0,0.1515
1215.0,0.1482
1216.0,0.1694
1217.0,0.1638
1218.0,0.1679
1219.0,0.1652
1220.0,0.1682
1221.0,0.1706
1222.0,0.1657
1223.0,0.1636
1224.0,0.1614
1225.0,0.1694
1226.0,0.1714
1227.0,0.1549
1228.0,0.173
1229.0,0.1714
1230.0,0.1679
1231.0,0.1748
1232.0,0.1737
1233.0,0.1649
1234.0,0.1752
1235.0,0.1737
1236.0,0.1753
1237.0,0.1717
1238.0,0.1747
1239.0,0.1725
1240.0,0.1733
1241.0,0.1717
1242.0,0.172
1243.0,0.1706
1244.0,0.1716
1245.0,0.1725
1246.0,0.1715
1247.0,0.1707
1248.0,0.1702
1249.0,0.171
1250.0,0.1698
1251.0,0.1672
1252.0,0.1677
1253.0,0.1654
1254.0,0.163
1255.0,0.1673
1256.0,0.1608
1257.0,0.1595
1258.0,0.164
1259.0,0.1552
1260.0,0.1564
1261.0,0.1441
1262.0,0.138
1263.0,0.1382
1264.0,0.1235
1265.0,0.1374
1266.0,0.1297
1267.0,0.1337
1268.0,0.1241
1269.0,0.06153
1270.0,0.1326
1271.0,0.1441
1272.0,0.1449
1273.0,0.143
1274.0,0.144
1275.0,0.1467
1276.0,0.1488
1277.0,0.1507
1278.0,0.155
1279.0,0.1534
1280.0,0.1516
1281.0,0.1453
1282.0,0.1411
1283.0,0.1518
1284.0,0.1552
1285.0,0.1564
1286.0,0.1591
1287.0,0.1555
1288.0,0.1558
1289.0,0.1487
1290.0,0.1546
1291.0,0.1571
1292.0,0.1437
1293.0,0.1532
1294.0,0.1519
1295.0,0.1499
1296.0,0.1407
1297.0,0.1313
1298.0,0.1452
1299.0,0.1537
1300.0,0.1238
1301.0,0.1287
1302.0,0.1448
1303.0,0.1228
1304.0,0.09899
1305.0,0.1415
1306.0,0.1409
1307.0,0.1033
1308.0,0.124
1309.0,0.139
1310.0,0.1008
1311.0,0.1176
1312.0,0.1135
1313.0,0.1101
1314.0,0.09646
1315.0,0.09388
1316.0,0.1146
1317.0,0.1078
1318.0,0.1196
1319.0,0.0866
1320.0,0.08533
1321.0,0.1018
1322.0,0.1015
1323.0,0.07087
1324.0,0.0852
1325.0,0.1123
1326.0,0.09292
1327.0,0.08765
1328.0,0.07369
1329.0,0.05055
1330.0,0.06828
1331.0,0.03603
1332.0,0.03878
1333.0,0.05499
1334.0,0.04979
1335.0,0.07024
1336.0,0.0526
1337.0,0.04552
1338.0,0.049
1339.0,0.04952
1340.0,0.04969
1341.0,0.04493
1342.0,0.04762
1343.0,0.0263
1344.0,0.0163
1345.0,0.02329
1346.0,0.00852
1347.0,0.008155
1348.0,0.0002747
1349.0,0.001162
1350.0,0.001355
1351.0,0.0001797
1352.0,2.262e-05
1353.0,6.28e-07
1354.0,3.451e-06
1355.0,7.135e-09
1356.0,3.001e-07
1357.0,4.568e-07
1358.0,8.885e-09
1359.0,4.696e-10
1360.0,2.887e-09
1361.0,1.024e-12
1362.0,2.475e-15
1363.0,2.664e-09
1364.0,1.178e-09
1365.0,8.04e-16
1366.0,1.432e-08
1367.0,7.754e-09
1368.0,6.08e-18
1369.0,4.333e-10
1370.0,1.563e-10
1371.0,6.925e-12
1372.0,4.388e-09
1373.0,1.659e-07
1374.0,1.259e-06
1375.0,2.034e-06
1376.0,3.209e-06
1377.0,1.339e-06
1378.0,1.469e-05
1379.0,5.719e-07
1380.0,5.692e-07
1381.0,1.224e-08
1382.0,3.482e-09
1383.0,4.166e-11
1384.0,4.154e-10
1385.0,5.518e-09
1386.0,2.324e-09
1387.0,8.651e-07
1388.0,2.13e-08
1389.0,5.528e-06
1390.0,4.504e-06
1391.0,2.861e-06
1392.0,1.755e-07
1393.0,1.188e-06
1394.0,2.479e-07
1395.0,1.239e-09
1396.0,1.49e-12
1397.0,3.904e-07
1398.0,1.512e-05
1399.0,9.999e-06
1400.0,5.469e-13
1401.0,2.859e-12
1402.0,6.39e-05
1403.0,6.756e-05
1404.0,1.89e-05
1405.0,4.231e-10
1406.0,3.672e-05
1407.0,4.602e-06
1408.0,3.19e-05
1409.0,6.898e-06
1410.0,8.186e-06
1411.0,6.167e-05
1412.0,0.0001031
1413.0,0.001815
1414.0,6.923e-06
1415.0,2.757e-06
1416.0,0.004521
1417.0,0.0009665
1418.0,0.0009464
1419.0,0.0001355
1420.0,0.0005709
1421.0,0.0006827
1422.0,0.005931
1423.0,0.001067
1424.0,0.002158
1425.0,0.002862
1426.0,0.003896
1427.0,0.0085
1428.0,0.0002399
1429.0,0.005563
1430.0,0.01165
1431.0,0.01335
1432.0,0.0001844
