interpolation:linear
wavelength,value
280.0,1.0749999999999999e-22
280.5,3.58e-21
281.0,1.929e-20
281.5,4.563e-19
282.0,5.386e-19
282.5,1.31e-18
283.0,4.118e-18
283.5,6.704e-18
284.0,1.107e-16
284.5,3.241e-16
285.0,5.752e-16
285.5,2.785e-15
286.0,1.119e-14
286.5,5.012e-14
287.0,1.438e-13
287.5,5.549e-13
288.0,1.963e-12
288.5,5.732e-12
289.0,1.496e-11
289.5,4.462e-11
290.0,1.232e-10
290.5,2.508e-10
291.0,5.379e-10
291.5,1.545e-09
292.0,3.122e-09
292.5,4.361e-09
293.0,9.307e-09
293.5,2.252e-08
294.0,3.514e-08
294.5,4.653e-08
295.0,7.857e-08
295.5,1.322e-07
296.0,2.522e-07
296.5,3.486e-07
297.0,4.666e-07
297.5,1.23e-06
298.0,1.906e-06
298.5,1.889e-06
299.0,4.1e-06
299.5,6.606e-06
300.0,7.126e-06
300.5,1.01e-05
301.0,1.76e-05
301.5,2.699e-05
302.0,2.259e-05
302.5,4.413e-05
303.0,7.969e-05
303.5,0.0001016
304.0,9.812e-05
304.5,0.000158
305.0,0.0002678
305.5,0.0003299
306.0,0.0003284
306.5,0.0004291
307.0,0.00071
307.5,0.001051
308.0,0.001129
308.5,0.001407
309.0,0.001655
309.5,0.002219
310.0,0.002397
310.5,0.004025
311.0,0.005358
311.5,0.005306
312.0,0.006026
312.5,0.007975
313.0,0.009038
313.5,0.008423
314.0,0.01165
314.5,0.0118
315.0,0.01587
315.5,0.01244
316.0,0.0121
316.5,0.01906
317.0,0.02362
317.5,0.02394
318.0,0.01989
318.5,0.02787
319.0,0.03515
319.5,0.02597
320.0,0.03091
320.5,0.04376
321.0,0.04354
321.5,0.0422
322.0,0.03993
322.5,0.03495
323.0,0.03761
323.5,0.05043
324.0,0.05964
324.5,0.05856
325.0,0.04795
325.5,0.06567
326.0,0.08306
326.5,0.0868
327.0,0.08516
327.5,0.08063
328.0,0.06782
328.5,0.07636
329.0,0.09654
329.5,0.1114
330.0,0.1109
330.5,0.08514
331.0,0.08553
331.5,0.08969
332.0,0.1014
332.5,0.1024
333.0,0.1009
333.5,0.08833
334.0,0.09002
334.5,0.1079
335.0,0.1037
335.5,0.122
336.0,0.08447
336.5,0.09712
337.0,0.07845
337.5,0.09703
338.0,0.09776
338.5,0.1142
339.0,0.1133
339.5,0.1089
340.0,0.1266
340.5,0.1145
341.0,0.1127
341.5,0.1039
342.0,0.1243
342.5,0.1165
343.0,0.1279
343.5,0.1203
344.0,0.08813
344.5,0.08961
345.0,0.1192
345.5,0.122
346.0,0.1038
346.5,0.1178
347.0,0.1262
347.5,0.102
348.0,0.1167
348.5,0.1168
349.0,0.1085
349.5,0.1075
350.0,0.1331
350.5,0.1405
351.0,0.1254
351.5,0.1215
352.0,0.1309
352.5,0.1024
353.0,0.1292
353.5,0.1383
354.0,0.1437
354.5,0.1458
355.0,0.1453
355.5,0.1314
356.0,0.1376
356.5,0.1176
357.0,0.09717
357.5,0.119
358.0,0.09441
358.5,0.08072
359.0,0.1129
359.5,0.1438
360.0,0.1526
360.5,0.1221
361.0,0.1114
361.5,0.1285
362.0,0.1113
362.5,0.1542
363.0,0.1386
363.5,0.1278
364.0,0.1565
364.5,0.1339
365.0,0.1364
365.5,0.1714
366.0,0.1817
366.5,0.171
367.0,0.1666
367.5,0.173
368.0,0.1515
368.5,0.153
369.0,0.1654
369.5,0.1764
370.0,0.1883
370.5,0.1462
371.0,0.1564
371.5,0.1958
372.0,0.13
372.5,0.1561
373.0,0.1589
373.5,0.1035
374.0,0.1505
374.5,0.1247
375.0,0.1214
375.5,0.1813
376.0,0.1504
376.5,0.1559
377.0,0.1652
377.5,0.1935
378.0,0.2098
378.5,0.1985
379.0,0.1638
379.5,0.1497
380.0,0.1558
380.5,0.1889
381.0,0.1895
381.5,0.1504
382.0,0.1337
382.5,0.1141
383.0,0.1058
383.5,0.102
384.0,0.1126
384.5,0.1658
385.0,0.1646
385.5,0.1534
386.0,0.1315
386.5,0.173
387.0,0.1438
387.5,0.1616
388.0,0.1494
388.5,0.1478
389.0,0.1597
389.5,0.1936
390.0,0.1944
390.5,0.1791
391.0,0.211
391.5,0.2154
392.0,0.1815
392.5,0.1627
393.0,0.09064
393.5,0.06595
394.0,0.1343
394.5,0.1709
395.0,0.2087
395.5,0.2121
396.0,0.1841
396.5,0.1078
397.0,0.08095
397.5,0.1648
398.0,0.2308
398.5,0.2388
399.0,0.2589
399.5,0.2583
400.0,0.2683
401.0,0.2697
402.0,0.2851
403.0,0.2714
404.0,0.2676
405.0,0.268
406.0,0.2642
407.0,0.2604
408.0,0.2708
409.0,0.2903
410.0,0.2541
411.0,0.2757
412.0,0.2968
413.0,0.2898
414.0,0.2938
415.0,0.2952
416.0,0.301
417.0,0.2939
418.0,0.2889
419.0,0.2932
420.0,0.2923
421.0,0.3062
422.0,0.2914
423.0,0.2851
424.0,0.3018
425.0,0.3017
426.0,0.2946
427.0,0.2895
428.0,0.2823
429.0,0.2681
430.0,0.235
431.0,0.233
432.0,0.3014
433.0,0.3035
434.0,0.282
435.0,0.2947
436.0,0.3328
437.0,0.3291
438.0,0.3001
439.0,0.31
440.0,0.3203
441.0,0.3325
442.0,0.3569
443.0,0.3475
444.0,0.3558
445.0,0.3482
446.0,0.3332
447.0,0.3611
448.0,0.3665
449.0,0.3689
450.0,0.3798
451.0,0.3942
452.0,0.3803
453.0,0.3582
454.0,0.3746
455.0,0.3771
456.0,0.3864
457.0,0.393
458.0,0.3792
459.0,0.3775
460.0,0.3783
461.0,0.3873
462.0,0.391
463.0,0.3884
464.0,0.383
465.0,0.3792
466.0,0.3836
467.0,0.3764
468.0,0.3809
469.0,0.383
470.0,0.3707
471.0,0.3705
472.0,0.3905
473.0,0.3855
474.0,0.3855
475.0,0.3882
476.0,0.3757
477.0,0.3761
478.0,0.3868
479.0,0.3849
480.0,0.3862
481.0,0.3942
482.0,0.3971
483.0,0.3933
484.0,0.3859
485.0,0.3683
486.0,0.3227
487.0,0.3389
488.0,0.3718
489.0,0.3727
490.0,0.3926
491.0,0.3863
492.0,0.365
493.0,0.3771
494.0,0.3811
495.0,0.3846
496.0,0.387
497.0,0.393
498.0,0.3745
499.0,0.3789
500.0,0.3673
501.0,0.3599
502.0,0.3536
503.0,0.3668
504.0,0.3541
505.0,0.3695
506.0,0.3814
507.0,0.3631
508.0,0.3529
509.0,0.3637
510.0,0.3625
511.0,0.3729
512.0,0.3774
513.0,0.3573
514.0,0.3551
515.0,0.3516
516.0,0.3506
517.0,0.3117
518.0,0.3276
519.0,0.3436
520.0,0.356
521.0,0.3592
522.0,0.3592
523.0,0.3525
524.0,0.3645
525.0,0.3678
526.0,0.351
527.0,0.33
528.0,0.3484
529.0,0.3667
530.0,0.3611
531.0,0.3661
532.0,0.3534
533.0,0.3431
534.0,0.3535
535.0,0.3617
536.0,0.3654
537.0,0.3513
538.0,0.3578
539.0,0.3547
540.0,0.3399
541.0,0.341
542.0,0.3512
543.0,0.3483
544.0,0.3535
545.0,0.3525
546.0,0.3532
547.0,0.3538
548.0,0.35
549.0,0.3513
550.0,0.3555
551.0,0.3514
552.0,0.3538
553.0,0.3473
554.0,0.3555
555.0,0.356
556.0,0.3512
557.0,0.34
558.0,0.3368
559.0,0.33
560.0,0.3337
561.0,0.3375
562.0,0.3344
563.0,0.3427
564.0,0.3327
565.0,0.3293
566.0,0.324
567.0,0.3293
568.0,0.3246
569.0,0.3134
570.0,0.3138
571.0,0.3127
572.0,0.3179
573.0,0.3208
574.0,0.3193
575.0,0.3125
576.0,0.3097
577.0,0.3134
578.0,0.3097
579.0,0.3126
580.0,0.3211
581.0,0.3248
582.0,0.3327
583.0,0.3349
584.0,0.3388
585.0,0.3311
586.0,0.3244
587.0,0.3304
588.0,0.3181
589.0,0.2736
590.0,0.2867
591.0,0.3084
592.0,0.3016
593.0,0.3098
594.0,0.3062
595.0,0.2953
596.0,0.3139
597.0,0.3086
598.0,0.31
599.0,0.3111
600.0,0.3133
601.0,0.3121
602.0,0.3102
603.0,0.316
604.0,0.3216
605.0,0.3204
606.0,0.3198
607.0,0.3239
608.0,0.3211
609.0,0.3223
610.0,0.3208
611.0,0.3229
612.0,0.3225
613.0,0.3189
614.0,0.3152
615.0,0.3227
616.0,0.3126
617.0,0.3124
618.0,0.3248
619.0,0.3218
620.0,0.3238
621.0,0.3236
622.0,0.3194
623.0,0.3141
624.0,0.3092
625.0,0.3084
626.0,0.3128
627.0,0.3146
628.0,0.274
629.0,0.3002
630.0,0.2925
631.0,0.3059
632.0,0.3036
633.0,0.3156
634.0,0.3148
635.0,0.3209
636.0,0.318
637.0,0.3242
638.0,0.3289
639.0,0.3261
640.0,0.3239
641.0,0.3244
642.0,0.3239
643.0,0.3283
644.0,0.3282
645.0,0.3282
646.0,0.3182
647.0,0.3087
648.0,0.3095
649.0,0.3026
650.0,0.3113
651.0,0.3261
652.0,0.3055
653.0,0.3222
654.0,0.3192
655.0,0.3037
656.0,0.2717
657.0,0.2795
658.0,0.3156
659.0,0.3188
660.0,0.3207
661.0,0.3233
662.0,0.3227
663.0,0.3168
664.0,0.3226
665.0,0.3244
666.0,0.3252
667.0,0.3257
668.0,0.3267
669.0,0.3323
670.0,0.3312
671.0,0.3316
672.0,0.3291
673.0,0.3344
674.0,0.3335
675.0,0.3308
676.0,0.3334
677.0,0.3304
678.0,0.3316
679.0,0.3266
680.0,0.3294
681.0,0.3273
682.0,0.327
683.0,0.3264
684.0,0.3247
685.0,0.3279
686.0,0.3255
687.0,0.1374
688.0,0.1928
689.0,0.1947
690.0,0.2165
691.0,0.243
692.0,0.2648
693.0,0.262
694.0,0.2623
695.0,0.2837
696.0,0.2849
697.0,0.3142
698.0,0.309
699.0,0.2933
700.0,0.2893
701.0,0.2829
702.0,0.2882
703.0,0.2898
704.0,0.3041
705.0,0.3044
706.0,0.306
707.0,0.3071
708.0,0.3075
709.0,0.3115
710.0,0.3095
711.0,0.3104
712.0,0.3112
713.0,0.3064
714.0,0.3081
715.0,0.2948
716.0,0.2942
717.0,0.2256
718.0,0.2052
719.0,0.1857
720.0,0.1914
721.0,0.2275
722.0,0.2783
723.0,0.2504
724.0,0.2146
725.0,0.2079
726.0,0.2183
727.0,0.2288
728.0,0.2061
729.0,0.2238
730.0,0.234
731.0,0.2223
732.0,0.2487
733.0,0.2729
734.0,0.2828
735.0,0.2751
736.0,0.2741
737.0,0.2754
738.0,0.288
739.0,0.2826
740.0,0.2924
741.0,0.2909
742.0,0.2928
743.0,0.3007
744.0,0.3008
745.0,0.3018
746.0,0.3031
747.0,0.304
748.0,0.3035
749.0,0.3001
750.0,0.3
751.0,0.297
752.0,0.2984
753.0,0.3
754.0,0.3007
755.0,0.299
756.0,0.299
757.0,0.2994
758.0,0.2954
759.0,0.2839
760.0,0.007776
761.0,0.002636
762.0,0.0706
763.0,0.01713
764.0,0.03866
765.0,0.07037
766.0,0.1132
767.0,0.1785
768.0,0.2414
769.0,0.2553
770.0,0.2743
771.0,0.2812
772.0,0.2833
773.0,0.2857
774.0,0.2846
775.0,0.2827
776.0,0.2863
777.0,0.2826
778.0,0.2808
779.0,0.281
780.0,0.2796
781.0,0.2799
782.0,0.2818
783.0,0.277
784.0,0.2785
785.0,0.2761
786.0,0.2788
787.0,0.2697
788.0,0.2645
789.0,0.2643
790.0,0.2519
791.0,0.2596
792.0,0.2585
793.0,0.2538
794.0,0.2636
795.0,0.2665
796.0,0.2506
797.0,0.2501
798.0,0.2652
799.0,0.2622
800.0,0.2558
801.0,0.2531
802.0,0.2522
803.0,0.2492
804.0,0.2505
805.0,0.252
806.0,0.2631
807.0,0.2591
808.0,0.2596
809.0,0.2517
810.0,0.2479
811.0,0.2447
812.0,0.2318
813.0,0.2253
814.0,0.1849
815.0,0.185
816.0,0.1702
817.0,0.1739
818.0,0.1644
819.0,0.1949
820.0,0.1798
821.0,0.2276
822.0,0.2183
823.0,0.1232
824.0,0.2051
825.0,0.2239
826.0,0.2095
827.0,0.227
828.0,0.1756
829.0,0.2095
830.0,0.2056
831.0,0.2062
832.0,0.1968
833.0,0.2169
834.0,0.2044
835.0,0.2372
836.0,0.218
837.0,0.2379
838.0,0.2259
839.0,0.2346
840.0,0.2409
841.0,0.2356
842.0,0.239
843.0,0.2421
844.0,0.2371
845.0,0.2473
846.0,0.2468
847.0,0.2431
848.0,0.2402
849.0,0.2334
850.0,0.2237
851.0,0.2354
852.0,0.2345
853.0,0.2268
854.0,0.1949
855.0,0.2155
856.0,0.2349
857.0,0.2411
858.0,0.2389
859.0,0.2397
860.0,0.2406
861.0,0.2392
862.0,0.2431
863.0,0.2489
864.0,0.2365
865.0,0.2346
866.0,0.211
867.0,0.2202
868.0,0.2396
869.0,0.2347
870.0,0.2415
871.0,0.2382
872.0,0.2374
873.0,0.237
874.0,0.2342
875.0,0.2294
876.0,0.2317
877.0,0.2341
878.0,0.2364
879.0,0.2328
880.0,0.2279
881.0,0.2238
882.0,0.2283
883.0,0.2298
884.0,0.2284
885.0,0.2301
886.0,0.2168
887.0,0.2211
888.0,0.2233
889.0,0.2279
890.0,0.2234
891.0,0.2243
892.0,0.2144
893.0,0.2047
894.0,0.1905
895.0,0.1716
896.0,0.1597
897.0,0.1281
898.0,0.1438
899.0,0.09961
900.0,0.1533
901.0,0.1044
902.0,0.1352
903.0,0.1318
904.0,0.1887
905.0,0.1795
906.0,0.1653
907.0,0.1189
908.0,0.1247
909.0,0.1404
910.0,0.1135
911.0,0.1298
912.0,0.1356
913.0,0.1147
914.0,0.116
915.0,0.1244
916.0,0.1042
917.0,0.1425
918.0,0.1058
919.0,0.149
920.0,0.1595
921.0,0.1649
922.0,0.1395
923.0,0.1603
924.0,0.1402
925.0,0.1379
926.0,0.1377
927.0,0.1618
928.0,0.09642
929.0,0.08249
930.0,0.05601
931.0,0.05272
932.0,0.03019
933.0,0.02163
934.0,0.006748
935.0,0.02428
936.0,0.01145
937.0,0.01156
938.0,0.01541
939.0,0.05083
940.0,0.06751
941.0,0.04329
942.0,0.05368
943.0,0.02981
944.0,0.03711
945.0,0.04636
946.0,0.01661
947.0,0.04458
948.0,0.03215
949.0,0.06737
950.0,0.009838
951.0,0.06689
952.0,0.02728
953.0,0.04091
954.0,0.05689
955.0,0.04218
956.0,0.04923
957.0,0.02703
958.0,0.07659
959.0,0.05155
960.0,0.05789
961.0,0.07241
962.0,0.06833
963.0,0.08555
964.0,0.07653
965.0,0.08461
966.0,0.08428
967.0,0.08272
968.0,0.1397
969.0,0.1409
970.0,0.1273
971.0,0.1587
972.0,0.1486
973.0,0.1165
974.0,0.1099
975.0,0.1178
976.0,0.1045
977.0,0.1348
978.0,0.1214
979.0,0.1305
980.0,0.1211
981.0,0.158
982.0,0.1463
983.0,0.1379
984.0,0.1692
985.0,0.1453
986.0,0.1763
987.0,0.1687
988.0,0.1688
989.0,0.1785
990.0,0.1676
991.0,0.1785
992.0,0.18
993.0,0.1717
994.0,0.1805
995.0,0.181
996.0,0.1794
997.0,0.1801
998.0,0.1789
999.0,0.1785
1000.0,0.1761
1001.0,0.1796
1002.0,0.1698
1003.0,0.1761
1004.0,0.1705
1005.0,0.166
1006.0,0.1717
1007.0,0.1757
1008.0,0.174
1009.0,0.1721
1010.0,0.1709
1011.0,0.175
1012.0,0.1726
1013.0,0.1748
1014.0,0.1736
1015.0,0.1723
1016.0,0.1714
1017.0,0.1717
1018.0,0.1716
1019.0,0.1661
1020.0,0.1704
1021.0,0.1705
1022.0,0.1685
1023.0,0.1702
1024.0,0.1661
1025.0,0.1707
1026.0,0.1695
1027.0,0.1692
1028.0,0.1687
1029.0,0.1665
1030.0,0.1683
1031.0,0.1674
1032.0,0.1671
1033.0,0.1646
1034.0,0.1646
1035.0,0.1651
1036.0,0.1658
1037.0,0.1632
1038.0,0.1638
1039.0,0.1636
1040.0,0.1629
1041.0,0.1634
1042.0,0.1622
1043.0,0.1616
1044.0,0.162
1045.0,0.1597
1046.0,0.1578
1047.0,0.1591
1048.0,0.1598
1049.0,0.1591
1050.0,0.1582
1051.0,0.1578
1052.0,0.157
1053.0,0.1555
1054.0,0.1556
1055.0,0.1554
1056.0,0.1545
1057.0,0.1538
1058.0,0.1497
1059.0,0.1496
1060.0,0.1492
1061.0,0.1489
1062.0,0.1493
1063.0,0.1476
1064.0,0.1495
1065.0,0.1477
1066.0,0.1453
1067.0,0.147
1068.0,0.1433
1069.0,0.1393
1070.0,0.1436
1071.0,0.1474
1072.0,0.1445
1073.0,0.1427
1074.0,0.1482
1075.0,0.1365
1076.0,0.1478
1077.0,0.1428
1078.0,0.1388
1079.0,0.1463
1080.0,0.1406
1081.0,0.1338
1082.0,0.1398
1083.0,0.1413
1084.0,0.1327
1085.0,0.1413
1086.0,0.1233
1087.0,0.1309
1088.0,0.1405
1089.0,0.1316
1090.0,0.1268
1091.0,0.1389
1092.0,0.1392
1093.0,0.1071
1094.0,0.126
1095.0,0.1119
1096.0,0.1043
1097.0,0.1361
1098.0,0.1008
1099.0,0.1067
1100.0,0.09535
1101.0,0.09811
1102.0,0.0907
1103.0,0.08774
1104.0,0.08822
1105.0,0.1033
1106.0,0.06326
1107.0,0.09529
1108.0,0.07139
1109.0,0.07276
1110.0,0.09205
1111.0,0.04997
1112.0,0.07274
1113.0,0.03508
1114.0,0.03945
1115.0,0.03166
1116.0,0.02014
1117.0,0.003792
1118.0,0.02286
1119.0,0.007673
1120.0,0.009067
1121.0,0.01366
1122.0,0.003347
1123.0,0.008309
1124.0,0.006963
1125.0,0.009985
1126.0,0.00142
1127.0,0.01147
1128.0,0.004271
1129.0,0.004717
1130.0,0.002851
1131.0,0.03059
1132.0,0.02208
1133.0,0.00951
1134.0,0.001065
1135.0,0.000485
1136.0,0.006612
1137.0,0.02823
1138.0,0.01884
1139.0,0.03988
1140.0,0.02867
1141.0,0.01808
1142.0,0.02271
1143.0,0.03774
1144.0,0.008489
1145.0,0.009085
1146.0,0.009764
1147.0,0.001547
1148.0,0.03164
1149.0,0.02215
1150.0,0.01028
1151.0,0.01873
1152.0,0.02676
1153.0,0.02923
1154.0,0.009364
1155.0,0.0415
1156.0,0.03481
1157.0,0.04501
1158.0,0.04429
1159.0,0.05017
1160.0,0.04131
1161.0,0.05832
1162.0,0.0577
1163.0,0.09281
1164.0,0.07439
1165.0,0.06497
1166.0,0.06905
1167.0,0.07767
1168.0,0.07751
1169.0,0.08056
1170.0,0.09232
1171.0,0.08999
1172.0,0.095
1173.0,0.09224
1174.0,0.0558
1175.0,0.0933
1176.0,0.1094
1177.0,0.1002
1178.0,0.0674
1179.0,0.1102
1180.0,0.09107
1181.0,0.09417
1182.0,0.05579
1183.0,0.09415
1184.0,0.08501
1185.0,0.07909
1186.0,0.1037
1187.0,0.09551
1188.0,0.05486
1189.0,0.08856
1190.0,0.1022
1191.0,0.09035
1192.0,0.1043
1193.0,0.09768
1194.0,0.1022
1195.0,0.0921
1196.0,0.08634
1197.0,0.1039
1198.0,0.09338
1199.0,0.07036
1200.0,0.09646
1201.0,0.08954
1202.0,0.09221
1203.0,0.08927
1204.0,0.07458
1205.0,0.09671
1206.0,0.1112
1207.0,0.09049
1208.0,0.09187
1209.0,0.09409
1210.0,0.1002
1211.0,0.09233
1212.0,0.08574
1213.0,0.1049
1214.0,0.08969
1215.0,0.08761
1216.0,0.1052
1217.0,0.1007
1218.0,0.1042
1219.0,0.1017
1220.0,0.1045
1221.0,0.1068
1222.0,0.1033
1223.0,0.1014
1224.0,0.09875
1225.0,0.1056
1226.0,0.1079
1227.0,0.09447
1228.0,0.1095
1229.0,0.1079
1230.0,0.1052
1231.0,0.1114
1232.0,0.1106
1233.0,0.1025
1234.0,0.1123
1235.0,0.1109
1236.0,0.1122
1237.0,0.109
1238.0,0.1119
1239.0,0.1104
1240.0,0.1111
1241.0,0.1094
1242.0,0.1102
1243.0,0.1093
1244.0,0.1097
1245.0,0.1104
1246.0,0.1098
1247.0,0.1091
1248.0,0.1084
1249.0,0.1093
1250.0,0.1082
1251.0,0.1061
1252.0,0.1071
1253.0,0.1045
1254.0,0.1022
1255.0,0.1065
1256.0,0.1004
1257.0,0.09923
1258.0,0.1036
1259.0,0.09509
1260.0,0.09616
1261.0,0.08511
1262.0,0.07971
1263.0,0.07972
1264.0,0.06743
1265.0,0.07931
1266.0,0.0726
1267.0,0.07645
1268.0,0.06847
1269.0,0.02326
1270.0,0.07516
1271.0,0.0856
1272.0,0.08642
1273.0,0.08487
1274.0,0.08602
1275.0,0.08827
1276.0,0.09026
1277.0,0.09239
1278.0,0.09637
1279.0,0.09544
1280.0,0.09434
1281.0,0.09111
1282.0,0.08958
1283.0,0.0961
1284.0,0.09808
1285.0,0.09905
1286.0,0.1014
1287.0,0.09798
1288.0,0.09857
1289.0,0.09185
1290.0,0.09785
1291.0,0.09988
1292.0,0.08753
1293.0,0.09651
1294.0,0.09559
1295.0,0.09284
1296.0,0.08497
1297.0,0.07787
1298.0,0.08952
1299.0,0.09716
1300.0,0.07308
1301.0,0.07674
1302.0,0.08948
1303.0,0.07289
1304.0,0.05433
1305.0,0.08721
1306.0,0.08612
1307.0,0.05834
1308.0,0.0744
1309.0,0.08385
1310.0,0.05637
1311.0,0.0694
1312.0,0.06663
1313.0,0.06305
1314.0,0.05346
1315.0,0.05119
1316.0,0.06675
1317.0,0.06194
1318.0,0.07085
1319.0,0.04607
1320.0,0.04623
1321.0,0.0573
1322.0,0.05603
1323.0,0.03496
1324.0,0.04563
1325.0,0.06448
1326.0,0.05087
1327.0,0.04714
1328.0,0.03799
1329.0,0.02266
1330.0,0.03279
1331.0,0.01416
1332.0,0.01598
1333.0,0.02327
1334.0,0.02382
1335.0,0.03398
1336.0,0.02338
1337.0,0.02013
1338.0,0.0213
1339.0,0.02185
1340.0,0.02297
1341.0,0.0183
1342.0,0.01984
1343.0,0.008221
1344.0,0.005416
1345.0,0.007225
1346.0,0.001688
1347.0,0.001451
1348.0,2.391e-05
1349.0,0.0001109
1350.0,0.0001364
1351.0,1.06e-05
1352.0,1.168e-06
1353.0,5.202e-08
1354.0,2.033e-07
1355.0,1.369e-09
1356.0,2.524e-08
1357.0,3.824e-08
1358.0,1.609e-09
1359.0,2.016e-10
1360.0,7.297e-10
1361.0,8.147e-13
1362.0,2.229e-15
1363.0,9.796e-10
1364.0,4.045e-10
1365.0,7.781e-16
1366.0,4.246e-09
1367.0,1.737e-09
1368.0,6.008e-18
1369.0,1.491e-10
1370.0,7.338e-11
1371.0,4.159e-12
1372.0,9.424e-10
1373.0,1.925e-08
1374.0,9.352e-08
1375.0,1.647e-07
1376.0,1.772e-07
1377.0,7.841e-08
1378.0,7.549e-07
1379.0,3.364e-08
1380.0,4.207e-08
1381.0,1.082e-09
1382.0,8.25e-10
1383.0,1.233e-11
1384.0,1.615e-10
1385.0,7.813e-10
1386.0,7.264e-10
1387.0,8.913e-08
1388.0,1.832e-09
1389.0,3.291e-07
1390.0,2.751e-07
1391.0,1.842e-07
1392.0,1.215e-08
1393.0,6.881e-08
1394.0,3.028e-08
1395.0,2.208e-10
1396.0,1.061e-12
1397.0,2.556e-08
1398.0,7.745e-07
1399.0,5.019e-07
1400.0,4.535e-13
1401.0,1.882e-12
1402.0,3.656e-06
1403.0,3.284e-06
1404.0,8.403e-07
1405.0,1.041e-10
1406.0,1.581e-06
1407.0,2.596e-07
1408.0,1.364e-06
1409.0,3.574e-07
1410.0,3.902e-07
1411.0,3.078e-06
1412.0,6.092e-06
1413.0,0.0001588
1414.0,3.339e-07
1415.0,1.359e-07
1416.0,0.0007595
1417.0,0.0001198
1418.0,7.676e-05
1419.0,1.033e-05
1420.0,4.599e-05
