interpolation:linear
wavelength,value
280.0,1.6789999999999998e-22
280.5,5.56e-21
281.0,2.989e-20
281.5,3.897e-19
282.0,5.839e-19
282.5,1.441e-18
283.0,4.555e-18
283.5,7.42e-18
284.0,1.226e-16
284.5,3.587e-16
285.0,5.938e-16
285.5,2.95e-15
286.0,1.19e-14
286.5,5.364e-14
287.0,1.542e-13
287.5,5.957e-13
288.0,2.114e-12
288.5,6.268e-12
289.0,1.65e-11
289.5,4.945e-11
290.0,1.368e-10
290.5,2.785e-10
291.0,5.974e-10
291.5,1.715e-09
292.0,3.44e-09
292.5,4.822e-09
293.0,1.033e-08
293.5,2.512e-08
294.0,3.928e-08
294.5,5.334e-08
295.0,9.034e-08
295.5,1.496e-07
296.0,2.885e-07
296.5,4.033e-07
297.0,5.453e-07
297.5,1.462e-06
298.0,2.301e-06
298.5,2.312e-06
299.0,5.09e-06
299.5,8.426e-06
300.0,9.242e-06
300.5,1.334e-05
301.0,2.398e-05
301.5,3.789e-05
302.0,3.222e-05
302.5,6.419e-05
303.0,0.0001186
303.5,0.0001534
304.0,0.000149
304.5,0.0002435
305.0,0.0004211
305.5,0.0005253
306.0,0.0005256
306.5,0.0006924
307.0,0.001166
307.5,0.001755
308.0,0.001891
308.5,0.002376
309.0,0.002616
309.5,0.003412
310.0,0.00364
310.5,0.006072
311.0,0.008001
311.5,0.007888
312.0,0.008756
312.5,0.01142
313.0,0.01283
313.5,0.01205
314.0,0.01636
314.5,0.01617
315.0,0.02166
315.5,0.01719
316.0,0.01639
316.5,0.02539
317.0,0.03147
317.5,0.03206
318.0,0.02633
318.5,0.03606
319.0,0.04495
319.5,0.03384
320.0,0.04041
320.5,0.05589
321.0,0.05444
321.5,0.05266
322.0,0.05098
322.5,0.04457
323.0,0.04727
323.5,0.0619
324.0,0.07301
324.5,0.07221
325.0,0.06014
325.5,0.08137
326.0,0.1015
326.5,0.1051
327.0,0.1035
327.5,0.09844
328.0,0.08384
328.5,0.09302
329.0,0.1163
329.5,0.1338
330.0,0.1335
330.5,0.1034
331.0,0.1042
331.5,0.1086
332.0,0.1216
332.5,0.1223
333.0,0.1208
333.5,0.1065
334.0,0.1087
334.5,0.1293
335.0,0.1236
335.5,0.1452
336.0,0.1005
336.5,0.1161
337.0,0.09413
337.5,0.1166
338.0,0.1167
338.5,0.1358
339.0,0.1347
339.5,0.1295
340.0,0.1511
340.5,0.1366
341.0,0.1341
341.5,0.1235
342.0,0.1478
342.5,0.1384
343.0,0.152
343.5,0.143
344.0,0.1052
344.5,0.1067
345.0,0.1417
345.5,0.145
346.0,0.1234
346.5,0.1399
347.0,0.1501
347.5,0.1213
348.0,0.1387
348.5,0.1388
349.0,0.1289
349.5,0.1277
350.0,0.1581
350.5,0.1669
351.0,0.149
351.5,0.1445
352.0,0.1556
352.5,0.1217
353.0,0.1535
353.5,0.1643
354.0,0.1707
354.5,0.1732
355.0,0.1726
355.5,0.1561
356.0,0.1635
356.5,0.1397
357.0,0.1154
357.5,0.1414
358.0,0.1122
358.5,0.09589
359.0,0.1342
359.5,0.1709
360.0,0.1813
360.5,0.145
361.0,0.1324
361.5,0.1526
362.0,0.1322
362.5,0.1832
363.0,0.1647
363.5,0.1519
364.0,0.1859
364.5,0.159
365.0,0.162
365.5,0.2035
366.0,0.2159
366.5,0.203
367.0,0.1979
367.5,0.2055
368.0,0.18
368.5,0.1817
369.0,0.1964
369.5,0.2095
370.0,0.2235
370.5,0.1736
371.0,0.1857
371.5,0.2325
372.0,0.1544
372.5,0.1853
373.0,0.1886
373.5,0.1228
374.0,0.1786
374.5,0.1481
375.0,0.144
375.5,0.2152
376.0,0.1785
376.5,0.1851
377.0,0.1961
377.5,0.2296
378.0,0.249
378.5,0.2355
379.0,0.1944
379.5,0.1777
380.0,0.1848
380.5,0.2241
381.0,0.2248
381.5,0.1784
382.0,0.1586
382.5,0.1354
383.0,0.1255
383.5,0.121
384.0,0.1335
384.5,0.1966
385.0,0.1951
385.5,0.1819
386.0,0.1559
386.5,0.205
387.0,0.1705
387.5,0.1916
388.0,0.177
388.5,0.1752
389.0,0.1892
389.5,0.2294
390.0,0.2304
390.5,0.2122
391.0,0.25
391.5,0.2552
392.0,0.215
392.5,0.1927
393.0,0.1073
393.5,0.0781
394.0,0.159
394.5,0.2024
395.0,0.2471
395.5,0.2512
396.0,0.2179
396.5,0.1275
397.0,0.09581
397.5,0.195
398.0,0.2731
398.5,0.2825
399.0,0.3063
399.5,0.3056
400.0,0.3174
401.0,0.3196
402.0,0.3378
403.0,0.3215
404.0,0.317
405.0,0.3173
406.0,0.3128
407.0,0.3083
408.0,0.3205
409.0,0.3435
410.0,0.3007
411.0,0.3262
412.0,0.3511
413.0,0.3426
414.0,0.3474
415.0,0.3489
416.0,0.3556
417.0,0.3473
418.0,0.3413
419.0,0.3463
420.0,0.3451
421.0,0.3615
422.0,0.344
423.0,0.3364
424.0,0.3561
425.0,0.356
426.0,0.3475
427.0,0.3414
428.0,0.3328
429.0,0.316
430.0,0.2769
431.0,0.2745
432.0,0.355
433.0,0.3574
434.0,0.3321
435.0,0.347
436.0,0.3918
437.0,0.3873
438.0,0.3531
439.0,0.3648
440.0,0.3769
441.0,0.3911
442.0,0.4198
443.0,0.4088
444.0,0.4184
445.0,0.4094
446.0,0.3917
447.0,0.4243
448.0,0.4306
449.0,0.4333
450.0,0.446
451.0,0.4629
452.0,0.4464
453.0,0.4203
454.0,0.4395
455.0,0.4424
456.0,0.4532
457.0,0.4609
458.0,0.4449
459.0,0.4429
460.0,0.4439
461.0,0.4544
462.0,0.4585
463.0,0.4555
464.0,0.449
465.0,0.4443
466.0,0.4493
467.0,0.4409
468.0,0.4462
469.0,0.4486
470.0,0.4342
471.0,0.434
472.0,0.4573
473.0,0.4514
474.0,0.4516
475.0,0.4548
476.0,0.4404
477.0,0.441
478.0,0.4535
479.0,0.4513
480.0,0.4526
481.0,0.4618
482.0,0.4651
483.0,0.4605
484.0,0.4516
485.0,0.4309
486.0,0.3774
487.0,0.3961
488.0,0.4346
489.0,0.4357
490.0,0.4589
491.0,0.4515
492.0,0.4265
493.0,0.4406
494.0,0.4452
495.0,0.4491
496.0,0.4519
497.0,0.4588
498.0,0.4373
499.0,0.4425
500.0,0.4291
501.0,0.4207
502.0,0.4136
503.0,0.4293
504.0,0.4152
505.0,0.4326
506.0,0.4466
507.0,0.4251
508.0,0.4129
509.0,0.4253
510.0,0.4238
511.0,0.4358
512.0,0.4409
513.0,0.4175
514.0,0.4149
515.0,0.4108
516.0,0.4097
517.0,0.3642
518.0,0.3828
519.0,0.4015
520.0,0.4159
521.0,0.4198
522.0,0.4198
523.0,0.4121
524.0,0.4262
525.0,0.4303
526.0,0.4108
527.0,0.3864
528.0,0.4081
529.0,0.4297
530.0,0.4232
531.0,0.4291
532.0,0.4142
533.0,0.4021
534.0,0.4143
535.0,0.4237
536.0,0.428
537.0,0.4115
538.0,0.419
539.0,0.4154
540.0,0.3981
541.0,0.3997
542.0,0.4117
543.0,0.4081
544.0,0.4144
545.0,0.4133
546.0,0.4143
547.0,0.4148
548.0,0.4102
549.0,0.4117
550.0,0.4167
551.0,0.4118
552.0,0.4146
553.0,0.4071
554.0,0.4167
555.0,0.4173
556.0,0.4117
557.0,0.3986
558.0,0.3951
559.0,0.3871
560.0,0.3916
561.0,0.3962
562.0,0.3927
563.0,0.4027
564.0,0.3911
565.0,0.3872
566.0,0.381
567.0,0.3876
568.0,0.3824
569.0,0.37
570.0,0.3703
571.0,0.3689
572.0,0.3755
573.0,0.3791
574.0,0.3774
575.0,0.3696
576.0,0.3663
577.0,0.3706
578.0,0.366
579.0,0.369
580.0,0.3785
581.0,0.3823
582.0,0.3912
583.0,0.3935
584.0,0.3978
585.0,0.3887
586.0,0.3807
587.0,0.3881
588.0,0.3745
589.0,0.3239
590.0,0.3393
591.0,0.3639
592.0,0.3565
593.0,0.3654
594.0,0.3614
595.0,0.3494
596.0,0.3698
597.0,0.364
598.0,0.3651
599.0,0.3663
600.0,0.3685
601.0,0.3667
602.0,0.3645
603.0,0.3711
604.0,0.3776
605.0,0.3761
606.0,0.3753
607.0,0.3798
608.0,0.3763
609.0,0.3776
610.0,0.3757
611.0,0.3781
612.0,0.3774
613.0,0.3731
614.0,0.3686
615.0,0.3773
616.0,0.3654
617.0,0.365
618.0,0.3794
619.0,0.3758
620.0,0.3782
621.0,0.378
622.0,0.3731
623.0,0.367
624.0,0.3612
625.0,0.3604
626.0,0.3655
627.0,0.368
628.0,0.325
629.0,0.3528
630.0,0.344
631.0,0.3581
632.0,0.3551
633.0,0.3685
634.0,0.3671
635.0,0.3739
636.0,0.3702
637.0,0.3772
638.0,0.3823
639.0,0.3788
640.0,0.3761
641.0,0.3765
642.0,0.3756
643.0,0.3808
644.0,0.3804
645.0,0.3805
646.0,0.3694
647.0,0.3597
648.0,0.3604
649.0,0.3526
650.0,0.3611
651.0,0.378
652.0,0.3556
653.0,0.3734
654.0,0.3697
655.0,0.3526
656.0,0.3149
657.0,0.3238
658.0,0.365
659.0,0.3685
660.0,0.3706
661.0,0.3735
662.0,0.373
663.0,0.3661
664.0,0.3723
665.0,0.3741
666.0,0.375
667.0,0.3754
668.0,0.3764
669.0,0.3827
670.0,0.3814
671.0,0.3817
672.0,0.3787
673.0,0.3847
674.0,0.3836
675.0,0.3805
676.0,0.3834
677.0,0.3798
678.0,0.3812
679.0,0.3753
680.0,0.3785
681.0,0.3761
682.0,0.3757
683.0,0.375
684.0,0.3731
685.0,0.3766
686.0,0.374
687.0,0.1726
688.0,0.234
689.0,0.236
690.0,0.2594
691.0,0.2874
692.0,0.31
693.0,0.3068
694.0,0.3062
695.0,0.3289
696.0,0.33
697.0,0.3615
698.0,0.3556
699.0,0.3392
700.0,0.3347
701.0,0.3282
702.0,0.3336
703.0,0.335
704.0,0.3505
705.0,0.3509
706.0,0.3524
707.0,0.3534
708.0,0.354
709.0,0.3578
710.0,0.356
711.0,0.3567
712.0,0.3572
713.0,0.3521
714.0,0.3539
715.0,0.3394
716.0,0.3388
717.0,0.2657
718.0,0.2419
719.0,0.2195
720.0,0.2269
721.0,0.2662
722.0,0.3218
723.0,0.2912
724.0,0.2518
725.0,0.2445
726.0,0.2567
727.0,0.2675
728.0,0.2427
729.0,0.2614
730.0,0.2742
731.0,0.2607
732.0,0.2892
733.0,0.3154
734.0,0.3261
735.0,0.3177
736.0,0.3168
737.0,0.3181
738.0,0.3308
739.0,0.3244
740.0,0.3352
741.0,0.3332
742.0,0.335
743.0,0.3439
744.0,0.3439
745.0,0.3447
746.0,0.3463
747.0,0.3472
748.0,0.3466
749.0,0.3427
750.0,0.3426
751.0,0.3392
752.0,0.3407
753.0,0.3426
754.0,0.3433
755.0,0.3413
756.0,0.3413
757.0,0.3418
758.0,0.3374
759.0,0.3254
760.0,0.01202
761.0,0.004066
762.0,0.09332
763.0,0.02551
764.0,0.05408
765.0,0.09309
766.0,0.1422
767.0,0.2145
768.0,0.2809
769.0,0.295
770.0,0.3145
771.0,0.3213
772.0,0.3234
773.0,0.326
774.0,0.3247
775.0,0.3225
776.0,0.3265
777.0,0.3222
778.0,0.3203
779.0,0.3205
780.0,0.3188
781.0,0.3192
782.0,0.3213
783.0,0.3158
784.0,0.3175
785.0,0.3148
786.0,0.318
787.0,0.3086
788.0,0.303
789.0,0.3028
790.0,0.2897
791.0,0.2973
792.0,0.2959
793.0,0.2906
794.0,0.3006
795.0,0.3043
796.0,0.2878
797.0,0.2875
798.0,0.3031
799.0,0.2999
800.0,0.293
801.0,0.2903
802.0,0.2894
803.0,0.2862
804.0,0.2875
805.0,0.2887
806.0,0.3004
807.0,0.296
808.0,0.2966
809.0,0.2882
810.0,0.2842
811.0,0.2811
812.0,0.2679
813.0,0.2605
814.0,0.2163
815.0,0.216
816.0,0.1993
817.0,0.2037
818.0,0.1931
819.0,0.2267
820.0,0.2098
821.0,0.2618
822.0,0.2516
823.0,0.1468
824.0,0.2379
825.0,0.2574
826.0,0.2421
827.0,0.2611
828.0,0.2054
829.0,0.2418
830.0,0.2375
831.0,0.2383
832.0,0.2281
833.0,0.2499
834.0,0.2363
835.0,0.2714
836.0,0.2515
837.0,0.2722
838.0,0.2596
839.0,0.2686
840.0,0.2756
841.0,0.2699
842.0,0.2732
843.0,0.276
844.0,0.2706
845.0,0.2818
846.0,0.2811
847.0,0.2767
848.0,0.2737
849.0,0.2659
850.0,0.2549
851.0,0.2685
852.0,0.2673
853.0,0.2583
854.0,0.2221
855.0,0.2453
856.0,0.2676
857.0,0.2744
858.0,0.272
859.0,0.2728
860.0,0.2737
861.0,0.2721
862.0,0.2766
863.0,0.2831
864.0,0.269
865.0,0.2668
866.0,0.2399
867.0,0.2504
868.0,0.2725
869.0,0.2669
870.0,0.2746
871.0,0.2708
872.0,0.2699
873.0,0.2694
874.0,0.2662
875.0,0.2608
876.0,0.2634
877.0,0.2662
878.0,0.2688
879.0,0.2648
880.0,0.2591
881.0,0.2546
882.0,0.2598
883.0,0.2613
884.0,0.2599
885.0,0.2618
886.0,0.2472
887.0,0.2516
888.0,0.2544
889.0,0.2592
890.0,0.2546
891.0,0.2554
892.0,0.2448
893.0,0.2343
894.0,0.2195
895.0,0.1994
896.0,0.1859
897.0,0.1508
898.0,0.1687
899.0,0.1187
900.0,0.1786
901.0,0.1243
902.0,0.1587
903.0,0.1556
904.0,0.2176
905.0,0.2074
906.0,0.1916
907.0,0.141
908.0,0.1469
909.0,0.1644
910.0,0.1349
911.0,0.1521
912.0,0.1593
913.0,0.1363
914.0,0.1374
915.0,0.1478
916.0,0.1239
917.0,0.1674
918.0,0.1261
919.0,0.1743
920.0,0.1845
921.0,0.1911
922.0,0.163
923.0,0.1856
924.0,0.1646
925.0,0.1617
926.0,0.1619
927.0,0.1889
928.0,0.1166
929.0,0.1008
930.0,0.07044
931.0,0.06665
932.0,0.03983
933.0,0.02916
934.0,0.01006
935.0,0.03228
936.0,0.01598
937.0,0.01609
938.0,0.02118
939.0,0.06433
940.0,0.08385
941.0,0.05536
942.0,0.06797
943.0,0.03891
944.0,0.04694
945.0,0.05885
946.0,0.0225
947.0,0.05702
948.0,0.04122
949.0,0.08422
950.0,0.01372
951.0,0.08374
952.0,0.03571
953.0,0.05223
954.0,0.07119
955.0,0.05363
956.0,0.06008
957.0,0.03536
958.0,0.09278
959.0,0.06423
960.0,0.07205
961.0,0.08844
962.0,0.08339
963.0,0.1029
964.0,0.0924
965.0,0.1021
966.0,0.1015
967.0,0.1
968.0,0.1621
969.0,0.1648
970.0,0.149
971.0,0.1831
972.0,0.1723
973.0,0.1374
974.0,0.1296
975.0,0.1384
976.0,0.1243
977.0,0.1565
978.0,0.1424
979.0,0.1525
980.0,0.1417
981.0,0.1823
982.0,0.1697
983.0,0.1604
984.0,0.1939
985.0,0.1687
986.0,0.2011
987.0,0.1931
988.0,0.1931
989.0,0.203
990.0,0.1918
991.0,0.2032
992.0,0.2048
993.0,0.1961
994.0,0.2052
995.0,0.2056
996.0,0.204
997.0,0.2047
998.0,0.2034
999.0,0.2029
1000.0,0.2004
1001.0,0.2041
1002.0,0.1941
1003.0,0.2002
1004.0,0.1942
1005.0,0.1886
1006.0,0.1953
1007.0,0.1998
1008.0,0.1979
1009.0,0.196
1010.0,0.1947
1011.0,0.1989
1012.0,0.1963
1013.0,0.1986
1014.0,0.1972
1015.0,0.1958
1016.0,0.1948
1017.0,0.1951
1018.0,0.195
1019.0,0.1891
1020.0,0.1937
1021.0,0.1937
1022.0,0.1916
1023.0,0.1935
1024.0,0.1893
1025.0,0.194
1026.0,0.1927
1027.0,0.1923
1028.0,0.1918
1029.0,0.1894
1030.0,0.1913
1031.0,0.1903
1032.0,0.1899
1033.0,0.187
1034.0,0.1871
1035.0,0.1877
1036.0,0.1884
1037.0,0.1854
1038.0,0.1862
1039.0,0.186
1040.0,0.1852
1041.0,0.1858
1042.0,0.1844
1043.0,0.1838
1044.0,0.1843
1045.0,0.1817
1046.0,0.1796
1047.0,0.1811
1048.0,0.1819
1049.0,0.1811
1050.0,0.1802
1051.0,0.1797
1052.0,0.1788
1053.0,0.1772
1054.0,0.1773
1055.0,0.1772
1056.0,0.1763
1057.0,0.1755
1058.0,0.1709
1059.0,0.1708
1060.0,0.1704
1061.0,0.1701
1062.0,0.1707
1063.0,0.1688
1064.0,0.1709
1065.0,0.169
1066.0,0.1662
1067.0,0.1681
1068.0,0.164
1069.0,0.1593
1070.0,0.1643
1071.0,0.1684
1072.0,0.1653
1073.0,0.1631
1074.0,0.1691
1075.0,0.1564
1076.0,0.1687
1077.0,0.1634
1078.0,0.1591
1079.0,0.1668
1080.0,0.1609
1081.0,0.1535
1082.0,0.1596
1083.0,0.1611
1084.0,0.1524
1085.0,0.1616
1086.0,0.142
1087.0,0.1501
1088.0,0.1603
1089.0,0.1512
1090.0,0.146
1091.0,0.1587
1092.0,0.159
1093.0,0.1244
1094.0,0.1442
1095.0,0.1299
1096.0,0.1216
1097.0,0.1554
1098.0,0.1181
1099.0,0.1247
1100.0,0.1121
1101.0,0.1149
1102.0,0.1069
1103.0,0.1039
1104.0,0.1043
1105.0,0.1209
1106.0,0.07684
1107.0,0.112
1108.0,0.08563
1109.0,0.08719
1110.0,0.1088
1111.0,0.06153
1112.0,0.08709
1113.0,0.04409
1114.0,0.04963
1115.0,0.04018
1116.0,0.0266
1117.0,0.005587
1118.0,0.03008
1119.0,0.01083
1120.0,0.01299
1121.0,0.01919
1122.0,0.005209
1123.0,0.01189
1124.0,0.009979
1125.0,0.01403
1126.0,0.002365
1127.0,0.01609
1128.0,0.006536
1129.0,0.007184
1130.0,0.004311
1131.0,0.04025
1132.0,0.02953
1133.0,0.01366
1134.0,0.001773
1135.0,0.0007764
1136.0,0.009842
1137.0,0.03748
1138.0,0.02536
1139.0,0.05028
1140.0,0.03714
1141.0,0.02427
1142.0,0.03002
1143.0,0.04831
1144.0,0.01176
1145.0,0.01312
1146.0,0.0141
1147.0,0.002589
1148.0,0.04088
1149.0,0.02929
1150.0,0.01383
1151.0,0.02518
1152.0,0.035
1153.0,0.03745
1154.0,0.01319
1155.0,0.05231
1156.0,0.04445
1157.0,0.05572
1158.0,0.05488
1159.0,0.06184
1160.0,0.0509
1161.0,0.07026
1162.0,0.06974
1163.0,0.1088
1164.0,0.08819
1165.0,0.078
1166.0,0.08188
1167.0,0.09163
1168.0,0.09154
1169.0,0.095
1170.0,0.1079
1171.0,0.1051
1172.0,0.1102
1173.0,0.1078
1174.0,0.06693
1175.0,0.1082
1176.0,0.1255
1177.0,0.1159
1178.0,0.07932
1179.0,0.1265
1180.0,0.1059
1181.0,0.1095
1182.0,0.06665
1183.0,0.1092
1184.0,0.09929
1185.0,0.09297
1186.0,0.1198
1187.0,0.111
1188.0,0.06604
1189.0,0.103
1190.0,0.1178
1191.0,0.1055
1192.0,0.1201
1193.0,0.1129
1194.0,0.1178
1195.0,0.1071
1196.0,0.1009
1197.0,0.1195
1198.0,0.1076
1199.0,0.0829
1200.0,0.1114
1201.0,0.1042
1202.0,0.1065
1203.0,0.1037
1204.0,0.08729
1205.0,0.1113
1206.0,0.1271
1207.0,0.1049
1208.0,0.1059
1209.0,0.1084
1210.0,0.115
1211.0,0.1065
1212.0,0.1002
1213.0,0.1205
1214.0,0.1044
1215.0,0.102
1216.0,0.1207
1217.0,0.1159
1218.0,0.1195
1219.0,0.117
1220.0,0.1199
1221.0,0.1221
1222.0,0.1183
1223.0,0.1164
1224.0,0.1138
1225.0,0.121
1226.0,0.1232
1227.0,0.109
1228.0,0.1248
1229.0,0.1232
1230.0,0.1203
1231.0,0.1267
1232.0,0.1259
1233.0,0.1175
1234.0,0.1275
1235.0,0.1261
1236.0,0.1275
1237.0,0.1241
1238.0,0.1271
1239.0,0.1254
1240.0,0.1261
1241.0,0.1245
1242.0,0.1251
1243.0,0.1242
1244.0,0.1247
1245.0,0.1254
1246.0,0.1248
1247.0,0.124
1248.0,0.1233
1249.0,0.1242
1250.0,0.1231
1251.0,0.1209
1252.0,0.1218
1253.0,0.1192
1254.0,0.1169
1255.0,0.1212
1256.0,0.115
1257.0,0.1138
1258.0,0.1182
1259.0,0.1096
1260.0,0.1107
1261.0,0.09928
1262.0,0.09366
1263.0,0.0937
1264.0,0.08069
1265.0,0.0932
1266.0,0.08619
1267.0,0.09013
1268.0,0.08167
1269.0,0.03138
1270.0,0.08885
1271.0,0.09963
1272.0,0.1005
1273.0,0.09884
1274.0,0.09996
1275.0,0.1023
1276.0,0.1044
1277.0,0.1064
1278.0,0.1105
1279.0,0.1094
1280.0,0.1082
1281.0,0.1042
1282.0,0.102
1283.0,0.1096
1284.0,0.1119
1285.0,0.1129
1286.0,0.1153
1287.0,0.1119
1288.0,0.1124
1289.0,0.1055
1290.0,0.1116
1291.0,0.1137
1292.0,0.101
1293.0,0.1102
1294.0,0.1092
1295.0,0.1066
1296.0,0.09831
1297.0,0.0906
1298.0,0.1029
1299.0,0.1108
1300.0,0.0851
1301.0,0.08913
1302.0,0.1028
1303.0,0.08478
1304.0,0.0647
1305.0,0.1003
1306.0,0.0993
1307.0,0.0689
1308.0,0.08626
1309.0,0.0971
1310.0,0.06682
1311.0,0.08086
1312.0,0.07772
1313.0,0.07417
1314.0,0.06358
1315.0,0.06115
1316.0,0.07809
1317.0,0.0728
1318.0,0.08248
1319.0,0.05545
1320.0,0.05538
1321.0,0.06778
1322.0,0.0667
1323.0,0.04313
1324.0,0.05479
1325.0,0.07584
1326.0,0.06069
1327.0,0.05657
1328.0,0.04624
1329.0,0.02885
1330.0,0.04076
1331.0,0.01877
1332.0,0.0209
1333.0,0.03016
1334.0,0.02965
1335.0,0.04224
1336.0,0.02986
1337.0,0.02569
1338.0,0.02734
1339.0,0.02795
1340.0,0.02895
1341.0,0.02404
1342.0,0.02585
1343.0,0.0117
1344.0,0.00757
1345.0,0.01037
1346.0,0.002786
1347.0,0.00248
1348.0,4.878e-05
1349.0,0.0002249
1350.0,0.0002768
1351.0,2.302e-05
1352.0,1.885e-06
1353.0,6.448e-08
1354.0,3.138e-07
1355.0,1.423e-09
1356.0,3.131e-08
1357.0,4.723e-08
1358.0,1.681e-09
1359.0,2.03e-10
1360.0,7.449e-10
1361.0,8.181e-13
1362.0,2.238e-15
1363.0,9.874e-10
1364.0,4.088e-10
1365.0,7.812e-16
1366.0,4.296e-09
1367.0,1.781e-09
1368.0,6.032e-18
1369.0,1.507e-10
1370.0,7.384e-11
1371.0,4.179e-12
1372.0,9.698e-10
1373.0,2.126e-08
1374.0,1.193e-07
1375.0,1.963e-07
1376.0,2.849e-07
1377.0,1.207e-07
1378.0,1.191e-06
1379.0,5.281e-08
1380.0,5.433e-08
1381.0,1.333e-09
1382.0,8.436e-10
1383.0,1.253e-11
1384.0,1.628e-10
1385.0,8.411e-10
1386.0,7.35e-10
1387.0,9.871e-08
1388.0,2.264e-09
1389.0,4.639e-07
1390.0,3.717e-07
1391.0,2.484e-07
1392.0,1.652e-08
1393.0,1.045e-07
1394.0,3.275e-08
1395.0,2.309e-10
1396.0,1.065e-12
1397.0,3.548e-08
1398.0,1.174e-06
1399.0,7.863e-07
1400.0,4.553e-13
1401.0,1.89e-12
1402.0,7.984e-06
1403.0,7.122e-06
1404.0,1.799e-06
1405.0,1.064e-10
1406.0,2.927e-06
1407.0,5.43e-07
1408.0,2.626e-06
1409.0,5.31e-07
1410.0,7.447e-07
1411.0,6.737e-06
1412.0,1.344e-05
1413.0,0.0003369
1414.0,6.593e-07
1415.0,2.471e-07
1416.0,0.001323
1417.0,0.0002244
1418.0,0.0001657
1419.0,2.255e-05
1420.0,9.939e-05
1421.0,0.0001522
1422.0,0.001718
1423.0,0.0003032
1424.0,0.0006847
1425.0,0.0007897
1426.0,0.001303
1427.0,0.003132
