interpolation:linear
wavelength,value
280.0,3.808e-21
280.5,1.184e-19
281.0,6.231e-19
281.5,4.125e-19
282.0,1.167e-18
282.5,3.052e-18
283.0,9.829e-18
283.5,1.606e-17
284.0,2.592e-16
284.5,7.452e-16
285.0,1.648e-15
285.5,8.115e-15
286.0,3.255e-14
286.5,1.439e-13
287.0,4.075e-13
287.5,1.541e-12
288.0,4.003e-12
288.5,1.354e-11
289.0,3.899e-11
289.5,1.249e-10
290.0,3.598e-10
290.5,7.529e-10
291.0,1.657e-09
291.5,5.097e-09
292.0,1.117e-08
292.5,1.701e-08
293.0,4.05e-08
293.5,1.139e-07
294.0,1.977e-07
294.5,2.563e-07
295.0,4.818e-07
295.5,1.297e-06
296.0,2.599e-06
296.5,3.788e-06
297.0,5.317e-06
297.5,1.512e-05
298.0,2.514e-05
298.5,2.644e-05
299.0,6.099e-05
299.5,0.00011
300.0,0.0001273
300.5,0.000195
301.0,0.00039
301.5,0.0006929
302.0,0.0006334
302.5,0.001245
303.0,0.002252
303.5,0.002849
304.0,0.002684
304.5,0.00403
305.0,0.006153
305.5,0.007074
306.0,0.006858
306.5,0.008558
307.0,0.01274
307.5,0.01699
308.0,0.01796
308.5,0.02123
309.0,0.02088
309.5,0.02389
310.0,0.024
310.5,0.03888
311.0,0.0488
311.5,0.04712
312.0,0.04709
312.5,0.05728
313.0,0.06212
313.5,0.06035
314.0,0.07541
314.5,0.06679
315.0,0.08777
315.5,0.07349
316.0,0.06411
316.5,0.09197
317.0,0.1142
317.5,0.1189
318.0,0.09271
318.5,0.1149
319.0,0.1362
319.5,0.1113
320.0,0.1345
320.5,0.168
321.0,0.1493
321.5,0.1431
322.0,0.1529
322.5,0.133
323.0,0.1323
323.5,0.1624
324.0,0.1895
324.5,0.1926
325.0,0.1665
325.5,0.2139
326.0,0.2615
326.5,0.2616
327.0,0.2609
327.5,0.2522
328.0,0.2249
328.5,0.236
329.0,0.2821
329.5,0.3201
330.0,0.3231
330.5,0.259
331.0,0.264
331.5,0.2681
332.0,0.2893
332.5,0.286
333.0,0.2854
333.5,0.2586
334.0,0.265
334.5,0.3055
335.0,0.2869
335.5,0.3352
336.0,0.232
336.5,0.2718
337.0,0.2231
337.5,0.2777
338.0,0.2709
338.5,0.3127
339.0,0.3095
339.5,0.2978
340.0,0.3501
340.5,0.3156
341.0,0.3078
341.5,0.2827
342.0,0.3379
342.5,0.3162
343.0,0.3479
343.5,0.3276
344.0,0.2422
344.5,0.2446
345.0,0.3238
345.5,0.3307
346.0,0.2811
346.5,0.3184
347.0,0.3419
347.5,0.2765
348.0,0.3153
348.5,0.3152
349.0,0.2925
349.5,0.2897
350.0,0.3584
350.5,0.3781
351.0,0.3379
351.5,0.3284
352.0,0.3528
352.5,0.2754
353.0,0.347
353.5,0.3711
354.0,0.3854
354.5,0.3909
355.0,0.3897
355.5,0.3521
356.0,0.3685
356.5,0.3147
357.0,0.2601
357.5,0.3184
358.0,0.2524
358.5,0.2158
359.0,0.3018
359.5,0.3847
360.0,0.4079
360.5,0.3261
361.0,0.2974
361.5,0.3425
362.0,0.2963
362.5,0.4102
363.0,0.3686
363.5,0.3396
364.0,0.4155
364.5,0.3552
365.0,0.3618
365.5,0.4543
366.0,0.4814
366.5,0.4525
367.0,0.4408
367.5,0.4575
368.0,0.4005
368.5,0.4042
369.0,0.4366
369.5,0.4655
370.0,0.4964
370.5,0.3854
371.0,0.4119
371.5,0.5154
372.0,0.3422
372.5,0.4104
373.0,0.4176
373.5,0.2718
374.0,0.395
374.5,0.3272
375.0,0.3181
375.5,0.4751
376.0,0.3939
376.5,0.4083
377.0,0.4324
377.5,0.506
378.0,0.5486
378.5,0.5186
379.0,0.4281
379.5,0.3911
380.0,0.4067
380.5,0.4927
381.0,0.4939
381.5,0.3917
382.0,0.348
382.5,0.2967
383.0,0.2748
383.5,0.2647
384.0,0.2921
384.5,0.4298
385.0,0.4263
385.5,0.3971
386.0,0.3402
386.5,0.447
387.0,0.3715
387.5,0.4174
388.0,0.3855
388.5,0.3811
389.0,0.4115
389.5,0.4986
390.0,0.5005
390.5,0.4607
391.0,0.5424
391.5,0.5534
392.0,0.4662
392.5,0.4175
393.0,0.2324
393.5,0.1689
394.0,0.3439
394.5,0.4373
395.0,0.5337
395.5,0.5423
396.0,0.4703
396.5,0.275
397.0,0.2064
397.5,0.4199
398.0,0.5881
398.5,0.608
399.0,0.6586
399.5,0.6566
400.0,0.6819
401.0,0.6914
402.0,0.7298
403.0,0.6936
404.0,0.6831
405.0,0.6833
406.0,0.6725
407.0,0.6619
408.0,0.6879
409.0,0.7366
410.0,0.6438
411.0,0.6977
412.0,0.7496
413.0,0.7312
414.0,0.7405
415.0,0.7427
416.0,0.756
417.0,0.7376
418.0,0.7242
419.0,0.7339
420.0,0.7309
421.0,0.7649
422.0,0.7272
423.0,0.7106
424.0,0.7517
425.0,0.7505
426.0,0.7314
427.0,0.7179
428.0,0.6995
429.0,0.6628
430.0,0.5802
431.0,0.5751
432.0,0.7428
433.0,0.7471
434.0,0.6939
435.0,0.7247
436.0,0.8169
437.0,0.8061
438.0,0.7343
439.0,0.7594
440.0,0.7838
441.0,0.8124
442.0,0.8714
443.0,0.8488
444.0,0.8674
445.0,0.8487
446.0,0.8102
447.0,0.8762
448.0,0.8898
449.0,0.8936
450.0,0.9188
451.0,0.953
452.0,0.9184
453.0,0.8639
454.0,0.9021
455.0,0.9077
456.0,0.9294
457.0,0.9449
458.0,0.9127
459.0,0.9081
460.0,0.9105
461.0,0.9316
462.0,0.9389
463.0,0.9325
464.0,0.9173
465.0,0.9059
466.0,0.9149
467.0,0.8982
468.0,0.9088
469.0,0.9136
470.0,0.8845
471.0,0.8834
472.0,0.9309
473.0,0.9188
474.0,0.9201
475.0,0.9278
476.0,0.9
477.0,0.9024
478.0,0.9276
479.0,0.922
480.0,0.9239
481.0,0.9413
482.0,0.9464
483.0,0.9351
484.0,0.9161
485.0,0.8729
486.0,0.7632
487.0,0.7999
488.0,0.8776
489.0,0.8803
490.0,0.9262
491.0,0.9103
492.0,0.8597
493.0,0.8879
494.0,0.8968
495.0,0.9045
496.0,0.9101
497.0,0.9242
498.0,0.881
499.0,0.8922
500.0,0.8662
501.0,0.8502
502.0,0.8381
503.0,0.872
504.0,0.8493
505.0,0.8802
506.0,0.9087
507.0,0.8647
508.0,0.8379
509.0,0.8615
510.0,0.8571
511.0,0.8802
512.0,0.8898
513.0,0.8422
514.0,0.8365
515.0,0.8282
516.0,0.8262
517.0,0.7341
518.0,0.7718
519.0,0.8095
520.0,0.839
521.0,0.8469
522.0,0.8476
523.0,0.8323
524.0,0.862
525.0,0.8721
526.0,0.833
527.0,0.7848
528.0,0.83
529.0,0.8748
530.0,0.8622
531.0,0.8749
532.0,0.8448
533.0,0.8201
534.0,0.8444
535.0,0.8629
536.0,0.8709
537.0,0.8366
538.0,0.8514
539.0,0.8442
540.0,0.8094
541.0,0.8146
542.0,0.84
543.0,0.8313
544.0,0.8456
545.0,0.843
546.0,0.8466
547.0,0.8463
548.0,0.8363
549.0,0.8388
550.0,0.8488
551.0,0.8385
552.0,0.8444
553.0,0.8292
554.0,0.8491
555.0,0.8507
556.0,0.8396
557.0,0.8135
558.0,0.8073
559.0,0.7921
560.0,0.802
561.0,0.8123
562.0,0.8063
563.0,0.8282
564.0,0.8055
565.0,0.7985
566.0,0.7867
567.0,0.8015
568.0,0.794
569.0,0.7745
570.0,0.7744
571.0,0.7699
572.0,0.788
573.0,0.7963
574.0,0.7937
575.0,0.7787
576.0,0.7716
577.0,0.7801
578.0,0.7686
579.0,0.7719
580.0,0.787
581.0,0.7914
582.0,0.8067
583.0,0.8089
584.0,0.8161
585.0,0.7963
586.0,0.7799
587.0,0.7968
588.0,0.7766
589.0,0.6865
590.0,0.7181
591.0,0.7608
592.0,0.7507
593.0,0.7625
594.0,0.7569
595.0,0.7377
596.0,0.768
597.0,0.7594
598.0,0.7578
599.0,0.7586
600.0,0.7601
601.0,0.7541
602.0,0.749
603.0,0.7615
604.0,0.7742
605.0,0.7703
606.0,0.7672
607.0,0.775
608.0,0.7665
609.0,0.768
610.0,0.7626
611.0,0.7667
612.0,0.7645
613.0,0.755
614.0,0.7448
615.0,0.7611
616.0,0.7361
617.0,0.7347
618.0,0.763
619.0,0.7553
620.0,0.7601
621.0,0.7608
622.0,0.7517
623.0,0.7402
624.0,0.7276
625.0,0.726
626.0,0.7367
627.0,0.7446
628.0,0.6919
629.0,0.7258
630.0,0.709
631.0,0.7262
632.0,0.7177
633.0,0.74
634.0,0.7332
635.0,0.7448
636.0,0.7352
637.0,0.7474
638.0,0.7548
639.0,0.7465
640.0,0.7394
641.0,0.7391
642.0,0.7359
643.0,0.7458
644.0,0.7435
645.0,0.7447
646.0,0.7269
647.0,0.7173
648.0,0.7179
649.0,0.7039
650.0,0.7085
651.0,0.7395
652.0,0.7074
653.0,0.7297
654.0,0.7217
655.0,0.6942
656.0,0.6157
657.0,0.6324
658.0,0.7091
659.0,0.7143
660.0,0.7174
661.0,0.7224
662.0,0.7237
663.0,0.7095
664.0,0.7182
665.0,0.7191
666.0,0.7197
667.0,0.7192
668.0,0.7197
669.0,0.7309
670.0,0.7278
671.0,0.7277
672.0,0.7215
673.0,0.7324
674.0,0.7297
675.0,0.7232
676.0,0.7282
677.0,0.721
678.0,0.7231
679.0,0.7115
680.0,0.7172
681.0,0.7125
682.0,0.7116
683.0,0.7102
684.0,0.7067
685.0,0.7128
686.0,0.7085
687.0,0.4551
688.0,0.5405
689.0,0.5427
690.0,0.5717
691.0,0.6045
692.0,0.6287
693.0,0.6234
694.0,0.6182
695.0,0.6457
696.0,0.6467
697.0,0.6886
698.0,0.6778
699.0,0.6601
700.0,0.652
701.0,0.6449
702.0,0.65
703.0,0.6512
704.0,0.673
705.0,0.674
706.0,0.6738
707.0,0.6744
708.0,0.6758
709.0,0.6774
710.0,0.677
711.0,0.6763
712.0,0.6746
713.0,0.6675
714.0,0.6701
715.0,0.6484
716.0,0.6486
717.0,0.5569
718.0,0.5107
719.0,0.4673
720.0,0.489
721.0,0.5432
722.0,0.6252
723.0,0.5801
724.0,0.5205
725.0,0.5113
726.0,0.5356
727.0,0.5446
728.0,0.5098
729.0,0.5309
730.0,0.5617
731.0,0.5368
732.0,0.5763
733.0,0.612
734.0,0.6271
735.0,0.6139
736.0,0.6131
737.0,0.6155
738.0,0.6263
739.0,0.614
740.0,0.6304
741.0,0.6244
742.0,0.6253
743.0,0.6413
744.0,0.6396
745.0,0.6399
746.0,0.6428
747.0,0.6442
748.0,0.6429
749.0,0.6356
750.0,0.6352
751.0,0.6288
752.0,0.6315
753.0,0.6347
754.0,0.6361
755.0,0.6325
756.0,0.6323
757.0,0.6332
758.0,0.6253
759.0,0.6117
760.0,0.08736
761.0,0.04331
762.0,0.2958
763.0,0.1386
764.0,0.2163
765.0,0.2958
766.0,0.3712
767.0,0.4767
768.0,0.5571
769.0,0.5704
770.0,0.5915
771.0,0.5971
772.0,0.5986
773.0,0.6028
774.0,0.6
775.0,0.5955
776.0,0.6027
777.0,0.5948
778.0,0.5912
779.0,0.5917
780.0,0.5884
781.0,0.589
782.0,0.5927
783.0,0.5824
784.0,0.5852
785.0,0.5808
786.0,0.5872
787.0,0.5762
788.0,0.5687
789.0,0.5684
790.0,0.5523
791.0,0.558
792.0,0.5541
793.0,0.545
794.0,0.5554
795.0,0.5645
796.0,0.5457
797.0,0.5464
798.0,0.5636
799.0,0.5598
800.0,0.5497
801.0,0.5477
802.0,0.5461
803.0,0.5418
804.0,0.5427
805.0,0.5414
806.0,0.5573
807.0,0.5504
808.0,0.551
809.0,0.5401
810.0,0.5353
811.0,0.5353
812.0,0.519
813.0,0.5077
814.0,0.4436
815.0,0.4411
816.0,0.4101
817.0,0.418
818.0,0.4016
819.0,0.4516
820.0,0.4243
821.0,0.4997
822.0,0.4848
823.0,0.3239
824.0,0.4694
825.0,0.4909
826.0,0.4712
827.0,0.4984
828.0,0.4191
829.0,0.4685
830.0,0.4621
831.0,0.4638
832.0,0.4489
833.0,0.4793
834.0,0.4612
835.0,0.5092
836.0,0.4858
837.0,0.5108
838.0,0.494
839.0,0.5032
840.0,0.5145
841.0,0.5068
842.0,0.5085
843.0,0.5088
844.0,0.5014
845.0,0.5187
846.0,0.5165
847.0,0.5071
848.0,0.5037
849.0,0.4894
850.0,0.4689
851.0,0.4962
852.0,0.4928
853.0,0.4746
854.0,0.4096
855.0,0.4503
856.0,0.4919
857.0,0.5031
858.0,0.4993
859.0,0.4999
860.0,0.5008
861.0,0.4981
862.0,0.5059
863.0,0.5179
864.0,0.492
865.0,0.4877
866.0,0.4386
867.0,0.4577
868.0,0.498
869.0,0.4877
870.0,0.5016
871.0,0.4948
872.0,0.4931
873.0,0.4921
874.0,0.4862
875.0,0.4764
876.0,0.4813
877.0,0.4862
878.0,0.4914
879.0,0.4839
880.0,0.4735
881.0,0.4663
882.0,0.4763
883.0,0.4779
884.0,0.4757
885.0,0.4793
886.0,0.4562
887.0,0.4615
888.0,0.468
889.0,0.4738
890.0,0.4693
891.0,0.4688
892.0,0.4545
893.0,0.4394
894.0,0.4223
895.0,0.397
896.0,0.3732
897.0,0.3179
898.0,0.3483
899.0,0.2618
900.0,0.3584
901.0,0.2744
902.0,0.3263
903.0,0.3281
904.0,0.4191
905.0,0.4039
906.0,0.3772
907.0,0.3023
908.0,0.309
909.0,0.3366
910.0,0.2942
911.0,0.3158
912.0,0.3308
913.0,0.2984
914.0,0.2965
915.0,0.3215
916.0,0.2713
917.0,0.348
918.0,0.278
919.0,0.3554
920.0,0.3611
921.0,0.3758
922.0,0.3334
923.0,0.3632
924.0,0.3413
925.0,0.3339
926.0,0.3373
927.0,0.3803
928.0,0.2715
929.0,0.2458
930.0,0.1899
931.0,0.1803
932.0,0.1264
933.0,0.101
934.0,0.05176
935.0,0.1048
936.0,0.06311
937.0,0.06372
938.0,0.07927
939.0,0.1746
940.0,0.2126
941.0,0.1571
942.0,0.1839
943.0,0.1184
944.0,0.1271
945.0,0.1627
946.0,0.07928
947.0,0.1625
948.0,0.1189
949.0,0.221
950.0,0.05617
951.0,0.2182
952.0,0.1126
953.0,0.1485
954.0,0.1855
955.0,0.1506
956.0,0.1485
957.0,0.1124
958.0,0.2149
959.0,0.1668
960.0,0.187
961.0,0.213
962.0,0.2012
963.0,0.2346
964.0,0.214
965.0,0.2339
966.0,0.2333
967.0,0.232
968.0,0.3208
969.0,0.3341
970.0,0.3056
971.0,0.3541
972.0,0.3379
973.0,0.2899
974.0,0.2746
975.0,0.2867
976.0,0.2699
977.0,0.3118
978.0,0.2942
979.0,0.3095
980.0,0.2902
981.0,0.3522
982.0,0.3352
983.0,0.3209
984.0,0.3647
985.0,0.3339
986.0,0.3722
987.0,0.3637
988.0,0.3631
989.0,0.3718
990.0,0.3609
991.0,0.3728
992.0,0.3751
993.0,0.3655
994.0,0.3751
995.0,0.3748
996.0,0.3729
997.0,0.3736
998.0,0.3718
999.0,0.3705
1000.0,0.3675
1001.0,0.3725
1002.0,0.361
1003.0,0.3658
1004.0,0.3565
1005.0,0.3439
1006.0,0.3571
1007.0,0.3648
1008.0,0.3626
1009.0,0.3604
1010.0,0.3588
1011.0,0.363
1012.0,0.3596
1013.0,0.3622
1014.0,0.3596
1015.0,0.3572
1016.0,0.3556
1017.0,0.3565
1018.0,0.3553
1019.0,0.3472
1020.0,0.3533
1021.0,0.3529
1022.0,0.35
1023.0,0.3537
1024.0,0.3486
1025.0,0.3536
1026.0,0.352
1027.0,0.3512
1028.0,0.3504
1029.0,0.3462
1030.0,0.3488
1031.0,0.3473
1032.0,0.3463
1033.0,0.3411
1034.0,0.3412
1035.0,0.3422
1036.0,0.3439
1037.0,0.3384
1038.0,0.3398
1039.0,0.3396
1040.0,0.3382
1041.0,0.3395
1042.0,0.3372
1043.0,0.3361
1044.0,0.3372
1045.0,0.3326
1046.0,0.3289
1047.0,0.3318
1048.0,0.3336
1049.0,0.3324
1050.0,0.3308
1051.0,0.3303
1052.0,0.3289
1053.0,0.3262
1054.0,0.3269
1055.0,0.327
1056.0,0.3258
1057.0,0.3247
1058.0,0.3166
1059.0,0.3169
1060.0,0.3164
1061.0,0.316
1062.0,0.3175
1063.0,0.3144
1064.0,0.3181
1065.0,0.3156
1066.0,0.3095
1067.0,0.3135
1068.0,0.3065
1069.0,0.2971
1070.0,0.3071
1071.0,0.3123
1072.0,0.3084
1073.0,0.304
1074.0,0.3123
1075.0,0.2954
1076.0,0.312
1077.0,0.3057
1078.0,0.2996
1079.0,0.3072
1080.0,0.301
1081.0,0.2907
1082.0,0.2965
1083.0,0.2977
1084.0,0.2897
1085.0,0.3018
1086.0,0.2735
1087.0,0.2836
1088.0,0.2971
1089.0,0.2868
1090.0,0.2797
1091.0,0.2958
1092.0,0.2953
1093.0,0.2469
1094.0,0.2698
1095.0,0.2576
1096.0,0.2456
1097.0,0.2885
1098.0,0.2414
1099.0,0.2523
1100.0,0.2331
1101.0,0.2365
1102.0,0.2249
1103.0,0.222
1104.0,0.2224
1105.0,0.2463
1106.0,0.1825
1107.0,0.2328
1108.0,0.1938
1109.0,0.1949
1110.0,0.2302
1111.0,0.1515
1112.0,0.1936
1113.0,0.1185
1114.0,0.1329
1115.0,0.1099
1116.0,0.08498
1117.0,0.02833
1118.0,0.09337
1119.0,0.04391
1120.0,0.05506
1121.0,0.07452
1122.0,0.0293
1123.0,0.04987
1124.0,0.04206
1125.0,0.05546
1126.0,0.0173
1127.0,0.06275
1128.0,0.03532
1129.0,0.03777
1130.0,0.0241
1131.0,0.1245
1132.0,0.09664
1133.0,0.05825
1134.0,0.01331
1135.0,0.005084
1136.0,0.04755
1137.0,0.1213
1138.0,0.08487
1139.0,0.1325
1140.0,0.1085
1141.0,0.08071
1142.0,0.09403
1143.0,0.136
1144.0,0.04469
1145.0,0.05624
1146.0,0.06062
1147.0,0.01926
1148.0,0.1175
1149.0,0.0921
1150.0,0.04842
1151.0,0.08419
1152.0,0.1057
1153.0,0.1046
1154.0,0.05429
1155.0,0.1381
1156.0,0.1232
1157.0,0.1402
1158.0,0.1387
1159.0,0.151
1160.0,0.1276
1161.0,0.1604
1162.0,0.1609
1163.0,0.2225
1164.0,0.189
1165.0,0.1765
1166.0,0.1766
1167.0,0.1933
1168.0,0.195
1169.0,0.2002
1170.0,0.2191
1171.0,0.2135
1172.0,0.2182
1173.0,0.2186
1174.0,0.1526
1175.0,0.2143
1176.0,0.2374
1177.0,0.2267
1178.0,0.1676
1179.0,0.2394
1180.0,0.2117
1181.0,0.2186
1182.0,0.148
1183.0,0.2156
1184.0,0.2012
1185.0,0.1933
1186.0,0.2319
1187.0,0.22
1188.0,0.1501
1189.0,0.2048
1190.0,0.2267
1191.0,0.2137
1192.0,0.2301
1193.0,0.2199
1194.0,0.227
1195.0,0.2137
1196.0,0.2052
1197.0,0.2277
1198.0,0.2076
1199.0,0.1744
1200.0,0.2171
1201.0,0.2086
1202.0,0.208
1203.0,0.206
1204.0,0.179
1205.0,0.2134
1206.0,0.2369
1207.0,0.2071
1208.0,0.2045
1209.0,0.2089
1210.0,0.2181
1211.0,0.2069
1212.0,0.2034
1213.0,0.2286
1214.0,0.2087
1215.0,0.2046
1216.0,0.228
1217.0,0.2215
1218.0,0.2261
1219.0,0.2231
1220.0,0.2263
1221.0,0.2288
1222.0,0.2227
1223.0,0.2204
1224.0,0.2187
1225.0,0.2273
1226.0,0.2291
1227.0,0.2103
1228.0,0.2305
1229.0,0.2292
1230.0,0.2251
1231.0,0.2321
1232.0,0.2307
1233.0,0.2219
1234.0,0.2321
1235.0,0.2305
1236.0,0.2323
1237.0,0.2287
1238.0,0.2315
1239.0,0.2286
1240.0,0.2295
1241.0,0.2282
1242.0,0.2279
1243.0,0.226
1244.0,0.2276
1245.0,0.2286
1246.0,0.2273
1247.0,0.2263
1248.0,0.226
1249.0,0.2269
1250.0,0.2254
1251.0,0.2224
1252.0,0.2226
1253.0,0.2205
1254.0,0.2181
1255.0,0.2223
1256.0,0.2155
1257.0,0.2142
1258.0,0.2186
1259.0,0.2098
1260.0,0.211
1261.0,0.1981
1262.0,0.1916
1263.0,0.1919
1264.0,0.1758
1265.0,0.1907
1266.0,0.1827
1267.0,0.1864
1268.0,0.1759
1269.0,0.1035
1270.0,0.1856
1271.0,0.1976
1272.0,0.1983
1273.0,0.1961
1274.0,0.1969
1275.0,0.2
1276.0,0.2021
1277.0,0.2037
1278.0,0.2081
1279.0,0.2062
1280.0,0.2036
1281.0,0.1945
1282.0,0.1877
1283.0,0.2021
1284.0,0.2069
1285.0,0.2083
1286.0,0.2113
1287.0,0.2077
1288.0,0.2077
1289.0,0.2005
1290.0,0.2059
1291.0,0.209
1292.0,0.195
1293.0,0.2046
1294.0,0.2031
1295.0,0.2017
1296.0,0.1918
1297.0,0.1808
1298.0,0.1959
1299.0,0.205
1300.0,0.1713
1301.0,0.177
1302.0,0.1953
1303.0,0.1693
1304.0,0.1423
1305.0,0.1911
1306.0,0.191
1307.0,0.1462
1308.0,0.1699
1309.0,0.1893
1310.0,0.1432
1311.0,0.1624
1312.0,0.1577
1313.0,0.1542
1314.0,0.1373
1315.0,0.135
1316.0,0.1595
1317.0,0.1508
1318.0,0.1648
1319.0,0.1262
1320.0,0.1229
1321.0,0.144
1322.0,0.145
1323.0,0.1069
1324.0,0.1239
1325.0,0.157
1326.0,0.1334
1327.0,0.1269
1328.0,0.1087
1329.0,0.07967
1330.0,0.1047
1331.0,0.06089
1332.0,0.06365
1333.0,0.0891
1334.0,0.0767
1335.0,0.1065
1336.0,0.08296
1337.0,0.07277
1338.0,0.07873
1339.0,0.07871
1340.0,0.07721
1341.0,0.07388
1342.0,0.07775
1343.0,0.04972
1344.0,0.02999
1345.0,0.04333
1346.0,0.01975
1347.0,0.01978
1348.0,0.001058
1349.0,0.00401
1350.0,0.004327
1351.0,0.0008828
1352.0,0.0001954
1353.0,8.206e-06
1354.0,3.235e-05
1355.0,1.717e-07
1356.0,3.962e-06
1357.0,6.058e-06
1358.0,2.069e-07
1359.0,1.892e-08
1360.0,8.447e-08
1361.0,4.847e-11
1362.0,1.014e-13
1363.0,1.024e-07
1364.0,4.225e-08
1365.0,2.462e-14
1366.0,4.871e-07
1367.0,2.14e-07
1368.0,9.444e-17
1369.0,1.559e-08
1370.0,6.716e-09
1371.0,3.259e-10
1372.0,1.183e-07
1373.0,2.953e-06
1374.0,1.591e-05
1375.0,2.85e-05
1376.0,2.936e-05
1377.0,1.304e-05
1378.0,0.0001352
1379.0,5.47e-06
1380.0,7.163e-06
1381.0,1.729e-07
1382.0,1.025e-07
1383.0,1.378e-09
1384.0,1.666e-08
1385.0,1.136e-07
1386.0,8.294e-08
1387.0,1.496e-05
1388.0,3.004e-07
1389.0,6.026e-05
1390.0,5.152e-05
1391.0,3.348e-05
1392.0,2.092e-06
1393.0,1.201e-05
1394.0,4.845e-06
1395.0,3.047e-08
1396.0,7.657e-11
1397.0,4.513e-06
1398.0,0.000149
1399.0,9.518e-05
1400.0,2.763e-11
1401.0,1.47e-10
1402.0,0.0003288
1403.0,0.0003963
1404.0,0.0001185
1405.0,1.321e-08
1406.0,0.0002871
1407.0,2.701e-05
1408.0,0.000238
1409.0,7.073e-05
1410.0,6.189e-05
1411.0,0.0003515
1412.0,0.000503
1413.0,0.006143
1414.0,4.965e-05
1415.0,2.254e-05
1416.0,0.01134
1417.0,0.003039
1418.0,0.003369
1419.0,0.0005077
1420.0,0.00205
1421.0,0.00224
1422.0,0.01488
1423.0,0.002786
1424.0,0.005339
1425.0,0.007646
1426.0,0.009172
1427.0,0.01797
1428.0,0.0009759
1429.0,0.01287
1430.0,0.02342
1431.0,0.02611
1432.0,0.0007611
1433.0,0.01609
1434.0,0.007934
1435.0,0.007083
1436.0,0.01496
1437.0,0.0115
1438.0,0.004504
