interpolation:linear
wavelength,value
280.0,1.3960000000000002e-20
280.5,4.138e-19
281.0,2.144e-18
281.5,4.265e-19
282.0,1.549e-18
282.5,4.215e-18
283.0,1.379e-17
283.5,2.263e-17
284.0,3.596e-16
284.5,1.023e-15
285.0,1.9e-15
285.5,1.04e-14
286.0,4.278e-14
286.5,1.952e-13
287.0,5.61e-13
287.5,2.143e-12
288.0,5.822e-12
288.5,2.164e-11
289.0,6.789e-11
289.5,2.364e-10
290.0,7.261e-10
290.5,1.601e-09
291.0,3.748e-09
291.5,1.192e-08
292.0,3.105e-08
292.5,4.926e-08
293.0,1.24e-07
293.5,3.786e-07
294.0,7.02e-07
294.5,9.384e-07
295.0,1.883e-06
295.5,5.011e-06
296.0,9.839e-06
296.5,1.4e-05
297.0,1.923e-05
297.5,5.267e-05
298.0,8.453e-05
298.5,8.627e-05
299.0,0.0001929
299.5,0.000328
300.0,0.0003662
300.5,0.000539
301.0,0.001003
301.5,0.001647
302.0,0.001435
302.5,0.002756
303.0,0.004839
303.5,0.006001
304.0,0.005575
304.5,0.00807
305.0,0.01172
305.5,0.01306
306.0,0.01251
306.5,0.0153
307.0,0.02184
307.5,0.02797
308.0,0.02936
308.5,0.03405
309.0,0.03312
309.5,0.03694
310.0,0.03667
310.5,0.05905
311.0,0.07338
311.5,0.07054
312.0,0.069
312.5,0.08274
313.0,0.08905
313.5,0.0871
314.0,0.107
314.5,0.09263
315.0,0.1212
315.5,0.1026
316.0,0.08787
316.5,0.1241
317.0,0.1541
317.5,0.1611
318.0,0.1243
318.5,0.1509
319.0,0.177
319.5,0.147
320.0,0.1781
320.5,0.2178
321.0,0.19
321.5,0.1818
322.0,0.1981
322.5,0.1721
323.0,0.169
323.5,0.2048
324.0,0.2385
324.5,0.2436
325.0,0.2121
325.5,0.2695
326.0,0.3285
326.5,0.3263
327.0,0.3262
327.5,0.3162
328.0,0.2846
328.5,0.2953
329.0,0.35
329.5,0.3961
330.0,0.4006
330.5,0.3231
331.0,0.3301
331.5,0.3335
332.0,0.3573
332.5,0.3521
333.0,0.3519
333.5,0.3205
334.0,0.3287
334.5,0.3765
335.0,0.3524
335.5,0.4116
336.0,0.2848
336.5,0.3342
337.0,0.275
337.5,0.3424
338.0,0.3324
338.5,0.3836
339.0,0.3796
339.5,0.3652
340.0,0.4293
340.5,0.3867
341.0,0.3772
341.5,0.3463
342.0,0.4138
342.5,0.3871
343.0,0.4258
343.5,0.4011
344.0,0.2964
344.5,0.2994
345.0,0.3961
345.5,0.4044
346.0,0.3437
346.5,0.3891
347.0,0.4178
347.5,0.3379
348.0,0.3851
348.5,0.3849
349.0,0.3571
349.5,0.3536
350.0,0.4373
350.5,0.4613
351.0,0.4122
351.5,0.4007
352.0,0.4303
352.5,0.3358
353.0,0.4229
353.5,0.4522
354.0,0.4695
354.5,0.4762
355.0,0.4746
355.5,0.4288
356.0,0.4486
356.5,0.3831
357.0,0.3166
357.5,0.3876
358.0,0.3072
358.5,0.2625
359.0,0.3672
359.5,0.468
360.0,0.4961
360.5,0.3966
361.0,0.3615
361.5,0.4163
362.0,0.36
362.5,0.4983
363.0,0.4475
363.5,0.4123
364.0,0.5042
364.5,0.431
365.0,0.439
365.5,0.551
366.0,0.5838
366.5,0.5486
367.0,0.5343
367.5,0.5545
368.0,0.4853
368.5,0.4897
369.0,0.5289
369.5,0.5638
370.0,0.6011
370.5,0.4666
371.0,0.4986
371.5,0.6238
372.0,0.4141
372.5,0.4965
373.0,0.5051
373.5,0.3287
374.0,0.4776
374.5,0.3956
375.0,0.3846
375.5,0.5742
376.0,0.4761
376.5,0.4934
377.0,0.5224
377.5,0.6112
378.0,0.6626
378.5,0.6264
379.0,0.517
379.5,0.4723
380.0,0.4911
380.5,0.5948
381.0,0.5961
381.5,0.4726
382.0,0.4197
382.5,0.3579
383.0,0.3313
383.5,0.3192
384.0,0.3521
384.5,0.5179
385.0,0.5137
385.5,0.4784
386.0,0.4098
386.5,0.5383
387.0,0.4474
387.5,0.5025
388.0,0.464
388.5,0.4587
389.0,0.4952
389.5,0.5999
390.0,0.6021
390.5,0.5541
391.0,0.6523
391.5,0.6654
392.0,0.5605
392.5,0.5019
393.0,0.2793
393.5,0.203
394.0,0.4132
394.5,0.5254
395.0,0.6411
395.5,0.6513
396.0,0.5648
396.5,0.3302
397.0,0.2478
397.5,0.504
398.0,0.7059
398.5,0.7297
399.0,0.7902
399.5,0.7876
400.0,0.8179
401.0,0.8304
402.0,0.8762
403.0,0.8325
404.0,0.8198
405.0,0.8198
406.0,0.8065
407.0,0.7936
408.0,0.8247
409.0,0.8828
410.0,0.7714
411.0,0.8356
412.0,0.8976
413.0,0.8754
414.0,0.8862
415.0,0.8886
416.0,0.9042
417.0,0.882
418.0,0.8658
419.0,0.8773
420.0,0.8735
421.0,0.9138
422.0,0.8686
423.0,0.8486
424.0,0.8976
425.0,0.896
426.0,0.8728
427.0,0.8565
428.0,0.8344
429.0,0.7903
430.0,0.6917
431.0,0.6857
432.0,0.8853
433.0,0.8902
434.0,0.8266
435.0,0.8634
436.0,0.9728
437.0,0.9596
438.0,0.8739
439.0,0.904
440.0,0.9328
441.0,0.9665
442.0,1.037
443.0,1.01
444.0,1.032
445.0,1.009
446.0,0.9632
447.0,1.041
448.0,1.058
449.0,1.062
450.0,1.091
451.0,1.132
452.0,1.09
453.0,1.026
454.0,1.071
455.0,1.077
456.0,1.103
457.0,1.121
458.0,1.083
459.0,1.077
460.0,1.08
461.0,1.105
462.0,1.114
463.0,1.106
464.0,1.088
465.0,1.074
466.0,1.084
467.0,1.064
468.0,1.077
469.0,1.083
470.0,1.048
471.0,1.047
472.0,1.103
473.0,1.089
474.0,1.09
475.0,1.1
476.0,1.067
477.0,1.07
478.0,1.1
479.0,1.093
480.0,1.095
481.0,1.115
482.0,1.121
483.0,1.107
484.0,1.085
485.0,1.033
486.0,0.9031
487.0,0.9463
488.0,1.038
489.0,1.042
490.0,1.096
491.0,1.077
492.0,1.017
493.0,1.05
494.0,1.06
495.0,1.069
496.0,1.076
497.0,1.093
498.0,1.042
499.0,1.055
500.0,1.024
501.0,1.006
502.0,0.9919
503.0,1.033
504.0,1.007
505.0,1.043
506.0,1.076
507.0,1.024
508.0,0.992
509.0,1.02
510.0,1.014
511.0,1.041
512.0,1.052
513.0,0.9959
514.0,0.989
515.0,0.9792
516.0,0.9768
517.0,0.8679
518.0,0.9125
519.0,0.9571
520.0,0.992
521.0,1.001
522.0,1.002
523.0,0.9844
524.0,1.02
525.0,1.032
526.0,0.9858
527.0,0.9291
528.0,0.9828
529.0,1.036
530.0,1.021
531.0,1.036
532.0,1.001
533.0,0.9715
534.0,1.0
535.0,1.022
536.0,1.031
537.0,0.9905
538.0,1.008
539.0,0.9994
540.0,0.9583
541.0,0.9648
542.0,0.9952
543.0,0.9845
544.0,1.002
545.0,0.9986
546.0,1.003
547.0,1.003
548.0,0.9905
549.0,0.9935
550.0,1.005
551.0,0.993
552.0,0.9999
553.0,0.9821
554.0,1.006
555.0,1.008
556.0,0.9946
557.0,0.9637
558.0,0.9566
559.0,0.9388
560.0,0.9506
561.0,0.963
562.0,0.9562
563.0,0.9825
564.0,0.9558
565.0,0.9477
566.0,0.9339
567.0,0.9517
568.0,0.9436
569.0,0.9219
570.0,0.9215
571.0,0.9158
572.0,0.9382
573.0,0.9483
574.0,0.9454
575.0,0.9279
576.0,0.9194
577.0,0.9294
578.0,0.9152
579.0,0.9185
580.0,0.9355
581.0,0.94
582.0,0.9574
583.0,0.9595
584.0,0.9677
585.0,0.9439
586.0,0.9245
587.0,0.945
588.0,0.9229
589.0,0.8193
590.0,0.8567
591.0,0.9055
592.0,0.8947
593.0,0.9072
594.0,0.9012
595.0,0.8795
596.0,0.9129
597.0,0.9033
598.0,0.9006
599.0,0.9012
600.0,0.9022
601.0,0.8945
602.0,0.8884
603.0,0.903
604.0,0.9179
605.0,0.9131
606.0,0.9092
607.0,0.918
608.0,0.9077
609.0,0.9092
610.0,0.9025
611.0,0.9072
612.0,0.9044
613.0,0.893
614.0,0.8807
615.0,0.8997
616.0,0.87
617.0,0.8682
618.0,0.9015
619.0,0.8923
620.0,0.898
621.0,0.899
622.0,0.8886
623.0,0.8752
624.0,0.8601
625.0,0.8581
626.0,0.8708
627.0,0.8809
628.0,0.8262
629.0,0.8613
630.0,0.8415
631.0,0.8593
632.0,0.8488
633.0,0.8741
634.0,0.8653
635.0,0.8785
636.0,0.8667
637.0,0.8807
638.0,0.8889
639.0,0.8788
640.0,0.8701
641.0,0.8695
642.0,0.8654
643.0,0.877
644.0,0.874
645.0,0.8755
646.0,0.8555
647.0,0.8463
648.0,0.8472
649.0,0.8309
650.0,0.8337
651.0,0.8696
652.0,0.8347
653.0,0.858
654.0,0.8483
655.0,0.8174
656.0,0.724
657.0,0.7434
658.0,0.8327
659.0,0.8385
660.0,0.842
661.0,0.8478
662.0,0.8498
663.0,0.8329
664.0,0.8424
665.0,0.8428
666.0,0.8434
667.0,0.8425
668.0,0.8427
669.0,0.8557
670.0,0.8519
671.0,0.8516
672.0,0.8443
673.0,0.857
674.0,0.8537
675.0,0.8459
676.0,0.8516
677.0,0.8431
678.0,0.8455
679.0,0.8318
680.0,0.8384
681.0,0.8329
682.0,0.8318
683.0,0.8302
684.0,0.8261
685.0,0.8331
686.0,0.8282
687.0,0.565
688.0,0.6549
689.0,0.657
690.0,0.6867
691.0,0.7201
692.0,0.7441
693.0,0.7382
694.0,0.7321
695.0,0.7605
696.0,0.7616
697.0,0.8059
698.0,0.7934
699.0,0.776
700.0,0.7666
701.0,0.7593
702.0,0.764
703.0,0.7654
704.0,0.789
705.0,0.7902
706.0,0.7891
707.0,0.7896
708.0,0.7913
709.0,0.7919
710.0,0.7921
711.0,0.7909
712.0,0.7883
713.0,0.7805
714.0,0.7834
715.0,0.7593
716.0,0.7598
717.0,0.6646
718.0,0.6113
719.0,0.5605
720.0,0.5875
721.0,0.6452
722.0,0.7345
723.0,0.6857
724.0,0.6199
725.0,0.6107
726.0,0.639
727.0,0.6468
728.0,0.6095
729.0,0.6303
730.0,0.667
731.0,0.6387
732.0,0.6811
733.0,0.719
734.0,0.7355
735.0,0.7206
736.0,0.7197
737.0,0.7226
738.0,0.7324
739.0,0.718
740.0,0.7362
741.0,0.7287
742.0,0.7291
743.0,0.7476
744.0,0.7453
745.0,0.7454
746.0,0.7488
747.0,0.7504
748.0,0.7488
749.0,0.7403
750.0,0.7398
751.0,0.7323
752.0,0.7354
753.0,0.7391
754.0,0.7408
755.0,0.7366
756.0,0.7363
757.0,0.7373
758.0,0.7282
759.0,0.7142
760.0,0.1323
761.0,0.072
762.0,0.3796
763.0,0.1974
764.0,0.29
765.0,0.3797
766.0,0.4596
767.0,0.5734
768.0,0.6566
769.0,0.6692
770.0,0.6907
771.0,0.6957
772.0,0.697
773.0,0.7018
774.0,0.6984
775.0,0.693
776.0,0.7014
777.0,0.6922
778.0,0.688
779.0,0.6886
780.0,0.6847
781.0,0.6854
782.0,0.6897
783.0,0.6776
784.0,0.6809
785.0,0.6759
786.0,0.6834
787.0,0.672
788.0,0.6639
789.0,0.6637
790.0,0.6469
791.0,0.6517
792.0,0.6468
793.0,0.6364
794.0,0.6464
795.0,0.6576
796.0,0.6385
797.0,0.6393
798.0,0.6569
799.0,0.6529
800.0,0.6418
801.0,0.6401
802.0,0.6382
803.0,0.6335
804.0,0.6342
805.0,0.6319
806.0,0.6492
807.0,0.6414
808.0,0.642
809.0,0.6303
810.0,0.6254
811.0,0.6268
812.0,0.6096
813.0,0.5973
814.0,0.528
815.0,0.5247
816.0,0.4887
817.0,0.4973
818.0,0.4793
819.0,0.5337
820.0,0.5034
821.0,0.5855
822.0,0.5693
823.0,0.3918
824.0,0.5537
825.0,0.5755
826.0,0.5545
827.0,0.5843
828.0,0.498
829.0,0.551
830.0,0.544
831.0,0.5459
832.0,0.5296
833.0,0.5621
834.0,0.5431
835.0,0.5948
836.0,0.5705
837.0,0.5964
838.0,0.5783
839.0,0.5873
840.0,0.6
841.0,0.5917
842.0,0.5927
843.0,0.592
844.0,0.584
845.0,0.6034
846.0,0.6007
847.0,0.5895
848.0,0.5859
849.0,0.5693
850.0,0.5454
851.0,0.5776
852.0,0.5735
853.0,0.5519
854.0,0.4766
855.0,0.5235
856.0,0.5721
857.0,0.5848
858.0,0.5805
859.0,0.581
860.0,0.582
861.0,0.5788
862.0,0.5879
863.0,0.6018
864.0,0.5717
865.0,0.5667
866.0,0.5095
867.0,0.5317
868.0,0.5786
869.0,0.5666
870.0,0.5828
871.0,0.5748
872.0,0.5728
873.0,0.5717
874.0,0.5648
875.0,0.5534
876.0,0.5592
877.0,0.5648
878.0,0.571
879.0,0.5622
880.0,0.5501
881.0,0.5419
882.0,0.5537
883.0,0.5554
884.0,0.5528
885.0,0.557
886.0,0.5311
887.0,0.5365
888.0,0.5445
889.0,0.5506
890.0,0.5461
891.0,0.5451
892.0,0.5296
893.0,0.5133
894.0,0.4958
895.0,0.4691
896.0,0.4422
897.0,0.3807
898.0,0.4149
899.0,0.3166
900.0,0.4243
901.0,0.3318
902.0,0.3881
903.0,0.3924
904.0,0.492
905.0,0.4754
906.0,0.4451
907.0,0.3629
908.0,0.3699
909.0,0.4001
910.0,0.3548
911.0,0.3776
912.0,0.3945
913.0,0.3602
914.0,0.3569
915.0,0.3869
916.0,0.3277
917.0,0.4149
918.0,0.336
919.0,0.4221
920.0,0.4259
921.0,0.4429
922.0,0.3966
923.0,0.4278
924.0,0.4066
925.0,0.3977
926.0,0.4021
927.0,0.4495
928.0,0.3314
929.0,0.3029
930.0,0.2385
931.0,0.2259
932.0,0.1632
933.0,0.1328
934.0,0.07325
935.0,0.1358
936.0,0.08502
937.0,0.08619
938.0,0.1059
939.0,0.2189
940.0,0.263
941.0,0.1989
942.0,0.2301
943.0,0.1516
944.0,0.1594
945.0,0.205
946.0,0.1046
947.0,0.206
948.0,0.1514
949.0,0.2755
950.0,0.07694
951.0,0.2713
952.0,0.1461
953.0,0.1884
954.0,0.2308
955.0,0.1906
956.0,0.1849
957.0,0.1463
958.0,0.2617
959.0,0.2081
960.0,0.2332
961.0,0.2616
962.0,0.2475
963.0,0.2852
964.0,0.2613
965.0,0.2842
966.0,0.2842
967.0,0.283
968.0,0.379
969.0,0.3959
970.0,0.3636
971.0,0.416
972.0,0.398
973.0,0.3468
974.0,0.3291
975.0,0.3416
976.0,0.3244
977.0,0.369
978.0,0.3506
979.0,0.3672
980.0,0.3453
981.0,0.4136
982.0,0.3956
983.0,0.3798
984.0,0.4261
985.0,0.3941
986.0,0.4335
987.0,0.4251
988.0,0.4243
989.0,0.4322
990.0,0.4218
991.0,0.4335
992.0,0.436
993.0,0.4263
994.0,0.4358
995.0,0.4353
996.0,0.4334
997.0,0.434
998.0,0.4319
999.0,0.4304
1000.0,0.4273
1001.0,0.4327
1002.0,0.4208
1003.0,0.425
1004.0,0.4146
1005.0,0.3994
1006.0,0.415
1007.0,0.4238
1008.0,0.4216
1009.0,0.4193
1010.0,0.4175
1011.0,0.4217
1012.0,0.418
1013.0,0.4207
1014.0,0.4177
1015.0,0.415
1016.0,0.4131
1017.0,0.4141
1018.0,0.4126
1019.0,0.4038
1020.0,0.4104
1021.0,0.4098
1022.0,0.4067
1023.0,0.411
1024.0,0.4056
1025.0,0.4107
1026.0,0.4089
1027.0,0.408
1028.0,0.4071
1029.0,0.4023
1030.0,0.4051
1031.0,0.4035
1032.0,0.4023
1033.0,0.3962
1034.0,0.3962
1035.0,0.3975
1036.0,0.3995
1037.0,0.393
1038.0,0.3948
1039.0,0.3946
1040.0,0.393
1041.0,0.3945
1042.0,0.3918
1043.0,0.3905
1044.0,0.3919
1045.0,0.3866
1046.0,0.3823
1047.0,0.3858
1048.0,0.3879
1049.0,0.3865
1050.0,0.3847
1051.0,0.3842
1052.0,0.3826
1053.0,0.3796
1054.0,0.3804
1055.0,0.3806
1056.0,0.3793
1057.0,0.3781
1058.0,0.3688
1059.0,0.3692
1060.0,0.3686
1061.0,0.3682
1062.0,0.3701
1063.0,0.3665
1064.0,0.3708
1065.0,0.3681
1066.0,0.3608
1067.0,0.3655
1068.0,0.3575
1069.0,0.3465
1070.0,0.3582
1071.0,0.3638
1072.0,0.3596
1073.0,0.3544
1074.0,0.3636
1075.0,0.3454
1076.0,0.3633
1077.0,0.3568
1078.0,0.35
1079.0,0.3575
1080.0,0.3513
1081.0,0.3401
1082.0,0.3455
1083.0,0.3466
1084.0,0.3392
1085.0,0.3521
1086.0,0.3213
1087.0,0.3317
1088.0,0.3462
1089.0,0.3356
1090.0,0.3282
1091.0,0.3451
1092.0,0.3442
1093.0,0.2919
1094.0,0.3149
1095.0,0.3041
1096.0,0.2912
1097.0,0.3362
1098.0,0.2866
1099.0,0.299
1100.0,0.278
1101.0,0.2815
1102.0,0.2688
1103.0,0.2662
1104.0,0.2666
1105.0,0.2922
1106.0,0.2236
1107.0,0.2775
1108.0,0.2353
1109.0,0.2357
1110.0,0.2751
1111.0,0.1867
1112.0,0.2339
1113.0,0.1489
1114.0,0.1664
1115.0,0.138
1116.0,0.1101
1117.0,0.04041
1118.0,0.1199
1119.0,0.05943
1120.0,0.0748
1121.0,0.09932
1122.0,0.04174
1123.0,0.0676
1124.0,0.05706
1125.0,0.07445
1126.0,0.02585
1127.0,0.08399
1128.0,0.05017
1129.0,0.05325
1130.0,0.035
1131.0,0.1595
1132.0,0.1251
1133.0,0.07915
1134.0,0.02016
1135.0,0.007557
1136.0,0.06599
1137.0,0.1566
1138.0,0.1103
1139.0,0.1647
1140.0,0.1375
1141.0,0.1048
1142.0,0.1206
1143.0,0.1714
1144.0,0.05977
1145.0,0.07635
1146.0,0.08234
1147.0,0.02888
1148.0,0.1483
1149.0,0.1184
1150.0,0.06429
1151.0,0.1094
1152.0,0.1348
1153.0,0.1314
1154.0,0.07397
1155.0,0.1718
1156.0,0.1547
1157.0,0.1735
1158.0,0.1717
1159.0,0.1852
1160.0,0.1583
1161.0,0.1948
1162.0,0.1958
1163.0,0.264
1164.0,0.2266
1165.0,0.214
1166.0,0.2124
1167.0,0.2312
1168.0,0.2338
1169.0,0.2393
1170.0,0.2598
1171.0,0.2533
1172.0,0.2578
1173.0,0.2592
1174.0,0.1859
1175.0,0.2531
1176.0,0.2778
1177.0,0.267
1178.0,0.2012
1179.0,0.28
1180.0,0.2505
1181.0,0.2584
1182.0,0.1791
1183.0,0.2543
1184.0,0.2386
1185.0,0.2305
1186.0,0.2724
1187.0,0.2598
1188.0,0.1822
1189.0,0.2421
1190.0,0.2662
1191.0,0.2533
1192.0,0.2699
1193.0,0.2588
1194.0,0.2666
1195.0,0.2526
1196.0,0.2435
1197.0,0.2666
1198.0,0.2442
1199.0,0.2086
1200.0,0.2556
1201.0,0.2468
1202.0,0.2452
1203.0,0.2432
1204.0,0.2131
1205.0,0.2506
1206.0,0.2764
1207.0,0.2447
1208.0,0.2405
1209.0,0.2454
1210.0,0.2554
1211.0,0.2436
1212.0,0.2411
1213.0,0.2675
1214.0,0.2467
1215.0,0.2421
1216.0,0.2666
1217.0,0.2597
1218.0,0.2645
1219.0,0.2613
1220.0,0.2647
1221.0,0.2672
1222.0,0.2604
1223.0,0.258
1224.0,0.2566
1225.0,0.2655
1226.0,0.2672
1227.0,0.247
1228.0,0.2684
1229.0,0.2672
1230.0,0.2627
1231.0,0.2699
1232.0,0.2683
1233.0,0.2595
1234.0,0.2695
1235.0,0.2679
1236.0,0.2698
1237.0,0.2662
1238.0,0.2689
1239.0,0.2654
1240.0,0.2664
1241.0,0.2653
1242.0,0.2646
1243.0,0.2625
1244.0,0.2644
1245.0,0.2655
1246.0,0.2639
1247.0,0.2629
1248.0,0.2628
1249.0,0.2636
1250.0,0.262
1251.0,0.2587
1252.0,0.2587
1253.0,0.2567
1254.0,0.2543
1255.0,0.2584
1256.0,0.2515
1257.0,0.2501
1258.0,0.2546
1259.0,0.2458
1260.0,0.247
1261.0,0.2337
1262.0,0.227
1263.0,0.2274
1264.0,0.2106
1265.0,0.2259
1266.0,0.2178
1267.0,0.2214
1268.0,0.2103
1269.0,0.1332
1270.0,0.2207
1271.0,0.2329
1272.0,0.2335
1273.0,0.2311
1274.0,0.2318
1275.0,0.2351
1276.0,0.2372
1277.0,0.2387
1278.0,0.243
1279.0,0.2409
1280.0,0.2378
1281.0,0.2268
1282.0,0.2184
1283.0,0.2352
1284.0,0.2409
1285.0,0.2425
1286.0,0.2456
1287.0,0.242
1288.0,0.2419
1289.0,0.2346
1290.0,0.2398
1291.0,0.243
1292.0,0.229
1293.0,0.2385
1294.0,0.2368
1295.0,0.2358
1296.0,0.2256
1297.0,0.2137
1298.0,0.2294
1299.0,0.2387
1300.0,0.2031
1301.0,0.2091
1302.0,0.2286
1303.0,0.2003
1304.0,0.1718
1305.0,0.224
1306.0,0.2241
1307.0,0.1752
1308.0,0.2005
1309.0,0.2224
1310.0,0.1719
1311.0,0.1924
1312.0,0.1873
1313.0,0.1839
1314.0,0.1649
1315.0,0.163
1316.0,0.1895
1317.0,0.1796
1318.0,0.1949
1319.0,0.1533
1320.0,0.1483
1321.0,0.1724
1322.0,0.1743
1323.0,0.1319
1324.0,0.1504
1325.0,0.1869
1326.0,0.1609
1327.0,0.1536
1328.0,0.1326
1329.0,0.1002
1330.0,0.1301
1331.0,0.07914
1332.0,0.08153
1333.0,0.1134
1334.0,0.09572
1335.0,0.1314
1336.0,0.1042
1337.0,0.09231
1338.0,0.0999
1339.0,0.09938
1340.0,0.09651
1341.0,0.09457
1342.0,0.09931
1343.0,0.06786
1344.0,0.0406
1345.0,0.05852
1346.0,0.02943
1347.0,0.02998
1348.0,0.002016
1349.0,0.007171
1350.0,0.007396
1351.0,0.001857
1352.0,0.0005205
1353.0,2.768e-05
1354.0,9.29e-05
1355.0,8.167e-07
1356.0,1.357e-05
1357.0,2.065e-05
1358.0,9.64e-07
1359.0,1.298e-07
1360.0,4.516e-07
1361.0,5.801e-10
1362.0,1.686e-12
1363.0,6.243e-07
1364.0,2.595e-07
1365.0,6.395e-13
1366.0,2.683e-06
1367.0,1.086e-06
1368.0,5.76e-15
1369.0,9.736e-08
1370.0,4.939e-08
1371.0,2.903e-09
1372.0,5.978e-07
1373.0,1.157e-05
1374.0,5.223e-05
1375.0,9.511e-05
1376.0,8.347e-05
1377.0,3.849e-05
1378.0,0.0003724
1379.0,1.619e-05
1380.0,2.377e-05
1381.0,6.322e-07
1382.0,5.435e-07
1383.0,8.352e-09
1384.0,1.114e-07
1385.0,4.986e-07
1386.0,4.939e-07
1387.0,5.521e-05
1388.0,1.091e-06
1389.0,0.0001815
1390.0,0.0001563
1391.0,0.0001049
1392.0,6.888e-06
1393.0,3.601e-05
1394.0,1.952e-05
1395.0,1.485e-07
1396.0,8.207e-10
1397.0,1.451e-05
1398.0,0.0004198
1399.0,0.0002661
1400.0,3.679e-10
1401.0,1.458e-09
1402.0,0.0007139
1403.0,0.0009036
1404.0,0.0002762
1405.0,7.405e-08
1406.0,0.0007274
1407.0,6.371e-05
1408.0,0.0005938
1409.0,0.0002031
1410.0,0.0001607
1411.0,0.0007936
1412.0,0.001062
1413.0,0.01073
1414.0,0.0001265
1415.0,6.126e-05
1416.0,0.01754
1417.0,0.005302
1418.0,0.00604
1419.0,0.000937
1420.0,0.003695
1421.0,0.003996
1422.0,0.0229
1423.0,0.004432
1424.0,0.008313
1425.0,0.01223
1426.0,0.01391
1427.0,0.02568
1428.0,0.001898
1429.0,0.01915
1430.0,0.0328
1431.0,0.03607
1432.0,0.001494
1433.0,0.02287
1434.0,0.01159
1435.0,0.01145
1436.0,0.02232
1437.0,0.01711
1438.0,0.007163
1439.0,0.03046
1440.0,0.02281
1441.0,0.01726
1442.0,0.01916
1443.0,0.02427
1444.0,0.03375
1445.0,0.0262
