interpolation:linear
wavelength,value
280.0,2.574e-20
280.5,7.428e-19
281.0,3.816e-18
281.5,4.184e-19
282.0,1.714e-18
282.5,4.789e-18
283.0,1.587e-17
283.5,2.614e-17
284.0,4.146e-16
284.5,1.174e-15
285.0,1.869e-15
285.5,1.082e-14
286.0,4.527e-14
286.5,2.118e-13
287.0,6.176e-13
287.5,2.397e-12
288.0,7.643e-12
288.5,2.97e-11
289.0,9.755e-11
289.5,3.576e-10
290.0,1.146e-09
290.5,2.621e-09
291.0,6.402e-09
291.5,2.144e-08
292.0,5.912e-08
292.5,9.364e-08
293.0,2.347e-07
293.5,7.112e-07
294.0,1.312e-06
294.5,1.736e-06
295.0,3.446e-06
295.5,8.695e-06
296.0,1.681e-05
296.5,2.353e-05
297.0,3.187e-05
297.5,8.544e-05
298.0,0.0001345
298.5,0.0001353
299.0,0.000298
299.5,0.000493
300.0,0.0005417
300.5,0.0007838
301.0,0.001416
301.5,0.002256
302.0,0.001932
302.5,0.003677
303.0,0.006377
303.5,0.007847
304.0,0.007252
304.5,0.01036
305.0,0.01478
305.5,0.01629
306.0,0.01554
306.5,0.01888
307.0,0.02655
307.5,0.03354
308.0,0.03513
308.5,0.04047
309.0,0.03919
309.5,0.04331
310.0,0.04282
310.5,0.06879
311.0,0.08518
311.5,0.08175
312.0,0.07936
312.5,0.09468
313.0,0.1016
313.5,0.09963
314.0,0.1216
314.5,0.1045
315.0,0.1365
315.5,0.116
316.0,0.09868
316.5,0.1386
317.0,0.1721
317.5,0.1802
318.0,0.1385
318.5,0.1669
319.0,0.1951
319.5,0.1629
320.0,0.1975
320.5,0.2399
321.0,0.2079
321.5,0.1987
322.0,0.2181
322.5,0.1894
323.0,0.1851
323.5,0.2234
324.0,0.2599
324.5,0.2659
325.0,0.2321
325.5,0.2939
326.0,0.3576
326.5,0.3545
327.0,0.3546
327.5,0.3441
328.0,0.3106
328.5,0.3211
329.0,0.3794
329.5,0.4289
330.0,0.4341
330.5,0.3509
331.0,0.3587
331.5,0.3618
332.0,0.3866
332.5,0.3806
333.0,0.3805
333.5,0.3472
334.0,0.3561
334.5,0.4072
335.0,0.3806
335.5,0.4445
336.0,0.3075
336.5,0.361
337.0,0.2973
337.5,0.3703
338.0,0.3589
338.5,0.4141
339.0,0.4097
339.5,0.3941
340.0,0.4633
340.5,0.4173
341.0,0.407
341.5,0.3736
342.0,0.4464
342.5,0.4176
343.0,0.4593
343.5,0.4326
344.0,0.3196
344.5,0.3229
345.0,0.4272
345.5,0.436
346.0,0.3705
346.5,0.4195
347.0,0.4504
347.5,0.3642
348.0,0.415
348.5,0.4148
349.0,0.3847
349.5,0.3809
350.0,0.4711
350.5,0.4969
351.0,0.444
351.5,0.4316
352.0,0.4635
352.5,0.3616
353.0,0.4554
353.5,0.4869
354.0,0.5055
354.5,0.5126
355.0,0.511
355.5,0.4616
356.0,0.4829
356.5,0.4123
357.0,0.3407
357.5,0.4171
358.0,0.3306
358.5,0.2825
359.0,0.3951
359.5,0.5036
360.0,0.5339
360.5,0.4267
361.0,0.389
361.5,0.4478
362.0,0.3872
362.5,0.5358
363.0,0.4812
363.5,0.4432
364.0,0.5421
364.5,0.4633
365.0,0.4719
365.5,0.5923
366.0,0.6275
366.5,0.5896
367.0,0.5742
367.5,0.5958
368.0,0.5214
368.5,0.5262
369.0,0.5682
369.5,0.6057
370.0,0.6457
370.5,0.5011
371.0,0.5355
371.5,0.6699
372.0,0.4447
372.5,0.5332
373.0,0.5423
373.5,0.3529
374.0,0.5128
374.5,0.4247
375.0,0.4128
375.5,0.6164
376.0,0.511
376.5,0.5295
377.0,0.5607
377.5,0.656
378.0,0.7111
378.5,0.6722
379.0,0.5547
379.5,0.5068
380.0,0.5269
380.5,0.6382
381.0,0.6396
381.5,0.507
382.0,0.4502
382.5,0.3838
383.0,0.3553
383.5,0.3422
384.0,0.3775
384.5,0.5553
385.0,0.5507
385.5,0.5129
386.0,0.4393
386.5,0.5771
387.0,0.4795
387.5,0.5386
388.0,0.4973
388.5,0.4916
389.0,0.5307
389.5,0.6428
390.0,0.6452
390.5,0.5938
391.0,0.6989
391.5,0.7129
392.0,0.6005
392.5,0.5376
393.0,0.2992
393.5,0.2175
394.0,0.4425
394.5,0.5626
395.0,0.6866
395.5,0.6975
396.0,0.6048
396.5,0.3535
397.0,0.2653
397.5,0.5396
398.0,0.7557
398.5,0.7812
399.0,0.8458
399.5,0.8431
400.0,0.8756
401.0,0.8893
402.0,0.9382
403.0,0.8913
404.0,0.8776
405.0,0.8775
406.0,0.8632
407.0,0.8493
408.0,0.8825
409.0,0.9446
410.0,0.8254
411.0,0.894
412.0,0.9601
413.0,0.9364
414.0,0.9478
415.0,0.9503
416.0,0.9668
417.0,0.9431
418.0,0.9257
419.0,0.9378
420.0,0.9337
421.0,0.9768
422.0,0.9284
423.0,0.9069
424.0,0.9592
425.0,0.9574
426.0,0.9324
427.0,0.915
428.0,0.8914
429.0,0.8442
430.0,0.7387
431.0,0.7323
432.0,0.9454
433.0,0.9505
434.0,0.8827
435.0,0.9219
436.0,1.039
437.0,1.024
438.0,0.9328
439.0,0.965
440.0,0.9956
441.0,1.032
442.0,1.106
443.0,1.078
444.0,1.101
445.0,1.077
446.0,1.028
447.0,1.111
448.0,1.128
449.0,1.133
450.0,1.164
451.0,1.207
452.0,1.163
453.0,1.094
454.0,1.142
455.0,1.149
456.0,1.176
457.0,1.195
458.0,1.155
459.0,1.149
460.0,1.152
461.0,1.178
462.0,1.187
463.0,1.179
464.0,1.159
465.0,1.144
466.0,1.155
467.0,1.134
468.0,1.148
469.0,1.154
470.0,1.117
471.0,1.115
472.0,1.175
473.0,1.16
474.0,1.162
475.0,1.172
476.0,1.138
477.0,1.141
478.0,1.173
479.0,1.165
480.0,1.167
481.0,1.189
482.0,1.195
483.0,1.18
484.0,1.155
485.0,1.101
486.0,0.9619
487.0,1.008
488.0,1.106
489.0,1.109
490.0,1.167
491.0,1.147
492.0,1.083
493.0,1.118
494.0,1.129
495.0,1.139
496.0,1.146
497.0,1.164
498.0,1.109
499.0,1.124
500.0,1.091
501.0,1.071
502.0,1.057
503.0,1.1
504.0,1.074
505.0,1.111
506.0,1.147
507.0,1.091
508.0,1.057
509.0,1.086
510.0,1.08
511.0,1.109
512.0,1.121
513.0,1.061
514.0,1.053
515.0,1.043
516.0,1.04
517.0,0.9242
518.0,0.9717
519.0,1.019
520.0,1.056
521.0,1.066
522.0,1.067
523.0,1.048
524.0,1.086
525.0,1.099
526.0,1.05
527.0,0.9898
528.0,1.047
529.0,1.104
530.0,1.088
531.0,1.104
532.0,1.066
533.0,1.035
534.0,1.066
535.0,1.089
536.0,1.099
537.0,1.055
538.0,1.074
539.0,1.065
540.0,1.021
541.0,1.028
542.0,1.06
543.0,1.049
544.0,1.067
545.0,1.064
546.0,1.069
547.0,1.068
548.0,1.055
549.0,1.058
550.0,1.071
551.0,1.058
552.0,1.065
553.0,1.046
554.0,1.071
555.0,1.074
556.0,1.06
557.0,1.027
558.0,1.019
559.0,1.001
560.0,1.013
561.0,1.026
562.0,1.019
563.0,1.047
564.0,1.019
565.0,1.01
566.0,0.9958
567.0,1.015
568.0,1.007
569.0,0.9839
570.0,0.9834
571.0,0.9772
572.0,1.002
573.0,1.012
574.0,1.009
575.0,0.9907
576.0,0.9817
577.0,0.9922
578.0,0.977
579.0,0.9803
580.0,0.998
581.0,1.003
582.0,1.021
583.0,1.023
584.0,1.031
585.0,1.006
586.0,0.9854
587.0,1.007
588.0,0.9845
589.0,0.8753
590.0,0.9151
591.0,0.9665
592.0,0.9554
593.0,0.9681
594.0,0.962
595.0,0.9393
596.0,0.9739
597.0,0.9639
598.0,0.9607
599.0,0.9612
600.0,0.962
601.0,0.9536
602.0,0.9471
603.0,0.9625
604.0,0.9783
605.0,0.9731
606.0,0.9689
607.0,0.9782
608.0,0.9671
609.0,0.9686
610.0,0.9614
611.0,0.9663
612.0,0.9633
613.0,0.951
614.0,0.9378
615.0,0.958
616.0,0.9263
617.0,0.9243
618.0,0.9598
619.0,0.95
620.0,0.956
621.0,0.9571
622.0,0.9461
623.0,0.9319
624.0,0.9158
625.0,0.9137
626.0,0.9273
627.0,0.9382
628.0,0.8828
629.0,0.9183
630.0,0.8973
631.0,0.9153
632.0,0.904
633.0,0.9305
634.0,0.9208
635.0,0.9348
636.0,0.922
637.0,0.9368
638.0,0.9453
639.0,0.9344
640.0,0.9251
641.0,0.9243
642.0,0.9198
643.0,0.9321
644.0,0.9289
645.0,0.9305
646.0,0.9096
647.0,0.9006
648.0,0.9016
649.0,0.8843
650.0,0.8863
651.0,0.9242
652.0,0.8883
653.0,0.9119
654.0,0.9015
655.0,0.8692
656.0,0.7695
657.0,0.7901
658.0,0.8847
659.0,0.8907
660.0,0.8943
661.0,0.9005
662.0,0.9028
663.0,0.8848
664.0,0.8946
665.0,0.8948
666.0,0.8953
667.0,0.8942
668.0,0.8944
669.0,0.9081
670.0,0.904
671.0,0.9037
672.0,0.8959
673.0,0.9093
674.0,0.9058
675.0,0.8974
676.0,0.9035
677.0,0.8944
678.0,0.8969
679.0,0.8823
680.0,0.8893
681.0,0.8835
682.0,0.8823
683.0,0.8806
684.0,0.8762
685.0,0.8836
686.0,0.8785
687.0,0.6119
688.0,0.7034
689.0,0.7054
690.0,0.7353
691.0,0.7688
692.0,0.7927
693.0,0.7866
694.0,0.7801
695.0,0.8089
696.0,0.81
697.0,0.8552
698.0,0.842
699.0,0.8247
700.0,0.8148
701.0,0.8075
702.0,0.812
703.0,0.8134
704.0,0.8378
705.0,0.839
706.0,0.8376
707.0,0.838
708.0,0.8399
709.0,0.84
710.0,0.8405
711.0,0.839
712.0,0.836
713.0,0.828
714.0,0.831
715.0,0.8059
716.0,0.8066
717.0,0.7101
718.0,0.6539
719.0,0.6001
720.0,0.6294
721.0,0.6883
722.0,0.7804
723.0,0.7302
724.0,0.662
725.0,0.6529
726.0,0.6827
727.0,0.69
728.0,0.6517
729.0,0.6723
730.0,0.7114
731.0,0.6818
732.0,0.7254
733.0,0.764
734.0,0.7811
735.0,0.7655
736.0,0.7645
737.0,0.7676
738.0,0.7769
739.0,0.7617
740.0,0.7807
741.0,0.7725
742.0,0.7728
743.0,0.7923
744.0,0.7897
745.0,0.7897
746.0,0.7933
747.0,0.795
748.0,0.7933
749.0,0.7842
750.0,0.7837
751.0,0.7758
752.0,0.7791
753.0,0.783
754.0,0.7847
755.0,0.7803
756.0,0.7799
757.0,0.7811
758.0,0.7714
759.0,0.7572
760.0,0.1535
761.0,0.08629
762.0,0.4158
763.0,0.2241
764.0,0.3224
765.0,0.4159
766.0,0.4973
767.0,0.6143
768.0,0.6984
769.0,0.7108
770.0,0.7323
771.0,0.7371
772.0,0.7383
773.0,0.7433
774.0,0.7397
775.0,0.734
776.0,0.7429
777.0,0.7331
778.0,0.7287
779.0,0.7293
780.0,0.7251
781.0,0.7259
782.0,0.7304
783.0,0.7176
784.0,0.7211
785.0,0.7158
786.0,0.7238
787.0,0.7122
788.0,0.7039
789.0,0.7038
790.0,0.6866
791.0,0.691
792.0,0.6857
793.0,0.6748
794.0,0.6847
795.0,0.6967
796.0,0.6774
797.0,0.6784
798.0,0.6961
799.0,0.692
800.0,0.6805
801.0,0.6789
802.0,0.6769
803.0,0.672
804.0,0.6727
805.0,0.67
806.0,0.6878
807.0,0.6797
808.0,0.6802
809.0,0.6682
810.0,0.6633
811.0,0.6652
812.0,0.6477
813.0,0.6351
814.0,0.5638
815.0,0.5601
816.0,0.522
817.0,0.531
818.0,0.5122
819.0,0.5683
820.0,0.5369
821.0,0.6216
822.0,0.6048
823.0,0.4208
824.0,0.5893
825.0,0.6111
826.0,0.5897
827.0,0.6204
828.0,0.5314
829.0,0.5858
830.0,0.5787
831.0,0.5805
832.0,0.5637
833.0,0.597
834.0,0.5776
835.0,0.6308
836.0,0.6061
837.0,0.6324
838.0,0.6137
839.0,0.6226
840.0,0.636
841.0,0.6274
842.0,0.628
843.0,0.627
844.0,0.6186
845.0,0.639
846.0,0.6361
847.0,0.624
848.0,0.6205
849.0,0.6029
850.0,0.5775
851.0,0.6118
852.0,0.6074
853.0,0.5844
854.0,0.5048
855.0,0.5543
856.0,0.6058
857.0,0.6191
858.0,0.6147
859.0,0.6151
860.0,0.6161
861.0,0.6127
862.0,0.6223
863.0,0.637
864.0,0.6052
865.0,0.5998
866.0,0.5394
867.0,0.5628
868.0,0.6125
869.0,0.5998
870.0,0.6168
871.0,0.6085
872.0,0.6063
873.0,0.6051
874.0,0.5979
875.0,0.5858
876.0,0.5919
877.0,0.5978
878.0,0.6044
879.0,0.5951
880.0,0.5823
881.0,0.5737
882.0,0.5862
883.0,0.5879
884.0,0.5852
885.0,0.5897
886.0,0.5625
887.0,0.5681
888.0,0.5766
889.0,0.5828
890.0,0.5784
891.0,0.5772
892.0,0.5611
893.0,0.5443
894.0,0.5267
895.0,0.4995
896.0,0.4714
897.0,0.4074
898.0,0.4432
899.0,0.3401
900.0,0.4522
901.0,0.3564
902.0,0.4142
903.0,0.4196
904.0,0.5227
905.0,0.5055
906.0,0.4737
907.0,0.3886
908.0,0.3958
909.0,0.427
910.0,0.3807
911.0,0.4039
912.0,0.4216
913.0,0.3865
914.0,0.3827
915.0,0.4146
916.0,0.3518
917.0,0.4432
918.0,0.3608
919.0,0.4504
920.0,0.4533
921.0,0.4712
922.0,0.4234
923.0,0.455
924.0,0.4342
925.0,0.4248
926.0,0.4294
927.0,0.4787
928.0,0.357
929.0,0.3274
930.0,0.2597
931.0,0.2457
932.0,0.1792
933.0,0.1469
934.0,0.08311
935.0,0.1493
936.0,0.09483
937.0,0.09631
938.0,0.1178
939.0,0.238
940.0,0.2847
941.0,0.217
942.0,0.25
943.0,0.1661
944.0,0.1734
945.0,0.2234
946.0,0.1159
947.0,0.225
948.0,0.1656
949.0,0.299
950.0,0.0864
951.0,0.2941
952.0,0.1608
953.0,0.2058
954.0,0.2503
955.0,0.208
956.0,0.2008
957.0,0.1613
958.0,0.2816
959.0,0.226
960.0,0.2533
961.0,0.2825
962.0,0.2675
963.0,0.3069
964.0,0.2817
965.0,0.3056
966.0,0.306
967.0,0.3049
968.0,0.4036
969.0,0.422
970.0,0.3882
971.0,0.4421
972.0,0.4234
973.0,0.3709
974.0,0.3523
975.0,0.3648
976.0,0.3476
977.0,0.3932
978.0,0.3746
979.0,0.3916
980.0,0.3686
981.0,0.4395
982.0,0.421
983.0,0.4047
984.0,0.4519
985.0,0.4194
986.0,0.4593
987.0,0.4509
988.0,0.4501
989.0,0.4575
990.0,0.4473
991.0,0.4589
992.0,0.4615
993.0,0.4519
994.0,0.4613
995.0,0.4607
996.0,0.4587
997.0,0.4594
998.0,0.4572
999.0,0.4555
1000.0,0.4525
1001.0,0.458
1002.0,0.4459
1003.0,0.4499
1004.0,0.439
1005.0,0.4228
1006.0,0.4394
1007.0,0.4486
1008.0,0.4463
1009.0,0.444
1010.0,0.4422
1011.0,0.4463
1012.0,0.4426
1013.0,0.4452
1014.0,0.4421
1015.0,0.4392
1016.0,0.4372
1017.0,0.4384
1018.0,0.4367
1019.0,0.4275
1020.0,0.4344
1021.0,0.4337
1022.0,0.4305
1023.0,0.435
1024.0,0.4296
1025.0,0.4347
1026.0,0.4329
1027.0,0.4318
1028.0,0.431
1029.0,0.4259
1030.0,0.4287
1031.0,0.427
1032.0,0.4258
1033.0,0.4194
1034.0,0.4194
1035.0,0.4207
1036.0,0.4229
1037.0,0.416
1038.0,0.4179
1039.0,0.4176
1040.0,0.4159
1041.0,0.4176
1042.0,0.4147
1043.0,0.4134
1044.0,0.4149
1045.0,0.4093
1046.0,0.4047
1047.0,0.4084
1048.0,0.4107
1049.0,0.4092
1050.0,0.4073
1051.0,0.4068
1052.0,0.4051
1053.0,0.4019
1054.0,0.4028
1055.0,0.4031
1056.0,0.4017
1057.0,0.4005
1058.0,0.3907
1059.0,0.3911
1060.0,0.3906
1061.0,0.3901
1062.0,0.3922
1063.0,0.3883
1064.0,0.3929
1065.0,0.3902
1066.0,0.3824
1067.0,0.3874
1068.0,0.379
1069.0,0.3672
1070.0,0.3797
1071.0,0.3854
1072.0,0.3811
1073.0,0.3756
1074.0,0.3851
1075.0,0.3664
1076.0,0.3848
1077.0,0.3783
1078.0,0.3712
1079.0,0.3786
1080.0,0.3725
1081.0,0.3608
1082.0,0.3661
1083.0,0.3671
1084.0,0.36
1085.0,0.3732
1086.0,0.3415
1087.0,0.3518
1088.0,0.3668
1089.0,0.3561
1090.0,0.3486
1091.0,0.3658
1092.0,0.3647
1093.0,0.3109
1094.0,0.3339
1095.0,0.3237
1096.0,0.3104
1097.0,0.3562
1098.0,0.3058
1099.0,0.3187
1100.0,0.297
1101.0,0.3005
1102.0,0.2875
1103.0,0.285
1104.0,0.2853
1105.0,0.3115
1106.0,0.2412
1107.0,0.2964
1108.0,0.253
1109.0,0.2531
1110.0,0.2941
1111.0,0.2018
1112.0,0.251
1113.0,0.1621
1114.0,0.181
1115.0,0.1501
1116.0,0.1212
1117.0,0.04602
1118.0,0.1314
1119.0,0.06639
1120.0,0.08363
1121.0,0.1103
1122.0,0.04742
1123.0,0.07553
1124.0,0.06377
1125.0,0.08291
1126.0,0.02986
1127.0,0.09343
1128.0,0.05697
1129.0,0.0603
1130.0,0.04011
1131.0,0.1746
1132.0,0.1375
1133.0,0.0885
1134.0,0.02342
1135.0,0.008733
1136.0,0.07431
1137.0,0.172
1138.0,0.1214
1139.0,0.1784
1140.0,0.1501
1141.0,0.1154
1142.0,0.1322
1143.0,0.1866
1144.0,0.0665
1145.0,0.08532
1146.0,0.09204
1147.0,0.0334
1148.0,0.1615
1149.0,0.1298
1150.0,0.07142
1151.0,0.1205
1152.0,0.1474
1153.0,0.1429
1154.0,0.08286
1155.0,0.1862
1156.0,0.1682
1157.0,0.1879
1158.0,0.1858
1159.0,0.1997
1160.0,0.1715
1161.0,0.2096
1162.0,0.2108
1163.0,0.2815
1164.0,0.2426
1165.0,0.23
1166.0,0.2276
1167.0,0.2473
1168.0,0.2503
1169.0,0.2558
1170.0,0.277
1171.0,0.2702
1172.0,0.2745
1173.0,0.2764
1174.0,0.2003
1175.0,0.2695
1176.0,0.2948
1177.0,0.284
1178.0,0.2155
1179.0,0.2971
1180.0,0.2669
1181.0,0.2752
1182.0,0.1924
1183.0,0.2707
1184.0,0.2545
1185.0,0.2463
1186.0,0.2895
1187.0,0.2765
1188.0,0.1959
1189.0,0.2578
1190.0,0.2829
1191.0,0.27
1192.0,0.2867
1193.0,0.2752
1194.0,0.2833
1195.0,0.269
1196.0,0.2597
1197.0,0.2829
1198.0,0.2596
1199.0,0.2231
1200.0,0.2718
1201.0,0.263
1202.0,0.261
1203.0,0.2588
1204.0,0.2276
1205.0,0.2663
1206.0,0.2929
1207.0,0.2605
1208.0,0.2557
1209.0,0.2608
1210.0,0.2712
1211.0,0.2592
1212.0,0.2571
1213.0,0.2838
1214.0,0.2627
1215.0,0.258
1216.0,0.2828
1217.0,0.2758
1218.0,0.2806
1219.0,0.2774
1220.0,0.2808
1221.0,0.2833
1222.0,0.2763
1223.0,0.2739
1224.0,0.2725
1225.0,0.2816
1226.0,0.2831
1227.0,0.2624
1228.0,0.2843
1229.0,0.2832
1230.0,0.2786
1231.0,0.2857
1232.0,0.284
1233.0,0.2753
1234.0,0.2853
1235.0,0.2836
1236.0,0.2855
1237.0,0.282
1238.0,0.2846
1239.0,0.2809
1240.0,0.282
1241.0,0.2809
1242.0,0.28
1243.0,0.2778
1244.0,0.2798
1245.0,0.281
1246.0,0.2793
1247.0,0.2783
1248.0,0.2782
1249.0,0.279
1250.0,0.2774
1251.0,0.274
1252.0,0.2738
1253.0,0.272
1254.0,0.2695
1255.0,0.2736
1256.0,0.2666
1257.0,0.2652
1258.0,0.2697
1259.0,0.2609
1260.0,0.2622
1261.0,0.2487
1262.0,0.2419
1263.0,0.2424
1264.0,0.2252
1265.0,0.2408
1266.0,0.2326
1267.0,0.2361
1268.0,0.2248
1269.0,0.1461
1270.0,0.2354
1271.0,0.2477
1272.0,0.2484
1273.0,0.2459
1274.0,0.2465
1275.0,0.2498
1276.0,0.252
1277.0,0.2534
1278.0,0.2577
1279.0,0.2555
1280.0,0.2522
1281.0,0.2404
1282.0,0.2313
1283.0,0.2491
1284.0,0.2552
1285.0,0.2568
1286.0,0.26
1287.0,0.2564
1288.0,0.2563
1289.0,0.2489
1290.0,0.254
1291.0,0.2574
1292.0,0.2432
1293.0,0.2527
1294.0,0.251
1295.0,0.2502
1296.0,0.2398
1297.0,0.2275
1298.0,0.2434
1299.0,0.2529
1300.0,0.2165
1301.0,0.2227
1302.0,0.2426
1303.0,0.2134
1304.0,0.1843
1305.0,0.2378
1306.0,0.238
1307.0,0.1875
1308.0,0.2134
1309.0,0.2363
1310.0,0.184
1311.0,0.2051
1312.0,0.1999
1313.0,0.1964
1314.0,0.1766
1315.0,0.1748
1316.0,0.2022
1317.0,0.1918
1318.0,0.2076
1319.0,0.1649
1320.0,0.1592
1321.0,0.1845
1322.0,0.1868
1323.0,0.1427
1324.0,0.1617
1325.0,0.1995
1326.0,0.1726
1327.0,0.1649
1328.0,0.1429
1329.0,0.109
1330.0,0.1411
1331.0,0.08718
1332.0,0.08934
1333.0,0.1239
1334.0,0.104
1335.0,0.1421
1336.0,0.1134
1337.0,0.1008
1338.0,0.1091
1339.0,0.1083
1340.0,0.1049
1341.0,0.1036
1342.0,0.1087
1343.0,0.076
1344.0,0.04539
1345.0,0.06529
1346.0,0.03397
1347.0,0.0348
1348.0,0.002543
1349.0,0.008828
1350.0,0.008948
1351.0,0.002421
1352.0,0.0007337
1353.0,4.264e-05
1354.0,0.0001353
1355.0,1.423e-06
1356.0,2.104e-05
1357.0,3.194e-05
1358.0,1.667e-06
1359.0,2.564e-07
1360.0,8.189e-07
1361.0,1.399e-09
1362.0,4.613e-12
1363.0,1.173e-06
1364.0,4.932e-07
1365.0,2.037e-12
1366.0,4.866e-06
1367.0,1.932e-06
1368.0,2.482e-14
1369.0,1.866e-07
1370.0,1.001e-07
1371.0,6.32e-09
1372.0,1.063e-06
1373.0,1.875e-05
1374.0,7.955e-05
1375.0,0.0001449
1376.0,0.0001211
1377.0,5.668e-05
1378.0,0.0005318
1379.0,2.392e-05
1380.0,3.642e-05
1381.0,1.009e-06
1382.0,9.82e-07
1383.0,1.595e-08
1384.0,2.182e-07
1385.0,8.467e-07
1386.0,9.271e-07
1387.0,8.707e-05
1388.0,1.735e-06
1389.0,0.0002676
1390.0,0.0002305
1391.0,0.000157
1392.0,1.056e-05
1393.0,5.331e-05
1394.0,3.187e-05
1395.0,2.619e-07
1396.0,1.906e-09
1397.0,2.204e-05
1398.0,0.0006029
1399.0,0.000382
1400.0,9.196e-10
1401.0,3.294e-09
1402.0,0.0009425
1403.0,0.001211
1404.0,0.0003729
1405.0,1.37e-07
1406.0,0.001007
1407.0,8.693e-05
1408.0,0.0008189
1409.0,0.0002938
1410.0,0.0002259
1411.0,0.001061
1412.0,0.001388
1413.0,0.01307
1414.0,0.0001769
1415.0,8.765e-05
1416.0,0.02052
1417.0,0.00649
1418.0,0.007428
1419.0,0.001166
1420.0,0.004556
1421.0,0.004932
1422.0,0.02671
1423.0,0.005247
1424.0,0.00977
1425.0,0.01448
1426.0,0.01619
1427.0,0.02921
1428.0,0.00241
1429.0,0.02209
1430.0,0.03706
1431.0,0.04056
1432.0,0.001904
1433.0,0.02599
1434.0,0.01331
1435.0,0.01362
1436.0,0.0258
1437.0,0.01977
1438.0,0.00848
1439.0,0.03489
1440.0,0.02615
1441.0,0.02015
1442.0,0.02231
1443.0,0.0277
1444.0,0.03823
1445.0,0.03016
1446.0,0.01364
1447.0,0.02148
1448.0,0.07111
1449.0,0.06195
