interpolation:linear
wavelength,value
280.0,3.8549999999999995e-22
280.5,1.2620000000000001e-20
281.0,6.755e-20
281.5,4.373e-19
282.0,7.24e-19
282.5,1.795e-18
283.0,5.669e-18
283.5,9.222e-18
284.0,1.513e-16
284.5,4.405e-16
285.0,7.438e-16
285.5,3.697e-15
286.0,1.489e-14
286.5,6.687e-14
287.0,1.915e-13
287.5,7.369e-13
288.0,2.496e-12
288.5,7.572e-12
289.0,2.019e-11
289.5,6.103e-11
290.0,1.695e-10
290.5,3.455e-10
291.0,7.417e-10
291.5,2.129e-09
292.0,4.394e-09
292.5,6.178e-09
293.0,1.328e-08
293.5,3.243e-08
294.0,5.079e-08
294.5,6.926e-08
295.0,1.175e-07
295.5,2.045e-07
296.0,4.002e-07
296.5,5.688e-07
297.0,7.811e-07
297.5,2.152e-06
298.0,3.483e-06
298.5,3.586e-06
299.0,8.109e-06
299.5,1.418e-05
300.0,1.612e-05
300.5,2.422e-05
301.0,4.683e-05
301.5,7.979e-05
302.0,7.081e-05
302.5,0.000143
303.0,0.0002696
303.5,0.0003522
304.0,0.0003422
304.5,0.0005583
305.0,0.0009615
305.5,0.001195
306.0,0.001195
306.5,0.00157
307.0,0.002625
307.5,0.003925
308.0,0.004226
308.5,0.005294
309.0,0.00543
309.5,0.006753
310.0,0.007049
310.5,0.01164
311.0,0.01507
311.5,0.01474
312.0,0.01576
312.5,0.02004
313.0,0.02224
313.5,0.02114
314.0,0.02786
314.5,0.02647
315.0,0.03522
315.5,0.0285
316.0,0.02632
316.5,0.03965
317.0,0.0492
317.5,0.05051
318.0,0.04072
318.5,0.0538
319.0,0.06588
319.5,0.05108
320.0,0.06127
320.5,0.08168
321.0,0.07697
321.5,0.07423
322.0,0.07448
322.5,0.06501
323.0,0.06736
323.5,0.08582
324.0,0.1008
324.5,0.1008
325.0,0.08541
325.5,0.1134
326.0,0.1399
326.5,0.143
327.0,0.1415
327.5,0.1354
328.0,0.1174
328.5,0.1275
329.0,0.1567
329.5,0.1794
330.0,0.1799
330.5,0.1411
331.0,0.1429
331.5,0.1474
332.0,0.1628
332.5,0.1627
333.0,0.1614
333.5,0.1438
334.0,0.147
334.5,0.1728
335.0,0.1641
335.5,0.1922
336.0,0.133
336.5,0.1547
337.0,0.126
337.5,0.1564
338.0,0.155
338.5,0.1797
339.0,0.178
339.5,0.1713
340.0,0.2007
340.5,0.1813
341.0,0.1773
341.5,0.1631
342.0,0.1951
342.5,0.1827
343.0,0.2008
343.5,0.189
344.0,0.1395
344.5,0.1411
345.0,0.1872
345.5,0.1914
346.0,0.1628
346.5,0.1846
347.0,0.1981
347.5,0.1602
348.0,0.1829
348.5,0.183
349.0,0.17
349.5,0.1684
350.0,0.2084
350.5,0.22
351.0,0.1965
351.5,0.1908
352.0,0.2052
352.5,0.1604
353.0,0.2022
353.5,0.2164
354.0,0.2248
354.5,0.2281
355.0,0.2274
355.5,0.2056
356.0,0.2153
356.5,0.1839
357.0,0.152
357.5,0.1862
358.0,0.1476
358.5,0.1262
359.0,0.1766
359.5,0.225
360.0,0.2387
360.5,0.1909
361.0,0.1742
361.5,0.2008
362.0,0.1739
362.5,0.2409
363.0,0.2166
363.5,0.1997
364.0,0.2444
364.5,0.209
365.0,0.213
365.5,0.2675
366.0,0.2836
366.5,0.2667
367.0,0.2599
367.5,0.2699
368.0,0.2363
368.5,0.2386
369.0,0.2579
369.5,0.2751
370.0,0.2935
370.5,0.2279
371.0,0.2437
371.5,0.3051
372.0,0.2026
372.5,0.2431
373.0,0.2474
373.5,0.1611
374.0,0.2343
374.5,0.1942
375.0,0.1888
375.5,0.2821
376.0,0.2339
376.5,0.2426
377.0,0.257
377.5,0.3009
378.0,0.3263
378.5,0.3085
379.0,0.2547
379.5,0.2327
380.0,0.2421
380.5,0.2935
381.0,0.2943
381.5,0.2335
382.0,0.2076
382.5,0.1771
383.0,0.1641
383.5,0.1582
384.0,0.1746
384.5,0.257
385.0,0.2551
385.5,0.2377
386.0,0.2038
386.5,0.2679
387.0,0.2227
387.5,0.2503
388.0,0.2312
388.5,0.2287
389.0,0.247
389.5,0.2994
390.0,0.3007
390.5,0.2769
391.0,0.3262
391.5,0.3329
392.0,0.2805
392.5,0.2513
393.0,0.14
393.5,0.1018
394.0,0.2073
394.5,0.2637
395.0,0.322
395.5,0.3272
396.0,0.2839
396.5,0.1661
397.0,0.1247
397.5,0.2538
398.0,0.3555
398.5,0.3677
399.0,0.3986
399.5,0.3975
400.0,0.4129
401.0,0.4168
402.0,0.4404
403.0,0.419
404.0,0.4129
405.0,0.4133
406.0,0.4072
407.0,0.4011
408.0,0.417
409.0,0.4468
410.0,0.3909
411.0,0.4239
412.0,0.456
413.0,0.445
414.0,0.451
415.0,0.4527
416.0,0.4613
417.0,0.4503
418.0,0.4424
419.0,0.4487
420.0,0.4471
421.0,0.4682
422.0,0.4454
423.0,0.4354
424.0,0.4608
425.0,0.4605
426.0,0.4492
427.0,0.4412
428.0,0.4301
429.0,0.408
430.0,0.3574
431.0,0.3543
432.0,0.4581
433.0,0.461
434.0,0.4283
435.0,0.4474
436.0,0.5049
437.0,0.4988
438.0,0.4546
439.0,0.4698
440.0,0.4853
441.0,0.5034
442.0,0.5402
443.0,0.5261
444.0,0.5381
445.0,0.5265
446.0,0.5033
447.0,0.5449
448.0,0.5531
449.0,0.5563
450.0,0.5723
451.0,0.5939
452.0,0.5726
453.0,0.5389
454.0,0.5632
455.0,0.5669
456.0,0.5807
457.0,0.5905
458.0,0.57
459.0,0.5674
460.0,0.5688
461.0,0.5821
462.0,0.5872
463.0,0.5832
464.0,0.5744
465.0,0.568
466.0,0.5741
467.0,0.5635
468.0,0.5702
469.0,0.5733
470.0,0.555
471.0,0.5545
472.0,0.5843
473.0,0.5768
474.0,0.5772
475.0,0.5816
476.0,0.5635
477.0,0.5646
478.0,0.5805
479.0,0.5774
480.0,0.579
481.0,0.5905
482.0,0.5943
483.0,0.588
484.0,0.5764
485.0,0.5497
486.0,0.4811
487.0,0.5047
488.0,0.5537
489.0,0.5552
490.0,0.5845
491.0,0.5748
492.0,0.5429
493.0,0.5608
494.0,0.5665
495.0,0.5715
496.0,0.575
497.0,0.5839
498.0,0.5565
499.0,0.5634
500.0,0.5466
501.0,0.5361
502.0,0.5276
503.0,0.5481
504.0,0.5315
505.0,0.5527
506.0,0.5705
507.0,0.5431
508.0,0.527
509.0,0.5425
510.0,0.5402
511.0,0.5553
512.0,0.5616
513.0,0.5317
514.0,0.5283
515.0,0.5231
516.0,0.5217
517.0,0.4637
518.0,0.4875
519.0,0.5112
520.0,0.5297
521.0,0.5347
522.0,0.5349
523.0,0.5251
524.0,0.5434
525.0,0.5491
526.0,0.5243
527.0,0.4935
528.0,0.5214
529.0,0.5492
530.0,0.5411
531.0,0.5488
532.0,0.5299
533.0,0.5144
534.0,0.5298
535.0,0.5417
536.0,0.547
537.0,0.5257
538.0,0.5352
539.0,0.5307
540.0,0.5086
541.0,0.5111
542.0,0.5268
543.0,0.5219
544.0,0.5302
545.0,0.5287
546.0,0.5304
547.0,0.5307
548.0,0.5247
549.0,0.5265
550.0,0.5328
551.0,0.5265
552.0,0.5301
553.0,0.5205
554.0,0.5329
555.0,0.5338
556.0,0.5267
557.0,0.5101
558.0,0.5058
559.0,0.4959
560.0,0.5018
561.0,0.5079
562.0,0.5037
563.0,0.5168
564.0,0.5023
565.0,0.4975
566.0,0.4898
567.0,0.4985
568.0,0.4926
569.0,0.4781
570.0,0.4783
571.0,0.4762
572.0,0.4857
573.0,0.4906
574.0,0.4886
575.0,0.4788
576.0,0.4745
577.0,0.48
578.0,0.4736
579.0,0.4767
580.0,0.4879
581.0,0.4919
582.0,0.5026
583.0,0.505
584.0,0.5101
585.0,0.4981
586.0,0.4879
587.0,0.4978
588.0,0.4822
589.0,0.4204
590.0,0.4402
591.0,0.4699
592.0,0.4616
593.0,0.4715
594.0,0.467
595.0,0.4529
596.0,0.4763
597.0,0.4697
598.0,0.4702
599.0,0.4714
600.0,0.4735
601.0,0.4707
602.0,0.4677
603.0,0.4759
604.0,0.4841
605.0,0.4819
606.0,0.4806
607.0,0.486
608.0,0.4812
609.0,0.4826
610.0,0.4798
611.0,0.4826
612.0,0.4816
613.0,0.4759
614.0,0.4699
615.0,0.4806
616.0,0.4652
617.0,0.4646
618.0,0.4828
619.0,0.4781
620.0,0.4811
621.0,0.4811
622.0,0.4751
623.0,0.4674
624.0,0.4598
625.0,0.4588
626.0,0.4655
627.0,0.4694
628.0,0.4227
629.0,0.4528
630.0,0.4418
631.0,0.4571
632.0,0.4527
633.0,0.4686
634.0,0.4658
635.0,0.474
636.0,0.4687
637.0,0.4772
638.0,0.483
639.0,0.4782
640.0,0.4743
641.0,0.4746
642.0,0.4731
643.0,0.4796
644.0,0.4787
645.0,0.4791
646.0,0.466
647.0,0.4562
648.0,0.4566
649.0,0.4473
650.0,0.455
651.0,0.4758
652.0,0.4503
653.0,0.4697
654.0,0.465
655.0,0.4448
656.0,0.3963
657.0,0.4072
658.0,0.4582
659.0,0.4622
660.0,0.4645
661.0,0.4679
662.0,0.4678
663.0,0.459
664.0,0.466
665.0,0.4676
666.0,0.4685
667.0,0.4687
668.0,0.4695
669.0,0.4772
670.0,0.4754
671.0,0.4756
672.0,0.4718
673.0,0.4792
674.0,0.4776
675.0,0.4735
676.0,0.477
677.0,0.4725
678.0,0.4741
679.0,0.4666
680.0,0.4705
681.0,0.4675
682.0,0.4669
683.0,0.4661
684.0,0.4637
685.0,0.468
686.0,0.4649
687.0,0.2439
688.0,0.3142
689.0,0.3164
690.0,0.3421
691.0,0.3722
692.0,0.3958
693.0,0.3918
694.0,0.3897
695.0,0.4142
696.0,0.4152
697.0,0.4502
698.0,0.443
699.0,0.4258
700.0,0.4204
701.0,0.4136
702.0,0.4191
703.0,0.4204
704.0,0.4378
705.0,0.4384
706.0,0.4395
707.0,0.4405
708.0,0.4413
709.0,0.4446
710.0,0.4431
711.0,0.4435
712.0,0.4434
713.0,0.4377
714.0,0.4398
715.0,0.4232
716.0,0.4228
717.0,0.3429
718.0,0.3127
719.0,0.2845
720.0,0.2957
721.0,0.34
722.0,0.4038
723.0,0.3685
724.0,0.3231
725.0,0.3149
726.0,0.3305
727.0,0.3412
728.0,0.313
729.0,0.3331
730.0,0.3508
731.0,0.334
732.0,0.366
733.0,0.3956
734.0,0.4076
735.0,0.3977
736.0,0.397
737.0,0.3986
738.0,0.411
739.0,0.403
740.0,0.4154
741.0,0.4124
742.0,0.4139
743.0,0.4248
744.0,0.4243
745.0,0.425
746.0,0.427
747.0,0.4281
748.0,0.4272
749.0,0.4224
750.0,0.4222
751.0,0.418
752.0,0.4199
753.0,0.4221
754.0,0.423
755.0,0.4206
756.0,0.4205
757.0,0.4211
758.0,0.4157
759.0,0.4033
760.0,0.02445
761.0,0.009144
762.0,0.1417
763.0,0.04721
764.0,0.08965
765.0,0.1415
766.0,0.2004
767.0,0.284
768.0,0.3556
769.0,0.3696
770.0,0.3898
771.0,0.3964
772.0,0.3983
773.0,0.4014
774.0,0.3997
775.0,0.3968
776.0,0.4017
777.0,0.3965
778.0,0.394
779.0,0.3943
780.0,0.3922
781.0,0.3927
782.0,0.3952
783.0,0.3884
784.0,0.3904
785.0,0.3872
786.0,0.3913
787.0,0.3813
788.0,0.3752
789.0,0.3749
790.0,0.3608
791.0,0.368
792.0,0.3659
793.0,0.3596
794.0,0.37
795.0,0.3751
796.0,0.3577
797.0,0.3577
798.0,0.3739
799.0,0.3705
800.0,0.3627
801.0,0.3602
802.0,0.3591
803.0,0.3556
804.0,0.3568
805.0,0.3573
806.0,0.3703
807.0,0.3652
808.0,0.3658
809.0,0.3567
810.0,0.3524
811.0,0.3497
812.0,0.3358
813.0,0.327
814.0,0.2765
815.0,0.2755
816.0,0.2551
817.0,0.2605
818.0,0.2482
819.0,0.2871
820.0,0.2669
821.0,0.3261
822.0,0.3145
823.0,0.1927
824.0,0.3
825.0,0.3204
826.0,0.3037
827.0,0.3251
828.0,0.2623
829.0,0.3028
830.0,0.2977
831.0,0.2989
832.0,0.2873
833.0,0.3119
834.0,0.2966
835.0,0.3357
836.0,0.3147
837.0,0.3369
838.0,0.323
839.0,0.3324
840.0,0.3405
841.0,0.3342
842.0,0.3372
843.0,0.3393
844.0,0.3334
845.0,0.3463
846.0,0.3452
847.0,0.3394
848.0,0.3363
849.0,0.3267
850.0,0.3131
851.0,0.3304
852.0,0.3287
853.0,0.3172
854.0,0.2731
855.0,0.3011
856.0,0.3286
857.0,0.3367
858.0,0.3339
859.0,0.3347
860.0,0.3356
861.0,0.3336
862.0,0.339
863.0,0.347
864.0,0.3298
865.0,0.327
866.0,0.294
867.0,0.3068
868.0,0.3339
869.0,0.3271
870.0,0.3364
871.0,0.3318
872.0,0.3307
873.0,0.3301
874.0,0.3261
875.0,0.3195
876.0,0.3228
877.0,0.3261
878.0,0.3294
879.0,0.3244
880.0,0.3175
881.0,0.3122
882.0,0.3187
883.0,0.3203
884.0,0.3186
885.0,0.321
886.0,0.304
887.0,0.3088
888.0,0.3125
889.0,0.3176
890.0,0.313
891.0,0.3135
892.0,0.3018
893.0,0.2899
894.0,0.2742
895.0,0.2523
896.0,0.2358
897.0,0.1947
898.0,0.2164
899.0,0.1558
900.0,0.2266
901.0,0.1632
902.0,0.2034
903.0,0.2012
904.0,0.272
905.0,0.2602
906.0,0.2413
907.0,0.1834
908.0,0.1895
909.0,0.2102
910.0,0.1763
911.0,0.195
912.0,0.2047
913.0,0.1784
914.0,0.1789
915.0,0.1932
916.0,0.1621
917.0,0.2152
918.0,0.1655
919.0,0.2225
920.0,0.2317
921.0,0.2407
922.0,0.2081
923.0,0.2333
924.0,0.2115
925.0,0.2073
926.0,0.2085
927.0,0.2404
928.0,0.1563
929.0,0.1374
930.0,0.09985
931.0,0.09491
932.0,0.06032
933.0,0.04559
934.0,0.0183
935.0,0.04936
936.0,0.02628
937.0,0.02642
938.0,0.03408
939.0,0.09176
940.0,0.1165
941.0,0.08023
942.0,0.09693
943.0,0.05799
944.0,0.06687
945.0,0.08439
946.0,0.03541
947.0,0.08269
948.0,0.05999
949.0,0.1183
950.0,0.02269
951.0,0.1176
952.0,0.05368
953.0,0.07561
954.0,0.09993
955.0,0.07724
956.0,0.08189
957.0,0.0532
958.0,0.1244
959.0,0.08978
960.0,0.1006
961.0,0.1202
962.0,0.1133
963.0,0.1369
964.0,0.1236
965.0,0.1363
966.0,0.1354
967.0,0.1339
968.0,0.2046
969.0,0.2101
970.0,0.1906
971.0,0.2292
972.0,0.2168
973.0,0.1776
974.0,0.1676
975.0,0.1778
976.0,0.1625
977.0,0.1979
978.0,0.1826
979.0,0.1944
980.0,0.1811
981.0,0.2282
982.0,0.214
983.0,0.2032
984.0,0.2402
985.0,0.213
986.0,0.2476
987.0,0.2391
988.0,0.239
989.0,0.249
990.0,0.2373
991.0,0.2493
992.0,0.2511
993.0,0.2419
994.0,0.2515
995.0,0.2517
996.0,0.25
997.0,0.2507
998.0,0.2493
999.0,0.2485
1000.0,0.2459
1001.0,0.2499
1002.0,0.2394
1003.0,0.2453
1004.0,0.2383
1005.0,0.2309
1006.0,0.2393
1007.0,0.2447
1008.0,0.2427
1009.0,0.2407
1010.0,0.2393
1011.0,0.2436
1012.0,0.2408
1013.0,0.2432
1014.0,0.2415
1015.0,0.2398
1016.0,0.2386
1017.0,0.2391
1018.0,0.2386
1019.0,0.2322
1020.0,0.2371
1021.0,0.2371
1022.0,0.2347
1023.0,0.2371
1024.0,0.2326
1025.0,0.2374
1026.0,0.236
1027.0,0.2356
1028.0,0.235
1029.0,0.2321
1030.0,0.2341
1031.0,0.233
1032.0,0.2325
1033.0,0.229
1034.0,0.229
1035.0,0.2297
1036.0,0.2308
1037.0,0.2271
1038.0,0.228
1039.0,0.2278
1040.0,0.2269
1041.0,0.2276
1042.0,0.226
1043.0,0.2252
1044.0,0.2259
1045.0,0.2228
1046.0,0.2202
1047.0,0.2221
1048.0,0.2232
1049.0,0.2223
1050.0,0.2212
1051.0,0.2207
1052.0,0.2197
1053.0,0.2178
1054.0,0.218
1055.0,0.2179
1056.0,0.2169
1057.0,0.2161
1058.0,0.2106
1059.0,0.2106
1060.0,0.2101
1061.0,0.2098
1062.0,0.2106
1063.0,0.2084
1064.0,0.2109
1065.0,0.2089
1066.0,0.2052
1067.0,0.2077
1068.0,0.2027
1069.0,0.1968
1070.0,0.2031
1071.0,0.2075
1072.0,0.2042
1073.0,0.2014
1074.0,0.208
1075.0,0.194
1076.0,0.2077
1077.0,0.2019
1078.0,0.1972
1079.0,0.205
1080.0,0.1989
1081.0,0.1907
1082.0,0.1968
1083.0,0.1983
1084.0,0.1895
1085.0,0.1996
1086.0,0.1774
1087.0,0.1863
1088.0,0.1975
1089.0,0.1879
1090.0,0.182
1091.0,0.1959
1092.0,0.1961
1093.0,0.1571
1094.0,0.1782
1095.0,0.1642
1096.0,0.1547
1097.0,0.1916
1098.0,0.1509
1099.0,0.1588
1100.0,0.1441
1101.0,0.1471
1102.0,0.138
1103.0,0.1349
1104.0,0.1353
1105.0,0.1544
1106.0,0.1038
1107.0,0.1439
1108.0,0.1135
1109.0,0.1152
1110.0,0.141
1111.0,0.08443
1112.0,0.1149
1113.0,0.06241
1114.0,0.07029
1115.0,0.0575
1116.0,0.04032
1117.0,0.01001
1118.0,0.04524
1119.0,0.01802
1120.0,0.02207
1121.0,0.03159
1122.0,0.009918
1123.0,0.02013
1124.0,0.01692
1125.0,0.02318
1126.0,0.004982
1127.0,0.02646
1128.0,0.0122
1129.0,0.01329
1130.0,0.008024
1131.0,0.06051
1132.0,0.0454
1133.0,0.02327
1134.0,0.003749
1135.0,0.001551
1136.0,0.01762
1137.0,0.05726
1138.0,0.03933
1139.0,0.07111
1140.0,0.0546
1141.0,0.03753
1142.0,0.0454
1143.0,0.06995
1144.0,0.01909
1145.0,0.02244
1146.0,0.02414
1147.0,0.00549
1148.0,0.05984
1149.0,0.04434
1150.0,0.0216
1151.0,0.03902
1152.0,0.05217
1153.0,0.05418
1154.0,0.02197
1155.0,0.074
1156.0,0.06406
1157.0,0.07708
1158.0,0.07605
1159.0,0.08483
1160.0,0.07011
1161.0,0.09356
1162.0,0.09329
1163.0,0.1393
1164.0,0.1147
1165.0,0.1035
1166.0,0.1067
1167.0,0.1184
1168.0,0.1187
1169.0,0.1228
1170.0,0.1376
1171.0,0.134
1172.0,0.1391
1173.0,0.1374
1174.0,0.08882
1175.0,0.1366
1176.0,0.1558
1177.0,0.1457
1178.0,0.1024
1179.0,0.1571
1180.0,0.1342
1181.0,0.1387
1182.0,0.08776
1183.0,0.1378
1184.0,0.1264
1185.0,0.1195
1186.0,0.15
1187.0,0.1402
1188.0,0.08784
1189.0,0.1302
1190.0,0.1472
1191.0,0.1344
1192.0,0.1497
1193.0,0.1417
1194.0,0.1472
1195.0,0.1357
1196.0,0.1287
1197.0,0.1488
1198.0,0.1344
1199.0,0.107
1200.0,0.1398
1201.0,0.1321
1202.0,0.1336
1203.0,0.1312
1204.0,0.1116
1205.0,0.1387
1206.0,0.1569
1207.0,0.1322
1208.0,0.1323
1209.0,0.1355
1210.0,0.1428
1211.0,0.1334
1212.0,0.1278
1213.0,0.1498
1214.0,0.1324
1215.0,0.1294
1216.0,0.1497
1217.0,0.1444
1218.0,0.1484
1219.0,0.1457
1220.0,0.1487
1221.0,0.151
1222.0,0.1465
1223.0,0.1445
1224.0,0.1421
1225.0,0.1498
1226.0,0.1519
1227.0,0.1363
1228.0,0.1535
1229.0,0.1519
1230.0,0.1487
1231.0,0.1554
1232.0,0.1544
1233.0,0.1457
1234.0,0.156
1235.0,0.1545
1236.0,0.156
1237.0,0.1525
1238.0,0.1555
1239.0,0.1535
1240.0,0.1542
1241.0,0.1527
1242.0,0.1531
1243.0,0.1519
1244.0,0.1527
1245.0,0.1535
1246.0,0.1527
1247.0,0.1518
1248.0,0.1513
1249.0,0.1522
1250.0,0.151
1251.0,0.1485
1252.0,0.1492
1253.0,0.1468
1254.0,0.1444
1255.0,0.1487
1256.0,0.1423
1257.0,0.1411
1258.0,0.1455
1259.0,0.1368
1260.0,0.1379
1261.0,0.126
1262.0,0.12
1263.0,0.1201
1264.0,0.106
1265.0,0.1195
1266.0,0.112
1267.0,0.116
1268.0,0.1069
1269.0,0.04866
1270.0,0.1148
1271.0,0.1261
1272.0,0.127
1273.0,0.1251
1274.0,0.1262
1275.0,0.1288
1276.0,0.1309
1277.0,0.1328
1278.0,0.137
1279.0,0.1357
1280.0,0.1341
1281.0,0.1287
1282.0,0.1254
1283.0,0.1347
1284.0,0.1377
1285.0,0.1389
1286.0,0.1414
1287.0,0.1379
1288.0,0.1383
1289.0,0.1313
1290.0,0.1372
1291.0,0.1396
1292.0,0.1264
1293.0,0.1358
1294.0,0.1346
1295.0,0.1324
1296.0,0.1235
1297.0,0.1148
1298.0,0.1281
1299.0,0.1364
1300.0,0.108
1301.0,0.1126
1302.0,0.1278
1303.0,0.1074
1304.0,0.08489
1305.0,0.1248
1306.0,0.1241
1307.0,0.0892
1308.0,0.1087
1309.0,0.122
1310.0,0.08692
1311.0,0.1026
1312.0,0.0989
1313.0,0.09542
1314.0,0.08301
1315.0,0.08044
1316.0,0.09972
1317.0,0.09353
1318.0,0.1045
1319.0,0.07376
1320.0,0.07305
1321.0,0.08789
1322.0,0.08727
1323.0,0.05934
1324.0,0.07266
1325.0,0.09748
1326.0,0.07969
1327.0,0.07488
1328.0,0.06236
1329.0,0.04144
1330.0,0.05677
1331.0,0.02861
1332.0,0.03118
1333.0,0.04446
1334.0,0.04136
1335.0,0.05862
1336.0,0.04305
1337.0,0.03713
1338.0,0.03983
1339.0,0.04043
1340.0,0.04102
1341.0,0.03605
1342.0,0.03837
1343.0,0.01978
1344.0,0.01244
1345.0,0.01757
1346.0,0.005786
1347.0,0.005408
1348.0,0.0001491
1349.0,0.0006558
1350.0,0.0007847
1351.0,8.641e-05
1352.0,8.443e-06
1353.0,2.158e-07
1354.0,1.295e-06
1355.0,2.548e-09
1356.0,1.037e-07
1357.0,1.568e-07
1358.0,3.128e-09
1359.0,2.383e-10
1360.0,1.116e-09
1361.0,8.368e-13
1362.0,2.261e-15
1363.0,1.213e-09
1364.0,5.229e-10
1365.0,7.854e-16
1366.0,5.79e-09
1367.0,2.855e-09
1368.0,6.06e-18
1369.0,1.931e-10
1370.0,8.419e-11
1371.0,4.482e-12
1372.0,1.6e-09
1373.0,5.452e-08
1374.0,4.29e-07
1375.0,6.598e-07
1376.0,1.211e-06
1377.0,4.983e-07
1378.0,5.36e-06
1379.0,2.161e-07
1380.0,1.959e-07
1381.0,4.245e-09
1382.0,1.303e-09
1383.0,1.736e-11
1384.0,1.974e-10
1385.0,1.866e-09
1386.0,9.742e-10
1387.0,2.724e-07
1388.0,7.34e-09
1389.0,1.925e-06
1390.0,1.524e-06
1391.0,9.813e-07
1392.0,6.194e-08
1393.0,4.348e-07
1394.0,7.942e-08
1395.0,4.323e-10
1396.0,1.105e-12
1397.0,1.378e-07
1398.0,5.333e-06
1399.0,3.593e-06
1400.0,4.632e-13
1401.0,1.987e-12
1402.0,3.034e-05
1403.0,2.997e-05
1404.0,8.062e-06
1405.0,1.609e-10
1406.0,1.411e-05
1407.0,2.103e-06
1408.0,1.254e-05
1409.0,2.399e-06
1410.0,3.304e-06
1411.0,2.779e-05
1412.0,4.997e-05
1413.0,0.001019
1414.0,2.867e-06
1415.0,1.087e-06
1416.0,0.002958
1417.0,0.000578
1418.0,0.0005198
1419.0,7.294e-05
1420.0,0.0003127
1421.0,0.0004017
1422.0,0.003869
1423.0,0.0006891
1424.0,0.001441
1425.0,0.001828
1426.0,0.002653
1427.0,0.006022
1428.0,0.0001263
1429.0,0.003774
1430.0,0.008474
