interpolation:linear
wavelength,value
280.0,1.702e-21
280.5,5.4150000000000004e-20
281.0,2.871e-19
281.5,4.546e-19
282.0,1.015e-18
282.5,2.579e-18
283.0,8.204e-18
283.5,1.336e-17
284.0,2.164e-16
284.5,6.25e-16
285.0,1.328e-15
285.5,6.371e-15
286.0,2.542e-14
286.5,1.12e-13
287.0,3.171e-13
287.5,1.202e-12
288.0,3.456e-12
288.5,1.109e-11
289.0,3.068e-11
289.5,9.519e-11
290.0,2.684e-10
290.5,5.53e-10
291.0,1.198e-09
291.5,3.465e-09
292.0,7.073e-09
292.5,1.042e-08
293.0,2.374e-08
293.5,6.249e-08
294.0,1.031e-07
294.5,1.343e-07
295.0,2.39e-07
295.5,5.832e-07
296.0,1.114e-06
296.5,1.621e-06
297.0,2.275e-06
297.5,6.497e-06
298.0,1.088e-05
298.5,1.153e-05
299.0,2.686e-05
299.5,4.958e-05
300.0,5.825e-05
300.5,9.081e-05
301.0,0.0001879
301.5,0.0003469
302.0,0.0003247
302.5,0.0006474
303.0,0.001195
303.5,0.001532
304.0,0.00146
304.5,0.002256
305.0,0.003588
305.5,0.004234
306.0,0.004146
306.5,0.005261
307.0,0.008127
307.5,0.01123
308.0,0.01193
308.5,0.01436
309.0,0.01427
309.5,0.01669
310.0,0.01694
310.5,0.02758
311.0,0.03491
311.5,0.03383
312.0,0.03444
312.5,0.04241
313.0,0.04628
313.5,0.04471
314.0,0.05668
314.5,0.05119
315.0,0.06749
315.5,0.05599
316.0,0.04962
316.5,0.07215
317.0,0.08958
317.5,0.09292
318.0,0.07311
318.5,0.09223
319.0,0.1103
319.5,0.08883
320.0,0.1072
320.5,0.1363
321.0,0.1231
321.5,0.1182
322.0,0.1241
322.5,0.1081
323.0,0.1087
323.5,0.1348
324.0,0.1576
324.5,0.1594
325.0,0.1371
325.5,0.1778
326.0,0.2178
326.5,0.2192
327.0,0.2181
327.5,0.2103
328.0,0.1861
328.5,0.1971
329.0,0.2374
329.5,0.2701
330.0,0.2721
330.5,0.2169
331.0,0.2207
331.5,0.2251
332.0,0.2444
332.5,0.2424
333.0,0.2414
333.5,0.2178
334.0,0.2231
334.5,0.2585
335.0,0.2435
335.5,0.2845
336.0,0.197
336.5,0.2304
337.0,0.1888
337.5,0.2348
338.0,0.23
338.5,0.2657
339.0,0.2631
339.5,0.2532
340.0,0.2975
340.5,0.2683
341.0,0.2618
341.5,0.2405
342.0,0.2875
342.5,0.2691
343.0,0.296
343.5,0.2788
344.0,0.2061
344.5,0.2082
345.0,0.2757
345.5,0.2817
346.0,0.2395
346.5,0.2713
347.0,0.2913
347.5,0.2356
348.0,0.2688
348.5,0.2688
349.0,0.2495
349.5,0.2471
350.0,0.3058
350.5,0.3226
351.0,0.2883
351.5,0.2801
352.0,0.3011
352.5,0.2351
353.0,0.2963
353.5,0.3169
354.0,0.3291
354.5,0.3339
355.0,0.3328
355.5,0.3008
356.0,0.3149
356.5,0.2689
357.0,0.2223
357.5,0.2722
358.0,0.2158
358.5,0.1844
359.0,0.258
359.5,0.3289
360.0,0.3488
360.5,0.2789
361.0,0.2543
361.5,0.293
362.0,0.2536
362.5,0.3511
363.0,0.3156
363.5,0.2908
364.0,0.3558
364.5,0.3043
365.0,0.31
365.5,0.3892
366.0,0.4126
366.5,0.3878
367.0,0.3778
367.5,0.3922
368.0,0.3434
368.5,0.3466
369.0,0.3745
369.5,0.3993
370.0,0.4259
370.5,0.3307
371.0,0.3535
371.5,0.4424
372.0,0.2937
372.5,0.3523
373.0,0.3585
373.5,0.2334
374.0,0.3392
374.5,0.2811
375.0,0.2733
375.5,0.4082
376.0,0.3385
376.5,0.3508
377.0,0.3716
377.5,0.4349
378.0,0.4716
378.5,0.4459
379.0,0.368
379.5,0.3362
380.0,0.3497
380.5,0.4237
381.0,0.4249
381.5,0.337
382.0,0.2994
382.5,0.2554
383.0,0.2365
383.5,0.2279
384.0,0.2515
384.5,0.3701
385.0,0.3671
385.5,0.3421
386.0,0.2931
386.5,0.3852
387.0,0.3202
387.5,0.3597
388.0,0.3322
388.5,0.3286
389.0,0.3548
389.5,0.4299
390.0,0.4316
390.5,0.3973
391.0,0.4679
391.5,0.4774
392.0,0.4022
392.5,0.3602
393.0,0.2005
393.5,0.1458
394.0,0.2968
394.5,0.3775
395.0,0.4608
395.5,0.4682
396.0,0.4061
396.5,0.2375
397.0,0.1783
397.5,0.3628
398.0,0.5081
398.5,0.5253
399.0,0.5692
399.5,0.5675
400.0,0.5894
401.0,0.5969
402.0,0.6302
403.0,0.5991
404.0,0.5902
405.0,0.5905
406.0,0.5813
407.0,0.5724
408.0,0.5949
409.0,0.6371
410.0,0.557
411.0,0.6037
412.0,0.6489
413.0,0.633
414.0,0.6412
415.0,0.6433
416.0,0.655
417.0,0.6392
418.0,0.6276
419.0,0.6362
420.0,0.6337
421.0,0.6633
422.0,0.6307
423.0,0.6164
424.0,0.6521
425.0,0.6513
426.0,0.6349
427.0,0.6233
428.0,0.6073
429.0,0.5757
430.0,0.5041
431.0,0.4997
432.0,0.6455
433.0,0.6494
434.0,0.6031
435.0,0.63
436.0,0.7103
437.0,0.7012
438.0,0.6388
439.0,0.6605
440.0,0.6819
441.0,0.7069
442.0,0.7584
443.0,0.7387
444.0,0.7551
445.0,0.7388
446.0,0.7056
447.0,0.7632
448.0,0.775
449.0,0.7786
450.0,0.8007
451.0,0.8306
452.0,0.8005
453.0,0.7532
454.0,0.7866
455.0,0.7916
456.0,0.8106
457.0,0.8242
458.0,0.796
459.0,0.7921
460.0,0.7942
461.0,0.8126
462.0,0.8192
463.0,0.8136
464.0,0.8006
465.0,0.7909
466.0,0.7989
467.0,0.7843
468.0,0.7936
469.0,0.7978
470.0,0.7724
471.0,0.7715
472.0,0.8129
473.0,0.8024
474.0,0.8034
475.0,0.81
476.0,0.7854
477.0,0.7874
478.0,0.8094
479.0,0.8047
480.0,0.8065
481.0,0.8219
482.0,0.8266
483.0,0.8171
484.0,0.8006
485.0,0.763
486.0,0.6673
487.0,0.6995
488.0,0.7675
489.0,0.7697
490.0,0.81
491.0,0.7963
492.0,0.752
493.0,0.7767
494.0,0.7846
495.0,0.7913
496.0,0.7962
497.0,0.8085
498.0,0.7707
499.0,0.7805
500.0,0.7576
501.0,0.7434
502.0,0.7326
503.0,0.7619
504.0,0.7412
505.0,0.7689
506.0,0.7937
507.0,0.7553
508.0,0.7322
509.0,0.7531
510.0,0.7494
511.0,0.7698
512.0,0.7783
513.0,0.7367
514.0,0.7318
515.0,0.7245
516.0,0.7227
517.0,0.6423
518.0,0.6752
519.0,0.7082
520.0,0.7339
521.0,0.7409
522.0,0.7414
523.0,0.728
524.0,0.7538
525.0,0.7623
526.0,0.7281
527.0,0.6858
528.0,0.7251
529.0,0.7641
530.0,0.753
531.0,0.7641
532.0,0.7378
533.0,0.7162
534.0,0.7375
535.0,0.7537
536.0,0.7608
537.0,0.731
538.0,0.744
539.0,0.7377
540.0,0.7072
541.0,0.7115
542.0,0.7335
543.0,0.7262
544.0,0.7384
545.0,0.7362
546.0,0.7391
547.0,0.7391
548.0,0.7304
549.0,0.7327
550.0,0.7414
551.0,0.7325
552.0,0.7376
553.0,0.7243
554.0,0.7416
555.0,0.743
556.0,0.7333
557.0,0.7104
558.0,0.7048
559.0,0.6914
560.0,0.6999
561.0,0.7088
562.0,0.7034
563.0,0.7223
564.0,0.7024
565.0,0.6961
566.0,0.6857
567.0,0.6984
568.0,0.6914
569.0,0.6735
570.0,0.6736
571.0,0.6699
572.0,0.685
573.0,0.6921
574.0,0.6897
575.0,0.6765
576.0,0.6704
577.0,0.6778
578.0,0.6681
579.0,0.6714
580.0,0.6852
581.0,0.6895
582.0,0.7033
583.0,0.7056
584.0,0.7121
585.0,0.6949
586.0,0.6807
587.0,0.6951
588.0,0.6764
589.0,0.5957
590.0,0.6233
591.0,0.6617
592.0,0.6521
593.0,0.6633
594.0,0.658
595.0,0.6405
596.0,0.6687
597.0,0.6607
598.0,0.6599
599.0,0.6609
600.0,0.6626
601.0,0.6577
602.0,0.6534
603.0,0.6644
604.0,0.6756
605.0,0.6723
606.0,0.6698
607.0,0.6768
608.0,0.6696
609.0,0.671
610.0,0.6666
611.0,0.6702
612.0,0.6684
613.0,0.6602
614.0,0.6514
615.0,0.6659
616.0,0.6442
617.0,0.643
618.0,0.6679
619.0,0.6612
620.0,0.6654
621.0,0.6658
622.0,0.6578
623.0,0.6475
624.0,0.6367
625.0,0.6353
626.0,0.6446
627.0,0.6511
628.0,0.6001
629.0,0.633
630.0,0.6181
631.0,0.6348
632.0,0.6277
633.0,0.6479
634.0,0.6425
635.0,0.6529
636.0,0.6448
637.0,0.6558
638.0,0.6627
639.0,0.6556
640.0,0.6496
641.0,0.6495
642.0,0.6468
643.0,0.6556
644.0,0.6538
645.0,0.6547
646.0,0.6384
647.0,0.6286
648.0,0.6291
649.0,0.6168
650.0,0.6226
651.0,0.6501
652.0,0.62
653.0,0.6416
654.0,0.6347
655.0,0.6096
656.0,0.5413
657.0,0.556
658.0,0.624
659.0,0.6289
660.0,0.6317
661.0,0.6362
662.0,0.637
663.0,0.6246
664.0,0.6328
665.0,0.6339
666.0,0.6347
667.0,0.6344
668.0,0.635
669.0,0.645
670.0,0.6424
671.0,0.6424
672.0,0.637
673.0,0.6467
674.0,0.6444
675.0,0.6387
676.0,0.6432
677.0,0.6369
678.0,0.6388
679.0,0.6286
680.0,0.6337
681.0,0.6296
682.0,0.6288
683.0,0.6276
684.0,0.6245
685.0,0.63
686.0,0.6261
687.0,0.3813
688.0,0.4627
689.0,0.4649
690.0,0.4931
691.0,0.5253
692.0,0.5496
693.0,0.5446
694.0,0.5404
695.0,0.567
696.0,0.5679
697.0,0.6079
698.0,0.5983
699.0,0.5806
700.0,0.5734
701.0,0.5664
702.0,0.5716
703.0,0.5729
704.0,0.5933
705.0,0.5941
706.0,0.5944
707.0,0.5952
708.0,0.5964
709.0,0.5986
710.0,0.5979
711.0,0.5975
712.0,0.5963
713.0,0.5898
714.0,0.5921
715.0,0.5721
716.0,0.5721
717.0,0.4836
718.0,0.4426
719.0,0.4043
720.0,0.4224
721.0,0.4738
722.0,0.5501
723.0,0.508
724.0,0.4528
725.0,0.4439
726.0,0.4653
727.0,0.475
728.0,0.4422
729.0,0.4632
730.0,0.4897
731.0,0.4674
732.0,0.5046
733.0,0.5386
734.0,0.5527
735.0,0.5406
736.0,0.5398
737.0,0.5419
738.0,0.5534
739.0,0.5425
740.0,0.5576
741.0,0.5527
742.0,0.5538
743.0,0.5681
744.0,0.5668
745.0,0.5672
746.0,0.5698
747.0,0.5711
748.0,0.57
749.0,0.5635
750.0,0.5632
751.0,0.5575
752.0,0.5599
753.0,0.5628
754.0,0.5641
755.0,0.5609
756.0,0.5607
757.0,0.5615
758.0,0.5544
759.0,0.5412
760.0,0.06147
761.0,0.02812
762.0,0.2407
763.0,0.103
764.0,0.1694
765.0,0.2406
766.0,0.3117
767.0,0.4108
768.0,0.4887
769.0,0.5024
770.0,0.5233
771.0,0.5292
772.0,0.5309
773.0,0.5347
774.0,0.5322
775.0,0.5283
776.0,0.5348
777.0,0.5277
778.0,0.5245
779.0,0.5249
780.0,0.522
781.0,0.5226
782.0,0.5259
783.0,0.5168
784.0,0.5193
785.0,0.5154
786.0,0.5209
787.0,0.5103
788.0,0.5032
789.0,0.5029
790.0,0.4873
791.0,0.4937
792.0,0.4903
793.0,0.4822
794.0,0.4927
795.0,0.5004
796.0,0.482
797.0,0.4825
798.0,0.4995
799.0,0.4957
800.0,0.4864
801.0,0.4842
802.0,0.4828
803.0,0.4788
804.0,0.4798
805.0,0.4791
806.0,0.494
807.0,0.4877
808.0,0.4883
809.0,0.478
810.0,0.4734
811.0,0.4723
812.0,0.4569
813.0,0.4463
814.0,0.3863
815.0,0.3842
816.0,0.3569
817.0,0.364
818.0,0.3489
819.0,0.3956
820.0,0.3705
821.0,0.4408
822.0,0.4269
823.0,0.2783
824.0,0.4117
825.0,0.433
826.0,0.4141
827.0,0.4396
828.0,0.3654
829.0,0.4121
830.0,0.406
831.0,0.4076
832.0,0.3938
833.0,0.4225
834.0,0.4052
835.0,0.4504
836.0,0.4277
837.0,0.4518
838.0,0.4361
839.0,0.4454
840.0,0.4556
841.0,0.4484
842.0,0.4505
843.0,0.4514
844.0,0.4445
845.0,0.4604
846.0,0.4586
847.0,0.4504
848.0,0.4471
849.0,0.4344
850.0,0.4162
851.0,0.4401
852.0,0.4373
853.0,0.4214
854.0,0.3634
855.0,0.3998
856.0,0.4367
857.0,0.4468
858.0,0.4433
859.0,0.444
860.0,0.4449
861.0,0.4425
862.0,0.4495
863.0,0.4601
864.0,0.4371
865.0,0.4334
866.0,0.3897
867.0,0.4067
868.0,0.4426
869.0,0.4334
870.0,0.4458
871.0,0.4397
872.0,0.4382
873.0,0.4373
874.0,0.4321
875.0,0.4233
876.0,0.4277
877.0,0.4321
878.0,0.4366
879.0,0.43
880.0,0.4208
881.0,0.4142
882.0,0.423
883.0,0.4246
884.0,0.4226
885.0,0.4258
886.0,0.4048
887.0,0.4098
888.0,0.4154
889.0,0.421
890.0,0.4164
891.0,0.4163
892.0,0.4028
893.0,0.3887
894.0,0.372
895.0,0.3476
896.0,0.3262
897.0,0.2754
898.0,0.3031
899.0,0.225
900.0,0.3134
901.0,0.2359
902.0,0.2843
903.0,0.2846
904.0,0.3692
905.0,0.355
906.0,0.3309
907.0,0.2614
908.0,0.2678
909.0,0.2934
910.0,0.2533
911.0,0.2741
912.0,0.2875
913.0,0.2568
914.0,0.2558
915.0,0.2772
916.0,0.2334
917.0,0.3025
918.0,0.239
919.0,0.3099
920.0,0.3169
921.0,0.3298
922.0,0.2904
923.0,0.319
924.0,0.2968
925.0,0.2905
926.0,0.2932
927.0,0.3327
928.0,0.2314
929.0,0.2078
930.0,0.1579
931.0,0.1502
932.0,0.1026
933.0,0.0807
934.0,0.03877
935.0,0.08476
936.0,0.04936
937.0,0.04973
938.0,0.06249
939.0,0.1454
940.0,0.1789
941.0,0.1297
942.0,0.1533
943.0,0.09672
944.0,0.1058
945.0,0.1349
946.0,0.06315
947.0,0.134
948.0,0.09779
949.0,0.1848
950.0,0.04344
951.0,0.1829
952.0,0.09118
953.0,0.1225
954.0,0.1554
955.0,0.1244
956.0,0.1247
957.0,0.09076
958.0,0.1835
959.0,0.1396
960.0,0.1565
961.0,0.1805
962.0,0.1703
963.0,0.2006
964.0,0.1825
965.0,0.2001
966.0,0.1992
967.0,0.1979
968.0,0.2811
969.0,0.2918
970.0,0.2662
971.0,0.3117
972.0,0.2967
973.0,0.2513
974.0,0.2377
975.0,0.2494
976.0,0.2329
977.0,0.2728
978.0,0.2559
979.0,0.2702
980.0,0.2528
981.0,0.3101
982.0,0.2939
983.0,0.2807
984.0,0.3226
985.0,0.2928
986.0,0.3301
987.0,0.3214
988.0,0.321
989.0,0.3303
990.0,0.319
991.0,0.331
992.0,0.3332
993.0,0.3236
994.0,0.3333
995.0,0.3332
996.0,0.3314
997.0,0.332
998.0,0.3303
999.0,0.3292
1000.0,0.3264
1001.0,0.331
1002.0,0.3199
1003.0,0.3251
1004.0,0.3166
1005.0,0.3057
1006.0,0.3173
1007.0,0.3242
1008.0,0.3221
1009.0,0.3199
1010.0,0.3184
1011.0,0.3226
1012.0,0.3194
1013.0,0.3219
1014.0,0.3197
1015.0,0.3175
1016.0,0.316
1017.0,0.3168
1018.0,0.3158
1019.0,0.3083
1020.0,0.314
1021.0,0.3137
1022.0,0.311
1023.0,0.3143
1024.0,0.3094
1025.0,0.3143
1026.0,0.3128
1027.0,0.3121
1028.0,0.3114
1029.0,0.3076
1030.0,0.31
1031.0,0.3087
1032.0,0.3078
1033.0,0.3032
1034.0,0.3032
1035.0,0.3042
1036.0,0.3057
1037.0,0.3007
1038.0,0.302
1039.0,0.3018
1040.0,0.3006
1041.0,0.3017
1042.0,0.2996
1043.0,0.2986
1044.0,0.2996
1045.0,0.2955
1046.0,0.2922
1047.0,0.2947
1048.0,0.2963
1049.0,0.2952
1050.0,0.2937
1051.0,0.2932
1052.0,0.292
1053.0,0.2895
1054.0,0.2901
1055.0,0.2901
1056.0,0.289
1057.0,0.2879
1058.0,0.2808
1059.0,0.2809
1060.0,0.2804
1061.0,0.28
1062.0,0.2814
1063.0,0.2785
1064.0,0.2818
1065.0,0.2795
1066.0,0.2742
1067.0,0.2777
1068.0,0.2714
1069.0,0.2632
1070.0,0.2719
1071.0,0.2769
1072.0,0.2731
1073.0,0.2693
1074.0,0.2771
1075.0,0.261
1076.0,0.2767
1077.0,0.2705
1078.0,0.2649
1079.0,0.2726
1080.0,0.2664
1081.0,0.2568
1082.0,0.2628
1083.0,0.264
1084.0,0.2557
1085.0,0.2672
1086.0,0.2408
1087.0,0.2507
1088.0,0.2634
1089.0,0.2533
1090.0,0.2465
1091.0,0.262
1092.0,0.2617
1093.0,0.2162
1094.0,0.2388
1095.0,0.2258
1096.0,0.2146
1097.0,0.2557
1098.0,0.2105
1099.0,0.2205
1100.0,0.2026
1101.0,0.2059
1102.0,0.1951
1103.0,0.1921
1104.0,0.1924
1105.0,0.2149
1106.0,0.155
1107.0,0.2023
1108.0,0.1659
1109.0,0.1673
1110.0,0.1996
1111.0,0.128
1112.0,0.1664
1113.0,0.09857
1114.0,0.1107
1115.0,0.0914
1116.0,0.06878
1117.0,0.02114
1118.0,0.0761
1119.0,0.03422
1120.0,0.0427
1121.0,0.0587
1122.0,0.02177
1123.0,0.03874
1124.0,0.03265
1125.0,0.04347
1126.0,0.01232
1127.0,0.04931
1128.0,0.02633
1129.0,0.02832
1130.0,0.0177
1131.0,0.1016
1132.0,0.07817
1133.0,0.04515
1134.0,0.009395
1135.0,0.003658
1136.0,0.03615
1137.0,0.09822
1138.0,0.0684
1139.0,0.111
1140.0,0.08932
1141.0,0.06509
1142.0,0.07662
1143.0,0.1126
1144.0,0.03519
1145.0,0.0436
1146.0,0.04697
1147.0,0.01368
1148.0,0.09716
1149.0,0.07497
1150.0,0.03847
1151.0,0.06784
1152.0,0.08663
1153.0,0.08686
1154.0,0.04209
1155.0,0.1157
1156.0,0.1024
1157.0,0.1181
1158.0,0.1167
1159.0,0.1281
1160.0,0.1073
1161.0,0.1372
1162.0,0.1374
1163.0,0.1941
1164.0,0.1635
1165.0,0.1512
1166.0,0.1525
1167.0,0.1675
1168.0,0.1687
1169.0,0.1736
1170.0,0.1913
1171.0,0.1863
1172.0,0.1912
1173.0,0.1909
1174.0,0.1303
1175.0,0.1878
1176.0,0.2097
1177.0,0.1991
1178.0,0.145
1179.0,0.2115
1180.0,0.1852
1181.0,0.1913
1182.0,0.1271
1183.0,0.1892
1184.0,0.1756
1185.0,0.168
1186.0,0.2041
1187.0,0.1929
1188.0,0.1285
1189.0,0.1794
1190.0,0.1997
1191.0,0.1867
1192.0,0.2028
1193.0,0.1933
1194.0,0.1999
1195.0,0.1871
1196.0,0.179
1197.0,0.201
1198.0,0.1827
1199.0,0.1512
1200.0,0.1908
1201.0,0.1825
1202.0,0.1826
1203.0,0.1805
1204.0,0.1559
1205.0,0.188
1206.0,0.2098
1207.0,0.1815
1208.0,0.1799
1209.0,0.1839
1210.0,0.1926
1211.0,0.1818
1212.0,0.1776
1213.0,0.2019
1214.0,0.1827
1215.0,0.1789
1216.0,0.2014
1217.0,0.1953
1218.0,0.1997
1219.0,0.1968
1220.0,0.2
1221.0,0.2024
1222.0,0.1968
1223.0,0.1946
1224.0,0.1927
1225.0,0.2011
1226.0,0.203
1227.0,0.1852
1228.0,0.2045
1229.0,0.203
1230.0,0.1992
1231.0,0.2062
1232.0,0.2049
1233.0,0.1961
1234.0,0.2064
1235.0,0.2048
1236.0,0.2065
1237.0,0.2029
1238.0,0.2058
1239.0,0.2032
1240.0,0.204
1241.0,0.2026
1242.0,0.2026
1243.0,0.201
1244.0,0.2023
1245.0,0.2032
1246.0,0.202
1247.0,0.2011
1248.0,0.2008
1249.0,0.2016
1250.0,0.2002
1251.0,0.1974
1252.0,0.1978
1253.0,0.1956
1254.0,0.1931
1255.0,0.1974
1256.0,0.1907
1257.0,0.1894
1258.0,0.1939
1259.0,0.1851
1260.0,0.1863
1261.0,0.1736
1262.0,0.1673
1263.0,0.1675
1264.0,0.152
1265.0,0.1665
1266.0,0.1586
1267.0,0.1625
1268.0,0.1524
1269.0,0.0839
1270.0,0.1615
1271.0,0.1733
1272.0,0.1741
1273.0,0.172
1274.0,0.1729
1275.0,0.1758
1276.0,0.178
1277.0,0.1797
1278.0,0.184
1279.0,0.1823
1280.0,0.1801
1281.0,0.1722
1282.0,0.1666
1283.0,0.1793
1284.0,0.1835
1285.0,0.1848
1286.0,0.1877
1287.0,0.1841
1288.0,0.1842
1289.0,0.177
1290.0,0.1827
1291.0,0.1855
1292.0,0.1717
1293.0,0.1813
1294.0,0.1799
1295.0,0.1783
1296.0,0.1686
1297.0,0.1583
1298.0,0.1729
1299.0,0.1817
1300.0,0.1496
1301.0,0.155
1302.0,0.1724
1303.0,0.1481
1304.0,0.1225
1305.0,0.1686
1306.0,0.1683
1307.0,0.1265
1308.0,0.149
1309.0,0.1665
1310.0,0.1239
1311.0,0.142
1312.0,0.1375
1313.0,0.1341
1314.0,0.1186
1315.0,0.1162
1316.0,0.139
1317.0,0.1312
1318.0,0.1442
1319.0,0.108
1320.0,0.1057
1321.0,0.1247
1322.0,0.1251
1323.0,0.09029
1324.0,0.1061
1325.0,0.1367
1326.0,0.1149
1327.0,0.1089
1328.0,0.09259
1329.0,0.06614
1330.0,0.08782
1331.0,0.04916
1332.0,0.052
1333.0,0.07318
1334.0,0.06419
1335.0,0.08978
1336.0,0.06887
1337.0,0.06003
1338.0,0.06485
1339.0,0.06512
1340.0,0.06445
1341.0,0.06034
1342.0,0.06365
1343.0,0.03843
1344.0,0.0234
1345.0,0.03374
1346.0,0.01411
1347.0,0.01389
1348.0,0.0006155
1349.0,0.002447
1350.0,0.002733
1351.0,0.0004683
1352.0,8.338e-05
1353.0,2.911e-06
1354.0,1.318e-05
1355.0,4.587e-08
1356.0,1.395e-06
1357.0,2.134e-06
1358.0,5.622e-08
1359.0,3.71e-09
1360.0,2.042e-08
1361.0,6.336e-12
1362.0,1.106e-14
1363.0,2.15e-08
1364.0,9.066e-09
1365.0,2.178e-15
1366.0,1.111e-07
1367.0,5.372e-08
1368.0,8.4e-18
1369.0,3.324e-09
1370.0,1.249e-09
1371.0,5.288e-11
1372.0,2.996e-08
1373.0,9.19e-07
1374.0,5.75e-06
1375.0,9.978e-06
1376.0,1.208e-05
1377.0,5.216e-06
1378.0,5.615e-05
1379.0,2.196e-06
1380.0,2.582e-06
1381.0,5.855e-08
1382.0,2.49e-08
1383.0,3.07e-10
1384.0,3.337e-09
1385.0,3.269e-08
1386.0,1.814e-08
1387.0,4.794e-06
1388.0,1.02e-07
1389.0,2.328e-05
1390.0,1.963e-05
1391.0,1.254e-05
1392.0,7.668e-07
1393.0,4.734e-06
1394.0,1.458e-06
1395.0,8.051e-09
1396.0,1.076e-11
1397.0,1.68e-06
1398.0,6.041e-05
1399.0,3.902e-05
1400.0,3.31e-12
1401.0,2.184e-11
1402.0,0.0001706
1403.0,0.000196
1404.0,5.727e-05
1405.0,3.095e-09
1406.0,0.0001277
1407.0,1.32e-05
1408.0,0.0001077
1409.0,2.821e-05
1410.0,2.753e-05
1411.0,0.0001756
1412.0,0.0002669
1413.0,0.003797
1414.0,2.252e-05
1415.0,9.685e-06
1416.0,0.007851
1417.0,0.001913
1418.0,0.00204
1419.0,0.0003007
1420.0,0.001236
1421.0,0.001385
1422.0,0.01032
1423.0,0.001893
1424.0,0.0037
1425.0,0.005155
1426.0,0.00649
1427.0,0.01332
1428.0,0.0005564
1429.0,0.009206
1430.0,0.01768
1431.0,0.01994
1432.0,0.0004311
1433.0,0.01201
1434.0,0.005788
1435.0,0.004728
1436.0,0.01071
