interpolation:linear
wavelength,value
280.0,1.142e-20
280.5,3.413e-19
281.0,1.774e-18
281.5,4.442e-19
282.0,1.518e-18
282.5,4.081e-18
283.0,1.326e-17
283.5,2.173e-17
284.0,3.449e-16
284.5,9.817e-16
285.0,1.872e-15
285.5,1.008e-14
286.0,4.128e-14
286.5,1.873e-13
287.0,5.365e-13
287.5,2.044e-12
288.0,5.463e-12
288.5,1.995e-11
289.0,6.151e-11
289.5,2.103e-10
290.0,6.364e-10
290.5,1.386e-09
291.0,3.199e-09
291.5,1.002e-08
292.0,2.496e-08
292.5,3.957e-08
293.0,9.954e-08
293.5,3.041e-07
294.0,5.64e-07
294.5,7.561e-07
295.0,1.52e-06
295.5,4.125e-06
296.0,8.136e-06
296.5,1.164e-05
297.0,1.605e-05
297.5,4.427e-05
298.0,7.149e-05
298.5,7.333e-05
299.0,0.0001648
299.5,0.0002829
300.0,0.0003175
300.5,0.0004702
301.0,0.0008841
301.5,0.001468
302.0,0.001287
302.5,0.002481
303.0,0.004375
303.5,0.00544
304.0,0.005063
304.5,0.007365
305.0,0.01077
305.5,0.01205
306.0,0.01156
306.5,0.01417
307.0,0.02034
307.5,0.02618
308.0,0.02751
308.5,0.03198
309.0,0.03116
309.5,0.03487
310.0,0.03467
310.5,0.05586
311.0,0.06951
311.5,0.06685
312.0,0.06558
312.5,0.07878
313.0,0.08488
313.5,0.08295
314.0,0.1021
314.5,0.08867
315.0,0.1161
315.5,0.09812
316.0,0.08425
316.5,0.1192
317.0,0.148
317.5,0.1547
318.0,0.1195
318.5,0.1455
319.0,0.1709
319.5,0.1416
320.0,0.1715
320.5,0.2103
321.0,0.1839
321.5,0.176
322.0,0.1913
322.5,0.1663
323.0,0.1635
323.5,0.1985
324.0,0.2313
324.5,0.236
325.0,0.2053
325.5,0.2613
326.0,0.3185
326.5,0.3168
327.0,0.3165
327.5,0.3068
328.0,0.2757
328.5,0.2865
329.0,0.34
329.5,0.3849
330.0,0.3891
330.5,0.3136
331.0,0.3203
331.5,0.3239
332.0,0.3473
332.5,0.3424
333.0,0.3421
333.5,0.3113
334.0,0.3193
334.5,0.3661
335.0,0.3427
335.5,0.4003
336.0,0.277
336.5,0.325
337.0,0.2674
337.5,0.3329
338.0,0.3233
338.5,0.3731
339.0,0.3693
339.5,0.3553
340.0,0.4176
340.5,0.3763
341.0,0.367
341.5,0.3369
342.0,0.4027
342.5,0.3767
343.0,0.4144
343.5,0.3903
344.0,0.2884
344.5,0.2914
345.0,0.3855
345.5,0.3936
346.0,0.3345
346.5,0.3788
347.0,0.4067
347.5,0.3289
348.0,0.3749
348.5,0.3747
349.0,0.3476
349.5,0.3442
350.0,0.4257
350.5,0.4491
351.0,0.4013
351.5,0.3901
352.0,0.419
352.5,0.3269
353.0,0.4118
353.5,0.4403
354.0,0.4572
354.5,0.4637
355.0,0.4622
355.5,0.4175
356.0,0.4369
356.5,0.3731
357.0,0.3083
357.5,0.3774
358.0,0.2991
358.5,0.2557
359.0,0.3576
359.5,0.4558
360.0,0.4832
360.5,0.3863
361.0,0.3521
361.5,0.4055
362.0,0.3507
362.5,0.4854
363.0,0.436
363.5,0.4016
364.0,0.4912
364.5,0.4199
365.0,0.4277
365.5,0.5369
366.0,0.5689
366.5,0.5346
367.0,0.5206
367.5,0.5403
368.0,0.4729
368.5,0.4772
369.0,0.5154
369.5,0.5495
370.0,0.5858
370.5,0.4547
371.0,0.4859
371.5,0.608
372.0,0.4036
372.5,0.4839
373.0,0.4923
373.5,0.3204
374.0,0.4656
374.5,0.3856
375.0,0.3749
375.5,0.5597
376.0,0.4641
376.5,0.481
377.0,0.5093
377.5,0.5959
378.0,0.646
378.5,0.6107
379.0,0.504
379.5,0.4604
380.0,0.4788
380.5,0.5799
381.0,0.5812
381.5,0.4608
382.0,0.4093
382.5,0.3489
383.0,0.3231
383.5,0.3112
384.0,0.3433
384.5,0.5051
385.0,0.5009
385.5,0.4666
386.0,0.3996
386.5,0.525
387.0,0.4363
387.5,0.4901
388.0,0.4526
388.5,0.4474
389.0,0.483
389.5,0.5851
390.0,0.5873
390.5,0.5405
391.0,0.6363
391.5,0.6491
392.0,0.5468
392.5,0.4896
393.0,0.2724
393.5,0.1981
394.0,0.4031
394.5,0.5125
395.0,0.6255
395.5,0.6354
396.0,0.551
396.5,0.3221
397.0,0.2418
397.5,0.4918
398.0,0.6887
398.5,0.7119
399.0,0.771
399.5,0.7686
400.0,0.7981
401.0,0.8102
402.0,0.8549
403.0,0.8123
404.0,0.7999
405.0,0.7999
406.0,0.787
407.0,0.7744
408.0,0.8048
409.0,0.8615
410.0,0.7529
411.0,0.8156
412.0,0.876
413.0,0.8544
414.0,0.865
415.0,0.8674
416.0,0.8826
417.0,0.8611
418.0,0.8452
419.0,0.8564
420.0,0.8527
421.0,0.8922
422.0,0.8481
423.0,0.8285
424.0,0.8764
425.0,0.8749
426.0,0.8522
427.0,0.8364
428.0,0.8148
429.0,0.7718
430.0,0.6755
431.0,0.6696
432.0,0.8646
433.0,0.8694
434.0,0.8074
435.0,0.8432
436.0,0.9501
437.0,0.9374
438.0,0.8536
439.0,0.883
440.0,0.9112
441.0,0.9442
442.0,1.013
443.0,0.9864
444.0,1.008
445.0,0.9861
446.0,0.941
447.0,1.017
448.0,1.033
449.0,1.037
450.0,1.066
451.0,1.106
452.0,1.065
453.0,1.002
454.0,1.046
455.0,1.053
456.0,1.078
457.0,1.096
458.0,1.058
459.0,1.053
460.0,1.056
461.0,1.08
462.0,1.088
463.0,1.081
464.0,1.063
465.0,1.049
466.0,1.06
467.0,1.04
468.0,1.052
469.0,1.058
470.0,1.024
471.0,1.023
472.0,1.078
473.0,1.064
474.0,1.066
475.0,1.075
476.0,1.043
477.0,1.046
478.0,1.075
479.0,1.068
480.0,1.07
481.0,1.09
482.0,1.096
483.0,1.082
484.0,1.06
485.0,1.01
486.0,0.8828
487.0,0.9251
488.0,1.015
489.0,1.018
490.0,1.071
491.0,1.053
492.0,0.994
493.0,1.026
494.0,1.037
495.0,1.046
496.0,1.052
497.0,1.068
498.0,1.018
499.0,1.031
500.0,1.002
501.0,0.9832
502.0,0.9696
503.0,1.009
504.0,0.9843
505.0,1.019
506.0,1.052
507.0,1.001
508.0,0.9696
509.0,0.9967
510.0,0.9913
511.0,1.018
512.0,1.029
513.0,0.9737
514.0,0.9669
515.0,0.9573
516.0,0.955
517.0,0.8485
518.0,0.8921
519.0,0.9357
520.0,0.9698
521.0,0.979
522.0,0.9799
523.0,0.9623
524.0,0.9969
525.0,1.009
526.0,0.9637
527.0,0.9082
528.0,0.9606
529.0,1.013
530.0,0.9981
531.0,1.013
532.0,0.9782
533.0,0.9496
534.0,0.9776
535.0,0.9988
536.0,1.008
537.0,0.9681
538.0,0.9852
539.0,0.9769
540.0,0.9367
541.0,0.9431
542.0,0.9727
543.0,0.9623
544.0,0.9791
545.0,0.9761
546.0,0.9805
547.0,0.9799
548.0,0.9682
549.0,0.971
550.0,0.9826
551.0,0.9706
552.0,0.9774
553.0,0.9599
554.0,0.9829
555.0,0.9849
556.0,0.9721
557.0,0.9419
558.0,0.9349
559.0,0.9176
560.0,0.9291
561.0,0.9412
562.0,0.9345
563.0,0.9601
564.0,0.934
565.0,0.9261
566.0,0.9125
567.0,0.9299
568.0,0.9219
569.0,0.9005
570.0,0.9002
571.0,0.8946
572.0,0.9164
573.0,0.9263
574.0,0.9234
575.0,0.9063
576.0,0.898
577.0,0.9077
578.0,0.894
579.0,0.8973
580.0,0.914
581.0,0.9184
582.0,0.9356
583.0,0.9377
584.0,0.9457
585.0,0.9225
586.0,0.9036
587.0,0.9235
588.0,0.9017
589.0,0.8001
590.0,0.8366
591.0,0.8845
592.0,0.8738
593.0,0.8862
594.0,0.8803
595.0,0.859
596.0,0.8918
597.0,0.8824
598.0,0.8799
599.0,0.8805
600.0,0.8816
601.0,0.8742
602.0,0.8682
603.0,0.8825
604.0,0.897
605.0,0.8924
606.0,0.8886
607.0,0.8973
608.0,0.8873
609.0,0.8887
610.0,0.8823
611.0,0.8868
612.0,0.8842
613.0,0.873
614.0,0.861
615.0,0.8796
616.0,0.8506
617.0,0.8488
618.0,0.8815
619.0,0.8725
620.0,0.878
621.0,0.8789
622.0,0.8687
623.0,0.8556
624.0,0.8409
625.0,0.839
626.0,0.8514
627.0,0.8611
628.0,0.8067
629.0,0.8416
630.0,0.8223
631.0,0.84
632.0,0.8298
633.0,0.8547
634.0,0.8461
635.0,0.8592
636.0,0.8476
637.0,0.8614
638.0,0.8695
639.0,0.8597
640.0,0.8512
641.0,0.8506
642.0,0.8466
643.0,0.858
644.0,0.8551
645.0,0.8566
646.0,0.8369
647.0,0.8276
648.0,0.8284
649.0,0.8125
650.0,0.8155
651.0,0.8507
652.0,0.8162
653.0,0.8394
654.0,0.83
655.0,0.7995
656.0,0.7083
657.0,0.7273
658.0,0.8148
659.0,0.8205
660.0,0.8239
661.0,0.8297
662.0,0.8315
663.0,0.815
664.0,0.8244
665.0,0.8249
666.0,0.8255
667.0,0.8246
668.0,0.8249
669.0,0.8376
670.0,0.8339
671.0,0.8337
672.0,0.8265
673.0,0.8389
674.0,0.8358
675.0,0.8281
676.0,0.8338
677.0,0.8255
678.0,0.8278
679.0,0.8144
680.0,0.8209
681.0,0.8155
682.0,0.8144
683.0,0.8128
684.0,0.8088
685.0,0.8157
686.0,0.8109
687.0,0.5489
688.0,0.6383
689.0,0.6404
690.0,0.67
691.0,0.7033
692.0,0.7274
693.0,0.7216
694.0,0.7155
695.0,0.7439
696.0,0.7449
697.0,0.7889
698.0,0.7767
699.0,0.7592
700.0,0.75
701.0,0.7427
702.0,0.7475
703.0,0.7488
704.0,0.7722
705.0,0.7733
706.0,0.7724
707.0,0.7729
708.0,0.7746
709.0,0.7753
710.0,0.7755
711.0,0.7743
712.0,0.7718
713.0,0.7642
714.0,0.767
715.0,0.7432
716.0,0.7437
717.0,0.6489
718.0,0.5966
719.0,0.5469
720.0,0.5732
721.0,0.6304
722.0,0.7186
723.0,0.6703
724.0,0.6054
725.0,0.5962
726.0,0.6239
727.0,0.6319
728.0,0.5949
729.0,0.6158
730.0,0.6517
731.0,0.6239
732.0,0.6659
733.0,0.7035
734.0,0.7198
735.0,0.7051
736.0,0.7042
737.0,0.7071
738.0,0.717
739.0,0.7029
740.0,0.7209
741.0,0.7136
742.0,0.7141
743.0,0.7322
744.0,0.73
745.0,0.7301
746.0,0.7334
747.0,0.735
748.0,0.7335
749.0,0.7251
750.0,0.7246
751.0,0.7173
752.0,0.7204
753.0,0.724
754.0,0.7256
755.0,0.7215
756.0,0.7212
757.0,0.7223
758.0,0.7133
759.0,0.6994
760.0,0.1253
761.0,0.06738
762.0,0.3672
763.0,0.1884
764.0,0.279
765.0,0.3673
766.0,0.4467
767.0,0.5594
768.0,0.6422
769.0,0.6549
770.0,0.6763
771.0,0.6814
772.0,0.6827
773.0,0.6875
774.0,0.6841
775.0,0.6789
776.0,0.6871
777.0,0.6781
778.0,0.674
779.0,0.6745
780.0,0.6707
781.0,0.6714
782.0,0.6756
783.0,0.6638
784.0,0.667
785.0,0.6621
786.0,0.6694
787.0,0.6581
788.0,0.6501
789.0,0.6499
790.0,0.6332
791.0,0.6381
792.0,0.6333
793.0,0.6231
794.0,0.6332
795.0,0.6441
796.0,0.625
797.0,0.6258
798.0,0.6434
799.0,0.6394
800.0,0.6285
801.0,0.6267
802.0,0.6249
803.0,0.6202
804.0,0.621
805.0,0.6188
806.0,0.6359
807.0,0.6283
808.0,0.6288
809.0,0.6173
810.0,0.6124
811.0,0.6135
812.0,0.5965
813.0,0.5843
814.0,0.5157
815.0,0.5125
816.0,0.4772
817.0,0.4858
818.0,0.468
819.0,0.5218
820.0,0.4919
821.0,0.5731
822.0,0.557
823.0,0.3818
824.0,0.5415
825.0,0.5632
826.0,0.5424
827.0,0.5718
828.0,0.4865
829.0,0.539
830.0,0.5321
831.0,0.5339
832.0,0.5179
833.0,0.5501
834.0,0.5312
835.0,0.5824
836.0,0.5582
837.0,0.584
838.0,0.5661
839.0,0.5751
840.0,0.5876
841.0,0.5794
842.0,0.5805
843.0,0.58
844.0,0.572
845.0,0.5912
846.0,0.5885
847.0,0.5775
848.0,0.574
849.0,0.5577
850.0,0.5343
851.0,0.5658
852.0,0.5618
853.0,0.5407
854.0,0.4669
855.0,0.5129
856.0,0.5605
857.0,0.573
858.0,0.5688
859.0,0.5693
860.0,0.5702
861.0,0.5671
862.0,0.576
863.0,0.5896
864.0,0.5602
865.0,0.5553
866.0,0.4993
867.0,0.521
868.0,0.567
869.0,0.5552
870.0,0.571
871.0,0.5632
872.0,0.5613
873.0,0.5601
874.0,0.5535
875.0,0.5423
876.0,0.5479
877.0,0.5534
878.0,0.5594
879.0,0.5508
880.0,0.539
881.0,0.531
882.0,0.5425
883.0,0.5442
884.0,0.5417
885.0,0.5457
886.0,0.5202
887.0,0.5257
888.0,0.5334
889.0,0.5395
890.0,0.535
891.0,0.5341
892.0,0.5187
893.0,0.5026
894.0,0.4851
895.0,0.4586
896.0,0.4321
897.0,0.3715
898.0,0.4052
899.0,0.3086
900.0,0.4147
901.0,0.3234
902.0,0.3791
903.0,0.383
904.0,0.4815
905.0,0.465
906.0,0.4352
907.0,0.354
908.0,0.361
909.0,0.3909
910.0,0.346
911.0,0.3686
912.0,0.3853
913.0,0.3511
914.0,0.3481
915.0,0.3773
916.0,0.3194
917.0,0.4051
918.0,0.3275
919.0,0.4124
920.0,0.4165
921.0,0.4332
922.0,0.3874
923.0,0.4184
924.0,0.3971
925.0,0.3884
926.0,0.3927
927.0,0.4395
928.0,0.3226
929.0,0.2945
930.0,0.2314
931.0,0.2192
932.0,0.1577
933.0,0.1281
934.0,0.06996
935.0,0.1311
936.0,0.08172
937.0,0.08279
938.0,0.1019
939.0,0.2124
940.0,0.2556
941.0,0.1927
942.0,0.2233
943.0,0.1466
944.0,0.1546
945.0,0.1988
946.0,0.1008
947.0,0.1996
948.0,0.1466
949.0,0.2675
950.0,0.07377
951.0,0.2635
952.0,0.1411
953.0,0.1825
954.0,0.2242
955.0,0.1846
956.0,0.1795
957.0,0.1412
958.0,0.2548
959.0,0.202
960.0,0.2264
961.0,0.2545
962.0,0.2407
963.0,0.2778
964.0,0.2544
965.0,0.2768
966.0,0.2768
967.0,0.2756
968.0,0.3705
969.0,0.3869
970.0,0.3552
971.0,0.4071
972.0,0.3893
973.0,0.3385
974.0,0.3212
975.0,0.3336
976.0,0.3165
977.0,0.3607
978.0,0.3424
979.0,0.3588
980.0,0.3372
981.0,0.4047
982.0,0.3868
983.0,0.3712
984.0,0.4172
985.0,0.3853
986.0,0.4246
987.0,0.4162
988.0,0.4154
989.0,0.4234
990.0,0.413
991.0,0.4247
992.0,0.4271
993.0,0.4175
994.0,0.427
995.0,0.4265
996.0,0.4246
997.0,0.4252
998.0,0.4232
999.0,0.4217
1000.0,0.4187
1001.0,0.424
1002.0,0.4121
1003.0,0.4165
1004.0,0.4062
1005.0,0.3914
1006.0,0.4067
1007.0,0.4153
1008.0,0.413
1009.0,0.4108
1010.0,0.409
1011.0,0.4132
1012.0,0.4096
1013.0,0.4122
1014.0,0.4093
1015.0,0.4066
1016.0,0.4048
1017.0,0.4058
1018.0,0.4043
1019.0,0.3956
1020.0,0.4021
1021.0,0.4016
1022.0,0.3985
1023.0,0.4027
1024.0,0.3974
1025.0,0.4024
1026.0,0.4007
1027.0,0.3998
1028.0,0.3989
1029.0,0.3942
1030.0,0.3969
1031.0,0.3953
1032.0,0.3942
1033.0,0.3882
1034.0,0.3883
1035.0,0.3895
1036.0,0.3915
1037.0,0.3851
1038.0,0.3868
1039.0,0.3866
1040.0,0.385
1041.0,0.3866
1042.0,0.3839
1043.0,0.3826
1044.0,0.384
1045.0,0.3788
1046.0,0.3746
1047.0,0.3779
1048.0,0.38
1049.0,0.3786
1050.0,0.3769
1051.0,0.3764
1052.0,0.3748
1053.0,0.3718
1054.0,0.3726
1055.0,0.3728
1056.0,0.3715
1057.0,0.3703
1058.0,0.3612
1059.0,0.3616
1060.0,0.361
1061.0,0.3606
1062.0,0.3625
1063.0,0.3589
1064.0,0.3632
1065.0,0.3605
1066.0,0.3534
1067.0,0.358
1068.0,0.3501
1069.0,0.3393
1070.0,0.3508
1071.0,0.3564
1072.0,0.3522
1073.0,0.3471
1074.0,0.3562
1075.0,0.3381
1076.0,0.3559
1077.0,0.3494
1078.0,0.3427
1079.0,0.3502
1080.0,0.344
1081.0,0.3329
1082.0,0.3384
1083.0,0.3395
1084.0,0.332
1085.0,0.3448
1086.0,0.3144
1087.0,0.3247
1088.0,0.3391
1089.0,0.3285
1090.0,0.3212
1091.0,0.3379
1092.0,0.3371
1093.0,0.2853
1094.0,0.3084
1095.0,0.2974
1096.0,0.2846
1097.0,0.3293
1098.0,0.2801
1099.0,0.2922
1100.0,0.2714
1101.0,0.2749
1102.0,0.2624
1103.0,0.2598
1104.0,0.2601
1105.0,0.2855
1106.0,0.2176
1107.0,0.271
1108.0,0.2292
1109.0,0.2297
1110.0,0.2685
1111.0,0.1815
1112.0,0.228
1113.0,0.1444
1114.0,0.1615
1115.0,0.1338
1116.0,0.1064
1117.0,0.03855
1118.0,0.1159
1119.0,0.05708
1120.0,0.07183
1121.0,0.09561
1122.0,0.03984
1123.0,0.06493
1124.0,0.0548
1125.0,0.0716
1126.0,0.02452
1127.0,0.0808
1128.0,0.0479
1129.0,0.05089
1130.0,0.03331
1131.0,0.1543
1132.0,0.1208
1133.0,0.076
1134.0,0.01908
1135.0,0.00717
1136.0,0.06319
1137.0,0.1514
1138.0,0.1065
1139.0,0.16
1140.0,0.1332
1141.0,0.1012
1142.0,0.1167
1143.0,0.1661
1144.0,0.0575
1145.0,0.07332
1146.0,0.07907
1147.0,0.02738
1148.0,0.1438
1149.0,0.1145
1150.0,0.0619
1151.0,0.1057
1152.0,0.1305
1153.0,0.1274
1154.0,0.07099
1155.0,0.1668
1156.0,0.15
1157.0,0.1686
1158.0,0.1668
1159.0,0.1802
1160.0,0.1537
1161.0,0.1898
1162.0,0.1907
1163.0,0.258
1164.0,0.2211
1165.0,0.2085
1166.0,0.2071
1167.0,0.2257
1168.0,0.2281
1169.0,0.2336
1170.0,0.2539
1171.0,0.2475
1172.0,0.252
1173.0,0.2533
1174.0,0.181
1175.0,0.2475
1176.0,0.2719
1177.0,0.2611
1178.0,0.1963
1179.0,0.2741
1180.0,0.2448
1181.0,0.2526
1182.0,0.1746
1183.0,0.2487
1184.0,0.2332
1185.0,0.2251
1186.0,0.2666
1187.0,0.254
1188.0,0.1775
1189.0,0.2367
1190.0,0.2605
1191.0,0.2476
1192.0,0.2641
1193.0,0.2532
1194.0,0.2609
1195.0,0.2469
1196.0,0.2379
1197.0,0.2609
1198.0,0.2389
1199.0,0.2036
1200.0,0.25
1201.0,0.2413
1202.0,0.2398
1203.0,0.2378
1204.0,0.2082
1205.0,0.2452
1206.0,0.2706
1207.0,0.2392
1208.0,0.2353
1209.0,0.2401
1210.0,0.25
1211.0,0.2383
1212.0,0.2357
1213.0,0.2618
1214.0,0.2412
1215.0,0.2367
1216.0,0.261
1217.0,0.2542
1218.0,0.2589
1219.0,0.2558
1220.0,0.2591
1221.0,0.2616
1222.0,0.2549
1223.0,0.2526
1224.0,0.2511
1225.0,0.26
1226.0,0.2617
1227.0,0.2417
1228.0,0.2629
1229.0,0.2617
1230.0,0.2573
1231.0,0.2644
1232.0,0.2628
1233.0,0.2541
1234.0,0.2641
1235.0,0.2625
1236.0,0.2644
1237.0,0.2608
1238.0,0.2635
1239.0,0.2601
1240.0,0.2611
1241.0,0.2599
1242.0,0.2593
1243.0,0.2572
1244.0,0.259
1245.0,0.2601
1246.0,0.2586
1247.0,0.2576
1248.0,0.2575
1249.0,0.2582
1250.0,0.2567
1251.0,0.2534
1252.0,0.2534
1253.0,0.2515
1254.0,0.249
1255.0,0.2532
1256.0,0.2462
1257.0,0.2449
1258.0,0.2494
1259.0,0.2406
1260.0,0.2418
1261.0,0.2285
1262.0,0.2218
1263.0,0.2223
1264.0,0.2055
1265.0,0.2208
1266.0,0.2127
1267.0,0.2163
1268.0,0.2053
1269.0,0.1288
1270.0,0.2156
1271.0,0.2277
1272.0,0.2284
1273.0,0.2261
1274.0,0.2267
1275.0,0.23
1276.0,0.2321
1277.0,0.2336
1278.0,0.238
1279.0,0.2358
1280.0,0.2329
1281.0,0.2221
1282.0,0.2139
1283.0,0.2304
1284.0,0.236
1285.0,0.2375
1286.0,0.2407
1287.0,0.237
1288.0,0.237
1289.0,0.2297
1290.0,0.2349
1291.0,0.2381
1292.0,0.224
1293.0,0.2336
1294.0,0.2319
1295.0,0.2309
1296.0,0.2207
1297.0,0.2089
1298.0,0.2245
1299.0,0.2338
1300.0,0.1985
1301.0,0.2045
1302.0,0.2238
1303.0,0.1958
1304.0,0.1675
1305.0,0.2192
1306.0,0.2193
1307.0,0.1709
1308.0,0.196
1309.0,0.2176
1310.0,0.1677
1311.0,0.1881
1312.0,0.183
1313.0,0.1796
1314.0,0.1609
1315.0,0.1589
1316.0,0.1851
1317.0,0.1754
1318.0,0.1905
1319.0,0.1493
1320.0,0.1446
1321.0,0.1683
1322.0,0.17
1323.0,0.1283
1324.0,0.1465
1325.0,0.1825
1326.0,0.1569
1327.0,0.1496
1328.0,0.1291
1329.0,0.09715
1330.0,0.1264
1331.0,0.07642
1332.0,0.07888
1333.0,0.1098
1334.0,0.09291
1335.0,0.1278
1336.0,0.1011
1337.0,0.08942
1338.0,0.09677
1339.0,0.09633
1340.0,0.09367
1341.0,0.09151
1342.0,0.09612
1343.0,0.06512
1344.0,0.03899
1345.0,0.05624
1346.0,0.02793
1347.0,0.02839
1348.0,0.001852
1349.0,0.006646
1350.0,0.006897
1351.0,0.001685
1352.0,0.0004586
1353.0,2.362e-05
1354.0,8.094e-05
1355.0,6.661e-07
1356.0,1.155e-05
1357.0,1.759e-05
1358.0,7.884e-07
1359.0,1.01e-07
1360.0,3.629e-07
1361.0,4.196e-10
1362.0,1.166e-12
1363.0,4.944e-07
1364.0,2.049e-07
1365.0,4.176e-13
1366.0,2.153e-06
1367.0,8.793e-07
1368.0,3.36e-15
1369.0,7.666e-08
1370.0,3.809e-08
1371.0,2.182e-09
1372.0,4.839e-07
1373.0,9.683e-06
1374.0,4.474e-05
1375.0,8.141e-05
1376.0,7.282e-05
1377.0,3.341e-05
1378.0,0.0003266
1379.0,1.404e-05
1380.0,2.032e-05
1381.0,5.33e-07
1382.0,4.373e-07
1383.0,6.592e-09
1384.0,8.696e-08
1385.0,4.107e-07
1386.0,3.917e-07
1387.0,4.665e-05
1388.0,9.204e-07
1389.0,0.0001573
1390.0,0.0001354
1391.0,9.042e-05
1392.0,5.891e-06
1393.0,3.119e-05
1394.0,1.629e-05
1395.0,1.207e-07
1396.0,6.022e-10
1397.0,1.245e-05
1398.0,0.0003673
1399.0,0.0002329
1400.0,2.625e-10
1401.0,1.081e-09
1402.0,0.0006449
1403.0,0.0008115
1404.0,0.0002474
1405.0,5.909e-08
1406.0,0.000645
1407.0,5.689e-05
1408.0,0.0005275
1409.0,0.0001773
1410.0,0.0001418
1411.0,0.0007135
1412.0,0.000963
1413.0,0.009978
1414.0,0.0001119
1415.0,5.373e-05
1416.0,0.01656
1417.0,0.004926
1418.0,0.005598
1419.0,0.0008649
1420.0,0.003422
1421.0,0.003701
1422.0,0.02164
1423.0,0.004168
1424.0,0.007839
1425.0,0.01149
1426.0,0.01316
1427.0,0.0245
1428.0,0.001739
1429.0,0.01817
1430.0,0.03137
1431.0,0.03456
1432.0,0.001367
1433.0,0.02183
1434.0,0.01103
1435.0,0.01075
1436.0,0.02118
1437.0,0.01623
1438.0,0.006736
1439.0,0.02899
1440.0,0.0217
1441.0,0.01631
1442.0,0.01811
1443.0,0.02312
1444.0,0.03225
