interpolation:linear
wavelength,value
280.0,3.254e-21
280.5,1.017e-19
281.0,5.359e-19
281.5,3.319e-19
282.0,1.038e-18
282.5,2.768e-18
283.0,9.025e-18
283.5,1.481e-17
284.0,2.425e-16
284.5,7.005e-16
285.0,1.595e-15
285.5,7.788e-15
286.0,3.118e-14
286.5,1.376e-13
287.0,3.893e-13
287.5,1.472e-12
288.0,3.867e-12
288.5,1.296e-11
289.0,3.703e-11
289.5,1.179e-10
290.0,3.381e-10
290.5,7.051e-10
291.0,1.547e-09
291.5,4.547e-09
292.0,1.006e-08
292.5,1.521e-08
293.0,3.59e-08
293.5,9.958e-08
294.0,1.711e-07
294.5,2.214e-07
295.0,4.116e-07
295.5,1.094e-06
296.0,2.192e-06
296.5,3.197e-06
297.0,4.492e-06
297.5,1.281e-05
298.0,2.135e-05
298.5,2.251e-05
299.0,5.208e-05
299.5,9.453e-05
300.0,0.0001098
300.5,0.0001689
301.0,0.0003407
301.5,0.000611
302.0,0.0005619
302.5,0.001108
303.0,0.002011
303.5,0.002551
304.0,0.002408
304.5,0.003635
305.0,0.005592
305.5,0.006459
306.0,0.006273
306.5,0.007851
307.0,0.01177
307.5,0.01579
308.0,0.0167
308.5,0.01981
309.0,0.01951
309.5,0.02241
310.0,0.02256
310.5,0.03657
311.0,0.04597
311.5,0.04441
312.0,0.04453
312.5,0.05429
313.0,0.05894
313.5,0.0572
314.0,0.07166
314.5,0.06369
315.0,0.08374
315.5,0.07
316.0,0.06124
316.5,0.08806
317.0,0.1093
317.5,0.1138
318.0,0.08884
318.5,0.1105
319.0,0.1312
319.5,0.1069
320.0,0.1291
320.5,0.1618
321.0,0.1442
321.5,0.1383
322.0,0.1473
322.5,0.1282
323.0,0.1277
323.5,0.157
324.0,0.1833
324.5,0.1861
325.0,0.1608
325.5,0.2069
326.0,0.253
326.5,0.2534
327.0,0.2526
327.5,0.244
328.0,0.2174
328.5,0.2285
329.0,0.2735
329.5,0.3104
330.0,0.3133
330.5,0.2509
331.0,0.2557
331.5,0.2598
332.0,0.2807
332.5,0.2776
333.0,0.2769
333.5,0.2507
334.0,0.2569
334.5,0.2964
335.0,0.2786
335.5,0.3254
336.0,0.2252
336.5,0.2638
337.0,0.2165
337.5,0.2694
338.0,0.263
338.5,0.3036
339.0,0.3006
339.5,0.2892
340.0,0.34
340.5,0.3065
341.0,0.299
341.5,0.2746
342.0,0.3282
342.5,0.3072
343.0,0.3379
343.5,0.3182
344.0,0.2352
344.5,0.2376
345.0,0.3146
345.5,0.3213
346.0,0.2731
346.5,0.3094
347.0,0.3322
347.5,0.2687
348.0,0.3064
348.5,0.3063
349.0,0.2842
349.5,0.2815
350.0,0.3483
350.5,0.3675
351.0,0.3283
351.5,0.3191
352.0,0.3429
352.5,0.2677
353.0,0.3373
353.5,0.3607
354.0,0.3746
354.5,0.3799
355.0,0.3787
355.5,0.3423
356.0,0.3582
356.5,0.3059
357.0,0.2528
357.5,0.3096
358.0,0.2454
358.5,0.2097
359.0,0.2934
359.5,0.374
360.0,0.3965
360.5,0.317
361.0,0.2891
361.5,0.333
362.0,0.2881
362.5,0.3989
363.0,0.3584
363.5,0.3303
364.0,0.404
364.5,0.3454
365.0,0.3519
365.5,0.4418
366.0,0.4682
366.5,0.4401
367.0,0.4287
367.5,0.445
368.0,0.3895
368.5,0.3932
369.0,0.4247
369.5,0.4529
370.0,0.4829
370.5,0.3749
371.0,0.4007
371.5,0.5014
372.0,0.3329
372.5,0.3993
373.0,0.4063
373.5,0.2644
374.0,0.3843
374.5,0.3184
375.0,0.3096
375.5,0.4623
376.0,0.3833
376.5,0.3973
377.0,0.4208
377.5,0.4924
378.0,0.5339
378.5,0.5047
379.0,0.4166
379.5,0.3806
380.0,0.3958
380.5,0.4795
381.0,0.4807
381.5,0.3812
382.0,0.3387
382.5,0.2888
383.0,0.2675
383.5,0.2577
384.0,0.2843
384.5,0.4184
385.0,0.415
385.5,0.3866
386.0,0.3312
386.5,0.4352
387.0,0.3617
387.5,0.4064
388.0,0.3753
388.5,0.3711
389.0,0.4007
389.5,0.4854
390.0,0.4873
390.5,0.4486
391.0,0.5282
391.5,0.5389
392.0,0.454
392.5,0.4065
393.0,0.2263
393.5,0.1645
394.0,0.3349
394.5,0.4259
395.0,0.5198
395.5,0.5281
396.0,0.458
396.5,0.2678
397.0,0.2011
397.5,0.409
398.0,0.5728
398.5,0.5922
399.0,0.6415
399.5,0.6396
400.0,0.6642
401.0,0.6733
402.0,0.7108
403.0,0.6755
404.0,0.6654
405.0,0.6656
406.0,0.6551
407.0,0.6448
408.0,0.6702
409.0,0.7176
410.0,0.6273
411.0,0.6797
412.0,0.7304
413.0,0.7125
414.0,0.7215
415.0,0.7237
416.0,0.7367
417.0,0.7188
418.0,0.7058
419.0,0.7153
420.0,0.7124
421.0,0.7455
422.0,0.7088
423.0,0.6926
424.0,0.7327
425.0,0.7316
426.0,0.713
427.0,0.6999
428.0,0.6819
429.0,0.6462
430.0,0.5657
431.0,0.5608
432.0,0.7243
433.0,0.7285
434.0,0.6766
435.0,0.7067
436.0,0.7966
437.0,0.7861
438.0,0.7161
439.0,0.7406
440.0,0.7644
441.0,0.7923
442.0,0.8499
443.0,0.8278
444.0,0.846
445.0,0.8278
446.0,0.7903
447.0,0.8547
448.0,0.868
449.0,0.8717
450.0,0.8963
451.0,0.9297
452.0,0.8959
453.0,0.8428
454.0,0.8801
455.0,0.8856
456.0,0.9068
457.0,0.922
458.0,0.8905
459.0,0.886
460.0,0.8884
461.0,0.9089
462.0,0.9162
463.0,0.9099
464.0,0.8951
465.0,0.8841
466.0,0.8928
467.0,0.8765
468.0,0.8869
469.0,0.8916
470.0,0.8631
471.0,0.8621
472.0,0.9084
473.0,0.8967
474.0,0.8979
475.0,0.9054
476.0,0.8782
477.0,0.8806
478.0,0.9051
479.0,0.8997
480.0,0.9016
481.0,0.9186
482.0,0.9236
483.0,0.9127
484.0,0.8941
485.0,0.852
486.0,0.7449
487.0,0.7808
488.0,0.8567
489.0,0.8593
490.0,0.9041
491.0,0.8886
492.0,0.8392
493.0,0.8667
494.0,0.8755
495.0,0.883
496.0,0.8884
497.0,0.9022
498.0,0.86
499.0,0.871
500.0,0.8455
501.0,0.8299
502.0,0.818
503.0,0.8511
504.0,0.8288
505.0,0.859
506.0,0.8868
507.0,0.8439
508.0,0.8178
509.0,0.8409
510.0,0.8366
511.0,0.8592
512.0,0.8686
513.0,0.8222
514.0,0.8166
515.0,0.8085
516.0,0.8065
517.0,0.7167
518.0,0.7534
519.0,0.7903
520.0,0.819
521.0,0.8267
522.0,0.8274
523.0,0.8125
524.0,0.8415
525.0,0.8512
526.0,0.8131
527.0,0.766
528.0,0.81
529.0,0.8537
530.0,0.8414
531.0,0.8538
532.0,0.8245
533.0,0.8003
534.0,0.8241
535.0,0.8421
536.0,0.8499
537.0,0.8165
538.0,0.831
539.0,0.824
540.0,0.79
541.0,0.795
542.0,0.8198
543.0,0.8113
544.0,0.8252
545.0,0.8227
546.0,0.8261
547.0,0.8259
548.0,0.8161
549.0,0.8187
550.0,0.8284
551.0,0.8184
552.0,0.8241
553.0,0.8093
554.0,0.8286
555.0,0.8302
556.0,0.8194
557.0,0.7939
558.0,0.7878
559.0,0.773
560.0,0.7826
561.0,0.7926
562.0,0.7867
563.0,0.808
564.0,0.7859
565.0,0.779
566.0,0.7675
567.0,0.7818
568.0,0.7745
569.0,0.7553
570.0,0.7552
571.0,0.7509
572.0,0.7684
573.0,0.7765
574.0,0.7739
575.0,0.7593
576.0,0.7524
577.0,0.7606
578.0,0.7494
579.0,0.7528
580.0,0.7676
581.0,0.772
582.0,0.787
583.0,0.7893
584.0,0.7963
585.0,0.777
586.0,0.761
587.0,0.7775
588.0,0.7576
589.0,0.6693
590.0,0.7
591.0,0.7419
592.0,0.7319
593.0,0.7436
594.0,0.7381
595.0,0.7192
596.0,0.7491
597.0,0.7406
598.0,0.7392
599.0,0.74
600.0,0.7415
601.0,0.7358
602.0,0.7308
603.0,0.7431
604.0,0.7554
605.0,0.7516
606.0,0.7487
607.0,0.7563
608.0,0.7481
609.0,0.7496
610.0,0.7444
611.0,0.7483
612.0,0.7463
613.0,0.7369
614.0,0.727
615.0,0.743
616.0,0.7186
617.0,0.7173
618.0,0.745
619.0,0.7375
620.0,0.7421
621.0,0.7427
622.0,0.7339
623.0,0.7226
624.0,0.7103
625.0,0.7087
626.0,0.7192
627.0,0.7269
628.0,0.6744
629.0,0.7082
630.0,0.6917
631.0,0.7088
632.0,0.7006
633.0,0.7225
634.0,0.716
635.0,0.7274
636.0,0.718
637.0,0.73
638.0,0.7373
639.0,0.7292
640.0,0.7224
641.0,0.7221
642.0,0.719
643.0,0.7287
644.0,0.7265
645.0,0.7276
646.0,0.7101
647.0,0.7004
648.0,0.701
649.0,0.6873
650.0,0.6922
651.0,0.7225
652.0,0.6908
653.0,0.713
654.0,0.7052
655.0,0.6781
656.0,0.6016
657.0,0.6179
658.0,0.6929
659.0,0.6981
660.0,0.7011
661.0,0.7061
662.0,0.7072
663.0,0.6933
664.0,0.702
665.0,0.7029
666.0,0.7036
667.0,0.7031
668.0,0.7036
669.0,0.7146
670.0,0.7116
671.0,0.7115
672.0,0.7054
673.0,0.7161
674.0,0.7135
675.0,0.7071
676.0,0.712
677.0,0.705
678.0,0.7071
679.0,0.6957
680.0,0.7013
681.0,0.6967
682.0,0.6958
683.0,0.6945
684.0,0.6911
685.0,0.697
686.0,0.6928
687.0,0.4409
688.0,0.5257
689.0,0.5279
690.0,0.5567
691.0,0.5894
692.0,0.6137
693.0,0.6084
694.0,0.6034
695.0,0.6307
696.0,0.6317
697.0,0.6732
698.0,0.6627
699.0,0.645
700.0,0.6371
701.0,0.63
702.0,0.6351
703.0,0.6363
704.0,0.6578
705.0,0.6588
706.0,0.6587
707.0,0.6594
708.0,0.6607
709.0,0.6624
710.0,0.662
711.0,0.6614
712.0,0.6597
713.0,0.6527
714.0,0.6553
715.0,0.6339
716.0,0.634
717.0,0.5429
718.0,0.4977
719.0,0.4553
720.0,0.4763
721.0,0.53
722.0,0.6109
723.0,0.5664
724.0,0.5076
725.0,0.4985
726.0,0.5222
727.0,0.5314
728.0,0.4969
729.0,0.518
730.0,0.5479
731.0,0.5236
732.0,0.5627
733.0,0.5981
734.0,0.613
735.0,0.5999
736.0,0.5991
737.0,0.6015
738.0,0.6125
739.0,0.6004
740.0,0.6166
741.0,0.6108
742.0,0.6117
743.0,0.6274
744.0,0.6258
745.0,0.6261
746.0,0.6289
747.0,0.6303
748.0,0.629
749.0,0.6219
750.0,0.6215
751.0,0.6152
752.0,0.6179
753.0,0.6211
754.0,0.6225
755.0,0.6189
756.0,0.6187
757.0,0.6196
758.0,0.6118
759.0,0.5983
760.0,0.08211
761.0,0.04014
762.0,0.2852
763.0,0.1316
764.0,0.2072
765.0,0.2851
766.0,0.3598
767.0,0.4642
768.0,0.5441
769.0,0.5574
770.0,0.5786
771.0,0.5842
772.0,0.5857
773.0,0.5899
774.0,0.5871
775.0,0.5827
776.0,0.5898
777.0,0.582
778.0,0.5785
779.0,0.579
780.0,0.5758
781.0,0.5764
782.0,0.58
783.0,0.5699
784.0,0.5727
785.0,0.5684
786.0,0.5746
787.0,0.5637
788.0,0.5563
789.0,0.556
790.0,0.5399
791.0,0.5458
792.0,0.542
793.0,0.5331
794.0,0.5435
795.0,0.5523
796.0,0.5336
797.0,0.5342
798.0,0.5514
799.0,0.5476
800.0,0.5377
801.0,0.5356
802.0,0.5341
803.0,0.5298
804.0,0.5307
805.0,0.5296
806.0,0.5453
807.0,0.5385
808.0,0.5391
809.0,0.5283
810.0,0.5236
811.0,0.5233
812.0,0.5072
813.0,0.496
814.0,0.4327
815.0,0.4302
816.0,0.4
817.0,0.4077
818.0,0.3916
819.0,0.441
820.0,0.4141
821.0,0.4885
822.0,0.4738
823.0,0.3152
824.0,0.4584
825.0,0.4799
826.0,0.4603
827.0,0.4872
828.0,0.4089
829.0,0.4578
830.0,0.4514
831.0,0.4531
832.0,0.4384
833.0,0.4685
834.0,0.4505
835.0,0.4981
836.0,0.4747
837.0,0.4996
838.0,0.483
839.0,0.4922
840.0,0.5033
841.0,0.4957
842.0,0.4974
843.0,0.4979
844.0,0.4906
845.0,0.5076
846.0,0.5055
847.0,0.4963
848.0,0.4929
849.0,0.4789
850.0,0.4589
851.0,0.4855
852.0,0.4823
853.0,0.4645
854.0,0.4008
855.0,0.4407
856.0,0.4814
857.0,0.4924
858.0,0.4887
859.0,0.4893
860.0,0.4902
861.0,0.4875
862.0,0.4952
863.0,0.5069
864.0,0.4816
865.0,0.4774
866.0,0.4293
867.0,0.448
868.0,0.4875
869.0,0.4774
870.0,0.491
871.0,0.4843
872.0,0.4826
873.0,0.4817
874.0,0.4759
875.0,0.4663
876.0,0.4711
877.0,0.4759
878.0,0.481
879.0,0.4736
880.0,0.4635
881.0,0.4564
882.0,0.4662
883.0,0.4678
884.0,0.4656
885.0,0.4691
886.0,0.4465
887.0,0.4517
888.0,0.458
889.0,0.4638
890.0,0.4592
891.0,0.4588
892.0,0.4447
893.0,0.4298
894.0,0.4128
895.0,0.3876
896.0,0.3642
897.0,0.3098
898.0,0.3397
899.0,0.2547
900.0,0.3498
901.0,0.267
902.0,0.3183
903.0,0.3198
904.0,0.4096
905.0,0.3946
906.0,0.3684
907.0,0.2945
908.0,0.3011
909.0,0.3283
910.0,0.2864
911.0,0.3079
912.0,0.3225
913.0,0.2904
914.0,0.2887
915.0,0.313
916.0,0.2641
917.0,0.3393
918.0,0.2705
919.0,0.3467
920.0,0.3527
921.0,0.367
922.0,0.3252
923.0,0.3548
924.0,0.3328
925.0,0.3256
926.0,0.3289
927.0,0.3712
928.0,0.2638
929.0,0.2385
930.0,0.1837
931.0,0.1745
932.0,0.1218
933.0,0.09705
934.0,0.04917
935.0,0.1009
936.0,0.06041
937.0,0.06097
938.0,0.07598
939.0,0.169
940.0,0.2061
941.0,0.1518
942.0,0.178
943.0,0.1142
944.0,0.123
945.0,0.1573
946.0,0.07613
947.0,0.157
948.0,0.1148
949.0,0.214
950.0,0.05365
951.0,0.2114
952.0,0.1084
953.0,0.1435
954.0,0.1797
955.0,0.1455
956.0,0.1439
957.0,0.1082
958.0,0.2089
959.0,0.1616
960.0,0.1811
961.0,0.2067
962.0,0.1952
963.0,0.2281
964.0,0.208
965.0,0.2274
966.0,0.2268
967.0,0.2255
968.0,0.3132
969.0,0.326
970.0,0.2981
971.0,0.346
972.0,0.3301
973.0,0.2825
974.0,0.2675
975.0,0.2796
976.0,0.2628
977.0,0.3043
978.0,0.2869
979.0,0.302
980.0,0.2831
981.0,0.3442
982.0,0.3273
983.0,0.3132
984.0,0.3567
985.0,0.3261
986.0,0.3642
987.0,0.3556
988.0,0.3551
989.0,0.3639
990.0,0.3529
991.0,0.3649
992.0,0.3671
993.0,0.3575
994.0,0.3671
995.0,0.3669
996.0,0.3651
997.0,0.3657
998.0,0.3639
999.0,0.3626
1000.0,0.3597
1001.0,0.3646
1002.0,0.3532
1003.0,0.3581
1004.0,0.3489
1005.0,0.3367
1006.0,0.3496
1007.0,0.3571
1008.0,0.3549
1009.0,0.3527
1010.0,0.3511
1011.0,0.3553
1012.0,0.352
1013.0,0.3545
1014.0,0.3521
1015.0,0.3497
1016.0,0.3481
1017.0,0.3489
1018.0,0.3478
1019.0,0.3398
1020.0,0.3459
1021.0,0.3455
1022.0,0.3426
1023.0,0.3462
1024.0,0.3411
1025.0,0.3461
1026.0,0.3445
1027.0,0.3438
1028.0,0.343
1029.0,0.3389
1030.0,0.3414
1031.0,0.34
1032.0,0.339
1033.0,0.3339
1034.0,0.334
1035.0,0.335
1036.0,0.3367
1037.0,0.3312
1038.0,0.3327
1039.0,0.3324
1040.0,0.3311
1041.0,0.3324
1042.0,0.33
1043.0,0.329
1044.0,0.3301
1045.0,0.3256
1046.0,0.3219
1047.0,0.3248
1048.0,0.3265
1049.0,0.3253
1050.0,0.3238
1051.0,0.3233
1052.0,0.3219
1053.0,0.3193
1054.0,0.3199
1055.0,0.32
1056.0,0.3188
1057.0,0.3177
1058.0,0.3098
1059.0,0.3101
1060.0,0.3096
1061.0,0.3091
1062.0,0.3107
1063.0,0.3075
1064.0,0.3112
1065.0,0.3088
1066.0,0.3028
1067.0,0.3067
1068.0,0.2998
1069.0,0.2907
1070.0,0.3004
1071.0,0.3056
1072.0,0.3017
1073.0,0.2974
1074.0,0.3056
1075.0,0.2888
1076.0,0.3053
1077.0,0.299
1078.0,0.293
1079.0,0.3007
1080.0,0.2944
1081.0,0.2843
1082.0,0.2901
1083.0,0.2913
1084.0,0.2832
1085.0,0.2952
1086.0,0.2673
1087.0,0.2774
1088.0,0.2907
1089.0,0.2804
1090.0,0.2734
1091.0,0.2894
1092.0,0.289
1093.0,0.241
1094.0,0.2639
1095.0,0.2516
1096.0,0.2397
1097.0,0.2823
1098.0,0.2355
1099.0,0.2463
1100.0,0.2273
1101.0,0.2306
1102.0,0.2192
1103.0,0.2163
1104.0,0.2167
1105.0,0.2403
1106.0,0.1772
1107.0,0.2269
1108.0,0.1885
1109.0,0.1896
1110.0,0.2244
1111.0,0.147
1112.0,0.1884
1113.0,0.1147
1114.0,0.1286
1115.0,0.1064
1116.0,0.08182
1117.0,0.02689
1118.0,0.09002
1119.0,0.04201
1120.0,0.05263
1121.0,0.07143
1122.0,0.02781
1123.0,0.04768
1124.0,0.04021
1125.0,0.05311
1126.0,0.01629
1127.0,0.06012
1128.0,0.03353
1129.0,0.03589
1130.0,0.02281
1131.0,0.1201
1132.0,0.09306
1133.0,0.05568
1134.0,0.01252
1135.0,0.004796
1136.0,0.04529
1137.0,0.1168
1138.0,0.08168
1139.0,0.1284
1140.0,0.1048
1141.0,0.07768
1142.0,0.09066
1143.0,0.1315
1144.0,0.04283
1145.0,0.05376
1146.0,0.05794
1147.0,0.01814
1148.0,0.1136
1149.0,0.08878
1150.0,0.04647
1151.0,0.08101
1152.0,0.102
1153.0,0.1012
1154.0,0.05188
1155.0,0.1338
1156.0,0.1192
1157.0,0.136
1158.0,0.1345
1159.0,0.1466
1160.0,0.1237
1161.0,0.1559
1162.0,0.1564
1163.0,0.2171
1164.0,0.1841
1165.0,0.1716
1166.0,0.172
1167.0,0.1884
1168.0,0.19
1169.0,0.1951
1170.0,0.2138
1171.0,0.2083
1172.0,0.2131
1173.0,0.2133
1174.0,0.1483
1175.0,0.2092
1176.0,0.2321
1177.0,0.2214
1178.0,0.1633
1179.0,0.2341
1180.0,0.2066
1181.0,0.2134
1182.0,0.144
1183.0,0.2106
1184.0,0.1963
1185.0,0.1884
1186.0,0.2266
1187.0,0.2149
1188.0,0.146
1189.0,0.2
1190.0,0.2216
1191.0,0.2086
1192.0,0.2249
1193.0,0.2149
1194.0,0.2219
1195.0,0.2086
1196.0,0.2002
1197.0,0.2226
1198.0,0.2029
1199.0,0.1699
1200.0,0.2121
1201.0,0.2036
1202.0,0.2031
1203.0,0.2011
1204.0,0.1746
1205.0,0.2086
1206.0,0.2318
1207.0,0.2023
1208.0,0.1999
1209.0,0.2042
1210.0,0.2133
1211.0,0.2021
1212.0,0.1985
1213.0,0.2235
1214.0,0.2038
1215.0,0.1997
1216.0,0.2229
1217.0,0.2166
1218.0,0.2211
1219.0,0.2181
1220.0,0.2213
1221.0,0.2238
1222.0,0.2178
1223.0,0.2155
1224.0,0.2138
1225.0,0.2223
1226.0,0.2242
1227.0,0.2055
1228.0,0.2256
1229.0,0.2242
1230.0,0.2202
1231.0,0.2272
1232.0,0.2258
1233.0,0.217
1234.0,0.2272
1235.0,0.2256
1236.0,0.2274
1237.0,0.2238
1238.0,0.2267
1239.0,0.2237
1240.0,0.2246
1241.0,0.2233
1242.0,0.2231
1243.0,0.2213
1244.0,0.2228
1245.0,0.2238
1246.0,0.2225
1247.0,0.2215
1248.0,0.2212
1249.0,0.2221
1250.0,0.2206
1251.0,0.2176
1252.0,0.2179
1253.0,0.2158
1254.0,0.2133
1255.0,0.2176
1256.0,0.2108
1257.0,0.2095
1258.0,0.2139
1259.0,0.2051
1260.0,0.2063
1261.0,0.1934
1262.0,0.1869
1263.0,0.1872
1264.0,0.1712
1265.0,0.1861
1266.0,0.1781
1267.0,0.1819
1268.0,0.1715
1269.0,0.09969
1270.0,0.181
1271.0,0.1929
1272.0,0.1937
1273.0,0.1915
1274.0,0.1923
1275.0,0.1954
1276.0,0.1975
1277.0,0.1992
1278.0,0.2035
1279.0,0.2016
1280.0,0.1991
1281.0,0.1902
1282.0,0.1837
1283.0,0.1978
1284.0,0.2024
1285.0,0.2038
1286.0,0.2068
1287.0,0.2032
1288.0,0.2033
1289.0,0.196
1290.0,0.2015
1291.0,0.2045
1292.0,0.1906
1293.0,0.2002
1294.0,0.1987
1295.0,0.1973
1296.0,0.1874
1297.0,0.1765
1298.0,0.1915
1299.0,0.2005
1300.0,0.1672
1301.0,0.1728
1302.0,0.1909
1303.0,0.1653
1304.0,0.1385
1305.0,0.1868
1306.0,0.1867
1307.0,0.1424
1308.0,0.1659
1309.0,0.1849
1310.0,0.1395
1311.0,0.1585
1312.0,0.1538
1313.0,0.1504
1314.0,0.1338
1315.0,0.1314
1316.0,0.1556
1317.0,0.1471
1318.0,0.1609
1319.0,0.1227
1320.0,0.1196
1321.0,0.1403
1322.0,0.1412
1323.0,0.1037
1324.0,0.1205
1325.0,0.1531
1326.0,0.1298
1327.0,0.1234
1328.0,0.1056
1329.0,0.07706
1330.0,0.1015
1331.0,0.05861
1332.0,0.06139
1333.0,0.08602
1334.0,0.07428
1335.0,0.1033
1336.0,0.08025
1337.0,0.07031
1338.0,0.07604
1339.0,0.07609
1340.0,0.07475
1341.0,0.07126
1342.0,0.07502
1343.0,0.0475
1344.0,0.02869
1345.0,0.04145
1346.0,0.01861
1347.0,0.01858
1348.0,0.0009613
1349.0,0.003676
1350.0,0.003992
1351.0,0.0007897
1352.0,0.0001684
1353.0,6.837e-06
1354.0,2.762e-05
1355.0,1.359e-07
1356.0,3.295e-06
1357.0,5.04e-06
1358.0,1.643e-07
1359.0,1.417e-08
1360.0,6.57e-08
1361.0,3.348e-11
1362.0,6.706e-14
1363.0,7.778e-08
1364.0,3.217e-08
1365.0,1.528e-14
1366.0,3.758e-07
1367.0,1.676e-07
1368.0,5.29e-17
1369.0,1.185e-08
1370.0,4.979e-09
1371.0,2.352e-10
1372.0,9.276e-08
1373.0,2.405e-06
1374.0,1.33e-05
1375.0,2.373e-05
1376.0,2.511e-05
1377.0,1.109e-05
1378.0,0.0001159
1379.0,4.654e-06
1380.0,5.984e-06
1381.0,1.427e-07
1382.0,7.984e-08
1383.0,1.055e-09
1384.0,1.252e-08
1385.0,9.108e-08
1386.0,6.34e-08
1387.0,1.226e-05
1388.0,2.481e-07
1389.0,5.101e-05
1390.0,4.353e-05
1391.0,2.818e-05
1392.0,1.752e-06
1393.0,1.019e-05
1394.0,3.924e-06
1395.0,2.406e-08
1396.0,5.375e-11
1397.0,3.79e-06
1398.0,0.0001273
1399.0,8.144e-05
1400.0,1.878e-11
1401.0,1.043e-10
1402.0,0.0002929
1403.0,0.0003502
1404.0,0.0001043
1405.0,1.021e-08
1406.0,0.0002492
1407.0,2.379e-05
1408.0,0.0002072
1409.0,6.024e-05
1410.0,5.365e-05
1411.0,0.0003111
1412.0,0.0004498
1413.0,0.005647
1414.0,4.318e-05
1415.0,1.942e-05
1416.0,0.01063
1417.0,0.0028
1418.0,0.003086
1419.0,0.000463
1420.0,0.001876
1421.0,0.002056
1422.0,0.01395
1423.0,0.002602
1424.0,0.005002
1425.0,0.007132
1426.0,0.008626
1427.0,0.01704
1428.0,0.0008838
1429.0,0.01213
1430.0,0.02228
1431.0,0.02489
1432.0,0.0006884
1433.0,0.01528
1434.0,0.007503
1435.0,0.006595
1436.0,0.0141
1437.0,0.01085
1438.0,0.004206
