interpolation:linear
wavelength,value
280.0,5.234999999999999e-22
280.5,1.0620000000000001e-20
281.0,4.851e-20
281.5,1.04e-18
282.0,6.662e-18
282.5,2.209e-17
283.0,8.374e-17
283.5,1.453e-16
284.0,2.742e-15
284.5,8.196e-15
285.0,2.333e-14
285.5,1.568e-13
286.0,6.879e-13
286.5,3.52e-12
287.0,1.083e-11
287.5,4.456e-11
288.0,1.537e-10
288.5,5.74e-10
289.0,1.809e-09
289.5,6.323e-09
290.0,1.948e-08
290.5,4.305e-08
291.0,1.01e-07
291.5,3.226e-07
292.0,7.307e-07
292.5,1.061e-06
293.0,2.371e-06
293.5,6.087e-06
294.0,9.909e-06
294.5,1.932e-05
295.0,3.426e-05
295.5,7.185e-05
296.0,0.0001275
296.5,0.0001642
297.0,0.0002078
297.5,0.0005042
298.0,0.0007301
298.5,0.0006881
299.0,0.001424
299.5,0.002115
300.0,0.002189
300.5,0.002977
301.0,0.004869
301.5,0.007085
302.0,0.005788
302.5,0.01058
303.0,0.01744
303.5,0.02082
304.0,0.01889
304.5,0.02577
305.0,0.03456
305.5,0.03669
306.0,0.03448
306.5,0.04092
307.0,0.05472
307.5,0.066
308.0,0.06861
308.5,0.07729
309.0,0.07302
309.5,0.07812
310.0,0.07603
310.5,0.1212
311.0,0.1482
311.5,0.1414
312.0,0.1335
312.5,0.1564
313.0,0.1663
313.5,0.1644
314.0,0.1964
314.5,0.164
315.0,0.2131
315.5,0.1834
316.0,0.1525
316.5,0.21
317.0,0.2608
317.5,0.2746
318.0,0.2081
318.5,0.2446
319.0,0.2824
319.5,0.2404
320.0,0.2922
320.5,0.346
321.0,0.2931
321.5,0.2796
322.0,0.314
322.5,0.2723
323.0,0.2619
323.5,0.3112
324.0,0.361
324.5,0.3717
325.0,0.3271
325.5,0.409
326.0,0.4951
326.5,0.4866
327.0,0.4881
327.5,0.4753
328.0,0.4337
328.5,0.4422
329.0,0.517
329.5,0.5826
330.0,0.5908
330.5,0.4813
331.0,0.4932
331.5,0.4943
332.0,0.5237
332.5,0.5133
333.0,0.5143
333.5,0.472
334.0,0.4845
334.5,0.5499
335.0,0.5118
335.5,0.5974
336.0,0.4132
336.5,0.486
337.0,0.4013
337.5,0.5001
338.0,0.4818
338.5,0.5557
339.0,0.5497
339.5,0.5285
340.0,0.6212
340.5,0.5591
341.0,0.5453
341.5,0.5004
342.0,0.5977
342.5,0.5589
343.0,0.6146
343.5,0.5787
344.0,0.4273
344.5,0.4317
345.0,0.5708
345.5,0.5824
346.0,0.4947
346.5,0.5599
347.0,0.601
347.5,0.4858
348.0,0.5535
348.5,0.553
349.0,0.5127
349.5,0.5074
350.0,0.6274
350.5,0.6616
351.0,0.5909
351.5,0.5744
352.0,0.6166
352.5,0.4809
353.0,0.6053
353.5,0.6471
354.0,0.6716
354.5,0.681
355.0,0.6786
355.5,0.6127
356.0,0.6408
356.5,0.5471
357.0,0.452
357.5,0.5533
358.0,0.4384
358.5,0.3745
359.0,0.5238
359.5,0.6676
360.0,0.7075
360.5,0.5654
361.0,0.5152
361.5,0.5928
362.0,0.5123
362.5,0.7086
363.0,0.6361
363.5,0.5857
364.0,0.716
364.5,0.6119
365.0,0.623
365.5,0.7818
366.0,0.828
366.5,0.7776
367.0,0.7571
367.5,0.7856
368.0,0.6873
368.5,0.6933
369.0,0.7485
369.5,0.7977
370.0,0.8501
370.5,0.6596
371.0,0.7046
371.5,0.8814
372.0,0.5849
372.5,0.7012
373.0,0.713
373.5,0.4638
374.0,0.6738
374.5,0.5578
375.0,0.5422
375.5,0.8094
376.0,0.6709
376.5,0.6952
377.0,0.7358
377.5,0.8607
378.0,0.9329
378.5,0.8817
379.0,0.7276
379.5,0.6647
380.0,0.691
380.5,0.8367
381.0,0.8382
381.5,0.6642
382.0,0.5897
382.5,0.5025
383.0,0.4651
383.5,0.4478
384.0,0.4939
384.5,0.7263
385.0,0.7201
385.5,0.6705
386.0,0.5741
386.5,0.7539
387.0,0.6264
387.5,0.7035
388.0,0.6495
388.5,0.6418
389.0,0.6928
389.5,0.8389
390.0,0.8418
390.5,0.7746
391.0,0.9116
391.5,0.9297
392.0,0.7829
392.5,0.7008
393.0,0.3898
393.5,0.2833
394.0,0.5764
394.5,0.7327
395.0,0.894
395.5,0.9081
396.0,0.7872
396.5,0.4601
397.0,0.3452
397.5,0.7019
398.0,0.983
398.5,1.016
399.0,1.1
399.5,1.096
400.0,1.138
401.0,1.158
402.0,1.221
403.0,1.159
404.0,1.141
405.0,1.141
406.0,1.122
407.0,1.103
408.0,1.146
409.0,1.226
410.0,1.071
411.0,1.16
412.0,1.245
413.0,1.214
414.0,1.228
415.0,1.231
416.0,1.252
417.0,1.221
418.0,1.198
419.0,1.213
420.0,1.207
421.0,1.263
422.0,1.2
423.0,1.172
424.0,1.239
425.0,1.236
426.0,1.204
427.0,1.181
428.0,1.15
429.0,1.089
430.0,0.9524
431.0,0.9441
432.0,1.218
433.0,1.225
434.0,1.137
435.0,1.187
436.0,1.337
437.0,1.318
438.0,1.2
439.0,1.242
440.0,1.281
441.0,1.326
442.0,1.422
443.0,1.386
444.0,1.415
445.0,1.385
446.0,1.32
447.0,1.426
448.0,1.449
449.0,1.454
450.0,1.494
451.0,1.549
452.0,1.492
453.0,1.403
454.0,1.464
455.0,1.473
456.0,1.507
457.0,1.532
458.0,1.48
459.0,1.472
460.0,1.476
461.0,1.51
462.0,1.521
463.0,1.511
464.0,1.484
465.0,1.465
466.0,1.478
467.0,1.451
468.0,1.468
469.0,1.476
470.0,1.429
471.0,1.427
472.0,1.504
473.0,1.484
474.0,1.487
475.0,1.501
476.0,1.457
477.0,1.462
478.0,1.502
479.0,1.492
480.0,1.494
481.0,1.521
482.0,1.528
483.0,1.508
484.0,1.476
485.0,1.406
486.0,1.228
487.0,1.287
488.0,1.412
489.0,1.417
490.0,1.49
491.0,1.463
492.0,1.382
493.0,1.427
494.0,1.441
495.0,1.453
496.0,1.462
497.0,1.485
498.0,1.415
499.0,1.434
500.0,1.392
501.0,1.367
502.0,1.35
503.0,1.406
504.0,1.374
505.0,1.42
506.0,1.466
507.0,1.395
508.0,1.35
509.0,1.387
510.0,1.379
511.0,1.415
512.0,1.43
513.0,1.353
514.0,1.343
515.0,1.33
516.0,1.327
517.0,1.179
518.0,1.239
519.0,1.3
520.0,1.347
521.0,1.36
522.0,1.362
523.0,1.338
524.0,1.386
525.0,1.403
526.0,1.341
527.0,1.264
528.0,1.338
529.0,1.411
530.0,1.391
531.0,1.412
532.0,1.363
533.0,1.323
534.0,1.362
535.0,1.391
536.0,1.404
537.0,1.348
538.0,1.371
539.0,1.36
540.0,1.304
541.0,1.314
542.0,1.356
543.0,1.34
544.0,1.365
545.0,1.36
546.0,1.367
547.0,1.366
548.0,1.349
549.0,1.353
550.0,1.369
551.0,1.352
552.0,1.361
553.0,1.337
554.0,1.369
555.0,1.372
556.0,1.354
557.0,1.313
558.0,1.303
559.0,1.28
560.0,1.296
561.0,1.313
562.0,1.305
563.0,1.341
564.0,1.305
565.0,1.295
566.0,1.276
567.0,1.301
568.0,1.292
569.0,1.265
570.0,1.264
571.0,1.255
572.0,1.288
573.0,1.302
574.0,1.299
575.0,1.275
576.0,1.264
577.0,1.277
578.0,1.257
579.0,1.26
580.0,1.281
581.0,1.286
582.0,1.308
583.0,1.31
584.0,1.32
585.0,1.287
586.0,1.261
587.0,1.289
588.0,1.263
589.0,1.129
590.0,1.18
591.0,1.243
592.0,1.231
593.0,1.244
594.0,1.238
595.0,1.21
596.0,1.25
597.0,1.238
598.0,1.233
599.0,1.233
600.0,1.233
601.0,1.221
602.0,1.213
603.0,1.232
604.0,1.252
605.0,1.245
606.0,1.239
607.0,1.25
608.0,1.236
609.0,1.237
610.0,1.228
611.0,1.234
612.0,1.229
613.0,1.214
614.0,1.196
615.0,1.222
616.0,1.181
617.0,1.178
618.0,1.223
619.0,1.21
620.0,1.218
621.0,1.22
622.0,1.206
623.0,1.189
624.0,1.168
625.0,1.165
626.0,1.182
627.0,1.197
628.0,1.139
629.0,1.176
630.0,1.15
631.0,1.169
632.0,1.154
633.0,1.186
634.0,1.172
635.0,1.189
636.0,1.172
637.0,1.19
638.0,1.2
639.0,1.186
640.0,1.173
641.0,1.172
642.0,1.166
643.0,1.181
644.0,1.177
645.0,1.179
646.0,1.154
647.0,1.146
648.0,1.148
649.0,1.126
650.0,1.124
651.0,1.171
652.0,1.131
653.0,1.156
654.0,1.142
655.0,1.104
656.0,0.9752
657.0,1.001
658.0,1.12
659.0,1.127
660.0,1.131
661.0,1.139
662.0,1.142
663.0,1.119
664.0,1.13
665.0,1.13
666.0,1.13
667.0,1.128
668.0,1.128
669.0,1.145
670.0,1.14
671.0,1.139
672.0,1.129
673.0,1.146
674.0,1.141
675.0,1.13
676.0,1.138
677.0,1.126
678.0,1.129
679.0,1.111
680.0,1.119
681.0,1.112
682.0,1.11
683.0,1.108
684.0,1.103
685.0,1.112
686.0,1.106
687.0,0.8276
688.0,0.9241
689.0,0.9259
690.0,0.9562
691.0,0.9897
692.0,1.013
693.0,1.006
694.0,0.9979
695.0,1.028
696.0,1.03
697.0,1.078
698.0,1.062
699.0,1.046
700.0,1.033
701.0,1.025
702.0,1.029
703.0,1.031
704.0,1.058
705.0,1.06
706.0,1.057
707.0,1.057
708.0,1.059
709.0,1.057
710.0,1.059
711.0,1.056
712.0,1.052
713.0,1.043
714.0,1.046
715.0,1.017
716.0,1.018
717.0,0.9175
718.0,0.8494
719.0,0.7822
720.0,0.8215
721.0,0.8849
722.0,0.9885
723.0,0.9329
724.0,0.8546
725.0,0.8458
726.0,0.8822
727.0,0.8871
728.0,0.845
729.0,0.8641
730.0,0.9134
731.0,0.8783
732.0,0.9262
733.0,0.9677
734.0,0.9873
735.0,0.9686
736.0,0.9671
737.0,0.9714
738.0,0.9783
739.0,0.9592
740.0,0.9816
741.0,0.9704
742.0,0.9699
743.0,0.9941
744.0,0.9904
745.0,0.9898
746.0,0.9944
747.0,0.9964
748.0,0.9942
749.0,0.9828
750.0,0.9821
751.0,0.9722
752.0,0.9762
753.0,0.9811
754.0,0.9833
755.0,0.9778
756.0,0.9772
757.0,0.9787
758.0,0.9667
759.0,0.9517
760.0,0.2634
761.0,0.1657
762.0,0.5848
763.0,0.357
764.0,0.4778
765.0,0.5853
766.0,0.6704
767.0,0.7999
768.0,0.8878
769.0,0.8987
770.0,0.9206
771.0,0.9242
772.0,0.9249
773.0,0.9311
774.0,0.9263
775.0,0.9191
776.0,0.9302
777.0,0.9179
778.0,0.9124
779.0,0.9131
780.0,0.9079
781.0,0.9088
782.0,0.9144
783.0,0.8984
784.0,0.9026
785.0,0.8962
786.0,0.9063
787.0,0.8941
788.0,0.8847
789.0,0.8848
790.0,0.8667
791.0,0.869
792.0,0.862
793.0,0.8486
794.0,0.8575
795.0,0.8734
796.0,0.8538
797.0,0.8551
798.0,0.8731
799.0,0.869
800.0,0.8556
801.0,0.8545
802.0,0.8519
803.0,0.8463
804.0,0.8466
805.0,0.8419
806.0,0.8622
807.0,0.8526
808.0,0.853
809.0,0.8395
810.0,0.8346
811.0,0.8389
812.0,0.82
813.0,0.8063
814.0,0.7271
815.0,0.7221
816.0,0.6749
817.0,0.6849
818.0,0.6632
819.0,0.7258
820.0,0.6898
821.0,0.7852
822.0,0.7663
823.0,0.5555
824.0,0.751
825.0,0.7727
826.0,0.7497
827.0,0.7843
828.0,0.684
829.0,0.7438
830.0,0.7362
831.0,0.738
832.0,0.7189
833.0,0.7547
834.0,0.7344
835.0,0.7933
836.0,0.7676
837.0,0.795
838.0,0.7738
839.0,0.7822
840.0,0.7984
841.0,0.7887
842.0,0.7879
843.0,0.785
844.0,0.7755
845.0,0.7998
846.0,0.7959
847.0,0.7803
848.0,0.7766
849.0,0.7545
850.0,0.7227
851.0,0.7664
852.0,0.7605
853.0,0.7311
854.0,0.632
855.0,0.6933
856.0,0.7581
857.0,0.7743
858.0,0.7689
859.0,0.7691
860.0,0.7701
861.0,0.766
862.0,0.7779
863.0,0.7962
864.0,0.7564
865.0,0.7497
866.0,0.6741
867.0,0.7034
868.0,0.7654
869.0,0.7495
870.0,0.7708
871.0,0.7603
872.0,0.7576
873.0,0.7561
874.0,0.7471
875.0,0.732
876.0,0.7396
877.0,0.747
878.0,0.7553
879.0,0.7437
880.0,0.7277
881.0,0.7173
882.0,0.733
883.0,0.7348
884.0,0.7316
885.0,0.7372
886.0,0.7044
887.0,0.7105
888.0,0.7219
889.0,0.7284
890.0,0.7243
891.0,0.7221
892.0,0.7037
893.0,0.6849
894.0,0.6668
895.0,0.6378
896.0,0.6047
897.0,0.5304
898.0,0.5723
899.0,0.449
900.0,0.5794
901.0,0.4699
902.0,0.5335
903.0,0.5444
904.0,0.6618
905.0,0.6425
906.0,0.6042
907.0,0.507
908.0,0.5149
909.0,0.5498
910.0,0.5002
911.0,0.5249
912.0,0.5453
913.0,0.5083
914.0,0.5015
915.0,0.5419
916.0,0.4635
917.0,0.5722
918.0,0.4755
919.0,0.5792
920.0,0.5784
921.0,0.5996
922.0,0.546
923.0,0.5787
924.0,0.56
925.0,0.5482
926.0,0.5541
927.0,0.6107
928.0,0.4754
929.0,0.4414
930.0,0.3591
931.0,0.338
932.0,0.2558
933.0,0.215
934.0,0.133
935.0,0.2141
936.0,0.143
937.0,0.1464
938.0,0.1762
939.0,0.3276
940.0,0.3856
941.0,0.3027
942.0,0.3428
943.0,0.2348
944.0,0.2392
945.0,0.3102
946.0,0.1706
947.0,0.3147
948.0,0.2335
949.0,0.4085
950.0,0.1341
951.0,0.4
952.0,0.232
953.0,0.2884
954.0,0.3414
955.0,0.2903
956.0,0.2768
957.0,0.2341
958.0,0.3743
959.0,0.3102
960.0,0.3472
961.0,0.3799
962.0,0.3609
963.0,0.4075
964.0,0.3763
965.0,0.4048
966.0,0.4071
967.0,0.4061
968.0,0.5157
969.0,0.5404
970.0,0.5006
971.0,0.5605
972.0,0.5385
973.0,0.4814
974.0,0.459
975.0,0.4713
976.0,0.4541
977.0,0.5038
978.0,0.484
979.0,0.5028
980.0,0.4755
981.0,0.5566
982.0,0.5367
983.0,0.518
984.0,0.5686
985.0,0.5345
986.0,0.5756
987.0,0.5675
988.0,0.5665
989.0,0.5721
990.0,0.5628
991.0,0.5742
992.0,0.5772
993.0,0.5674
994.0,0.5767
995.0,0.5755
996.0,0.5734
997.0,0.574
998.0,0.5715
999.0,0.5693
1000.0,0.566
1001.0,0.5722
1002.0,0.5595
1003.0,0.5623
1004.0,0.5493
1005.0,0.5281
1006.0,0.5493
1007.0,0.5607
1008.0,0.5582
1009.0,0.5558
1010.0,0.5538
1011.0,0.5578
1012.0,0.5535
1013.0,0.5562
1014.0,0.5523
1015.0,0.5488
1016.0,0.5464
1017.0,0.5479
1018.0,0.5454
1019.0,0.5349
1020.0,0.5427
1021.0,0.5418
1022.0,0.538
1023.0,0.5438
1024.0,0.5379
1025.0,0.543
1026.0,0.541
1027.0,0.5397
1028.0,0.5386
1029.0,0.5324
1030.0,0.5356
1031.0,0.5336
1032.0,0.532
1033.0,0.524
1034.0,0.5239
1035.0,0.5256
1036.0,0.5284
1037.0,0.5198
1038.0,0.5221
1039.0,0.5219
1040.0,0.5198
1041.0,0.522
1042.0,0.5184
1043.0,0.5168
1044.0,0.5187
1045.0,0.5117
1046.0,0.5061
1047.0,0.5107
1048.0,0.5136
1049.0,0.5119
1050.0,0.5096
1051.0,0.509
1052.0,0.5071
1053.0,0.5032
1054.0,0.5044
1055.0,0.5049
1056.0,0.5033
1057.0,0.5019
1058.0,0.4897
1059.0,0.4904
1060.0,0.4897
1061.0,0.4892
1062.0,0.492
1063.0,0.4873
1064.0,0.493
1065.0,0.4899
1066.0,0.4799
1067.0,0.4862
1068.0,0.4759
1069.0,0.4609
1070.0,0.4769
1071.0,0.4833
1072.0,0.4785
1073.0,0.4714
1074.0,0.4825
1075.0,0.4615
1076.0,0.4822
1077.0,0.4755
1078.0,0.4671
1079.0,0.474
1080.0,0.4682
1081.0,0.4546
1082.0,0.4592
1083.0,0.46
1084.0,0.4545
1085.0,0.4689
1086.0,0.4331
1087.0,0.4431
1088.0,0.4601
1089.0,0.449
1090.0,0.4413
1091.0,0.4594
1092.0,0.4576
1093.0,0.3975
1094.0,0.4198
1095.0,0.4126
1096.0,0.398
1097.0,0.4468
1098.0,0.3927
1099.0,0.4081
1100.0,0.3839
1101.0,0.3873
1102.0,0.3725
1103.0,0.3708
1104.0,0.3711
1105.0,0.3997
1106.0,0.3224
1107.0,0.3829
1108.0,0.3347
1109.0,0.3333
1110.0,0.3807
1111.0,0.272
1112.0,0.33
1113.0,0.2247
1114.0,0.2492
1115.0,0.207
1116.0,0.1745
1117.0,0.07493
1118.0,0.1862
1119.0,0.1008
1120.0,0.1269
1121.0,0.163
1122.0,0.07597
1123.0,0.1144
1124.0,0.09668
1125.0,0.1241
1126.0,0.05066
1127.0,0.1393
1128.0,0.09131
1129.0,0.09555
1130.0,0.0667
1131.0,0.2459
1132.0,0.1964
1133.0,0.1342
1134.0,0.04079
1135.0,0.01502
1136.0,0.1154
1137.0,0.2442
1138.0,0.1744
1139.0,0.2423
1140.0,0.2093
1141.0,0.1657
1142.0,0.1868
1143.0,0.2578
1144.0,0.09947
1145.0,0.1291
1146.0,0.1393
1147.0,0.05693
1148.0,0.2233
1149.0,0.1839
1150.0,0.1067
1151.0,0.1732
1152.0,0.2066
1153.0,0.1965
1154.0,0.127
1155.0,0.253
1156.0,0.2313
1157.0,0.2546
1158.0,0.2516
1159.0,0.2668
1160.0,0.2337
1161.0,0.2777
1162.0,0.2798
1163.0,0.3608
1164.0,0.3158
1165.0,0.3037
1166.0,0.2977
1167.0,0.321
1168.0,0.3257
1169.0,0.3312
1170.0,0.3551
1171.0,0.3471
1172.0,0.3506
1173.0,0.3543
1174.0,0.2669
1175.0,0.3442
1176.0,0.3719
1177.0,0.3611
1178.0,0.2818
1179.0,0.3746
1180.0,0.3416
1181.0,0.3517
1182.0,0.2541
1183.0,0.3447
1184.0,0.3268
1185.0,0.3186
1186.0,0.3668
1187.0,0.3527
1188.0,0.2593
1189.0,0.3294
1190.0,0.3584
1191.0,0.3459
1192.0,0.3628
1193.0,0.3497
1194.0,0.359
1195.0,0.3435
1196.0,0.3334
1197.0,0.357
1198.0,0.3298
1199.0,0.2897
1200.0,0.3457
1201.0,0.3365
1202.0,0.3328
1203.0,0.33
1204.0,0.2939
1205.0,0.3378
1206.0,0.3679
1207.0,0.3328
1208.0,0.3248
1209.0,0.3308
1210.0,0.3425
1211.0,0.3297
1212.0,0.3296
1213.0,0.3577
1214.0,0.3355
1215.0,0.3301
1216.0,0.3564
1217.0,0.3488
1218.0,0.3537
1219.0,0.3501
1220.0,0.3538
1221.0,0.3564
1222.0,0.3482
1223.0,0.3456
1224.0,0.3448
1225.0,0.3541
1226.0,0.3554
1227.0,0.3324
1228.0,0.3563
1229.0,0.3554
1230.0,0.3502
1231.0,0.3573
1232.0,0.3553
1233.0,0.3467
1234.0,0.3563
1235.0,0.3546
1236.0,0.3567
1237.0,0.3532
1238.0,0.3555
1239.0,0.351
1240.0,0.3521
1241.0,0.3513
1242.0,0.3498
1243.0,0.3469
1244.0,0.3497
1245.0,0.351
1246.0,0.3489
1247.0,0.3478
1248.0,0.348
1249.0,0.3487
1250.0,0.3468
1251.0,0.3429
1252.0,0.3423
1253.0,0.3408
1254.0,0.3383
1255.0,0.3423
1256.0,0.3349
1257.0,0.3336
1258.0,0.338
1259.0,0.3293
1260.0,0.3305
1261.0,0.3165
1262.0,0.3094
1263.0,0.3101
1264.0,0.2918
1265.0,0.308
1266.0,0.2997
1267.0,0.3026
1268.0,0.2907
1269.0,0.206
1270.0,0.3024
1271.0,0.3149
1272.0,0.3154
1273.0,0.3125
1274.0,0.3129
1275.0,0.3165
1276.0,0.3187
1277.0,0.3199
1278.0,0.3241
1279.0,0.3214
1280.0,0.3172
1281.0,0.3019
1282.0,0.2895
1283.0,0.312
1284.0,0.3198
1285.0,0.3217
1286.0,0.3252
1287.0,0.3217
1288.0,0.3212
1289.0,0.3138
1290.0,0.3182
1291.0,0.3221
1292.0,0.3079
1293.0,0.3172
1294.0,0.3152
1295.0,0.3149
1296.0,0.3041
1297.0,0.2905
1298.0,0.3072
1299.0,0.317
1300.0,0.2779
1301.0,0.2844
1302.0,0.306
1303.0,0.2732
1304.0,0.2421
1305.0,0.3005
1306.0,0.301
1307.0,0.2442
1308.0,0.2722
1309.0,0.2993
1310.0,0.2399
1311.0,0.263
1312.0,0.2573
1313.0,0.2538
1314.0,0.2304
1315.0,0.2295
1316.0,0.2603
1317.0,0.2476
1318.0,0.2654
1319.0,0.2183
1320.0,0.2092
1321.0,0.2399
1322.0,0.2438
1323.0,0.1926
1324.0,0.2141
1325.0,0.2571
1326.0,0.2264
1327.0,0.2174
1328.0,0.1904
1329.0,0.1508
1330.0,0.1922
1331.0,0.1258
1332.0,0.1265
1333.0,0.1733
1334.0,0.1431
1335.0,0.1917
1336.0,0.1564
1337.0,0.1414
1338.0,0.1524
1339.0,0.1506
1340.0,0.144
1341.0,0.1461
1342.0,0.1531
1343.0,0.1159
1344.0,0.06925
1345.0,0.09818
1346.0,0.05751
1347.0,0.05992
1348.0,0.005958
1349.0,0.01878
1350.0,0.0178
1351.0,0.006302
1352.0,0.00247
1353.0,0.0002013
1354.0,0.0005242
1355.0,1.048e-05
1356.0,0.0001026
1357.0,0.0001535
1358.0,1.197e-05
1359.0,2.893e-06
1360.0,6.914e-06
1361.0,3.237e-08
1362.0,1.732e-10
1363.0,1.074e-05
1364.0,4.875e-06
1365.0,1.264e-10
1366.0,3.917e-05
1367.0,1.511e-05
1368.0,4.31e-12
1369.0,1.924e-06
1370.0,1.244e-06
1371.0,1.029e-07
1372.0,8.405e-06
1373.0,0.0001055
1374.0,0.0003587
1375.0,0.0006381
1376.0,0.0004651
1377.0,0.0002305
1378.0,0.001884
1379.0,9.932e-05
1380.0,0.0001694
1381.0,5.599e-06
1382.0,8.167e-06
1383.0,1.673e-07
1384.0,2.404e-06
1385.0,5.776e-06
1386.0,8.712e-06
1387.0,0.0004315
1388.0,9.46e-06
1389.0,0.001066
1390.0,0.0009092
1391.0,0.0006615
1392.0,5.003e-05
1393.0,0.0002207
1394.0,0.0001814
1395.0,2.049e-06
1396.0,3.883e-08
1397.0,0.0001002
1398.0,0.002159
1399.0,0.001378
1400.0,2.396e-08
1401.0,6.097e-08
1402.0,0.002591
1403.0,0.003481
1404.0,0.001098
1405.0,1.265e-06
1406.0,0.003185
1407.0,0.0002735
1408.0,0.002565
1409.0,0.00108
1410.0,0.0007757
1411.0,0.003027
1412.0,0.003667
1413.0,0.02647
1414.0,0.0005984
1415.0,0.0003226
1416.0,0.03657
1417.0,0.01372
1418.0,0.01564
1419.0,0.002578
1420.0,0.009698
1421.0,0.01076
1422.0,0.04684
1423.0,0.009858
1424.0,0.01783
1425.0,0.02698
1426.0,0.02843
1427.0,0.04705
1428.0,0.00576
1429.0,0.03739
1430.0,0.05835
1431.0,0.06274
1432.0,0.004622
1433.0,0.04189
1434.0,0.02232
1435.0,0.02572
1436.0,0.04408
1437.0,0.03389
1438.0,0.01588
1439.0,0.05747
1440.0,0.04345
1441.0,0.03566
1442.0,0.03886
1443.0,0.04495
1444.0,0.06078
1445.0,0.05054
1446.0,0.02368
1447.0,0.03734
1448.0,0.104
1449.0,0.09337
1450.0,0.02762
1451.0,0.01194
1452.0,0.05906
1453.0,0.07569
1454.0,0.1196
1455.0,0.06028
1456.0,0.08262
1457.0,0.1046
1458.0,0.1175
1459.0,0.1398
1460.0,0.07603
1461.0,0.08186
1462.0,0.115
