interpolation:linear
wavelength,value
280.0,7.876000000000001e-20
280.5,2.154e-18
281.0,1.69e-19
281.5,4.936e-19
282.0,2.309e-18
282.5,6.669e-18
283.0,2.248e-17
283.5,3.724e-17
284.0,5.891e-16
284.5,1.662e-15
285.0,3.728e-15
285.5,2.395e-14
286.0,1.039e-13
286.5,5.171e-13
287.0,1.57e-12
287.5,6.376e-12
288.0,1.913e-11
288.5,7.648e-11
289.0,2.59e-10
289.5,9.825e-10
290.0,3.243e-09
290.5,7.614e-09
291.0,1.918e-08
291.5,6.672e-08
292.0,1.727e-07
292.5,2.695e-07
293.0,6.614e-07
293.5,1.939e-06
294.0,3.498e-06
294.5,4.511e-06
295.0,8.668e-06
295.5,2.028e-05
296.0,3.802e-05
296.5,5.166e-05
297.0,6.823e-05
297.5,0.0001762
298.0,0.0002688
298.5,0.0002635
299.0,0.0005665
299.5,0.0008976
300.0,0.0009623
300.5,0.001357
301.0,0.002347
301.5,0.003589
302.0,0.003007
302.5,0.005633
303.0,0.009583
303.5,0.01166
304.0,0.01069
304.5,0.01499
305.0,0.02084
305.5,0.02261
306.0,0.02143
306.5,0.02579
307.0,0.03551
307.5,0.04399
308.0,0.04593
308.5,0.05242
309.0,0.05033
309.5,0.0549
310.0,0.05393
310.5,0.08636
311.0,0.1064
311.5,0.1019
312.0,0.09778
312.5,0.1158
313.0,0.1238
313.5,0.1218
314.0,0.1474
314.5,0.1251
315.0,0.1631
315.5,0.1393
316.0,0.1174
316.5,0.1636
317.0,0.2031
317.5,0.2132
318.0,0.1629
318.5,0.1943
319.0,0.226
319.5,0.1902
320.0,0.2309
320.5,0.2774
321.0,0.2382
321.5,0.2275
322.0,0.2521
322.5,0.2188
323.0,0.2124
323.5,0.2547
324.0,0.296
324.5,0.3036
325.0,0.2659
325.5,0.3349
326.0,0.4067
326.5,0.4017
327.0,0.4023
327.5,0.391
328.0,0.3545
328.5,0.3644
329.0,0.4287
329.5,0.484
330.0,0.4903
330.5,0.3976
331.0,0.4069
331.5,0.4093
332.0,0.4358
332.5,0.4282
333.0,0.4286
333.5,0.392
334.0,0.4022
334.5,0.4584
335.0,0.4277
335.5,0.4995
336.0,0.3456
336.5,0.406
337.0,0.3347
337.5,0.417
338.0,0.4031
338.5,0.465
339.0,0.4601
339.5,0.4425
340.0,0.5201
340.5,0.4683
341.0,0.4568
341.5,0.4192
342.0,0.5009
342.5,0.4685
343.0,0.5153
343.5,0.4853
344.0,0.3584
344.5,0.3621
345.0,0.4789
345.5,0.4888
346.0,0.4153
346.5,0.4701
347.0,0.5047
347.5,0.408
348.0,0.465
348.5,0.4646
349.0,0.4309
349.5,0.4266
350.0,0.5275
350.5,0.5563
351.0,0.497
351.5,0.4831
352.0,0.5187
352.5,0.4047
353.0,0.5095
353.5,0.5447
354.0,0.5654
354.5,0.5734
355.0,0.5715
355.5,0.5161
356.0,0.5399
356.5,0.461
357.0,0.3809
357.5,0.4663
358.0,0.3695
358.5,0.3157
359.0,0.4416
359.5,0.5628
360.0,0.5966
360.5,0.4768
361.0,0.4346
361.5,0.5002
362.0,0.4324
362.5,0.5983
363.0,0.5372
363.5,0.4947
364.0,0.605
364.5,0.5171
365.0,0.5266
365.5,0.6608
366.0,0.7
366.5,0.6576
367.0,0.6403
367.5,0.6645
368.0,0.5814
368.5,0.5867
369.0,0.6335
369.5,0.6752
370.0,0.7197
370.5,0.5585
371.0,0.5967
371.5,0.7465
372.0,0.4954
372.5,0.594
373.0,0.6041
373.5,0.393
374.0,0.5711
374.5,0.4729
375.0,0.4597
375.5,0.6863
376.0,0.5689
376.5,0.5895
377.0,0.6241
377.5,0.7301
378.0,0.7915
378.5,0.7481
379.0,0.6174
379.5,0.564
380.0,0.5864
380.5,0.7101
381.0,0.7115
381.5,0.5639
382.0,0.5008
382.5,0.4268
383.0,0.3951
383.5,0.3805
384.0,0.4197
384.5,0.6173
385.0,0.6121
385.5,0.57
386.0,0.4882
386.5,0.6412
387.0,0.5328
387.5,0.5984
388.0,0.5525
388.5,0.5461
389.0,0.5895
389.5,0.7139
390.0,0.7165
390.5,0.6593
391.0,0.7761
391.5,0.7916
392.0,0.6667
392.5,0.5968
393.0,0.3321
393.5,0.2414
394.0,0.4911
394.5,0.6244
395.0,0.7619
395.5,0.7739
396.0,0.671
396.5,0.3922
397.0,0.2943
397.5,0.5985
398.0,0.8382
398.5,0.8664
399.0,0.938
399.5,0.9349
400.0,0.9708
401.0,0.9868
402.0,1.041
403.0,0.9886
404.0,0.9733
405.0,0.973
406.0,0.957
407.0,0.9414
408.0,0.9782
409.0,1.047
410.0,0.9145
411.0,0.9904
412.0,1.063
413.0,1.037
414.0,1.05
415.0,1.052
416.0,1.07
417.0,1.044
418.0,1.025
419.0,1.038
420.0,1.033
421.0,1.081
422.0,1.027
423.0,1.003
424.0,1.061
425.0,1.059
426.0,1.031
427.0,1.012
428.0,0.9854
429.0,0.933
430.0,0.8164
431.0,0.8093
432.0,1.045
433.0,1.05
434.0,0.9752
435.0,1.018
436.0,1.147
437.0,1.131
438.0,1.03
439.0,1.066
440.0,1.099
441.0,1.139
442.0,1.221
443.0,1.19
444.0,1.215
445.0,1.189
446.0,1.134
447.0,1.226
448.0,1.245
449.0,1.249
450.0,1.284
451.0,1.332
452.0,1.283
453.0,1.206
454.0,1.259
455.0,1.267
456.0,1.296
457.0,1.318
458.0,1.273
459.0,1.267
460.0,1.27
461.0,1.299
462.0,1.309
463.0,1.3
464.0,1.278
465.0,1.261
466.0,1.273
467.0,1.25
468.0,1.264
469.0,1.271
470.0,1.231
471.0,1.229
472.0,1.295
473.0,1.278
474.0,1.28
475.0,1.292
476.0,1.254
477.0,1.258
478.0,1.292
479.0,1.284
480.0,1.286
481.0,1.31
482.0,1.316
483.0,1.299
484.0,1.272
485.0,1.212
486.0,1.059
487.0,1.109
488.0,1.217
489.0,1.221
490.0,1.284
491.0,1.262
492.0,1.192
493.0,1.231
494.0,1.243
495.0,1.253
496.0,1.261
497.0,1.281
498.0,1.221
499.0,1.237
500.0,1.201
501.0,1.179
502.0,1.163
503.0,1.211
504.0,1.183
505.0,1.223
506.0,1.263
507.0,1.202
508.0,1.164
509.0,1.196
510.0,1.189
511.0,1.22
512.0,1.233
513.0,1.167
514.0,1.159
515.0,1.147
516.0,1.145
517.0,1.017
518.0,1.069
519.0,1.121
520.0,1.162
521.0,1.173
522.0,1.175
523.0,1.154
524.0,1.195
525.0,1.21
526.0,1.156
527.0,1.09
528.0,1.153
529.0,1.216
530.0,1.198
531.0,1.216
532.0,1.175
533.0,1.14
534.0,1.174
535.0,1.199
536.0,1.21
537.0,1.162
538.0,1.182
539.0,1.172
540.0,1.124
541.0,1.132
542.0,1.168
543.0,1.155
544.0,1.176
545.0,1.172
546.0,1.178
547.0,1.177
548.0,1.162
549.0,1.166
550.0,1.179
551.0,1.165
552.0,1.173
553.0,1.152
554.0,1.18
555.0,1.182
556.0,1.167
557.0,1.131
558.0,1.123
559.0,1.102
560.0,1.116
561.0,1.131
562.0,1.123
563.0,1.154
564.0,1.123
565.0,1.114
566.0,1.098
567.0,1.119
568.0,1.11
569.0,1.086
570.0,1.086
571.0,1.078
572.0,1.106
573.0,1.118
574.0,1.115
575.0,1.094
576.0,1.084
577.0,1.096
578.0,1.079
579.0,1.082
580.0,1.101
581.0,1.106
582.0,1.125
583.0,1.127
584.0,1.137
585.0,1.108
586.0,1.086
587.0,1.11
588.0,1.086
589.0,0.9677
590.0,1.012
591.0,1.067
592.0,1.056
593.0,1.069
594.0,1.062
595.0,1.038
596.0,1.074
597.0,1.064
598.0,1.06
599.0,1.06
600.0,1.061
601.0,1.051
602.0,1.044
603.0,1.061
604.0,1.078
605.0,1.072
606.0,1.067
607.0,1.077
608.0,1.065
609.0,1.066
610.0,1.058
611.0,1.064
612.0,1.06
613.0,1.047
614.0,1.032
615.0,1.054
616.0,1.019
617.0,1.017
618.0,1.056
619.0,1.045
620.0,1.051
621.0,1.053
622.0,1.041
623.0,1.025
624.0,1.008
625.0,1.005
626.0,1.02
627.0,1.033
628.0,0.9762
629.0,1.012
630.0,0.9893
631.0,1.008
632.0,0.9949
633.0,1.023
634.0,1.012
635.0,1.027
636.0,1.013
637.0,1.029
638.0,1.038
639.0,1.026
640.0,1.016
641.0,1.014
642.0,1.009
643.0,1.023
644.0,1.019
645.0,1.021
646.0,0.9987
647.0,0.99
648.0,0.9913
649.0,0.9723
650.0,0.9729
651.0,1.014
652.0,0.9766
653.0,1.001
654.0,0.9891
655.0,0.9545
656.0,0.8444
657.0,0.8669
658.0,0.9703
659.0,0.9767
660.0,0.9805
661.0,0.9873
662.0,0.9901
663.0,0.9702
664.0,0.9805
665.0,0.9805
666.0,0.9808
667.0,0.9795
668.0,0.9795
669.0,0.9943
670.0,0.9898
671.0,0.9894
672.0,0.9808
673.0,0.9954
674.0,0.9915
675.0,0.9823
676.0,0.9889
677.0,0.9789
678.0,0.9815
679.0,0.9656
680.0,0.9732
681.0,0.9667
682.0,0.9655
683.0,0.9636
684.0,0.9588
685.0,0.9668
686.0,0.9613
687.0,0.6898
688.0,0.7835
689.0,0.7855
690.0,0.8156
691.0,0.8491
692.0,0.8727
693.0,0.8664
694.0,0.8593
695.0,0.8886
696.0,0.8899
697.0,0.9364
698.0,0.922
699.0,0.9051
700.0,0.8943
701.0,0.8868
702.0,0.891
703.0,0.8926
704.0,0.9181
705.0,0.9195
706.0,0.9175
707.0,0.9177
708.0,0.9198
709.0,0.9192
710.0,0.9201
711.0,0.9182
712.0,0.9146
713.0,0.9062
714.0,0.9094
715.0,0.8826
716.0,0.8837
717.0,0.7854
718.0,0.7247
719.0,0.6659
720.0,0.6989
721.0,0.7596
722.0,0.8562
723.0,0.8038
724.0,0.7318
725.0,0.7228
726.0,0.7551
727.0,0.7615
728.0,0.7218
729.0,0.7419
730.0,0.7848
731.0,0.7531
732.0,0.7984
733.0,0.8382
734.0,0.8562
735.0,0.8395
736.0,0.8383
737.0,0.8418
738.0,0.8503
739.0,0.8336
740.0,0.8539
741.0,0.8446
742.0,0.8446
743.0,0.8658
744.0,0.8628
745.0,0.8626
746.0,0.8666
747.0,0.8684
748.0,0.8665
749.0,0.8566
750.0,0.856
751.0,0.8473
752.0,0.8509
753.0,0.8552
754.0,0.8571
755.0,0.8523
756.0,0.8518
757.0,0.8531
758.0,0.8426
759.0,0.8281
760.0,0.191
761.0,0.1125
762.0,0.4765
763.0,0.2704
764.0,0.3776
765.0,0.4767
766.0,0.5599
767.0,0.6817
768.0,0.7674
769.0,0.7792
770.0,0.8009
771.0,0.8053
772.0,0.8063
773.0,0.8118
774.0,0.8077
775.0,0.8014
776.0,0.8111
777.0,0.8004
778.0,0.7956
779.0,0.7963
780.0,0.7917
781.0,0.7925
782.0,0.7974
783.0,0.7835
784.0,0.7872
785.0,0.7815
786.0,0.7903
787.0,0.7785
788.0,0.7698
789.0,0.7697
790.0,0.7522
791.0,0.7558
792.0,0.7499
793.0,0.7381
794.0,0.7477
795.0,0.7611
796.0,0.7417
797.0,0.7427
798.0,0.7606
799.0,0.7565
800.0,0.7443
801.0,0.7429
802.0,0.7407
803.0,0.7355
804.0,0.7361
805.0,0.7326
806.0,0.7513
807.0,0.7427
808.0,0.7432
809.0,0.7306
810.0,0.7257
811.0,0.7285
812.0,0.7104
813.0,0.6974
814.0,0.623
815.0,0.6188
816.0,0.5773
817.0,0.5867
818.0,0.5669
819.0,0.6255
820.0,0.5923
821.0,0.6812
822.0,0.6635
823.0,0.4693
824.0,0.6481
825.0,0.6699
826.0,0.6478
827.0,0.6801
828.0,0.5867
829.0,0.6432
830.0,0.6359
831.0,0.6377
832.0,0.62
833.0,0.6544
834.0,0.6346
835.0,0.69
836.0,0.6649
837.0,0.6916
838.0,0.6721
839.0,0.6807
840.0,0.6951
841.0,0.6861
842.0,0.6863
843.0,0.6846
844.0,0.6758
845.0,0.6976
846.0,0.6943
847.0,0.681
848.0,0.6774
849.0,0.6581
850.0,0.6304
851.0,0.6681
852.0,0.6631
853.0,0.6378
854.0,0.5511
855.0,0.6049
856.0,0.6613
857.0,0.6757
858.0,0.6709
859.0,0.6712
860.0,0.6722
861.0,0.6686
862.0,0.679
863.0,0.695
864.0,0.6603
865.0,0.6544
866.0,0.5884
867.0,0.6141
868.0,0.6682
869.0,0.6543
870.0,0.673
871.0,0.6638
872.0,0.6614
873.0,0.6601
874.0,0.6522
875.0,0.639
876.0,0.6457
877.0,0.6522
878.0,0.6594
879.0,0.6492
880.0,0.6353
881.0,0.626
882.0,0.6397
883.0,0.6414
884.0,0.6386
885.0,0.6434
886.0,0.6142
887.0,0.62
888.0,0.6296
889.0,0.6359
890.0,0.6316
891.0,0.63
892.0,0.6131
893.0,0.5955
894.0,0.5777
895.0,0.5498
896.0,0.5197
897.0,0.4518
898.0,0.4899
899.0,0.3793
900.0,0.4984
901.0,0.3973
902.0,0.4575
903.0,0.4648
904.0,0.5733
905.0,0.5553
906.0,0.5211
907.0,0.4314
908.0,0.4388
909.0,0.4715
910.0,0.4238
911.0,0.4476
912.0,0.4664
913.0,0.4305
914.0,0.4256
915.0,0.4607
916.0,0.392
917.0,0.49
918.0,0.4022
919.0,0.4971
920.0,0.4987
921.0,0.5179
922.0,0.4679
923.0,0.5
924.0,0.4798
925.0,0.4695
926.0,0.4747
927.0,0.5267
928.0,0.3997
929.0,0.3684
930.0,0.2952
931.0,0.2787
932.0,0.2065
933.0,0.1709
934.0,0.1003
935.0,0.1723
936.0,0.1117
937.0,0.1138
938.0,0.1383
939.0,0.2701
940.0,0.321
941.0,0.2476
942.0,0.2833
943.0,0.1905
944.0,0.1969
945.0,0.2544
946.0,0.1351
947.0,0.2569
948.0,0.1897
949.0,0.3383
950.0,0.1029
951.0,0.3321
952.0,0.1859
953.0,0.2352
954.0,0.283
955.0,0.2373
956.0,0.2277
957.0,0.187
958.0,0.315
959.0,0.2561
960.0,0.2869
961.0,0.3175
962.0,0.301
963.0,0.3431
964.0,0.3156
965.0,0.3414
966.0,0.3424
967.0,0.3413
968.0,0.4442
969.0,0.465
970.0,0.4289
971.0,0.4852
972.0,0.4652
973.0,0.4109
974.0,0.3909
975.0,0.4034
976.0,0.3861
977.0,0.4333
978.0,0.4142
979.0,0.4319
980.0,0.4073
981.0,0.4821
982.0,0.4631
983.0,0.4458
984.0,0.4944
985.0,0.4613
986.0,0.5017
987.0,0.4934
988.0,0.4925
989.0,0.4993
990.0,0.4894
991.0,0.5009
992.0,0.5037
993.0,0.494
994.0,0.5034
995.0,0.5025
996.0,0.5005
997.0,0.5011
998.0,0.4989
999.0,0.497
1000.0,0.4938
1001.0,0.4996
1002.0,0.4873
1003.0,0.4909
1004.0,0.4792
1005.0,0.4612
1006.0,0.4794
1007.0,0.4895
1008.0,0.4871
1009.0,0.4847
1010.0,0.4828
1011.0,0.4869
1012.0,0.483
1013.0,0.4857
1014.0,0.4823
1015.0,0.4791
1016.0,0.477
1017.0,0.4783
1018.0,0.4763
1019.0,0.4667
1020.0,0.4739
1021.0,0.4731
1022.0,0.4696
1023.0,0.4747
1024.0,0.469
1025.0,0.4741
1026.0,0.4723
1027.0,0.4711
1028.0,0.4702
1029.0,0.4647
1030.0,0.4677
1031.0,0.4659
1032.0,0.4645
1033.0,0.4575
1034.0,0.4575
1035.0,0.4589
1036.0,0.4613
1037.0,0.4538
1038.0,0.4559
1039.0,0.4556
1040.0,0.4538
1041.0,0.4557
1042.0,0.4525
1043.0,0.4511
1044.0,0.4527
1045.0,0.4466
1046.0,0.4417
1047.0,0.4457
1048.0,0.4482
1049.0,0.4466
1050.0,0.4446
1051.0,0.444
1052.0,0.4423
1053.0,0.4388
1054.0,0.4398
1055.0,0.4402
1056.0,0.4387
1057.0,0.4374
1058.0,0.4267
1059.0,0.4273
1060.0,0.4267
1061.0,0.4262
1062.0,0.4285
1063.0,0.4244
1064.0,0.4294
1065.0,0.4265
1066.0,0.4179
1067.0,0.4234
1068.0,0.4143
1069.0,0.4014
1070.0,0.4151
1071.0,0.4211
1072.0,0.4166
1073.0,0.4105
1074.0,0.4206
1075.0,0.401
1076.0,0.4203
1077.0,0.4137
1078.0,0.4062
1079.0,0.4134
1080.0,0.4073
1081.0,0.395
1082.0,0.4
1083.0,0.4009
1084.0,0.3944
1085.0,0.4081
1086.0,0.3748
1087.0,0.3851
1088.0,0.4008
1089.0,0.3899
1090.0,0.3824
1091.0,0.3999
1092.0,0.3985
1093.0,0.3423
1094.0,0.3652
1095.0,0.356
1096.0,0.3422
1097.0,0.3892
1098.0,0.3374
1099.0,0.3512
1100.0,0.3285
1101.0,0.332
1102.0,0.3183
1103.0,0.3161
1104.0,0.3164
1105.0,0.3436
1106.0,0.2705
1107.0,0.3278
1108.0,0.2825
1109.0,0.2821
1110.0,0.3255
1111.0,0.227
1112.0,0.2796
1113.0,0.1844
1114.0,0.2054
1115.0,0.1705
1116.0,0.1401
1117.0,0.05591
1118.0,0.1509
1119.0,0.07839
1120.0,0.0988
1121.0,0.1289
1122.0,0.05731
1123.0,0.08916
1124.0,0.0753
1125.0,0.09739
1126.0,0.03695
1127.0,0.1096
1128.0,0.06884
1129.0,0.07254
1130.0,0.04916
1131.0,0.2001
1132.0,0.1585
1133.0,0.1045
1134.0,0.02926
1135.0,0.01084
1136.0,0.08867
1137.0,0.1978
1138.0,0.1403
1139.0,0.2014
1140.0,0.1713
1141.0,0.1333
1142.0,0.1517
1143.0,0.2122
1144.0,0.07805
1145.0,0.1007
1146.0,0.1086
1147.0,0.04142
1148.0,0.1837
1149.0,0.1491
1150.0,0.0837
1151.0,0.1392
1152.0,0.1685
1153.0,0.1621
1154.0,0.09823
1155.0,0.2102
1156.0,0.1908
1157.0,0.2118
1158.0,0.2095
1159.0,0.2239
1160.0,0.1938
1161.0,0.2341
1162.0,0.2356
1163.0,0.3103
1164.0,0.2691
1165.0,0.2566
1166.0,0.2529
1167.0,0.274
1168.0,0.2776
1169.0,0.2832
1170.0,0.3054
1171.0,0.2981
1172.0,0.3021
1173.0,0.3047
1174.0,0.2242
1175.0,0.2966
1176.0,0.3228
1177.0,0.312
1178.0,0.2394
1179.0,0.3253
1180.0,0.294
1181.0,0.303
1182.0,0.2146
1183.0,0.2976
1184.0,0.2807
1185.0,0.2725
1186.0,0.3176
1187.0,0.3042
1188.0,0.2188
1189.0,0.2838
1190.0,0.3104
1191.0,0.2976
1192.0,0.3144
1193.0,0.3023
1194.0,0.3108
1195.0,0.2961
1196.0,0.2865
1197.0,0.3099
1198.0,0.2851
1199.0,0.2472
1200.0,0.2987
1201.0,0.2897
1202.0,0.287
1203.0,0.2847
1204.0,0.2516
1205.0,0.2923
1206.0,0.3202
1207.0,0.2867
1208.0,0.2808
1209.0,0.2862
1210.0,0.2971
1211.0,0.2848
1212.0,0.2834
1213.0,0.3107
1214.0,0.2892
1215.0,0.2842
1216.0,0.3096
1217.0,0.3024
1218.0,0.3072
1219.0,0.3039
1220.0,0.3074
1221.0,0.3099
1222.0,0.3024
1223.0,0.3
1224.0,0.2988
1225.0,0.308
1226.0,0.3095
1227.0,0.2879
1228.0,0.3105
1229.0,0.3095
1230.0,0.3047
1231.0,0.3118
1232.0,0.31
1233.0,0.3013
1234.0,0.3111
1235.0,0.3094
1236.0,0.3115
1237.0,0.3079
1238.0,0.3104
1239.0,0.3065
1240.0,0.3075
1241.0,0.3065
1242.0,0.3055
1243.0,0.3029
1244.0,0.3053
1245.0,0.3065
1246.0,0.3047
1247.0,0.3036
1248.0,0.3036
1249.0,0.3044
1250.0,0.3027
1251.0,0.2991
1252.0,0.2988
1253.0,0.297
1254.0,0.2946
1255.0,0.2986
1256.0,0.2915
1257.0,0.2901
1258.0,0.2946
1259.0,0.2858
1260.0,0.2871
1261.0,0.2734
1262.0,0.2664
1263.0,0.267
1264.0,0.2494
1265.0,0.2652
1266.0,0.257
1267.0,0.2603
1268.0,0.2488
1269.0,0.1676
1270.0,0.2598
1271.0,0.2722
1272.0,0.2728
1273.0,0.2701
1274.0,0.2706
1275.0,0.2741
1276.0,0.2763
1277.0,0.2776
1278.0,0.2819
1279.0,0.2795
1280.0,0.2759
1281.0,0.2628
1282.0,0.2525
1283.0,0.2721
1284.0,0.2787
1285.0,0.2804
1286.0,0.2838
1287.0,0.2802
1288.0,0.2799
1289.0,0.2726
1290.0,0.2773
1291.0,0.281
1292.0,0.2668
1293.0,0.2762
1294.0,0.2744
1295.0,0.2738
1296.0,0.2632
1297.0,0.2504
1298.0,0.2666
1299.0,0.2762
1300.0,0.2388
1301.0,0.2451
1302.0,0.2657
1303.0,0.2351
1304.0,0.2052
1305.0,0.2606
1306.0,0.2609
1307.0,0.208
1308.0,0.2347
1309.0,0.2593
1310.0,0.2042
1311.0,0.2261
1312.0,0.2207
1313.0,0.2172
1314.0,0.1961
1315.0,0.1946
1316.0,0.2233
1317.0,0.2121
1318.0,0.2286
1319.0,0.1842
1320.0,0.1772
1321.0,0.2046
1322.0,0.2074
1323.0,0.1606
1324.0,0.1806
1325.0,0.2204
1326.0,0.192
1327.0,0.1839
1328.0,0.16
1329.0,0.124
1330.0,0.1594
1331.0,0.1008
1332.0,0.1025
1333.0,0.1416
1334.0,0.1179
1335.0,0.16
1336.0,0.1288
1337.0,0.1152
1338.0,0.1246
1339.0,0.1234
1340.0,0.1189
1341.0,0.1187
1342.0,0.1245
1343.0,0.08999
1344.0,0.05368
1345.0,0.07687
1346.0,0.042
1347.0,0.04336
1348.0,0.003585
1349.0,0.01199
1350.0,0.01183
1351.0,0.003571
1352.0,0.001208
1353.0,8.026e-05
1354.0,0.0002347
1355.0,3.209e-06
1356.0,4.007e-05
1357.0,6.053e-05
1358.0,3.721e-06
1359.0,6.913e-07
1360.0,1.955e-06
1361.0,5.056e-09
1362.0,2.018e-11
1363.0,2.922e-06
1364.0,1.259e-06
1365.0,1.103e-11
1366.0,1.15e-05
1367.0,4.476e-06
1368.0,2.068e-13
1369.0,4.834e-07
1370.0,2.805e-07
1371.0,1.972e-08
1372.0,2.47e-06
1373.0,3.797e-05
1374.0,0.0001471
1375.0,0.0002667
1376.0,0.0002093
1377.0,0.0001002
1378.0,0.0008928
1379.0,4.255e-05
1380.0,6.809e-05
1381.0,2.016e-06
1382.0,2.331e-06
1383.0,4.135e-08
1384.0,5.82e-07
1385.0,1.845e-06
1386.0,2.32e-06
1387.0,0.0001683
1388.0,3.443e-06
1389.0,0.0004712
1390.0,0.000405
1391.0,0.0002827
1392.0,1.983e-05
1393.0,9.49e-05
1394.0,6.502e-05
1395.0,6.034e-07
1396.0,6.527e-09
1397.0,4.075e-05
1398.0,0.001019
1399.0,0.000646
1400.0,3.494e-09
1401.0,1.084e-08
1402.0,0.001419
1403.0,0.001861
1404.0,0.0005787
1405.0,3.383e-07
1406.0,0.001616
1407.0,0.0001379
1408.0,0.001307
1409.0,0.0005017
1410.0,0.0003728
1411.0,0.001624
1412.0,0.002057
1413.0,0.01743
1414.0,0.0002898
1415.0,0.0001486
1416.0,0.0259
1417.0,0.008765
1418.0,0.01006
1419.0,0.001608
1420.0,0.006193
1421.0,0.006747
1422.0,0.03353
1423.0,0.006752
1424.0,0.01243
1425.0,0.01861
1426.0,0.02029
1427.0,0.03538
1428.0,0.003428
1429.0,0.0273
1430.0,0.04445
1431.0,0.04831
1432.0,0.002725
1433.0,0.03145
1434.0,0.01636
1435.0,0.0176
1436.0,0.032
1437.0,0.02452
1438.0,0.01091
1439.0,0.04265
1440.0,0.03205
1441.0,0.02535
1442.0,0.02793
1443.0,0.03367
1444.0,0.04603
1445.0,0.03714
1446.0,0.01705
1447.0,0.02682
1448.0,0.08279
1449.0,0.07298
1450.0,0.01985
1451.0,0.008245
1452.0,0.04497
1453.0,0.05842
1454.0,0.09656
1455.0,0.04692
