interpolation:linear
wavelength,value
280.0,1.7699999999999999e-22
280.5,5.854e-21
281.0,3.146e-20
281.5,3.879e-19
282.0,5.906e-19
282.5,1.459e-18
283.0,4.613e-18
283.5,7.515e-18
284.0,1.242e-16
284.5,3.632e-16
285.0,5.99e-16
285.5,2.981e-15
286.0,1.202e-14
286.5,5.421e-14
287.0,1.558e-13
287.5,6.021e-13
288.0,2.133e-12
288.5,6.336e-12
289.0,1.669e-11
289.5,5.006e-11
290.0,1.385e-10
290.5,2.821e-10
291.0,6.05e-10
291.5,1.737e-09
292.0,3.483e-09
292.5,4.884e-09
293.0,1.047e-08
293.5,2.546e-08
294.0,3.983e-08
294.5,5.419e-08
295.0,9.181e-08
295.5,1.519e-07
296.0,2.933e-07
296.5,4.105e-07
297.0,5.557e-07
297.5,1.492e-06
298.0,2.354e-06
298.5,2.368e-06
299.0,5.223e-06
299.5,8.675e-06
300.0,9.535e-06
300.5,1.38e-05
301.0,2.49e-05
301.5,3.95e-05
302.0,3.367e-05
302.5,6.72e-05
303.0,0.0001245
303.5,0.0001613
304.0,0.0001568
304.5,0.0002566
305.0,0.0004448
305.5,0.0005557
306.0,0.0005564
306.5,0.0007337
307.0,0.001238
307.5,0.001867
308.0,0.002013
308.5,0.002532
309.0,0.002751
309.5,0.003578
310.0,0.003811
310.5,0.006353
311.0,0.008361
311.5,0.008238
312.0,0.009122
312.5,0.01187
313.0,0.01334
313.5,0.01253
314.0,0.01698
314.5,0.01674
315.0,0.02241
315.5,0.01781
316.0,0.01695
316.5,0.02619
317.0,0.03247
317.5,0.03309
318.0,0.02714
318.5,0.03708
319.0,0.04617
319.5,0.03483
320.0,0.0416
320.5,0.05739
321.0,0.05577
321.5,0.05394
322.0,0.05235
322.5,0.04577
323.0,0.04845
323.5,0.06331
324.0,0.07465
324.5,0.07389
325.0,0.06163
325.5,0.08328
326.0,0.1038
326.5,0.1074
327.0,0.1058
327.5,0.1006
328.0,0.08581
328.5,0.09506
329.0,0.1187
329.5,0.1365
330.0,0.1363
330.5,0.1057
331.0,0.1065
331.5,0.1109
332.0,0.1241
332.5,0.1247
333.0,0.1232
333.5,0.1087
334.0,0.111
334.5,0.1319
335.0,0.1261
335.5,0.148
336.0,0.1024
336.5,0.1184
337.0,0.09603
337.5,0.119
338.0,0.119
338.5,0.1384
339.0,0.1373
339.5,0.132
340.0,0.1541
340.5,0.1393
341.0,0.1366
341.5,0.1259
342.0,0.1506
342.5,0.1411
343.0,0.155
343.5,0.1458
344.0,0.1072
344.5,0.1087
345.0,0.1444
345.5,0.1478
346.0,0.1258
346.5,0.1426
347.0,0.1529
347.5,0.1237
348.0,0.1413
348.5,0.1415
349.0,0.1314
349.5,0.1302
350.0,0.1612
350.5,0.1701
351.0,0.1519
351.5,0.1473
352.0,0.1586
352.5,0.124
353.0,0.1564
353.5,0.1674
354.0,0.174
354.5,0.1765
355.0,0.1759
355.5,0.1591
356.0,0.1666
356.5,0.1424
357.0,0.1177
357.5,0.1441
358.0,0.1143
358.5,0.09773
359.0,0.1367
359.5,0.1742
360.0,0.1848
360.5,0.1478
361.0,0.1349
361.5,0.1555
362.0,0.1347
362.5,0.1867
363.0,0.1678
363.5,0.1547
364.0,0.1894
364.5,0.162
365.0,0.1651
365.5,0.2074
366.0,0.22
366.5,0.2069
367.0,0.2016
367.5,0.2094
368.0,0.1834
368.5,0.1852
369.0,0.2001
369.5,0.2135
370.0,0.2278
370.5,0.1769
371.0,0.1892
371.5,0.2369
372.0,0.1573
372.5,0.1888
373.0,0.1922
373.5,0.1252
374.0,0.182
374.5,0.1509
375.0,0.1468
375.5,0.2192
376.0,0.1819
376.5,0.1886
377.0,0.1998
377.5,0.234
378.0,0.2537
378.5,0.2399
379.0,0.1981
379.5,0.181
380.0,0.1883
380.5,0.2283
381.0,0.229
381.5,0.1818
382.0,0.1616
382.5,0.1379
383.0,0.1278
383.5,0.1232
384.0,0.1361
384.5,0.2003
385.0,0.1988
385.5,0.1853
386.0,0.1588
386.5,0.2089
387.0,0.1737
387.5,0.1952
388.0,0.1804
388.5,0.1784
389.0,0.1928
389.5,0.2337
390.0,0.2347
390.5,0.2162
391.0,0.2547
391.5,0.2599
392.0,0.2191
392.5,0.1963
393.0,0.1093
393.5,0.07955
394.0,0.162
394.5,0.2061
395.0,0.2517
395.5,0.2558
396.0,0.222
396.5,0.1299
397.0,0.09758
397.5,0.1986
398.0,0.2782
398.5,0.2877
399.0,0.312
399.5,0.3112
400.0,0.3232
401.0,0.3255
402.0,0.3441
403.0,0.3275
404.0,0.3229
405.0,0.3232
406.0,0.3186
407.0,0.314
408.0,0.3265
409.0,0.3499
410.0,0.3062
411.0,0.3322
412.0,0.3575
413.0,0.3489
414.0,0.3538
415.0,0.3553
416.0,0.3621
417.0,0.3536
418.0,0.3475
419.0,0.3526
420.0,0.3514
421.0,0.3681
422.0,0.3503
423.0,0.3426
424.0,0.3626
425.0,0.3624
426.0,0.3538
427.0,0.3475
428.0,0.3388
429.0,0.3216
430.0,0.2819
431.0,0.2794
432.0,0.3614
433.0,0.3638
434.0,0.3381
435.0,0.3533
436.0,0.3988
437.0,0.3942
438.0,0.3594
439.0,0.3713
440.0,0.3836
441.0,0.3981
442.0,0.4273
443.0,0.4161
444.0,0.4258
445.0,0.4167
446.0,0.3986
447.0,0.4317
448.0,0.4382
449.0,0.4409
450.0,0.4538
451.0,0.471
452.0,0.4542
453.0,0.4277
454.0,0.4472
455.0,0.4501
456.0,0.4612
457.0,0.469
458.0,0.4526
459.0,0.4506
460.0,0.4517
461.0,0.4623
462.0,0.4665
463.0,0.4634
464.0,0.4568
465.0,0.4519
466.0,0.457
467.0,0.4485
468.0,0.4539
469.0,0.4564
470.0,0.4418
471.0,0.4415
472.0,0.4652
473.0,0.4592
474.0,0.4594
475.0,0.4627
476.0,0.448
477.0,0.4487
478.0,0.4614
479.0,0.4591
480.0,0.4605
481.0,0.4698
482.0,0.4732
483.0,0.4684
484.0,0.4594
485.0,0.4383
486.0,0.3839
487.0,0.4029
488.0,0.442
489.0,0.4432
490.0,0.4667
491.0,0.4591
492.0,0.4337
493.0,0.4481
494.0,0.4528
495.0,0.4567
496.0,0.4596
497.0,0.4666
498.0,0.4447
499.0,0.45
500.0,0.4364
501.0,0.4278
502.0,0.4207
503.0,0.4367
504.0,0.4224
505.0,0.4401
506.0,0.4543
507.0,0.4325
508.0,0.42
509.0,0.4326
510.0,0.431
511.0,0.4433
512.0,0.4485
513.0,0.4246
514.0,0.422
515.0,0.4178
516.0,0.4166
517.0,0.3704
518.0,0.3893
519.0,0.4083
520.0,0.423
521.0,0.4269
522.0,0.427
523.0,0.4191
524.0,0.4335
525.0,0.4377
526.0,0.4178
527.0,0.3931
528.0,0.4151
529.0,0.4371
530.0,0.4305
531.0,0.4366
532.0,0.4214
533.0,0.4091
534.0,0.4215
535.0,0.4311
536.0,0.4354
537.0,0.4186
538.0,0.4262
539.0,0.4226
540.0,0.4049
541.0,0.4066
542.0,0.4189
543.0,0.4152
544.0,0.4216
545.0,0.4205
546.0,0.4215
547.0,0.422
548.0,0.4174
549.0,0.4189
550.0,0.4239
551.0,0.4189
552.0,0.4218
553.0,0.4141
554.0,0.4239
555.0,0.4246
556.0,0.4189
557.0,0.4055
558.0,0.402
559.0,0.3939
560.0,0.3985
561.0,0.4031
562.0,0.3996
563.0,0.4098
564.0,0.398
565.0,0.3941
566.0,0.3878
567.0,0.3945
568.0,0.3892
569.0,0.3767
570.0,0.377
571.0,0.3756
572.0,0.3824
573.0,0.3861
574.0,0.3843
575.0,0.3764
576.0,0.373
577.0,0.3774
578.0,0.3727
579.0,0.3757
580.0,0.3853
581.0,0.3891
582.0,0.3981
583.0,0.4004
584.0,0.4048
585.0,0.3955
586.0,0.3874
587.0,0.3949
588.0,0.3812
589.0,0.3299
590.0,0.3456
591.0,0.3704
592.0,0.363
593.0,0.372
594.0,0.3679
595.0,0.3558
596.0,0.3764
597.0,0.3706
598.0,0.3716
599.0,0.3728
600.0,0.375
601.0,0.3732
602.0,0.3709
603.0,0.3777
604.0,0.3843
605.0,0.3827
606.0,0.3818
607.0,0.3864
608.0,0.3829
609.0,0.3842
610.0,0.3822
611.0,0.3846
612.0,0.3839
613.0,0.3795
614.0,0.3749
615.0,0.3837
616.0,0.3716
617.0,0.3712
618.0,0.3859
619.0,0.3822
620.0,0.3846
621.0,0.3845
622.0,0.3795
623.0,0.3733
624.0,0.3674
625.0,0.3665
626.0,0.3717
627.0,0.3743
628.0,0.3311
629.0,0.359
630.0,0.35
631.0,0.3643
632.0,0.3612
633.0,0.3748
634.0,0.3732
635.0,0.3801
636.0,0.3763
637.0,0.3834
638.0,0.3886
639.0,0.385
640.0,0.3822
641.0,0.3826
642.0,0.3817
643.0,0.3869
644.0,0.3865
645.0,0.3867
646.0,0.3754
647.0,0.3657
648.0,0.3664
649.0,0.3585
650.0,0.367
651.0,0.3841
652.0,0.3615
653.0,0.3794
654.0,0.3757
655.0,0.3584
656.0,0.32
657.0,0.329
658.0,0.3709
659.0,0.3744
660.0,0.3765
661.0,0.3794
662.0,0.3789
663.0,0.3719
664.0,0.3782
665.0,0.38
666.0,0.3808
667.0,0.3812
668.0,0.3822
669.0,0.3886
670.0,0.3872
671.0,0.3876
672.0,0.3845
673.0,0.3906
674.0,0.3895
675.0,0.3863
676.0,0.3892
677.0,0.3856
678.0,0.387
679.0,0.381
680.0,0.3842
681.0,0.3818
682.0,0.3814
683.0,0.3807
684.0,0.3788
685.0,0.3824
686.0,0.3797
687.0,0.1769
688.0,0.2389
689.0,0.2409
690.0,0.2645
691.0,0.2927
692.0,0.3154
693.0,0.3121
694.0,0.3114
695.0,0.3342
696.0,0.3353
697.0,0.367
698.0,0.3611
699.0,0.3447
700.0,0.3401
701.0,0.3335
702.0,0.3389
703.0,0.3403
704.0,0.3559
705.0,0.3564
706.0,0.3578
707.0,0.3589
708.0,0.3594
709.0,0.3632
710.0,0.3614
711.0,0.3621
712.0,0.3626
713.0,0.3574
714.0,0.3593
715.0,0.3447
716.0,0.3441
717.0,0.2705
718.0,0.2463
719.0,0.2235
720.0,0.2312
721.0,0.2708
722.0,0.3269
723.0,0.296
724.0,0.2562
725.0,0.2489
726.0,0.2613
727.0,0.2721
728.0,0.247
729.0,0.2658
730.0,0.2789
731.0,0.2652
732.0,0.294
733.0,0.3205
734.0,0.3312
735.0,0.3227
736.0,0.3218
737.0,0.3232
738.0,0.3358
739.0,0.3293
740.0,0.3402
741.0,0.3381
742.0,0.3399
743.0,0.349
744.0,0.3489
745.0,0.3498
746.0,0.3513
747.0,0.3523
748.0,0.3517
749.0,0.3477
750.0,0.3476
751.0,0.3441
752.0,0.3457
753.0,0.3476
754.0,0.3483
755.0,0.3463
756.0,0.3463
757.0,0.3468
758.0,0.3423
759.0,0.3303
760.0,0.01262
761.0,0.004286
762.0,0.09614
763.0,0.02664
764.0,0.05607
765.0,0.09591
766.0,0.1457
767.0,0.2188
768.0,0.2856
769.0,0.2997
770.0,0.3192
771.0,0.326
772.0,0.3281
773.0,0.3307
774.0,0.3294
775.0,0.3271
776.0,0.3312
777.0,0.3269
778.0,0.3249
779.0,0.3252
780.0,0.3234
781.0,0.3238
782.0,0.326
783.0,0.3204
784.0,0.3221
785.0,0.3194
786.0,0.3226
787.0,0.3131
788.0,0.3075
789.0,0.3073
790.0,0.2942
791.0,0.3017
792.0,0.3003
793.0,0.2949
794.0,0.305
795.0,0.3087
796.0,0.2922
797.0,0.2919
798.0,0.3075
799.0,0.3043
800.0,0.2974
801.0,0.2947
802.0,0.2937
803.0,0.2905
804.0,0.2918
805.0,0.293
806.0,0.3048
807.0,0.3004
808.0,0.3009
809.0,0.2925
810.0,0.2885
811.0,0.2854
812.0,0.2721
813.0,0.2646
814.0,0.2201
815.0,0.2197
816.0,0.2028
817.0,0.2072
818.0,0.1965
819.0,0.2305
820.0,0.2133
821.0,0.2658
822.0,0.2556
823.0,0.1496
824.0,0.2418
825.0,0.2613
826.0,0.2459
827.0,0.2651
828.0,0.2089
829.0,0.2456
830.0,0.2412
831.0,0.242
832.0,0.2318
833.0,0.2538
834.0,0.24
835.0,0.2754
836.0,0.2555
837.0,0.2763
838.0,0.2635
839.0,0.2726
840.0,0.2796
841.0,0.2739
842.0,0.2772
843.0,0.28
844.0,0.2746
845.0,0.2858
846.0,0.2851
847.0,0.2806
848.0,0.2776
849.0,0.2697
850.0,0.2585
851.0,0.2724
852.0,0.2711
853.0,0.262
854.0,0.2253
855.0,0.2488
856.0,0.2714
857.0,0.2783
858.0,0.2759
859.0,0.2767
860.0,0.2776
861.0,0.2759
862.0,0.2805
863.0,0.2871
864.0,0.2728
865.0,0.2706
866.0,0.2433
867.0,0.2539
868.0,0.2764
869.0,0.2707
870.0,0.2785
871.0,0.2747
872.0,0.2738
873.0,0.2732
874.0,0.27
875.0,0.2645
876.0,0.2671
877.0,0.2699
878.0,0.2726
879.0,0.2685
880.0,0.2628
881.0,0.2582
882.0,0.2635
883.0,0.265
884.0,0.2635
885.0,0.2655
886.0,0.2508
887.0,0.2552
888.0,0.258
889.0,0.2628
890.0,0.2582
891.0,0.259
892.0,0.2484
893.0,0.2378
894.0,0.2229
895.0,0.2027
896.0,0.189
897.0,0.1535
898.0,0.1717
899.0,0.121
900.0,0.1816
901.0,0.1267
902.0,0.1615
903.0,0.1584
904.0,0.221
905.0,0.2107
906.0,0.1947
907.0,0.1436
908.0,0.1495
909.0,0.1673
910.0,0.1374
911.0,0.1547
912.0,0.1621
913.0,0.1389
914.0,0.14
915.0,0.1506
916.0,0.1262
917.0,0.1704
918.0,0.1285
919.0,0.1773
920.0,0.1874
921.0,0.1942
922.0,0.1658
923.0,0.1885
924.0,0.1675
925.0,0.1645
926.0,0.1648
927.0,0.1921
928.0,0.119
929.0,0.103
930.0,0.0722
931.0,0.06834
932.0,0.04103
933.0,0.0301
934.0,0.0105
935.0,0.03327
936.0,0.01656
937.0,0.01667
938.0,0.02191
939.0,0.06598
940.0,0.08582
941.0,0.05684
942.0,0.06971
943.0,0.04003
944.0,0.04813
945.0,0.06038
946.0,0.02324
947.0,0.05854
948.0,0.04233
949.0,0.08627
950.0,0.01422
951.0,0.08578
952.0,0.03676
953.0,0.05362
954.0,0.07292
955.0,0.05503
956.0,0.06139
957.0,0.03639
958.0,0.09472
959.0,0.06576
960.0,0.07376
961.0,0.09037
962.0,0.08521
963.0,0.105
964.0,0.0943
965.0,0.1042
966.0,0.1036
967.0,0.1021
968.0,0.1648
969.0,0.1676
970.0,0.1516
971.0,0.186
972.0,0.175
973.0,0.1399
974.0,0.132
975.0,0.1408
976.0,0.1266
977.0,0.1591
978.0,0.1449
979.0,0.1551
980.0,0.1442
981.0,0.1852
982.0,0.1724
983.0,0.1631
984.0,0.1968
985.0,0.1715
986.0,0.204
987.0,0.196
988.0,0.1959
989.0,0.2059
990.0,0.1946
991.0,0.2061
992.0,0.2077
993.0,0.1989
994.0,0.2081
995.0,0.2085
996.0,0.2069
997.0,0.2076
998.0,0.2063
999.0,0.2058
1000.0,0.2033
1001.0,0.207
1002.0,0.1969
1003.0,0.2031
1004.0,0.1969
1005.0,0.1913
1006.0,0.198
1007.0,0.2026
1008.0,0.2007
1009.0,0.1988
1010.0,0.1975
1011.0,0.2017
1012.0,0.1991
1013.0,0.2014
1014.0,0.2
1015.0,0.1986
1016.0,0.1976
1017.0,0.1979
1018.0,0.1977
1019.0,0.1918
1020.0,0.1964
1021.0,0.1964
1022.0,0.1943
1023.0,0.1963
1024.0,0.192
1025.0,0.1967
1026.0,0.1954
1027.0,0.1951
1028.0,0.1945
1029.0,0.192
1030.0,0.194
1031.0,0.1929
1032.0,0.1926
1033.0,0.1896
1034.0,0.1897
1035.0,0.1903
1036.0,0.1911
1037.0,0.1881
1038.0,0.1888
1039.0,0.1886
1040.0,0.1878
1041.0,0.1884
1042.0,0.1871
1043.0,0.1864
1044.0,0.1869
1045.0,0.1843
1046.0,0.1821
1047.0,0.1837
1048.0,0.1845
1049.0,0.1837
1050.0,0.1827
1051.0,0.1823
1052.0,0.1814
1053.0,0.1797
1054.0,0.1799
1055.0,0.1797
1056.0,0.1788
1057.0,0.178
1058.0,0.1734
1059.0,0.1733
1060.0,0.1729
1061.0,0.1726
1062.0,0.1732
1063.0,0.1713
1064.0,0.1734
1065.0,0.1715
1066.0,0.1686
1067.0,0.1706
1068.0,0.1664
1069.0,0.1617
1070.0,0.1668
1071.0,0.1708
1072.0,0.1677
1073.0,0.1655
1074.0,0.1715
1075.0,0.1588
1076.0,0.1711
1077.0,0.1658
1078.0,0.1615
1079.0,0.1692
1080.0,0.1633
1081.0,0.1558
1082.0,0.162
1083.0,0.1635
1084.0,0.1547
1085.0,0.164
1086.0,0.1442
1087.0,0.1524
1088.0,0.1626
1089.0,0.1535
1090.0,0.1482
1091.0,0.1611
1092.0,0.1613
1093.0,0.1264
1094.0,0.1463
1095.0,0.1321
1096.0,0.1237
1097.0,0.1577
1098.0,0.1201
1099.0,0.1268
1100.0,0.1141
1101.0,0.1169
1102.0,0.1088
1103.0,0.1058
1104.0,0.1062
1105.0,0.123
1106.0,0.07848
1107.0,0.1139
1108.0,0.08733
1109.0,0.08891
1110.0,0.1108
1111.0,0.06292
1112.0,0.0888
1113.0,0.04518
1114.0,0.05087
1115.0,0.04122
1116.0,0.0274
1117.0,0.005823
1118.0,0.03097
1119.0,0.01123
1120.0,0.0135
1121.0,0.01989
1122.0,0.005458
1123.0,0.01235
1124.0,0.01037
1125.0,0.01455
1126.0,0.002496
1127.0,0.01667
1128.0,0.006837
1129.0,0.007511
1130.0,0.004506
1131.0,0.04144
1132.0,0.03045
1133.0,0.0142
1134.0,0.001871
1135.0,0.0008162
1136.0,0.01027
1137.0,0.03863
1138.0,0.02617
1139.0,0.05154
1140.0,0.03817
1141.0,0.02504
1142.0,0.03093
1143.0,0.0496
1144.0,0.01218
1145.0,0.01363
1146.0,0.01466
1147.0,0.002734
1148.0,0.04202
1149.0,0.03018
1150.0,0.01428
1151.0,0.02598
1152.0,0.03602
1153.0,0.03845
1154.0,0.01368
1155.0,0.05362
1156.0,0.04562
1157.0,0.05701
1158.0,0.05616
1159.0,0.06324
1160.0,0.05206
1161.0,0.07168
1162.0,0.07118
1163.0,0.1107
1164.0,0.08983
1165.0,0.07955
1166.0,0.08341
1167.0,0.09329
1168.0,0.09321
1169.0,0.09672
1170.0,0.1097
1171.0,0.1069
1172.0,0.112
1173.0,0.1096
1174.0,0.06827
1175.0,0.11
1176.0,0.1274
1177.0,0.1178
1178.0,0.08074
1179.0,0.1284
1180.0,0.1077
1181.0,0.1113
1182.0,0.06795
1183.0,0.111
1184.0,0.101
1185.0,0.09461
1186.0,0.1217
1187.0,0.1128
1188.0,0.06737
1189.0,0.1047
1190.0,0.1196
1191.0,0.1073
1192.0,0.1219
1193.0,0.1147
1194.0,0.1196
1195.0,0.1089
1196.0,0.1026
1197.0,0.1214
1198.0,0.1093
1199.0,0.08439
1200.0,0.1132
1201.0,0.106
1202.0,0.1082
1203.0,0.1055
1204.0,0.0888
1205.0,0.113
1206.0,0.129
1207.0,0.1066
1208.0,0.1075
1209.0,0.1101
1210.0,0.1167
1211.0,0.1082
1212.0,0.1019
1213.0,0.1223
1214.0,0.1061
1215.0,0.1037
1216.0,0.1225
1217.0,0.1176
1218.0,0.1213
1219.0,0.1188
1220.0,0.1217
1221.0,0.1239
1222.0,0.12
1223.0,0.1181
1224.0,0.1156
1225.0,0.1228
1226.0,0.125
1227.0,0.1107
1228.0,0.1266
1229.0,0.125
1230.0,0.122
1231.0,0.1285
1232.0,0.1276
1233.0,0.1192
1234.0,0.1293
1235.0,0.1279
1236.0,0.1293
1237.0,0.1259
1238.0,0.1289
1239.0,0.1272
1240.0,0.1279
1241.0,0.1262
1242.0,0.1269
1243.0,0.1259
1244.0,0.1265
1245.0,0.1272
1246.0,0.1265
1247.0,0.1257
1248.0,0.1251
1249.0,0.126
1250.0,0.1249
1251.0,0.1226
1252.0,0.1235
1253.0,0.121
1254.0,0.1186
1255.0,0.123
1256.0,0.1167
1257.0,0.1155
1258.0,0.1199
1259.0,0.1113
1260.0,0.1124
1261.0,0.101
1262.0,0.0953
1263.0,0.09535
1264.0,0.08226
1265.0,0.09484
1266.0,0.0878
1267.0,0.09174
1268.0,0.08324
1269.0,0.03239
1270.0,0.09046
1271.0,0.1013
1272.0,0.1021
1273.0,0.1005
1274.0,0.1016
1275.0,0.104
1276.0,0.106
1277.0,0.1081
1278.0,0.1122
1279.0,0.1111
1280.0,0.1098
1281.0,0.1057
1282.0,0.1035
1283.0,0.1111
1284.0,0.1135
1285.0,0.1145
1286.0,0.117
1287.0,0.1135
1288.0,0.114
1289.0,0.1072
1290.0,0.1132
1291.0,0.1154
1292.0,0.1026
1293.0,0.1118
1294.0,0.1108
1295.0,0.1082
1296.0,0.09988
1297.0,0.0921
1298.0,0.1045
1299.0,0.1124
1300.0,0.08652
1301.0,0.0906
1302.0,0.1043
1303.0,0.08618
1304.0,0.06594
1305.0,0.1018
1306.0,0.1008
1307.0,0.07015
1308.0,0.08766
1309.0,0.09866
1310.0,0.06806
1311.0,0.08222
1312.0,0.07903
1313.0,0.07549
1314.0,0.06478
1315.0,0.06233
1316.0,0.07943
1317.0,0.07408
1318.0,0.08386
1319.0,0.05657
1320.0,0.05646
1321.0,0.06902
1322.0,0.06797
1323.0,0.04411
1324.0,0.05589
1325.0,0.07719
1326.0,0.06186
1327.0,0.05769
1328.0,0.04722
1329.0,0.0296
1330.0,0.04172
1331.0,0.01934
1332.0,0.02151
1333.0,0.03101
1334.0,0.03035
1335.0,0.04323
1336.0,0.03065
1337.0,0.02637
1338.0,0.02808
1339.0,0.02869
1340.0,0.02968
1341.0,0.02474
1342.0,0.02659
1343.0,0.01215
1344.0,0.007845
1345.0,0.01077
1346.0,0.002938
1347.0,0.002625
1348.0,5.277e-05
1349.0,0.0002428
1350.0,0.0002985
1351.0,2.52e-05
1352.0,2.041e-06
1353.0,6.74e-08
1354.0,3.372e-07
1355.0,1.438e-09
1356.0,3.272e-08
1357.0,4.934e-08
1358.0,1.7e-09
1359.0,2.033e-10
1360.0,7.489e-10
1361.0,8.184e-13
1362.0,2.238e-15
1363.0,9.893e-10
1364.0,4.099e-10
1365.0,7.815e-16
1366.0,4.309e-09
1367.0,1.793e-09
1368.0,6.034e-18
1369.0,1.511e-10
1370.0,7.393e-11
1371.0,4.182e-12
1372.0,9.772e-10
1373.0,2.178e-08
1374.0,1.253e-07
1375.0,2.042e-07
1376.0,3.075e-07
1377.0,1.297e-07
1378.0,1.286e-06
1379.0,5.681e-08
1380.0,5.716e-08
1381.0,1.39e-09
1382.0,8.486e-10
1383.0,1.258e-11
1384.0,1.631e-10
1385.0,8.564e-10
1386.0,7.372e-10
1387.0,1.013e-07
1388.0,2.363e-09
1389.0,4.946e-07
1390.0,3.944e-07
1391.0,2.633e-07
1392.0,1.749e-08
1393.0,1.122e-07
1394.0,3.341e-08
1395.0,2.336e-10
1396.0,1.066e-12
1397.0,3.769e-08
1398.0,1.264e-06
1399.0,8.493e-07
1400.0,4.555e-13
1401.0,1.891e-12
1402.0,8.745e-06
1403.0,7.834e-06
1404.0,1.983e-06
1405.0,1.07e-10
1406.0,3.209e-06
1407.0,5.938e-07
1408.0,2.885e-06
1409.0,5.706e-07
1410.0,8.149e-07
1411.0,7.408e-06
1412.0,1.471e-05
1413.0,0.0003651
1414.0,7.223e-07
1415.0,2.694e-07
1416.0,0.001403
1417.0,0.00024
1418.0,0.00018
1419.0,2.454e-05
1420.0,0.000108
1421.0,0.0001631
1422.0,0.001823
1423.0,0.0003218
1424.0,0.0007221
1425.0,0.000839
1426.0,0.001371
1427.0,0.003285
1428.0,4.214e-05
