interpolation:linear
wavelength,value
280.0,8.093999999999999e-22
280.5,2.6170000000000003e-20
281.0,1.395e-19
281.5,5.237e-19
282.0,8.916e-19
282.5,2.208e-18
283.0,6.949e-18
283.5,1.129e-17
284.0,1.831e-16
284.5,5.305e-16
285.0,9.968e-16
285.5,4.845e-15
286.0,1.94e-14
286.5,8.62e-14
287.0,2.453e-13
287.5,9.364e-13
288.0,2.976e-12
288.5,9.204e-12
289.0,2.484e-11
289.5,7.564e-11
290.0,2.109e-10
290.5,4.312e-10
291.0,9.275e-10
291.5,2.666e-09
292.0,5.847e-09
292.5,8.277e-09
293.0,1.794e-08
293.5,4.418e-08
294.0,6.965e-08
294.5,9.216e-08
295.0,1.571e-07
295.5,3.309e-07
296.0,6.097e-07
296.5,8.772e-07
297.0,1.219e-06
297.5,3.431e-06
298.0,5.675e-06
298.5,5.958e-06
299.0,1.376e-05
299.5,2.51e-05
300.0,2.931e-05
300.5,4.541e-05
301.0,9.293e-05
301.5,0.0001688
302.0,0.000156
302.5,0.0003142
303.0,0.0005885
303.5,0.0007638
304.0,0.0007356
304.5,0.00117
305.0,0.001941
305.5,0.002353
306.0,0.002329
306.5,0.003008
307.0,0.004838
307.5,0.006952
308.0,0.007437
308.5,0.009127
309.0,0.009232
309.5,0.01109
310.0,0.0114
310.5,0.01867
311.0,0.02387
311.5,0.02323
312.0,0.02417
312.5,0.03019
313.0,0.03319
313.5,0.03184
314.0,0.04106
314.5,0.03793
315.0,0.05022
315.5,0.0412
316.0,0.03719
316.5,0.05494
317.0,0.06819
317.5,0.07042
318.0,0.05601
318.5,0.07213
319.0,0.08719
319.5,0.06904
320.0,0.08307
320.5,0.1079
321.0,0.09928
321.5,0.09553
322.0,0.09833
322.5,0.08572
323.0,0.08736
323.5,0.1096
324.0,0.1284
324.5,0.1292
325.0,0.1105
325.5,0.1447
326.0,0.1778
326.5,0.1801
327.0,0.1788
327.5,0.1718
328.0,0.1507
328.5,0.1614
329.0,0.1962
329.5,0.2238
330.0,0.225
330.5,0.1781
331.0,0.1808
331.5,0.1854
332.0,0.2028
332.5,0.2018
333.0,0.2006
333.5,0.18
334.0,0.1842
334.5,0.2148
335.0,0.2031
335.5,0.2375
336.0,0.1644
336.5,0.1919
337.0,0.1568
337.5,0.1948
338.0,0.1919
338.5,0.2219
339.0,0.2198
339.5,0.2115
340.0,0.2483
340.5,0.2241
341.0,0.2188
341.5,0.2011
342.0,0.2405
342.5,0.2252
343.0,0.2476
343.5,0.2332
344.0,0.1723
344.5,0.1741
345.0,0.2308
345.5,0.2358
346.0,0.2006
346.5,0.2273
347.0,0.244
347.5,0.1974
348.0,0.2252
348.5,0.2253
349.0,0.2091
349.5,0.2072
350.0,0.2564
350.5,0.2706
351.0,0.2417
351.5,0.2349
352.0,0.2525
352.5,0.1972
353.0,0.2486
353.5,0.266
354.0,0.2763
354.5,0.2803
355.0,0.2795
355.5,0.2526
356.0,0.2645
356.5,0.2259
357.0,0.1867
357.5,0.2287
358.0,0.1813
358.5,0.155
359.0,0.2169
359.5,0.2764
360.0,0.2931
360.5,0.2344
361.0,0.2138
361.5,0.2464
362.0,0.2133
362.5,0.2955
363.0,0.2656
363.5,0.2448
364.0,0.2996
364.5,0.2562
365.0,0.261
365.5,0.3278
366.0,0.3475
366.5,0.3268
367.0,0.3184
367.5,0.3305
368.0,0.2894
368.5,0.2922
369.0,0.3157
369.5,0.3367
370.0,0.3591
370.5,0.2789
371.0,0.2982
371.5,0.3732
372.0,0.2478
372.5,0.2973
373.0,0.3026
373.5,0.197
374.0,0.2864
374.5,0.2373
375.0,0.2308
375.5,0.3447
376.0,0.2859
376.5,0.2964
377.0,0.314
377.5,0.3675
378.0,0.3985
378.5,0.3768
379.0,0.311
379.5,0.2842
380.0,0.2956
380.5,0.3582
381.0,0.3592
381.5,0.285
382.0,0.2533
382.5,0.2161
383.0,0.2002
383.5,0.1929
384.0,0.2129
384.5,0.3133
385.0,0.3109
385.5,0.2897
386.0,0.2482
386.5,0.3263
387.0,0.2712
387.5,0.3048
388.0,0.2815
388.5,0.2785
389.0,0.3007
389.5,0.3644
390.0,0.3659
390.5,0.3369
391.0,0.3968
391.5,0.4049
392.0,0.3412
392.5,0.3056
393.0,0.1702
393.5,0.1238
394.0,0.2519
394.5,0.3205
395.0,0.3912
395.5,0.3976
396.0,0.3449
396.5,0.2017
397.0,0.1515
397.5,0.3082
398.0,0.4317
398.5,0.4464
399.0,0.4837
399.5,0.4824
400.0,0.501
401.0,0.5067
402.0,0.5352
403.0,0.5089
404.0,0.5015
405.0,0.5018
406.0,0.4942
407.0,0.4867
408.0,0.5059
409.0,0.5419
410.0,0.4739
411.0,0.5138
412.0,0.5525
413.0,0.539
414.0,0.5461
415.0,0.548
416.0,0.5582
417.0,0.5448
418.0,0.5351
419.0,0.5425
420.0,0.5405
421.0,0.5658
422.0,0.5382
423.0,0.526
424.0,0.5566
425.0,0.556
426.0,0.5422
427.0,0.5324
428.0,0.5189
429.0,0.492
430.0,0.4309
431.0,0.4272
432.0,0.552
433.0,0.5554
434.0,0.5159
435.0,0.539
436.0,0.6079
437.0,0.6003
438.0,0.547
439.0,0.5655
440.0,0.5839
441.0,0.6055
442.0,0.6497
443.0,0.6327
444.0,0.6469
445.0,0.633
446.0,0.6048
447.0,0.6545
448.0,0.6645
449.0,0.6679
450.0,0.687
451.0,0.7127
452.0,0.687
453.0,0.6465
454.0,0.6754
455.0,0.6797
456.0,0.6961
457.0,0.7079
458.0,0.6835
459.0,0.6802
460.0,0.682
461.0,0.6979
462.0,0.7037
463.0,0.6989
464.0,0.6881
465.0,0.68
466.0,0.6871
467.0,0.6744
468.0,0.6824
469.0,0.6861
470.0,0.6642
471.0,0.6636
472.0,0.6992
473.0,0.6902
474.0,0.6908
475.0,0.6963
476.0,0.675
477.0,0.6765
478.0,0.6955
479.0,0.6916
480.0,0.6933
481.0,0.7068
482.0,0.7111
483.0,0.7031
484.0,0.6891
485.0,0.6569
486.0,0.5747
487.0,0.6026
488.0,0.6611
489.0,0.663
490.0,0.6979
491.0,0.6861
492.0,0.648
493.0,0.6693
494.0,0.6761
495.0,0.682
496.0,0.6862
497.0,0.6968
498.0,0.6642
499.0,0.6725
500.0,0.6527
501.0,0.6403
502.0,0.6306
503.0,0.6556
504.0,0.6368
505.0,0.6614
506.0,0.6827
507.0,0.6497
508.0,0.6302
509.0,0.6484
510.0,0.6454
511.0,0.6632
512.0,0.6706
513.0,0.6348
514.0,0.6306
515.0,0.6244
516.0,0.6228
517.0,0.5535
518.0,0.5819
519.0,0.6103
520.0,0.6324
521.0,0.6384
522.0,0.6387
523.0,0.6271
524.0,0.6492
525.0,0.6563
526.0,0.6268
527.0,0.5902
528.0,0.6238
529.0,0.6573
530.0,0.6476
531.0,0.6571
532.0,0.6344
533.0,0.6158
534.0,0.6342
535.0,0.6483
536.0,0.6545
537.0,0.6289
538.0,0.6402
539.0,0.6348
540.0,0.6085
541.0,0.6119
542.0,0.6307
543.0,0.6246
544.0,0.6349
545.0,0.633
546.0,0.6353
547.0,0.6355
548.0,0.6281
549.0,0.6302
550.0,0.6377
551.0,0.6301
552.0,0.6345
553.0,0.623
554.0,0.6379
555.0,0.639
556.0,0.6306
557.0,0.6108
558.0,0.6059
559.0,0.5942
560.0,0.6014
561.0,0.6089
562.0,0.6041
563.0,0.6201
564.0,0.6028
565.0,0.5973
566.0,0.5882
567.0,0.5989
568.0,0.5925
569.0,0.5762
570.0,0.5764
571.0,0.5735
572.0,0.5858
573.0,0.5918
574.0,0.5896
575.0,0.5781
576.0,0.5728
577.0,0.5793
578.0,0.5712
579.0,0.5745
580.0,0.587
581.0,0.5912
582.0,0.6035
583.0,0.6058
584.0,0.6117
585.0,0.5971
586.0,0.5848
587.0,0.597
588.0,0.5797
589.0,0.5083
590.0,0.532
591.0,0.5662
592.0,0.5572
593.0,0.5678
594.0,0.5629
595.0,0.547
596.0,0.5729
597.0,0.5657
598.0,0.5655
599.0,0.5666
600.0,0.5685
601.0,0.5647
602.0,0.561
603.0,0.5707
604.0,0.5804
605.0,0.5776
606.0,0.5757
607.0,0.5819
608.0,0.576
609.0,0.5774
610.0,0.5737
611.0,0.577
612.0,0.5756
613.0,0.5686
614.0,0.5612
615.0,0.5738
616.0,0.5553
617.0,0.5544
618.0,0.5759
619.0,0.5702
620.0,0.5738
621.0,0.5741
622.0,0.567
623.0,0.558
624.0,0.5488
625.0,0.5476
626.0,0.5556
627.0,0.5608
628.0,0.5117
629.0,0.5433
630.0,0.5304
631.0,0.5465
632.0,0.5407
633.0,0.5588
634.0,0.5547
635.0,0.5641
636.0,0.5574
637.0,0.5671
638.0,0.5735
639.0,0.5675
640.0,0.5626
641.0,0.5627
642.0,0.5606
643.0,0.5682
644.0,0.5669
645.0,0.5675
646.0,0.5528
647.0,0.543
648.0,0.5434
649.0,0.5325
650.0,0.5394
651.0,0.5636
652.0,0.5357
653.0,0.5563
654.0,0.5505
655.0,0.5278
656.0,0.4693
657.0,0.4822
658.0,0.5417
659.0,0.5462
660.0,0.5487
661.0,0.5527
662.0,0.553
663.0,0.5424
664.0,0.5501
665.0,0.5514
666.0,0.5522
667.0,0.5522
668.0,0.553
669.0,0.5618
670.0,0.5596
671.0,0.5597
672.0,0.5551
673.0,0.5636
674.0,0.5617
675.0,0.5568
676.0,0.5608
677.0,0.5554
678.0,0.5572
679.0,0.5483
680.0,0.5528
681.0,0.5492
682.0,0.5486
683.0,0.5475
684.0,0.5448
685.0,0.5497
686.0,0.5462
687.0,0.3119
688.0,0.3884
689.0,0.3906
690.0,0.4177
691.0,0.4491
692.0,0.4731
693.0,0.4686
694.0,0.4654
695.0,0.491
696.0,0.492
697.0,0.5297
698.0,0.5213
699.0,0.5037
700.0,0.4974
701.0,0.4905
702.0,0.4959
703.0,0.4971
704.0,0.5161
705.0,0.5168
706.0,0.5176
707.0,0.5185
708.0,0.5194
709.0,0.5222
710.0,0.5211
711.0,0.5211
712.0,0.5205
713.0,0.5144
714.0,0.5166
715.0,0.4982
716.0,0.498
717.0,0.4133
718.0,0.3776
719.0,0.3443
720.0,0.3589
721.0,0.4071
722.0,0.4775
723.0,0.4386
724.0,0.388
725.0,0.3794
726.0,0.3979
727.0,0.4083
728.0,0.3776
729.0,0.3983
730.0,0.4205
731.0,0.4008
732.0,0.4356
733.0,0.4676
734.0,0.4807
735.0,0.4697
736.0,0.4689
737.0,0.4707
738.0,0.4828
739.0,0.4733
740.0,0.4871
741.0,0.4831
742.0,0.4845
743.0,0.4971
744.0,0.4962
745.0,0.4968
746.0,0.499
747.0,0.5002
748.0,0.4992
749.0,0.4936
750.0,0.4933
751.0,0.4884
752.0,0.4905
753.0,0.4931
754.0,0.4942
755.0,0.4914
756.0,0.4912
757.0,0.4919
758.0,0.4857
759.0,0.4728
760.0,0.04077
761.0,0.01698
762.0,0.1899
763.0,0.0728
764.0,0.1276
765.0,0.1898
766.0,0.2555
767.0,0.3475
768.0,0.4226
769.0,0.4365
770.0,0.4571
771.0,0.4634
772.0,0.4652
773.0,0.4686
774.0,0.4665
775.0,0.4631
776.0,0.4688
777.0,0.4627
778.0,0.4598
779.0,0.4602
780.0,0.4577
781.0,0.4582
782.0,0.4611
783.0,0.4532
784.0,0.4555
785.0,0.4519
786.0,0.4567
787.0,0.4464
788.0,0.4397
789.0,0.4394
790.0,0.4245
791.0,0.4313
792.0,0.4286
793.0,0.4214
794.0,0.4319
795.0,0.4383
796.0,0.4204
797.0,0.4206
798.0,0.4372
799.0,0.4336
800.0,0.425
801.0,0.4227
802.0,0.4214
803.0,0.4177
804.0,0.4188
805.0,0.4187
806.0,0.4327
807.0,0.427
808.0,0.4276
809.0,0.4179
810.0,0.4134
811.0,0.4114
812.0,0.3967
813.0,0.387
814.0,0.3314
815.0,0.3299
816.0,0.306
817.0,0.3124
818.0,0.2986
819.0,0.3416
820.0,0.3188
821.0,0.3839
822.0,0.3711
823.0,0.2353
824.0,0.3561
825.0,0.3771
826.0,0.3592
827.0,0.3827
828.0,0.3139
829.0,0.3578
830.0,0.3521
831.0,0.3535
832.0,0.3408
833.0,0.3676
834.0,0.3511
835.0,0.3935
836.0,0.3715
837.0,0.3948
838.0,0.38
839.0,0.3894
840.0,0.3985
841.0,0.3918
842.0,0.3943
843.0,0.3959
844.0,0.3894
845.0,0.4039
846.0,0.4024
847.0,0.3954
848.0,0.3922
849.0,0.381
850.0,0.3651
851.0,0.3858
852.0,0.3835
853.0,0.3697
854.0,0.3187
855.0,0.3509
856.0,0.3832
857.0,0.3922
858.0,0.3891
859.0,0.3898
860.0,0.3907
861.0,0.3885
862.0,0.3948
863.0,0.4041
864.0,0.3839
865.0,0.3807
866.0,0.3423
867.0,0.3572
868.0,0.3887
869.0,0.3807
870.0,0.3916
871.0,0.3862
872.0,0.3849
873.0,0.3842
874.0,0.3796
875.0,0.3719
876.0,0.3757
877.0,0.3796
878.0,0.3835
879.0,0.3777
880.0,0.3696
881.0,0.3637
882.0,0.3713
883.0,0.3729
884.0,0.3711
885.0,0.3738
886.0,0.3548
887.0,0.3598
888.0,0.3644
889.0,0.3698
890.0,0.3652
891.0,0.3653
892.0,0.3528
893.0,0.3397
894.0,0.3234
895.0,0.3001
896.0,0.2811
897.0,0.235
898.0,0.2598
899.0,0.1902
900.0,0.2702
901.0,0.1993
902.0,0.244
903.0,0.2429
904.0,0.3209
905.0,0.3078
906.0,0.2863
907.0,0.2223
908.0,0.2286
909.0,0.2519
910.0,0.2146
911.0,0.2345
912.0,0.2461
913.0,0.2174
914.0,0.2172
915.0,0.2351
916.0,0.1976
917.0,0.2589
918.0,0.202
919.0,0.2663
920.0,0.2745
921.0,0.2855
922.0,0.2493
923.0,0.2764
924.0,0.2542
925.0,0.249
926.0,0.2509
927.0,0.2868
928.0,0.1935
929.0,0.1721
930.0,0.1283
931.0,0.1221
932.0,0.08081
933.0,0.06246
934.0,0.02775
935.0,0.06651
936.0,0.03723
937.0,0.03744
938.0,0.04761
939.0,0.1181
940.0,0.1473
941.0,0.1044
942.0,0.1247
943.0,0.07685
944.0,0.08602
945.0,0.1091
946.0,0.04871
947.0,0.1078
948.0,0.07842
949.0,0.151
950.0,0.03243
951.0,0.1498
952.0,0.07179
953.0,0.09848
954.0,0.1273
955.0,0.1003
956.0,0.1029
957.0,0.07129
958.0,0.1538
959.0,0.1143
960.0,0.1281
961.0,0.15
962.0,0.1415
963.0,0.1685
964.0,0.1528
965.0,0.168
966.0,0.1671
967.0,0.1657
968.0,0.243
969.0,0.2511
970.0,0.2284
971.0,0.2707
972.0,0.257
973.0,0.2145
974.0,0.2026
975.0,0.2136
976.0,0.1977
977.0,0.2354
978.0,0.2193
979.0,0.2324
980.0,0.217
981.0,0.2694
982.0,0.2541
983.0,0.2421
984.0,0.2817
985.0,0.2531
986.0,0.2892
987.0,0.2805
988.0,0.2802
989.0,0.29
990.0,0.2784
991.0,0.2905
992.0,0.2925
993.0,0.283
994.0,0.2927
995.0,0.2928
996.0,0.291
997.0,0.2917
998.0,0.2902
999.0,0.2892
1000.0,0.2865
1001.0,0.2909
1002.0,0.28
1003.0,0.2855
1004.0,0.2778
1005.0,0.2687
1006.0,0.2786
1007.0,0.2848
1008.0,0.2828
1009.0,0.2807
1010.0,0.2792
1011.0,0.2834
1012.0,0.2804
1013.0,0.2829
1014.0,0.2809
1015.0,0.279
1016.0,0.2777
1017.0,0.2783
1018.0,0.2776
1019.0,0.2706
1020.0,0.2759
1021.0,0.2757
1022.0,0.2732
1023.0,0.276
1024.0,0.2713
1025.0,0.2762
1026.0,0.2748
1027.0,0.2742
1028.0,0.2735
1029.0,0.2702
1030.0,0.2724
1031.0,0.2712
1032.0,0.2705
1033.0,0.2664
1034.0,0.2665
1035.0,0.2673
1036.0,0.2685
1037.0,0.2642
1038.0,0.2654
1039.0,0.2651
1040.0,0.264
1041.0,0.265
1042.0,0.2631
1043.0,0.2622
1044.0,0.2631
1045.0,0.2595
1046.0,0.2565
1047.0,0.2588
1048.0,0.2601
1049.0,0.2591
1050.0,0.2578
1051.0,0.2573
1052.0,0.2561
1053.0,0.254
1054.0,0.2544
1055.0,0.2543
1056.0,0.2533
1057.0,0.2523
1058.0,0.246
1059.0,0.2461
1060.0,0.2456
1061.0,0.2452
1062.0,0.2463
1063.0,0.2437
1064.0,0.2467
1065.0,0.2445
1066.0,0.24
1067.0,0.243
1068.0,0.2374
1069.0,0.2303
1070.0,0.2378
1071.0,0.2425
1072.0,0.2389
1073.0,0.2356
1074.0,0.2428
1075.0,0.2277
1076.0,0.2425
1077.0,0.2365
1078.0,0.2313
1079.0,0.2391
1080.0,0.2329
1081.0,0.224
1082.0,0.2301
1083.0,0.2314
1084.0,0.2228
1085.0,0.2337
1086.0,0.2092
1087.0,0.2187
1088.0,0.2307
1089.0,0.2208
1090.0,0.2144
1091.0,0.2292
1092.0,0.2292
1093.0,0.1867
1094.0,0.2087
1095.0,0.1952
1096.0,0.1847
1097.0,0.2239
1098.0,0.1808
1099.0,0.1897
1100.0,0.1734
1101.0,0.1765
1102.0,0.1665
1103.0,0.1635
1104.0,0.1639
1105.0,0.1848
1106.0,0.1292
1107.0,0.1732
1108.0,0.1395
1109.0,0.1412
1110.0,0.1703
1111.0,0.106
1112.0,0.1406
1113.0,0.08013
1114.0,0.09015
1115.0,0.07416
1116.0,0.05408
1117.0,0.01512
1118.0,0.06026
1119.0,0.02569
1120.0,0.03182
1121.0,0.04455
1122.0,0.01538
1123.0,0.02894
1124.0,0.02437
1125.0,0.03284
1126.0,0.008264
1127.0,0.03735
1128.0,0.01872
1129.0,0.02025
1130.0,0.01242
1131.0,0.08055
1132.0,0.06129
1133.0,0.03362
1134.0,0.006256
1135.0,0.002498
1136.0,0.02628
1137.0,0.07712
1138.0,0.0534
1139.0,0.09085
1140.0,0.0716
1141.0,0.05087
1142.0,0.06061
1143.0,0.09089
1144.0,0.02676
1145.0,0.03245
1146.0,0.03494
1147.0,0.009146
1148.0,0.07817
1149.0,0.05924
1150.0,0.02965
1151.0,0.05296
1152.0,0.069
1153.0,0.07026
1154.0,0.03145
1155.0,0.0946
1156.0,0.08291
1157.0,0.09733
1158.0,0.09614
1159.0,0.1063
1160.0,0.08843
1161.0,0.1152
1162.0,0.1152
1163.0,0.1668
1164.0,0.1391
1165.0,0.1272
1166.0,0.1295
1167.0,0.143
1168.0,0.1436
1169.0,0.1482
1170.0,0.1645
1171.0,0.1602
1172.0,0.1653
1173.0,0.1642
1174.0,0.1094
1175.0,0.1623
1176.0,0.1829
1177.0,0.1725
1178.0,0.1236
1179.0,0.1845
1180.0,0.1598
1181.0,0.1651
1182.0,0.1073
1183.0,0.1636
1184.0,0.1511
1185.0,0.1438
1186.0,0.1772
1187.0,0.1667
1188.0,0.1081
1189.0,0.1549
1190.0,0.1736
1191.0,0.1607
1192.0,0.1764
1193.0,0.1677
1194.0,0.1737
1195.0,0.1615
1196.0,0.1539
1197.0,0.1751
1198.0,0.1587
1199.0,0.1291
1200.0,0.1654
1201.0,0.1574
1202.0,0.1582
1203.0,0.156
1204.0,0.1338
1205.0,0.1635
1206.0,0.1836
1207.0,0.1569
1208.0,0.1562
1209.0,0.1598
1210.0,0.1679
1211.0,0.1577
1212.0,0.1527
1213.0,0.1761
1214.0,0.1576
1215.0,0.1542
1216.0,0.1758
1217.0,0.17
1218.0,0.1742
1219.0,0.1715
1220.0,0.1745
1221.0,0.1769
1222.0,0.1718
1223.0,0.1697
1224.0,0.1676
1225.0,0.1756
1226.0,0.1777
1227.0,0.1609
1228.0,0.1792
1229.0,0.1777
1230.0,0.1741
1231.0,0.181
1232.0,0.1799
1233.0,0.1711
1234.0,0.1814
1235.0,0.1799
1236.0,0.1815
1237.0,0.1779
1238.0,0.1809
1239.0,0.1786
1240.0,0.1794
1241.0,0.1779
1242.0,0.1781
1243.0,0.1766
1244.0,0.1777
1245.0,0.1786
1246.0,0.1776
1247.0,0.1767
1248.0,0.1762
1249.0,0.1771
1250.0,0.1758
1251.0,0.1732
1252.0,0.1737
1253.0,0.1714
1254.0,0.169
1255.0,0.1733
1256.0,0.1667
1257.0,0.1655
1258.0,0.1699
1259.0,0.1612
1260.0,0.1623
1261.0,0.15
1262.0,0.1438
1263.0,0.144
1264.0,0.1291
1265.0,0.1431
1266.0,0.1355
1267.0,0.1394
1268.0,0.1297
1269.0,0.06583
1270.0,0.1383
1271.0,0.1499
1272.0,0.1507
1273.0,0.1488
1274.0,0.1497
1275.0,0.1525
1276.0,0.1546
1277.0,0.1564
1278.0,0.1607
1279.0,0.1592
1280.0,0.1573
1281.0,0.1507
1282.0,0.1462
1283.0,0.1572
1284.0,0.1608
1285.0,0.162
1286.0,0.1648
1287.0,0.1612
1288.0,0.1615
1289.0,0.1543
1290.0,0.1602
1291.0,0.1628
1292.0,0.1492
1293.0,0.1587
1294.0,0.1574
1295.0,0.1555
1296.0,0.1462
1297.0,0.1366
1298.0,0.1507
1299.0,0.1593
1300.0,0.1289
1301.0,0.1339
1302.0,0.1502
1303.0,0.1278
1304.0,0.1036
1305.0,0.1469
1306.0,0.1463
1307.0,0.1078
1308.0,0.129
1309.0,0.1444
1310.0,0.1054
1311.0,0.1224
1312.0,0.1182
1313.0,0.1148
1314.0,0.1008
1315.0,0.09825
1316.0,0.1194
1317.0,0.1124
1318.0,0.1245
1319.0,0.09079
1320.0,0.08932
1321.0,0.1063
1322.0,0.1062
1323.0,0.07465
1324.0,0.08929
1325.0,0.1171
1326.0,0.09722
1327.0,0.09181
1328.0,0.07738
1329.0,0.05357
1330.0,0.07207
1331.0,0.03853
1332.0,0.04132
1333.0,0.05849
1334.0,0.05258
1335.0,0.07405
1336.0,0.05575
1337.0,0.04831
1338.0,0.05205
1339.0,0.05253
1340.0,0.05255
1341.0,0.04789
1342.0,0.0507
1343.0,0.02856
1344.0,0.01763
1345.0,0.02525
1346.0,0.009516
1347.0,0.009168
1348.0,0.0003275
1349.0,0.001368
1350.0,0.001582
1351.0,0.0002217
1352.0,3.013e-05
1353.0,8.728e-07
1354.0,4.615e-06
1355.0,1.042e-08
1356.0,4.169e-07
1357.0,6.358e-07
1358.0,1.296e-08
1359.0,6.748e-10
1360.0,4.244e-09
1361.0,1.242e-12
1362.0,2.754e-15
1363.0,3.921e-09
1364.0,1.723e-09
1365.0,8.332e-16
1366.0,2.131e-08
1367.0,1.143e-08
1368.0,6.104e-18
1369.0,6.329e-10
1370.0,2.222e-10
1371.0,9.35e-12
1372.0,6.456e-09
1373.0,2.383e-07
1374.0,1.747e-06
1375.0,2.872e-06
1376.0,4.28e-06
1377.0,1.797e-06
1378.0,1.971e-05
1379.0,7.645e-07
1380.0,7.881e-07
1381.0,1.706e-08
1382.0,5.149e-09
1383.0,6.097e-11
1384.0,6.052e-10
1385.0,7.985e-09
1386.0,3.438e-09
1387.0,1.25e-06
1388.0,2.972e-08
1389.0,7.562e-06
1390.0,6.214e-06
1391.0,3.943e-06
1392.0,2.409e-07
1393.0,1.602e-06
1394.0,3.608e-07
1395.0,1.815e-09
1396.0,1.909e-12
1397.0,5.346e-07
1398.0,2.05e-05
1399.0,1.348e-05
1400.0,6.498e-13
1401.0,3.775e-12
1402.0,7.919e-05
1403.0,8.533e-05
1404.0,2.413e-05
1405.0,6.261e-10
1406.0,4.835e-05
1407.0,5.783e-06
1408.0,4.171e-05
1409.0,9.398e-06
1410.0,1.066e-05
1411.0,7.756e-05
1412.0,0.000127
1413.0,0.002137
1414.0,8.95e-06
1415.0,3.622e-06
1416.0,0.005103
1417.0,0.001121
1418.0,0.001121
1419.0,0.0001615
1420.0,0.0006771
1421.0,0.000796
1422.0,0.006699
1423.0,0.001209
1424.0,0.002426
1425.0,0.003255
1426.0,0.004353
1427.0,0.009378
1428.0,0.0002884
1429.0,0.006213
1430.0,0.01276
1431.0,0.01457
