interpolation:linear
wavelength,value
280.0,2.1129999999999997e-22
280.5,6.974e-21
281.0,3.7450000000000003e-20
281.5,3.878e-19
282.0,6.153e-19
282.5,1.524e-18
283.0,4.822e-18
283.5,7.855e-18
284.0,1.297e-16
284.5,3.79e-16
285.0,6.209e-16
285.5,3.1e-15
286.0,1.251e-14
286.5,5.642e-14
287.0,1.621e-13
287.5,6.262e-13
288.0,2.203e-12
288.5,6.581e-12
289.0,1.739e-11
289.5,5.226e-11
290.0,1.447e-10
290.5,2.947e-10
291.0,6.323e-10
291.5,1.815e-09
292.0,3.639e-09
292.5,5.109e-09
293.0,1.097e-08
293.5,2.672e-08
294.0,4.183e-08
294.5,5.719e-08
295.0,9.698e-08
295.5,1.604e-07
296.0,3.109e-07
296.5,4.368e-07
297.0,5.933e-07
297.5,1.603e-06
298.0,2.544e-06
298.5,2.573e-06
299.0,5.706e-06
299.5,9.585e-06
300.0,1.061e-05
300.5,1.547e-05
301.0,2.833e-05
301.5,4.559e-05
302.0,3.916e-05
302.5,7.87e-05
303.0,0.0001473
303.5,0.0001919
304.0,0.0001869
304.5,0.0003076
305.0,0.0005371
305.5,0.0006744
306.0,0.0006766
306.5,0.0008951
307.0,0.001522
307.5,0.002315
308.0,0.002499
308.5,0.003157
309.0,0.003251
309.5,0.004182
310.0,0.004433
310.5,0.007372
311.0,0.009664
311.5,0.009506
312.0,0.01044
312.5,0.0135
313.0,0.01512
313.5,0.01426
314.0,0.01918
314.5,0.01874
315.0,0.02505
315.5,0.02
316.0,0.01889
316.5,0.02901
317.0,0.03597
317.5,0.03673
318.0,0.02999
318.5,0.04064
319.0,0.0504
319.5,0.03828
320.0,0.04577
320.5,0.0626
321.0,0.06038
321.5,0.05836
322.0,0.0571
322.5,0.0499
323.0,0.05255
323.5,0.06818
324.0,0.08032
324.5,0.07971
325.0,0.06679
325.5,0.08987
326.0,0.1116
326.5,0.1151
327.0,0.1135
327.5,0.1082
328.0,0.09264
328.5,0.1021
329.0,0.127
329.5,0.1459
330.0,0.1458
330.5,0.1134
331.0,0.1144
331.5,0.1189
332.0,0.1326
332.5,0.133
333.0,0.1316
333.5,0.1164
334.0,0.1188
334.5,0.1408
335.0,0.1344
335.5,0.1577
336.0,0.1092
336.5,0.1264
337.0,0.1026
337.5,0.1272
338.0,0.1269
338.5,0.1475
339.0,0.1462
339.5,0.1406
340.0,0.1644
340.5,0.1485
341.0,0.1456
341.5,0.134
342.0,0.1604
342.5,0.1502
343.0,0.165
343.5,0.1553
344.0,0.1143
344.5,0.1158
345.0,0.1538
345.5,0.1574
346.0,0.1339
346.5,0.1518
347.0,0.1629
347.5,0.1317
348.0,0.1505
348.5,0.1506
349.0,0.1399
349.5,0.1386
350.0,0.1716
350.5,0.1811
351.0,0.1617
351.5,0.1569
352.0,0.1689
352.5,0.132
353.0,0.1665
353.5,0.1782
354.0,0.1852
354.5,0.1879
355.0,0.1873
355.5,0.1694
356.0,0.1774
356.5,0.1515
357.0,0.1252
357.5,0.1534
358.0,0.1217
358.5,0.104
359.0,0.1455
359.5,0.1854
360.0,0.1967
360.5,0.1573
361.0,0.1436
361.5,0.1656
362.0,0.1434
362.5,0.1986
363.0,0.1786
363.5,0.1647
364.0,0.2016
364.5,0.1724
365.0,0.1757
365.5,0.2207
366.0,0.2341
366.5,0.2202
367.0,0.2146
367.5,0.2228
368.0,0.1951
368.5,0.197
369.0,0.2129
369.5,0.2272
370.0,0.2423
370.5,0.1883
371.0,0.2013
371.5,0.252
372.0,0.1674
372.5,0.2008
373.0,0.2045
373.5,0.1332
374.0,0.1936
374.5,0.1605
375.0,0.1561
375.5,0.2332
376.0,0.1934
376.5,0.2006
377.0,0.2125
377.5,0.2488
378.0,0.2699
378.5,0.2552
379.0,0.2107
379.5,0.1925
380.0,0.2003
380.5,0.2428
381.0,0.2436
381.5,0.1933
382.0,0.1718
382.5,0.1467
383.0,0.1359
383.5,0.131
384.0,0.1446
384.5,0.2129
385.0,0.2113
385.5,0.197
386.0,0.1688
386.5,0.222
387.0,0.1846
387.5,0.2075
388.0,0.1917
388.5,0.1897
389.0,0.2049
389.5,0.2483
390.0,0.2494
390.5,0.2297
391.0,0.2706
391.5,0.2762
392.0,0.2328
392.5,0.2086
393.0,0.1162
393.5,0.08452
394.0,0.1721
394.5,0.219
395.0,0.2674
395.5,0.2718
396.0,0.2358
396.5,0.138
397.0,0.1036
397.5,0.2109
398.0,0.2955
398.5,0.3056
399.0,0.3314
399.5,0.3305
400.0,0.3433
401.0,0.3459
402.0,0.3656
403.0,0.3479
404.0,0.343
405.0,0.3434
406.0,0.3384
407.0,0.3335
408.0,0.3467
409.0,0.3716
410.0,0.3252
411.0,0.3527
412.0,0.3796
413.0,0.3704
414.0,0.3755
415.0,0.3771
416.0,0.3844
417.0,0.3753
418.0,0.3688
419.0,0.3741
420.0,0.3729
421.0,0.3906
422.0,0.3716
423.0,0.3634
424.0,0.3846
425.0,0.3844
426.0,0.3752
427.0,0.3686
428.0,0.3593
429.0,0.3411
430.0,0.2989
431.0,0.2963
432.0,0.3831
433.0,0.3857
434.0,0.3584
435.0,0.3744
436.0,0.4226
437.0,0.4177
438.0,0.3808
439.0,0.3935
440.0,0.4065
441.0,0.4218
442.0,0.4527
443.0,0.4408
444.0,0.4511
445.0,0.4414
446.0,0.4222
447.0,0.4572
448.0,0.4641
449.0,0.4669
450.0,0.4805
451.0,0.4987
452.0,0.4809
453.0,0.4528
454.0,0.4734
455.0,0.4764
456.0,0.4881
457.0,0.4964
458.0,0.4791
459.0,0.4769
460.0,0.4781
461.0,0.4893
462.0,0.4938
463.0,0.4904
464.0,0.4833
465.0,0.4781
466.0,0.4835
467.0,0.4744
468.0,0.4801
469.0,0.4828
470.0,0.4673
471.0,0.467
472.0,0.4921
473.0,0.4858
474.0,0.486
475.0,0.4895
476.0,0.4741
477.0,0.4748
478.0,0.4883
479.0,0.4858
480.0,0.4872
481.0,0.4971
482.0,0.5005
483.0,0.4954
484.0,0.4858
485.0,0.4635
486.0,0.4058
487.0,0.4259
488.0,0.4673
489.0,0.4685
490.0,0.4934
491.0,0.4853
492.0,0.4584
493.0,0.4736
494.0,0.4784
495.0,0.4827
496.0,0.4857
497.0,0.4931
498.0,0.47
499.0,0.4756
500.0,0.4613
501.0,0.4523
502.0,0.4449
503.0,0.4618
504.0,0.447
505.0,0.4655
506.0,0.4805
507.0,0.4574
508.0,0.4442
509.0,0.4574
510.0,0.4557
511.0,0.4686
512.0,0.474
513.0,0.4488
514.0,0.446
515.0,0.4416
516.0,0.4404
517.0,0.3915
518.0,0.4115
519.0,0.4316
520.0,0.4471
521.0,0.4513
522.0,0.4514
523.0,0.443
524.0,0.4583
525.0,0.4629
526.0,0.4419
527.0,0.4157
528.0,0.4391
529.0,0.4624
530.0,0.4555
531.0,0.4619
532.0,0.4459
533.0,0.4329
534.0,0.4459
535.0,0.4561
536.0,0.4606
537.0,0.4428
538.0,0.4508
539.0,0.447
540.0,0.4284
541.0,0.4302
542.0,0.4432
543.0,0.4393
544.0,0.4461
545.0,0.4449
546.0,0.4461
547.0,0.4466
548.0,0.4416
549.0,0.4432
550.0,0.4485
551.0,0.4432
552.0,0.4463
553.0,0.4382
554.0,0.4485
555.0,0.4492
556.0,0.4432
557.0,0.4291
558.0,0.4254
559.0,0.4169
560.0,0.4218
561.0,0.4268
562.0,0.4231
563.0,0.4339
564.0,0.4215
565.0,0.4174
566.0,0.4108
567.0,0.4179
568.0,0.4125
569.0,0.3996
570.0,0.3999
571.0,0.3982
572.0,0.4057
573.0,0.4096
574.0,0.4078
575.0,0.3994
576.0,0.3959
577.0,0.4005
578.0,0.3954
579.0,0.3985
580.0,0.4084
581.0,0.4123
582.0,0.4217
583.0,0.424
584.0,0.4286
585.0,0.4186
586.0,0.4101
587.0,0.4181
588.0,0.404
589.0,0.3503
590.0,0.3669
591.0,0.3929
592.0,0.3852
593.0,0.3944
594.0,0.3902
595.0,0.3776
596.0,0.3989
597.0,0.3929
598.0,0.3939
599.0,0.395
600.0,0.3972
601.0,0.3952
602.0,0.3927
603.0,0.3998
604.0,0.4068
605.0,0.4051
606.0,0.4041
607.0,0.4089
608.0,0.4051
609.0,0.4064
610.0,0.4042
611.0,0.4067
612.0,0.406
613.0,0.4013
614.0,0.3964
615.0,0.4056
616.0,0.3928
617.0,0.3923
618.0,0.4078
619.0,0.4039
620.0,0.4064
621.0,0.4063
622.0,0.4011
623.0,0.3946
624.0,0.3883
625.0,0.3874
626.0,0.3929
627.0,0.3958
628.0,0.3517
629.0,0.3802
630.0,0.3708
631.0,0.3853
632.0,0.3818
633.0,0.396
634.0,0.3942
635.0,0.4014
636.0,0.3972
637.0,0.4046
638.0,0.41
639.0,0.4061
640.0,0.4031
641.0,0.4035
642.0,0.4024
643.0,0.4079
644.0,0.4074
645.0,0.4076
646.0,0.3959
647.0,0.3862
648.0,0.3868
649.0,0.3786
650.0,0.3869
651.0,0.4048
652.0,0.3816
653.0,0.3999
654.0,0.3959
655.0,0.3779
656.0,0.3373
657.0,0.3467
658.0,0.3906
659.0,0.3943
660.0,0.3964
661.0,0.3994
662.0,0.3991
663.0,0.3916
664.0,0.3981
665.0,0.3998
666.0,0.4007
667.0,0.4011
668.0,0.402
669.0,0.4087
670.0,0.4072
671.0,0.4075
672.0,0.4043
673.0,0.4107
674.0,0.4095
675.0,0.4061
676.0,0.4092
677.0,0.4054
678.0,0.4068
679.0,0.4004
680.0,0.4038
681.0,0.4013
682.0,0.4008
683.0,0.4001
684.0,0.3981
685.0,0.4018
686.0,0.3991
687.0,0.1917
688.0,0.2557
689.0,0.2578
690.0,0.282
691.0,0.3106
692.0,0.3335
693.0,0.3301
694.0,0.3291
695.0,0.3523
696.0,0.3533
697.0,0.3859
698.0,0.3797
699.0,0.363
700.0,0.3583
701.0,0.3516
702.0,0.3571
703.0,0.3585
704.0,0.3745
705.0,0.375
706.0,0.3764
707.0,0.3774
708.0,0.378
709.0,0.3817
710.0,0.38
711.0,0.3806
712.0,0.3809
713.0,0.3757
714.0,0.3775
715.0,0.3625
716.0,0.3619
717.0,0.2868
718.0,0.2612
719.0,0.2372
720.0,0.2456
721.0,0.2864
722.0,0.3443
723.0,0.3124
724.0,0.2713
725.0,0.2637
726.0,0.2768
727.0,0.2876
728.0,0.2618
729.0,0.281
730.0,0.2951
731.0,0.2807
732.0,0.3102
733.0,0.3375
734.0,0.3485
735.0,0.3397
736.0,0.3388
737.0,0.3403
738.0,0.3528
739.0,0.346
740.0,0.3573
741.0,0.355
742.0,0.3567
743.0,0.3662
744.0,0.3661
745.0,0.3669
746.0,0.3685
747.0,0.3695
748.0,0.3688
749.0,0.3647
750.0,0.3645
751.0,0.3609
752.0,0.3626
753.0,0.3645
754.0,0.3653
755.0,0.3632
756.0,0.3632
757.0,0.3637
758.0,0.359
759.0,0.3469
760.0,0.01484
761.0,0.005122
762.0,0.106
763.0,0.03072
764.0,0.06306
765.0,0.1057
766.0,0.1578
767.0,0.2335
768.0,0.3015
769.0,0.3155
770.0,0.3353
771.0,0.342
772.0,0.344
773.0,0.3468
774.0,0.3454
775.0,0.343
776.0,0.3472
777.0,0.3427
778.0,0.3406
779.0,0.3409
780.0,0.3391
781.0,0.3395
782.0,0.3417
783.0,0.3359
784.0,0.3376
785.0,0.3348
786.0,0.3382
787.0,0.3286
788.0,0.3229
789.0,0.3226
790.0,0.3092
791.0,0.3168
792.0,0.3152
793.0,0.3096
794.0,0.3197
795.0,0.3238
796.0,0.3071
797.0,0.3069
798.0,0.3226
799.0,0.3193
800.0,0.3122
801.0,0.3095
802.0,0.3086
803.0,0.3053
804.0,0.3065
805.0,0.3076
806.0,0.3197
807.0,0.3151
808.0,0.3156
809.0,0.3071
810.0,0.303
811.0,0.2999
812.0,0.2865
813.0,0.2787
814.0,0.2327
815.0,0.2323
816.0,0.2145
817.0,0.2192
818.0,0.2081
819.0,0.2433
820.0,0.2254
821.0,0.2795
822.0,0.2689
823.0,0.1592
824.0,0.2549
825.0,0.2747
826.0,0.259
827.0,0.2787
828.0,0.221
829.0,0.2585
830.0,0.254
831.0,0.2549
832.0,0.2443
833.0,0.2669
834.0,0.2528
835.0,0.289
836.0,0.2689
837.0,0.29
838.0,0.277
839.0,0.2862
840.0,0.2935
841.0,0.2876
842.0,0.2908
843.0,0.2934
844.0,0.2879
845.0,0.2996
846.0,0.2987
847.0,0.294
848.0,0.291
849.0,0.2827
850.0,0.2709
851.0,0.2856
852.0,0.2842
853.0,0.2746
854.0,0.2362
855.0,0.2607
856.0,0.2844
857.0,0.2916
858.0,0.289
859.0,0.2899
860.0,0.2908
861.0,0.2891
862.0,0.2938
863.0,0.3007
864.0,0.2858
865.0,0.2834
866.0,0.2548
867.0,0.266
868.0,0.2895
869.0,0.2835
870.0,0.2916
871.0,0.2876
872.0,0.2867
873.0,0.2861
874.0,0.2828
875.0,0.277
876.0,0.2798
877.0,0.2827
878.0,0.2855
879.0,0.2812
880.0,0.2752
881.0,0.2705
882.0,0.2761
883.0,0.2776
884.0,0.2761
885.0,0.2781
886.0,0.2629
887.0,0.2674
888.0,0.2704
889.0,0.2753
890.0,0.2707
891.0,0.2714
892.0,0.2605
893.0,0.2496
894.0,0.2345
895.0,0.2139
896.0,0.1996
897.0,0.1628
898.0,0.1817
899.0,0.1288
900.0,0.1917
901.0,0.1349
902.0,0.1709
903.0,0.168
904.0,0.2325
905.0,0.2219
906.0,0.2052
907.0,0.1525
908.0,0.1585
909.0,0.177
910.0,0.1461
911.0,0.1638
912.0,0.1717
913.0,0.1477
914.0,0.1487
915.0,0.1601
916.0,0.1342
917.0,0.1805
918.0,0.1367
919.0,0.1875
920.0,0.1974
921.0,0.2047
922.0,0.1753
923.0,0.1987
924.0,0.1774
925.0,0.1742
926.0,0.1746
927.0,0.203
928.0,0.1273
929.0,0.1106
930.0,0.07826
931.0,0.07417
932.0,0.04518
933.0,0.0334
934.0,0.01207
935.0,0.03673
936.0,0.0186
937.0,0.01871
938.0,0.02448
939.0,0.07163
940.0,0.0926
941.0,0.06194
942.0,0.07569
943.0,0.04392
944.0,0.05225
945.0,0.06563
946.0,0.02582
947.0,0.06381
948.0,0.04617
949.0,0.09331
950.0,0.01598
951.0,0.09279
952.0,0.0404
953.0,0.05841
954.0,0.07888
955.0,0.05988
956.0,0.0659
957.0,0.04
958.0,0.1013
959.0,0.07105
960.0,0.07967
961.0,0.09698
962.0,0.09142
963.0,0.1121
964.0,0.1008
965.0,0.1114
966.0,0.1107
967.0,0.1092
968.0,0.1738
969.0,0.1772
970.0,0.1604
971.0,0.1958
972.0,0.1845
973.0,0.1484
974.0,0.14
975.0,0.1492
976.0,0.1347
977.0,0.1678
978.0,0.1534
979.0,0.1639
980.0,0.1525
981.0,0.1949
982.0,0.1818
983.0,0.1721
984.0,0.2066
985.0,0.1808
986.0,0.2139
987.0,0.2057
988.0,0.2057
989.0,0.2157
990.0,0.2043
991.0,0.2159
992.0,0.2176
993.0,0.2087
994.0,0.218
995.0,0.2183
996.0,0.2167
997.0,0.2173
998.0,0.2161
999.0,0.2155
1000.0,0.2129
1001.0,0.2167
1002.0,0.2066
1003.0,0.2127
1004.0,0.2063
1005.0,0.2003
1006.0,0.2074
1007.0,0.2122
1008.0,0.2103
1009.0,0.2083
1010.0,0.207
1011.0,0.2112
1012.0,0.2086
1013.0,0.2109
1014.0,0.2094
1015.0,0.2079
1016.0,0.2069
1017.0,0.2073
1018.0,0.207
1019.0,0.201
1020.0,0.2057
1021.0,0.2057
1022.0,0.2035
1023.0,0.2055
1024.0,0.2012
1025.0,0.206
1026.0,0.2046
1027.0,0.2043
1028.0,0.2037
1029.0,0.2011
1030.0,0.2031
1031.0,0.2021
1032.0,0.2016
1033.0,0.1986
1034.0,0.1986
1035.0,0.1993
1036.0,0.2001
1037.0,0.1969
1038.0,0.1977
1039.0,0.1975
1040.0,0.1967
1041.0,0.1973
1042.0,0.1959
1043.0,0.1952
1044.0,0.1958
1045.0,0.193
1046.0,0.1908
1047.0,0.1924
1048.0,0.1933
1049.0,0.1925
1050.0,0.1915
1051.0,0.191
1052.0,0.1901
1053.0,0.1884
1054.0,0.1886
1055.0,0.1884
1056.0,0.1875
1057.0,0.1867
1058.0,0.1819
1059.0,0.1818
1060.0,0.1814
1061.0,0.181
1062.0,0.1817
1063.0,0.1797
1064.0,0.1819
1065.0,0.18
1066.0,0.1769
1067.0,0.179
1068.0,0.1747
1069.0,0.1697
1070.0,0.175
1071.0,0.1791
1072.0,0.176
1073.0,0.1737
1074.0,0.1798
1075.0,0.1668
1076.0,0.1794
1077.0,0.174
1078.0,0.1696
1079.0,0.1773
1080.0,0.1714
1081.0,0.1637
1082.0,0.1699
1083.0,0.1714
1084.0,0.1626
1085.0,0.1721
1086.0,0.1517
1087.0,0.1601
1088.0,0.1706
1089.0,0.1613
1090.0,0.1559
1091.0,0.169
1092.0,0.1692
1093.0,0.1333
1094.0,0.1535
1095.0,0.1393
1096.0,0.1307
1097.0,0.1654
1098.0,0.127
1099.0,0.134
1100.0,0.1208
1101.0,0.1237
1102.0,0.1154
1103.0,0.1123
1104.0,0.1127
1105.0,0.1301
1106.0,0.08408
1107.0,0.1207
1108.0,0.09317
1109.0,0.09479
1110.0,0.1176
1111.0,0.06769
1112.0,0.09464
1113.0,0.04896
1114.0,0.05513
1115.0,0.04479
1116.0,0.03018
1117.0,0.006668
1118.0,0.03406
1119.0,0.01265
1120.0,0.01528
1121.0,0.02235
1122.0,0.00635
1123.0,0.01397
1124.0,0.01173
1125.0,0.01636
1126.0,0.002974
1127.0,0.01873
1128.0,0.007914
1129.0,0.008678
1130.0,0.005206
1131.0,0.04557
1132.0,0.03367
1133.0,0.01608
1134.0,0.002231
1135.0,0.0009599
1136.0,0.01177
1137.0,0.04263
1138.0,0.02899
1139.0,0.05586
1140.0,0.04175
1141.0,0.02772
1142.0,0.03406
1143.0,0.05405
1144.0,0.01363
1145.0,0.01546
1146.0,0.01663
1147.0,0.003263
1148.0,0.04591
1149.0,0.03324
1150.0,0.01583
1151.0,0.02878
1152.0,0.03953
1153.0,0.0419
1154.0,0.0154
1155.0,0.05812
1156.0,0.04966
1157.0,0.06145
1158.0,0.06055
1159.0,0.06804
1160.0,0.05604
1161.0,0.07656
1162.0,0.07611
1163.0,0.1172
1164.0,0.09542
1165.0,0.08489
1166.0,0.08862
1167.0,0.09894
1168.0,0.09891
1169.0,0.1026
1170.0,0.116
1171.0,0.113
1172.0,0.1182
1173.0,0.1159
1174.0,0.07284
1175.0,0.116
1176.0,0.1338
1177.0,0.1241
1178.0,0.08558
1179.0,0.1349
1180.0,0.1137
1181.0,0.1175
1182.0,0.07238
1183.0,0.1171
1184.0,0.1067
1185.0,0.1002
1186.0,0.1281
1187.0,0.119
1188.0,0.07194
1189.0,0.1104
1190.0,0.1259
1191.0,0.1134
1192.0,0.1282
1193.0,0.1208
1194.0,0.1259
1195.0,0.1149
1196.0,0.1085
1197.0,0.1276
1198.0,0.1149
1199.0,0.08946
1200.0,0.1192
1201.0,0.1119
1202.0,0.1139
1203.0,0.1113
1204.0,0.09392
1205.0,0.1188
1206.0,0.1353
1207.0,0.1123
1208.0,0.1131
1209.0,0.1159
1210.0,0.1227
1211.0,0.1139
1212.0,0.1077
1213.0,0.1285
1214.0,0.1121
1215.0,0.1095
1216.0,0.1287
1217.0,0.1237
1218.0,0.1275
1219.0,0.1249
1220.0,0.1278
1221.0,0.1301
1222.0,0.126
1223.0,0.1241
1224.0,0.1216
1225.0,0.1289
1226.0,0.1311
1227.0,0.1165
1228.0,0.1327
1229.0,0.1311
1230.0,0.1281
1231.0,0.1346
1232.0,0.1337
1233.0,0.1252
1234.0,0.1354
1235.0,0.1339
1236.0,0.1354
1237.0,0.1319
1238.0,0.1349
1239.0,0.1332
1240.0,0.1339
1241.0,0.1322
1242.0,0.1328
1243.0,0.1318
1244.0,0.1324
1245.0,0.1332
1246.0,0.1325
1247.0,0.1317
1248.0,0.1311
1249.0,0.1319
1250.0,0.1308
1251.0,0.1285
1252.0,0.1293
1253.0,0.1268
1254.0,0.1245
1255.0,0.1288
1256.0,0.1225
1257.0,0.1213
1258.0,0.1257
1259.0,0.1171
1260.0,0.1182
1261.0,0.1066
1262.0,0.1009
1263.0,0.101
1264.0,0.08762
1265.0,0.1004
1266.0,0.09327
1267.0,0.09723
1268.0,0.08856
1269.0,0.0359
1270.0,0.09597
1271.0,0.1069
1272.0,0.1078
1273.0,0.1061
1274.0,0.1072
1275.0,0.1096
1276.0,0.1117
1277.0,0.1137
1278.0,0.1178
1279.0,0.1166
1280.0,0.1153
1281.0,0.111
1282.0,0.1085
1283.0,0.1165
1284.0,0.119
1285.0,0.1201
1286.0,0.1225
1287.0,0.1191
1288.0,0.1195
1289.0,0.1126
1290.0,0.1186
1291.0,0.1209
1292.0,0.108
1293.0,0.1172
1294.0,0.1162
1295.0,0.1137
1296.0,0.1052
1297.0,0.09722
1298.0,0.1098
1299.0,0.1179
1300.0,0.09136
1301.0,0.09558
1302.0,0.1096
1303.0,0.09096
1304.0,0.07018
1305.0,0.107
1306.0,0.1061
1307.0,0.07442
1308.0,0.09242
1309.0,0.104
1310.0,0.07229
1311.0,0.08683
1312.0,0.0835
1313.0,0.07998
1314.0,0.06888
1315.0,0.06639
1316.0,0.084
1317.0,0.07846
1318.0,0.08853
1319.0,0.06041
1320.0,0.06018
1321.0,0.07326
1322.0,0.0723
1323.0,0.04748
1324.0,0.05963
1325.0,0.08176
1326.0,0.06585
1327.0,0.06154
1328.0,0.0506
1329.0,0.0322
1330.0,0.04504
1331.0,0.02133
1332.0,0.02361
1333.0,0.03393
1334.0,0.03278
1335.0,0.04664
1336.0,0.03337
1337.0,0.02871
1338.0,0.03063
1339.0,0.03126
1340.0,0.03218
1341.0,0.0272
1342.0,0.02915
1343.0,0.01373
1344.0,0.008808
1345.0,0.01219
1346.0,0.003488
1347.0,0.003154
1348.0,6.83e-05
1349.0,0.0003117
1350.0,0.0003815
1351.0,3.406e-05
1352.0,2.74e-06
1353.0,8.123e-08
1354.0,4.423e-07
1355.0,1.513e-09
1356.0,3.937e-08
1357.0,5.932e-08
1358.0,1.798e-09
1359.0,2.05e-10
1360.0,7.708e-10
1361.0,8.197e-13
1362.0,2.241e-15
1363.0,9.994e-10
1364.0,4.157e-10
1365.0,7.824e-16
1366.0,4.382e-09
1367.0,1.858e-09
1368.0,6.041e-18
1369.0,1.533e-10
1370.0,7.44e-11
1371.0,4.196e-12
1372.0,1.016e-09
1373.0,2.435e-08
1374.0,1.538e-07
1375.0,2.43e-07
1376.0,4.082e-07
1377.0,1.699e-07
1378.0,1.721e-06
1379.0,7.457e-08
1380.0,7.043e-08
1381.0,1.659e-09
1382.0,8.756e-10
1383.0,1.286e-11
1384.0,1.647e-10
1385.0,9.332e-10
1386.0,7.494e-10
1387.0,1.142e-07
1388.0,2.831e-09
1389.0,6.37e-07
1390.0,5.02e-07
1391.0,3.328e-07
1392.0,2.196e-08
1393.0,1.468e-07
1394.0,3.678e-08
1395.0,2.473e-10
1396.0,1.068e-12
1397.0,4.782e-08
1398.0,1.681e-06
1399.0,1.137e-06
1400.0,4.561e-13
1401.0,1.896e-12
1402.0,1.184e-05
1403.0,1.081e-05
1404.0,2.766e-06
1405.0,1.102e-10
1406.0,4.459e-06
1407.0,8.027e-07
1408.0,4.023e-06
1409.0,7.544e-07
1410.0,1.118e-06
1411.0,1.019e-05
1412.0,1.987e-05
1413.0,0.0004739
1414.0,9.912e-07
1415.0,3.665e-07
1416.0,0.001696
1417.0,0.0002991
1418.0,0.0002356
1419.0,3.232e-05
1420.0,0.0001414
1421.0,0.0002042
1422.0,0.002207
1423.0,0.0003902
1424.0,0.0008585
1425.0,0.001021
1426.0,0.001618
1427.0,0.003832
