interpolation:linear
wavelength,value
280.0,9.718e-21
280.5,2.922e-19
281.0,1.522e-18
281.5,4.637e-19
282.0,1.496e-18
282.5,3.98e-18
283.0,1.287e-17
283.5,2.104e-17
284.0,3.335e-16
284.5,9.499e-16
285.0,1.849e-15
285.5,9.815e-15
286.0,4.007e-14
286.5,1.81e-13
287.0,5.172e-13
287.5,1.967e-12
288.0,5.205e-12
288.5,1.875e-11
289.0,5.701e-11
289.5,1.923e-10
290.0,5.756e-10
290.5,1.243e-09
291.0,2.837e-09
291.5,8.905e-09
292.0,2.158e-08
292.5,3.411e-08
293.0,8.549e-08
293.5,2.598e-07
294.0,4.795e-07
294.5,6.411e-07
295.0,1.284e-06
295.5,3.51e-06
296.0,6.947e-06
296.5,9.976e-06
297.0,1.38e-05
297.5,3.828e-05
298.0,6.212e-05
298.5,6.397e-05
299.0,0.0001444
299.5,0.0002497
300.0,0.0002815
300.5,0.0004189
301.0,0.0007947
301.5,0.001332
302.0,0.001175
302.5,0.00227
303.0,0.004017
303.5,0.005007
304.0,0.004667
304.5,0.006816
305.0,0.01002
305.5,0.01125
306.0,0.01081
306.5,0.01328
307.0,0.01915
307.5,0.02476
308.0,0.02604
308.5,0.03033
309.0,0.02959
309.5,0.0332
310.0,0.03306
310.5,0.0533
311.0,0.0664
311.5,0.06389
312.0,0.06282
312.5,0.0756
313.0,0.08151
313.5,0.0796
314.0,0.09817
314.5,0.08547
315.0,0.112
315.5,0.09451
316.0,0.08131
316.5,0.1152
317.0,0.1431
317.5,0.1495
318.0,0.1156
318.5,0.1411
319.0,0.1659
319.5,0.1372
320.0,0.1662
320.5,0.2043
321.0,0.179
321.5,0.1713
322.0,0.1858
322.5,0.1615
323.0,0.159
323.5,0.1934
324.0,0.2253
324.5,0.2298
325.0,0.1998
325.5,0.2545
326.0,0.3104
326.5,0.3089
327.0,0.3086
327.5,0.299
328.0,0.2685
328.5,0.2793
329.0,0.3318
329.5,0.3757
330.0,0.3798
330.5,0.3059
331.0,0.3123
331.5,0.316
332.0,0.3391
332.5,0.3344
333.0,0.334
333.5,0.3039
334.0,0.3116
334.5,0.3575
335.0,0.3349
335.5,0.3911
336.0,0.2706
336.5,0.3175
337.0,0.2611
337.5,0.3251
338.0,0.3159
338.5,0.3646
339.0,0.3608
339.5,0.3472
340.0,0.4081
340.5,0.3677
341.0,0.3587
341.5,0.3293
342.0,0.3935
342.5,0.3682
343.0,0.405
343.5,0.3814
344.0,0.2819
344.5,0.2848
345.0,0.3768
345.5,0.3847
346.0,0.327
346.5,0.3702
347.0,0.3975
347.5,0.3215
348.0,0.3665
348.5,0.3663
349.0,0.3398
349.5,0.3365
350.0,0.4162
350.5,0.4391
351.0,0.3923
351.5,0.3814
352.0,0.4096
352.5,0.3197
353.0,0.4027
353.5,0.4306
354.0,0.447
354.5,0.4534
355.0,0.4519
355.5,0.4083
356.0,0.4273
356.5,0.3649
357.0,0.3015
357.5,0.3691
358.0,0.2926
358.5,0.25
359.0,0.3498
359.5,0.4458
360.0,0.4726
360.5,0.3778
361.0,0.3444
361.5,0.3966
362.0,0.343
362.5,0.4748
363.0,0.4265
363.5,0.3929
364.0,0.4806
364.5,0.4108
365.0,0.4185
365.5,0.5253
366.0,0.5566
366.5,0.523
367.0,0.5094
367.5,0.5287
368.0,0.4627
368.5,0.467
369.0,0.5044
369.5,0.5377
370.0,0.5732
370.5,0.445
371.0,0.4755
371.5,0.595
372.0,0.3949
372.5,0.4736
373.0,0.4818
373.5,0.3135
374.0,0.4556
374.5,0.3774
375.0,0.3669
375.5,0.5479
376.0,0.4542
376.5,0.4708
377.0,0.4985
377.5,0.5833
378.0,0.6323
378.5,0.5977
379.0,0.4933
379.5,0.4507
380.0,0.4686
380.5,0.5677
381.0,0.569
381.5,0.4511
382.0,0.4007
382.5,0.3416
383.0,0.3163
383.5,0.3047
384.0,0.3362
384.5,0.4945
385.0,0.4905
385.5,0.4568
386.0,0.3913
386.5,0.5141
387.0,0.4272
387.5,0.4799
388.0,0.4432
388.5,0.4381
389.0,0.473
389.5,0.573
390.0,0.5751
390.5,0.5293
391.0,0.6232
391.5,0.6357
392.0,0.5355
392.5,0.4795
393.0,0.2668
393.5,0.194
394.0,0.3948
394.5,0.502
395.0,0.6126
395.5,0.6224
396.0,0.5397
396.5,0.3155
397.0,0.2368
397.5,0.4817
398.0,0.6746
398.5,0.6974
399.0,0.7553
399.5,0.7529
400.0,0.7819
401.0,0.7935
402.0,0.8374
403.0,0.7956
404.0,0.7835
405.0,0.7836
406.0,0.771
407.0,0.7587
408.0,0.7884
409.0,0.844
410.0,0.7376
411.0,0.7991
412.0,0.8584
413.0,0.8372
414.0,0.8476
415.0,0.8499
416.0,0.8649
417.0,0.8438
418.0,0.8283
419.0,0.8393
420.0,0.8357
421.0,0.8744
422.0,0.8312
423.0,0.812
424.0,0.8589
425.0,0.8575
426.0,0.8353
427.0,0.8198
428.0,0.7987
429.0,0.7566
430.0,0.6622
431.0,0.6564
432.0,0.8476
433.0,0.8523
434.0,0.7915
435.0,0.8267
436.0,0.9315
437.0,0.919
438.0,0.8369
439.0,0.8657
440.0,0.8934
441.0,0.9257
442.0,0.9929
443.0,0.9672
444.0,0.9882
445.0,0.9669
446.0,0.9228
447.0,0.9976
448.0,1.013
449.0,1.017
450.0,1.046
451.0,1.085
452.0,1.045
453.0,0.9828
454.0,1.026
455.0,1.032
456.0,1.057
457.0,1.075
458.0,1.038
459.0,1.033
460.0,1.036
461.0,1.059
462.0,1.067
463.0,1.06
464.0,1.043
465.0,1.029
466.0,1.039
467.0,1.02
468.0,1.032
469.0,1.038
470.0,1.005
471.0,1.004
472.0,1.057
473.0,1.044
474.0,1.045
475.0,1.054
476.0,1.023
477.0,1.026
478.0,1.054
479.0,1.048
480.0,1.05
481.0,1.069
482.0,1.075
483.0,1.062
484.0,1.04
485.0,0.9908
486.0,0.8661
487.0,0.9076
488.0,0.9957
489.0,0.9989
490.0,1.051
491.0,1.033
492.0,0.9752
493.0,1.007
494.0,1.017
495.0,1.026
496.0,1.032
497.0,1.048
498.0,0.9992
499.0,1.012
500.0,0.9826
501.0,0.9647
502.0,0.9513
503.0,0.9902
504.0,0.9654
505.0,0.9997
506.0,1.032
507.0,0.982
508.0,0.9512
509.0,0.9778
510.0,0.9726
511.0,0.9985
512.0,1.009
513.0,0.9553
514.0,0.9487
515.0,0.9393
516.0,0.937
517.0,0.8326
518.0,0.8753
519.0,0.9181
520.0,0.9515
521.0,0.9606
522.0,0.9615
523.0,0.9442
524.0,0.978
525.0,0.9897
526.0,0.9454
527.0,0.891
528.0,0.9424
529.0,0.9934
530.0,0.9792
531.0,0.9937
532.0,0.9596
533.0,0.9315
534.0,0.959
535.0,0.9799
536.0,0.9888
537.0,0.9498
538.0,0.9665
539.0,0.9584
540.0,0.9189
541.0,0.9251
542.0,0.9542
543.0,0.944
544.0,0.9605
545.0,0.9575
546.0,0.9618
547.0,0.9613
548.0,0.9497
549.0,0.9526
550.0,0.9639
551.0,0.9522
552.0,0.9588
553.0,0.9417
554.0,0.9642
555.0,0.9662
556.0,0.9536
557.0,0.924
558.0,0.9171
559.0,0.9001
560.0,0.9113
561.0,0.9232
562.0,0.9166
563.0,0.9417
564.0,0.9161
565.0,0.9083
566.0,0.895
567.0,0.912
568.0,0.904
569.0,0.8829
570.0,0.8826
571.0,0.8772
572.0,0.8985
573.0,0.9081
574.0,0.9053
575.0,0.8885
576.0,0.8803
577.0,0.8899
578.0,0.8765
579.0,0.8798
580.0,0.8963
581.0,0.9007
582.0,0.9176
583.0,0.9197
584.0,0.9276
585.0,0.9049
586.0,0.8863
587.0,0.9058
588.0,0.8842
589.0,0.7842
590.0,0.82
591.0,0.8673
592.0,0.8566
593.0,0.8689
594.0,0.863
595.0,0.842
596.0,0.8745
597.0,0.8652
598.0,0.8628
599.0,0.8635
600.0,0.8646
601.0,0.8574
602.0,0.8516
603.0,0.8656
604.0,0.8799
605.0,0.8753
606.0,0.8716
607.0,0.8802
608.0,0.8704
609.0,0.8719
610.0,0.8656
611.0,0.87
612.0,0.8675
613.0,0.8565
614.0,0.8448
615.0,0.8631
616.0,0.8346
617.0,0.8329
618.0,0.8649
619.0,0.8561
620.0,0.8616
621.0,0.8625
622.0,0.8524
623.0,0.8395
624.0,0.8251
625.0,0.8232
626.0,0.8354
627.0,0.8449
628.0,0.7907
629.0,0.8254
630.0,0.8065
631.0,0.8241
632.0,0.8142
633.0,0.8387
634.0,0.8304
635.0,0.8432
636.0,0.8319
637.0,0.8455
638.0,0.8535
639.0,0.8439
640.0,0.8356
641.0,0.835
642.0,0.8312
643.0,0.8424
644.0,0.8396
645.0,0.841
646.0,0.8215
647.0,0.8122
648.0,0.813
649.0,0.7973
650.0,0.8006
651.0,0.8352
652.0,0.801
653.0,0.8241
654.0,0.8149
655.0,0.7848
656.0,0.6954
657.0,0.7141
658.0,0.8001
659.0,0.8057
660.0,0.809
661.0,0.8147
662.0,0.8165
663.0,0.8003
664.0,0.8096
665.0,0.8102
666.0,0.8107
667.0,0.8099
668.0,0.8102
669.0,0.8227
670.0,0.8191
671.0,0.8189
672.0,0.8119
673.0,0.8241
674.0,0.821
675.0,0.8135
676.0,0.819
677.0,0.8109
678.0,0.8132
679.0,0.8
680.0,0.8064
681.0,0.8011
682.0,0.8001
683.0,0.7985
684.0,0.7946
685.0,0.8013
686.0,0.7966
687.0,0.5357
688.0,0.6246
689.0,0.6267
690.0,0.6563
691.0,0.6895
692.0,0.7136
693.0,0.7079
694.0,0.7019
695.0,0.7302
696.0,0.7312
697.0,0.7749
698.0,0.7629
699.0,0.7453
700.0,0.7363
701.0,0.7291
702.0,0.7339
703.0,0.7352
704.0,0.7583
705.0,0.7595
706.0,0.7587
707.0,0.7592
708.0,0.7608
709.0,0.7616
710.0,0.7617
711.0,0.7606
712.0,0.7582
713.0,0.7507
714.0,0.7535
715.0,0.73
716.0,0.7304
717.0,0.636
718.0,0.5846
719.0,0.5357
720.0,0.5614
721.0,0.6182
722.0,0.7056
723.0,0.6577
724.0,0.5935
725.0,0.5843
726.0,0.6116
727.0,0.6197
728.0,0.583
729.0,0.6039
730.0,0.6391
731.0,0.6117
732.0,0.6534
733.0,0.6907
734.0,0.7069
735.0,0.6924
736.0,0.6915
737.0,0.6943
738.0,0.7044
739.0,0.6905
740.0,0.7083
741.0,0.7012
742.0,0.7017
743.0,0.7195
744.0,0.7174
745.0,0.7175
746.0,0.7208
747.0,0.7224
748.0,0.7208
749.0,0.7126
750.0,0.7122
751.0,0.705
752.0,0.708
753.0,0.7116
754.0,0.7132
755.0,0.7091
756.0,0.7088
757.0,0.7098
758.0,0.701
759.0,0.6871
760.0,0.1197
761.0,0.06368
762.0,0.3571
763.0,0.1812
764.0,0.27
765.0,0.3572
766.0,0.4361
767.0,0.5478
768.0,0.6303
769.0,0.6431
770.0,0.6645
771.0,0.6696
772.0,0.671
773.0,0.6757
774.0,0.6724
775.0,0.6673
776.0,0.6754
777.0,0.6665
778.0,0.6624
779.0,0.663
780.0,0.6593
781.0,0.6599
782.0,0.6641
783.0,0.6525
784.0,0.6556
785.0,0.6508
786.0,0.658
787.0,0.6467
788.0,0.6388
789.0,0.6385
790.0,0.6219
791.0,0.6269
792.0,0.6223
793.0,0.6122
794.0,0.6224
795.0,0.633
796.0,0.614
797.0,0.6147
798.0,0.6323
799.0,0.6283
800.0,0.6175
801.0,0.6157
802.0,0.6139
803.0,0.6093
804.0,0.6101
805.0,0.608
806.0,0.6249
807.0,0.6174
808.0,0.6179
809.0,0.6065
810.0,0.6016
811.0,0.6026
812.0,0.5857
813.0,0.5736
814.0,0.5056
815.0,0.5025
816.0,0.4678
817.0,0.4763
818.0,0.4587
819.0,0.512
820.0,0.4825
821.0,0.5628
822.0,0.5469
823.0,0.3737
824.0,0.5314
825.0,0.5531
826.0,0.5325
827.0,0.5616
828.0,0.4771
829.0,0.5292
830.0,0.5223
831.0,0.5241
832.0,0.5082
833.0,0.5403
834.0,0.5214
835.0,0.5722
836.0,0.5481
837.0,0.5738
838.0,0.5561
839.0,0.5651
840.0,0.5774
841.0,0.5693
842.0,0.5704
843.0,0.57
844.0,0.5621
845.0,0.5811
846.0,0.5785
847.0,0.5677
848.0,0.5642
849.0,0.5482
850.0,0.5252
851.0,0.5561
852.0,0.5522
853.0,0.5315
854.0,0.4589
855.0,0.5042
856.0,0.551
857.0,0.5632
858.0,0.5591
859.0,0.5596
860.0,0.5606
861.0,0.5575
862.0,0.5663
863.0,0.5796
864.0,0.5507
865.0,0.5458
866.0,0.4908
867.0,0.5122
868.0,0.5574
869.0,0.5458
870.0,0.5613
871.0,0.5537
872.0,0.5517
873.0,0.5506
874.0,0.5441
875.0,0.5331
876.0,0.5386
877.0,0.5441
878.0,0.55
879.0,0.5415
880.0,0.5299
881.0,0.5219
882.0,0.5332
883.0,0.5349
884.0,0.5325
885.0,0.5365
886.0,0.5113
887.0,0.5167
888.0,0.5243
889.0,0.5303
890.0,0.5258
891.0,0.525
892.0,0.5098
893.0,0.4938
894.0,0.4763
895.0,0.45
896.0,0.4239
897.0,0.364
898.0,0.3973
899.0,0.302
900.0,0.4068
901.0,0.3165
902.0,0.3717
903.0,0.3753
904.0,0.4728
905.0,0.4564
906.0,0.4271
907.0,0.3468
908.0,0.3537
909.0,0.3833
910.0,0.3387
911.0,0.3612
912.0,0.3776
913.0,0.3437
914.0,0.3408
915.0,0.3695
916.0,0.3127
917.0,0.3971
918.0,0.3206
919.0,0.4044
920.0,0.4088
921.0,0.4252
922.0,0.3798
923.0,0.4107
924.0,0.3893
925.0,0.3808
926.0,0.3849
927.0,0.4312
928.0,0.3154
929.0,0.2876
930.0,0.2255
931.0,0.2137
932.0,0.1532
933.0,0.1242
934.0,0.0673
935.0,0.1274
936.0,0.07903
937.0,0.08003
938.0,0.09864
939.0,0.207
940.0,0.2496
941.0,0.1877
942.0,0.2177
943.0,0.1426
944.0,0.1507
945.0,0.1936
946.0,0.09774
947.0,0.1943
948.0,0.1426
949.0,0.2609
950.0,0.0712
951.0,0.2571
952.0,0.137
953.0,0.1777
954.0,0.2187
955.0,0.1798
956.0,0.175
957.0,0.1371
958.0,0.2492
959.0,0.197
960.0,0.2208
961.0,0.2486
962.0,0.2351
963.0,0.2717
964.0,0.2487
965.0,0.2708
966.0,0.2706
967.0,0.2694
968.0,0.3636
969.0,0.3795
970.0,0.3483
971.0,0.3997
972.0,0.3821
973.0,0.3317
974.0,0.3146
975.0,0.327
976.0,0.3099
977.0,0.3538
978.0,0.3357
979.0,0.3519
980.0,0.3306
981.0,0.3974
982.0,0.3796
983.0,0.3642
984.0,0.4099
985.0,0.3782
986.0,0.4173
987.0,0.4089
988.0,0.4081
989.0,0.4162
990.0,0.4057
991.0,0.4174
992.0,0.4199
993.0,0.4102
994.0,0.4198
995.0,0.4193
996.0,0.4174
997.0,0.418
998.0,0.4161
999.0,0.4145
1000.0,0.4116
1001.0,0.4168
1002.0,0.405
1003.0,0.4094
1004.0,0.3993
1005.0,0.3848
1006.0,0.3998
1007.0,0.4083
1008.0,0.406
1009.0,0.4038
1010.0,0.402
1011.0,0.4062
1012.0,0.4026
1013.0,0.4052
1014.0,0.4024
1015.0,0.3997
1016.0,0.3979
1017.0,0.3989
1018.0,0.3974
1019.0,0.3889
1020.0,0.3953
1021.0,0.3948
1022.0,0.3917
1023.0,0.3958
1024.0,0.3906
1025.0,0.3956
1026.0,0.3939
1027.0,0.393
1028.0,0.3921
1029.0,0.3875
1030.0,0.3902
1031.0,0.3886
1032.0,0.3875
1033.0,0.3817
1034.0,0.3817
1035.0,0.3829
1036.0,0.3849
1037.0,0.3786
1038.0,0.3803
1039.0,0.38
1040.0,0.3785
1041.0,0.38
1042.0,0.3774
1043.0,0.3762
1044.0,0.3775
1045.0,0.3723
1046.0,0.3682
1047.0,0.3715
1048.0,0.3735
1049.0,0.3722
1050.0,0.3705
1051.0,0.3699
1052.0,0.3684
1053.0,0.3655
1054.0,0.3662
1055.0,0.3664
1056.0,0.3651
1057.0,0.364
1058.0,0.355
1059.0,0.3554
1060.0,0.3548
1061.0,0.3544
1062.0,0.3562
1063.0,0.3527
1064.0,0.3569
1065.0,0.3543
1066.0,0.3473
1067.0,0.3518
1068.0,0.344
1069.0,0.3334
1070.0,0.3447
1071.0,0.3502
1072.0,0.3461
1073.0,0.3411
1074.0,0.3501
1075.0,0.3322
1076.0,0.3497
1077.0,0.3433
1078.0,0.3367
1079.0,0.3442
1080.0,0.338
1081.0,0.327
1082.0,0.3326
1083.0,0.3336
1084.0,0.3261
1085.0,0.3388
1086.0,0.3087
1087.0,0.319
1088.0,0.3332
1089.0,0.3227
1090.0,0.3154
1091.0,0.3321
1092.0,0.3313
1093.0,0.28
1094.0,0.303
1095.0,0.2918
1096.0,0.2791
1097.0,0.3236
1098.0,0.2747
1099.0,0.2867
1100.0,0.2661
1101.0,0.2695
1102.0,0.2572
1103.0,0.2545
1104.0,0.2548
1105.0,0.28
1106.0,0.2126
1107.0,0.2656
1108.0,0.2242
1109.0,0.2248
1110.0,0.2632
1111.0,0.1773
1112.0,0.2232
1113.0,0.1407
1114.0,0.1574
1115.0,0.1305
1116.0,0.1033
1117.0,0.03704
1118.0,0.1127
1119.0,0.05518
1120.0,0.0694
1121.0,0.09258
1122.0,0.0383
1123.0,0.06275
1124.0,0.05295
1125.0,0.06927
1126.0,0.02345
1127.0,0.0782
1128.0,0.04605
1129.0,0.04897
1130.0,0.03194
1131.0,0.1501
1132.0,0.1174
1133.0,0.07344
1134.0,0.01822
1135.0,0.006859
1136.0,0.06092
1137.0,0.1471
1138.0,0.1034
1139.0,0.1561
1140.0,0.1297
1141.0,0.09831
1142.0,0.1135
1143.0,0.1619
1144.0,0.05565
1145.0,0.07086
1146.0,0.07641
1147.0,0.02618
1148.0,0.1401
1149.0,0.1113
1150.0,0.05995
1151.0,0.1026
1152.0,0.127
1153.0,0.1242
1154.0,0.06857
1155.0,0.1628
1156.0,0.1463
1157.0,0.1646
1158.0,0.1628
1159.0,0.1761
1160.0,0.15
1161.0,0.1857
1162.0,0.1865
1163.0,0.253
1164.0,0.2166
1165.0,0.204
1166.0,0.2028
1167.0,0.2211
1168.0,0.2235
1169.0,0.2289
1170.0,0.249
1171.0,0.2428
1172.0,0.2473
1173.0,0.2485
1174.0,0.177
1175.0,0.2428
1176.0,0.2671
1177.0,0.2563
1178.0,0.1922
1179.0,0.2693
1180.0,0.2402
1181.0,0.2479
1182.0,0.1708
1183.0,0.2441
1184.0,0.2287
1185.0,0.2206
1186.0,0.2617
1187.0,0.2493
1188.0,0.1737
1189.0,0.2322
1190.0,0.2558
1191.0,0.2428
1192.0,0.2594
1193.0,0.2485
1194.0,0.2562
1195.0,0.2423
1196.0,0.2333
1197.0,0.2563
1198.0,0.2345
1199.0,0.1995
1200.0,0.2454
1201.0,0.2367
1202.0,0.2353
1203.0,0.2333
1204.0,0.2041
1205.0,0.2408
1206.0,0.2659
1207.0,0.2347
1208.0,0.231
1209.0,0.2358
1210.0,0.2456
1211.0,0.2339
1212.0,0.2311
1213.0,0.2572
1214.0,0.2367
1215.0,0.2322
1216.0,0.2564
1217.0,0.2496
1218.0,0.2543
1219.0,0.2512
1220.0,0.2546
1221.0,0.2571
1222.0,0.2504
1223.0,0.2481
1224.0,0.2466
1225.0,0.2554
1226.0,0.2571
1227.0,0.2373
1228.0,0.2584
1229.0,0.2572
1230.0,0.2528
1231.0,0.2599
1232.0,0.2584
1233.0,0.2496
1234.0,0.2597
1235.0,0.258
1236.0,0.2599
1237.0,0.2563
1238.0,0.259
1239.0,0.2557
1240.0,0.2567
1241.0,0.2555
1242.0,0.2549
1243.0,0.2528
1244.0,0.2546
1245.0,0.2557
1246.0,0.2542
1247.0,0.2533
1248.0,0.2531
1249.0,0.2539
1250.0,0.2523
1251.0,0.2491
1252.0,0.2491
1253.0,0.2472
1254.0,0.2447
1255.0,0.2489
1256.0,0.242
1257.0,0.2406
1258.0,0.2451
1259.0,0.2363
1260.0,0.2375
1261.0,0.2243
1262.0,0.2176
1263.0,0.218
1264.0,0.2013
1265.0,0.2166
1266.0,0.2085
1267.0,0.2121
1268.0,0.2012
1269.0,0.1252
1270.0,0.2114
1271.0,0.2235
1272.0,0.2242
1273.0,0.2219
1274.0,0.2226
1275.0,0.2258
1276.0,0.2279
1277.0,0.2294
1278.0,0.2338
1279.0,0.2317
1280.0,0.2288
1281.0,0.2183
1282.0,0.2103
1283.0,0.2265
1284.0,0.2319
1285.0,0.2334
1286.0,0.2366
1287.0,0.2329
1288.0,0.2329
1289.0,0.2256
1290.0,0.2308
1291.0,0.234
1292.0,0.22
1293.0,0.2295
1294.0,0.2279
1295.0,0.2268
1296.0,0.2166
1297.0,0.205
1298.0,0.2205
1299.0,0.2298
1300.0,0.1947
1301.0,0.2006
1302.0,0.2198
1303.0,0.1921
1304.0,0.1639
1305.0,0.2153
1306.0,0.2153
1307.0,0.1675
1308.0,0.1924
1309.0,0.2137
1310.0,0.1643
1311.0,0.1845
1312.0,0.1795
1313.0,0.176
1314.0,0.1576
1315.0,0.1555
1316.0,0.1815
1317.0,0.172
1318.0,0.1869
1319.0,0.1461
1320.0,0.1416
1321.0,0.1649
1322.0,0.1665
1323.0,0.1252
1324.0,0.1433
1325.0,0.1789
1326.0,0.1536
1327.0,0.1464
1328.0,0.1262
1329.0,0.09467
1330.0,0.1233
1331.0,0.07419
1332.0,0.07671
1333.0,0.1068
1334.0,0.09061
1335.0,0.1248
1336.0,0.09854
1337.0,0.08705
1338.0,0.09421
1339.0,0.09383
1340.0,0.09134
1341.0,0.089
1342.0,0.0935
1343.0,0.06289
1344.0,0.03769
1345.0,0.05438
1346.0,0.02671
1347.0,0.02711
1348.0,0.001723
1349.0,0.00623
1350.0,0.0065
1351.0,0.001552
1352.0,0.0004117
1353.0,2.065e-05
1354.0,7.201e-05
1355.0,5.604e-07
1356.0,1.008e-05
1357.0,1.536e-05
1358.0,6.647e-07
1359.0,8.167e-08
1360.0,3.014e-07
1361.0,3.187e-10
1362.0,8.527e-13
1363.0,4.053e-07
1364.0,1.676e-07
1365.0,2.907e-13
1366.0,1.785e-06
1367.0,7.346e-07
1368.0,2.125e-15
1369.0,6.258e-08
1370.0,3.055e-08
1371.0,1.712e-09
1372.0,4.043e-07
1373.0,8.326e-06
1374.0,3.923e-05
1375.0,7.131e-05
1376.0,6.485e-05
1377.0,2.962e-05
1378.0,0.0002921
1379.0,1.244e-05
1380.0,1.779e-05
1381.0,4.612e-07
1382.0,3.636e-07
1383.0,5.394e-09
1384.0,7.048e-08
1385.0,3.484e-07
1386.0,3.216e-07
1387.0,4.042e-05
1388.0,7.973e-07
1389.0,0.0001393
1390.0,0.0001198
1391.0,7.971e-05
1392.0,5.16e-06
1393.0,2.761e-05
1394.0,1.397e-05
1395.0,1.012e-07
1396.0,4.63e-10
1397.0,1.094e-05
1398.0,0.0003277
1399.0,0.000208
1400.0,1.971e-10
1401.0,8.379e-10
1402.0,0.0005916
1403.0,0.0007407
1404.0,0.0002253
1405.0,4.88e-08
1406.0,0.0005823
1407.0,5.169e-05
1408.0,0.000477
1409.0,0.0001578
1410.0,0.0001276
1411.0,0.0006519
1412.0,0.0008863
1413.0,0.009382
1414.0,0.0001009
1415.0,4.808e-05
1416.0,0.01577
1417.0,0.004629
1418.0,0.005248
1419.0,0.0008081
1420.0,0.003206
1421.0,0.003469
1422.0,0.02063
1423.0,0.003957
1424.0,0.00746
1425.0,0.01091
1426.0,0.01257
1427.0,0.02354
1428.0,0.001615
1429.0,0.01739
1430.0,0.03021
1431.0,0.03334
1432.0,0.001268
1433.0,0.02099
1434.0,0.01057
1435.0,0.01019
1436.0,0.02025
1437.0,0.01553
1438.0,0.006395
1439.0,0.0278
1440.0,0.02081
1441.0,0.01555
1442.0,0.01728
1443.0,0.02219
