interpolation:linear
wavelength,value
280.0,2.531e-22
280.5,8.336e-21
281.0,4.471e-20
281.5,3.957e-19
282.0,6.44e-19
282.5,1.598e-18
283.0,5.054e-18
283.5,8.231e-18
284.0,1.357e-16
284.5,3.962e-16
285.0,6.5e-16
285.5,3.248e-15
286.0,1.311e-14
286.5,5.907e-14
287.0,1.696e-13
287.5,6.547e-13
288.0,2.281e-12
288.5,6.85e-12
289.0,1.816e-11
289.5,5.466e-11
290.0,1.515e-10
290.5,3.086e-10
291.0,6.622e-10
291.5,1.901e-09
292.0,3.821e-09
292.5,5.371e-09
293.0,1.154e-08
293.5,2.816e-08
294.0,4.411e-08
294.5,6.045e-08
295.0,1.026e-07
295.5,1.713e-07
296.0,3.331e-07
296.5,4.699e-07
297.0,6.406e-07
297.5,1.742e-06
298.0,2.782e-06
298.5,2.829e-06
299.0,6.313e-06
299.5,1.074e-05
300.0,1.198e-05
300.5,1.764e-05
301.0,3.282e-05
301.5,5.372e-05
302.0,4.657e-05
302.5,9.39e-05
303.0,0.0001766
303.5,0.0002306
304.0,0.0002247
304.5,0.0003697
305.0,0.0006456
305.5,0.0008104
306.0,0.000813
306.5,0.001075
307.0,0.001828
307.5,0.002779
308.0,0.003
308.5,0.00379
309.0,0.003825
309.5,0.004869
310.0,0.005135
310.5,0.00852
311.0,0.01113
311.5,0.01093
312.0,0.01189
312.5,0.0153
313.0,0.01709
313.5,0.01615
314.0,0.02159
314.5,0.02091
315.0,0.02791
315.5,0.02238
316.0,0.02099
316.5,0.03203
317.0,0.03973
317.5,0.04063
318.0,0.03305
318.5,0.04442
319.0,0.05486
319.5,0.04195
320.0,0.0502
320.5,0.06811
321.0,0.06521
321.5,0.06298
322.0,0.06213
322.5,0.05427
323.0,0.05686
323.5,0.07331
324.0,0.08629
324.5,0.08582
325.0,0.07221
325.5,0.09675
326.0,0.1198
326.5,0.1233
327.0,0.1217
327.5,0.1161
328.0,0.09983
328.5,0.1095
329.0,0.1357
329.5,0.1557
330.0,0.1558
330.5,0.1215
331.0,0.1227
331.5,0.1272
332.0,0.1414
332.5,0.1417
333.0,0.1403
333.5,0.1244
334.0,0.1271
334.5,0.1502
335.0,0.1431
335.5,0.1678
336.0,0.1161
336.5,0.1347
337.0,0.1095
337.5,0.1357
338.0,0.1352
338.5,0.1569
339.0,0.1556
339.5,0.1496
340.0,0.175
340.5,0.1582
341.0,0.1549
341.5,0.1426
342.0,0.1706
342.5,0.1598
343.0,0.1755
343.5,0.1652
344.0,0.1217
344.5,0.1233
345.0,0.1636
345.5,0.1674
346.0,0.1424
346.5,0.1615
347.0,0.1732
347.5,0.1401
348.0,0.16
348.5,0.1602
349.0,0.1487
349.5,0.1474
350.0,0.1824
350.5,0.1925
351.0,0.1719
351.5,0.1669
352.0,0.1796
352.5,0.1403
353.0,0.177
353.5,0.1895
354.0,0.1968
354.5,0.1997
355.0,0.1991
355.5,0.18
356.0,0.1885
356.5,0.1611
357.0,0.1331
357.5,0.1631
358.0,0.1293
358.5,0.1106
359.0,0.1547
359.5,0.1971
360.0,0.2091
360.5,0.1672
361.0,0.1526
361.5,0.1759
362.0,0.1524
362.5,0.2111
363.0,0.1898
363.5,0.175
364.0,0.2142
364.5,0.1832
365.0,0.1867
365.5,0.2345
366.0,0.2487
366.5,0.2339
367.0,0.2279
367.5,0.2367
368.0,0.2073
368.5,0.2093
369.0,0.2262
369.5,0.2413
370.0,0.2574
370.5,0.2
371.0,0.2138
371.5,0.2677
372.0,0.1778
372.5,0.2133
373.0,0.2172
373.5,0.1414
374.0,0.2056
374.5,0.1704
375.0,0.1658
375.5,0.2476
376.0,0.2054
376.5,0.213
377.0,0.2257
377.5,0.2642
378.0,0.2865
378.5,0.271
379.0,0.2237
379.5,0.2044
380.0,0.2126
380.5,0.2578
381.0,0.2586
381.5,0.2052
382.0,0.1824
382.5,0.1557
383.0,0.1443
383.5,0.1391
384.0,0.1535
384.5,0.226
385.0,0.2243
385.5,0.2091
386.0,0.1792
386.5,0.2356
387.0,0.1959
387.5,0.2202
388.0,0.2034
388.5,0.2012
389.0,0.2174
389.5,0.2635
390.0,0.2646
390.5,0.2437
391.0,0.2871
391.5,0.293
392.0,0.2469
392.5,0.2213
393.0,0.1232
393.5,0.08965
394.0,0.1825
394.5,0.2323
395.0,0.2836
395.5,0.2882
396.0,0.2501
396.5,0.1463
397.0,0.1099
397.5,0.2237
398.0,0.3133
398.5,0.324
399.0,0.3513
399.5,0.3504
400.0,0.3639
401.0,0.367
402.0,0.3878
403.0,0.369
404.0,0.3638
405.0,0.3641
406.0,0.3588
407.0,0.3536
408.0,0.3676
409.0,0.3939
410.0,0.3447
411.0,0.3739
412.0,0.4023
413.0,0.3926
414.0,0.398
415.0,0.3996
416.0,0.4073
417.0,0.3976
418.0,0.3907
419.0,0.3963
420.0,0.395
421.0,0.4137
422.0,0.3936
423.0,0.3849
424.0,0.4073
425.0,0.4071
426.0,0.3973
427.0,0.3902
428.0,0.3804
429.0,0.361
430.0,0.3163
431.0,0.3136
432.0,0.4055
433.0,0.4081
434.0,0.3792
435.0,0.3962
436.0,0.4472
437.0,0.4419
438.0,0.4028
439.0,0.4162
440.0,0.43
441.0,0.4461
442.0,0.4788
443.0,0.4663
444.0,0.477
445.0,0.4668
446.0,0.4464
447.0,0.4834
448.0,0.4907
449.0,0.4936
450.0,0.5079
451.0,0.5271
452.0,0.5083
453.0,0.4785
454.0,0.5002
455.0,0.5034
456.0,0.5157
457.0,0.5245
458.0,0.5063
459.0,0.5039
460.0,0.5052
461.0,0.517
462.0,0.5217
463.0,0.5182
464.0,0.5105
465.0,0.505
466.0,0.5105
467.0,0.5011
468.0,0.5071
469.0,0.5098
470.0,0.4935
471.0,0.4931
472.0,0.5197
473.0,0.513
474.0,0.5132
475.0,0.517
476.0,0.5008
477.0,0.5016
478.0,0.5158
479.0,0.5132
480.0,0.5147
481.0,0.525
482.0,0.5285
483.0,0.5231
484.0,0.5129
485.0,0.4893
486.0,0.4283
487.0,0.4495
488.0,0.4931
489.0,0.4944
490.0,0.5206
491.0,0.512
492.0,0.4837
493.0,0.4996
494.0,0.5048
495.0,0.5092
496.0,0.5124
497.0,0.5202
498.0,0.4958
499.0,0.5019
500.0,0.4868
501.0,0.4773
502.0,0.4696
503.0,0.4876
504.0,0.4722
505.0,0.4916
506.0,0.5074
507.0,0.483
508.0,0.4689
509.0,0.4829
510.0,0.4809
511.0,0.4945
512.0,0.5002
513.0,0.4736
514.0,0.4706
515.0,0.4659
516.0,0.4647
517.0,0.4131
518.0,0.4342
519.0,0.4554
520.0,0.4718
521.0,0.4762
522.0,0.4763
523.0,0.4676
524.0,0.4838
525.0,0.4887
526.0,0.4665
527.0,0.439
528.0,0.4637
529.0,0.4884
530.0,0.4811
531.0,0.4879
532.0,0.471
533.0,0.4572
534.0,0.471
535.0,0.4817
536.0,0.4864
537.0,0.4676
538.0,0.476
539.0,0.472
540.0,0.4524
541.0,0.4544
542.0,0.4682
543.0,0.464
544.0,0.4713
545.0,0.4699
546.0,0.4713
547.0,0.4717
548.0,0.4664
549.0,0.4681
550.0,0.4737
551.0,0.4681
552.0,0.4713
553.0,0.4628
554.0,0.4738
555.0,0.4745
556.0,0.4682
557.0,0.4533
558.0,0.4494
559.0,0.4405
560.0,0.4457
561.0,0.451
562.0,0.4472
563.0,0.4587
564.0,0.4456
565.0,0.4413
566.0,0.4344
567.0,0.442
568.0,0.4364
569.0,0.423
570.0,0.4233
571.0,0.4215
572.0,0.4296
573.0,0.4338
574.0,0.4319
575.0,0.4231
576.0,0.4193
577.0,0.4242
578.0,0.4187
579.0,0.4218
580.0,0.4321
581.0,0.4361
582.0,0.4459
583.0,0.4482
584.0,0.453
585.0,0.4424
586.0,0.4334
587.0,0.4419
588.0,0.4273
589.0,0.3712
590.0,0.3887
591.0,0.4158
592.0,0.408
593.0,0.4174
594.0,0.4131
595.0,0.4001
596.0,0.422
597.0,0.4159
598.0,0.4167
599.0,0.4178
600.0,0.42
601.0,0.4178
602.0,0.4151
603.0,0.4226
604.0,0.4299
605.0,0.4281
606.0,0.427
607.0,0.4319
608.0,0.4279
609.0,0.4292
610.0,0.4268
611.0,0.4294
612.0,0.4286
613.0,0.4236
614.0,0.4184
615.0,0.4281
616.0,0.4144
617.0,0.414
618.0,0.4302
619.0,0.4261
620.0,0.4288
621.0,0.4287
622.0,0.4232
623.0,0.4163
624.0,0.4097
625.0,0.4087
626.0,0.4146
627.0,0.4178
628.0,0.3729
629.0,0.4019
630.0,0.392
631.0,0.4068
632.0,0.403
633.0,0.4177
634.0,0.4156
635.0,0.4231
636.0,0.4186
637.0,0.4264
638.0,0.4318
639.0,0.4277
640.0,0.4244
641.0,0.4248
642.0,0.4236
643.0,0.4294
644.0,0.4287
645.0,0.429
646.0,0.4169
647.0,0.4071
648.0,0.4077
649.0,0.3991
650.0,0.4073
651.0,0.4261
652.0,0.4021
653.0,0.4208
654.0,0.4166
655.0,0.398
656.0,0.3549
657.0,0.3649
658.0,0.4109
659.0,0.4146
660.0,0.4168
661.0,0.42
662.0,0.4197
663.0,0.4118
664.0,0.4185
665.0,0.4201
666.0,0.421
667.0,0.4213
668.0,0.4223
669.0,0.4292
670.0,0.4277
671.0,0.428
672.0,0.4245
673.0,0.4312
674.0,0.4299
675.0,0.4263
676.0,0.4295
677.0,0.4255
678.0,0.427
679.0,0.4203
680.0,0.4238
681.0,0.4211
682.0,0.4206
683.0,0.4199
684.0,0.4178
685.0,0.4217
686.0,0.4188
687.0,0.207
688.0,0.2731
689.0,0.2752
690.0,0.2999
691.0,0.329
692.0,0.3522
693.0,0.3486
694.0,0.3472
695.0,0.3708
696.0,0.3718
697.0,0.4052
698.0,0.3986
699.0,0.3818
700.0,0.3769
701.0,0.3702
702.0,0.3756
703.0,0.377
704.0,0.3935
705.0,0.394
706.0,0.3953
707.0,0.3963
708.0,0.397
709.0,0.4005
710.0,0.3989
711.0,0.3994
712.0,0.3997
713.0,0.3943
714.0,0.3962
715.0,0.3807
716.0,0.3802
717.0,0.3035
718.0,0.2765
719.0,0.2512
720.0,0.2605
721.0,0.3024
722.0,0.3621
723.0,0.3292
724.0,0.2867
725.0,0.279
726.0,0.2928
727.0,0.3036
728.0,0.2771
729.0,0.2965
730.0,0.3118
731.0,0.2966
732.0,0.3269
733.0,0.3549
734.0,0.3662
735.0,0.3571
736.0,0.3562
737.0,0.3577
738.0,0.3703
739.0,0.3631
740.0,0.3747
741.0,0.3722
742.0,0.3739
743.0,0.3838
744.0,0.3835
745.0,0.3843
746.0,0.3861
747.0,0.3871
748.0,0.3864
749.0,0.382
750.0,0.3819
751.0,0.378
752.0,0.3798
753.0,0.3818
754.0,0.3826
755.0,0.3804
756.0,0.3804
757.0,0.3809
758.0,0.376
759.0,0.3638
760.0,0.01739
761.0,0.00613
762.0,0.1163
763.0,0.03525
764.0,0.0706
765.0,0.1161
766.0,0.1703
767.0,0.2485
768.0,0.3177
769.0,0.3318
770.0,0.3516
771.0,0.3583
772.0,0.3603
773.0,0.3632
774.0,0.3617
775.0,0.3591
776.0,0.3636
777.0,0.3588
778.0,0.3566
779.0,0.3569
780.0,0.355
781.0,0.3554
782.0,0.3577
783.0,0.3516
784.0,0.3535
785.0,0.3505
786.0,0.3541
787.0,0.3444
788.0,0.3386
789.0,0.3383
790.0,0.3247
791.0,0.3321
792.0,0.3304
793.0,0.3246
794.0,0.3348
795.0,0.3392
796.0,0.3223
797.0,0.3221
798.0,0.338
799.0,0.3347
800.0,0.3273
801.0,0.3247
802.0,0.3237
803.0,0.3204
804.0,0.3216
805.0,0.3225
806.0,0.3349
807.0,0.3301
808.0,0.3307
809.0,0.322
810.0,0.3178
811.0,0.3148
812.0,0.3013
813.0,0.2932
814.0,0.2458
815.0,0.2451
816.0,0.2266
817.0,0.2315
818.0,0.2201
819.0,0.2564
820.0,0.2378
821.0,0.2935
822.0,0.2826
823.0,0.1692
824.0,0.2684
825.0,0.2884
826.0,0.2724
827.0,0.2926
828.0,0.2333
829.0,0.2718
830.0,0.2671
831.0,0.268
832.0,0.2572
833.0,0.2804
834.0,0.2659
835.0,0.303
836.0,0.2826
837.0,0.304
838.0,0.2908
839.0,0.3
840.0,0.3076
841.0,0.3016
842.0,0.3048
843.0,0.3072
844.0,0.3015
845.0,0.3136
846.0,0.3127
847.0,0.3076
848.0,0.3046
849.0,0.2959
850.0,0.2836
851.0,0.299
852.0,0.2975
853.0,0.2874
854.0,0.2473
855.0,0.2729
856.0,0.2977
857.0,0.3051
858.0,0.3025
859.0,0.3033
860.0,0.3042
861.0,0.3024
862.0,0.3074
863.0,0.3146
864.0,0.299
865.0,0.2965
866.0,0.2666
867.0,0.2782
868.0,0.3028
869.0,0.2966
870.0,0.3051
871.0,0.3009
872.0,0.2999
873.0,0.2993
874.0,0.2958
875.0,0.2897
876.0,0.2927
877.0,0.2957
878.0,0.2987
879.0,0.2942
880.0,0.2879
881.0,0.283
882.0,0.2889
883.0,0.2904
884.0,0.2888
885.0,0.291
886.0,0.2752
887.0,0.2798
888.0,0.283
889.0,0.288
890.0,0.2834
891.0,0.284
892.0,0.2729
893.0,0.2617
894.0,0.2464
895.0,0.2253
896.0,0.2104
897.0,0.1723
898.0,0.1921
899.0,0.1368
900.0,0.2022
901.0,0.1433
902.0,0.1806
903.0,0.1779
904.0,0.2444
905.0,0.2333
906.0,0.216
907.0,0.1617
908.0,0.1677
909.0,0.1869
910.0,0.155
911.0,0.1731
912.0,0.1815
913.0,0.1568
914.0,0.1576
915.0,0.17
916.0,0.1425
917.0,0.1908
918.0,0.1453
919.0,0.1979
920.0,0.2077
921.0,0.2155
922.0,0.1851
923.0,0.209
924.0,0.1876
925.0,0.184
926.0,0.1847
927.0,0.2142
928.0,0.1358
929.0,0.1185
930.0,0.08458
931.0,0.08026
932.0,0.04957
933.0,0.03691
934.0,0.0138
935.0,0.04039
936.0,0.02078
937.0,0.0209
938.0,0.02722
939.0,0.07754
940.0,0.09963
941.0,0.06729
942.0,0.08192
943.0,0.04801
944.0,0.05654
945.0,0.07112
946.0,0.02857
947.0,0.06932
948.0,0.0502
949.0,0.1007
950.0,0.01787
951.0,0.1001
952.0,0.04424
953.0,0.06343
954.0,0.08507
955.0,0.06495
956.0,0.0706
957.0,0.04381
958.0,0.1082
959.0,0.07655
960.0,0.08583
961.0,0.1038
962.0,0.09787
963.0,0.1194
964.0,0.1075
965.0,0.1188
966.0,0.118
967.0,0.1165
968.0,0.183
969.0,0.187
970.0,0.1694
971.0,0.2058
972.0,0.1942
973.0,0.1571
974.0,0.1482
975.0,0.1577
976.0,0.143
977.0,0.1768
978.0,0.1621
979.0,0.173
980.0,0.161
981.0,0.2049
982.0,0.1914
983.0,0.1814
984.0,0.2167
985.0,0.1905
986.0,0.2241
987.0,0.2157
988.0,0.2156
989.0,0.2257
990.0,0.2142
991.0,0.2259
992.0,0.2277
993.0,0.2186
994.0,0.228
995.0,0.2284
996.0,0.2267
997.0,0.2273
998.0,0.226
999.0,0.2254
1000.0,0.2228
1001.0,0.2267
1002.0,0.2164
1003.0,0.2225
1004.0,0.2159
1005.0,0.2095
1006.0,0.217
1007.0,0.2219
1008.0,0.22
1009.0,0.2181
1010.0,0.2167
1011.0,0.2209
1012.0,0.2182
1013.0,0.2206
1014.0,0.219
1015.0,0.2175
1016.0,0.2164
1017.0,0.2168
1018.0,0.2165
1019.0,0.2103
1020.0,0.2151
1021.0,0.2151
1022.0,0.2128
1023.0,0.215
1024.0,0.2107
1025.0,0.2154
1026.0,0.2141
1027.0,0.2137
1028.0,0.2131
1029.0,0.2104
1030.0,0.2124
1031.0,0.2113
1032.0,0.2109
1033.0,0.2077
1034.0,0.2078
1035.0,0.2084
1036.0,0.2093
1037.0,0.206
1038.0,0.2068
1039.0,0.2066
1040.0,0.2057
1041.0,0.2064
1042.0,0.2049
1043.0,0.2042
1044.0,0.2048
1045.0,0.202
1046.0,0.1996
1047.0,0.2013
1048.0,0.2023
1049.0,0.2014
1050.0,0.2004
1051.0,0.1999
1052.0,0.199
1053.0,0.1972
1054.0,0.1974
1055.0,0.1973
1056.0,0.1963
1057.0,0.1955
1058.0,0.1905
1059.0,0.1904
1060.0,0.19
1061.0,0.1896
1062.0,0.1904
1063.0,0.1883
1064.0,0.1906
1065.0,0.1887
1066.0,0.1854
1067.0,0.1876
1068.0,0.1831
1069.0,0.1778
1070.0,0.1834
1071.0,0.1877
1072.0,0.1845
1073.0,0.182
1074.0,0.1883
1075.0,0.1749
1076.0,0.1879
1077.0,0.1824
1078.0,0.1778
1079.0,0.1856
1080.0,0.1796
1081.0,0.1718
1082.0,0.178
1083.0,0.1794
1084.0,0.1707
1085.0,0.1803
1086.0,0.1594
1087.0,0.1679
1088.0,0.1786
1089.0,0.1693
1090.0,0.1637
1091.0,0.1771
1092.0,0.1773
1093.0,0.1404
1094.0,0.1609
1095.0,0.1468
1096.0,0.1378
1097.0,0.1733
1098.0,0.1342
1099.0,0.1414
1100.0,0.1278
1101.0,0.1307
1102.0,0.1221
1103.0,0.119
1104.0,0.1195
1105.0,0.1373
1106.0,0.0899
1107.0,0.1276
1108.0,0.09919
1109.0,0.1009
1110.0,0.1246
1111.0,0.07263
1112.0,0.1007
1113.0,0.0529
1114.0,0.05958
1115.0,0.04852
1116.0,0.03311
1117.0,0.007596
1118.0,0.03731
1119.0,0.01417
1120.0,0.0172
1121.0,0.02499
1122.0,0.007336
1123.0,0.01572
1124.0,0.0132
1125.0,0.0183
1126.0,0.003515
1127.0,0.02094
1128.0,0.0091
1129.0,0.009959
1130.0,0.005981
1131.0,0.04991
1132.0,0.03706
1133.0,0.01812
1134.0,0.002638
1135.0,0.001121
1136.0,0.01341
1137.0,0.04686
1138.0,0.03198
1139.0,0.06035
1140.0,0.04551
1141.0,0.03056
1142.0,0.03735
1143.0,0.05871
1144.0,0.01519
1145.0,0.01744
1146.0,0.01876
1147.0,0.003861
1148.0,0.04999
1149.0,0.03646
1150.0,0.01749
1151.0,0.03174
1152.0,0.04321
1153.0,0.0455
1154.0,0.01726
1155.0,0.06279
1156.0,0.05388
1157.0,0.06606
1158.0,0.06512
1159.0,0.07301
1160.0,0.06018
1161.0,0.0816
1162.0,0.0812
1163.0,0.1238
1164.0,0.1012
1165.0,0.09039
1166.0,0.09398
1167.0,0.1047
1168.0,0.1048
1169.0,0.1086
1170.0,0.1224
1171.0,0.1193
1172.0,0.1244
1173.0,0.1223
1174.0,0.07756
1175.0,0.1222
1176.0,0.1404
1177.0,0.1305
1178.0,0.09056
1179.0,0.1415
1180.0,0.1198
1181.0,0.1239
1182.0,0.07694
1183.0,0.1233
1184.0,0.1126
1185.0,0.106
1186.0,0.1347
1187.0,0.1253
1188.0,0.07666
1189.0,0.1164
1190.0,0.1322
1191.0,0.1197
1192.0,0.1347
1193.0,0.1271
1194.0,0.1323
1195.0,0.1211
1196.0,0.1145
1197.0,0.134
1198.0,0.1208
1199.0,0.09468
1200.0,0.1254
1201.0,0.1179
1202.0,0.1198
1203.0,0.1172
1204.0,0.09919
1205.0,0.1248
1206.0,0.1418
1207.0,0.1183
1208.0,0.1189
1209.0,0.1217
1210.0,0.1287
1211.0,0.1197
1212.0,0.1137
1213.0,0.1349
1214.0,0.1181
1215.0,0.1154
1216.0,0.135
1217.0,0.1299
1218.0,0.1337
1219.0,0.1311
1220.0,0.134
1221.0,0.1363
1222.0,0.1322
1223.0,0.1302
1224.0,0.1277
1225.0,0.1352
1226.0,0.1373
1227.0,0.1224
1228.0,0.139
1229.0,0.1374
1230.0,0.1342
1231.0,0.1409
1232.0,0.1399
1233.0,0.1314
1234.0,0.1416
1235.0,0.1401
1236.0,0.1416
1237.0,0.1381
1238.0,0.1411
1239.0,0.1393
1240.0,0.14
1241.0,0.1384
1242.0,0.1389
1243.0,0.1378
1244.0,0.1385
1245.0,0.1393
1246.0,0.1385
1247.0,0.1377
1248.0,0.1371
1249.0,0.138
1250.0,0.1369
1251.0,0.1345
1252.0,0.1353
1253.0,0.1328
1254.0,0.1305
1255.0,0.1348
1256.0,0.1285
1257.0,0.1272
1258.0,0.1316
1259.0,0.123
1260.0,0.1241
1261.0,0.1124
1262.0,0.1066
1263.0,0.1067
1264.0,0.09312
1265.0,0.1061
1266.0,0.09888
1267.0,0.1029
1268.0,0.09403
1269.0,0.0396
1270.0,0.1016
1271.0,0.1126
1272.0,0.1135
1273.0,0.1118
1274.0,0.1129
1275.0,0.1154
1276.0,0.1174
1277.0,0.1194
1278.0,0.1236
1279.0,0.1223
1280.0,0.121
1281.0,0.1163
1282.0,0.1135
1283.0,0.122
1284.0,0.1246
1285.0,0.1257
1286.0,0.1282
1287.0,0.1247
1288.0,0.1252
1289.0,0.1182
1290.0,0.1242
1291.0,0.1265
1292.0,0.1135
1293.0,0.1228
1294.0,0.1217
1295.0,0.1193
1296.0,0.1107
1297.0,0.1025
1298.0,0.1153
1299.0,0.1234
1300.0,0.09633
1301.0,0.1007
1302.0,0.1151
1303.0,0.09586
1304.0,0.07454
1305.0,0.1123
1306.0,0.1115
1307.0,0.07882
1308.0,0.09729
1309.0,0.1094
1310.0,0.07664
1311.0,0.09155
1312.0,0.08809
1313.0,0.08458
1314.0,0.07309
1315.0,0.07056
1316.0,0.08869
1317.0,0.08296
1318.0,0.09331
1319.0,0.06437
1320.0,0.06401
1321.0,0.07762
1322.0,0.07675
1323.0,0.05098
1324.0,0.06349
1325.0,0.08645
1326.0,0.06997
1327.0,0.0655
1328.0,0.05409
1329.0,0.0349
1330.0,0.04849
1331.0,0.02344
1332.0,0.02581
1333.0,0.037
1334.0,0.0353
1335.0,0.05018
1336.0,0.03621
1337.0,0.03117
1338.0,0.03332
1339.0,0.03394
1340.0,0.03477
1341.0,0.02977
1342.0,0.03183
1343.0,0.01544
1344.0,0.009843
1345.0,0.01372
1346.0,0.004109
1347.0,0.003756
1348.0,8.767e-05
1349.0,0.0003961
1350.0,0.000482
1351.0,4.577e-05
1352.0,3.808e-06
1353.0,1.039e-07
1354.0,6.019e-07
1355.0,1.655e-09
1356.0,5.026e-08
1357.0,7.573e-08
1358.0,1.983e-09
1359.0,2.085e-10
1360.0,8.142e-10
1361.0,8.216e-13
1362.0,2.244e-15
1363.0,1.022e-09
1364.0,4.278e-10
1365.0,7.833e-16
1366.0,4.539e-09
1367.0,1.986e-09
1368.0,6.048e-18
1369.0,1.579e-10
1370.0,7.541e-11
1371.0,4.225e-12
1372.0,1.093e-09
1373.0,2.892e-08
1374.0,2.005e-07
1375.0,3.097e-07
1376.0,5.601e-07
1377.0,2.312e-07
1378.0,2.392e-06
1379.0,1.013e-07
1380.0,9.195e-08
1381.0,2.098e-09
1382.0,9.294e-10
1383.0,1.341e-11
1384.0,1.683e-10
1385.0,1.071e-09
1386.0,7.75e-10
1387.0,1.377e-07
1388.0,3.594e-09
1389.0,8.643e-07
1390.0,6.775e-07
1391.0,4.451e-07
1392.0,2.903e-08
1393.0,1.999e-07
1394.0,4.296e-08
1395.0,2.73e-10
1396.0,1.071e-12
1397.0,6.381e-08
1398.0,2.337e-06
1399.0,1.586e-06
1400.0,4.57e-13
1401.0,1.904e-12
1402.0,1.596e-05
1403.0,1.49e-05
1404.0,3.868e-06
1405.0,1.165e-10
1406.0,6.324e-06
1407.0,1.085e-06
1408.0,5.697e-06
1409.0,1.047e-06
1410.0,1.555e-06
1411.0,1.398e-05
1412.0,2.665e-05
1413.0,0.0006075
1414.0,1.374e-06
1415.0,5.083e-07
1416.0,0.002031
1417.0,0.0003695
1418.0,0.0003044
1419.0,4.205e-05
1420.0,0.0001828
1421.0,0.0002536
1422.0,0.002647
1423.0,0.0004689
1424.0,0.001014
1425.0,0.001232
1426.0,0.001897
1427.0,0.004437
1428.0,7.216e-05
1429.0,0.002674
1430.0,0.006404
