interpolation:linear
wavelength,value
280.0,4.0059999999999996e-22
280.5,6.754e-21
281.0,2.954e-20
281.5,5.855e-19
282.0,3.639e-18
282.5,1.188e-17
283.0,4.449e-17
283.5,7.678e-17
284.0,1.442e-15
284.5,4.324e-15
285.0,1.266e-14
285.5,8.629e-14
286.0,3.81e-13
286.5,1.975e-12
287.0,6.139e-12
287.5,2.561e-11
288.0,8.962e-11
288.5,3.417e-10
289.0,1.1e-09
289.5,3.94e-09
290.0,1.238e-08
290.5,2.786e-08
291.0,6.672e-08
291.5,2.185e-07
292.0,5.057e-07
292.5,7.47e-07
293.0,1.704e-06
293.5,4.502e-06
294.0,7.495e-06
294.5,1.471e-05
295.0,2.654e-05
295.5,5.681e-05
296.0,0.0001019
296.5,0.0001327
297.0,0.0001692
297.5,0.0004156
298.0,0.0006078
298.5,0.0005772
299.0,0.001203
299.5,0.001808
300.0,0.001883
300.5,0.002577
301.0,0.004255
301.5,0.006243
302.0,0.005121
302.5,0.009403
303.0,0.0156
303.5,0.01869
304.0,0.01699
304.5,0.0233
305.0,0.03145
305.5,0.03352
306.0,0.03155
306.5,0.03754
307.0,0.05046
307.5,0.06116
308.0,0.06363
308.5,0.07185
309.0,0.06811
309.5,0.07312
310.0,0.0713
310.5,0.1137
311.0,0.1393
311.5,0.1329
312.0,0.126
312.5,0.1479
313.0,0.1573
313.5,0.1554
314.0,0.1861
314.5,0.1558
315.0,0.2026
315.5,0.1742
316.0,0.1452
316.5,0.2003
317.0,0.2488
317.5,0.2618
318.0,0.1987
318.5,0.2342
319.0,0.2707
319.5,0.23
320.0,0.2795
320.5,0.3318
321.0,0.2818
321.5,0.2688
322.0,0.3012
322.5,0.2613
323.0,0.2517
323.5,0.2996
324.0,0.3477
324.5,0.3577
325.0,0.3145
325.5,0.3938
326.0,0.477
326.5,0.4692
327.0,0.4705
327.5,0.458
328.0,0.4174
328.5,0.4262
329.0,0.499
329.5,0.5624
330.0,0.5702
330.5,0.4641
331.0,0.4755
331.5,0.4769
332.0,0.5057
332.5,0.4959
333.0,0.4967
333.5,0.4556
334.0,0.4676
334.5,0.5312
335.0,0.4946
335.5,0.5774
336.0,0.3994
336.5,0.4696
337.0,0.3877
337.5,0.4831
338.0,0.4657
338.5,0.5372
339.0,0.5314
339.5,0.5109
340.0,0.6005
340.5,0.5405
341.0,0.5272
341.5,0.4838
342.0,0.5779
342.5,0.5404
343.0,0.5944
343.5,0.5597
344.0,0.4132
344.5,0.4175
345.0,0.5521
345.5,0.5633
346.0,0.4785
346.5,0.5415
347.0,0.5813
347.5,0.4699
348.0,0.5354
348.5,0.535
349.0,0.496
349.5,0.4909
350.0,0.607
350.5,0.6401
351.0,0.5718
351.5,0.5558
352.0,0.5966
352.5,0.4653
353.0,0.5858
353.5,0.6262
354.0,0.6499
354.5,0.659
355.0,0.6568
355.5,0.593
356.0,0.6203
356.5,0.5296
357.0,0.4375
357.5,0.5356
358.0,0.4243
358.5,0.3626
359.0,0.5071
359.5,0.6463
360.0,0.6849
360.5,0.5473
361.0,0.4988
361.5,0.5739
362.0,0.496
362.5,0.6861
363.0,0.616
363.5,0.5672
364.0,0.6934
364.5,0.5926
365.0,0.6034
365.5,0.7571
366.0,0.8019
366.5,0.7532
367.0,0.7334
367.5,0.7609
368.0,0.6657
368.5,0.6716
369.0,0.7251
369.5,0.7727
370.0,0.8236
370.5,0.639
371.0,0.6827
371.5,0.854
372.0,0.5667
372.5,0.6794
373.0,0.6909
373.5,0.4494
374.0,0.6529
374.5,0.5406
375.0,0.5254
375.5,0.7844
376.0,0.6501
376.5,0.6737
377.0,0.7131
377.5,0.8341
378.0,0.9042
378.5,0.8546
379.0,0.7052
379.5,0.6442
380.0,0.6697
380.5,0.811
381.0,0.8124
381.5,0.6438
382.0,0.5716
382.5,0.4871
383.0,0.4508
383.5,0.4341
384.0,0.4788
384.5,0.7042
385.0,0.6982
385.5,0.6501
386.0,0.5567
386.5,0.731
387.0,0.6074
387.5,0.6822
388.0,0.6298
388.5,0.6224
389.0,0.6718
389.5,0.8135
390.0,0.8163
390.5,0.7511
391.0,0.884
391.5,0.9016
392.0,0.7593
392.5,0.6797
393.0,0.3781
393.5,0.2748
394.0,0.5591
394.5,0.7107
395.0,0.8672
395.5,0.8809
396.0,0.7636
396.5,0.4463
397.0,0.3349
397.5,0.6809
398.0,0.9536
398.5,0.9856
399.0,1.067
399.5,1.063
400.0,1.104
401.0,1.123
402.0,1.184
403.0,1.125
404.0,1.107
405.0,1.107
406.0,1.088
407.0,1.07
408.0,1.112
409.0,1.19
410.0,1.039
411.0,1.125
412.0,1.208
413.0,1.178
414.0,1.192
415.0,1.195
416.0,1.215
417.0,1.185
418.0,1.163
419.0,1.178
420.0,1.172
421.0,1.226
422.0,1.165
423.0,1.138
424.0,1.203
425.0,1.2
426.0,1.169
427.0,1.147
428.0,1.117
429.0,1.057
430.0,0.9248
431.0,0.9167
432.0,1.183
433.0,1.189
434.0,1.104
435.0,1.153
436.0,1.299
437.0,1.28
438.0,1.165
439.0,1.206
440.0,1.244
441.0,1.288
442.0,1.382
443.0,1.346
444.0,1.375
445.0,1.345
446.0,1.283
447.0,1.386
448.0,1.408
449.0,1.412
450.0,1.451
451.0,1.505
452.0,1.449
453.0,1.363
454.0,1.422
455.0,1.431
456.0,1.464
457.0,1.489
458.0,1.438
459.0,1.431
460.0,1.435
461.0,1.467
462.0,1.478
463.0,1.468
464.0,1.443
465.0,1.423
466.0,1.436
467.0,1.411
468.0,1.427
469.0,1.434
470.0,1.389
471.0,1.387
472.0,1.461
473.0,1.442
474.0,1.445
475.0,1.458
476.0,1.416
477.0,1.42
478.0,1.459
479.0,1.45
480.0,1.452
481.0,1.478
482.0,1.485
483.0,1.466
484.0,1.435
485.0,1.367
486.0,1.194
487.0,1.251
488.0,1.372
489.0,1.377
490.0,1.448
491.0,1.423
492.0,1.343
493.0,1.387
494.0,1.401
495.0,1.413
496.0,1.421
497.0,1.443
498.0,1.376
499.0,1.394
500.0,1.354
501.0,1.329
502.0,1.312
503.0,1.367
504.0,1.336
505.0,1.38
506.0,1.425
507.0,1.356
508.0,1.312
509.0,1.348
510.0,1.34
511.0,1.375
512.0,1.39
513.0,1.315
514.0,1.306
515.0,1.293
516.0,1.29
517.0,1.146
518.0,1.205
519.0,1.264
520.0,1.31
521.0,1.322
522.0,1.324
523.0,1.3
524.0,1.347
525.0,1.364
526.0,1.303
527.0,1.229
528.0,1.3
529.0,1.371
530.0,1.352
531.0,1.372
532.0,1.325
533.0,1.286
534.0,1.324
535.0,1.352
536.0,1.364
537.0,1.31
538.0,1.333
539.0,1.322
540.0,1.268
541.0,1.277
542.0,1.318
543.0,1.303
544.0,1.326
545.0,1.322
546.0,1.329
547.0,1.327
548.0,1.311
549.0,1.315
550.0,1.33
551.0,1.314
552.0,1.323
553.0,1.3
554.0,1.331
555.0,1.334
556.0,1.317
557.0,1.276
558.0,1.267
559.0,1.244
560.0,1.26
561.0,1.276
562.0,1.268
563.0,1.303
564.0,1.268
565.0,1.258
566.0,1.24
567.0,1.264
568.0,1.255
569.0,1.229
570.0,1.228
571.0,1.219
572.0,1.251
573.0,1.265
574.0,1.261
575.0,1.239
576.0,1.227
577.0,1.24
578.0,1.221
579.0,1.224
580.0,1.245
581.0,1.249
582.0,1.271
583.0,1.273
584.0,1.283
585.0,1.251
586.0,1.225
587.0,1.253
588.0,1.227
589.0,1.097
590.0,1.146
591.0,1.207
592.0,1.195
593.0,1.209
594.0,1.202
595.0,1.175
596.0,1.215
597.0,1.203
598.0,1.198
599.0,1.198
600.0,1.198
601.0,1.187
602.0,1.178
603.0,1.197
604.0,1.217
605.0,1.21
606.0,1.204
607.0,1.215
608.0,1.201
609.0,1.203
610.0,1.193
611.0,1.199
612.0,1.195
613.0,1.18
614.0,1.163
615.0,1.188
616.0,1.148
617.0,1.145
618.0,1.189
619.0,1.177
620.0,1.184
621.0,1.186
622.0,1.173
623.0,1.156
624.0,1.135
625.0,1.133
626.0,1.15
627.0,1.164
628.0,1.106
629.0,1.143
630.0,1.117
631.0,1.136
632.0,1.121
633.0,1.153
634.0,1.14
635.0,1.156
636.0,1.14
637.0,1.158
638.0,1.167
639.0,1.153
640.0,1.141
641.0,1.14
642.0,1.134
643.0,1.149
644.0,1.145
645.0,1.147
646.0,1.123
647.0,1.114
648.0,1.116
649.0,1.095
650.0,1.094
651.0,1.14
652.0,1.1
653.0,1.124
654.0,1.111
655.0,1.073
656.0,0.9487
657.0,0.9739
658.0,1.089
659.0,1.096
660.0,1.1
661.0,1.108
662.0,1.112
663.0,1.089
664.0,1.1
665.0,1.1
666.0,1.1
667.0,1.098
668.0,1.098
669.0,1.114
670.0,1.109
671.0,1.109
672.0,1.099
673.0,1.115
674.0,1.111
675.0,1.1
676.0,1.108
677.0,1.096
678.0,1.099
679.0,1.081
680.0,1.09
681.0,1.083
682.0,1.081
683.0,1.079
684.0,1.074
685.0,1.083
686.0,1.076
687.0,0.7996
688.0,0.8955
689.0,0.8974
690.0,0.9277
691.0,0.9612
692.0,0.9842
693.0,0.9776
694.0,0.9698
695.0,0.9998
696.0,1.001
697.0,1.049
698.0,1.033
699.0,1.017
700.0,1.005
701.0,0.9973
702.0,1.001
703.0,1.003
704.0,1.03
705.0,1.031
706.0,1.029
707.0,1.029
708.0,1.031
709.0,1.029
710.0,1.031
711.0,1.028
712.0,1.024
713.0,1.015
714.0,1.019
715.0,0.9895
716.0,0.9909
717.0,0.8907
718.0,0.824
719.0,0.7585
720.0,0.7965
721.0,0.8594
722.0,0.9617
723.0,0.9067
724.0,0.8296
725.0,0.8208
726.0,0.8564
727.0,0.8616
728.0,0.82
729.0,0.8393
730.0,0.8873
731.0,0.8529
732.0,0.9003
733.0,0.9415
734.0,0.9608
735.0,0.9425
736.0,0.941
737.0,0.9452
738.0,0.9523
739.0,0.9338
740.0,0.9558
741.0,0.9449
742.0,0.9445
743.0,0.9681
744.0,0.9645
745.0,0.9641
746.0,0.9685
747.0,0.9704
748.0,0.9684
749.0,0.9572
750.0,0.9566
751.0,0.9469
752.0,0.9509
753.0,0.9556
754.0,0.9577
755.0,0.9524
756.0,0.9518
757.0,0.9532
758.0,0.9415
759.0,0.9267
760.0,0.2481
761.0,0.1542
762.0,0.5627
763.0,0.3389
764.0,0.4572
765.0,0.5631
766.0,0.6479
767.0,0.7759
768.0,0.8634
769.0,0.8745
770.0,0.8963
771.0,0.9001
772.0,0.9009
773.0,0.9069
774.0,0.9023
775.0,0.8953
776.0,0.9061
777.0,0.8941
778.0,0.8887
779.0,0.8894
780.0,0.8844
781.0,0.8853
782.0,0.8907
783.0,0.8751
784.0,0.8792
785.0,0.873
786.0,0.8828
787.0,0.8707
788.0,0.8614
789.0,0.8615
790.0,0.8435
791.0,0.8461
792.0,0.8393
793.0,0.8262
794.0,0.8353
795.0,0.8507
796.0,0.8311
797.0,0.8323
798.0,0.8503
799.0,0.8462
800.0,0.8331
801.0,0.8319
802.0,0.8294
803.0,0.8238
804.0,0.8242
805.0,0.8198
806.0,0.8397
807.0,0.8303
808.0,0.8307
809.0,0.8175
810.0,0.8125
811.0,0.8166
812.0,0.7978
813.0,0.7843
814.0,0.7059
815.0,0.7011
816.0,0.655
817.0,0.6649
818.0,0.6436
819.0,0.7055
820.0,0.67
821.0,0.7641
822.0,0.7454
823.0,0.5379
824.0,0.7301
825.0,0.7519
826.0,0.729
827.0,0.7632
828.0,0.6642
829.0,0.7234
830.0,0.7158
831.0,0.7176
832.0,0.6988
833.0,0.7344
834.0,0.7141
835.0,0.7724
836.0,0.7468
837.0,0.774
838.0,0.7532
839.0,0.7617
840.0,0.7775
841.0,0.7679
842.0,0.7674
843.0,0.7647
844.0,0.7553
845.0,0.7791
846.0,0.7753
847.0,0.7602
848.0,0.7565
849.0,0.735
850.0,0.704
851.0,0.7465
852.0,0.7408
853.0,0.7122
854.0,0.6156
855.0,0.6754
856.0,0.7385
857.0,0.7543
858.0,0.749
859.0,0.7492
860.0,0.7503
861.0,0.7463
862.0,0.7578
863.0,0.7757
864.0,0.7369
865.0,0.7304
866.0,0.6567
867.0,0.6853
868.0,0.7457
869.0,0.7302
870.0,0.751
871.0,0.7408
872.0,0.7381
873.0,0.7366
874.0,0.7278
875.0,0.7131
876.0,0.7206
877.0,0.7278
878.0,0.7359
879.0,0.7245
880.0,0.709
881.0,0.6988
882.0,0.7141
883.0,0.7159
884.0,0.7128
885.0,0.7182
886.0,0.6862
887.0,0.6922
888.0,0.7032
889.0,0.7097
890.0,0.7055
891.0,0.7034
892.0,0.6853
893.0,0.6668
894.0,0.6488
895.0,0.6199
896.0,0.5874
897.0,0.5143
898.0,0.5555
899.0,0.4347
900.0,0.5629
901.0,0.455
902.0,0.5181
903.0,0.5282
904.0,0.6439
905.0,0.6249
906.0,0.5873
907.0,0.4916
908.0,0.4994
909.0,0.5339
910.0,0.4846
911.0,0.5092
912.0,0.5292
913.0,0.4924
914.0,0.4861
915.0,0.5254
916.0,0.4489
917.0,0.5555
918.0,0.4605
919.0,0.5625
920.0,0.5622
921.0,0.583
922.0,0.5301
923.0,0.5628
924.0,0.5437
925.0,0.5322
926.0,0.5379
927.0,0.5937
928.0,0.46
929.0,0.4265
930.0,0.346
931.0,0.3259
932.0,0.2456
933.0,0.2059
934.0,0.1261
935.0,0.2055
936.0,0.1365
937.0,0.1396
938.0,0.1683
939.0,0.3158
940.0,0.3724
941.0,0.2914
942.0,0.3306
943.0,0.2257
944.0,0.2305
945.0,0.2987
946.0,0.1632
947.0,0.3028
948.0,0.2244
949.0,0.3941
950.0,0.1275
951.0,0.3861
952.0,0.2224
953.0,0.2775
954.0,0.3294
955.0,0.2794
956.0,0.2666
957.0,0.2243
958.0,0.3621
959.0,0.2991
960.0,0.3348
961.0,0.3672
962.0,0.3486
963.0,0.3943
964.0,0.3639
965.0,0.3919
966.0,0.3939
967.0,0.3929
968.0,0.5012
969.0,0.5251
970.0,0.486
971.0,0.5452
972.0,0.5236
973.0,0.4671
974.0,0.4451
975.0,0.4575
976.0,0.4402
977.0,0.4895
978.0,0.4698
979.0,0.4884
980.0,0.4616
981.0,0.5415
982.0,0.5217
983.0,0.5033
984.0,0.5536
985.0,0.5196
986.0,0.5607
987.0,0.5525
988.0,0.5515
989.0,0.5573
990.0,0.5479
991.0,0.5593
992.0,0.5623
993.0,0.5525
994.0,0.5618
995.0,0.5607
996.0,0.5587
997.0,0.5593
998.0,0.5568
999.0,0.5546
1000.0,0.5514
1001.0,0.5575
1002.0,0.5449
1003.0,0.5478
1004.0,0.5351
1005.0,0.5146
1006.0,0.5352
1007.0,0.5462
1008.0,0.5438
1009.0,0.5414
1010.0,0.5394
1011.0,0.5434
1012.0,0.5392
1013.0,0.5419
1014.0,0.5381
1015.0,0.5347
1016.0,0.5323
1017.0,0.5338
1018.0,0.5314
1019.0,0.5211
1020.0,0.5288
1021.0,0.5279
1022.0,0.5242
1023.0,0.5298
1024.0,0.5239
1025.0,0.5291
1026.0,0.5271
1027.0,0.5258
1028.0,0.5248
1029.0,0.5187
1030.0,0.5219
1031.0,0.5199
1032.0,0.5183
1033.0,0.5105
1034.0,0.5105
1035.0,0.5121
1036.0,0.5148
1037.0,0.5064
1038.0,0.5087
1039.0,0.5085
1040.0,0.5064
1041.0,0.5086
1042.0,0.505
1043.0,0.5035
1044.0,0.5053
1045.0,0.4985
1046.0,0.4931
1047.0,0.4976
1048.0,0.5004
1049.0,0.4987
1050.0,0.4964
1051.0,0.4959
1052.0,0.4939
1053.0,0.4901
1054.0,0.4913
1055.0,0.4918
1056.0,0.4902
1057.0,0.4888
1058.0,0.4769
1059.0,0.4776
1060.0,0.477
1061.0,0.4765
1062.0,0.4791
1063.0,0.4745
1064.0,0.4801
1065.0,0.477
1066.0,0.4673
1067.0,0.4735
1068.0,0.4634
1069.0,0.4489
1070.0,0.4644
1071.0,0.4707
1072.0,0.466
1073.0,0.4591
1074.0,0.4699
1075.0,0.4493
1076.0,0.4697
1077.0,0.4629
1078.0,0.4548
1079.0,0.4617
1080.0,0.4558
1081.0,0.4425
1082.0,0.4472
1083.0,0.448
1084.0,0.4423
1085.0,0.4566
1086.0,0.4213
1087.0,0.4313
1088.0,0.4481
1089.0,0.437
1090.0,0.4294
1091.0,0.4474
1092.0,0.4456
1093.0,0.3863
1094.0,0.4087
1095.0,0.4011
1096.0,0.3867
1097.0,0.4351
1098.0,0.3815
1099.0,0.3966
1100.0,0.3726
1101.0,0.3761
1102.0,0.3615
1103.0,0.3597
1104.0,0.36
1105.0,0.3883
1106.0,0.3118
1107.0,0.3717
1108.0,0.324
1109.0,0.3229
1110.0,0.3695
1111.0,0.2628
1112.0,0.3197
1113.0,0.2164
1114.0,0.2402
1115.0,0.1995
1116.0,0.1674
1117.0,0.07091
1118.0,0.1789
1119.0,0.09609
1120.0,0.1211
1121.0,0.156
1122.0,0.07205
1123.0,0.1092
1124.0,0.09223
1125.0,0.1186
1126.0,0.04776
1127.0,0.1332
1128.0,0.08659
1129.0,0.09073
1130.0,0.06298
1131.0,0.2365
1132.0,0.1886
1133.0,0.128
1134.0,0.03832
1135.0,0.01412
1136.0,0.1098
1137.0,0.2347
1138.0,0.1674
1139.0,0.234
1140.0,0.2015
1141.0,0.159
1142.0,0.1795
1143.0,0.2485
1144.0,0.09501
1145.0,0.1232
1146.0,0.1329
1147.0,0.05364
1148.0,0.2152
1149.0,0.1768
1150.0,0.1019
1151.0,0.1662
1152.0,0.1988
1153.0,0.1895
1154.0,0.121
1155.0,0.2443
1156.0,0.223
1157.0,0.2459
1158.0,0.243
1159.0,0.258
1160.0,0.2255
1161.0,0.2688
1162.0,0.2708
1163.0,0.3506
1164.0,0.3063
1165.0,0.2941
1166.0,0.2886
1167.0,0.3115
1168.0,0.3159
1169.0,0.3215
1170.0,0.345
1171.0,0.3371
1172.0,0.3407
1173.0,0.3443
1174.0,0.2582
1175.0,0.3345
1176.0,0.3619
1177.0,0.3511
1178.0,0.2731
1179.0,0.3646
1180.0,0.3319
1181.0,0.3418
1182.0,0.2461
1183.0,0.3351
1184.0,0.3174
1185.0,0.3092
1186.0,0.3568
1187.0,0.3429
1188.0,0.251
1189.0,0.3201
1190.0,0.3487
1191.0,0.3361
1192.0,0.353
1193.0,0.3401
1194.0,0.3492
1195.0,0.3339
1196.0,0.3239
1197.0,0.3474
1198.0,0.3207
1199.0,0.2811
1200.0,0.3361
1201.0,0.327
1202.0,0.3235
1203.0,0.3208
1204.0,0.2853
1205.0,0.3285
1206.0,0.3582
1207.0,0.3234
1208.0,0.3159
1209.0,0.3217
1210.0,0.3333
1211.0,0.3206
1212.0,0.3202
1213.0,0.3482
1214.0,0.3261
1215.0,0.3208
1216.0,0.3469
1217.0,0.3394
1218.0,0.3443
1219.0,0.3408
1220.0,0.3444
1221.0,0.347
1222.0,0.3389
1223.0,0.3364
1224.0,0.3355
1225.0,0.3448
1226.0,0.3461
1227.0,0.3234
1228.0,0.347
1229.0,0.3461
1230.0,0.341
1231.0,0.3481
1232.0,0.3461
1233.0,0.3375
1234.0,0.3472
1235.0,0.3454
1236.0,0.3476
1237.0,0.344
1238.0,0.3464
1239.0,0.342
1240.0,0.3431
1241.0,0.3423
1242.0,0.3408
1243.0,0.338
1244.0,0.3407
1245.0,0.342
1246.0,0.3399
1247.0,0.3388
1248.0,0.339
1249.0,0.3397
1250.0,0.3379
1251.0,0.334
1252.0,0.3335
1253.0,0.3319
1254.0,0.3294
1255.0,0.3334
1256.0,0.3261
1257.0,0.3248
1258.0,0.3292
1259.0,0.3205
1260.0,0.3217
1261.0,0.3077
1262.0,0.3007
1263.0,0.3014
1264.0,0.2832
1265.0,0.2993
1266.0,0.291
1267.0,0.2941
1268.0,0.2822
1269.0,0.1982
1270.0,0.2938
1271.0,0.3062
1272.0,0.3067
1273.0,0.3039
1274.0,0.3043
1275.0,0.308
1276.0,0.3101
1277.0,0.3113
1278.0,0.3156
1279.0,0.3129
1280.0,0.3088
1281.0,0.2939
1282.0,0.282
1283.0,0.3039
1284.0,0.3115
1285.0,0.3133
1286.0,0.3169
1287.0,0.3133
1288.0,0.3128
1289.0,0.3054
1290.0,0.3099
1291.0,0.3138
1292.0,0.2995
1293.0,0.3089
1294.0,0.3069
1295.0,0.3066
1296.0,0.2958
1297.0,0.2823
1298.0,0.299
1299.0,0.3088
1300.0,0.27
1301.0,0.2765
1302.0,0.2978
1303.0,0.2655
1304.0,0.2346
1305.0,0.2924
1306.0,0.2929
1307.0,0.2368
1308.0,0.2646
1309.0,0.2912
1310.0,0.2326
1311.0,0.2555
1312.0,0.2499
1313.0,0.2463
1314.0,0.2234
1315.0,0.2223
1316.0,0.2528
1317.0,0.2404
1318.0,0.2579
1319.0,0.2114
1320.0,0.2027
1321.0,0.2327
1322.0,0.2364
1323.0,0.186
1324.0,0.2072
1325.0,0.2496
1326.0,0.2194
1327.0,0.2106
1328.0,0.1842
1329.0,0.1452
1330.0,0.1855
1331.0,0.1206
1332.0,0.1215
1333.0,0.1668
1334.0,0.1379
1335.0,0.1852
1336.0,0.1507
1337.0,0.136
1338.0,0.1467
1339.0,0.145
1340.0,0.1389
1341.0,0.1405
1342.0,0.1472
1343.0,0.1105
1344.0,0.06599
1345.0,0.09376
1346.0,0.05423
1347.0,0.05641
1348.0,0.005418
1349.0,0.01727
1350.0,0.0165
1351.0,0.005671
1352.0,0.002165
1353.0,0.0001698
1354.0,0.0004516
1355.0,8.414e-06
1356.0,8.619e-05
1357.0,0.0001292
1358.0,9.638e-06
1359.0,2.221e-06
1360.0,5.472e-06
1361.0,2.297e-08
1362.0,1.163e-10
1363.0,8.455e-06
1364.0,3.796e-06
1365.0,8.056e-11
1366.0,3.128e-05
1367.0,1.207e-05
1368.0,2.466e-12
1369.0,1.49e-06
1370.0,9.448e-07
1371.0,7.58e-08
1372.0,6.7e-06
1373.0,8.734e-05
1374.0,0.0003041
1375.0,0.0005436
1376.0,0.000401
1377.0,0.0001974
1378.0,0.001641
1379.0,8.48e-05
1380.0,0.0001431
1381.0,4.627e-06
1382.0,6.476e-06
1383.0,1.29e-07
1384.0,1.85e-06
1385.0,4.672e-06
1386.0,6.825e-06
1387.0,0.000363
1388.0,7.835e-06
1389.0,0.0009169
1390.0,0.0007834
1391.0,0.0005653
1392.0,4.211e-05
1393.0,0.0001886
1394.0,0.0001502
1395.0,1.633e-06
1396.0,2.792e-08
1397.0,8.479e-05
1398.0,0.001881
1399.0,0.001198
1400.0,1.679e-08
1401.0,4.43e-08
1402.0,0.002316
1403.0,0.003099
1404.0,0.0009751
1405.0,9.904e-07
1406.0,0.002811
1407.0,0.0002406
1408.0,0.002265
1409.0,0.000938
1410.0,0.0006769
1411.0,0.002696
1412.0,0.003293
1413.0,0.0245
1414.0,0.0005228
1415.0,0.0002792
1416.0,0.03428
1417.0,0.01261
1418.0,0.01441
1419.0,0.002361
1420.0,0.008922
1421.0,0.00986
1422.0,0.04401
1423.0,0.00918
1424.0,0.01666
1425.0,0.02517
1426.0,0.02668
1427.0,0.0446
1428.0,0.005229
1429.0,0.03525
1430.0,0.05544
1431.0,0.05973
1432.0,0.004188
1433.0,0.03969
1434.0,0.02105
1435.0,0.02396
1436.0,0.04151
1437.0,0.03189
1438.0,0.0148
1439.0,0.05435
1440.0,0.04103
1441.0,0.03345
1442.0,0.03654
1443.0,0.04258
1444.0,0.05768
1445.0,0.04771
1446.0,0.02227
1447.0,0.03509
1448.0,0.09963
1449.0,0.08913
1450.0,0.02596
1451.0,0.01114
1452.0,0.05611
1453.0,0.07209
1454.0,0.1149
1455.0,0.0575
1456.0,0.07866
1457.0,0.1002
1458.0,0.1131
1459.0,0.1344
1460.0,0.07279
1461.0,0.07815
