interpolation:linear
wavelength,value
280.0,1.205e-19
280.5,8.813e-20
281.0,6.366e-20
281.5,5.074e-19
282.0,2.548e-18
282.5,7.544e-18
283.0,2.588e-17
283.5,4.318e-17
284.0,6.968e-16
284.5,1.981e-15
285.0,4.999e-15
285.5,3.301e-14
286.0,1.448e-13
286.5,7.351e-13
287.0,2.262e-12
287.5,9.328e-12
288.0,2.907e-11
288.5,1.16e-10
289.0,3.92e-10
289.5,1.483e-09
290.0,4.885e-09
290.5,1.145e-08
291.0,2.881e-08
291.5,1.002e-07
292.0,2.495e-07
292.5,3.865e-07
293.0,9.383e-07
293.5,2.707e-06
294.0,4.829e-06
294.5,6.158e-06
295.0,1.166e-05
295.5,2.665e-05
296.0,4.942e-05
296.5,6.642e-05
297.0,8.696e-05
297.5,0.0002217
298.0,0.0003345
298.5,0.0003253
299.0,0.0006935
299.5,0.001083
300.0,0.001152
300.5,0.001611
301.0,0.002752
301.5,0.004158
302.0,0.003462
302.5,0.006453
303.0,0.01091
303.5,0.01321
304.0,0.01209
304.5,0.01685
305.0,0.02324
305.5,0.0251
306.0,0.02375
306.5,0.02848
307.0,0.03896
307.5,0.04799
308.0,0.05006
308.5,0.05696
309.0,0.05453
309.5,0.05922
310.0,0.05806
310.5,0.09289
311.0,0.1142
311.5,0.1093
312.0,0.1045
312.5,0.1235
313.0,0.1319
313.5,0.1299
314.0,0.1567
314.5,0.1326
315.0,0.1727
315.5,0.1478
316.0,0.1242
316.5,0.1725
317.0,0.2143
317.5,0.225
318.0,0.1716
318.5,0.2041
319.0,0.237
319.5,0.1999
320.0,0.2428
320.5,0.2908
321.0,0.2489
321.5,0.2377
322.0,0.2641
322.5,0.2292
323.0,0.2221
323.5,0.2657
324.0,0.3087
324.5,0.3169
325.0,0.2779
325.5,0.3494
326.0,0.4241
326.5,0.4184
327.0,0.4191
327.5,0.4075
328.0,0.37
328.5,0.3797
329.0,0.4461
329.5,0.5034
330.0,0.51
330.5,0.414
331.0,0.4238
331.5,0.426
332.0,0.4531
332.5,0.445
333.0,0.4454
333.5,0.4077
334.0,0.4184
334.5,0.4764
335.0,0.4443
335.5,0.5188
336.0,0.3589
336.5,0.4217
337.0,0.3478
337.5,0.4334
338.0,0.4186
338.5,0.4829
339.0,0.4777
339.5,0.4595
340.0,0.54
340.5,0.4862
341.0,0.4743
341.5,0.4352
342.0,0.52
342.5,0.4863
343.0,0.5349
343.5,0.5037
344.0,0.372
344.5,0.3759
345.0,0.4971
345.5,0.5072
346.0,0.4309
346.5,0.4878
347.0,0.5237
347.5,0.4234
348.0,0.4824
348.5,0.4821
349.0,0.447
349.5,0.4425
350.0,0.5472
350.5,0.5771
351.0,0.5156
351.5,0.5012
352.0,0.538
352.5,0.4197
353.0,0.5285
353.5,0.5649
354.0,0.5864
354.5,0.5946
355.0,0.5926
355.5,0.5352
356.0,0.5599
356.5,0.478
357.0,0.395
357.5,0.4835
358.0,0.3831
358.5,0.3274
359.0,0.4579
359.5,0.5836
360.0,0.6185
360.5,0.4943
361.0,0.4505
361.5,0.5185
362.0,0.4482
362.5,0.6201
363.0,0.5568
363.5,0.5127
364.0,0.6269
364.5,0.5358
365.0,0.5456
365.5,0.6847
366.0,0.7253
366.5,0.6813
367.0,0.6635
367.5,0.6884
368.0,0.6024
368.5,0.6078
369.0,0.6563
369.5,0.6994
370.0,0.7455
370.5,0.5785
371.0,0.6181
371.5,0.7732
372.0,0.5131
372.5,0.6152
373.0,0.6257
373.5,0.4071
374.0,0.5914
374.5,0.4897
375.0,0.476
375.5,0.7107
376.0,0.5891
376.5,0.6105
377.0,0.6462
377.5,0.756
378.0,0.8195
378.5,0.7746
379.0,0.6392
379.5,0.5839
380.0,0.6071
380.5,0.7352
381.0,0.7366
381.5,0.5838
382.0,0.5184
382.5,0.4418
383.0,0.409
383.5,0.3939
384.0,0.4344
384.5,0.6389
385.0,0.6335
385.5,0.5899
386.0,0.5052
386.5,0.6636
387.0,0.5514
387.5,0.6193
388.0,0.5717
388.5,0.5651
389.0,0.61
389.5,0.7387
390.0,0.7413
390.5,0.6822
391.0,0.8029
391.5,0.8189
392.0,0.6897
392.5,0.6174
393.0,0.3435
393.5,0.2497
394.0,0.508
394.5,0.6459
395.0,0.7881
395.5,0.8006
396.0,0.694
396.5,0.4057
397.0,0.3044
397.5,0.619
398.0,0.8669
398.5,0.8961
399.0,0.9701
399.5,0.9668
400.0,1.004
401.0,1.021
402.0,1.077
403.0,1.022
404.0,1.007
405.0,1.006
406.0,0.9897
407.0,0.9734
408.0,1.011
409.0,1.082
410.0,0.9456
411.0,1.024
412.0,1.099
413.0,1.072
414.0,1.085
415.0,1.088
416.0,1.106
417.0,1.079
418.0,1.059
419.0,1.073
420.0,1.068
421.0,1.117
422.0,1.061
423.0,1.037
424.0,1.096
425.0,1.094
426.0,1.065
427.0,1.045
428.0,1.018
429.0,0.9639
430.0,0.8434
431.0,0.8361
432.0,1.079
433.0,1.085
434.0,1.007
435.0,1.052
436.0,1.185
437.0,1.168
438.0,1.064
439.0,1.101
440.0,1.135
441.0,1.176
442.0,1.261
443.0,1.229
444.0,1.255
445.0,1.228
446.0,1.171
447.0,1.266
448.0,1.286
449.0,1.29
450.0,1.326
451.0,1.375
452.0,1.324
453.0,1.245
454.0,1.299
455.0,1.307
456.0,1.338
457.0,1.36
458.0,1.314
459.0,1.307
460.0,1.311
461.0,1.341
462.0,1.351
463.0,1.342
464.0,1.319
465.0,1.301
466.0,1.314
467.0,1.29
468.0,1.305
469.0,1.312
470.0,1.27
471.0,1.268
472.0,1.336
473.0,1.319
474.0,1.321
475.0,1.333
476.0,1.294
477.0,1.298
478.0,1.334
479.0,1.325
480.0,1.327
481.0,1.352
482.0,1.358
483.0,1.341
484.0,1.313
485.0,1.25
486.0,1.093
487.0,1.145
488.0,1.256
489.0,1.26
490.0,1.325
491.0,1.302
492.0,1.229
493.0,1.27
494.0,1.282
495.0,1.293
496.0,1.301
497.0,1.321
498.0,1.259
499.0,1.276
500.0,1.239
501.0,1.217
502.0,1.2
503.0,1.25
504.0,1.221
505.0,1.263
506.0,1.303
507.0,1.24
508.0,1.201
509.0,1.234
510.0,1.227
511.0,1.259
512.0,1.272
513.0,1.204
514.0,1.196
515.0,1.184
516.0,1.181
517.0,1.049
518.0,1.103
519.0,1.157
520.0,1.199
521.0,1.211
522.0,1.212
523.0,1.19
524.0,1.233
525.0,1.248
526.0,1.193
527.0,1.124
528.0,1.19
529.0,1.254
530.0,1.237
531.0,1.255
532.0,1.212
533.0,1.177
534.0,1.211
535.0,1.237
536.0,1.248
537.0,1.199
538.0,1.22
539.0,1.21
540.0,1.16
541.0,1.168
542.0,1.205
543.0,1.192
544.0,1.213
545.0,1.209
546.0,1.215
547.0,1.214
548.0,1.199
549.0,1.203
550.0,1.217
551.0,1.202
552.0,1.211
553.0,1.189
554.0,1.217
555.0,1.22
556.0,1.204
557.0,1.167
558.0,1.159
559.0,1.138
560.0,1.152
561.0,1.167
562.0,1.159
563.0,1.192
564.0,1.159
565.0,1.15
566.0,1.133
567.0,1.155
568.0,1.146
569.0,1.122
570.0,1.121
571.0,1.114
572.0,1.142
573.0,1.155
574.0,1.151
575.0,1.13
576.0,1.12
577.0,1.132
578.0,1.114
579.0,1.117
580.0,1.137
581.0,1.141
582.0,1.162
583.0,1.164
584.0,1.173
585.0,1.144
586.0,1.12
587.0,1.146
588.0,1.121
589.0,0.9998
590.0,1.045
591.0,1.102
592.0,1.09
593.0,1.104
594.0,1.097
595.0,1.072
596.0,1.109
597.0,1.099
598.0,1.094
599.0,1.094
600.0,1.095
601.0,1.085
602.0,1.077
603.0,1.095
604.0,1.113
605.0,1.106
606.0,1.101
607.0,1.112
608.0,1.099
609.0,1.1
610.0,1.092
611.0,1.097
612.0,1.094
613.0,1.08
614.0,1.065
615.0,1.087
616.0,1.051
617.0,1.049
618.0,1.089
619.0,1.078
620.0,1.085
621.0,1.086
622.0,1.074
623.0,1.058
624.0,1.039
625.0,1.037
626.0,1.052
627.0,1.065
628.0,1.009
629.0,1.045
630.0,1.021
631.0,1.04
632.0,1.026
633.0,1.056
634.0,1.044
635.0,1.06
636.0,1.045
637.0,1.061
638.0,1.07
639.0,1.058
640.0,1.047
641.0,1.046
642.0,1.041
643.0,1.054
644.0,1.051
645.0,1.053
646.0,1.03
647.0,1.021
648.0,1.022
649.0,1.003
650.0,1.003
651.0,1.045
652.0,1.007
653.0,1.031
654.0,1.02
655.0,0.9842
656.0,0.8704
657.0,0.8936
658.0,1.0
659.0,1.007
660.0,1.01
661.0,1.017
662.0,1.02
663.0,0.9999
664.0,1.01
665.0,1.01
666.0,1.011
667.0,1.009
668.0,1.009
669.0,1.024
670.0,1.02
671.0,1.019
672.0,1.01
673.0,1.025
674.0,1.021
675.0,1.012
676.0,1.018
677.0,1.008
678.0,1.011
679.0,0.9944
680.0,1.002
681.0,0.9956
682.0,0.9943
683.0,0.9924
684.0,0.9875
685.0,0.9957
686.0,0.99
687.0,0.7171
688.0,0.8114
689.0,0.8133
690.0,0.8435
691.0,0.877
692.0,0.9005
693.0,0.8941
694.0,0.8868
695.0,0.9163
696.0,0.9176
697.0,0.9646
698.0,0.9498
699.0,0.933
700.0,0.9219
701.0,0.9143
702.0,0.9185
703.0,0.9201
704.0,0.946
705.0,0.9474
706.0,0.9452
707.0,0.9454
708.0,0.9475
709.0,0.9467
710.0,0.9477
711.0,0.9457
712.0,0.9419
713.0,0.9333
714.0,0.9366
715.0,0.9093
716.0,0.9104
717.0,0.8116
718.0,0.7494
719.0,0.6889
720.0,0.7231
721.0,0.7845
722.0,0.8825
723.0,0.8294
724.0,0.7561
725.0,0.7471
726.0,0.7803
727.0,0.7864
728.0,0.7462
729.0,0.7661
730.0,0.8104
731.0,0.7779
732.0,0.8238
733.0,0.8639
734.0,0.8823
735.0,0.8651
736.0,0.8639
737.0,0.8676
738.0,0.8757
739.0,0.8586
740.0,0.8793
741.0,0.8696
742.0,0.8695
743.0,0.8913
744.0,0.8882
745.0,0.8879
746.0,0.892
747.0,0.8938
748.0,0.8919
749.0,0.8817
750.0,0.8811
751.0,0.8722
752.0,0.8758
753.0,0.8802
754.0,0.8822
755.0,0.8772
756.0,0.8768
757.0,0.8781
758.0,0.8673
759.0,0.8527
760.0,0.2048
761.0,0.1224
762.0,0.4978
763.0,0.2871
764.0,0.3972
765.0,0.4981
766.0,0.5818
767.0,0.7052
768.0,0.7913
769.0,0.803
770.0,0.8247
771.0,0.8289
772.0,0.8299
773.0,0.8355
774.0,0.8313
775.0,0.8248
776.0,0.8348
777.0,0.8238
778.0,0.8188
779.0,0.8195
780.0,0.8149
781.0,0.8157
782.0,0.8207
783.0,0.8063
784.0,0.8101
785.0,0.8043
786.0,0.8134
787.0,0.8015
788.0,0.7926
789.0,0.7926
790.0,0.7749
791.0,0.7784
792.0,0.7722
793.0,0.7601
794.0,0.7695
795.0,0.7834
796.0,0.764
797.0,0.7651
798.0,0.783
799.0,0.7789
800.0,0.7665
801.0,0.7651
802.0,0.7628
803.0,0.7575
804.0,0.7581
805.0,0.7544
806.0,0.7734
807.0,0.7646
808.0,0.765
809.0,0.7523
810.0,0.7473
811.0,0.7505
812.0,0.7322
813.0,0.719
814.0,0.6436
815.0,0.6393
816.0,0.5966
817.0,0.6061
818.0,0.586
819.0,0.6454
820.0,0.6116
821.0,0.7018
822.0,0.684
823.0,0.4863
824.0,0.6685
825.0,0.6903
826.0,0.668
827.0,0.7008
828.0,0.606
829.0,0.6632
830.0,0.6558
831.0,0.6576
832.0,0.6396
833.0,0.6743
834.0,0.6544
835.0,0.7105
836.0,0.6853
837.0,0.7122
838.0,0.6923
839.0,0.7009
840.0,0.7157
841.0,0.7065
842.0,0.7065
843.0,0.7046
844.0,0.6956
845.0,0.7179
846.0,0.7145
847.0,0.7007
848.0,0.6971
849.0,0.6773
850.0,0.6488
851.0,0.6877
852.0,0.6825
853.0,0.6564
854.0,0.5672
855.0,0.6225
856.0,0.6806
857.0,0.6953
858.0,0.6904
859.0,0.6907
860.0,0.6917
861.0,0.688
862.0,0.6987
863.0,0.7152
864.0,0.6794
865.0,0.6734
866.0,0.6055
867.0,0.6318
868.0,0.6875
869.0,0.6732
870.0,0.6924
871.0,0.683
872.0,0.6806
873.0,0.6792
874.0,0.6711
875.0,0.6575
876.0,0.6644
877.0,0.6711
878.0,0.6785
879.0,0.668
880.0,0.6537
881.0,0.6442
882.0,0.6582
883.0,0.66
884.0,0.6571
885.0,0.6621
886.0,0.6321
887.0,0.638
888.0,0.6479
889.0,0.6543
890.0,0.65
891.0,0.6483
892.0,0.6311
893.0,0.6133
894.0,0.5954
895.0,0.5673
896.0,0.5365
897.0,0.4673
898.0,0.5062
899.0,0.393
900.0,0.5144
901.0,0.4116
902.0,0.4725
903.0,0.4806
904.0,0.5909
905.0,0.5726
906.0,0.5376
907.0,0.4463
908.0,0.4539
909.0,0.487
910.0,0.4389
911.0,0.4629
912.0,0.482
913.0,0.4458
914.0,0.4406
915.0,0.4768
916.0,0.4061
917.0,0.5063
918.0,0.4166
919.0,0.5134
920.0,0.5145
921.0,0.5341
922.0,0.4833
923.0,0.5156
924.0,0.4957
925.0,0.4851
926.0,0.4904
927.0,0.5434
928.0,0.4146
929.0,0.3828
930.0,0.3077
931.0,0.2904
932.0,0.2161
933.0,0.1795
934.0,0.1066
935.0,0.1805
936.0,0.1177
937.0,0.1201
938.0,0.1456
939.0,0.2814
940.0,0.3337
941.0,0.2584
942.0,0.295
943.0,0.1992
944.0,0.2051
945.0,0.2653
946.0,0.142
947.0,0.2682
948.0,0.1982
949.0,0.3521
950.0,0.1088
951.0,0.3455
952.0,0.1949
953.0,0.2456
954.0,0.2945
955.0,0.2477
956.0,0.2373
957.0,0.1961
958.0,0.3267
959.0,0.2667
960.0,0.2987
961.0,0.3298
962.0,0.3128
963.0,0.3558
964.0,0.3276
965.0,0.3539
966.0,0.3552
967.0,0.3541
968.0,0.4584
969.0,0.48
970.0,0.4431
971.0,0.5001
972.0,0.4798
973.0,0.4249
974.0,0.4043
975.0,0.4168
976.0,0.3996
977.0,0.4473
978.0,0.428
979.0,0.446
980.0,0.4208
981.0,0.4969
982.0,0.4777
983.0,0.4601
984.0,0.5091
985.0,0.4758
986.0,0.5164
987.0,0.5081
988.0,0.5072
989.0,0.5138
990.0,0.504
991.0,0.5155
992.0,0.5183
993.0,0.5086
994.0,0.5179
995.0,0.517
996.0,0.515
997.0,0.5156
998.0,0.5133
999.0,0.5114
1000.0,0.5082
1001.0,0.5141
1002.0,0.5017
1003.0,0.5051
1004.0,0.4932
1005.0,0.4745
1006.0,0.4933
1007.0,0.5036
1008.0,0.5012
1009.0,0.4989
1010.0,0.4969
1011.0,0.501
1012.0,0.497
1013.0,0.4997
1014.0,0.4962
1015.0,0.493
1016.0,0.4908
1017.0,0.4921
1018.0,0.49
1019.0,0.4802
1020.0,0.4876
1021.0,0.4868
1022.0,0.4832
1023.0,0.4884
1024.0,0.4827
1025.0,0.4878
1026.0,0.4859
1027.0,0.4848
1028.0,0.4838
1029.0,0.4782
1030.0,0.4812
1031.0,0.4794
1032.0,0.4779
1033.0,0.4707
1034.0,0.4707
1035.0,0.4722
1036.0,0.4747
1037.0,0.4669
1038.0,0.469
1039.0,0.4688
1040.0,0.4669
1041.0,0.4688
1042.0,0.4656
1043.0,0.4641
1044.0,0.4658
1045.0,0.4595
1046.0,0.4545
1047.0,0.4586
1048.0,0.4612
1049.0,0.4596
1050.0,0.4575
1051.0,0.457
1052.0,0.4552
1053.0,0.4516
1054.0,0.4527
1055.0,0.453
1056.0,0.4516
1057.0,0.4502
1058.0,0.4393
1059.0,0.4398
1060.0,0.4392
1061.0,0.4388
1062.0,0.4412
1063.0,0.4369
1064.0,0.442
1065.0,0.4391
1066.0,0.4302
1067.0,0.4359
1068.0,0.4265
1069.0,0.4132
1070.0,0.4274
1071.0,0.4335
1072.0,0.4289
1073.0,0.4226
1074.0,0.4329
1075.0,0.4131
1076.0,0.4326
1077.0,0.426
1078.0,0.4183
1079.0,0.4254
1080.0,0.4194
1081.0,0.4068
1082.0,0.4118
1083.0,0.4127
1084.0,0.4063
1085.0,0.4202
1086.0,0.3864
1087.0,0.3966
1088.0,0.4126
1089.0,0.4017
1090.0,0.3941
1091.0,0.4117
1092.0,0.4103
1093.0,0.3533
1094.0,0.376
1095.0,0.3673
1096.0,0.3533
1097.0,0.4007
1098.0,0.3483
1099.0,0.3625
1100.0,0.3395
1101.0,0.343
1102.0,0.329
1103.0,0.3269
1104.0,0.3272
1105.0,0.3547
1106.0,0.2807
1107.0,0.3387
1108.0,0.2928
1109.0,0.2922
1110.0,0.3365
1111.0,0.2359
1112.0,0.2895
1113.0,0.1923
1114.0,0.214
1115.0,0.1776
1116.0,0.1468
1117.0,0.05952
1118.0,0.1578
1119.0,0.0827
1120.0,0.1042
1121.0,0.1356
1122.0,0.06088
1123.0,0.09404
1124.0,0.07943
1125.0,0.1026
1126.0,0.03955
1127.0,0.1154
1128.0,0.07314
1129.0,0.07696
1130.0,0.05247
1131.0,0.2091
1132.0,0.1659
1133.0,0.1103
1134.0,0.03142
1135.0,0.01162
1136.0,0.09382
1137.0,0.2069
1138.0,0.1469
1139.0,0.2095
1140.0,0.1787
1141.0,0.1396
1142.0,0.1585
1143.0,0.2212
1144.0,0.08219
1145.0,0.1062
1146.0,0.1146
1147.0,0.04435
1148.0,0.1915
1149.0,0.1559
1150.0,0.08812
1151.0,0.1459
1152.0,0.176
1153.0,0.1689
1154.0,0.1038
1155.0,0.2187
1156.0,0.1988
1157.0,0.2203
1158.0,0.2178
1159.0,0.2324
1160.0,0.2016
1161.0,0.2427
1162.0,0.2443
1163.0,0.3204
1164.0,0.2784
1165.0,0.2659
1166.0,0.2618
1167.0,0.2833
1168.0,0.2871
1169.0,0.2927
1170.0,0.3152
1171.0,0.3078
1172.0,0.3117
1173.0,0.3146
1174.0,0.2326
1175.0,0.306
1176.0,0.3326
1177.0,0.3218
1178.0,0.2478
1179.0,0.3351
1180.0,0.3034
1181.0,0.3127
1182.0,0.2224
1183.0,0.3069
1184.0,0.2899
1185.0,0.2816
1186.0,0.3274
1187.0,0.3138
1188.0,0.2268
1189.0,0.2928
1190.0,0.3199
1191.0,0.3072
1192.0,0.324
1193.0,0.3117
1194.0,0.3204
1195.0,0.3055
1196.0,0.2958
1197.0,0.3192
1198.0,0.294
1199.0,0.2556
1200.0,0.308
1201.0,0.2989
1202.0,0.2961
1203.0,0.2937
1204.0,0.26
1205.0,0.3013
1206.0,0.3297
1207.0,0.2959
1208.0,0.2896
1209.0,0.2951
1210.0,0.3061
1211.0,0.2937
1212.0,0.2926
1213.0,0.3201
1214.0,0.2984
1215.0,0.2933
1216.0,0.3189
1217.0,0.3116
1218.0,0.3165
1219.0,0.3131
1220.0,0.3166
1221.0,0.3192
1222.0,0.3115
1223.0,0.3091
1224.0,0.308
1225.0,0.3172
1226.0,0.3186
1227.0,0.2967
1228.0,0.3196
1229.0,0.3186
1230.0,0.3137
1231.0,0.3209
1232.0,0.319
1233.0,0.3103
1234.0,0.3201
1235.0,0.3184
1236.0,0.3205
1237.0,0.3169
1238.0,0.3194
1239.0,0.3153
1240.0,0.3164
1241.0,0.3155
1242.0,0.3143
1243.0,0.3117
1244.0,0.3141
1245.0,0.3153
1246.0,0.3135
1247.0,0.3124
1248.0,0.3125
1249.0,0.3132
1250.0,0.3115
1251.0,0.3078
1252.0,0.3074
1253.0,0.3057
1254.0,0.3033
1255.0,0.3073
1256.0,0.3001
1257.0,0.2988
1258.0,0.3032
1259.0,0.2945
1260.0,0.2957
1261.0,0.2819
1262.0,0.275
1263.0,0.2756
1264.0,0.2579
1265.0,0.2737
1266.0,0.2655
1267.0,0.2687
1268.0,0.2571
1269.0,0.1752
1270.0,0.2683
1271.0,0.2806
1272.0,0.2812
1273.0,0.2786
1274.0,0.279
1275.0,0.2825
1276.0,0.2847
1277.0,0.286
1278.0,0.2903
1279.0,0.2878
1280.0,0.2841
1281.0,0.2706
1282.0,0.2598
1283.0,0.28
1284.0,0.2869
1285.0,0.2886
1286.0,0.292
1287.0,0.2884
1288.0,0.2881
1289.0,0.2808
1290.0,0.2855
1291.0,0.2891
1292.0,0.2749
1293.0,0.2843
1294.0,0.2825
1295.0,0.2819
1296.0,0.2713
1297.0,0.2584
1298.0,0.2747
1299.0,0.2844
1300.0,0.2466
1301.0,0.2529
1302.0,0.2737
1303.0,0.2427
1304.0,0.2125
1305.0,0.2685
1306.0,0.2689
1307.0,0.2151
1308.0,0.2422
1309.0,0.2673
1310.0,0.2113
1311.0,0.2334
1312.0,0.228
1313.0,0.2244
1314.0,0.2029
1315.0,0.2015
1316.0,0.2306
1317.0,0.2191
1318.0,0.2359
1319.0,0.1909
1320.0,0.1835
1321.0,0.2115
1322.0,0.2146
1323.0,0.1669
1324.0,0.1872
1325.0,0.2276
1326.0,0.1988
1327.0,0.1905
1328.0,0.166
1329.0,0.1292
1330.0,0.1659
1331.0,0.1057
1332.0,0.1072
1333.0,0.1478
1334.0,0.1228
1335.0,0.1662
1336.0,0.1342
1337.0,0.1203
1338.0,0.13
1339.0,0.1287
1340.0,0.1238
1341.0,0.1241
1342.0,0.1301
1343.0,0.095
1344.0,0.05667
1345.0,0.081
1346.0,0.04494
1347.0,0.04649
1348.0,0.004
1349.0,0.01321
1350.0,0.01293
1351.0,0.004039
1352.0,0.001412
1353.0,9.8e-05
1354.0,0.0002794
1355.0,4.149e-06
1356.0,4.914e-05
1357.0,7.408e-05
1358.0,4.795e-06
1359.0,9.444e-07
1360.0,2.573e-06
1361.0,7.576e-09
1362.0,3.217e-11
1363.0,3.887e-06
1364.0,1.69e-06
1365.0,1.876e-11
1366.0,1.504e-05
1367.0,5.833e-06
1368.0,4.018e-13
1369.0,6.527e-07
1370.0,3.88e-07
1371.0,2.825e-08
1372.0,3.223e-06
1373.0,4.743e-05
1374.0,0.0001786
1375.0,0.0003228
1376.0,0.0002489
1377.0,0.00012
1378.0,0.001051
1379.0,5.109e-05
1380.0,8.298e-05
1381.0,2.512e-06
1382.0,3.062e-06
1383.0,5.594e-08
1384.0,7.927e-07
1385.0,2.362e-06
1386.0,3.096e-06
1387.0,0.0002069
1388.0,4.283e-06
1389.0,0.000563
1390.0,0.0004832
1391.0,0.0003402
1392.0,2.422e-05
1393.0,0.0001139
1394.0,8.135e-05
1395.0,7.863e-07
1396.0,9.62e-09
1397.0,4.951e-05
1398.0,0.001201
1399.0,0.0007621
1400.0,5.316e-09
1401.0,1.579e-08
1402.0,0.001617
1403.0,0.002132
1404.0,0.0006649
1405.0,4.503e-07
1406.0,0.001874
1407.0,0.0001598
1408.0,0.001514
1409.0,0.0005933
1410.0,0.0004369
1411.0,0.001859
1412.0,0.002331
1413.0,0.01908
1414.0,0.000339
1415.0,0.0001757
1416.0,0.02789
1417.0,0.00965
1418.0,0.01107
1419.0,0.00178
1420.0,0.006824
1421.0,0.007458
1422.0,0.03604
1423.0,0.007321
1424.0,0.01343
1425.0,0.02016
1426.0,0.02181
1427.0,0.03761
1428.0,0.003834
1429.0,0.02921
1430.0,0.04712
1431.0,0.05109
1432.0,0.003054
1433.0,0.03344
1434.0,0.01749
1435.0,0.0191
1436.0,0.03428
1437.0,0.02628
1438.0,0.01182
1439.0,0.04548
1440.0,0.03421
1441.0,0.02728
1442.0,0.03
1443.0,0.03583
1444.0,0.04885
1445.0,0.03969
1446.0,0.01831
1447.0,0.02879
1448.0,0.08693
1449.0,0.07692
1450.0,0.0213
1451.0,0.008924
1452.0,0.04767
1453.0,0.06176
1454.0,0.1011
1455.0,0.0495
1456.0,0.06728
1457.0,0.08733
1458.0,0.1002
1459.0,0.1189
1460.0,0.06341
