interpolation:linear
wavelength,value
280.0,3.495e-21
280.5,1.09e-19
281.0,5.741e-19
281.5,3.696e-19
282.0,1.099e-18
282.5,2.902e-18
283.0,9.403e-18
283.5,1.54e-17
284.0,2.503e-16
284.5,7.214e-16
285.0,1.62e-15
285.5,7.938e-15
286.0,3.181e-14
286.5,1.405e-13
287.0,3.976e-13
287.5,1.503e-12
288.0,3.926e-12
288.5,1.321e-11
289.0,3.79e-11
289.5,1.21e-10
290.0,3.477e-10
290.5,7.262e-10
291.0,1.595e-09
291.5,4.791e-09
292.0,1.054e-08
292.5,1.6e-08
293.0,3.79e-08
293.5,1.058e-07
294.0,1.826e-07
294.5,2.365e-07
295.0,4.419e-07
295.5,1.182e-06
296.0,2.369e-06
296.5,3.454e-06
297.0,4.851e-06
297.5,1.381e-05
298.0,2.301e-05
298.5,2.423e-05
299.0,5.599e-05
299.5,0.0001013
300.0,0.0001175
300.5,0.0001805
301.0,0.0003625
301.5,0.0006475
302.0,0.0005938
302.5,0.001169
303.0,0.002119
303.5,0.002684
304.0,0.002532
304.5,0.003812
305.0,0.005844
305.5,0.006736
306.0,0.006536
306.5,0.00817
307.0,0.01221
307.5,0.01633
308.0,0.01727
308.5,0.02045
309.0,0.02013
309.5,0.02308
310.0,0.02321
310.5,0.03762
311.0,0.04726
311.5,0.04564
312.0,0.04569
312.5,0.05565
313.0,0.06038
313.5,0.05863
314.0,0.07337
314.5,0.0651
315.0,0.08557
315.5,0.07158
316.0,0.06255
316.5,0.08984
317.0,0.1116
317.5,0.1161
318.0,0.0906
318.5,0.1125
319.0,0.1335
319.5,0.1089
320.0,0.1316
320.5,0.1646
321.0,0.1465
321.5,0.1405
322.0,0.1499
322.5,0.1304
323.0,0.1298
323.5,0.1595
324.0,0.1861
324.5,0.1891
325.0,0.1634
325.5,0.2101
326.0,0.2569
326.5,0.2571
327.0,0.2564
327.5,0.2477
328.0,0.2208
328.5,0.2319
329.0,0.2774
329.5,0.3149
330.0,0.3178
330.5,0.2546
331.0,0.2595
331.5,0.2636
332.0,0.2846
332.5,0.2815
333.0,0.2808
333.5,0.2543
334.0,0.2606
334.5,0.3006
335.0,0.2824
335.5,0.3299
336.0,0.2283
336.5,0.2675
337.0,0.2195
337.5,0.2732
338.0,0.2666
338.5,0.3078
339.0,0.3047
339.5,0.2932
340.0,0.3446
340.5,0.3107
341.0,0.303
341.5,0.2783
342.0,0.3327
342.5,0.3113
343.0,0.3424
343.5,0.3225
344.0,0.2384
344.5,0.2408
345.0,0.3188
345.5,0.3256
346.0,0.2768
346.5,0.3135
347.0,0.3366
347.5,0.2722
348.0,0.3105
348.5,0.3104
349.0,0.288
349.5,0.2853
350.0,0.3529
350.5,0.3723
351.0,0.3327
351.5,0.3234
352.0,0.3474
352.5,0.2712
353.0,0.3417
353.5,0.3655
354.0,0.3795
354.5,0.3849
355.0,0.3837
355.5,0.3468
356.0,0.3629
356.5,0.3099
357.0,0.2561
357.5,0.3136
358.0,0.2486
358.5,0.2125
359.0,0.2973
359.5,0.3789
360.0,0.4017
360.5,0.3212
361.0,0.2929
361.5,0.3374
362.0,0.2919
362.5,0.4041
363.0,0.3631
363.5,0.3345
364.0,0.4093
364.5,0.3499
365.0,0.3564
365.5,0.4475
366.0,0.4743
366.5,0.4458
367.0,0.4342
367.5,0.4507
368.0,0.3945
368.5,0.3982
369.0,0.4302
369.5,0.4586
370.0,0.4891
370.5,0.3797
371.0,0.4058
371.5,0.5078
372.0,0.3371
372.5,0.4043
373.0,0.4114
373.5,0.2678
374.0,0.3892
374.5,0.3224
375.0,0.3135
375.5,0.4681
376.0,0.3882
376.5,0.4023
377.0,0.4261
377.5,0.4986
378.0,0.5406
378.5,0.5111
379.0,0.4218
379.5,0.3854
380.0,0.4008
380.5,0.4856
381.0,0.4868
381.5,0.386
382.0,0.3429
382.5,0.2924
383.0,0.2708
383.5,0.2609
384.0,0.2879
384.5,0.4236
385.0,0.4202
385.5,0.3914
386.0,0.3353
386.5,0.4406
387.0,0.3662
387.5,0.4114
388.0,0.38
388.5,0.3757
389.0,0.4056
389.5,0.4914
390.0,0.4933
390.5,0.4541
391.0,0.5347
391.5,0.5455
392.0,0.4596
392.5,0.4115
393.0,0.2291
393.5,0.1666
394.0,0.339
394.5,0.4311
395.0,0.5262
395.5,0.5346
396.0,0.4636
396.5,0.2711
397.0,0.2035
397.5,0.414
398.0,0.5798
398.5,0.5994
399.0,0.6493
399.5,0.6473
400.0,0.6723
401.0,0.6816
402.0,0.7195
403.0,0.6838
404.0,0.6735
405.0,0.6737
406.0,0.663
407.0,0.6526
408.0,0.6783
409.0,0.7263
410.0,0.6349
411.0,0.6879
412.0,0.7392
413.0,0.7211
414.0,0.7302
415.0,0.7324
416.0,0.7455
417.0,0.7274
418.0,0.7142
419.0,0.7238
420.0,0.7209
421.0,0.7544
422.0,0.7172
423.0,0.7008
424.0,0.7414
425.0,0.7403
426.0,0.7214
427.0,0.7081
428.0,0.6899
429.0,0.6538
430.0,0.5723
431.0,0.5673
432.0,0.7328
433.0,0.737
434.0,0.6845
435.0,0.7149
436.0,0.8059
437.0,0.7953
438.0,0.7244
439.0,0.7492
440.0,0.7733
441.0,0.8015
442.0,0.8597
443.0,0.8374
444.0,0.8558
445.0,0.8374
446.0,0.7994
447.0,0.8645
448.0,0.878
449.0,0.8818
450.0,0.9066
451.0,0.9404
452.0,0.9062
453.0,0.8525
454.0,0.8901
455.0,0.8957
456.0,0.9171
457.0,0.9325
458.0,0.9006
459.0,0.8961
460.0,0.8985
461.0,0.9193
462.0,0.9266
463.0,0.9202
464.0,0.9053
465.0,0.8941
466.0,0.9029
467.0,0.8864
468.0,0.8969
469.0,0.9016
470.0,0.8729
471.0,0.8719
472.0,0.9187
473.0,0.9068
474.0,0.908
475.0,0.9157
476.0,0.8882
477.0,0.8906
478.0,0.9154
479.0,0.9099
480.0,0.9118
481.0,0.929
482.0,0.934
483.0,0.9229
484.0,0.9041
485.0,0.8615
486.0,0.7533
487.0,0.7896
488.0,0.8662
489.0,0.8689
490.0,0.9142
491.0,0.8986
492.0,0.8486
493.0,0.8764
494.0,0.8853
495.0,0.8928
496.0,0.8984
497.0,0.9123
498.0,0.8696
499.0,0.8807
500.0,0.855
501.0,0.8392
502.0,0.8272
503.0,0.8607
504.0,0.8382
505.0,0.8687
506.0,0.8968
507.0,0.8534
508.0,0.827
509.0,0.8504
510.0,0.846
511.0,0.8688
512.0,0.8783
513.0,0.8314
514.0,0.8257
515.0,0.8175
516.0,0.8155
517.0,0.7247
518.0,0.7618
519.0,0.7991
520.0,0.8281
521.0,0.836
522.0,0.8367
523.0,0.8216
524.0,0.8509
525.0,0.8607
526.0,0.8222
527.0,0.7746
528.0,0.8192
529.0,0.8634
530.0,0.8509
531.0,0.8635
532.0,0.8338
533.0,0.8094
534.0,0.8334
535.0,0.8516
536.0,0.8595
537.0,0.8257
538.0,0.8403
539.0,0.8332
540.0,0.7988
541.0,0.8039
542.0,0.829
543.0,0.8205
544.0,0.8345
545.0,0.832
546.0,0.8355
547.0,0.8353
548.0,0.8253
549.0,0.8279
550.0,0.8377
551.0,0.8276
552.0,0.8334
553.0,0.8184
554.0,0.838
555.0,0.8396
556.0,0.8287
557.0,0.8029
558.0,0.7967
559.0,0.7817
560.0,0.7914
561.0,0.8016
562.0,0.7957
563.0,0.8173
564.0,0.7949
565.0,0.7879
566.0,0.7763
567.0,0.7908
568.0,0.7834
569.0,0.7641
570.0,0.764
571.0,0.7596
572.0,0.7773
573.0,0.7856
574.0,0.783
575.0,0.7682
576.0,0.7612
577.0,0.7695
578.0,0.7582
579.0,0.7615
580.0,0.7765
581.0,0.7809
582.0,0.796
583.0,0.7982
584.0,0.8054
585.0,0.7858
586.0,0.7697
587.0,0.7863
588.0,0.7663
589.0,0.6772
590.0,0.7083
591.0,0.7506
592.0,0.7405
593.0,0.7522
594.0,0.7467
595.0,0.7276
596.0,0.7577
597.0,0.7492
598.0,0.7477
599.0,0.7485
600.0,0.75
601.0,0.7442
602.0,0.7391
603.0,0.7515
604.0,0.764
605.0,0.7601
606.0,0.7572
607.0,0.7648
608.0,0.7565
609.0,0.758
610.0,0.7527
611.0,0.7567
612.0,0.7546
613.0,0.7452
614.0,0.7351
615.0,0.7513
616.0,0.7266
617.0,0.7252
618.0,0.7532
619.0,0.7456
620.0,0.7504
621.0,0.751
622.0,0.7421
623.0,0.7306
624.0,0.7182
625.0,0.7166
626.0,0.7272
627.0,0.735
628.0,0.6824
629.0,0.7162
630.0,0.6996
631.0,0.7167
632.0,0.7084
633.0,0.7305
634.0,0.7238
635.0,0.7353
636.0,0.7259
637.0,0.7379
638.0,0.7453
639.0,0.7371
640.0,0.7302
641.0,0.7299
642.0,0.7267
643.0,0.7365
644.0,0.7343
645.0,0.7354
646.0,0.7177
647.0,0.7081
648.0,0.7087
649.0,0.6949
650.0,0.6997
651.0,0.7303
652.0,0.6984
653.0,0.7206
654.0,0.7128
655.0,0.6855
656.0,0.6081
657.0,0.6245
658.0,0.7003
659.0,0.7055
660.0,0.7085
661.0,0.7136
662.0,0.7147
663.0,0.7007
664.0,0.7094
665.0,0.7103
666.0,0.711
667.0,0.7105
668.0,0.7109
669.0,0.722
670.0,0.719
671.0,0.7189
672.0,0.7128
673.0,0.7236
674.0,0.721
675.0,0.7145
676.0,0.7194
677.0,0.7123
678.0,0.7144
679.0,0.7029
680.0,0.7086
681.0,0.7039
682.0,0.703
683.0,0.7017
684.0,0.6982
685.0,0.7042
686.0,0.7
687.0,0.4474
688.0,0.5324
689.0,0.5346
690.0,0.5635
691.0,0.5963
692.0,0.6206
693.0,0.6152
694.0,0.6102
695.0,0.6376
696.0,0.6385
697.0,0.6803
698.0,0.6696
699.0,0.6519
700.0,0.6439
701.0,0.6368
702.0,0.6419
703.0,0.6431
704.0,0.6648
705.0,0.6658
706.0,0.6656
707.0,0.6662
708.0,0.6676
709.0,0.6692
710.0,0.6689
711.0,0.6682
712.0,0.6665
713.0,0.6595
714.0,0.6621
715.0,0.6405
716.0,0.6407
717.0,0.5493
718.0,0.5037
719.0,0.4608
720.0,0.4821
721.0,0.5361
722.0,0.6174
723.0,0.5727
724.0,0.5135
725.0,0.5043
726.0,0.5283
727.0,0.5374
728.0,0.5028
729.0,0.5239
730.0,0.5542
731.0,0.5296
732.0,0.5689
733.0,0.6045
734.0,0.6195
735.0,0.6063
736.0,0.6055
737.0,0.6079
738.0,0.6188
739.0,0.6066
740.0,0.6229
741.0,0.617
742.0,0.6179
743.0,0.6337
744.0,0.6321
745.0,0.6324
746.0,0.6353
747.0,0.6367
748.0,0.6354
749.0,0.6282
750.0,0.6278
751.0,0.6214
752.0,0.6241
753.0,0.6273
754.0,0.6287
755.0,0.6251
756.0,0.6249
757.0,0.6258
758.0,0.618
759.0,0.6045
760.0,0.08449
761.0,0.04157
762.0,0.29
763.0,0.1348
764.0,0.2113
765.0,0.29
766.0,0.365
767.0,0.4699
768.0,0.55
769.0,0.5633
770.0,0.5845
771.0,0.5901
772.0,0.5916
773.0,0.5958
774.0,0.593
775.0,0.5885
776.0,0.5957
777.0,0.5879
778.0,0.5843
779.0,0.5848
780.0,0.5815
781.0,0.5822
782.0,0.5858
783.0,0.5756
784.0,0.5784
785.0,0.5741
786.0,0.5803
787.0,0.5694
788.0,0.562
789.0,0.5617
790.0,0.5456
791.0,0.5514
792.0,0.5475
793.0,0.5385
794.0,0.5489
795.0,0.5579
796.0,0.5392
797.0,0.5398
798.0,0.557
799.0,0.5532
800.0,0.5432
801.0,0.5412
802.0,0.5396
803.0,0.5353
804.0,0.5362
805.0,0.535
806.0,0.5508
807.0,0.5439
808.0,0.5445
809.0,0.5337
810.0,0.529
811.0,0.5288
812.0,0.5126
813.0,0.5014
814.0,0.4377
815.0,0.4352
816.0,0.4046
817.0,0.4124
818.0,0.3962
819.0,0.4459
820.0,0.4188
821.0,0.4936
822.0,0.4788
823.0,0.3191
824.0,0.4634
825.0,0.485
826.0,0.4653
827.0,0.4924
828.0,0.4135
829.0,0.4627
830.0,0.4563
831.0,0.458
832.0,0.4432
833.0,0.4735
834.0,0.4554
835.0,0.5032
836.0,0.4798
837.0,0.5047
838.0,0.4881
839.0,0.4973
840.0,0.5084
841.0,0.5008
842.0,0.5025
843.0,0.5029
844.0,0.4955
845.0,0.5127
846.0,0.5106
847.0,0.5013
848.0,0.4979
849.0,0.4837
850.0,0.4635
851.0,0.4904
852.0,0.4871
853.0,0.4691
854.0,0.4048
855.0,0.4451
856.0,0.4862
857.0,0.4973
858.0,0.4935
859.0,0.4941
860.0,0.4951
861.0,0.4923
862.0,0.5001
863.0,0.5119
864.0,0.4864
865.0,0.4821
866.0,0.4335
867.0,0.4524
868.0,0.4923
869.0,0.4821
870.0,0.4959
871.0,0.4891
872.0,0.4874
873.0,0.4864
874.0,0.4807
875.0,0.4709
876.0,0.4758
877.0,0.4806
878.0,0.4858
879.0,0.4783
880.0,0.4681
881.0,0.4609
882.0,0.4708
883.0,0.4724
884.0,0.4702
885.0,0.4738
886.0,0.4509
887.0,0.4562
888.0,0.4626
889.0,0.4684
890.0,0.4638
891.0,0.4634
892.0,0.4492
893.0,0.4342
894.0,0.4171
895.0,0.3919
896.0,0.3683
897.0,0.3135
898.0,0.3437
899.0,0.258
900.0,0.3537
901.0,0.2704
902.0,0.322
903.0,0.3236
904.0,0.414
905.0,0.3988
906.0,0.3724
907.0,0.2981
908.0,0.3047
909.0,0.3321
910.0,0.2899
911.0,0.3115
912.0,0.3263
913.0,0.2941
914.0,0.2923
915.0,0.3169
916.0,0.2674
917.0,0.3433
918.0,0.2739
919.0,0.3507
920.0,0.3566
921.0,0.371
922.0,0.3289
923.0,0.3586
924.0,0.3367
925.0,0.3294
926.0,0.3328
927.0,0.3754
928.0,0.2673
929.0,0.2418
930.0,0.1865
931.0,0.1772
932.0,0.1239
933.0,0.09886
934.0,0.05035
935.0,0.1027
936.0,0.06164
937.0,0.06222
938.0,0.07748
939.0,0.1716
940.0,0.2091
941.0,0.1543
942.0,0.1807
943.0,0.1161
944.0,0.1249
945.0,0.1598
946.0,0.07757
947.0,0.1595
948.0,0.1167
949.0,0.2172
950.0,0.0548
951.0,0.2145
952.0,0.1104
953.0,0.1458
954.0,0.1824
955.0,0.1478
956.0,0.146
957.0,0.1101
958.0,0.2116
959.0,0.164
960.0,0.1838
961.0,0.2096
962.0,0.1979
963.0,0.231
964.0,0.2107
965.0,0.2304
966.0,0.2298
967.0,0.2285
968.0,0.3167
969.0,0.3297
970.0,0.3016
971.0,0.3497
972.0,0.3336
973.0,0.2859
974.0,0.2707
975.0,0.2828
976.0,0.266
977.0,0.3077
978.0,0.2903
979.0,0.3054
980.0,0.2863
981.0,0.3479
982.0,0.3309
983.0,0.3167
984.0,0.3604
985.0,0.3297
986.0,0.3679
987.0,0.3593
988.0,0.3587
989.0,0.3675
990.0,0.3566
991.0,0.3685
992.0,0.3708
993.0,0.3611
994.0,0.3708
995.0,0.3705
996.0,0.3687
997.0,0.3693
998.0,0.3675
999.0,0.3662
1000.0,0.3633
1001.0,0.3682
1002.0,0.3567
1003.0,0.3616
1004.0,0.3524
1005.0,0.34
1006.0,0.353
1007.0,0.3606
1008.0,0.3584
1009.0,0.3563
1010.0,0.3546
1011.0,0.3588
1012.0,0.3555
1013.0,0.358
1014.0,0.3555
1015.0,0.3531
1016.0,0.3515
1017.0,0.3524
1018.0,0.3512
1019.0,0.3432
1020.0,0.3493
1021.0,0.3489
1022.0,0.346
1023.0,0.3496
1024.0,0.3446
1025.0,0.3496
1026.0,0.3479
1027.0,0.3472
1028.0,0.3464
1029.0,0.3422
1030.0,0.3448
1031.0,0.3433
1032.0,0.3424
1033.0,0.3372
1034.0,0.3372
1035.0,0.3383
1036.0,0.34
1037.0,0.3345
1038.0,0.3359
1039.0,0.3357
1040.0,0.3344
1041.0,0.3356
1042.0,0.3333
1043.0,0.3322
1044.0,0.3333
1045.0,0.3288
1046.0,0.3251
1047.0,0.328
1048.0,0.3298
1049.0,0.3285
1050.0,0.327
1051.0,0.3265
1052.0,0.3251
1053.0,0.3225
1054.0,0.3231
1055.0,0.3232
1056.0,0.322
1057.0,0.3209
1058.0,0.3129
1059.0,0.3132
1060.0,0.3127
1061.0,0.3123
1062.0,0.3138
1063.0,0.3107
1064.0,0.3144
1065.0,0.3119
1066.0,0.3059
1067.0,0.3098
1068.0,0.3029
1069.0,0.2936
1070.0,0.3035
1071.0,0.3086
1072.0,0.3047
1073.0,0.3004
1074.0,0.3087
1075.0,0.2918
1076.0,0.3084
1077.0,0.3021
1078.0,0.296
1079.0,0.3037
1080.0,0.2974
1081.0,0.2872
1082.0,0.293
1083.0,0.2942
1084.0,0.2862
1085.0,0.2982
1086.0,0.2701
1087.0,0.2802
1088.0,0.2936
1089.0,0.2833
1090.0,0.2763
1091.0,0.2923
1092.0,0.2919
1093.0,0.2437
1094.0,0.2666
1095.0,0.2543
1096.0,0.2424
1097.0,0.2851
1098.0,0.2382
1099.0,0.2491
1100.0,0.2299
1101.0,0.2333
1102.0,0.2218
1103.0,0.2189
1104.0,0.2193
1105.0,0.243
1106.0,0.1797
1107.0,0.2296
1108.0,0.1909
1109.0,0.192
1110.0,0.227
1111.0,0.149
1112.0,0.1908
1113.0,0.1164
1114.0,0.1306
1115.0,0.108
1116.0,0.08326
1117.0,0.02754
1118.0,0.09155
1119.0,0.04288
1120.0,0.05374
1121.0,0.07284
1122.0,0.02849
1123.0,0.04868
1124.0,0.04105
1125.0,0.05418
1126.0,0.01675
1127.0,0.06132
1128.0,0.03434
1129.0,0.03674
1130.0,0.0234
1131.0,0.1221
1132.0,0.09469
1133.0,0.05685
1134.0,0.01288
1135.0,0.004927
1136.0,0.04632
1137.0,0.1189
1138.0,0.08314
1139.0,0.1303
1140.0,0.1064
1141.0,0.07906
1142.0,0.0922
1143.0,0.1336
1144.0,0.04368
1145.0,0.05489
1146.0,0.05916
1147.0,0.01865
1148.0,0.1154
1149.0,0.0903
1150.0,0.04736
1151.0,0.08246
1152.0,0.1037
1153.0,0.1028
1154.0,0.05298
1155.0,0.1358
1156.0,0.1211
1157.0,0.1379
1158.0,0.1364
1159.0,0.1486
1160.0,0.1255
1161.0,0.1579
1162.0,0.1585
1163.0,0.2196
1164.0,0.1863
1165.0,0.1738
1166.0,0.1741
1167.0,0.1906
1168.0,0.1923
1169.0,0.1975
1170.0,0.2162
1171.0,0.2107
1172.0,0.2154
1173.0,0.2158
1174.0,0.1502
1175.0,0.2115
1176.0,0.2345
1177.0,0.2238
1178.0,0.1653
1179.0,0.2365
1180.0,0.2089
1181.0,0.2157
1182.0,0.1458
1183.0,0.2129
1184.0,0.1985
1185.0,0.1907
1186.0,0.229
1187.0,0.2172
1188.0,0.1479
1189.0,0.2022
1190.0,0.2239
1191.0,0.2109
1192.0,0.2273
1193.0,0.2172
1194.0,0.2242
1195.0,0.2109
1196.0,0.2024
1197.0,0.2249
1198.0,0.2051
1199.0,0.172
1200.0,0.2144
1201.0,0.2059
1202.0,0.2053
1203.0,0.2033
1204.0,0.1766
1205.0,0.2108
1206.0,0.2341
1207.0,0.2045
1208.0,0.202
1209.0,0.2063
1210.0,0.2155
1211.0,0.2043
1212.0,0.2007
1213.0,0.2259
1214.0,0.206
1215.0,0.2019
1216.0,0.2252
1217.0,0.2188
1218.0,0.2234
1219.0,0.2204
1220.0,0.2236
1221.0,0.2261
1222.0,0.22
1223.0,0.2178
1224.0,0.216
1225.0,0.2246
1226.0,0.2264
1227.0,0.2077
1228.0,0.2278
1229.0,0.2265
1230.0,0.2224
1231.0,0.2295
1232.0,0.2281
1233.0,0.2193
1234.0,0.2295
1235.0,0.2279
1236.0,0.2297
1237.0,0.226
1238.0,0.2289
1239.0,0.2259
1240.0,0.2268
1241.0,0.2255
1242.0,0.2253
1243.0,0.2234
1244.0,0.225
1245.0,0.226
1246.0,0.2247
1247.0,0.2237
1248.0,0.2234
1249.0,0.2242
1250.0,0.2228
1251.0,0.2198
1252.0,0.22
1253.0,0.2179
1254.0,0.2155
1255.0,0.2197
1256.0,0.2129
1257.0,0.2116
1258.0,0.2161
1259.0,0.2073
1260.0,0.2085
1261.0,0.1956
1262.0,0.189
1263.0,0.1894
1264.0,0.1733
1265.0,0.1882
1266.0,0.1802
1267.0,0.184
1268.0,0.1735
1269.0,0.1014
1270.0,0.1831
1271.0,0.1951
1272.0,0.1958
1273.0,0.1936
1274.0,0.1944
1275.0,0.1975
1276.0,0.1996
1277.0,0.2013
1278.0,0.2056
1279.0,0.2037
1280.0,0.2012
1281.0,0.1922
1282.0,0.1856
1283.0,0.1998
1284.0,0.2045
1285.0,0.2059
1286.0,0.2089
1287.0,0.2053
1288.0,0.2053
1289.0,0.1981
1290.0,0.2036
1291.0,0.2065
1292.0,0.1926
1293.0,0.2022
1294.0,0.2007
1295.0,0.1993
1296.0,0.1894
1297.0,0.1785
1298.0,0.1935
1299.0,0.2026
1300.0,0.1691
1301.0,0.1747
1302.0,0.1929
1303.0,0.1671
1304.0,0.1403
1305.0,0.1888
1306.0,0.1887
1307.0,0.1441
1308.0,0.1678
1309.0,0.1869
1310.0,0.1412
1311.0,0.1603
1312.0,0.1556
1313.0,0.1522
1314.0,0.1354
1315.0,0.1331
1316.0,0.1573
1317.0,0.1488
1318.0,0.1627
1319.0,0.1243
1320.0,0.1211
1321.0,0.142
1322.0,0.1429
1323.0,0.1052
1324.0,0.122
1325.0,0.1549
1326.0,0.1315
1327.0,0.125
1328.0,0.107
1329.0,0.07825
1330.0,0.1029
1331.0,0.05965
1332.0,0.06242
1333.0,0.08743
1334.0,0.07539
1335.0,0.1047
1336.0,0.08149
1337.0,0.07143
1338.0,0.07727
1339.0,0.07729
1340.0,0.07588
1341.0,0.07246
1342.0,0.07626
1343.0,0.04851
1344.0,0.02928
1345.0,0.0423
1346.0,0.01913
1347.0,0.01913
1348.0,0.001005
1349.0,0.003827
1350.0,0.004144
1351.0,0.0008314
1352.0,0.0001804
1353.0,7.438e-06
1354.0,2.971e-05
1355.0,1.514e-07
1356.0,3.588e-06
1357.0,5.487e-06
1358.0,1.827e-07
1359.0,1.619e-08
1360.0,7.378e-08
1361.0,3.971e-11
1362.0,8.113e-14
1363.0,8.831e-08
1364.0,3.648e-08
1365.0,1.903e-14
1366.0,4.236e-07
1367.0,1.876e-07
1368.0,6.888e-17
1369.0,1.345e-08
1370.0,5.717e-09
1371.0,2.734e-10
1372.0,1.038e-07
1373.0,2.644e-06
1374.0,1.445e-05
1375.0,2.583e-05
1376.0,2.699e-05
1377.0,1.195e-05
1378.0,0.0001244
1379.0,5.014e-06
1380.0,6.503e-06
1381.0,1.559e-07
1382.0,8.962e-08
1383.0,1.193e-09
1384.0,1.429e-08
1385.0,1.008e-07
1386.0,7.178e-08
1387.0,1.345e-05
1388.0,2.71e-07
1389.0,5.509e-05
1390.0,4.706e-05
1391.0,3.051e-05
1392.0,1.902e-06
1393.0,1.099e-05
1394.0,4.325e-06
1395.0,2.683e-08
1396.0,6.328e-11
1397.0,4.108e-06
1398.0,0.0001369
1399.0,8.752e-05
1400.0,2.244e-11
1401.0,1.222e-10
1402.0,0.0003089
1403.0,0.0003708
1404.0,0.0001107
1405.0,1.15e-08
1406.0,0.0002661
1407.0,2.523e-05
1408.0,0.0002209
1409.0,6.488e-05
1410.0,5.731e-05
1411.0,0.0003292
1412.0,0.0004737
1413.0,0.005871
1414.0,4.606e-05
1415.0,2.08e-05
1416.0,0.01095
1417.0,0.002908
1418.0,0.003214
1419.0,0.0004831
1420.0,0.001954
1421.0,0.002139
1422.0,0.01437
1423.0,0.002686
1424.0,0.005155
1425.0,0.007365
1426.0,0.008874
1427.0,0.01747
1428.0,0.0009252
1429.0,0.01247
1430.0,0.0228
1431.0,0.02545
1432.0,0.0007211
1433.0,0.01565
1434.0,0.007699
1435.0,0.006816
1436.0,0.01449
