interpolation:linear
wavelength,value
280.0,1.08e-22
280.5,3.5960000000000004e-21
281.0,1.9380000000000002e-20
281.5,4.55e-19
282.0,5.39e-19
282.5,1.312e-18
283.0,4.122e-18
283.5,6.71e-18
284.0,1.108e-16
284.5,3.245e-16
285.0,5.752e-16
285.5,2.786e-15
286.0,1.119e-14
286.5,5.014e-14
287.0,1.438e-13
287.5,5.552e-13
288.0,1.964e-12
288.5,5.737e-12
289.0,1.498e-11
289.5,4.467e-11
290.0,1.234e-10
290.5,2.51e-10
291.0,5.385e-10
291.5,1.546e-09
292.0,3.125e-09
292.5,4.365e-09
293.0,9.317e-09
293.5,2.254e-08
294.0,3.518e-08
294.5,4.659e-08
295.0,7.869e-08
295.5,1.323e-07
296.0,2.526e-07
296.5,3.491e-07
297.0,4.673e-07
297.5,1.232e-06
298.0,1.909e-06
298.5,1.893e-06
299.0,4.109e-06
299.5,6.621e-06
300.0,7.144e-06
300.5,1.013e-05
301.0,1.766e-05
301.5,2.708e-05
302.0,2.267e-05
302.5,4.429e-05
303.0,8e-05
303.5,0.000102
304.0,9.851e-05
304.5,0.0001586
305.0,0.000269
305.5,0.0003314
306.0,0.0003299
306.5,0.0004311
307.0,0.0007135
307.5,0.001056
308.0,0.001135
308.5,0.001414
309.0,0.001663
309.5,0.002229
310.0,0.002408
310.5,0.004042
311.0,0.005381
311.5,0.005328
312.0,0.00605
312.5,0.008006
313.0,0.009072
313.5,0.008455
314.0,0.01169
314.5,0.01184
315.0,0.01592
315.5,0.01249
316.0,0.01214
316.5,0.01912
317.0,0.0237
317.5,0.02401
318.0,0.01995
318.5,0.02795
319.0,0.03524
319.5,0.02604
320.0,0.031
320.5,0.04388
321.0,0.04364
321.5,0.0423
322.0,0.04004
322.5,0.03504
323.0,0.0377
323.5,0.05054
324.0,0.05977
324.5,0.05869
325.0,0.04807
325.5,0.06582
326.0,0.08324
326.5,0.08697
327.0,0.08534
327.5,0.0808
328.0,0.06797
328.5,0.07652
329.0,0.09673
329.5,0.1116
330.0,0.1111
330.5,0.08531
331.0,0.08571
331.5,0.08987
332.0,0.1016
332.5,0.1026
333.0,0.1011
333.5,0.08851
334.0,0.0902
334.5,0.1081
335.0,0.1038
335.5,0.1223
336.0,0.08463
336.5,0.0973
337.0,0.0786
337.5,0.09722
338.0,0.09794
338.5,0.1144
339.0,0.1135
339.5,0.1091
340.0,0.1268
340.5,0.1147
341.0,0.1129
341.5,0.1041
342.0,0.1246
342.5,0.1167
343.0,0.1281
343.5,0.1205
344.0,0.0883
344.5,0.08978
345.0,0.1194
345.5,0.1222
346.0,0.104
346.5,0.118
347.0,0.1264
347.5,0.1022
348.0,0.1169
348.5,0.1171
349.0,0.1087
349.5,0.1077
350.0,0.1333
350.5,0.1407
351.0,0.1256
351.5,0.1218
352.0,0.1311
352.5,0.1025
353.0,0.1294
353.5,0.1385
354.0,0.1439
354.5,0.146
355.0,0.1456
355.5,0.1317
356.0,0.1379
356.5,0.1178
357.0,0.09735
357.5,0.1193
358.0,0.09458
358.5,0.08087
359.0,0.1131
359.5,0.1441
360.0,0.1529
360.5,0.1223
361.0,0.1116
361.5,0.1287
362.0,0.1115
362.5,0.1545
363.0,0.1389
363.5,0.1281
364.0,0.1568
364.5,0.1341
365.0,0.1367
365.5,0.1717
366.0,0.1821
366.5,0.1713
367.0,0.1669
367.5,0.1733
368.0,0.1518
368.5,0.1533
369.0,0.1657
369.5,0.1768
370.0,0.1886
370.5,0.1465
371.0,0.1567
371.5,0.1962
372.0,0.1303
372.5,0.1563
373.0,0.1592
373.5,0.1037
374.0,0.1508
374.5,0.125
375.0,0.1216
375.5,0.1816
376.0,0.1506
376.5,0.1562
377.0,0.1655
377.5,0.1938
378.0,0.2102
378.5,0.1988
379.0,0.1641
379.5,0.15
380.0,0.156
380.5,0.1892
381.0,0.1898
381.5,0.1507
382.0,0.134
382.5,0.1144
383.0,0.106
383.5,0.1022
384.0,0.1128
384.5,0.1661
385.0,0.1649
385.5,0.1537
386.0,0.1318
386.5,0.1733
387.0,0.1441
387.5,0.1619
388.0,0.1496
388.5,0.1481
389.0,0.16
389.5,0.1939
390.0,0.1948
390.5,0.1794
391.0,0.2114
391.5,0.2158
392.0,0.1819
392.5,0.163
393.0,0.0908
393.5,0.06607
394.0,0.1346
394.5,0.1712
395.0,0.2091
395.5,0.2125
396.0,0.1844
396.5,0.108
397.0,0.0811
397.5,0.1651
398.0,0.2312
398.5,0.2392
399.0,0.2594
399.5,0.2588
400.0,0.2688
401.0,0.2702
402.0,0.2856
403.0,0.2719
404.0,0.2681
405.0,0.2685
406.0,0.2647
407.0,0.2609
408.0,0.2713
409.0,0.2908
410.0,0.2546
411.0,0.2762
412.0,0.2974
413.0,0.2903
414.0,0.2944
415.0,0.2957
416.0,0.3015
417.0,0.2944
418.0,0.2894
419.0,0.2937
420.0,0.2928
421.0,0.3068
422.0,0.292
423.0,0.2856
424.0,0.3023
425.0,0.3022
426.0,0.2951
427.0,0.29
428.0,0.2828
429.0,0.2685
430.0,0.2354
431.0,0.2334
432.0,0.3019
433.0,0.304
434.0,0.2825
435.0,0.2952
436.0,0.3334
437.0,0.3297
438.0,0.3006
439.0,0.3105
440.0,0.3209
441.0,0.3331
442.0,0.3576
443.0,0.3481
444.0,0.3564
445.0,0.3488
446.0,0.3338
447.0,0.3617
448.0,0.3671
449.0,0.3696
450.0,0.3804
451.0,0.3949
452.0,0.3809
453.0,0.3588
454.0,0.3753
455.0,0.3777
456.0,0.387
457.0,0.3936
458.0,0.3798
459.0,0.3781
460.0,0.379
461.0,0.388
462.0,0.3916
463.0,0.3891
464.0,0.3837
465.0,0.3798
466.0,0.3842
467.0,0.377
468.0,0.3816
469.0,0.3837
470.0,0.3714
471.0,0.3712
472.0,0.3912
473.0,0.3862
474.0,0.3862
475.0,0.3889
476.0,0.3763
477.0,0.3767
478.0,0.3875
479.0,0.3856
480.0,0.3868
481.0,0.3948
482.0,0.3978
483.0,0.394
484.0,0.3866
485.0,0.369
486.0,0.3233
487.0,0.3394
488.0,0.3724
489.0,0.3733
490.0,0.3933
491.0,0.387
492.0,0.3656
493.0,0.3778
494.0,0.3818
495.0,0.3852
496.0,0.3877
497.0,0.3936
498.0,0.3751
499.0,0.3795
500.0,0.3679
501.0,0.3605
502.0,0.3542
503.0,0.3674
504.0,0.3547
505.0,0.3701
506.0,0.382
507.0,0.3637
508.0,0.3535
509.0,0.3643
510.0,0.3631
511.0,0.3735
512.0,0.378
513.0,0.3579
514.0,0.3557
515.0,0.3522
516.0,0.3512
517.0,0.3123
518.0,0.3282
519.0,0.3442
520.0,0.3566
521.0,0.3598
522.0,0.3598
523.0,0.3531
524.0,0.3651
525.0,0.3684
526.0,0.3516
527.0,0.3306
528.0,0.349
529.0,0.3674
530.0,0.3617
531.0,0.3668
532.0,0.354
533.0,0.3436
534.0,0.3541
535.0,0.3623
536.0,0.366
537.0,0.3519
538.0,0.3584
539.0,0.3553
540.0,0.3404
541.0,0.3416
542.0,0.3518
543.0,0.3489
544.0,0.3541
545.0,0.3531
546.0,0.3539
547.0,0.3544
548.0,0.3506
549.0,0.3519
550.0,0.3561
551.0,0.352
552.0,0.3544
553.0,0.3479
554.0,0.3562
555.0,0.3566
556.0,0.3518
557.0,0.3405
558.0,0.3374
559.0,0.3305
560.0,0.3343
561.0,0.338
562.0,0.3349
563.0,0.3433
564.0,0.3333
565.0,0.3299
566.0,0.3245
567.0,0.3299
568.0,0.3251
569.0,0.314
570.0,0.3143
571.0,0.3133
572.0,0.3185
573.0,0.3214
574.0,0.3199
575.0,0.3131
576.0,0.3103
577.0,0.314
578.0,0.3103
579.0,0.3132
580.0,0.3217
581.0,0.3253
582.0,0.3332
583.0,0.3355
584.0,0.3394
585.0,0.3317
586.0,0.3249
587.0,0.331
588.0,0.3186
589.0,0.2741
590.0,0.2872
591.0,0.3089
592.0,0.3021
593.0,0.3104
594.0,0.3067
595.0,0.2958
596.0,0.3145
597.0,0.3092
598.0,0.3105
599.0,0.3117
600.0,0.3139
601.0,0.3126
602.0,0.3107
603.0,0.3166
604.0,0.3222
605.0,0.321
606.0,0.3204
607.0,0.3244
608.0,0.3216
609.0,0.3228
610.0,0.3213
611.0,0.3235
612.0,0.3231
613.0,0.3194
614.0,0.3157
615.0,0.3233
616.0,0.3132
617.0,0.3129
618.0,0.3254
619.0,0.3223
620.0,0.3244
621.0,0.3242
622.0,0.3199
623.0,0.3146
624.0,0.3097
625.0,0.309
626.0,0.3133
627.0,0.3151
628.0,0.2745
629.0,0.3007
630.0,0.293
631.0,0.3064
632.0,0.3041
633.0,0.3162
634.0,0.3154
635.0,0.3215
636.0,0.3185
637.0,0.3247
638.0,0.3294
639.0,0.3266
640.0,0.3244
641.0,0.325
642.0,0.3244
643.0,0.3289
644.0,0.3287
645.0,0.3287
646.0,0.3187
647.0,0.3092
648.0,0.31
649.0,0.3031
650.0,0.3118
651.0,0.3266
652.0,0.306
653.0,0.3228
654.0,0.3197
655.0,0.3042
656.0,0.2721
657.0,0.28
658.0,0.3161
659.0,0.3193
660.0,0.3212
661.0,0.3238
662.0,0.3232
663.0,0.3173
664.0,0.3231
665.0,0.3249
666.0,0.3257
667.0,0.3262
668.0,0.3272
669.0,0.3328
670.0,0.3317
671.0,0.3321
672.0,0.3295
673.0,0.3349
674.0,0.334
675.0,0.3313
676.0,0.3339
677.0,0.3309
678.0,0.3321
679.0,0.327
680.0,0.3299
681.0,0.3278
682.0,0.3274
683.0,0.3269
684.0,0.3252
685.0,0.3284
686.0,0.326
687.0,0.1377
688.0,0.1932
689.0,0.1951
690.0,0.217
691.0,0.2434
692.0,0.2652
693.0,0.2625
694.0,0.2628
695.0,0.2842
696.0,0.2853
697.0,0.3146
698.0,0.3095
699.0,0.2938
700.0,0.2898
701.0,0.2833
702.0,0.2886
703.0,0.2902
704.0,0.3045
705.0,0.3048
706.0,0.3064
707.0,0.3075
708.0,0.3079
709.0,0.3119
710.0,0.31
711.0,0.3109
712.0,0.3116
713.0,0.3068
714.0,0.3086
715.0,0.2953
716.0,0.2946
717.0,0.226
718.0,0.2056
719.0,0.1861
720.0,0.1917
721.0,0.2279
722.0,0.2787
723.0,0.2508
724.0,0.2149
725.0,0.2083
726.0,0.2187
727.0,0.2292
728.0,0.2064
729.0,0.2242
730.0,0.2344
731.0,0.2227
732.0,0.2491
733.0,0.2734
734.0,0.2833
735.0,0.2756
736.0,0.2746
737.0,0.2759
738.0,0.2884
739.0,0.283
740.0,0.2928
741.0,0.2913
742.0,0.2932
743.0,0.3011
744.0,0.3013
745.0,0.3022
746.0,0.3035
747.0,0.3044
748.0,0.3039
749.0,0.3005
750.0,0.3004
751.0,0.2974
752.0,0.2988
753.0,0.3005
754.0,0.3011
755.0,0.2994
756.0,0.2994
757.0,0.2998
758.0,0.2959
759.0,0.2843
760.0,0.007811
761.0,0.002647
762.0,0.07081
763.0,0.0172
764.0,0.0388
765.0,0.07058
766.0,0.1135
767.0,0.1789
768.0,0.2418
769.0,0.2557
770.0,0.2747
771.0,0.2816
772.0,0.2837
773.0,0.2861
774.0,0.285
775.0,0.2831
776.0,0.2867
777.0,0.283
778.0,0.2812
779.0,0.2814
780.0,0.28
781.0,0.2803
782.0,0.2822
783.0,0.2774
784.0,0.2789
785.0,0.2765
786.0,0.2792
787.0,0.2701
788.0,0.2648
789.0,0.2647
790.0,0.2523
791.0,0.2599
792.0,0.2589
793.0,0.2542
794.0,0.2639
795.0,0.2669
796.0,0.251
797.0,0.2505
798.0,0.2656
799.0,0.2626
800.0,0.2562
801.0,0.2535
802.0,0.2525
803.0,0.2496
804.0,0.2509
805.0,0.2524
806.0,0.2635
807.0,0.2595
808.0,0.26
809.0,0.252
810.0,0.2482
811.0,0.2451
812.0,0.2322
813.0,0.2256
814.0,0.1853
815.0,0.1853
816.0,0.1705
817.0,0.1742
818.0,0.1646
819.0,0.1952
820.0,0.1801
821.0,0.228
822.0,0.2186
823.0,0.1235
824.0,0.2054
825.0,0.2243
826.0,0.2098
827.0,0.2274
828.0,0.1759
829.0,0.2098
830.0,0.2059
831.0,0.2065
832.0,0.1972
833.0,0.2173
834.0,0.2047
835.0,0.2375
836.0,0.2183
837.0,0.2382
838.0,0.2263
839.0,0.2349
840.0,0.2412
841.0,0.2359
842.0,0.2394
843.0,0.2424
844.0,0.2374
845.0,0.2476
846.0,0.2471
847.0,0.2434
848.0,0.2405
849.0,0.2337
850.0,0.224
851.0,0.2357
852.0,0.2348
853.0,0.2271
854.0,0.1951
855.0,0.2158
856.0,0.2352
857.0,0.2414
858.0,0.2392
859.0,0.2401
860.0,0.2409
861.0,0.2395
862.0,0.2435
863.0,0.2492
864.0,0.2369
865.0,0.2349
866.0,0.2112
867.0,0.2205
868.0,0.24
869.0,0.2351
870.0,0.2418
871.0,0.2385
872.0,0.2377
873.0,0.2373
874.0,0.2345
875.0,0.2297
876.0,0.232
877.0,0.2344
878.0,0.2367
879.0,0.2331
880.0,0.2282
881.0,0.2241
882.0,0.2286
883.0,0.2301
884.0,0.2287
885.0,0.2304
886.0,0.2171
887.0,0.2214
888.0,0.2236
889.0,0.2282
890.0,0.2237
891.0,0.2246
892.0,0.2147
893.0,0.205
894.0,0.1908
895.0,0.1719
896.0,0.1599
897.0,0.1283
898.0,0.1441
899.0,0.0998
900.0,0.1535
901.0,0.1046
902.0,0.1355
903.0,0.132
904.0,0.189
905.0,0.1798
906.0,0.1655
907.0,0.1192
908.0,0.1249
909.0,0.1406
910.0,0.1137
911.0,0.1301
912.0,0.1358
913.0,0.1149
914.0,0.1162
915.0,0.1246
916.0,0.1044
917.0,0.1427
918.0,0.106
919.0,0.1493
920.0,0.1598
921.0,0.1651
922.0,0.1397
923.0,0.1606
924.0,0.1404
925.0,0.1381
926.0,0.1379
927.0,0.162
928.0,0.09662
929.0,0.08267
930.0,0.05615
931.0,0.05285
932.0,0.03028
933.0,0.0217
934.0,0.006777
935.0,0.02435
936.0,0.01149
937.0,0.0116
938.0,0.01547
939.0,0.05096
940.0,0.06767
941.0,0.0434
942.0,0.05382
943.0,0.0299
944.0,0.0372
945.0,0.04648
946.0,0.01667
947.0,0.0447
948.0,0.03224
949.0,0.06754
950.0,0.009874
951.0,0.06706
952.0,0.02736
953.0,0.04102
954.0,0.05703
955.0,0.04229
956.0,0.04934
957.0,0.02711
958.0,0.07675
959.0,0.05167
960.0,0.05802
961.0,0.07257
962.0,0.06848
963.0,0.08572
964.0,0.07669
965.0,0.08479
966.0,0.08445
967.0,0.08289
968.0,0.14
969.0,0.1412
970.0,0.1275
971.0,0.1589
972.0,0.1489
973.0,0.1167
974.0,0.1101
975.0,0.118
976.0,0.1047
977.0,0.135
978.0,0.1216
979.0,0.1307
980.0,0.1213
981.0,0.1583
982.0,0.1465
983.0,0.1382
984.0,0.1694
985.0,0.1455
986.0,0.1765
987.0,0.169
988.0,0.169
989.0,0.1787
990.0,0.1678
991.0,0.1787
992.0,0.1803
993.0,0.172
994.0,0.1807
995.0,0.1812
996.0,0.1797
997.0,0.1803
998.0,0.1792
999.0,0.1787
1000.0,0.1763
1001.0,0.1798
1002.0,0.1701
1003.0,0.1764
1004.0,0.1708
1005.0,0.1662
1006.0,0.1719
1007.0,0.176
1008.0,0.1742
1009.0,0.1723
1010.0,0.1711
1011.0,0.1752
1012.0,0.1728
1013.0,0.1751
1014.0,0.1738
1015.0,0.1725
1016.0,0.1717
1017.0,0.1719
1018.0,0.1718
1019.0,0.1663
1020.0,0.1707
1021.0,0.1707
1022.0,0.1687
1023.0,0.1704
1024.0,0.1664
1025.0,0.1709
1026.0,0.1697
1027.0,0.1694
1028.0,0.1689
1029.0,0.1667
1030.0,0.1685
1031.0,0.1676
1032.0,0.1673
1033.0,0.1648
1034.0,0.1649
1035.0,0.1654
1036.0,0.166
1037.0,0.1634
1038.0,0.164
1039.0,0.1638
1040.0,0.1631
1041.0,0.1636
1042.0,0.1624
1043.0,0.1618
1044.0,0.1623
1045.0,0.1599
1046.0,0.1581
1047.0,0.1593
1048.0,0.1601
1049.0,0.1593
1050.0,0.1584
1051.0,0.158
1052.0,0.1572
1053.0,0.1557
1054.0,0.1558
1055.0,0.1556
1056.0,0.1547
1057.0,0.154
1058.0,0.15
1059.0,0.1498
1060.0,0.1494
1061.0,0.1491
1062.0,0.1495
1063.0,0.1478
1064.0,0.1497
1065.0,0.1479
1066.0,0.1455
1067.0,0.1472
1068.0,0.1435
1069.0,0.1395
1070.0,0.1438
1071.0,0.1476
1072.0,0.1447
1073.0,0.1429
1074.0,0.1484
1075.0,0.1367
1076.0,0.148
1077.0,0.143
1078.0,0.139
1079.0,0.1465
1080.0,0.1408
1081.0,0.134
1082.0,0.14
1083.0,0.1415
1084.0,0.1329
1085.0,0.1415
1086.0,0.1234
1087.0,0.1311
1088.0,0.1407
1089.0,0.1318
1090.0,0.127
1091.0,0.1391
1092.0,0.1394
1093.0,0.1073
1094.0,0.1262
1095.0,0.112
1096.0,0.1045
1097.0,0.1363
1098.0,0.101
1099.0,0.1069
1100.0,0.09551
1101.0,0.09828
1102.0,0.09086
1103.0,0.0879
1104.0,0.08838
1105.0,0.1035
1106.0,0.06339
1107.0,0.09545
1108.0,0.07153
1109.0,0.0729
1110.0,0.09221
1111.0,0.05009
1112.0,0.07288
1113.0,0.03517
1114.0,0.03955
1115.0,0.03175
1116.0,0.0202
1117.0,0.003808
1118.0,0.02293
1119.0,0.007702
1120.0,0.009103
1121.0,0.01371
1122.0,0.003363
1123.0,0.008342
1124.0,0.006991
1125.0,0.01002
1126.0,0.001428
1127.0,0.01152
1128.0,0.004291
1129.0,0.004739
1130.0,0.002864
1131.0,0.03069
1132.0,0.02215
1133.0,0.009548
1134.0,0.001071
1135.0,0.0004875
1136.0,0.006641
1137.0,0.02832
1138.0,0.0189
1139.0,0.03998
1140.0,0.02875
1141.0,0.01814
1142.0,0.02278
1143.0,0.03785
1144.0,0.008519
1145.0,0.009122
1146.0,0.009804
1147.0,0.001555
1148.0,0.03173
1149.0,0.02222
1150.0,0.01032
1151.0,0.01879
1152.0,0.02684
1153.0,0.02931
1154.0,0.009399
1155.0,0.04161
1156.0,0.03491
1157.0,0.04512
1158.0,0.0444
1159.0,0.05028
1160.0,0.04141
1161.0,0.05844
1162.0,0.05781
1163.0,0.09297
1164.0,0.07453
1165.0,0.0651
1166.0,0.06917
1167.0,0.07781
1168.0,0.07764
1169.0,0.08071
1170.0,0.09248
1171.0,0.09014
1172.0,0.09516
1173.0,0.09239
1174.0,0.05591
1175.0,0.09345
1176.0,0.1095
1177.0,0.1004
1178.0,0.06752
1179.0,0.1103
1180.0,0.09122
1181.0,0.09432
1182.0,0.05589
1183.0,0.0943
1184.0,0.08515
1185.0,0.07923
1186.0,0.1039
1187.0,0.09566
1188.0,0.05497
1189.0,0.08871
1190.0,0.1024
1191.0,0.0905
1192.0,0.1045
1193.0,0.09783
1194.0,0.1024
1195.0,0.09225
1196.0,0.08648
1197.0,0.1041
1198.0,0.09352
1199.0,0.07049
1200.0,0.09661
1201.0,0.08968
1202.0,0.09235
1203.0,0.08942
1204.0,0.07471
1205.0,0.09686
1206.0,0.1114
1207.0,0.09064
1208.0,0.092
1209.0,0.09423
1210.0,0.1003
1211.0,0.09247
1212.0,0.08588
1213.0,0.105
1214.0,0.08983
1215.0,0.08775
1216.0,0.1054
1217.0,0.1009
1218.0,0.1043
1219.0,0.1019
1220.0,0.1047
1221.0,0.1069
1222.0,0.1034
1223.0,0.1016
1224.0,0.0989
1225.0,0.1058
1226.0,0.1081
1227.0,0.09462
1228.0,0.1096
1229.0,0.1081
1230.0,0.1053
1231.0,0.1115
1232.0,0.1107
1233.0,0.1026
1234.0,0.1124
1235.0,0.111
1236.0,0.1124
1237.0,0.1092
1238.0,0.112
1239.0,0.1105
1240.0,0.1112
1241.0,0.1095
1242.0,0.1103
1243.0,0.1095
1244.0,0.1099
1245.0,0.1106
1246.0,0.11
1247.0,0.1092
1248.0,0.1085
1249.0,0.1094
1250.0,0.1084
1251.0,0.1063
1252.0,0.1072
1253.0,0.1047
1254.0,0.1024
1255.0,0.1067
1256.0,0.1006
1257.0,0.09938
1258.0,0.1037
1259.0,0.09523
1260.0,0.0963
1261.0,0.08526
1262.0,0.07985
1263.0,0.07986
1264.0,0.06756
1265.0,0.07945
1266.0,0.07274
1267.0,0.07659
1268.0,0.0686
1269.0,0.02334
1270.0,0.07529
1271.0,0.08574
1272.0,0.08656
1273.0,0.08501
1274.0,0.08616
1275.0,0.08841
1276.0,0.0904
1277.0,0.09253
1278.0,0.09651
1279.0,0.09558
1280.0,0.09448
1281.0,0.09124
1282.0,0.0897
1283.0,0.09624
1284.0,0.09822
1285.0,0.09919
1286.0,0.1015
1287.0,0.09812
1288.0,0.0987
1289.0,0.09198
1290.0,0.09798
1291.0,0.1
1292.0,0.08767
1293.0,0.09664
1294.0,0.09572
1295.0,0.09298
1296.0,0.0851
1297.0,0.078
1298.0,0.08966
1299.0,0.0973
1300.0,0.0732
1301.0,0.07686
1302.0,0.08961
1303.0,0.07301
1304.0,0.05443
1305.0,0.08734
1306.0,0.08625
1307.0,0.05845
1308.0,0.07452
1309.0,0.08399
1310.0,0.05648
1311.0,0.06951
1312.0,0.06674
1313.0,0.06316
1314.0,0.05356
1315.0,0.05129
1316.0,0.06686
1317.0,0.06205
1318.0,0.07096
1319.0,0.04616
1320.0,0.04632
1321.0,0.05741
1322.0,0.05614
1323.0,0.03504
1324.0,0.04572
1325.0,0.06459
1326.0,0.05097
1327.0,0.04723
1328.0,0.03807
1329.0,0.02272
1330.0,0.03287
1331.0,0.0142
1332.0,0.01603
1333.0,0.02334
1334.0,0.02388
1335.0,0.03406
1336.0,0.02344
1337.0,0.02018
1338.0,0.02136
1339.0,0.0219
1340.0,0.02303
1341.0,0.01835
1342.0,0.0199
1343.0,0.008253
1344.0,0.005435
1345.0,0.007254
1346.0,0.001697
1347.0,0.001459
1348.0,2.409e-05
1349.0,0.0001117
1350.0,0.0001374
1351.0,1.068e-05
1352.0,1.172e-06
1353.0,5.207e-08
1354.0,2.038e-07
1355.0,1.369e-09
1356.0,2.527e-08
1357.0,3.828e-08
1358.0,1.609e-09
1359.0,2.016e-10
1360.0,7.298e-10
1361.0,8.148e-13
1362.0,2.229e-15
1363.0,9.796e-10
1364.0,4.046e-10
1365.0,7.782e-16
1366.0,4.247e-09
1367.0,1.737e-09
1368.0,6.009e-18
1369.0,1.491e-10
1370.0,7.338e-11
1371.0,4.159e-12
1372.0,9.425e-10
1373.0,1.926e-08
1374.0,9.363e-08
1375.0,1.648e-07
1376.0,1.778e-07
1377.0,7.862e-08
1378.0,7.569e-07
1379.0,3.374e-08
1380.0,4.212e-08
1381.0,1.083e-09
1382.0,8.251e-10
1383.0,1.233e-11
1384.0,1.615e-10
1385.0,7.816e-10
1386.0,7.265e-10
1387.0,8.917e-08
1388.0,1.834e-09
1389.0,3.297e-07
1390.0,2.755e-07
1391.0,1.844e-07
1392.0,1.217e-08
1393.0,6.899e-08
1394.0,3.029e-08
1395.0,2.208e-10
1396.0,1.061e-12
1397.0,2.561e-08
1398.0,7.763e-07
1399.0,5.033e-07
1400.0,4.535e-13
1401.0,1.882e-12
1402.0,3.684e-06
1403.0,3.307e-06
1404.0,8.458e-07
1405.0,1.041e-10
1406.0,1.588e-06
1407.0,2.613e-07
1408.0,1.371e-06
1409.0,3.582e-07
1410.0,3.922e-07
1411.0,3.1e-06
1412.0,6.14e-06
1413.0,0.0001601
1414.0,3.358e-07
1415.0,1.365e-07
1416.0,0.0007641
1417.0,0.0001207
1418.0,7.74e-05
1419.0,1.041e-05
1420.0,4.638e-05
1421.0,8.105e-05
