interpolation:linear
wavelength,value
280.0,1.5449999999999997e-22
280.5,5.121e-21
281.0,2.754e-20
281.5,3.946e-19
282.0,5.739e-19
282.5,1.414e-18
283.0,4.465e-18
283.5,7.274e-18
284.0,1.202e-16
284.5,3.518e-16
285.0,5.867e-16
285.5,2.907e-15
286.0,1.172e-14
286.5,5.279e-14
287.0,1.517e-13
287.5,5.863e-13
288.0,2.084e-12
288.5,6.161e-12
289.0,1.619e-11
289.5,4.849e-11
290.0,1.341e-10
290.5,2.73e-10
291.0,5.855e-10
291.5,1.681e-09
292.0,3.374e-09
292.5,4.727e-09
293.0,1.012e-08
293.5,2.459e-08
294.0,3.843e-08
294.5,5.201e-08
295.0,8.803e-08
295.5,1.456e-07
296.0,2.802e-07
296.5,3.909e-07
297.0,5.275e-07
297.5,1.409e-06
298.0,2.211e-06
298.5,2.215e-06
299.0,4.863e-06
299.5,8.004e-06
300.0,8.747e-06
300.5,1.258e-05
301.0,2.245e-05
301.5,3.523e-05
302.0,2.985e-05
302.5,5.972e-05
303.0,0.0001099
303.5,0.0001417
304.0,0.0001375
304.5,0.0002241
305.0,0.0003861
305.5,0.0004806
306.0,0.0004804
306.5,0.0006319
307.0,0.00106
307.5,0.001591
308.0,0.001713
308.5,0.002148
309.0,0.00241
309.5,0.00316
310.0,0.003379
310.5,0.005643
311.0,0.00745
311.5,0.00735
312.0,0.008194
312.5,0.01071
313.0,0.01206
313.5,0.01131
314.0,0.0154
314.5,0.01529
315.0,0.0205
315.5,0.01624
316.0,0.01554
316.5,0.02413
317.0,0.02992
317.5,0.03044
318.0,0.02505
318.5,0.03446
319.0,0.04305
319.5,0.0323
320.0,0.03854
320.5,0.05353
321.0,0.05234
321.5,0.05065
322.0,0.04883
322.5,0.0427
323.0,0.0454
323.5,0.05968
324.0,0.07043
324.5,0.06957
325.0,0.05779
325.5,0.07836
326.0,0.09795
326.5,0.1016
327.0,0.09998
327.5,0.095
328.0,0.08074
328.5,0.08981
329.0,0.1125
329.5,0.1295
330.0,0.1292
330.5,0.0999
331.0,0.1006
331.5,0.105
332.0,0.1177
332.5,0.1185
333.0,0.117
333.5,0.103
334.0,0.1051
334.5,0.1252
335.0,0.1198
335.5,0.1408
336.0,0.09743
336.5,0.1125
337.0,0.09112
337.5,0.1128
338.0,0.1131
338.5,0.1317
339.0,0.1306
339.5,0.1256
340.0,0.1464
340.5,0.1324
341.0,0.13
341.5,0.1197
342.0,0.1433
342.5,0.1342
343.0,0.1474
343.5,0.1387
344.0,0.1019
344.5,0.1034
345.0,0.1374
345.5,0.1406
346.0,0.1197
346.5,0.1357
347.0,0.1455
347.5,0.1176
348.0,0.1345
348.5,0.1346
349.0,0.125
349.5,0.1239
350.0,0.1533
350.5,0.1618
351.0,0.1445
351.5,0.1401
352.0,0.1509
352.5,0.118
353.0,0.1488
353.5,0.1593
354.0,0.1655
354.5,0.1679
355.0,0.1674
355.5,0.1514
356.0,0.1586
356.5,0.1355
357.0,0.112
357.5,0.1371
358.0,0.1088
358.5,0.093
359.0,0.1301
359.5,0.1657
360.0,0.1758
360.5,0.1407
361.0,0.1284
361.5,0.148
362.0,0.1282
362.5,0.1776
363.0,0.1597
363.5,0.1473
364.0,0.1803
364.5,0.1542
365.0,0.1572
365.5,0.1974
366.0,0.2094
366.5,0.1969
367.0,0.1919
367.5,0.1993
368.0,0.1745
368.5,0.1763
369.0,0.1905
369.5,0.2032
370.0,0.2168
370.5,0.1684
371.0,0.1801
371.5,0.2255
372.0,0.1498
372.5,0.1797
373.0,0.183
373.5,0.1192
374.0,0.1733
374.5,0.1436
375.0,0.1397
375.5,0.2087
376.0,0.1731
376.5,0.1795
377.0,0.1902
377.5,0.2227
378.0,0.2416
378.5,0.2285
379.0,0.1886
379.5,0.1723
380.0,0.1793
380.5,0.2174
381.0,0.2181
381.5,0.1731
382.0,0.1539
382.5,0.1314
383.0,0.1217
383.5,0.1174
384.0,0.1296
384.5,0.1907
385.0,0.1893
385.5,0.1765
386.0,0.1513
386.5,0.1989
387.0,0.1654
387.5,0.1859
388.0,0.1718
388.5,0.17
389.0,0.1836
389.5,0.2226
390.0,0.2236
390.5,0.2059
391.0,0.2426
391.5,0.2476
392.0,0.2087
392.5,0.187
393.0,0.1042
393.5,0.0758
394.0,0.1544
394.5,0.1964
395.0,0.2398
395.5,0.2438
396.0,0.2115
396.5,0.1238
397.0,0.09299
397.5,0.1893
398.0,0.2651
398.5,0.2742
399.0,0.2974
399.5,0.2966
400.0,0.3081
401.0,0.3101
402.0,0.3278
403.0,0.312
404.0,0.3076
405.0,0.308
406.0,0.3036
407.0,0.2992
408.0,0.3111
409.0,0.3335
410.0,0.2919
411.0,0.3166
412.0,0.3408
413.0,0.3326
414.0,0.3373
415.0,0.3387
416.0,0.3453
417.0,0.3372
418.0,0.3314
419.0,0.3362
420.0,0.3351
421.0,0.3511
422.0,0.3341
423.0,0.3267
424.0,0.3459
425.0,0.3457
426.0,0.3375
427.0,0.3316
428.0,0.3233
429.0,0.3069
430.0,0.269
431.0,0.2667
432.0,0.3449
433.0,0.3473
434.0,0.3227
435.0,0.3372
436.0,0.3807
437.0,0.3763
438.0,0.3431
439.0,0.3545
440.0,0.3663
441.0,0.3801
442.0,0.408
443.0,0.3973
444.0,0.4066
445.0,0.3979
446.0,0.3807
447.0,0.4124
448.0,0.4185
449.0,0.4212
450.0,0.4335
451.0,0.45
452.0,0.434
453.0,0.4086
454.0,0.4273
455.0,0.4301
456.0,0.4407
457.0,0.4482
458.0,0.4325
459.0,0.4306
460.0,0.4316
461.0,0.4418
462.0,0.4458
463.0,0.4429
464.0,0.4366
465.0,0.432
466.0,0.4369
467.0,0.4288
468.0,0.4339
469.0,0.4363
470.0,0.4223
471.0,0.4221
472.0,0.4448
473.0,0.4391
474.0,0.4392
475.0,0.4423
476.0,0.4282
477.0,0.4288
478.0,0.441
479.0,0.4388
480.0,0.4402
481.0,0.4491
482.0,0.4523
483.0,0.4479
484.0,0.4393
485.0,0.4192
486.0,0.3671
487.0,0.3854
488.0,0.4228
489.0,0.4239
490.0,0.4465
491.0,0.4392
492.0,0.415
493.0,0.4287
494.0,0.4332
495.0,0.437
496.0,0.4397
497.0,0.4465
498.0,0.4255
499.0,0.4306
500.0,0.4175
501.0,0.4092
502.0,0.4024
503.0,0.4176
504.0,0.4037
505.0,0.4208
506.0,0.4343
507.0,0.4135
508.0,0.4017
509.0,0.4137
510.0,0.4123
511.0,0.424
512.0,0.429
513.0,0.4062
514.0,0.4037
515.0,0.3997
516.0,0.3986
517.0,0.3543
518.0,0.3725
519.0,0.3906
520.0,0.4047
521.0,0.4084
522.0,0.4084
523.0,0.4009
524.0,0.4146
525.0,0.4186
526.0,0.3996
527.0,0.3758
528.0,0.3969
529.0,0.4178
530.0,0.4115
531.0,0.4173
532.0,0.4028
533.0,0.391
534.0,0.4029
535.0,0.4121
536.0,0.4162
537.0,0.4002
538.0,0.4075
539.0,0.404
540.0,0.3871
541.0,0.3887
542.0,0.4003
543.0,0.3969
544.0,0.403
545.0,0.4019
546.0,0.4028
547.0,0.4034
548.0,0.3989
549.0,0.4004
550.0,0.4052
551.0,0.4004
552.0,0.4032
553.0,0.3959
554.0,0.4052
555.0,0.4058
556.0,0.4004
557.0,0.3876
558.0,0.3841
559.0,0.3764
560.0,0.3807
561.0,0.3852
562.0,0.3817
563.0,0.3914
564.0,0.3801
565.0,0.3763
566.0,0.3703
567.0,0.3766
568.0,0.3715
569.0,0.3594
570.0,0.3597
571.0,0.3583
572.0,0.3647
573.0,0.3682
574.0,0.3665
575.0,0.3588
576.0,0.3556
577.0,0.3599
578.0,0.3554
579.0,0.3584
580.0,0.3677
581.0,0.3715
582.0,0.3802
583.0,0.3825
584.0,0.3867
585.0,0.3779
586.0,0.3702
587.0,0.3772
588.0,0.3639
589.0,0.3144
590.0,0.3294
591.0,0.3534
592.0,0.3461
593.0,0.3549
594.0,0.351
595.0,0.3392
596.0,0.3593
597.0,0.3536
598.0,0.3547
599.0,0.3559
600.0,0.3581
601.0,0.3565
602.0,0.3543
603.0,0.3608
604.0,0.3671
605.0,0.3656
606.0,0.3649
607.0,0.3693
608.0,0.366
609.0,0.3672
610.0,0.3654
611.0,0.3677
612.0,0.3671
613.0,0.3629
614.0,0.3586
615.0,0.367
616.0,0.3555
617.0,0.3551
618.0,0.3692
619.0,0.3657
620.0,0.368
621.0,0.3678
622.0,0.3631
623.0,0.3571
624.0,0.3515
625.0,0.3506
626.0,0.3556
627.0,0.358
628.0,0.3154
629.0,0.3429
630.0,0.3343
631.0,0.3483
632.0,0.3454
633.0,0.3586
634.0,0.3573
635.0,0.364
636.0,0.3604
637.0,0.3673
638.0,0.3723
639.0,0.3689
640.0,0.3663
641.0,0.3667
642.0,0.3659
643.0,0.371
644.0,0.3706
645.0,0.3707
646.0,0.3598
647.0,0.3502
648.0,0.3508
649.0,0.3432
650.0,0.3518
651.0,0.3682
652.0,0.3462
653.0,0.3638
654.0,0.3603
655.0,0.3434
656.0,0.3068
657.0,0.3155
658.0,0.3558
659.0,0.3592
660.0,0.3612
661.0,0.3641
662.0,0.3636
663.0,0.3569
664.0,0.363
665.0,0.3648
666.0,0.3657
667.0,0.3661
668.0,0.3671
669.0,0.3733
670.0,0.372
671.0,0.3723
672.0,0.3694
673.0,0.3753
674.0,0.3742
675.0,0.3712
676.0,0.374
677.0,0.3706
678.0,0.3719
679.0,0.3662
680.0,0.3693
681.0,0.367
682.0,0.3665
683.0,0.3659
684.0,0.3641
685.0,0.3675
686.0,0.365
687.0,0.1659
688.0,0.2262
689.0,0.2281
690.0,0.2513
691.0,0.2791
692.0,0.3015
693.0,0.2984
694.0,0.298
695.0,0.3204
696.0,0.3215
697.0,0.3526
698.0,0.3469
699.0,0.3306
700.0,0.3262
701.0,0.3197
702.0,0.3251
703.0,0.3265
704.0,0.3418
705.0,0.3422
706.0,0.3437
707.0,0.3448
708.0,0.3453
709.0,0.3491
710.0,0.3473
711.0,0.348
712.0,0.3486
713.0,0.3435
714.0,0.3453
715.0,0.3311
716.0,0.3305
717.0,0.2582
718.0,0.235
719.0,0.2131
720.0,0.2202
721.0,0.259
722.0,0.3136
723.0,0.2835
724.0,0.2448
725.0,0.2376
726.0,0.2495
727.0,0.2602
728.0,0.2358
729.0,0.2543
730.0,0.2666
731.0,0.2535
732.0,0.2816
733.0,0.3075
734.0,0.318
735.0,0.3097
736.0,0.3088
737.0,0.3102
738.0,0.3228
739.0,0.3166
740.0,0.3272
741.0,0.3253
742.0,0.3271
743.0,0.3359
744.0,0.3358
745.0,0.3367
746.0,0.3382
747.0,0.3392
748.0,0.3385
749.0,0.3348
750.0,0.3346
751.0,0.3313
752.0,0.3328
753.0,0.3346
754.0,0.3354
755.0,0.3334
756.0,0.3334
757.0,0.3339
758.0,0.3295
759.0,0.3177
760.0,0.0111
761.0,0.003741
762.0,0.08889
763.0,0.02377
764.0,0.05099
765.0,0.08865
766.0,0.1366
767.0,0.2078
768.0,0.2735
769.0,0.2876
770.0,0.307
771.0,0.3138
772.0,0.3159
773.0,0.3185
774.0,0.3172
775.0,0.315
776.0,0.319
777.0,0.3148
778.0,0.3129
779.0,0.3132
780.0,0.3115
781.0,0.3119
782.0,0.3139
783.0,0.3086
784.0,0.3102
785.0,0.3076
786.0,0.3107
787.0,0.3013
788.0,0.2958
789.0,0.2956
790.0,0.2826
791.0,0.2902
792.0,0.2889
793.0,0.2837
794.0,0.2937
795.0,0.2972
796.0,0.2809
797.0,0.2805
798.0,0.296
799.0,0.2928
800.0,0.286
801.0,0.2834
802.0,0.2824
803.0,0.2793
804.0,0.2806
805.0,0.2818
806.0,0.2935
807.0,0.2891
808.0,0.2897
809.0,0.2814
810.0,0.2774
811.0,0.2743
812.0,0.2611
813.0,0.2539
814.0,0.2104
815.0,0.2102
816.0,0.1938
817.0,0.1981
818.0,0.1877
819.0,0.2207
820.0,0.2042
821.0,0.2554
822.0,0.2454
823.0,0.1424
824.0,0.2317
825.0,0.2511
826.0,0.236
827.0,0.2547
828.0,0.1998
829.0,0.2357
830.0,0.2315
831.0,0.2323
832.0,0.2222
833.0,0.2437
834.0,0.2303
835.0,0.265
836.0,0.2452
837.0,0.2658
838.0,0.2533
839.0,0.2623
840.0,0.2691
841.0,0.2635
842.0,0.2668
843.0,0.2696
844.0,0.2644
845.0,0.2753
846.0,0.2747
847.0,0.2704
848.0,0.2674
849.0,0.2598
850.0,0.2491
851.0,0.2623
852.0,0.2612
853.0,0.2524
854.0,0.217
855.0,0.2398
856.0,0.2615
857.0,0.2682
858.0,0.2658
859.0,0.2667
860.0,0.2675
861.0,0.2659
862.0,0.2703
863.0,0.2767
864.0,0.263
865.0,0.2608
866.0,0.2345
867.0,0.2448
868.0,0.2664
869.0,0.2609
870.0,0.2684
871.0,0.2647
872.0,0.2639
873.0,0.2634
874.0,0.2602
875.0,0.2549
876.0,0.2575
877.0,0.2602
878.0,0.2628
879.0,0.2588
880.0,0.2533
881.0,0.2488
882.0,0.2539
883.0,0.2554
884.0,0.254
885.0,0.2559
886.0,0.2415
887.0,0.2459
888.0,0.2486
889.0,0.2533
890.0,0.2487
891.0,0.2496
892.0,0.2391
893.0,0.2288
894.0,0.2141
895.0,0.1942
896.0,0.181
897.0,0.1465
898.0,0.1641
899.0,0.1151
900.0,0.1738
901.0,0.1206
902.0,0.1543
903.0,0.1511
904.0,0.2122
905.0,0.2022
906.0,0.1866
907.0,0.1368
908.0,0.1427
909.0,0.1599
910.0,0.1308
911.0,0.1479
912.0,0.1548
913.0,0.1322
914.0,0.1334
915.0,0.1434
916.0,0.1202
917.0,0.1627
918.0,0.1222
919.0,0.1695
920.0,0.1798
921.0,0.1862
922.0,0.1586
923.0,0.1808
924.0,0.16
925.0,0.1572
926.0,0.1574
927.0,0.1838
928.0,0.1127
929.0,0.09732
930.0,0.06767
931.0,0.06397
932.0,0.03796
933.0,0.02768
934.0,0.009386
935.0,0.03072
936.0,0.01508
937.0,0.01519
938.0,0.02004
939.0,0.06174
940.0,0.08073
941.0,0.05304
942.0,0.06523
943.0,0.03715
944.0,0.04505
945.0,0.05645
946.0,0.02134
947.0,0.05462
948.0,0.03947
949.0,0.08099
950.0,0.01294
951.0,0.08051
952.0,0.03407
953.0,0.05005
954.0,0.06846
955.0,0.05143
956.0,0.05801
957.0,0.03373
958.0,0.08971
959.0,0.0618
960.0,0.06934
961.0,0.0854
962.0,0.08053
963.0,0.09963
964.0,0.08939
965.0,0.09882
966.0,0.09827
967.0,0.09672
968.0,0.1579
969.0,0.1603
970.0,0.145
971.0,0.1785
972.0,0.1678
973.0,0.1335
974.0,0.1259
975.0,0.1345
976.0,0.1205
977.0,0.1524
978.0,0.1384
979.0,0.1484
980.0,0.1379
981.0,0.1778
982.0,0.1653
983.0,0.1562
984.0,0.1893
985.0,0.1643
986.0,0.1965
987.0,0.1885
988.0,0.1885
989.0,0.1985
990.0,0.1872
991.0,0.1986
992.0,0.2002
993.0,0.1915
994.0,0.2006
995.0,0.201
996.0,0.1994
997.0,0.2001
998.0,0.1989
999.0,0.1983
1000.0,0.1959
1001.0,0.1995
1002.0,0.1895
1003.0,0.1957
1004.0,0.1897
1005.0,0.1844
1006.0,0.1909
1007.0,0.1953
1008.0,0.1934
1009.0,0.1915
1010.0,0.1903
1011.0,0.1944
1012.0,0.1919
1013.0,0.1942
1014.0,0.1928
1015.0,0.1914
1016.0,0.1905
1017.0,0.1908
1018.0,0.1906
1019.0,0.1848
1020.0,0.1893
1021.0,0.1894
1022.0,0.1873
1023.0,0.1892
1024.0,0.185
1025.0,0.1896
1026.0,0.1883
1027.0,0.188
1028.0,0.1875
1029.0,0.1851
1030.0,0.187
1031.0,0.186
1032.0,0.1856
1033.0,0.1828
1034.0,0.1829
1035.0,0.1835
1036.0,0.1842
1037.0,0.1813
1038.0,0.182
1039.0,0.1818
1040.0,0.181
1041.0,0.1816
1042.0,0.1803
1043.0,0.1796
1044.0,0.1802
1045.0,0.1776
1046.0,0.1755
1047.0,0.177
1048.0,0.1778
1049.0,0.177
1050.0,0.1761
1051.0,0.1756
1052.0,0.1747
1053.0,0.1731
1054.0,0.1733
1055.0,0.1731
1056.0,0.1722
1057.0,0.1714
1058.0,0.167
1059.0,0.1669
1060.0,0.1665
1061.0,0.1661
1062.0,0.1667
1063.0,0.1648
1064.0,0.1669
1065.0,0.165
1066.0,0.1623
1067.0,0.1642
1068.0,0.1601
1069.0,0.1556
1070.0,0.1604
1071.0,0.1644
1072.0,0.1614
1073.0,0.1593
1074.0,0.1652
1075.0,0.1527
1076.0,0.1648
1077.0,0.1595
1078.0,0.1553
1079.0,0.1629
1080.0,0.1571
1081.0,0.1498
1082.0,0.1559
1083.0,0.1574
1084.0,0.1487
1085.0,0.1578
1086.0,0.1385
1087.0,0.1465
1088.0,0.1566
1089.0,0.1475
1090.0,0.1424
1091.0,0.155
1092.0,0.1553
1093.0,0.1211
1094.0,0.1408
1095.0,0.1265
1096.0,0.1184
1097.0,0.1518
1098.0,0.1148
1099.0,0.1213
1100.0,0.1089
1101.0,0.1118
1102.0,0.1038
1103.0,0.1008
1104.0,0.1013
1105.0,0.1176
1106.0,0.07426
1107.0,0.1088
1108.0,0.08293
1109.0,0.08446
1110.0,0.1057
1111.0,0.05933
1112.0,0.08437
1113.0,0.04236
1114.0,0.04768
1115.0,0.03855
1116.0,0.02534
1117.0,0.005221
1118.0,0.02868
1119.0,0.0102
1120.0,0.01221
1121.0,0.01809
1122.0,0.004825
1123.0,0.01118
1124.0,0.009377
1125.0,0.01323
1126.0,0.002165
1127.0,0.01517
1128.0,0.006072
1129.0,0.00668
1130.0,0.004011
1131.0,0.03837
1132.0,0.02807
1133.0,0.01283
1134.0,0.001623
1135.0,0.0007156
1136.0,0.009188
1137.0,0.03568
1138.0,0.02408
1139.0,0.04829
1140.0,0.0355
1141.0,0.02306
1142.0,0.02861
1143.0,0.04628
1144.0,0.01112
1145.0,0.01231
1146.0,0.01323
1147.0,0.002368
1148.0,0.0391
1149.0,0.02791
1150.0,0.01313
1151.0,0.02392
1152.0,0.03341
1153.0,0.03587
1154.0,0.01242
1155.0,0.05024
1156.0,0.0426
1157.0,0.05368
1158.0,0.05286
1159.0,0.05962
1160.0,0.04907
1161.0,0.068
1162.0,0.06745
1163.0,0.1058
1164.0,0.08559
1165.0,0.07553
1166.0,0.07946
1167.0,0.089
1168.0,0.08889
1169.0,0.09228
1170.0,0.105
1171.0,0.1023
1172.0,0.1074
1173.0,0.1049
1174.0,0.06482
1175.0,0.1054
1176.0,0.1225
1177.0,0.113
1178.0,0.07707
1179.0,0.1234
1180.0,0.1031
1181.0,0.1066
1182.0,0.0646
1183.0,0.1064
1184.0,0.09661
1185.0,0.09036
1186.0,0.1168
1187.0,0.1081
1188.0,0.06392
1189.0,0.1003
1190.0,0.1149
1191.0,0.1027
1192.0,0.1171
1193.0,0.1101
1194.0,0.1149
1195.0,0.1043
1196.0,0.09816
1197.0,0.1166
1198.0,0.1049
1199.0,0.08054
1200.0,0.1086
1201.0,0.1015
1202.0,0.1038
1203.0,0.101
1204.0,0.0849
1205.0,0.1085
1206.0,0.1242
1207.0,0.1022
1208.0,0.1032
1209.0,0.1058
1210.0,0.1122
1211.0,0.1039
1212.0,0.09748
1213.0,0.1176
1214.0,0.1016
1215.0,0.0993
1216.0,0.1178
1217.0,0.113
1218.0,0.1167
1219.0,0.1141
1220.0,0.117
1221.0,0.1193
1222.0,0.1155
1223.0,0.1136
1224.0,0.111
1225.0,0.1181
1226.0,0.1203
1227.0,0.1062
1228.0,0.122
1229.0,0.1204
1230.0,0.1174
1231.0,0.1239
1232.0,0.123
1233.0,0.1147
1234.0,0.1247
1235.0,0.1232
1236.0,0.1246
1237.0,0.1213
1238.0,0.1242
1239.0,0.1226
1240.0,0.1233
1241.0,0.1216
1242.0,0.1223
1243.0,0.1214
1244.0,0.1219
1245.0,0.1226
1246.0,0.122
1247.0,0.1212
1248.0,0.1206
1249.0,0.1214
1250.0,0.1204
1251.0,0.1181
1252.0,0.119
1253.0,0.1165
1254.0,0.1142
1255.0,0.1185
1256.0,0.1123
1257.0,0.1111
1258.0,0.1154
1259.0,0.1069
1260.0,0.108
1261.0,0.09663
1262.0,0.09104
1263.0,0.09108
1264.0,0.07819
1265.0,0.09059
1266.0,0.08364
1267.0,0.08756
1268.0,0.07919
1269.0,0.0298
1270.0,0.08628
1271.0,0.09701
1272.0,0.09786
1273.0,0.09622
1274.0,0.09735
1275.0,0.0997
1276.0,0.1017
1277.0,0.1038
1278.0,0.1079
1279.0,0.1068
1280.0,0.1056
1281.0,0.1018
1282.0,0.09972
1283.0,0.1071
1284.0,0.1093
1285.0,0.1103
1286.0,0.1127
1287.0,0.1093
1288.0,0.1098
1289.0,0.103
1290.0,0.109
1291.0,0.1111
1292.0,0.09848
1293.0,0.1076
1294.0,0.1066
1295.0,0.104
1296.0,0.09581
1297.0,0.08821
1298.0,0.1004
1299.0,0.1083
1300.0,0.08284
1301.0,0.08681
1302.0,0.1003
1303.0,0.08255
1304.0,0.06274
1305.0,0.09782
1306.0,0.09683
1307.0,0.06691
1308.0,0.08404
1309.0,0.09462
1310.0,0.06485
1311.0,0.07871
1312.0,0.07563
1313.0,0.07208
1314.0,0.06167
1315.0,0.05927
1316.0,0.07596
1317.0,0.07076
1318.0,0.0803
1319.0,0.05368
1320.0,0.05365
1321.0,0.0658
1322.0,0.06469
1323.0,0.04157
1324.0,0.05306
1325.0,0.07371
1326.0,0.05884
1327.0,0.05479
1328.0,0.04468
1329.0,0.02766
1330.0,0.03924
1331.0,0.01787
1332.0,0.01995
1333.0,0.02883
1334.0,0.02853
1335.0,0.04066
1336.0,0.02861
1337.0,0.02462
1338.0,0.02617
1339.0,0.02677
1340.0,0.02781
1341.0,0.02292
1342.0,0.02469
1343.0,0.011
1344.0,0.007143
1345.0,0.009743
1346.0,0.002555
1347.0,0.002261
1348.0,4.294e-05
1349.0,0.0001986
1350.0,0.0002446
1351.0,1.991e-05
1352.0,1.677e-06
1353.0,6.067e-08
1354.0,2.822e-07
1355.0,1.406e-09
1356.0,2.946e-08
1357.0,4.448e-08
1358.0,1.657e-09
1359.0,2.026e-10
1360.0,7.399e-10
1361.0,8.175e-13
1362.0,2.236e-15
1363.0,9.852e-10
1364.0,4.075e-10
1365.0,7.807e-16
1366.0,4.28e-09
1367.0,1.766e-09
1368.0,6.028e-18
1369.0,1.502e-10
1370.0,7.372e-11
1371.0,4.175e-12
1372.0,9.607e-10
1373.0,2.061e-08
1374.0,1.114e-07
1375.0,1.861e-07
1376.0,2.543e-07
1377.0,1.086e-07
1378.0,1.063e-06
1379.0,4.74e-08
1380.0,5.062e-08
1381.0,1.257e-09
1382.0,8.375e-10
1383.0,1.246e-11
1384.0,1.624e-10
1385.0,8.218e-10
1386.0,7.323e-10
1387.0,9.553e-08
1388.0,2.133e-09
1389.0,4.234e-07
1390.0,3.42e-07
1391.0,2.29e-07
1392.0,1.523e-08
1393.0,9.423e-08
1394.0,3.193e-08
1395.0,2.276e-10
1396.0,1.064e-12
1397.0,3.256e-08
1398.0,1.055e-06
1399.0,7.024e-07
1400.0,4.55e-13
1401.0,1.888e-12
1402.0,6.899e-06
1403.0,6.121e-06
1404.0,1.542e-06
1405.0,1.056e-10
1406.0,2.545e-06
1407.0,4.711e-07
1408.0,2.272e-06
1409.0,4.787e-07
1410.0,6.481e-07
1411.0,5.793e-06
1412.0,1.161e-05
1413.0,0.0002955
1414.0,5.72e-07
1415.0,2.165e-07
1416.0,0.001202
1417.0,0.000201
1418.0,0.0001448
1419.0,1.965e-05
1420.0,8.683e-05
1421.0,0.0001361
1422.0,0.00156
1423.0,0.0002751
1424.0,0.0006279
1425.0,0.0007154
