interpolation:linear
wavelength,value
280.0,2.094e-20
280.5,6.099e-19
281.0,3.143e-18
281.5,4.142e-19
282.0,1.644e-18
282.5,4.561e-18
283.0,1.506e-17
283.5,2.479e-17
284.0,3.939e-16
284.5,1.117e-15
285.0,1.962e-15
285.5,1.107e-14
286.0,4.594e-14
286.5,2.122e-13
287.0,6.14e-13
287.5,2.362e-12
288.0,6.845e-12
288.5,2.626e-11
289.0,8.511e-11
289.5,3.073e-10
290.0,9.721e-10
290.5,2.199e-09
291.0,5.301e-09
291.5,1.748e-08
292.0,4.777e-08
292.5,7.575e-08
293.0,1.903e-07
293.5,5.787e-07
294.0,1.07e-06
294.5,1.422e-06
295.0,2.834e-06
295.5,7.272e-06
296.0,1.413e-05
296.5,1.99e-05
297.0,2.708e-05
297.5,7.313e-05
298.0,0.0001159
298.5,0.0001171
299.0,0.0002592
299.5,0.0004328
300.0,0.000478
300.5,0.0006955
301.0,0.001268
301.5,0.00204
302.0,0.001757
302.5,0.003353
303.0,0.005838
303.5,0.007203
304.0,0.006668
304.5,0.009566
305.0,0.01372
305.5,0.01518
306.0,0.0145
306.5,0.01766
307.0,0.02494
307.5,0.03164
308.0,0.03317
308.5,0.03829
309.0,0.03713
309.5,0.04116
310.0,0.04074
310.5,0.0655
311.0,0.08121
311.5,0.07797
312.0,0.07588
312.5,0.09067
313.0,0.09741
313.5,0.09543
314.0,0.1167
314.5,0.1005
315.0,0.1314
315.5,0.1115
316.0,0.09507
316.5,0.1337
317.0,0.1661
317.5,0.1739
318.0,0.1337
318.5,0.1616
319.0,0.1891
319.5,0.1576
320.0,0.1911
320.5,0.2325
321.0,0.2019
321.5,0.1931
322.0,0.2114
322.5,0.1837
323.0,0.1797
323.5,0.2172
324.0,0.2529
324.5,0.2585
325.0,0.2254
325.5,0.2858
326.0,0.348
326.5,0.3452
327.0,0.3452
327.5,0.3349
328.0,0.302
328.5,0.3125
329.0,0.3697
329.5,0.4181
330.0,0.423
330.5,0.3417
331.0,0.3493
331.5,0.3525
332.0,0.377
332.5,0.3711
333.0,0.3711
333.5,0.3384
334.0,0.3471
334.5,0.397
335.0,0.3713
335.5,0.4336
336.0,0.3
336.5,0.3522
337.0,0.29
337.5,0.3611
338.0,0.3501
338.5,0.404
339.0,0.3998
339.5,0.3846
340.0,0.4521
340.5,0.4072
341.0,0.3972
341.5,0.3646
342.0,0.4357
342.5,0.4075
343.0,0.4483
343.5,0.4222
344.0,0.3119
344.5,0.3152
345.0,0.4169
345.5,0.4256
346.0,0.3616
346.5,0.4095
347.0,0.4396
347.5,0.3555
348.0,0.4052
348.5,0.4049
349.0,0.3756
349.5,0.3719
350.0,0.46
350.5,0.4852
351.0,0.4335
351.5,0.4214
352.0,0.4525
352.5,0.3531
353.0,0.4447
353.5,0.4755
354.0,0.4936
354.5,0.5006
355.0,0.499
355.5,0.4507
356.0,0.4716
356.5,0.4027
357.0,0.3327
357.5,0.4074
358.0,0.3228
358.5,0.2759
359.0,0.3859
359.5,0.4919
360.0,0.5214
360.5,0.4167
361.0,0.3799
361.5,0.4374
362.0,0.3782
362.5,0.5234
363.0,0.4701
363.5,0.433
364.0,0.5296
364.5,0.4527
365.0,0.461
365.5,0.5787
366.0,0.6131
366.5,0.5761
367.0,0.561
367.5,0.5822
368.0,0.5095
368.5,0.5142
369.0,0.5553
369.5,0.5919
370.0,0.631
370.5,0.4897
371.0,0.5233
371.5,0.6547
372.0,0.4346
372.5,0.5211
373.0,0.5301
373.5,0.3449
374.0,0.5012
374.5,0.4151
375.0,0.4035
375.5,0.6025
376.0,0.4995
376.5,0.5176
377.0,0.5481
377.5,0.6412
378.0,0.6951
378.5,0.6571
379.0,0.5423
379.5,0.4954
380.0,0.5151
380.5,0.6239
381.0,0.6252
381.5,0.4956
382.0,0.4402
382.5,0.3753
383.0,0.3474
383.5,0.3346
384.0,0.3692
384.5,0.543
385.0,0.5385
385.5,0.5015
386.0,0.4296
386.5,0.5643
387.0,0.4689
387.5,0.5267
388.0,0.4864
388.5,0.4808
389.0,0.519
389.5,0.6287
390.0,0.631
390.5,0.5807
391.0,0.6836
391.5,0.6973
392.0,0.5873
392.5,0.5258
393.0,0.2926
393.5,0.2127
394.0,0.4329
394.5,0.5504
395.0,0.6716
395.5,0.6823
396.0,0.5916
396.5,0.3458
397.0,0.2596
397.5,0.5279
398.0,0.7393
398.5,0.7642
399.0,0.8275
399.5,0.8248
400.0,0.8566
401.0,0.8699
402.0,0.9178
403.0,0.8719
404.0,0.8586
405.0,0.8585
406.0,0.8445
407.0,0.8309
408.0,0.8635
409.0,0.9242
410.0,0.8076
411.0,0.8748
412.0,0.9395
413.0,0.9163
414.0,0.9275
415.0,0.93
416.0,0.9462
417.0,0.923
418.0,0.906
419.0,0.9179
420.0,0.9139
421.0,0.956
422.0,0.9087
423.0,0.8877
424.0,0.9389
425.0,0.9372
426.0,0.9128
427.0,0.8958
428.0,0.8726
429.0,0.8264
430.0,0.7232
431.0,0.7169
432.0,0.9256
433.0,0.9307
434.0,0.8642
435.0,0.9026
436.0,1.017
437.0,1.003
438.0,0.9134
439.0,0.9449
440.0,0.9749
441.0,1.01
442.0,1.083
443.0,1.055
444.0,1.078
445.0,1.055
446.0,1.007
447.0,1.088
448.0,1.105
449.0,1.109
450.0,1.14
451.0,1.182
452.0,1.139
453.0,1.071
454.0,1.118
455.0,1.125
456.0,1.152
457.0,1.171
458.0,1.131
459.0,1.125
460.0,1.128
461.0,1.154
462.0,1.163
463.0,1.155
464.0,1.136
465.0,1.121
466.0,1.132
467.0,1.111
468.0,1.124
469.0,1.13
470.0,1.094
471.0,1.093
472.0,1.152
473.0,1.137
474.0,1.138
475.0,1.148
476.0,1.115
477.0,1.118
478.0,1.149
479.0,1.142
480.0,1.144
481.0,1.165
482.0,1.17
483.0,1.156
484.0,1.132
485.0,1.078
486.0,0.9425
487.0,0.9876
488.0,1.084
489.0,1.087
490.0,1.143
491.0,1.124
492.0,1.061
493.0,1.096
494.0,1.107
495.0,1.116
496.0,1.123
497.0,1.14
498.0,1.087
499.0,1.101
500.0,1.069
501.0,1.05
502.0,1.035
503.0,1.078
504.0,1.052
505.0,1.088
506.0,1.124
507.0,1.069
508.0,1.035
509.0,1.064
510.0,1.058
511.0,1.086
512.0,1.098
513.0,1.039
514.0,1.032
515.0,1.022
516.0,1.019
517.0,0.9057
518.0,0.9522
519.0,0.9988
520.0,1.035
521.0,1.045
522.0,1.046
523.0,1.027
524.0,1.064
525.0,1.077
526.0,1.029
527.0,0.9698
528.0,1.026
529.0,1.082
530.0,1.066
531.0,1.082
532.0,1.045
533.0,1.014
534.0,1.044
535.0,1.067
536.0,1.076
537.0,1.034
538.0,1.052
539.0,1.043
540.0,1.0
541.0,1.007
542.0,1.039
543.0,1.028
544.0,1.046
545.0,1.043
546.0,1.047
547.0,1.047
548.0,1.034
549.0,1.037
550.0,1.049
551.0,1.037
552.0,1.044
553.0,1.025
554.0,1.05
555.0,1.052
556.0,1.038
557.0,1.006
558.0,0.9987
559.0,0.9802
560.0,0.9926
561.0,1.006
562.0,0.9985
563.0,1.026
564.0,0.9983
565.0,0.9898
566.0,0.9754
567.0,0.9941
568.0,0.9858
569.0,0.9635
570.0,0.9631
571.0,0.957
572.0,0.9807
573.0,0.9913
574.0,0.9883
575.0,0.9701
576.0,0.9612
577.0,0.9716
578.0,0.9567
579.0,0.96
580.0,0.9775
581.0,0.9819
582.0,1.0
583.0,1.002
584.0,1.01
585.0,0.9856
586.0,0.9653
587.0,0.9868
588.0,0.9642
589.0,0.8569
590.0,0.8959
591.0,0.9464
592.0,0.9354
593.0,0.9481
594.0,0.942
595.0,0.9197
596.0,0.9538
597.0,0.944
598.0,0.9409
599.0,0.9414
600.0,0.9423
601.0,0.9342
602.0,0.9278
603.0,0.9429
604.0,0.9584
605.0,0.9534
606.0,0.9492
607.0,0.9584
608.0,0.9476
609.0,0.949
610.0,0.942
611.0,0.9468
612.0,0.9439
613.0,0.9319
614.0,0.919
615.0,0.9389
616.0,0.9078
617.0,0.9058
618.0,0.9406
619.0,0.931
620.0,0.9369
621.0,0.938
622.0,0.9272
623.0,0.9132
624.0,0.8974
625.0,0.8954
626.0,0.9087
627.0,0.9193
628.0,0.8641
629.0,0.8995
630.0,0.879
631.0,0.8969
632.0,0.8858
633.0,0.912
634.0,0.9025
635.0,0.9163
636.0,0.9038
637.0,0.9183
638.0,0.9267
639.0,0.9161
640.0,0.907
641.0,0.9062
642.0,0.9019
643.0,0.914
644.0,0.9108
645.0,0.9124
646.0,0.8918
647.0,0.8827
648.0,0.8837
649.0,0.8667
650.0,0.869
651.0,0.9062
652.0,0.8706
653.0,0.8941
654.0,0.884
655.0,0.8521
656.0,0.7545
657.0,0.7747
658.0,0.8676
659.0,0.8736
660.0,0.8771
661.0,0.8832
662.0,0.8854
663.0,0.8677
664.0,0.8774
665.0,0.8777
666.0,0.8782
667.0,0.8772
668.0,0.8774
669.0,0.8908
670.0,0.8869
671.0,0.8866
672.0,0.8789
673.0,0.8921
674.0,0.8886
675.0,0.8805
676.0,0.8864
677.0,0.8776
678.0,0.88
679.0,0.8657
680.0,0.8726
681.0,0.8668
682.0,0.8657
683.0,0.864
684.0,0.8597
685.0,0.867
686.0,0.8619
687.0,0.5964
688.0,0.6874
689.0,0.6895
690.0,0.7193
691.0,0.7527
692.0,0.7767
693.0,0.7707
694.0,0.7643
695.0,0.793
696.0,0.7941
697.0,0.839
698.0,0.826
699.0,0.8087
700.0,0.799
701.0,0.7916
702.0,0.7962
703.0,0.7976
704.0,0.8217
705.0,0.8229
706.0,0.8217
707.0,0.8221
708.0,0.8239
709.0,0.8242
710.0,0.8246
711.0,0.8232
712.0,0.8203
713.0,0.8124
714.0,0.8154
715.0,0.7905
716.0,0.7912
717.0,0.6951
718.0,0.6399
719.0,0.587
720.0,0.6156
721.0,0.6741
722.0,0.7653
723.0,0.7155
724.0,0.6482
725.0,0.639
726.0,0.6683
727.0,0.6757
728.0,0.6378
729.0,0.6585
730.0,0.6968
731.0,0.6676
732.0,0.7108
733.0,0.7492
734.0,0.7661
735.0,0.7507
736.0,0.7497
737.0,0.7528
738.0,0.7622
739.0,0.7473
740.0,0.7661
741.0,0.7581
742.0,0.7584
743.0,0.7776
744.0,0.7751
745.0,0.7751
746.0,0.7786
747.0,0.7803
748.0,0.7787
749.0,0.7698
750.0,0.7693
751.0,0.7615
752.0,0.7647
753.0,0.7685
754.0,0.7703
755.0,0.7659
756.0,0.7656
757.0,0.7667
758.0,0.7572
759.0,0.7431
760.0,0.1464
761.0,0.08145
762.0,0.4038
763.0,0.2152
764.0,0.3117
765.0,0.4039
766.0,0.4849
767.0,0.6008
768.0,0.6847
769.0,0.6971
770.0,0.7186
771.0,0.7235
772.0,0.7247
773.0,0.7297
774.0,0.7261
775.0,0.7205
776.0,0.7293
777.0,0.7196
778.0,0.7153
779.0,0.7159
780.0,0.7118
781.0,0.7126
782.0,0.717
783.0,0.7045
784.0,0.7078
785.0,0.7027
786.0,0.7105
787.0,0.699
788.0,0.6907
789.0,0.6906
790.0,0.6735
791.0,0.6781
792.0,0.6729
793.0,0.6622
794.0,0.6721
795.0,0.6838
796.0,0.6646
797.0,0.6655
798.0,0.6832
799.0,0.6792
800.0,0.6678
801.0,0.6661
802.0,0.6642
803.0,0.6594
804.0,0.6601
805.0,0.6575
806.0,0.6751
807.0,0.6671
808.0,0.6676
809.0,0.6558
810.0,0.6509
811.0,0.6526
812.0,0.6351
813.0,0.6227
814.0,0.552
815.0,0.5484
816.0,0.511
817.0,0.5199
818.0,0.5014
819.0,0.5569
820.0,0.5259
821.0,0.6098
822.0,0.5931
823.0,0.4112
824.0,0.5776
825.0,0.5994
826.0,0.5781
827.0,0.6085
828.0,0.5204
829.0,0.5743
830.0,0.5673
831.0,0.5691
832.0,0.5524
833.0,0.5855
834.0,0.5662
835.0,0.6189
836.0,0.5944
837.0,0.6205
838.0,0.6021
839.0,0.611
840.0,0.6241
841.0,0.6156
842.0,0.6164
843.0,0.6155
844.0,0.6072
845.0,0.6273
846.0,0.6245
847.0,0.6127
848.0,0.6091
849.0,0.5918
850.0,0.567
851.0,0.6006
852.0,0.5962
853.0,0.5737
854.0,0.4955
855.0,0.5441
856.0,0.5948
857.0,0.6079
858.0,0.6034
859.0,0.6039
860.0,0.6049
861.0,0.6016
862.0,0.611
863.0,0.6254
864.0,0.5942
865.0,0.5889
866.0,0.5296
867.0,0.5526
868.0,0.6013
869.0,0.5889
870.0,0.6056
871.0,0.5974
872.0,0.5953
873.0,0.5941
874.0,0.587
875.0,0.5751
876.0,0.5811
877.0,0.587
878.0,0.5934
879.0,0.5843
880.0,0.5717
881.0,0.5633
882.0,0.5755
883.0,0.5772
884.0,0.5746
885.0,0.5789
886.0,0.5521
887.0,0.5577
888.0,0.5661
889.0,0.5722
890.0,0.5678
891.0,0.5666
892.0,0.5508
893.0,0.5341
894.0,0.5165
895.0,0.4895
896.0,0.4617
897.0,0.3986
898.0,0.4339
899.0,0.3323
900.0,0.443
901.0,0.3483
902.0,0.4056
903.0,0.4106
904.0,0.5126
905.0,0.4956
906.0,0.4643
907.0,0.3801
908.0,0.3872
909.0,0.4181
910.0,0.3722
911.0,0.3952
912.0,0.4127
913.0,0.3778
914.0,0.3742
915.0,0.4055
916.0,0.3439
917.0,0.4339
918.0,0.3526
919.0,0.4411
920.0,0.4443
921.0,0.4619
922.0,0.4146
923.0,0.4461
924.0,0.4251
925.0,0.4159
926.0,0.4204
927.0,0.4691
928.0,0.3486
929.0,0.3193
930.0,0.2527
931.0,0.2391
932.0,0.1739
933.0,0.1422
934.0,0.07982
935.0,0.1448
936.0,0.09157
937.0,0.09294
938.0,0.1139
939.0,0.2317
940.0,0.2776
941.0,0.211
942.0,0.2434
943.0,0.1613
944.0,0.1687
945.0,0.2173
946.0,0.1122
947.0,0.2187
948.0,0.1609
949.0,0.2913
950.0,0.08324
951.0,0.2865
952.0,0.1559
953.0,0.2001
954.0,0.2439
955.0,0.2022
956.0,0.1955
957.0,0.1563
958.0,0.2751
959.0,0.2201
960.0,0.2466
961.0,0.2756
962.0,0.2609
963.0,0.2998
964.0,0.2749
965.0,0.2986
966.0,0.2988
967.0,0.2977
968.0,0.3955
969.0,0.4134
970.0,0.3801
971.0,0.4335
972.0,0.415
973.0,0.3629
974.0,0.3447
975.0,0.3572
976.0,0.34
977.0,0.3852
978.0,0.3667
979.0,0.3836
980.0,0.3609
981.0,0.431
982.0,0.4126
983.0,0.3965
984.0,0.4434
985.0,0.4111
986.0,0.4508
987.0,0.4424
988.0,0.4416
989.0,0.4492
990.0,0.4389
991.0,0.4506
992.0,0.4531
993.0,0.4435
994.0,0.453
995.0,0.4523
996.0,0.4504
997.0,0.451
998.0,0.4489
999.0,0.4473
1000.0,0.4442
1001.0,0.4496
1002.0,0.4376
1003.0,0.4417
1004.0,0.431
1005.0,0.4151
1006.0,0.4314
1007.0,0.4405
1008.0,0.4382
1009.0,0.4359
1010.0,0.4341
1011.0,0.4382
1012.0,0.4345
1013.0,0.4371
1014.0,0.4341
1015.0,0.4312
1016.0,0.4293
1017.0,0.4304
1018.0,0.4287
1019.0,0.4197
1020.0,0.4265
1021.0,0.4259
1022.0,0.4226
1023.0,0.4271
1024.0,0.4217
1025.0,0.4268
1026.0,0.425
1027.0,0.424
1028.0,0.4231
1029.0,0.4181
1030.0,0.4209
1031.0,0.4193
1032.0,0.418
1033.0,0.4118
1034.0,0.4118
1035.0,0.413
1036.0,0.4152
1037.0,0.4085
1038.0,0.4103
1039.0,0.41
1040.0,0.4084
1041.0,0.41
1042.0,0.4072
1043.0,0.4059
1044.0,0.4073
1045.0,0.4018
1046.0,0.3974
1047.0,0.401
1048.0,0.4032
1049.0,0.4017
1050.0,0.3999
1051.0,0.3993
1052.0,0.3977
1053.0,0.3946
1054.0,0.3954
1055.0,0.3957
1056.0,0.3943
1057.0,0.3931
1058.0,0.3835
1059.0,0.3839
1060.0,0.3833
1061.0,0.3829
1062.0,0.3849
1063.0,0.3811
1064.0,0.3856
1065.0,0.3829
1066.0,0.3753
1067.0,0.3802
1068.0,0.3719
1069.0,0.3604
1070.0,0.3727
1071.0,0.3783
1072.0,0.3741
1073.0,0.3687
1074.0,0.378
1075.0,0.3595
1076.0,0.3777
1077.0,0.3712
1078.0,0.3643
1079.0,0.3716
1080.0,0.3655
1081.0,0.354
1082.0,0.3593
1083.0,0.3603
1084.0,0.3532
1085.0,0.3663
1086.0,0.3349
1087.0,0.3452
1088.0,0.36
1089.0,0.3494
1090.0,0.3419
1091.0,0.359
1092.0,0.358
1093.0,0.3046
1094.0,0.3277
1095.0,0.3172
1096.0,0.3041
1097.0,0.3496
1098.0,0.2995
1099.0,0.3122
1100.0,0.2907
1101.0,0.2942
1102.0,0.2813
1103.0,0.2788
1104.0,0.2791
1105.0,0.3052
1106.0,0.2354
1107.0,0.2902
1108.0,0.2472
1109.0,0.2474
1110.0,0.2878
1111.0,0.1968
1112.0,0.2454
1113.0,0.1578
1114.0,0.1762
1115.0,0.1461
1116.0,0.1176
1117.0,0.04414
1118.0,0.1276
1119.0,0.06407
1120.0,0.0807
1121.0,0.1066
1122.0,0.04552
1123.0,0.07289
1124.0,0.06154
1125.0,0.0801
1126.0,0.02851
1127.0,0.09029
1128.0,0.0547
1129.0,0.05795
1130.0,0.03839
1131.0,0.1696
1132.0,0.1334
1133.0,0.08539
1134.0,0.02232
1135.0,0.008337
1136.0,0.07154
1137.0,0.1669
1138.0,0.1177
1139.0,0.1739
1140.0,0.1459
1141.0,0.1119
1142.0,0.1284
1143.0,0.1816
1144.0,0.06426
1145.0,0.08234
1146.0,0.08881
1147.0,0.03188
1148.0,0.1572
1149.0,0.126
1150.0,0.06904
1151.0,0.1168
1152.0,0.1432
1153.0,0.1391
1154.0,0.0799
1155.0,0.1814
1156.0,0.1637
1157.0,0.1831
1158.0,0.1811
1159.0,0.1949
1160.0,0.1671
1161.0,0.2047
1162.0,0.2058
1163.0,0.2757
1164.0,0.2373
1165.0,0.2247
1166.0,0.2226
1167.0,0.242
1168.0,0.2448
1169.0,0.2503
1170.0,0.2713
1171.0,0.2647
1172.0,0.269
1173.0,0.2707
1174.0,0.1955
1175.0,0.2641
1176.0,0.2892
1177.0,0.2784
1178.0,0.2108
1179.0,0.2915
1180.0,0.2615
1181.0,0.2697
1182.0,0.188
1183.0,0.2653
1184.0,0.2493
1185.0,0.2411
1186.0,0.2839
1187.0,0.271
1188.0,0.1914
1189.0,0.2526
1190.0,0.2774
1191.0,0.2645
1192.0,0.2812
1193.0,0.2698
1194.0,0.2778
1195.0,0.2636
1196.0,0.2543
1197.0,0.2776
1198.0,0.2545
1199.0,0.2183
1200.0,0.2665
1201.0,0.2577
1202.0,0.2558
1203.0,0.2537
1204.0,0.2228
1205.0,0.2612
1206.0,0.2875
1207.0,0.2553
1208.0,0.2507
1209.0,0.2557
1210.0,0.266
1211.0,0.254
1212.0,0.2518
1213.0,0.2784
1214.0,0.2575
1215.0,0.2528
1216.0,0.2775
1217.0,0.2705
1218.0,0.2753
1219.0,0.2721
1220.0,0.2755
1221.0,0.278
1222.0,0.271
1223.0,0.2687
1224.0,0.2673
1225.0,0.2763
1226.0,0.2779
1227.0,0.2573
1228.0,0.2791
1229.0,0.2779
1230.0,0.2734
1231.0,0.2805
1232.0,0.2789
1233.0,0.2701
1234.0,0.2801
1235.0,0.2784
1236.0,0.2804
1237.0,0.2768
1238.0,0.2794
1239.0,0.2758
1240.0,0.2768
1241.0,0.2757
1242.0,0.275
1243.0,0.2727
1244.0,0.2747
1245.0,0.2759
1246.0,0.2742
1247.0,0.2732
1248.0,0.2731
1249.0,0.2739
1250.0,0.2723
1251.0,0.2689
1252.0,0.2688
1253.0,0.2669
1254.0,0.2645
1255.0,0.2686
1256.0,0.2616
1257.0,0.2603
1258.0,0.2647
1259.0,0.2559
1260.0,0.2572
1261.0,0.2438
1262.0,0.237
1263.0,0.2374
1264.0,0.2204
1265.0,0.2359
1266.0,0.2277
1267.0,0.2312
1268.0,0.2201
1269.0,0.1418
1270.0,0.2306
1271.0,0.2428
1272.0,0.2435
1273.0,0.241
1274.0,0.2416
1275.0,0.2449
1276.0,0.2471
1277.0,0.2485
1278.0,0.2529
1279.0,0.2507
1280.0,0.2475
1281.0,0.2359
1282.0,0.227
1283.0,0.2446
1284.0,0.2505
1285.0,0.2521
1286.0,0.2553
1287.0,0.2517
1288.0,0.2515
1289.0,0.2442
1290.0,0.2493
1291.0,0.2527
1292.0,0.2385
1293.0,0.248
1294.0,0.2463
1295.0,0.2454
1296.0,0.2351
1297.0,0.223
1298.0,0.2388
1299.0,0.2482
1300.0,0.2121
1301.0,0.2182
1302.0,0.238
1303.0,0.2091
1304.0,0.1802
1305.0,0.2332
1306.0,0.2334
1307.0,0.1834
1308.0,0.2091
1309.0,0.2318
1310.0,0.18
1311.0,0.2009
1312.0,0.1958
1313.0,0.1923
1314.0,0.1728
1315.0,0.1709
1316.0,0.198
1317.0,0.1878
1318.0,0.2034
1319.0,0.1611
1320.0,0.1556
1321.0,0.1805
1322.0,0.1827
1323.0,0.1391
1324.0,0.158
1325.0,0.1953
1326.0,0.1687
1327.0,0.1612
1328.0,0.1395
1329.0,0.1061
1330.0,0.1375
1331.0,0.08451
1332.0,0.08675
1333.0,0.1204
1334.0,0.1013
1335.0,0.1386
1336.0,0.1104
1337.0,0.09802
1338.0,0.1061
1339.0,0.1054
1340.0,0.1021
1341.0,0.1006
1342.0,0.1056
1343.0,0.07329
1344.0,0.04379
1345.0,0.06304
1346.0,0.03245
1347.0,0.03318
1348.0,0.002361
1349.0,0.008261
1350.0,0.008421
1351.0,0.002224
1352.0,0.0006578
1353.0,3.715e-05
1354.0,0.00012
1355.0,1.192e-06
1356.0,1.829e-05
1357.0,2.779e-05
1358.0,1.4e-06
1359.0,2.064e-07
1360.0,6.774e-07
1361.0,1.057e-09
1362.0,3.346e-12
1363.0,9.603e-07
1364.0,4.019e-07
1365.0,1.408e-12
1366.0,4.028e-06
1367.0,1.608e-06
1368.0,1.56e-14
1369.0,1.517e-07
1370.0,7.994e-08
1371.0,4.932e-09
1372.0,8.85e-07
1373.0,1.608e-05
1374.0,6.957e-05
1375.0,0.0001268
1376.0,0.0001076
1377.0,5.01e-05
1378.0,0.0004748
1379.0,2.112e-05
1380.0,3.178e-05
1381.0,8.69e-07
1382.0,8.133e-07
1383.0,1.297e-08
1384.0,1.761e-07
1385.0,7.15e-07
1386.0,7.587e-07
1387.0,7.534e-05
1388.0,1.496e-06
1389.0,0.0002365
1390.0,0.0002037
1391.0,0.0001381
1392.0,9.214e-06
1393.0,4.703e-05
1394.0,2.727e-05
1395.0,2.185e-07
1396.0,1.457e-09
1397.0,1.929e-05
1398.0,0.0005374
1399.0,0.0003405
1400.0,6.869e-10
1401.0,2.541e-09
1402.0,0.0008625
1403.0,0.001103
1404.0,0.0003389
1405.0,1.126e-07
1406.0,0.0009082
1407.0,7.871e-05
1408.0,0.0007393
1409.0,0.0002613
1410.0,0.0002026
1411.0,0.000967
1412.0,0.001274
1413.0,0.01227
1414.0,0.0001589
1415.0,7.817e-05
1416.0,0.01951
1417.0,0.006083
1418.0,0.006954
1419.0,0.001087
1420.0,0.004261
1421.0,0.004611
1422.0,0.02543
1423.0,0.004971
1424.0,0.009277
1425.0,0.01372
1426.0,0.01542
1427.0,0.02803
1428.0,0.002233
1429.0,0.0211
1430.0,0.03564
1431.0,0.03907
1432.0,0.001762
1433.0,0.02495
1434.0,0.01273
1435.0,0.01289
1436.0,0.02463
1437.0,0.01887
1438.0,0.008034
1439.0,0.0334
1440.0,0.02503
1441.0,0.01917
1442.0,0.02125
1443.0,0.02655
1444.0,0.03673
1445.0,0.02883
1446.0,0.01299
1447.0,0.02047
