interpolation:linear
wavelength,value
280.0,4.44e-22
280.5,5.908e-21
281.0,2.4750000000000003e-20
281.5,4.555e-19
282.0,2.753e-18
282.5,8.859e-18
283.0,3.274e-17
283.5,5.619e-17
284.0,1.039e-15
284.5,3.106e-15
285.0,9.079e-15
285.5,6.219e-14
286.0,2.752e-13
286.5,1.434e-12
287.0,4.477e-12
287.5,1.88e-11
288.0,6.604e-11
288.5,2.547e-10
289.0,8.299e-10
289.5,3.01e-09
290.0,9.566e-09
290.5,2.172e-08
291.0,5.26e-08
291.5,1.745e-07
292.0,4.097e-07
292.5,6.108e-07
293.0,1.41e-06
293.5,3.781e-06
294.0,6.371e-06
294.5,1.26e-05
295.0,2.294e-05
295.5,4.968e-05
296.0,8.968e-05
296.5,0.0001174
297.0,0.0001505
297.5,0.0003721
298.0,0.0005473
298.5,0.0005219
299.0,0.001092
299.5,0.001653
300.0,0.001727
300.5,0.002373
301.0,0.00394
301.5,0.005809
302.0,0.004777
302.5,0.008795
303.0,0.01464
303.5,0.01758
304.0,0.016
304.5,0.022
305.0,0.02981
305.5,0.03184
306.0,0.03
306.5,0.03574
307.0,0.04819
307.5,0.05857
308.0,0.06097
308.5,0.06893
309.0,0.06547
309.5,0.07043
310.0,0.06874
310.5,0.1097
311.0,0.1344
311.5,0.1284
312.0,0.1218
312.5,0.1432
313.0,0.1525
313.5,0.1505
314.0,0.1805
314.5,0.1514
315.0,0.1969
315.5,0.1691
316.0,0.1412
316.5,0.195
317.0,0.2423
317.5,0.2548
318.0,0.1936
318.5,0.2285
319.0,0.2643
319.5,0.2243
320.0,0.2726
320.5,0.3241
321.0,0.2756
321.5,0.263
322.0,0.2942
322.5,0.2552
323.0,0.2461
323.5,0.2932
324.0,0.3403
324.5,0.35
325.0,0.3076
325.5,0.3854
326.0,0.467
326.5,0.4596
327.0,0.4608
327.5,0.4485
328.0,0.4085
328.5,0.4175
329.0,0.489
329.5,0.5513
330.0,0.5589
330.5,0.4547
331.0,0.4658
331.5,0.4674
332.0,0.4958
332.5,0.4864
333.0,0.4871
333.5,0.4466
334.0,0.4584
334.5,0.5209
335.0,0.4852
335.5,0.5664
336.0,0.3918
336.5,0.4606
337.0,0.3802
337.5,0.4738
338.0,0.4569
338.5,0.527
339.0,0.5213
339.5,0.5013
340.0,0.5892
340.5,0.5303
341.0,0.5173
341.5,0.4747
342.0,0.5671
342.5,0.5303
343.0,0.5832
343.5,0.5492
344.0,0.4055
344.5,0.4097
345.0,0.5418
345.5,0.5528
346.0,0.4696
346.5,0.5315
347.0,0.5705
347.5,0.4612
348.0,0.5255
348.5,0.525
349.0,0.4868
349.5,0.4819
350.0,0.5958
350.5,0.6283
351.0,0.5612
351.5,0.5456
352.0,0.5856
352.5,0.4568
353.0,0.5751
353.5,0.6147
354.0,0.638
354.5,0.647
355.0,0.6447
355.5,0.5822
356.0,0.609
356.5,0.5199
357.0,0.4296
357.5,0.5258
358.0,0.4166
358.5,0.356
359.0,0.4979
359.5,0.6345
360.0,0.6725
360.5,0.5374
361.0,0.4897
361.5,0.5636
362.0,0.4871
362.5,0.6738
363.0,0.6049
363.5,0.557
364.0,0.681
364.5,0.582
365.0,0.5926
365.5,0.7436
366.0,0.7876
366.5,0.7397
367.0,0.7203
367.5,0.7474
368.0,0.6539
368.5,0.6597
369.0,0.7122
369.5,0.759
370.0,0.8089
370.5,0.6277
371.0,0.6706
371.5,0.8388
372.0,0.5567
372.5,0.6674
373.0,0.6787
373.5,0.4415
374.0,0.6414
374.5,0.5311
375.0,0.5162
375.5,0.7706
376.0,0.6387
376.5,0.6619
377.0,0.7006
377.5,0.8195
378.0,0.8883
378.5,0.8396
379.0,0.6929
379.5,0.6329
380.0,0.658
380.5,0.7968
381.0,0.7982
381.5,0.6326
382.0,0.5616
382.5,0.4786
383.0,0.443
383.5,0.4266
384.0,0.4705
384.5,0.692
385.0,0.6861
385.5,0.6388
386.0,0.547
386.5,0.7184
387.0,0.5969
387.5,0.6704
388.0,0.6189
388.5,0.6117
389.0,0.6602
389.5,0.7995
390.0,0.8023
390.5,0.7383
391.0,0.8689
391.5,0.8862
392.0,0.7463
392.5,0.668
393.0,0.3716
393.5,0.2701
394.0,0.5496
394.5,0.6986
395.0,0.8524
395.5,0.8659
396.0,0.7506
396.5,0.4387
397.0,0.3292
397.5,0.6694
398.0,0.9374
398.5,0.9688
399.0,1.049
399.5,1.045
400.0,1.085
401.0,1.104
402.0,1.164
403.0,1.105
404.0,1.088
405.0,1.088
406.0,1.07
407.0,1.052
408.0,1.093
409.0,1.17
410.0,1.022
411.0,1.106
412.0,1.188
413.0,1.158
414.0,1.172
415.0,1.175
416.0,1.195
417.0,1.165
418.0,1.143
419.0,1.158
420.0,1.153
421.0,1.205
422.0,1.146
423.0,1.119
424.0,1.183
425.0,1.181
426.0,1.149
427.0,1.128
428.0,1.098
429.0,1.04
430.0,0.9096
431.0,0.9017
432.0,1.164
433.0,1.17
434.0,1.086
435.0,1.134
436.0,1.277
437.0,1.259
438.0,1.146
439.0,1.186
440.0,1.224
441.0,1.267
442.0,1.359
443.0,1.324
444.0,1.352
445.0,1.323
446.0,1.262
447.0,1.363
448.0,1.385
449.0,1.389
450.0,1.428
451.0,1.48
452.0,1.426
453.0,1.341
454.0,1.399
455.0,1.408
456.0,1.441
457.0,1.465
458.0,1.415
459.0,1.408
460.0,1.412
461.0,1.444
462.0,1.454
463.0,1.444
464.0,1.419
465.0,1.401
466.0,1.414
467.0,1.388
468.0,1.404
469.0,1.412
470.0,1.367
471.0,1.365
472.0,1.438
473.0,1.419
474.0,1.422
475.0,1.435
476.0,1.393
477.0,1.398
478.0,1.436
479.0,1.427
480.0,1.429
481.0,1.454
482.0,1.461
483.0,1.442
484.0,1.412
485.0,1.345
486.0,1.175
487.0,1.231
488.0,1.351
489.0,1.355
490.0,1.425
491.0,1.4
492.0,1.322
493.0,1.365
494.0,1.379
495.0,1.39
496.0,1.399
497.0,1.42
498.0,1.354
499.0,1.372
500.0,1.332
501.0,1.308
502.0,1.291
503.0,1.345
504.0,1.314
505.0,1.358
506.0,1.402
507.0,1.334
508.0,1.291
509.0,1.327
510.0,1.319
511.0,1.354
512.0,1.368
513.0,1.295
514.0,1.285
515.0,1.273
516.0,1.27
517.0,1.128
518.0,1.186
519.0,1.244
520.0,1.289
521.0,1.302
522.0,1.303
523.0,1.28
524.0,1.326
525.0,1.343
526.0,1.283
527.0,1.209
528.0,1.28
529.0,1.349
530.0,1.33
531.0,1.35
532.0,1.304
533.0,1.266
534.0,1.303
535.0,1.331
536.0,1.343
537.0,1.289
538.0,1.312
539.0,1.301
540.0,1.247
541.0,1.257
542.0,1.297
543.0,1.282
544.0,1.305
545.0,1.301
546.0,1.308
547.0,1.306
548.0,1.29
549.0,1.294
550.0,1.309
551.0,1.293
552.0,1.302
553.0,1.279
554.0,1.31
555.0,1.312
556.0,1.296
557.0,1.256
558.0,1.247
559.0,1.224
560.0,1.24
561.0,1.256
562.0,1.248
563.0,1.282
564.0,1.248
565.0,1.238
566.0,1.22
567.0,1.244
568.0,1.235
569.0,1.209
570.0,1.208
571.0,1.2
572.0,1.231
573.0,1.244
574.0,1.241
575.0,1.219
576.0,1.207
577.0,1.22
578.0,1.201
579.0,1.204
580.0,1.224
581.0,1.229
582.0,1.251
583.0,1.252
584.0,1.262
585.0,1.231
586.0,1.206
587.0,1.233
588.0,1.208
589.0,1.078
590.0,1.127
591.0,1.188
592.0,1.176
593.0,1.189
594.0,1.183
595.0,1.156
596.0,1.195
597.0,1.184
598.0,1.178
599.0,1.179
600.0,1.179
601.0,1.168
602.0,1.159
603.0,1.178
604.0,1.197
605.0,1.191
606.0,1.185
607.0,1.196
608.0,1.182
609.0,1.184
610.0,1.174
611.0,1.18
612.0,1.176
613.0,1.161
614.0,1.145
615.0,1.169
616.0,1.13
617.0,1.127
618.0,1.17
619.0,1.158
620.0,1.166
621.0,1.167
622.0,1.154
623.0,1.137
624.0,1.117
625.0,1.115
626.0,1.131
627.0,1.146
628.0,1.088
629.0,1.125
630.0,1.099
631.0,1.118
632.0,1.104
633.0,1.135
634.0,1.122
635.0,1.138
636.0,1.122
637.0,1.14
638.0,1.149
639.0,1.136
640.0,1.124
641.0,1.122
642.0,1.117
643.0,1.132
644.0,1.127
645.0,1.129
646.0,1.105
647.0,1.097
648.0,1.099
649.0,1.078
650.0,1.077
651.0,1.122
652.0,1.082
653.0,1.107
654.0,1.094
655.0,1.057
656.0,0.9341
657.0,0.9589
658.0,1.073
659.0,1.08
660.0,1.084
661.0,1.091
662.0,1.095
663.0,1.072
664.0,1.083
665.0,1.083
666.0,1.083
667.0,1.081
668.0,1.081
669.0,1.098
670.0,1.093
671.0,1.092
672.0,1.082
673.0,1.098
674.0,1.094
675.0,1.084
676.0,1.091
677.0,1.08
678.0,1.083
679.0,1.065
680.0,1.073
681.0,1.066
682.0,1.065
683.0,1.063
684.0,1.058
685.0,1.066
686.0,1.06
687.0,0.7841
688.0,0.8798
689.0,0.8817
690.0,0.9119
691.0,0.9454
692.0,0.9686
693.0,0.962
694.0,0.9543
695.0,0.9842
696.0,0.9856
697.0,1.034
698.0,1.018
699.0,1.001
700.0,0.9894
701.0,0.9818
702.0,0.9856
703.0,0.9875
704.0,1.014
705.0,1.016
706.0,1.013
707.0,1.013
708.0,1.015
709.0,1.014
710.0,1.015
711.0,1.013
712.0,1.009
713.0,0.9997
714.0,1.003
715.0,0.9745
716.0,0.9759
717.0,0.8759
718.0,0.8101
719.0,0.7455
720.0,0.7828
721.0,0.8454
722.0,0.9469
723.0,0.8922
724.0,0.8159
725.0,0.807
726.0,0.8422
727.0,0.8475
728.0,0.8062
729.0,0.8256
730.0,0.873
731.0,0.8389
732.0,0.886
733.0,0.927
734.0,0.9461
735.0,0.928
736.0,0.9266
737.0,0.9307
738.0,0.938
739.0,0.9198
740.0,0.9415
741.0,0.9309
742.0,0.9305
743.0,0.9538
744.0,0.9503
745.0,0.9498
746.0,0.9542
747.0,0.9561
748.0,0.9541
749.0,0.9431
750.0,0.9425
751.0,0.9329
752.0,0.9369
753.0,0.9415
754.0,0.9436
755.0,0.9383
756.0,0.9378
757.0,0.9392
758.0,0.9277
759.0,0.9129
760.0,0.2398
761.0,0.148
762.0,0.5505
763.0,0.3291
764.0,0.4458
765.0,0.5509
766.0,0.6355
767.0,0.7627
768.0,0.8499
769.0,0.8611
770.0,0.883
771.0,0.8868
772.0,0.8876
773.0,0.8936
774.0,0.889
775.0,0.8821
776.0,0.8928
777.0,0.881
778.0,0.8757
779.0,0.8764
780.0,0.8714
781.0,0.8723
782.0,0.8776
783.0,0.8623
784.0,0.8663
785.0,0.8602
786.0,0.8699
787.0,0.8578
788.0,0.8485
789.0,0.8487
790.0,0.8307
791.0,0.8334
792.0,0.8268
793.0,0.8139
794.0,0.823
795.0,0.8381
796.0,0.8186
797.0,0.8197
798.0,0.8378
799.0,0.8336
800.0,0.8206
801.0,0.8194
802.0,0.8169
803.0,0.8114
804.0,0.8119
805.0,0.8076
806.0,0.8274
807.0,0.8181
808.0,0.8185
809.0,0.8053
810.0,0.8003
811.0,0.8042
812.0,0.7856
813.0,0.7721
814.0,0.6942
815.0,0.6895
816.0,0.6441
817.0,0.6539
818.0,0.6328
819.0,0.6942
820.0,0.659
821.0,0.7525
822.0,0.734
823.0,0.5282
824.0,0.7186
825.0,0.7404
826.0,0.7176
827.0,0.7515
828.0,0.6533
829.0,0.7121
830.0,0.7046
831.0,0.7064
832.0,0.6877
833.0,0.7232
834.0,0.703
835.0,0.7608
836.0,0.7353
837.0,0.7625
838.0,0.7418
839.0,0.7503
840.0,0.7659
841.0,0.7564
842.0,0.756
843.0,0.7535
844.0,0.7441
845.0,0.7677
846.0,0.764
847.0,0.7491
848.0,0.7454
849.0,0.7242
850.0,0.6937
851.0,0.7355
852.0,0.7299
853.0,0.7018
854.0,0.6066
855.0,0.6655
856.0,0.7277
857.0,0.7433
858.0,0.7381
859.0,0.7383
860.0,0.7393
861.0,0.7354
862.0,0.7468
863.0,0.7644
864.0,0.7262
865.0,0.7197
866.0,0.6472
867.0,0.6753
868.0,0.7349
869.0,0.7196
870.0,0.7401
871.0,0.73
872.0,0.7274
873.0,0.7259
874.0,0.7173
875.0,0.7028
876.0,0.7101
877.0,0.7172
878.0,0.7252
879.0,0.714
880.0,0.6987
881.0,0.6886
882.0,0.7037
883.0,0.7055
884.0,0.7024
885.0,0.7077
886.0,0.6761
887.0,0.682
888.0,0.6929
889.0,0.6993
890.0,0.6951
891.0,0.6931
892.0,0.6752
893.0,0.6568
894.0,0.6388
895.0,0.6101
896.0,0.5779
897.0,0.5055
898.0,0.5463
899.0,0.4269
900.0,0.5539
901.0,0.4469
902.0,0.5095
903.0,0.5193
904.0,0.634
905.0,0.6151
906.0,0.578
907.0,0.4831
908.0,0.4909
909.0,0.5252
910.0,0.4761
911.0,0.5005
912.0,0.5204
913.0,0.4837
914.0,0.4775
915.0,0.5163
916.0,0.4409
917.0,0.5463
918.0,0.4523
919.0,0.5534
920.0,0.5533
921.0,0.5739
922.0,0.5214
923.0,0.554
924.0,0.5347
925.0,0.5234
926.0,0.5291
927.0,0.5843
928.0,0.4515
929.0,0.4183
930.0,0.3388
931.0,0.3192
932.0,0.2401
933.0,0.2009
934.0,0.1224
935.0,0.2008
936.0,0.1329
937.0,0.1359
938.0,0.164
939.0,0.3093
940.0,0.3651
941.0,0.2852
942.0,0.3239
943.0,0.2207
944.0,0.2257
945.0,0.2924
946.0,0.1592
947.0,0.2963
948.0,0.2195
949.0,0.3862
950.0,0.124
951.0,0.3785
952.0,0.2172
953.0,0.2714
954.0,0.3229
955.0,0.2734
956.0,0.2611
957.0,0.219
958.0,0.3555
959.0,0.293
960.0,0.328
961.0,0.3602
962.0,0.3419
963.0,0.3871
964.0,0.357
965.0,0.3848
966.0,0.3866
967.0,0.3856
968.0,0.4932
969.0,0.5167
970.0,0.478
971.0,0.5368
972.0,0.5154
973.0,0.4592
974.0,0.4375
975.0,0.4499
976.0,0.4326
977.0,0.4816
978.0,0.462
979.0,0.4805
980.0,0.454
981.0,0.5332
982.0,0.5135
983.0,0.4952
984.0,0.5453
985.0,0.5114
986.0,0.5524
987.0,0.5442
988.0,0.5432
989.0,0.5492
990.0,0.5397
991.0,0.5511
992.0,0.5541
993.0,0.5443
994.0,0.5536
995.0,0.5526
996.0,0.5505
997.0,0.5511
998.0,0.5487
999.0,0.5466
1000.0,0.5433
1001.0,0.5494
1002.0,0.5368
1003.0,0.5399
1004.0,0.5273
1005.0,0.5071
1006.0,0.5274
1007.0,0.5383
1008.0,0.5358
1009.0,0.5335
1010.0,0.5315
1011.0,0.5355
1012.0,0.5313
1013.0,0.5341
1014.0,0.5303
1015.0,0.5269
1016.0,0.5246
1017.0,0.526
1018.0,0.5237
1019.0,0.5135
1020.0,0.5211
1021.0,0.5202
1022.0,0.5165
1023.0,0.5221
1024.0,0.5163
1025.0,0.5214
1026.0,0.5194
1027.0,0.5181
1028.0,0.5171
1029.0,0.5111
1030.0,0.5143
1031.0,0.5123
1032.0,0.5107
1033.0,0.5031
1034.0,0.5031
1035.0,0.5046
1036.0,0.5074
1037.0,0.4991
1038.0,0.5013
1039.0,0.5011
1040.0,0.4991
1041.0,0.5011
1042.0,0.4977
1043.0,0.4961
1044.0,0.4979
1045.0,0.4912
1046.0,0.4859
1047.0,0.4903
1048.0,0.4931
1049.0,0.4914
1050.0,0.4892
1051.0,0.4886
1052.0,0.4867
1053.0,0.4829
1054.0,0.4841
1055.0,0.4845
1056.0,0.483
1057.0,0.4816
1058.0,0.4699
1059.0,0.4706
1060.0,0.4699
1061.0,0.4694
1062.0,0.4721
1063.0,0.4675
1064.0,0.473
1065.0,0.4699
1066.0,0.4604
1067.0,0.4664
1068.0,0.4565
1069.0,0.4422
1070.0,0.4575
1071.0,0.4637
1072.0,0.459
1073.0,0.4523
1074.0,0.463
1075.0,0.4425
1076.0,0.4628
1077.0,0.456
1078.0,0.448
1079.0,0.4549
1080.0,0.449
1081.0,0.4359
1082.0,0.4406
1083.0,0.4414
1084.0,0.4356
1085.0,0.4498
1086.0,0.4148
1087.0,0.4249
1088.0,0.4414
1089.0,0.4304
1090.0,0.4228
1091.0,0.4407
1092.0,0.439
1093.0,0.3801
1094.0,0.4026
1095.0,0.3948
1096.0,0.3804
1097.0,0.4287
1098.0,0.3753
1099.0,0.3902
1100.0,0.3664
1101.0,0.3699
1102.0,0.3554
1103.0,0.3536
1104.0,0.3538
1105.0,0.382
1106.0,0.306
1107.0,0.3655
1108.0,0.3182
1109.0,0.3171
1110.0,0.3633
1111.0,0.2578
1112.0,0.314
1113.0,0.2118
1114.0,0.2352
1115.0,0.1954
1116.0,0.1635
1117.0,0.06872
1118.0,0.175
1119.0,0.09355
1120.0,0.1179
1121.0,0.1521
1122.0,0.06992
1123.0,0.1063
1124.0,0.0898
1125.0,0.1155
1126.0,0.04618
1127.0,0.1298
1128.0,0.08402
1129.0,0.08811
1130.0,0.06096
1131.0,0.2314
1132.0,0.1843
1133.0,0.1246
1134.0,0.03699
1135.0,0.01364
1136.0,0.1068
1137.0,0.2295
1138.0,0.1635
1139.0,0.2294
1140.0,0.1972
1141.0,0.1553
1142.0,0.1756
1143.0,0.2434
1144.0,0.09257
1145.0,0.1199
1146.0,0.1295
1147.0,0.05186
1148.0,0.2108
1149.0,0.1728
1150.0,0.09925
1151.0,0.1624
1152.0,0.1945
1153.0,0.1856
1154.0,0.1177
1155.0,0.2395
1156.0,0.2184
1157.0,0.2411
1158.0,0.2383
1159.0,0.2532
1160.0,0.221
1161.0,0.2639
1162.0,0.2658
1163.0,0.3449
1164.0,0.3011
1165.0,0.2888
1166.0,0.2836
1167.0,0.3062
1168.0,0.3105
1169.0,0.3161
1170.0,0.3395
1171.0,0.3317
1172.0,0.3353
1173.0,0.3387
1174.0,0.2534
1175.0,0.3292
1176.0,0.3564
1177.0,0.3457
1178.0,0.2684
1179.0,0.3591
1180.0,0.3266
1181.0,0.3364
1182.0,0.2416
1183.0,0.3299
1184.0,0.3123
1185.0,0.304
1186.0,0.3513
1187.0,0.3374
1188.0,0.2465
1189.0,0.315
1190.0,0.3433
1191.0,0.3307
1192.0,0.3475
1193.0,0.3348
1194.0,0.3439
1195.0,0.3286
1196.0,0.3186
1197.0,0.3422
1198.0,0.3157
1199.0,0.2763
1200.0,0.3309
1201.0,0.3217
1202.0,0.3183
1203.0,0.3158
1204.0,0.2806
1205.0,0.3234
1206.0,0.3529
1207.0,0.3183
1208.0,0.311
1209.0,0.3167
1210.0,0.3282
1211.0,0.3156
1212.0,0.315
1213.0,0.3429
1214.0,0.321
1215.0,0.3157
1216.0,0.3417
1217.0,0.3342
1218.0,0.3391
1219.0,0.3356
1220.0,0.3392
1221.0,0.3418
1222.0,0.3338
1223.0,0.3313
1224.0,0.3303
1225.0,0.3396
1226.0,0.341
1227.0,0.3184
1228.0,0.3419
1229.0,0.341
1230.0,0.3359
1231.0,0.343
1232.0,0.3411
1233.0,0.3324
1234.0,0.3421
1235.0,0.3404
1236.0,0.3425
1237.0,0.3389
1238.0,0.3413
1239.0,0.337
1240.0,0.3381
1241.0,0.3373
1242.0,0.3359
1243.0,0.3331
1244.0,0.3357
1245.0,0.337
1246.0,0.335
1247.0,0.3339
1248.0,0.334
1249.0,0.3348
1250.0,0.3329
1251.0,0.3291
1252.0,0.3286
1253.0,0.327
1254.0,0.3245
1255.0,0.3285
1256.0,0.3213
1257.0,0.3199
1258.0,0.3243
1259.0,0.3156
1260.0,0.3169
1261.0,0.3029
1262.0,0.2959
1263.0,0.2965
1264.0,0.2785
1265.0,0.2946
1266.0,0.2862
1267.0,0.2893
1268.0,0.2775
1269.0,0.1938
1270.0,0.289
1271.0,0.3014
1272.0,0.302
1273.0,0.2992
1274.0,0.2996
1275.0,0.3032
1276.0,0.3054
1277.0,0.3066
1278.0,0.3109
1279.0,0.3082
1280.0,0.3042
1281.0,0.2896
1282.0,0.2778
1283.0,0.2995
1284.0,0.3069
1285.0,0.3087
1286.0,0.3122
1287.0,0.3086
1288.0,0.3082
1289.0,0.3008
1290.0,0.3053
1291.0,0.3092
1292.0,0.2949
1293.0,0.3043
1294.0,0.3024
1295.0,0.302
1296.0,0.2912
1297.0,0.2779
1298.0,0.2944
1299.0,0.3042
1300.0,0.2656
1301.0,0.2721
1302.0,0.2933
1303.0,0.2612
1304.0,0.2304
1305.0,0.2879
1306.0,0.2884
1307.0,0.2327
1308.0,0.2604
1309.0,0.2867
1310.0,0.2286
1311.0,0.2514
1312.0,0.2458
1313.0,0.2422
1314.0,0.2196
1315.0,0.2184
1316.0,0.2486
1317.0,0.2364
1318.0,0.2538
1319.0,0.2075
1320.0,0.1991
1321.0,0.2287
1322.0,0.2323
1323.0,0.1824
1324.0,0.2035
1325.0,0.2455
1326.0,0.2155
1327.0,0.2068
1328.0,0.1808
1329.0,0.1422
1330.0,0.1818
1331.0,0.1178
1332.0,0.1188
1333.0,0.1632
1334.0,0.135
1335.0,0.1816
1336.0,0.1476
1337.0,0.133
1338.0,0.1436
1339.0,0.1419
1340.0,0.136
1341.0,0.1374
1342.0,0.144
1343.0,0.1076
1344.0,0.06421
1345.0,0.09134
1346.0,0.05244
1347.0,0.0545
1348.0,0.005134
1349.0,0.01647
1350.0,0.0158
1351.0,0.00534
1352.0,0.002008
1353.0,0.0001541
1354.0,0.0004148
1355.0,7.425e-06
1356.0,7.803e-05
1357.0,0.0001171
1358.0,8.518e-06
1359.0,1.91e-06
1360.0,4.789e-06
1361.0,1.889e-08
1362.0,9.262e-11
1363.0,7.375e-06
1364.0,3.291e-06
1365.0,6.23e-11
1366.0,2.751e-05
1367.0,1.061e-05
1368.0,1.791e-12
1369.0,1.288e-06
1370.0,8.075e-07
1371.0,6.367e-08
1372.0,5.887e-06
1373.0,7.841e-05
1374.0,0.0002768
1375.0,0.0004959
1376.0,0.0003685
1377.0,0.0001807
1378.0,0.001517
1379.0,7.751e-05
1380.0,0.0001299
1381.0,4.151e-06
1382.0,5.673e-06
1383.0,1.112e-07
1384.0,1.593e-06
1385.0,4.14e-06
1386.0,5.937e-06
1387.0,0.0003288
1388.0,7.038e-06
1389.0,0.0008413
1390.0,0.0007195
1391.0,0.0005168
1392.0,3.817e-05
1393.0,0.0001725
1394.0,0.0001348
1395.0,1.434e-06
1396.0,2.313e-08
1397.0,7.708e-05
1398.0,0.001738
1399.0,0.001106
1400.0,1.371e-08
1401.0,3.692e-08
1402.0,0.002173
1403.0,0.002901
1404.0,0.0009112
1405.0,8.614e-07
1406.0,0.002617
1407.0,0.0002237
1408.0,0.00211
1409.0,0.0008653
1410.0,0.0006264
1411.0,0.002524
1412.0,0.003097
1413.0,0.02344
1414.0,0.0004842
1415.0,0.0002572
1416.0,0.03304
1417.0,0.01202
1418.0,0.01375
1419.0,0.002245
1420.0,0.008508
1421.0,0.009381
1422.0,0.04248
1423.0,0.008816
1424.0,0.01603
1425.0,0.0242
1426.0,0.02574
1427.0,0.04326
1428.0,0.004949
1429.0,0.03409
1430.0,0.05385
1431.0,0.05809
1432.0,0.003959
1433.0,0.03849
1434.0,0.02036
1435.0,0.02301
1436.0,0.04012
1437.0,0.0308
1438.0,0.01422
1439.0,0.05265
1440.0,0.03972
1441.0,0.03226
1442.0,0.03528
1443.0,0.0413
1444.0,0.056
1445.0,0.04617
1446.0,0.02151
1447.0,0.03388
1448.0,0.09723
1449.0,0.08681
1450.0,0.02506
1451.0,0.0107
1452.0,0.0545
1453.0,0.07013
1454.0,0.1123
1455.0,0.05598
1456.0,0.07649
1457.0,0.09773
1458.0,0.1106
1459.0,0.1315
1460.0,0.07101
1461.0,0.07612
