interpolation:linear
wavelength,value
280.0,8.471999999999999e-23
280.5,2.829e-21
281.0,1.5270000000000002e-20
281.5,4.931e-19
282.0,5.219e-19
282.5,1.254e-18
283.0,3.922e-18
283.5,6.38e-18
284.0,1.051e-16
284.5,3.08e-16
285.0,5.876e-16
285.5,2.771e-15
286.0,1.107e-14
286.5,4.928e-14
287.0,1.41e-13
287.5,5.43e-13
288.0,1.89e-12
288.5,5.473e-12
289.0,1.422e-11
289.5,4.232e-11
290.0,1.168e-10
290.5,2.377e-10
291.0,5.1e-10
291.5,1.465e-09
292.0,2.977e-09
292.5,4.152e-09
293.0,8.842e-09
293.5,2.134e-08
294.0,3.328e-08
294.5,4.32e-08
295.0,7.284e-08
295.5,1.236e-07
296.0,2.345e-07
296.5,3.22e-07
297.0,4.286e-07
297.5,1.119e-06
298.0,1.72e-06
298.5,1.694e-06
299.0,3.651e-06
299.5,5.805e-06
300.0,6.216e-06
300.5,8.742e-06
301.0,1.503e-05
301.5,2.276e-05
302.0,1.893e-05
302.5,3.66e-05
303.0,6.534e-05
303.5,8.268e-05
304.0,7.959e-05
304.5,0.000127
305.0,0.0002129
305.5,0.0002604
306.0,0.0002585
306.5,0.0003363
307.0,0.0005514
307.5,0.0008091
308.0,0.0008682
308.5,0.001077
309.0,0.001271
309.5,0.001729
310.0,0.00188
310.5,0.003167
311.0,0.00424
311.5,0.004208
312.0,0.004839
312.5,0.006458
313.0,0.00735
313.5,0.006821
314.0,0.009526
314.5,0.009782
315.0,0.01319
315.5,0.01027
316.0,0.0101
316.5,0.01607
317.0,0.01991
317.5,0.02012
318.0,0.01683
318.5,0.02389
319.0,0.03032
319.5,0.02216
320.0,0.02634
320.5,0.03779
321.0,0.03806
321.5,0.03693
322.0,0.03448
322.5,0.0302
323.0,0.03277
323.5,0.0447
324.0,0.05296
324.5,0.05175
325.0,0.04184
325.5,0.0577
326.0,0.07382
326.5,0.07756
327.0,0.07594
327.5,0.0717
328.0,0.05984
328.5,0.068
329.0,0.08657
329.5,0.1001
330.0,0.09949
330.5,0.07595
331.0,0.07615
331.5,0.08017
332.0,0.09114
332.5,0.09226
333.0,0.09078
333.5,0.07914
334.0,0.08059
334.5,0.09705
335.0,0.09349
335.5,0.1103
336.0,0.07632
336.5,0.08746
337.0,0.07049
337.5,0.08713
338.0,0.08812
338.5,0.1032
339.0,0.1024
339.5,0.09837
340.0,0.1141
340.5,0.1033
341.0,0.1018
341.5,0.09391
342.0,0.1124
342.5,0.1053
343.0,0.1156
343.5,0.1087
344.0,0.07945
344.5,0.08093
345.0,0.1077
345.5,0.1102
346.0,0.09387
346.5,0.1064
347.0,0.1141
347.5,0.09219
348.0,0.1054
348.5,0.1056
349.0,0.09812
349.5,0.09718
350.0,0.1203
350.5,0.127
351.0,0.1133
351.5,0.1098
352.0,0.1182
352.5,0.09249
353.0,0.1167
353.5,0.125
354.0,0.1299
354.5,0.1318
355.0,0.1313
355.5,0.1188
356.0,0.1244
356.5,0.1063
357.0,0.08782
357.5,0.1076
358.0,0.08532
358.5,0.07295
359.0,0.102
359.5,0.13
360.0,0.1379
360.5,0.1103
361.0,0.1007
361.5,0.1161
362.0,0.1005
362.5,0.1393
363.0,0.1253
363.5,0.1155
364.0,0.1414
364.5,0.1209
365.0,0.1233
365.5,0.1548
366.0,0.1642
366.5,0.1545
367.0,0.1505
367.5,0.1563
368.0,0.1369
368.5,0.1383
369.0,0.1494
369.5,0.1594
370.0,0.1701
370.5,0.1321
371.0,0.1413
371.5,0.1769
372.0,0.1175
372.5,0.141
373.0,0.1436
373.5,0.0935
374.0,0.136
374.5,0.1127
375.0,0.1097
375.5,0.1638
376.0,0.1359
376.5,0.1409
377.0,0.1493
377.5,0.1748
378.0,0.1896
378.5,0.1793
379.0,0.1481
379.5,0.1353
380.0,0.1408
380.5,0.1707
381.0,0.1712
381.5,0.1359
382.0,0.1209
382.5,0.1032
383.0,0.09561
383.5,0.09219
384.0,0.1018
384.5,0.1498
385.0,0.1487
385.5,0.1387
386.0,0.1189
386.5,0.1563
387.0,0.13
387.5,0.1461
388.0,0.135
388.5,0.1336
389.0,0.1444
389.5,0.175
390.0,0.1758
390.5,0.1619
391.0,0.1908
391.5,0.1948
392.0,0.1642
392.5,0.1471
393.0,0.08196
393.5,0.05964
394.0,0.1215
394.5,0.1546
395.0,0.1888
395.5,0.1919
396.0,0.1665
396.5,0.09747
397.0,0.07322
397.5,0.149
398.0,0.2088
398.5,0.216
399.0,0.2343
399.5,0.2337
400.0,0.2427
401.0,0.2437
402.0,0.2577
403.0,0.2453
404.0,0.2419
405.0,0.2423
406.0,0.2389
407.0,0.2355
408.0,0.2449
409.0,0.2625
410.0,0.2298
411.0,0.2494
412.0,0.2685
413.0,0.2622
414.0,0.2659
415.0,0.2671
416.0,0.2724
417.0,0.266
418.0,0.2615
419.0,0.2654
420.0,0.2646
421.0,0.2773
422.0,0.2639
423.0,0.2582
424.0,0.2733
425.0,0.2732
426.0,0.2669
427.0,0.2623
428.0,0.2558
429.0,0.2429
430.0,0.213
431.0,0.2111
432.0,0.2732
433.0,0.2751
434.0,0.2557
435.0,0.2672
436.0,0.3018
437.0,0.2985
438.0,0.2722
439.0,0.2811
440.0,0.2906
441.0,0.3016
442.0,0.3238
443.0,0.3153
444.0,0.3228
445.0,0.316
446.0,0.3025
447.0,0.3278
448.0,0.3327
449.0,0.335
450.0,0.3449
451.0,0.358
452.0,0.3454
453.0,0.3253
454.0,0.3404
455.0,0.3426
456.0,0.3511
457.0,0.3571
458.0,0.3445
459.0,0.343
460.0,0.3437
461.0,0.3519
462.0,0.3553
463.0,0.3529
464.0,0.3482
465.0,0.3448
466.0,0.3488
467.0,0.3423
468.0,0.3464
469.0,0.3483
470.0,0.3371
471.0,0.337
472.0,0.3551
473.0,0.3506
474.0,0.3506
475.0,0.353
476.0,0.3415
477.0,0.3418
478.0,0.3515
479.0,0.3499
480.0,0.351
481.0,0.3584
482.0,0.3611
483.0,0.3578
484.0,0.3511
485.0,0.3352
486.0,0.2938
487.0,0.3085
488.0,0.3385
489.0,0.3393
490.0,0.3575
491.0,0.3518
492.0,0.3324
493.0,0.3435
494.0,0.3471
495.0,0.3503
496.0,0.3525
497.0,0.3579
498.0,0.3411
499.0,0.3451
500.0,0.3345
501.0,0.3278
502.0,0.3219
503.0,0.3338
504.0,0.3219
505.0,0.3361
506.0,0.3469
507.0,0.3304
508.0,0.3212
509.0,0.331
510.0,0.33
511.0,0.3396
512.0,0.3437
513.0,0.3254
514.0,0.3235
515.0,0.3203
516.0,0.3193
517.0,0.284
518.0,0.2984
519.0,0.313
520.0,0.3242
521.0,0.3272
522.0,0.3271
523.0,0.321
524.0,0.3318
525.0,0.3347
526.0,0.3194
527.0,0.3002
528.0,0.3169
529.0,0.3335
530.0,0.3283
531.0,0.3328
532.0,0.3212
533.0,0.3118
534.0,0.3213
535.0,0.3288
536.0,0.3322
537.0,0.3195
538.0,0.3254
539.0,0.3226
540.0,0.3091
541.0,0.31
542.0,0.3192
543.0,0.3166
544.0,0.3212
545.0,0.3204
546.0,0.321
547.0,0.3216
548.0,0.3181
549.0,0.3194
550.0,0.3232
551.0,0.3194
552.0,0.3217
553.0,0.3157
554.0,0.3232
555.0,0.3236
556.0,0.3192
557.0,0.3089
558.0,0.306
559.0,0.2997
560.0,0.3031
561.0,0.3064
562.0,0.3035
563.0,0.311
564.0,0.3019
565.0,0.2987
566.0,0.2938
567.0,0.2986
568.0,0.2941
569.0,0.2837
570.0,0.284
571.0,0.2831
572.0,0.2875
573.0,0.2902
574.0,0.2887
575.0,0.2825
576.0,0.2799
577.0,0.2834
578.0,0.2801
579.0,0.2829
580.0,0.2909
581.0,0.2944
582.0,0.3018
583.0,0.304
584.0,0.3076
585.0,0.3007
586.0,0.2946
587.0,0.2999
588.0,0.2883
589.0,0.2471
590.0,0.259
591.0,0.2792
592.0,0.2727
593.0,0.2806
594.0,0.2771
595.0,0.2669
596.0,0.2845
597.0,0.2794
598.0,0.2809
599.0,0.282
600.0,0.2842
601.0,0.2832
602.0,0.2815
603.0,0.2869
604.0,0.292
605.0,0.291
606.0,0.2905
607.0,0.2943
608.0,0.2918
609.0,0.293
610.0,0.2917
611.0,0.2938
612.0,0.2934
613.0,0.2901
614.0,0.2869
615.0,0.2938
616.0,0.2847
617.0,0.2845
618.0,0.2959
619.0,0.2932
620.0,0.295
621.0,0.2948
622.0,0.2909
623.0,0.2861
624.0,0.2817
625.0,0.2809
626.0,0.2849
627.0,0.2863
628.0,0.2472
629.0,0.2724
630.0,0.2654
631.0,0.2783
632.0,0.2763
633.0,0.2876
634.0,0.2871
635.0,0.2928
636.0,0.2902
637.0,0.296
638.0,0.3005
639.0,0.298
640.0,0.2962
641.0,0.2968
642.0,0.2963
643.0,0.3004
644.0,0.3004
645.0,0.3004
646.0,0.2909
647.0,0.2816
648.0,0.2825
649.0,0.276
650.0,0.2848
651.0,0.2984
652.0,0.279
653.0,0.295
654.0,0.2923
655.0,0.2778
656.0,0.2487
657.0,0.2559
658.0,0.2893
659.0,0.2923
660.0,0.2941
661.0,0.2966
662.0,0.296
663.0,0.2906
664.0,0.296
665.0,0.2978
666.0,0.2987
667.0,0.2992
668.0,0.3002
669.0,0.3054
670.0,0.3045
671.0,0.3049
672.0,0.3026
673.0,0.3075
674.0,0.3067
675.0,0.3043
676.0,0.3067
677.0,0.304
678.0,0.3052
679.0,0.3005
680.0,0.3031
681.0,0.3012
682.0,0.3009
683.0,0.3004
684.0,0.2989
685.0,0.3019
686.0,0.2996
687.0,0.1195
688.0,0.1714
689.0,0.1732
690.0,0.1941
691.0,0.2196
692.0,0.2408
693.0,0.2383
694.0,0.2391
695.0,0.2598
696.0,0.2609
697.0,0.2889
698.0,0.2842
699.0,0.2689
700.0,0.2652
701.0,0.2588
702.0,0.264
703.0,0.2657
704.0,0.2793
705.0,0.2796
706.0,0.2812
707.0,0.2823
708.0,0.2826
709.0,0.2867
710.0,0.2847
711.0,0.2857
712.0,0.2866
713.0,0.282
714.0,0.2836
715.0,0.271
716.0,0.2704
717.0,0.2044
718.0,0.1859
719.0,0.1681
720.0,0.1728
721.0,0.2071
722.0,0.2551
723.0,0.2287
724.0,0.1949
725.0,0.1886
726.0,0.1981
727.0,0.2084
728.0,0.1869
729.0,0.204
730.0,0.2128
731.0,0.2021
732.0,0.2273
733.0,0.2503
734.0,0.2597
735.0,0.2525
736.0,0.2514
737.0,0.2527
738.0,0.2651
739.0,0.2602
740.0,0.2695
741.0,0.2683
742.0,0.2702
743.0,0.2776
744.0,0.2778
745.0,0.2788
746.0,0.28
747.0,0.2809
748.0,0.2804
749.0,0.2773
750.0,0.2772
751.0,0.2744
752.0,0.2757
753.0,0.2773
754.0,0.2779
755.0,0.2763
756.0,0.2763
757.0,0.2766
758.0,0.273
759.0,0.2616
760.0,0.006125
761.0,0.002147
762.0,0.05953
763.0,0.01358
764.0,0.03156
765.0,0.05931
766.0,0.09844
767.0,0.1597
768.0,0.2203
769.0,0.2341
770.0,0.2528
771.0,0.2597
772.0,0.2619
773.0,0.2641
774.0,0.2632
775.0,0.2614
776.0,0.2647
777.0,0.2613
778.0,0.2597
779.0,0.2599
780.0,0.2586
781.0,0.2589
782.0,0.2606
783.0,0.2562
784.0,0.2576
785.0,0.2553
786.0,0.2578
787.0,0.2489
788.0,0.2439
789.0,0.2438
790.0,0.2318
791.0,0.2394
792.0,0.2386
793.0,0.2341
794.0,0.2437
795.0,0.2462
796.0,0.2307
797.0,0.2302
798.0,0.245
799.0,0.242
800.0,0.236
801.0,0.2332
802.0,0.2323
803.0,0.2294
804.0,0.2308
805.0,0.2324
806.0,0.2431
807.0,0.2393
808.0,0.2398
809.0,0.2321
810.0,0.2285
811.0,0.2254
812.0,0.2126
813.0,0.2066
814.0,0.1684
815.0,0.1686
816.0,0.1549
817.0,0.1582
818.0,0.1492
819.0,0.178
820.0,0.164
821.0,0.2094
822.0,0.2005
823.0,0.1109
824.0,0.1876
825.0,0.2061
826.0,0.1921
827.0,0.2089
828.0,0.1598
829.0,0.1923
830.0,0.1887
831.0,0.1892
832.0,0.1802
833.0,0.1994
834.0,0.1875
835.0,0.219
836.0,0.2002
837.0,0.2196
838.0,0.2081
839.0,0.2164
840.0,0.2223
841.0,0.2172
842.0,0.2208
843.0,0.224
844.0,0.2191
845.0,0.2288
846.0,0.2284
847.0,0.2251
848.0,0.2223
849.0,0.2159
850.0,0.207
851.0,0.2176
852.0,0.2169
853.0,0.2099
854.0,0.1803
855.0,0.1995
856.0,0.2174
857.0,0.2232
858.0,0.2211
859.0,0.222
860.0,0.2229
861.0,0.2215
862.0,0.2252
863.0,0.2306
864.0,0.2191
865.0,0.2173
866.0,0.1954
867.0,0.204
868.0,0.222
869.0,0.2175
870.0,0.2237
871.0,0.2207
872.0,0.22
873.0,0.2196
874.0,0.217
875.0,0.2125
876.0,0.2146
877.0,0.2169
878.0,0.219
879.0,0.2157
880.0,0.2111
881.0,0.2072
882.0,0.2114
883.0,0.2128
884.0,0.2116
885.0,0.2131
886.0,0.2006
887.0,0.2047
888.0,0.2067
889.0,0.2111
890.0,0.2066
891.0,0.2076
892.0,0.1982
893.0,0.1889
894.0,0.1751
895.0,0.1569
896.0,0.1458
897.0,0.1161
898.0,0.1307
899.0,0.08965
900.0,0.1398
901.0,0.09394
902.0,0.1228
903.0,0.1192
904.0,0.1733
905.0,0.1646
906.0,0.1513
907.0,0.1074
908.0,0.1131
909.0,0.1277
910.0,0.1024
911.0,0.1181
912.0,0.1231
913.0,0.1034
914.0,0.1048
915.0,0.1122
916.0,0.09391
917.0,0.1294
918.0,0.09522
919.0,0.1357
920.0,0.1463
921.0,0.1509
922.0,0.1271
923.0,0.1469
924.0,0.1273
925.0,0.1253
926.0,0.1249
927.0,0.1474
928.0,0.086
929.0,0.0731
930.0,0.04872
931.0,0.04568
932.0,0.02548
933.0,0.01801
934.0,0.005291
935.0,0.02037
936.0,0.009337
937.0,0.009442
938.0,0.01268
939.0,0.04401
940.0,0.05915
941.0,0.03724
942.0,0.04645
943.0,0.02531
944.0,0.03214
945.0,0.04007
946.0,0.01379
947.0,0.03835
948.0,0.02762
949.0,0.05883
950.0,0.008038
951.0,0.05832
952.0,0.02316
953.0,0.03524
954.0,0.04961
955.0,0.03644
956.0,0.04368
957.0,0.02296
958.0,0.06817
959.0,0.0451
960.0,0.05069
961.0,0.06415
962.0,0.06057
963.0,0.07652
964.0,0.06831
965.0,0.07549
966.0,0.07533
967.0,0.07377
968.0,0.1279
969.0,0.1283
970.0,0.1158
971.0,0.1456
972.0,0.1361
973.0,0.1055
974.0,0.09959
975.0,0.1069
976.0,0.09409
977.0,0.1233
978.0,0.1103
979.0,0.1188
980.0,0.1102
981.0,0.1451
982.0,0.1339
983.0,0.126
984.0,0.156
985.0,0.1329
986.0,0.1629
987.0,0.1558
988.0,0.1558
989.0,0.1653
990.0,0.1547
991.0,0.1653
992.0,0.1667
993.0,0.1587
994.0,0.1672
995.0,0.1678
996.0,0.1662
997.0,0.1669
998.0,0.1658
999.0,0.1654
1000.0,0.1631
1001.0,0.1664
1002.0,0.1569
1003.0,0.1632
1004.0,0.1579
1005.0,0.1539
1006.0,0.1591
1007.0,0.1628
1008.0,0.1611
1009.0,0.1593
1010.0,0.1581
1011.0,0.1621
1012.0,0.1598
1013.0,0.162
1014.0,0.1609
1015.0,0.1597
1016.0,0.1589
1017.0,0.1591
1018.0,0.1591
1019.0,0.1538
1020.0,0.158
1021.0,0.1581
1022.0,0.1561
1023.0,0.1577
1024.0,0.1537
1025.0,0.1582
1026.0,0.157
1027.0,0.1568
1028.0,0.1563
1029.0,0.1543
1030.0,0.156
1031.0,0.1551
1032.0,0.1549
1033.0,0.1525
1034.0,0.1526
1035.0,0.1531
1036.0,0.1536
1037.0,0.1512
1038.0,0.1518
1039.0,0.1516
1040.0,0.1509
1041.0,0.1514
1042.0,0.1503
1043.0,0.1497
1044.0,0.1501
1045.0,0.148
1046.0,0.1462
1047.0,0.1474
1048.0,0.148
1049.0,0.1473
1050.0,0.1465
1051.0,0.1461
1052.0,0.1453
1053.0,0.1439
1054.0,0.1439
1055.0,0.1437
1056.0,0.1429
1057.0,0.1422
1058.0,0.1384
1059.0,0.1382
1060.0,0.1378
1061.0,0.1375
1062.0,0.1379
1063.0,0.1363
1064.0,0.138
1065.0,0.1363
1066.0,0.1342
1067.0,0.1357
1068.0,0.1322
1069.0,0.1286
1070.0,0.1325
1071.0,0.1362
1072.0,0.1334
1073.0,0.1317
1074.0,0.137
1075.0,0.1259
1076.0,0.1367
1077.0,0.1318
1078.0,0.128
1079.0,0.1354
1080.0,0.1298
1081.0,0.1233
1082.0,0.1291
1083.0,0.1307
1084.0,0.1222
1085.0,0.1304
1086.0,0.1133
1087.0,0.1206
1088.0,0.1299
1089.0,0.1212
1090.0,0.1166
1091.0,0.1283
1092.0,0.1286
1093.0,0.09803
1094.0,0.1163
1095.0,0.1023
1096.0,0.0951
1097.0,0.1257
1098.0,0.09176
1099.0,0.0972
1100.0,0.08653
1101.0,0.08925
1102.0,0.08219
1103.0,0.07929
1104.0,0.07978
1105.0,0.09396
1106.0,0.05626
1107.0,0.0865
1108.0,0.06399
1109.0,0.06522
1110.0,0.08321
1111.0,0.04403
1112.0,0.06524
1113.0,0.03053
1114.0,0.03429
1115.0,0.02736
1116.0,0.01697
1117.0,0.002995
1118.0,0.0193
1119.0,0.006202
1120.0,0.007255
1121.0,0.01106
1122.0,0.002542
1123.0,0.00665
1124.0,0.005569
1125.0,0.008087
1126.0,0.001038
1127.0,0.009305
1128.0,0.003282
1129.0,0.003633
1130.0,0.002216
1131.0,0.02583
1132.0,0.01844
1133.0,0.007597
1134.0,0.0007793
1135.0,0.0003628
1136.0,0.005166
1137.0,0.02372
1138.0,0.01567
1139.0,0.03458
1140.0,0.02444
1141.0,0.01507
1142.0,0.01911
1143.0,0.03243
1144.0,0.00694
1145.0,0.00723
1146.0,0.007769
1147.0,0.001126
1148.0,0.02701
1149.0,0.01863
1150.0,0.008573
1151.0,0.0156
1152.0,0.02267
1153.0,0.02509
1154.0,0.007588
1155.0,0.036
1156.0,0.02996
1157.0,0.03952
1158.0,0.03888
1159.0,0.04414
1160.0,0.03641
1161.0,0.05211
1162.0,0.05144
1163.0,0.08433
1164.0,0.06714
1165.0,0.0582
1166.0,0.06232
1167.0,0.07032
1168.0,0.07016
1169.0,0.07298
1170.0,0.08409
1171.0,0.08199
1172.0,0.08692
1173.0,0.08402
1174.0,0.05003
1175.0,0.08538
1176.0,0.1008
1177.0,0.0919
1178.0,0.06115
1179.0,0.1015
1180.0,0.08318
1181.0,0.08603
1182.0,0.05011
1183.0,0.08614
1184.0,0.07746
1185.0,0.07178
1186.0,0.09517
1187.0,0.0873
1188.0,0.04903
1189.0,0.08092
1190.0,0.09394
1191.0,0.08232
1192.0,0.09592
1193.0,0.08956
1194.0,0.0939
1195.0,0.08414
1196.0,0.07864
1197.0,0.0956
1198.0,0.08583
1199.0,0.06377
1200.0,0.0885
1201.0,0.08175
1202.0,0.08463
1203.0,0.08159
1204.0,0.06788
1205.0,0.08896
1206.0,0.1027
1207.0,0.08288
1208.0,0.08442
1209.0,0.08645
1210.0,0.0923
1211.0,0.08479
1212.0,0.07809
1213.0,0.09652
1214.0,0.08189
1215.0,0.07999
1216.0,0.09699
1217.0,0.09268
1218.0,0.09601
1219.0,0.09361
1220.0,0.09632
1221.0,0.0986
1222.0,0.09526
1223.0,0.09348
1224.0,0.09074
1225.0,0.09745
1226.0,0.09974
1227.0,0.08676
1228.0,0.1013
1229.0,0.09979
1230.0,0.09711
1231.0,0.1032
1232.0,0.1024
1233.0,0.09449
1234.0,0.1041
1235.0,0.1027
1236.0,0.1041
1237.0,0.1009
1238.0,0.1037
1239.0,0.1023
1240.0,0.103
1241.0,0.1013
1242.0,0.1021
1243.0,0.1014
1244.0,0.1017
1245.0,0.1024
1246.0,0.1018
1247.0,0.1011
1248.0,0.1004
1249.0,0.1013
1250.0,0.1003
1251.0,0.09819
1252.0,0.0992
1253.0,0.09662
1254.0,0.09435
1255.0,0.09864
1256.0,0.09261
1257.0,0.09144
1258.0,0.09573
1259.0,0.08733
1260.0,0.08839
1261.0,0.07757
1262.0,0.07231
1263.0,0.0723
1264.0,0.06044
1265.0,0.07194
1266.0,0.06542
1267.0,0.0692
1268.0,0.0615
1269.0,0.0193
1270.0,0.06791
1271.0,0.07813
1272.0,0.07892
1273.0,0.07743
1274.0,0.07859
1275.0,0.08076
1276.0,0.08273
1277.0,0.08489
1278.0,0.08879
1279.0,0.08797
1280.0,0.08694
1281.0,0.0841
1282.0,0.0829
1283.0,0.08889
1284.0,0.09069
1285.0,0.09163
1286.0,0.09387
1287.0,0.09054
1288.0,0.09116
1289.0,0.08453
1290.0,0.0905
1291.0,0.09247
1292.0,0.08036
1293.0,0.0892
1294.0,0.08832
1295.0,0.0855
1296.0,0.07788
1297.0,0.07113
1298.0,0.08238
1299.0,0.08985
1300.0,0.06672
1301.0,0.07016
1302.0,0.0824
1303.0,0.06659
1304.0,0.04891
1305.0,0.08025
1306.0,0.07908
1307.0,0.0528
1308.0,0.06809
1309.0,0.0768
1310.0,0.05089
1311.0,0.06333
1312.0,0.06078
1313.0,0.05718
1314.0,0.04815
1315.0,0.04598
1316.0,0.06076
1317.0,0.0562
1318.0,0.06467
1319.0,0.04119
1320.0,0.04145
1321.0,0.05179
1322.0,0.05043
1323.0,0.03076
1324.0,0.04086
1325.0,0.05847
1326.0,0.04573
1327.0,0.04221
1328.0,0.03371
1329.0,0.01954
1330.0,0.02873
1331.0,0.01191
1332.0,0.01354
1333.0,0.01984
1334.0,0.02085
1335.0,0.02974
1336.0,0.02011
1337.0,0.01734
1338.0,0.01828
1339.0,0.01878
1340.0,0.01992
1341.0,0.01545
1342.0,0.01685
1343.0,0.006617
1344.0,0.004403
1345.0,0.005765
1346.0,0.001237
1347.0,0.00104
1348.0,1.598e-05
1349.0,7.327e-05
1350.0,8.917e-05
1351.0,7.259e-06
1352.0,1.04e-06
1353.0,5.005e-08
1354.0,1.824e-07
1355.0,1.361e-09
1356.0,2.427e-08
1357.0,3.682e-08
1358.0,1.598e-09
1359.0,2.01e-10
1360.0,7.266e-10
1361.0,8.124e-13
1362.0,2.222e-15
1363.0,9.766e-10
1364.0,4.032e-10
1365.0,7.759e-16
1366.0,4.233e-09
1367.0,1.728e-09
1368.0,5.991e-18
1369.0,1.486e-10
1370.0,7.317e-11
1371.0,4.147e-12
1372.0,9.376e-10
1373.0,1.897e-08
1374.0,8.949e-08
1375.0,1.604e-07
1376.0,1.565e-07
1377.0,7.039e-08
1378.0,6.792e-07
1379.0,2.986e-08
1380.0,4.008e-08
1381.0,1.04e-09
1382.0,8.215e-10
1383.0,1.228e-11
1384.0,1.61e-10
1385.0,7.725e-10
1386.0,7.24e-10
1387.0,8.791e-08
1388.0,1.76e-09
1389.0,3.072e-07
1390.0,2.605e-07
1391.0,1.739e-07
1392.0,1.139e-08
1393.0,6.22e-08
1394.0,2.995e-08
1395.0,2.192e-10
1396.0,1.058e-12
1397.0,2.383e-08
1398.0,7.09e-07
1399.0,4.536e-07
1400.0,4.522e-13
1401.0,1.876e-12
1402.0,2.489e-06
1403.0,2.353e-06
1404.0,6.253e-07
1405.0,1.037e-10
1406.0,1.326e-06
1407.0,1.85e-07
1408.0,1.115e-06
1409.0,3.295e-07
1410.0,3.137e-07
1411.0,2.166e-06
1412.0,4.064e-06
1413.0,0.0001013
1414.0,2.604e-07
1415.0,1.125e-07
1416.0,0.0005373
1417.0,8.218e-05
