interpolation:linear
wavelength,value
280.0,4.0369999999999997e-22
280.5,7.048e-21
281.0,3.105e-20
281.5,6.239e-19
282.0,3.898e-18
282.5,1.277e-17
283.0,4.79e-17
283.5,8.276e-17
284.0,1.557e-15
284.5,4.672e-15
285.0,1.365e-14
285.5,9.297e-14
286.0,4.102e-13
286.5,2.123e-12
287.0,6.594e-12
287.5,2.746e-11
288.0,9.597e-11
288.5,3.65e-10
289.0,1.172e-09
289.5,4.185e-09
290.0,1.312e-08
290.5,2.945e-08
291.0,7.035e-08
291.5,2.297e-07
292.0,5.3e-07
292.5,7.813e-07
293.0,1.778e-06
293.5,4.68e-06
294.0,7.77e-06
294.5,1.523e-05
295.0,2.741e-05
295.5,5.853e-05
296.0,0.0001049
296.5,0.0001363
297.0,0.0001737
297.5,0.000426
298.0,0.0006222
298.5,0.0005903
299.0,0.001229
299.5,0.001845
300.0,0.001919
300.5,0.002625
301.0,0.004329
301.5,0.006344
302.0,0.005201
302.5,0.009544
303.0,0.01582
303.5,0.01895
304.0,0.01722
304.5,0.0236
305.0,0.03183
305.5,0.0339
306.0,0.03191
306.5,0.03795
307.0,0.05098
307.5,0.06175
308.0,0.06424
308.5,0.07252
309.0,0.06872
309.5,0.07374
310.0,0.07188
310.5,0.1147
311.0,0.1404
311.5,0.134
312.0,0.1269
312.5,0.1489
313.0,0.1585
313.5,0.1565
314.0,0.1873
314.5,0.1568
315.0,0.2039
315.5,0.1753
316.0,0.1461
316.5,0.2015
317.0,0.2503
317.5,0.2634
318.0,0.1999
318.5,0.2355
319.0,0.2722
319.5,0.2313
320.0,0.2811
320.5,0.3336
321.0,0.2832
321.5,0.2702
322.0,0.3028
322.5,0.2627
323.0,0.253
323.5,0.301
324.0,0.3493
324.5,0.3594
325.0,0.3161
325.5,0.3957
326.0,0.4793
326.5,0.4714
327.0,0.4727
327.5,0.4602
328.0,0.4195
328.5,0.4282
329.0,0.5012
329.5,0.5649
330.0,0.5728
330.5,0.4663
331.0,0.4777
331.5,0.4791
332.0,0.5079
332.5,0.4981
333.0,0.4989
333.5,0.4576
334.0,0.4697
334.5,0.5335
335.0,0.4968
335.5,0.5799
336.0,0.4011
336.5,0.4717
337.0,0.3894
337.5,0.4852
338.0,0.4677
338.5,0.5395
339.0,0.5336
339.5,0.5131
340.0,0.6031
340.5,0.5428
341.0,0.5295
341.5,0.4859
342.0,0.5804
342.5,0.5427
343.0,0.5969
343.5,0.562
344.0,0.415
344.5,0.4193
345.0,0.5544
345.5,0.5657
346.0,0.4805
346.5,0.5438
347.0,0.5838
347.5,0.4719
348.0,0.5377
348.5,0.5372
349.0,0.4981
349.5,0.493
350.0,0.6095
350.5,0.6428
351.0,0.5742
351.5,0.5581
352.0,0.5991
352.5,0.4673
353.0,0.5883
353.5,0.6288
354.0,0.6526
354.5,0.6618
355.0,0.6595
355.5,0.5955
356.0,0.6228
356.5,0.5317
357.0,0.4393
357.5,0.5378
358.0,0.4261
358.5,0.3641
359.0,0.5092
359.5,0.6489
360.0,0.6877
360.5,0.5496
361.0,0.5008
361.5,0.5763
362.0,0.4981
362.5,0.689
363.0,0.6185
363.5,0.5695
364.0,0.6962
364.5,0.595
365.0,0.6059
365.5,0.7602
366.0,0.8052
366.5,0.7562
367.0,0.7363
367.5,0.764
368.0,0.6684
368.5,0.6743
369.0,0.7281
369.5,0.7759
370.0,0.8269
370.5,0.6416
371.0,0.6854
371.5,0.8574
372.0,0.569
372.5,0.6821
373.0,0.6936
373.5,0.4512
374.0,0.6555
374.5,0.5427
375.0,0.5275
375.5,0.7875
376.0,0.6527
376.5,0.6764
377.0,0.7159
377.5,0.8374
378.0,0.9077
378.5,0.8579
379.0,0.708
379.5,0.6468
380.0,0.6724
380.5,0.8142
381.0,0.8156
381.5,0.6464
382.0,0.5738
382.5,0.489
383.0,0.4526
383.5,0.4358
384.0,0.4807
384.5,0.7069
385.0,0.7009
385.5,0.6526
386.0,0.5588
386.5,0.7339
387.0,0.6098
387.5,0.6848
388.0,0.6322
388.5,0.6248
389.0,0.6744
389.5,0.8167
390.0,0.8195
390.5,0.7541
391.0,0.8875
391.5,0.9051
392.0,0.7623
392.5,0.6823
393.0,0.3796
393.5,0.2759
394.0,0.5613
394.5,0.7135
395.0,0.8705
395.5,0.8843
396.0,0.7666
396.5,0.448
397.0,0.3361
397.5,0.6836
398.0,0.9573
398.5,0.9894
399.0,1.071
399.5,1.067
400.0,1.108
401.0,1.127
402.0,1.189
403.0,1.129
404.0,1.111
405.0,1.111
406.0,1.092
407.0,1.074
408.0,1.116
409.0,1.194
410.0,1.043
411.0,1.13
412.0,1.212
413.0,1.182
414.0,1.196
415.0,1.199
416.0,1.219
417.0,1.189
418.0,1.167
419.0,1.182
420.0,1.177
421.0,1.23
422.0,1.169
423.0,1.142
424.0,1.208
425.0,1.205
426.0,1.173
427.0,1.151
428.0,1.121
429.0,1.061
430.0,0.9283
431.0,0.9202
432.0,1.187
433.0,1.194
434.0,1.108
435.0,1.157
436.0,1.303
437.0,1.285
438.0,1.17
439.0,1.211
440.0,1.249
441.0,1.293
442.0,1.387
443.0,1.351
444.0,1.38
445.0,1.35
446.0,1.287
447.0,1.391
448.0,1.413
449.0,1.417
450.0,1.457
451.0,1.51
452.0,1.455
453.0,1.368
454.0,1.427
455.0,1.436
456.0,1.47
457.0,1.494
458.0,1.444
459.0,1.436
460.0,1.44
461.0,1.473
462.0,1.483
463.0,1.473
464.0,1.448
465.0,1.429
466.0,1.442
467.0,1.416
468.0,1.432
469.0,1.44
470.0,1.394
471.0,1.392
472.0,1.467
473.0,1.448
474.0,1.45
475.0,1.464
476.0,1.421
477.0,1.426
478.0,1.465
479.0,1.455
480.0,1.457
481.0,1.483
482.0,1.49
483.0,1.471
484.0,1.44
485.0,1.372
486.0,1.198
487.0,1.255
488.0,1.377
489.0,1.382
490.0,1.453
491.0,1.428
492.0,1.348
493.0,1.392
494.0,1.406
495.0,1.418
496.0,1.426
497.0,1.448
498.0,1.381
499.0,1.399
500.0,1.358
501.0,1.334
502.0,1.317
503.0,1.371
504.0,1.341
505.0,1.385
506.0,1.43
507.0,1.361
508.0,1.317
509.0,1.353
510.0,1.345
511.0,1.38
512.0,1.395
513.0,1.32
514.0,1.311
515.0,1.298
516.0,1.295
517.0,1.15
518.0,1.209
519.0,1.268
520.0,1.315
521.0,1.327
522.0,1.329
523.0,1.305
524.0,1.352
525.0,1.369
526.0,1.308
527.0,1.233
528.0,1.305
529.0,1.376
530.0,1.357
531.0,1.377
532.0,1.33
533.0,1.291
534.0,1.329
535.0,1.357
536.0,1.369
537.0,1.315
538.0,1.338
539.0,1.327
540.0,1.272
541.0,1.282
542.0,1.322
543.0,1.308
544.0,1.331
545.0,1.327
546.0,1.334
547.0,1.332
548.0,1.316
549.0,1.319
550.0,1.335
551.0,1.319
552.0,1.328
553.0,1.304
554.0,1.336
555.0,1.338
556.0,1.321
557.0,1.281
558.0,1.271
559.0,1.248
560.0,1.264
561.0,1.281
562.0,1.272
563.0,1.308
564.0,1.273
565.0,1.263
566.0,1.245
567.0,1.269
568.0,1.259
569.0,1.233
570.0,1.232
571.0,1.224
572.0,1.256
573.0,1.27
574.0,1.266
575.0,1.243
576.0,1.232
577.0,1.245
578.0,1.225
579.0,1.228
580.0,1.249
581.0,1.254
582.0,1.276
583.0,1.277
584.0,1.287
585.0,1.255
586.0,1.23
587.0,1.258
588.0,1.232
589.0,1.101
590.0,1.15
591.0,1.212
592.0,1.2
593.0,1.213
594.0,1.207
595.0,1.18
596.0,1.219
597.0,1.207
598.0,1.202
599.0,1.202
600.0,1.202
601.0,1.191
602.0,1.183
603.0,1.201
604.0,1.221
605.0,1.214
606.0,1.209
607.0,1.22
608.0,1.205
609.0,1.207
610.0,1.198
611.0,1.203
612.0,1.199
613.0,1.184
614.0,1.167
615.0,1.192
616.0,1.152
617.0,1.15
618.0,1.193
619.0,1.181
620.0,1.189
621.0,1.19
622.0,1.177
623.0,1.16
624.0,1.139
625.0,1.137
626.0,1.154
627.0,1.168
628.0,1.111
629.0,1.147
630.0,1.121
631.0,1.14
632.0,1.125
633.0,1.157
634.0,1.144
635.0,1.16
636.0,1.144
637.0,1.162
638.0,1.171
639.0,1.157
640.0,1.145
641.0,1.144
642.0,1.138
643.0,1.153
644.0,1.149
645.0,1.151
646.0,1.127
647.0,1.118
648.0,1.12
649.0,1.099
650.0,1.097
651.0,1.143
652.0,1.104
653.0,1.128
654.0,1.115
655.0,1.077
656.0,0.952
657.0,0.9773
658.0,1.093
659.0,1.1
660.0,1.104
661.0,1.112
662.0,1.115
663.0,1.093
664.0,1.104
665.0,1.103
666.0,1.104
667.0,1.102
668.0,1.102
669.0,1.118
670.0,1.113
671.0,1.112
672.0,1.103
673.0,1.119
674.0,1.114
675.0,1.104
676.0,1.111
677.0,1.1
678.0,1.103
679.0,1.085
680.0,1.093
681.0,1.086
682.0,1.085
683.0,1.083
684.0,1.077
685.0,1.086
686.0,1.08
687.0,0.8031
688.0,0.8991
689.0,0.901
690.0,0.9312
691.0,0.9647
692.0,0.9878
693.0,0.9811
694.0,0.9733
695.0,1.003
696.0,1.005
697.0,1.053
698.0,1.037
699.0,1.021
700.0,1.008
701.0,1.001
702.0,1.005
703.0,1.006
704.0,1.034
705.0,1.035
706.0,1.032
707.0,1.032
708.0,1.035
709.0,1.033
710.0,1.034
711.0,1.032
712.0,1.027
713.0,1.018
714.0,1.022
715.0,0.9929
716.0,0.9943
717.0,0.894
718.0,0.8272
719.0,0.7615
720.0,0.7996
721.0,0.8626
722.0,0.9651
723.0,0.9099
724.0,0.8327
725.0,0.8239
726.0,0.8596
727.0,0.8648
728.0,0.8231
729.0,0.8424
730.0,0.8906
731.0,0.856
732.0,0.9035
733.0,0.9447
734.0,0.9641
735.0,0.9457
736.0,0.9443
737.0,0.9485
738.0,0.9556
739.0,0.937
740.0,0.959
741.0,0.9481
742.0,0.9477
743.0,0.9714
744.0,0.9678
745.0,0.9673
746.0,0.9717
747.0,0.9737
748.0,0.9716
749.0,0.9604
750.0,0.9598
751.0,0.95
752.0,0.954
753.0,0.9588
754.0,0.9609
755.0,0.9555
756.0,0.955
757.0,0.9564
758.0,0.9447
759.0,0.9298
760.0,0.25
761.0,0.1556
762.0,0.5654
763.0,0.3411
764.0,0.4597
765.0,0.5658
766.0,0.6507
767.0,0.7789
768.0,0.8664
769.0,0.8775
770.0,0.8994
771.0,0.9031
772.0,0.9039
773.0,0.9099
774.0,0.9053
775.0,0.8982
776.0,0.9091
777.0,0.8971
778.0,0.8917
779.0,0.8924
780.0,0.8873
781.0,0.8882
782.0,0.8937
783.0,0.878
784.0,0.8821
785.0,0.8759
786.0,0.8858
787.0,0.8736
788.0,0.8643
789.0,0.8644
790.0,0.8464
791.0,0.849
792.0,0.8421
793.0,0.829
794.0,0.838
795.0,0.8535
796.0,0.8339
797.0,0.8351
798.0,0.8532
799.0,0.849
800.0,0.8359
801.0,0.8347
802.0,0.8322
803.0,0.8266
804.0,0.827
805.0,0.8226
806.0,0.8426
807.0,0.8331
808.0,0.8335
809.0,0.8202
810.0,0.8153
811.0,0.8194
812.0,0.8006
813.0,0.787
814.0,0.7085
815.0,0.7037
816.0,0.6575
817.0,0.6674
818.0,0.6461
819.0,0.708
820.0,0.6724
821.0,0.7667
822.0,0.748
823.0,0.5401
824.0,0.7327
825.0,0.7545
826.0,0.7316
827.0,0.7658
828.0,0.6667
829.0,0.726
830.0,0.7183
831.0,0.7202
832.0,0.7013
833.0,0.7369
834.0,0.7167
835.0,0.775
836.0,0.7494
837.0,0.7767
838.0,0.7558
839.0,0.7642
840.0,0.7801
841.0,0.7705
842.0,0.7699
843.0,0.7672
844.0,0.7578
845.0,0.7817
846.0,0.7779
847.0,0.7627
848.0,0.759
849.0,0.7374
850.0,0.7064
851.0,0.749
852.0,0.7432
853.0,0.7146
854.0,0.6177
855.0,0.6776
856.0,0.7409
857.0,0.7568
858.0,0.7515
859.0,0.7517
860.0,0.7528
861.0,0.7487
862.0,0.7604
863.0,0.7783
864.0,0.7393
865.0,0.7328
866.0,0.6589
867.0,0.6876
868.0,0.7482
869.0,0.7326
870.0,0.7535
871.0,0.7432
872.0,0.7406
873.0,0.7391
874.0,0.7303
875.0,0.7155
876.0,0.723
877.0,0.7302
878.0,0.7383
879.0,0.7269
880.0,0.7113
881.0,0.7011
882.0,0.7165
883.0,0.7183
884.0,0.7152
885.0,0.7206
886.0,0.6884
887.0,0.6944
888.0,0.7055
889.0,0.712
890.0,0.7079
891.0,0.7057
892.0,0.6876
893.0,0.6691
894.0,0.651
895.0,0.6222
896.0,0.5896
897.0,0.5163
898.0,0.5576
899.0,0.4365
900.0,0.565
901.0,0.4569
902.0,0.52
903.0,0.5302
904.0,0.6461
905.0,0.6271
906.0,0.5895
907.0,0.4935
908.0,0.5014
909.0,0.5359
910.0,0.4866
911.0,0.5111
912.0,0.5312
913.0,0.4944
914.0,0.488
915.0,0.5274
916.0,0.4507
917.0,0.5576
918.0,0.4624
919.0,0.5646
920.0,0.5642
921.0,0.5851
922.0,0.5321
923.0,0.5648
924.0,0.5457
925.0,0.5342
926.0,0.54
927.0,0.5958
928.0,0.4619
929.0,0.4284
930.0,0.3476
931.0,0.3274
932.0,0.2469
933.0,0.207
934.0,0.127
935.0,0.2066
936.0,0.1373
937.0,0.1404
938.0,0.1693
939.0,0.3173
940.0,0.374
941.0,0.2928
942.0,0.3321
943.0,0.2268
944.0,0.2315
945.0,0.3001
946.0,0.1641
947.0,0.3043
948.0,0.2256
949.0,0.3959
950.0,0.1283
951.0,0.3879
952.0,0.2236
953.0,0.2788
954.0,0.3309
955.0,0.2808
956.0,0.2679
957.0,0.2255
958.0,0.3637
959.0,0.3005
960.0,0.3364
961.0,0.3688
962.0,0.3502
963.0,0.396
964.0,0.3654
965.0,0.3935
966.0,0.3955
967.0,0.3945
968.0,0.503
969.0,0.527
970.0,0.4878
971.0,0.5471
972.0,0.5255
973.0,0.4688
974.0,0.4468
975.0,0.4592
976.0,0.442
977.0,0.4913
978.0,0.4716
979.0,0.4902
980.0,0.4634
981.0,0.5434
982.0,0.5236
983.0,0.5051
984.0,0.5554
985.0,0.5215
986.0,0.5625
987.0,0.5543
988.0,0.5534
989.0,0.5592
990.0,0.5498
991.0,0.5612
992.0,0.5641
993.0,0.5544
994.0,0.5637
995.0,0.5626
996.0,0.5605
997.0,0.5611
998.0,0.5586
999.0,0.5565
1000.0,0.5532
1001.0,0.5594
1002.0,0.5467
1003.0,0.5496
1004.0,0.5369
1005.0,0.5163
1006.0,0.5369
1007.0,0.548
1008.0,0.5456
1009.0,0.5432
1010.0,0.5412
1011.0,0.5452
1012.0,0.541
1013.0,0.5437
1014.0,0.5399
1015.0,0.5364
1016.0,0.5341
1017.0,0.5355
1018.0,0.5332
1019.0,0.5228
1020.0,0.5305
1021.0,0.5296
1022.0,0.5259
1023.0,0.5315
1024.0,0.5257
1025.0,0.5308
1026.0,0.5288
1027.0,0.5275
1028.0,0.5265
1029.0,0.5204
1030.0,0.5236
1031.0,0.5216
1032.0,0.52
1033.0,0.5122
1034.0,0.5122
1035.0,0.5138
1036.0,0.5165
1037.0,0.5081
1038.0,0.5104
1039.0,0.5102
1040.0,0.5081
1041.0,0.5102
1042.0,0.5067
1043.0,0.5051
1044.0,0.507
1045.0,0.5002
1046.0,0.4947
1047.0,0.4992
1048.0,0.502
1049.0,0.5003
1050.0,0.4981
1051.0,0.4975
1052.0,0.4956
1053.0,0.4918
1054.0,0.493
1055.0,0.4934
1056.0,0.4918
1057.0,0.4904
1058.0,0.4785
1059.0,0.4792
1060.0,0.4786
1061.0,0.4781
1062.0,0.4808
1063.0,0.4761
1064.0,0.4817
1065.0,0.4786
1066.0,0.4689
1067.0,0.475
1068.0,0.4649
1069.0,0.4504
1070.0,0.4659
1071.0,0.4722
1072.0,0.4675
1073.0,0.4606
1074.0,0.4715
1075.0,0.4508
1076.0,0.4713
1077.0,0.4645
1078.0,0.4563
1079.0,0.4633
1080.0,0.4574
1081.0,0.4441
1082.0,0.4487
1083.0,0.4495
1084.0,0.4438
1085.0,0.4581
1086.0,0.4228
1087.0,0.4328
1088.0,0.4496
1089.0,0.4385
1090.0,0.4309
1091.0,0.4489
1092.0,0.4471
1093.0,0.3877
1094.0,0.4101
1095.0,0.4026
1096.0,0.3881
1097.0,0.4366
1098.0,0.3829
1099.0,0.398
1100.0,0.374
1101.0,0.3775
1102.0,0.3629
1103.0,0.3611
1104.0,0.3613
1105.0,0.3897
1106.0,0.3131
1107.0,0.3731
1108.0,0.3254
1109.0,0.3242
1110.0,0.3709
1111.0,0.264
1112.0,0.321
1113.0,0.2174
1114.0,0.2413
1115.0,0.2005
1116.0,0.1683
1117.0,0.0714
1118.0,0.1798
1119.0,0.09667
1120.0,0.1218
1121.0,0.1568
1122.0,0.07254
1123.0,0.1098
1124.0,0.09278
1125.0,0.1193
1126.0,0.04812
1127.0,0.1339
1128.0,0.08718
1129.0,0.09133
1130.0,0.06344
1131.0,0.2377
1132.0,0.1896
1133.0,0.1288
1134.0,0.03863
1135.0,0.01423
1136.0,0.1105
1137.0,0.2359
1138.0,0.1682
1139.0,0.235
1140.0,0.2024
1141.0,0.1598
1142.0,0.1804
1143.0,0.2497
1144.0,0.09556
1145.0,0.1239
1146.0,0.1337
1147.0,0.05405
1148.0,0.2162
1149.0,0.1777
1150.0,0.1025
1151.0,0.1671
1152.0,0.1998
1153.0,0.1904
1154.0,0.1217
1155.0,0.2454
1156.0,0.224
1157.0,0.247
1158.0,0.2441
1159.0,0.2591
1160.0,0.2266
1161.0,0.2699
1162.0,0.2719
1163.0,0.3519
1164.0,0.3075
1165.0,0.2953
1166.0,0.2897
1167.0,0.3127
1168.0,0.3172
1169.0,0.3227
1170.0,0.3463
1171.0,0.3384
1172.0,0.342
1173.0,0.3455
1174.0,0.2592
1175.0,0.3357
1176.0,0.3632
1177.0,0.3524
1178.0,0.2742
1179.0,0.3658
1180.0,0.3331
1181.0,0.3431
1182.0,0.2471
1183.0,0.3363
1184.0,0.3186
1185.0,0.3104
1186.0,0.3581
1187.0,0.3441
1188.0,0.2521
1189.0,0.3213
1190.0,0.3499
1191.0,0.3374
1192.0,0.3542
1193.0,0.3413
1194.0,0.3505
1195.0,0.3351
1196.0,0.3251
1197.0,0.3486
1198.0,0.3219
1199.0,0.2822
1200.0,0.3373
1201.0,0.3281
1202.0,0.3246
1203.0,0.322
1204.0,0.2864
1205.0,0.3297
1206.0,0.3595
1207.0,0.3246
1208.0,0.317
1209.0,0.3229
1210.0,0.3344
1211.0,0.3218
1212.0,0.3214
1213.0,0.3494
1214.0,0.3273
1215.0,0.322
1216.0,0.3481
1217.0,0.3405
1218.0,0.3454
1219.0,0.3419
1220.0,0.3456
1221.0,0.3481
1222.0,0.3401
1223.0,0.3375
1224.0,0.3366
1225.0,0.346
1226.0,0.3473
1227.0,0.3245
1228.0,0.3482
1229.0,0.3473
1230.0,0.3421
1231.0,0.3493
1232.0,0.3473
1233.0,0.3386
1234.0,0.3483
1235.0,0.3466
1236.0,0.3487
1237.0,0.3451
1238.0,0.3475
1239.0,0.3431
1240.0,0.3442
1241.0,0.3434
1242.0,0.3419
1243.0,0.3391
1244.0,0.3418
1245.0,0.3431
1246.0,0.3411
1247.0,0.34
1248.0,0.3401
1249.0,0.3408
1250.0,0.339
1251.0,0.3352
1252.0,0.3346
1253.0,0.333
1254.0,0.3305
1255.0,0.3345
1256.0,0.3272
1257.0,0.3259
1258.0,0.3303
1259.0,0.3216
1260.0,0.3228
1261.0,0.3088
1262.0,0.3018
1263.0,0.3024
1264.0,0.2843
1265.0,0.3004
1266.0,0.2921
1267.0,0.2951
1268.0,0.2832
1269.0,0.1991
1270.0,0.2949
1271.0,0.3073
1272.0,0.3078
1273.0,0.305
1274.0,0.3054
1275.0,0.309
1276.0,0.3112
1277.0,0.3124
1278.0,0.3166
1279.0,0.3139
1280.0,0.3099
1281.0,0.2949
1282.0,0.2829
1283.0,0.3049
1284.0,0.3125
1285.0,0.3144
1286.0,0.3179
1287.0,0.3143
1288.0,0.3139
1289.0,0.3065
1290.0,0.3109
1291.0,0.3148
1292.0,0.3006
1293.0,0.3099
1294.0,0.308
1295.0,0.3076
1296.0,0.2969
1297.0,0.2834
1298.0,0.3
1299.0,0.3098
1300.0,0.2709
1301.0,0.2775
1302.0,0.2988
1303.0,0.2664
1304.0,0.2355
1305.0,0.2934
1306.0,0.2939
1307.0,0.2377
1308.0,0.2655
1309.0,0.2922
1310.0,0.2335
1311.0,0.2564
1312.0,0.2508
1313.0,0.2473
1314.0,0.2243
1315.0,0.2232
1316.0,0.2537
1317.0,0.2413
1318.0,0.2589
1319.0,0.2122
1320.0,0.2035
1321.0,0.2336
1322.0,0.2373
1323.0,0.1869
1324.0,0.2081
1325.0,0.2505
1326.0,0.2203
1327.0,0.2114
1328.0,0.185
1329.0,0.1459
1330.0,0.1863
1331.0,0.1213
1332.0,0.1222
1333.0,0.1676
1334.0,0.1385
1335.0,0.186
1336.0,0.1514
1337.0,0.1366
1338.0,0.1474
1339.0,0.1457
1340.0,0.1395
1341.0,0.1412
1342.0,0.148
1343.0,0.1112
1344.0,0.0664
1345.0,0.09431
1346.0,0.05463
1347.0,0.05684
1348.0,0.005484
1349.0,0.01746
1350.0,0.01666
1351.0,0.005747
1352.0,0.002202
1353.0,0.0001735
1354.0,0.0004602
1355.0,8.653e-06
1356.0,8.812e-05
1357.0,0.0001321
1358.0,9.908e-06
1359.0,2.297e-06
1360.0,5.638e-06
1361.0,2.4e-08
1362.0,1.223e-10
1363.0,8.717e-06
1364.0,3.919e-06
1365.0,8.532e-11
1366.0,3.22e-05
1367.0,1.242e-05
1368.0,2.648e-12
1369.0,1.539e-06
1370.0,9.785e-07
1371.0,7.881e-08
1372.0,6.896e-06
1373.0,8.947e-05
1374.0,0.0003106
1375.0,0.0005548
1376.0,0.0004087
1377.0,0.0002013
1378.0,0.00167
1379.0,8.652e-05
1380.0,0.0001462
1381.0,4.74e-06
1382.0,6.67e-06
1383.0,1.333e-07
1384.0,1.913e-06
1385.0,4.8e-06
1386.0,7.041e-06
1387.0,0.0003711
1388.0,8.025e-06
1389.0,0.0009347
1390.0,0.0007984
1391.0,0.0005768
1392.0,4.304e-05
1393.0,0.0001924
1394.0,0.0001538
1395.0,1.681e-06
1396.0,2.912e-08
1397.0,8.662e-05
1398.0,0.001914
1399.0,0.00122
1400.0,1.757e-08
1401.0,4.614e-08
1402.0,0.002349
1403.0,0.003145
1404.0,0.0009899
1405.0,1.022e-06
1406.0,0.002856
1407.0,0.0002445
1408.0,0.002301
1409.0,0.0009551
1410.0,0.0006888
1411.0,0.002736
1412.0,0.003338
1413.0,0.02474
1414.0,0.0005319
1415.0,0.0002844
1416.0,0.03456
1417.0,0.01275
1418.0,0.01456
1419.0,0.002387
1420.0,0.009017
1421.0,0.00997
1422.0,0.04436
1423.0,0.009263
1424.0,0.01681
1425.0,0.02539
1426.0,0.0269
1427.0,0.0449
1428.0,0.005294
1429.0,0.03552
1430.0,0.0558
1431.0,0.0601
1432.0,0.004241
1433.0,0.03996
1434.0,0.02121
1435.0,0.02417
1436.0,0.04183
1437.0,0.03213
1438.0,0.01493
1439.0,0.05474
1440.0,0.04133
1441.0,0.03372
1442.0,0.03682
1443.0,0.04288
1444.0,0.05807
1445.0,0.04806
1446.0,0.02245
1447.0,0.03537
1448.0,0.1002
1449.0,0.08966
1450.0,0.02616
1451.0,0.01124
1452.0,0.05647
1453.0,0.07254
1454.0,0.1155
1455.0,0.05785
1456.0,0.07915
1457.0,0.1007
1458.0,0.1136
1459.0,0.1351
1460.0,0.07319
1461.0,0.07861
