interpolation:linear
wavelength,value
280.0,3.0239999999999995e-22
280.5,9.935e-21
281.0,5.3240000000000005e-20
281.5,4.1e-19
282.0,6.757e-19
282.5,1.677e-18
283.0,5.302e-18
283.5,8.631e-18
284.0,1.421e-16
284.5,4.142e-16
285.0,6.852e-16
285.5,3.42e-15
286.0,1.379e-14
286.5,6.209e-14
287.0,1.781e-13
287.5,6.867e-13
288.0,2.366e-12
288.5,7.138e-12
289.0,1.897e-11
289.5,5.721e-11
290.0,1.587e-10
290.5,3.234e-10
291.0,6.94e-10
291.5,1.992e-09
292.0,4.032e-09
292.5,5.67e-09
293.0,1.219e-08
293.5,2.978e-08
294.0,4.665e-08
294.5,6.392e-08
295.0,1.085e-07
295.5,1.836e-07
296.0,3.58e-07
296.5,5.067e-07
297.0,6.93e-07
297.5,1.895e-06
298.0,3.043e-06
298.5,3.112e-06
299.0,6.982e-06
299.5,1.202e-05
300.0,1.351e-05
300.5,2.006e-05
301.0,3.794e-05
301.5,6.313e-05
302.0,5.525e-05
302.5,0.0001115
303.0,0.00021
303.5,0.0002745
304.0,0.0002672
304.5,0.0004384
305.0,0.0007619
305.5,0.000953
306.0,0.0009548
306.5,0.00126
307.0,0.002129
307.5,0.003217
308.0,0.00347
308.5,0.00437
309.0,0.004457
309.5,0.005616
310.0,0.005896
310.5,0.009761
311.0,0.0127
311.5,0.01245
312.0,0.01345
312.5,0.01721
313.0,0.01917
313.5,0.01817
314.0,0.02413
314.5,0.02317
315.0,0.03089
315.5,0.02487
316.0,0.02316
316.5,0.03516
317.0,0.04361
317.5,0.04468
318.0,0.0362
318.5,0.04829
319.0,0.05942
319.5,0.04571
320.0,0.05476
320.5,0.07373
321.0,0.07009
321.5,0.06766
322.0,0.06724
322.5,0.05872
323.0,0.06122
323.5,0.07851
324.0,0.09233
324.5,0.09203
325.0,0.07769
325.5,0.1037
326.0,0.1282
326.5,0.1315
327.0,0.1299
327.5,0.1241
328.0,0.1071
328.5,0.117
329.0,0.1444
329.5,0.1655
330.0,0.1658
330.5,0.1297
331.0,0.1311
331.5,0.1356
332.0,0.1503
332.5,0.1505
333.0,0.1491
333.5,0.1325
334.0,0.1354
334.5,0.1596
335.0,0.1519
335.5,0.1779
336.0,0.1232
336.5,0.1431
337.0,0.1164
337.5,0.1443
338.0,0.1435
338.5,0.1664
339.0,0.1649
339.5,0.1587
340.0,0.1858
340.5,0.1678
341.0,0.1642
341.5,0.1511
342.0,0.1808
342.5,0.1693
343.0,0.1861
343.5,0.1751
344.0,0.1291
344.5,0.1307
345.0,0.1735
345.5,0.1774
346.0,0.151
346.5,0.1711
347.0,0.1836
347.5,0.1485
348.0,0.1696
348.5,0.1697
349.0,0.1576
349.5,0.1561
350.0,0.1933
350.5,0.204
351.0,0.1822
351.5,0.1769
352.0,0.1903
352.5,0.1487
353.0,0.1876
353.5,0.2007
354.0,0.2085
354.5,0.2116
355.0,0.2109
355.5,0.1907
356.0,0.1997
356.5,0.1706
357.0,0.141
357.5,0.1727
358.0,0.137
358.5,0.1171
359.0,0.1638
359.5,0.2088
360.0,0.2215
360.5,0.1771
361.0,0.1616
361.5,0.1864
362.0,0.1614
362.5,0.2236
363.0,0.201
363.5,0.1853
364.0,0.2268
364.5,0.194
365.0,0.1977
365.5,0.2483
366.0,0.2633
366.5,0.2477
367.0,0.2413
367.5,0.2506
368.0,0.2195
368.5,0.2216
369.0,0.2395
369.5,0.2555
370.0,0.2725
370.5,0.2117
371.0,0.2264
371.5,0.2834
372.0,0.1882
372.5,0.2258
373.0,0.2299
373.5,0.1497
374.0,0.2176
374.5,0.1804
375.0,0.1755
375.5,0.2621
376.0,0.2174
376.5,0.2254
377.0,0.2388
377.5,0.2796
378.0,0.3032
378.5,0.2867
379.0,0.2367
379.5,0.2163
380.0,0.225
380.5,0.2727
381.0,0.2736
381.5,0.2171
382.0,0.193
382.5,0.1647
383.0,0.1526
383.5,0.1471
384.0,0.1624
384.5,0.239
385.0,0.2372
385.5,0.2211
386.0,0.1895
386.5,0.2491
387.0,0.2071
387.5,0.2328
388.0,0.2151
388.5,0.2128
389.0,0.2298
389.5,0.2786
390.0,0.2798
390.5,0.2576
391.0,0.3035
391.5,0.3097
392.0,0.261
392.5,0.2339
393.0,0.1303
393.5,0.09475
394.0,0.1929
394.5,0.2455
395.0,0.2997
395.5,0.3046
396.0,0.2643
396.5,0.1546
397.0,0.1161
397.5,0.2363
398.0,0.3311
398.5,0.3424
399.0,0.3712
399.5,0.3702
400.0,0.3845
401.0,0.3879
402.0,0.4099
403.0,0.39
404.0,0.3844
405.0,0.3848
406.0,0.3791
407.0,0.3736
408.0,0.3884
409.0,0.4162
410.0,0.3641
411.0,0.3949
412.0,0.4249
413.0,0.4146
414.0,0.4203
415.0,0.422
416.0,0.43
417.0,0.4198
418.0,0.4124
419.0,0.4184
420.0,0.4169
421.0,0.4366
422.0,0.4154
423.0,0.4061
424.0,0.4298
425.0,0.4295
426.0,0.4191
427.0,0.4117
428.0,0.4013
429.0,0.3808
430.0,0.3336
431.0,0.3307
432.0,0.4276
433.0,0.4304
434.0,0.3999
435.0,0.4178
436.0,0.4715
437.0,0.4658
438.0,0.4246
439.0,0.4388
440.0,0.4533
441.0,0.4703
442.0,0.5047
443.0,0.4915
444.0,0.5027
445.0,0.492
446.0,0.4704
447.0,0.5093
448.0,0.517
449.0,0.52
450.0,0.535
451.0,0.5552
452.0,0.5354
453.0,0.504
454.0,0.5268
455.0,0.5302
456.0,0.5431
457.0,0.5523
458.0,0.5332
459.0,0.5307
460.0,0.532
461.0,0.5445
462.0,0.5493
463.0,0.5456
464.0,0.5375
465.0,0.5316
466.0,0.5374
467.0,0.5274
468.0,0.5337
469.0,0.5366
470.0,0.5194
471.0,0.519
472.0,0.5469
473.0,0.5399
474.0,0.5402
475.0,0.5443
476.0,0.5272
477.0,0.5282
478.0,0.5431
479.0,0.5403
480.0,0.5418
481.0,0.5526
482.0,0.5563
483.0,0.5504
484.0,0.5397
485.0,0.5148
486.0,0.4506
487.0,0.4728
488.0,0.5187
489.0,0.5201
490.0,0.5476
491.0,0.5385
492.0,0.5086
493.0,0.5254
494.0,0.5308
495.0,0.5355
496.0,0.5388
497.0,0.5471
498.0,0.5214
499.0,0.5278
500.0,0.512
501.0,0.5021
502.0,0.4941
503.0,0.5131
504.0,0.4972
505.0,0.5174
506.0,0.534
507.0,0.5083
508.0,0.4934
509.0,0.508
510.0,0.5059
511.0,0.5201
512.0,0.5261
513.0,0.4981
514.0,0.4949
515.0,0.49
516.0,0.4887
517.0,0.4344
518.0,0.4567
519.0,0.4789
520.0,0.4963
521.0,0.5009
522.0,0.501
523.0,0.4918
524.0,0.5089
525.0,0.5141
526.0,0.4909
527.0,0.4619
528.0,0.4881
529.0,0.514
530.0,0.5064
531.0,0.5136
532.0,0.4958
533.0,0.4813
534.0,0.4958
535.0,0.507
536.0,0.512
537.0,0.4921
538.0,0.501
539.0,0.4967
540.0,0.4761
541.0,0.4783
542.0,0.4929
543.0,0.4884
544.0,0.4961
545.0,0.4947
546.0,0.4962
547.0,0.4966
548.0,0.491
549.0,0.4927
550.0,0.4986
551.0,0.4927
552.0,0.4961
553.0,0.4871
554.0,0.4987
555.0,0.4995
556.0,0.4929
557.0,0.4773
558.0,0.4732
559.0,0.4639
560.0,0.4694
561.0,0.475
562.0,0.471
563.0,0.4832
564.0,0.4695
565.0,0.465
566.0,0.4578
567.0,0.4658
568.0,0.4601
569.0,0.4462
570.0,0.4465
571.0,0.4445
572.0,0.4532
573.0,0.4577
574.0,0.4558
575.0,0.4466
576.0,0.4426
577.0,0.4477
578.0,0.4418
579.0,0.445
580.0,0.4556
581.0,0.4596
582.0,0.4698
583.0,0.4722
584.0,0.4771
585.0,0.4659
586.0,0.4564
587.0,0.4655
588.0,0.4504
589.0,0.3919
590.0,0.4104
591.0,0.4386
592.0,0.4306
593.0,0.4402
594.0,0.4358
595.0,0.4223
596.0,0.4449
597.0,0.4386
598.0,0.4392
599.0,0.4404
600.0,0.4426
601.0,0.4401
602.0,0.4373
603.0,0.4451
604.0,0.4528
605.0,0.4508
606.0,0.4496
607.0,0.4547
608.0,0.4504
609.0,0.4517
610.0,0.4492
611.0,0.4519
612.0,0.451
613.0,0.4456
614.0,0.4401
615.0,0.4502
616.0,0.4359
617.0,0.4353
618.0,0.4524
619.0,0.448
620.0,0.4509
621.0,0.4508
622.0,0.4451
623.0,0.4379
624.0,0.4308
625.0,0.4299
626.0,0.4361
627.0,0.4395
628.0,0.3939
629.0,0.4233
630.0,0.413
631.0,0.428
632.0,0.424
633.0,0.4392
634.0,0.4368
635.0,0.4446
636.0,0.4398
637.0,0.4478
638.0,0.4534
639.0,0.449
640.0,0.4455
641.0,0.4458
642.0,0.4445
643.0,0.4506
644.0,0.4498
645.0,0.4502
646.0,0.4377
647.0,0.4278
648.0,0.4283
649.0,0.4194
650.0,0.4274
651.0,0.447
652.0,0.4225
653.0,0.4415
654.0,0.437
655.0,0.4177
656.0,0.3724
657.0,0.3827
658.0,0.4308
659.0,0.4347
660.0,0.4369
661.0,0.4402
662.0,0.44
663.0,0.4317
664.0,0.4385
665.0,0.4402
666.0,0.4411
667.0,0.4413
668.0,0.4422
669.0,0.4495
670.0,0.4478
671.0,0.4481
672.0,0.4445
673.0,0.4515
674.0,0.4501
675.0,0.4463
676.0,0.4496
677.0,0.4454
678.0,0.4469
679.0,0.4399
680.0,0.4435
681.0,0.4407
682.0,0.4402
683.0,0.4394
684.0,0.4372
685.0,0.4412
686.0,0.4383
687.0,0.2225
688.0,0.2904
689.0,0.2925
690.0,0.3177
691.0,0.3472
692.0,0.3706
693.0,0.3668
694.0,0.3651
695.0,0.3891
696.0,0.3901
697.0,0.4242
698.0,0.4174
699.0,0.4004
700.0,0.3952
701.0,0.3885
702.0,0.394
703.0,0.3953
704.0,0.4122
705.0,0.4127
706.0,0.414
707.0,0.415
708.0,0.4157
709.0,0.4191
710.0,0.4176
711.0,0.4181
712.0,0.4182
713.0,0.4126
714.0,0.4146
715.0,0.3986
716.0,0.3982
717.0,0.3201
718.0,0.2917
719.0,0.2652
720.0,0.2753
721.0,0.3183
722.0,0.3797
723.0,0.3458
724.0,0.302
725.0,0.2941
726.0,0.3087
727.0,0.3195
728.0,0.2922
729.0,0.3119
730.0,0.3282
731.0,0.3123
732.0,0.3434
733.0,0.372
734.0,0.3837
735.0,0.3742
736.0,0.3734
737.0,0.375
738.0,0.3875
739.0,0.3799
740.0,0.3919
741.0,0.3892
742.0,0.3908
743.0,0.4011
744.0,0.4008
745.0,0.4015
746.0,0.4033
747.0,0.4044
748.0,0.4036
749.0,0.3991
750.0,0.3989
751.0,0.3949
752.0,0.3967
753.0,0.3988
754.0,0.3997
755.0,0.3974
756.0,0.3973
757.0,0.3979
758.0,0.3928
759.0,0.3805
760.0,0.02018
761.0,0.007286
762.0,0.1269
763.0,0.04007
764.0,0.07841
765.0,0.1266
766.0,0.1829
767.0,0.2634
768.0,0.3337
769.0,0.3478
770.0,0.3678
771.0,0.3744
772.0,0.3764
773.0,0.3793
774.0,0.3777
775.0,0.375
776.0,0.3797
777.0,0.3747
778.0,0.3724
779.0,0.3727
780.0,0.3707
781.0,0.3712
782.0,0.3736
783.0,0.3672
784.0,0.3691
785.0,0.366
786.0,0.3698
787.0,0.36
788.0,0.354
789.0,0.3538
790.0,0.3399
791.0,0.3473
792.0,0.3454
793.0,0.3393
794.0,0.3497
795.0,0.3543
796.0,0.3372
797.0,0.3371
798.0,0.3532
799.0,0.3498
800.0,0.3422
801.0,0.3397
802.0,0.3386
803.0,0.3352
804.0,0.3365
805.0,0.3372
806.0,0.3499
807.0,0.3449
808.0,0.3455
809.0,0.3366
810.0,0.3324
811.0,0.3295
812.0,0.3158
813.0,0.3075
814.0,0.2587
815.0,0.2579
816.0,0.2386
817.0,0.2437
818.0,0.2319
819.0,0.2693
820.0,0.2501
821.0,0.3072
822.0,0.2961
823.0,0.179
824.0,0.2817
825.0,0.3019
826.0,0.2856
827.0,0.3063
828.0,0.2455
829.0,0.2849
830.0,0.28
831.0,0.281
832.0,0.2699
833.0,0.2937
834.0,0.2789
835.0,0.3168
836.0,0.2961
837.0,0.3179
838.0,0.3044
839.0,0.3137
840.0,0.3215
841.0,0.3154
842.0,0.3185
843.0,0.3208
844.0,0.315
845.0,0.3274
846.0,0.3264
847.0,0.3211
848.0,0.318
849.0,0.3089
850.0,0.2961
851.0,0.3123
852.0,0.3107
853.0,0.3
854.0,0.2582
855.0,0.2848
856.0,0.3108
857.0,0.3185
858.0,0.3158
859.0,0.3166
860.0,0.3175
861.0,0.3156
862.0,0.3208
863.0,0.3283
864.0,0.312
865.0,0.3094
866.0,0.2782
867.0,0.2903
868.0,0.316
869.0,0.3095
870.0,0.3183
871.0,0.314
872.0,0.3129
873.0,0.3123
874.0,0.3086
875.0,0.3023
876.0,0.3054
877.0,0.3086
878.0,0.3117
879.0,0.307
880.0,0.3004
881.0,0.2954
882.0,0.3015
883.0,0.303
884.0,0.3014
885.0,0.3037
886.0,0.2874
887.0,0.292
888.0,0.2955
889.0,0.3005
890.0,0.2959
891.0,0.2964
892.0,0.2851
893.0,0.2736
894.0,0.2581
895.0,0.2367
896.0,0.2211
897.0,0.1817
898.0,0.2023
899.0,0.1448
900.0,0.2125
901.0,0.1517
902.0,0.1902
903.0,0.1877
904.0,0.256
905.0,0.2447
906.0,0.2267
907.0,0.1708
908.0,0.1768
909.0,0.1967
910.0,0.164
911.0,0.1823
912.0,0.1912
913.0,0.1659
914.0,0.1666
915.0,0.1797
916.0,0.1508
917.0,0.2011
918.0,0.1537
919.0,0.2082
920.0,0.2178
921.0,0.2261
922.0,0.1948
923.0,0.2193
924.0,0.1976
925.0,0.1938
926.0,0.1947
927.0,0.2253
928.0,0.1444
929.0,0.1264
930.0,0.09095
931.0,0.08638
932.0,0.05402
933.0,0.04049
934.0,0.01562
935.0,0.04411
936.0,0.02304
937.0,0.02316
938.0,0.03004
939.0,0.08347
940.0,0.1067
941.0,0.07267
942.0,0.08819
943.0,0.05216
944.0,0.06085
945.0,0.07665
946.0,0.03139
947.0,0.07488
948.0,0.05428
949.0,0.108
950.0,0.01984
951.0,0.1074
952.0,0.04815
953.0,0.0685
954.0,0.09128
955.0,0.07007
956.0,0.07531
957.0,0.04769
958.0,0.115
959.0,0.08208
960.0,0.09202
961.0,0.1107
962.0,0.1043
963.0,0.1268
964.0,0.1143
965.0,0.1261
966.0,0.1253
967.0,0.1238
968.0,0.1921
969.0,0.1967
970.0,0.1783
971.0,0.2157
972.0,0.2037
973.0,0.1657
974.0,0.1564
975.0,0.1661
976.0,0.1512
977.0,0.1857
978.0,0.1707
979.0,0.182
980.0,0.1695
981.0,0.2147
982.0,0.201
983.0,0.1906
984.0,0.2266
985.0,0.2
986.0,0.234
987.0,0.2256
988.0,0.2255
989.0,0.2355
990.0,0.2239
991.0,0.2358
992.0,0.2376
993.0,0.2284
994.0,0.2379
995.0,0.2382
996.0,0.2365
997.0,0.2372
998.0,0.2358
999.0,0.2352
1000.0,0.2326
1001.0,0.2365
1002.0,0.2262
1003.0,0.2321
1004.0,0.2254
1005.0,0.2185
1006.0,0.2264
1007.0,0.2316
1008.0,0.2296
1009.0,0.2276
1010.0,0.2263
1011.0,0.2305
1012.0,0.2278
1013.0,0.2301
1014.0,0.2285
1015.0,0.2269
1016.0,0.2258
1017.0,0.2262
1018.0,0.2258
1019.0,0.2196
1020.0,0.2244
1021.0,0.2244
1022.0,0.2221
1023.0,0.2244
1024.0,0.2199
1025.0,0.2247
1026.0,0.2234
1027.0,0.2229
1028.0,0.2223
1029.0,0.2196
1030.0,0.2216
1031.0,0.2205
1032.0,0.22
1033.0,0.2167
1034.0,0.2168
1035.0,0.2174
1036.0,0.2184
1037.0,0.2149
1038.0,0.2158
1039.0,0.2156
1040.0,0.2147
1041.0,0.2154
1042.0,0.2139
1043.0,0.2131
1044.0,0.2138
1045.0,0.2108
1046.0,0.2083
1047.0,0.2101
1048.0,0.2111
1049.0,0.2103
1050.0,0.2092
1051.0,0.2087
1052.0,0.2077
1053.0,0.2059
1054.0,0.2061
1055.0,0.206
1056.0,0.205
1057.0,0.2042
1058.0,0.199
1059.0,0.1989
1060.0,0.1985
1061.0,0.1981
1062.0,0.1989
1063.0,0.1968
1064.0,0.1992
1065.0,0.1972
1066.0,0.1937
1067.0,0.1961
1068.0,0.1914
1069.0,0.1858
1070.0,0.1918
1071.0,0.196
1072.0,0.1928
1073.0,0.1902
1074.0,0.1966
1075.0,0.183
1076.0,0.1962
1077.0,0.1906
1078.0,0.186
1079.0,0.1938
1080.0,0.1878
1081.0,0.1798
1082.0,0.1859
1083.0,0.1874
1084.0,0.1786
1085.0,0.1885
1086.0,0.167
1087.0,0.1757
1088.0,0.1866
1089.0,0.1771
1090.0,0.1714
1091.0,0.185
1092.0,0.1852
1093.0,0.1474
1094.0,0.1682
1095.0,0.1541
1096.0,0.1449
1097.0,0.181
1098.0,0.1412
1099.0,0.1487
1100.0,0.1346
1101.0,0.1376
1102.0,0.1288
1103.0,0.1257
1104.0,0.1261
1105.0,0.1445
1106.0,0.09571
1107.0,0.1345
1108.0,0.1052
1109.0,0.1069
1110.0,0.1315
1111.0,0.07757
1112.0,0.1066
1113.0,0.05687
1114.0,0.06405
1115.0,0.05226
1116.0,0.0361
1117.0,0.008574
1118.0,0.0406
1119.0,0.01575
1120.0,0.01919
1121.0,0.0277
1122.0,0.008379
1123.0,0.01753
1124.0,0.01473
1125.0,0.02031
1126.0,0.004099
1127.0,0.02321
1128.0,0.01035
1129.0,0.01131
1130.0,0.006804
1131.0,0.05431
1132.0,0.04052
1133.0,0.02023
1134.0,0.00308
1135.0,0.001293
1136.0,0.01512
1137.0,0.05117
1138.0,0.03502
1139.0,0.06485
1140.0,0.04929
1141.0,0.03344
1142.0,0.04069
1143.0,0.06339
1144.0,0.01679
1145.0,0.01949
1146.0,0.02096
1147.0,0.00451
1148.0,0.0541
1149.0,0.03973
1150.0,0.01918
1151.0,0.03475
1152.0,0.04693
1153.0,0.04912
1154.0,0.01919
1155.0,0.06748
1156.0,0.05813
1157.0,0.07067
1158.0,0.06969
1159.0,0.07797
1160.0,0.06433
1161.0,0.08662
1162.0,0.08627
1163.0,0.1303
1164.0,0.1069
1165.0,0.09588
1166.0,0.09931
1167.0,0.1105
1168.0,0.1106
1169.0,0.1146
1170.0,0.1288
1171.0,0.1255
1172.0,0.1306
1173.0,0.1286
1174.0,0.08228
1175.0,0.1282
1176.0,0.1469
1177.0,0.1369
1178.0,0.09552
1179.0,0.1481
1180.0,0.1259
1181.0,0.1301
1182.0,0.08149
1183.0,0.1294
1184.0,0.1184
1185.0,0.1117
1186.0,0.1411
1187.0,0.1316
1188.0,0.08135
1189.0,0.1222
1190.0,0.1385
1191.0,0.1259
1192.0,0.141
1193.0,0.1333
1194.0,0.1386
1195.0,0.1273
1196.0,0.1205
1197.0,0.1402
1198.0,0.1265
1199.0,0.09986
1200.0,0.1315
1201.0,0.1239
1202.0,0.1256
1203.0,0.1231
1204.0,0.1044
1205.0,0.1307
1206.0,0.1482
1207.0,0.1241
1208.0,0.1245
1209.0,0.1275
1210.0,0.1347
1211.0,0.1255
1212.0,0.1196
1213.0,0.1412
1214.0,0.1241
1215.0,0.1213
1216.0,0.1412
1217.0,0.136
1218.0,0.1399
1219.0,0.1373
1220.0,0.1402
1221.0,0.1425
1222.0,0.1382
1223.0,0.1362
1224.0,0.1338
1225.0,0.1414
1226.0,0.1435
1227.0,0.1283
1228.0,0.1451
1229.0,0.1435
1230.0,0.1403
1231.0,0.147
1232.0,0.146
1233.0,0.1374
1234.0,0.1477
1235.0,0.1462
1236.0,0.1477
1237.0,0.1441
1238.0,0.1472
1239.0,0.1453
1240.0,0.146
1241.0,0.1444
1242.0,0.1449
1243.0,0.1438
1244.0,0.1445
1245.0,0.1453
1246.0,0.1445
1247.0,0.1437
1248.0,0.1431
1249.0,0.144
1250.0,0.1428
1251.0,0.1404
1252.0,0.1412
1253.0,0.1387
1254.0,0.1364
1255.0,0.1407
1256.0,0.1343
1257.0,0.1331
1258.0,0.1375
1259.0,0.1288
1260.0,0.13
1261.0,0.1181
1262.0,0.1123
1263.0,0.1124
1264.0,0.09857
1265.0,0.1117
1266.0,0.1044
1267.0,0.1084
1268.0,0.09944
1269.0,0.04336
1270.0,0.1072
1271.0,0.1183
1272.0,0.1192
1273.0,0.1174
1274.0,0.1185
1275.0,0.121
1276.0,0.1231
1277.0,0.1251
1278.0,0.1293
1279.0,0.128
1280.0,0.1265
1281.0,0.1216
1282.0,0.1185
1283.0,0.1274
1284.0,0.1302
1285.0,0.1313
1286.0,0.1338
1287.0,0.1303
1288.0,0.1307
1289.0,0.1237
1290.0,0.1297
1291.0,0.1321
1292.0,0.1189
1293.0,0.1283
1294.0,0.1272
1295.0,0.1248
1296.0,0.1161
1297.0,0.1076
1298.0,0.1207
1299.0,0.1289
1300.0,0.1013
1301.0,0.1057
1302.0,0.1204
1303.0,0.1007
1304.0,0.07889
1305.0,0.1176
1306.0,0.1168
1307.0,0.08319
1308.0,0.1021
1309.0,0.1147
1310.0,0.08097
1311.0,0.09622
1312.0,0.09264
1313.0,0.08915
1314.0,0.07726
1315.0,0.07471
1316.0,0.09333
1317.0,0.08741
1318.0,0.09805
1319.0,0.06831
1320.0,0.06781
1321.0,0.08194
1322.0,0.08117
1323.0,0.05448
1324.0,0.06734
1325.0,0.0911
1326.0,0.07406
1327.0,0.06944
1328.0,0.05756
1329.0,0.03763
1330.0,0.05195
1331.0,0.02558
1332.0,0.02804
1333.0,0.04011
1334.0,0.03783
1335.0,0.05371
1336.0,0.03906
1337.0,0.03365
1338.0,0.03602
1339.0,0.03665
1340.0,0.03738
1341.0,0.03238
1342.0,0.03455
1343.0,0.01722
1344.0,0.01091
1345.0,0.0153
1346.0,0.004778
1347.0,0.004411
1348.0,0.0001107
1349.0,0.0004945
1350.0,0.0005977
1351.0,6.043e-05
1352.0,5.333e-06
1353.0,1.387e-07
1354.0,8.294e-07
1355.0,1.904e-09
1356.0,6.689e-08
1357.0,1.009e-07
1358.0,2.305e-09
1359.0,2.157e-10
1360.0,8.947e-10
1361.0,8.25e-13
1362.0,2.249e-15
1363.0,1.068e-09
1364.0,4.518e-10
1365.0,7.841e-16
1366.0,4.853e-09
1367.0,2.22e-09
1368.0,6.053e-18
1369.0,1.668e-10
1370.0,7.75e-11
1371.0,4.284e-12
1372.0,1.231e-09
1373.0,3.645e-08
1374.0,2.718e-07
1375.0,4.158e-07
1376.0,7.751e-07
1377.0,3.187e-07
1378.0,3.361e-06
1379.0,1.391e-07
1380.0,1.245e-07
1381.0,2.766e-09
1382.0,1.029e-09
1383.0,1.445e-11
1384.0,1.754e-10
1385.0,1.302e-09
1386.0,8.254e-10
1387.0,1.77e-07
1388.0,4.759e-09
1389.0,1.202e-06
1390.0,9.438e-07
1391.0,6.143e-07
1392.0,3.951e-08
1393.0,2.764e-07
1394.0,5.345e-08
1395.0,3.177e-10
1396.0,1.079e-12
1397.0,8.745e-08
1398.0,3.302e-06
1399.0,2.237e-06
1400.0,4.583e-13
1401.0,1.923e-12
1402.0,2.113e-05
1403.0,2.02e-05
1404.0,5.325e-06
1405.0,1.283e-10
1406.0,8.928e-06
1407.0,1.446e-06
1408.0,8.005e-06
1409.0,1.48e-06
1410.0,2.15e-06
1411.0,1.886e-05
1412.0,3.509e-05
1413.0,0.0007634
1414.0,1.886e-06
1415.0,7.034e-07
1416.0,0.002398
1417.0,0.0004497
1418.0,0.0003855
1419.0,5.362e-05
1420.0,0.0002317
1421.0,0.0003102
1422.0,0.00313
1423.0,0.0005556
1424.0,0.001183
1425.0,0.001466
1426.0,0.002198
1427.0,0.005077
1428.0,9.227e-05
1429.0,0.003113
