interpolation:linear
wavelength,value
280.0,3.294e-21
280.5,1.029e-19
281.0,5.423e-19
281.5,3.384e-19
282.0,1.048e-18
282.5,2.791e-18
283.0,9.091e-18
283.5,1.492e-17
284.0,2.439e-16
284.5,7.041e-16
285.0,1.6e-15
285.5,7.814e-15
286.0,3.128e-14
286.5,1.381e-13
287.0,3.908e-13
287.5,1.477e-12
288.0,3.877e-12
288.5,1.3e-11
289.0,3.718e-11
289.5,1.184e-10
290.0,3.397e-10
290.5,7.086e-10
291.0,1.555e-09
291.5,4.588e-09
292.0,1.014e-08
292.5,1.534e-08
293.0,3.623e-08
293.5,1.006e-07
294.0,1.73e-07
294.5,2.239e-07
295.0,4.166e-07
295.5,1.108e-06
296.0,2.221e-06
296.5,3.24e-06
297.0,4.552e-06
297.5,1.297e-05
298.0,2.163e-05
298.5,2.28e-05
299.0,5.273e-05
299.5,9.567e-05
300.0,0.0001111
300.5,0.0001709
301.0,0.0003444
301.5,0.0006172
302.0,0.0005673
302.5,0.001118
303.0,0.00203
303.5,0.002573
304.0,0.002429
304.5,0.003665
305.0,0.005635
305.5,0.006506
306.0,0.006318
306.5,0.007905
307.0,0.01184
307.5,0.01588
308.0,0.0168
308.5,0.01992
309.0,0.01962
309.5,0.02253
310.0,0.02267
310.5,0.03675
311.0,0.04619
311.5,0.04462
312.0,0.04473
312.5,0.05452
313.0,0.05918
313.5,0.05745
314.0,0.07195
314.5,0.06393
315.0,0.08405
315.5,0.07027
316.0,0.06146
316.5,0.08836
317.0,0.1097
317.5,0.1142
318.0,0.08914
318.5,0.1108
319.0,0.1316
319.5,0.1072
320.0,0.1295
320.5,0.1623
321.0,0.1446
321.5,0.1386
322.0,0.1477
322.5,0.1285
323.0,0.1281
323.5,0.1574
324.0,0.1838
324.5,0.1866
325.0,0.1613
325.5,0.2074
326.0,0.2537
326.5,0.254
327.0,0.2532
327.5,0.2447
328.0,0.218
328.5,0.229
329.0,0.2741
329.5,0.3112
330.0,0.314
330.5,0.2515
331.0,0.2563
331.5,0.2605
332.0,0.2813
332.5,0.2783
333.0,0.2776
333.5,0.2513
334.0,0.2576
334.5,0.2971
335.0,0.2792
335.5,0.3262
336.0,0.2257
336.5,0.2644
337.0,0.217
337.5,0.27
338.0,0.2636
338.5,0.3043
339.0,0.3013
339.5,0.2899
340.0,0.3408
340.5,0.3072
341.0,0.2997
341.5,0.2752
342.0,0.329
342.5,0.3079
343.0,0.3387
343.5,0.319
344.0,0.2358
344.5,0.2382
345.0,0.3153
345.5,0.322
346.0,0.2738
346.5,0.3101
347.0,0.3329
347.5,0.2693
348.0,0.3071
348.5,0.307
349.0,0.2849
349.5,0.2822
350.0,0.3491
350.5,0.3683
351.0,0.3291
351.5,0.3199
352.0,0.3437
352.5,0.2683
353.0,0.338
353.5,0.3615
354.0,0.3754
354.5,0.3808
355.0,0.3796
355.5,0.343
356.0,0.359
356.5,0.3066
357.0,0.2534
357.5,0.3103
358.0,0.2459
358.5,0.2102
359.0,0.2941
359.5,0.3748
360.0,0.3974
360.5,0.3177
361.0,0.2898
361.5,0.3338
362.0,0.2887
362.5,0.3998
363.0,0.3592
363.5,0.331
364.0,0.4049
364.5,0.3462
365.0,0.3527
365.5,0.4428
366.0,0.4693
366.5,0.4411
367.0,0.4297
367.5,0.446
368.0,0.3904
368.5,0.3941
369.0,0.4257
369.5,0.4538
370.0,0.484
370.5,0.3757
371.0,0.4016
371.5,0.5025
372.0,0.3336
372.5,0.4001
373.0,0.4072
373.5,0.265
374.0,0.3852
374.5,0.3191
375.0,0.3102
375.5,0.4633
376.0,0.3841
376.5,0.3982
377.0,0.4217
377.5,0.4935
378.0,0.535
378.5,0.5058
379.0,0.4175
379.5,0.3814
380.0,0.3966
380.5,0.4806
381.0,0.4818
381.5,0.382
382.0,0.3394
382.5,0.2894
383.0,0.268
383.5,0.2583
384.0,0.285
384.5,0.4192
385.0,0.4159
385.5,0.3874
386.0,0.3319
386.5,0.4361
387.0,0.3625
387.5,0.4072
388.0,0.3761
388.5,0.3719
389.0,0.4015
389.5,0.4865
390.0,0.4883
390.5,0.4495
391.0,0.5293
391.5,0.54
392.0,0.4549
392.5,0.4074
393.0,0.2268
393.5,0.1649
394.0,0.3356
394.5,0.4268
395.0,0.5209
395.5,0.5292
396.0,0.459
396.5,0.2684
397.0,0.2015
397.5,0.4098
398.0,0.574
398.5,0.5935
399.0,0.6429
399.5,0.6409
400.0,0.6656
401.0,0.6748
402.0,0.7123
403.0,0.677
404.0,0.6668
405.0,0.6669
406.0,0.6564
407.0,0.6462
408.0,0.6716
409.0,0.7191
410.0,0.6286
411.0,0.6811
412.0,0.7319
413.0,0.714
414.0,0.723
415.0,0.7252
416.0,0.7382
417.0,0.7203
418.0,0.7072
419.0,0.7168
420.0,0.7138
421.0,0.747
422.0,0.7103
423.0,0.694
424.0,0.7342
425.0,0.7331
426.0,0.7144
427.0,0.7013
428.0,0.6833
429.0,0.6475
430.0,0.5668
431.0,0.5619
432.0,0.7257
433.0,0.7299
434.0,0.6779
435.0,0.7081
436.0,0.7982
437.0,0.7877
438.0,0.7175
439.0,0.742
440.0,0.7659
441.0,0.7939
442.0,0.8516
443.0,0.8295
444.0,0.8477
445.0,0.8294
446.0,0.7919
447.0,0.8564
448.0,0.8697
449.0,0.8735
450.0,0.8981
451.0,0.9316
452.0,0.8977
453.0,0.8445
454.0,0.8818
455.0,0.8873
456.0,0.9086
457.0,0.9238
458.0,0.8922
459.0,0.8877
460.0,0.8901
461.0,0.9107
462.0,0.9179
463.0,0.9117
464.0,0.8969
465.0,0.8858
466.0,0.8946
467.0,0.8782
468.0,0.8886
469.0,0.8933
470.0,0.8648
471.0,0.8638
472.0,0.9102
473.0,0.8984
474.0,0.8996
475.0,0.9072
476.0,0.8799
477.0,0.8823
478.0,0.9068
479.0,0.9015
480.0,0.9033
481.0,0.9204
482.0,0.9254
483.0,0.9144
484.0,0.8958
485.0,0.8536
486.0,0.7464
487.0,0.7823
488.0,0.8583
489.0,0.8609
490.0,0.9059
491.0,0.8904
492.0,0.8408
493.0,0.8684
494.0,0.8772
495.0,0.8847
496.0,0.8901
497.0,0.9039
498.0,0.8617
499.0,0.8726
500.0,0.8471
501.0,0.8315
502.0,0.8196
503.0,0.8527
504.0,0.8304
505.0,0.8607
506.0,0.8885
507.0,0.8455
508.0,0.8194
509.0,0.8425
510.0,0.8382
511.0,0.8609
512.0,0.8703
513.0,0.8238
514.0,0.8182
515.0,0.81
516.0,0.808
517.0,0.718
518.0,0.7549
519.0,0.7918
520.0,0.8206
521.0,0.8283
522.0,0.829
523.0,0.814
524.0,0.8431
525.0,0.8528
526.0,0.8146
527.0,0.7675
528.0,0.8116
529.0,0.8554
530.0,0.843
531.0,0.8555
532.0,0.8261
533.0,0.8019
534.0,0.8257
535.0,0.8438
536.0,0.8516
537.0,0.8181
538.0,0.8326
539.0,0.8256
540.0,0.7915
541.0,0.7965
542.0,0.8214
543.0,0.8129
544.0,0.8268
545.0,0.8243
546.0,0.8277
547.0,0.8275
548.0,0.8177
549.0,0.8202
550.0,0.83
551.0,0.82
552.0,0.8257
553.0,0.8109
554.0,0.8302
555.0,0.8319
556.0,0.821
557.0,0.7954
558.0,0.7893
559.0,0.7745
560.0,0.7841
561.0,0.7941
562.0,0.7883
563.0,0.8096
564.0,0.7874
565.0,0.7805
566.0,0.769
567.0,0.7834
568.0,0.776
569.0,0.7568
570.0,0.7567
571.0,0.7524
572.0,0.7699
573.0,0.778
574.0,0.7755
575.0,0.7608
576.0,0.7539
577.0,0.7621
578.0,0.7509
579.0,0.7543
580.0,0.7692
581.0,0.7735
582.0,0.7886
583.0,0.7908
584.0,0.7979
585.0,0.7785
586.0,0.7625
587.0,0.779
588.0,0.7591
589.0,0.6706
590.0,0.7015
591.0,0.7434
592.0,0.7334
593.0,0.7451
594.0,0.7395
595.0,0.7206
596.0,0.7506
597.0,0.7421
598.0,0.7406
599.0,0.7415
600.0,0.743
601.0,0.7372
602.0,0.7322
603.0,0.7445
604.0,0.7569
605.0,0.7531
606.0,0.7501
607.0,0.7578
608.0,0.7496
609.0,0.751
610.0,0.7458
611.0,0.7498
612.0,0.7477
613.0,0.7384
614.0,0.7284
615.0,0.7444
616.0,0.72
617.0,0.7186
618.0,0.7464
619.0,0.7389
620.0,0.7435
621.0,0.7441
622.0,0.7353
623.0,0.724
624.0,0.7117
625.0,0.7101
626.0,0.7206
627.0,0.7283
628.0,0.6758
629.0,0.7095
630.0,0.693
631.0,0.7102
632.0,0.7019
633.0,0.7239
634.0,0.7173
635.0,0.7287
636.0,0.7194
637.0,0.7313
638.0,0.7387
639.0,0.7306
640.0,0.7237
641.0,0.7234
642.0,0.7203
643.0,0.73
644.0,0.7278
645.0,0.7289
646.0,0.7114
647.0,0.7017
648.0,0.7023
649.0,0.6886
650.0,0.6935
651.0,0.7238
652.0,0.6921
653.0,0.7143
654.0,0.7065
655.0,0.6794
656.0,0.6027
657.0,0.619
658.0,0.6942
659.0,0.6994
660.0,0.7024
661.0,0.7073
662.0,0.7085
663.0,0.6946
664.0,0.7033
665.0,0.7042
666.0,0.7048
667.0,0.7044
668.0,0.7048
669.0,0.7159
670.0,0.7128
671.0,0.7127
672.0,0.7067
673.0,0.7174
674.0,0.7148
675.0,0.7084
676.0,0.7133
677.0,0.7063
678.0,0.7083
679.0,0.697
680.0,0.7026
681.0,0.698
682.0,0.6971
683.0,0.6958
684.0,0.6923
685.0,0.6983
686.0,0.6941
687.0,0.442
688.0,0.5268
689.0,0.529
690.0,0.5579
691.0,0.5906
692.0,0.6149
693.0,0.6096
694.0,0.6046
695.0,0.6319
696.0,0.6329
697.0,0.6744
698.0,0.6639
699.0,0.6462
700.0,0.6383
701.0,0.6312
702.0,0.6362
703.0,0.6375
704.0,0.659
705.0,0.66
706.0,0.6599
707.0,0.6605
708.0,0.6619
709.0,0.6636
710.0,0.6632
711.0,0.6625
712.0,0.6609
713.0,0.6539
714.0,0.6565
715.0,0.635
716.0,0.6352
717.0,0.544
718.0,0.4987
719.0,0.4562
720.0,0.4773
721.0,0.531
722.0,0.612
723.0,0.5675
724.0,0.5086
725.0,0.4995
726.0,0.5232
727.0,0.5324
728.0,0.4979
729.0,0.519
730.0,0.549
731.0,0.5246
732.0,0.5637
733.0,0.5992
734.0,0.6141
735.0,0.601
736.0,0.6002
737.0,0.6026
738.0,0.6136
739.0,0.6015
740.0,0.6177
741.0,0.6119
742.0,0.6128
743.0,0.6285
744.0,0.6269
745.0,0.6272
746.0,0.63
747.0,0.6314
748.0,0.6301
749.0,0.623
750.0,0.6226
751.0,0.6163
752.0,0.619
753.0,0.6221
754.0,0.6235
755.0,0.62
756.0,0.6197
757.0,0.6206
758.0,0.6129
759.0,0.5994
760.0,0.08251
761.0,0.04038
762.0,0.286
763.0,0.1321
764.0,0.2079
765.0,0.286
766.0,0.3607
767.0,0.4652
768.0,0.5451
769.0,0.5584
770.0,0.5796
771.0,0.5852
772.0,0.5867
773.0,0.5909
774.0,0.5881
775.0,0.5837
776.0,0.5908
777.0,0.583
778.0,0.5795
779.0,0.58
780.0,0.5768
781.0,0.5774
782.0,0.581
783.0,0.5709
784.0,0.5737
785.0,0.5694
786.0,0.5756
787.0,0.5647
788.0,0.5572
789.0,0.5569
790.0,0.5409
791.0,0.5468
792.0,0.5429
793.0,0.534
794.0,0.5444
795.0,0.5533
796.0,0.5346
797.0,0.5352
798.0,0.5524
799.0,0.5486
800.0,0.5386
801.0,0.5366
802.0,0.535
803.0,0.5308
804.0,0.5317
805.0,0.5305
806.0,0.5462
807.0,0.5394
808.0,0.54
809.0,0.5292
810.0,0.5245
811.0,0.5243
812.0,0.5082
813.0,0.4969
814.0,0.4336
815.0,0.4311
816.0,0.4008
817.0,0.4085
818.0,0.3924
819.0,0.4418
820.0,0.4149
821.0,0.4894
822.0,0.4747
823.0,0.3158
824.0,0.4593
825.0,0.4808
826.0,0.4612
827.0,0.4881
828.0,0.4097
829.0,0.4586
830.0,0.4522
831.0,0.4539
832.0,0.4392
833.0,0.4694
834.0,0.4514
835.0,0.4989
836.0,0.4756
837.0,0.5004
838.0,0.4839
839.0,0.4931
840.0,0.5042
841.0,0.4966
842.0,0.4983
843.0,0.4987
844.0,0.4914
845.0,0.5085
846.0,0.5064
847.0,0.4972
848.0,0.4938
849.0,0.4797
850.0,0.4597
851.0,0.4864
852.0,0.4831
853.0,0.4653
854.0,0.4015
855.0,0.4414
856.0,0.4823
857.0,0.4932
858.0,0.4895
859.0,0.4901
860.0,0.491
861.0,0.4883
862.0,0.4961
863.0,0.5078
864.0,0.4824
865.0,0.4782
866.0,0.43
867.0,0.4487
868.0,0.4883
869.0,0.4782
870.0,0.4919
871.0,0.4852
872.0,0.4835
873.0,0.4825
874.0,0.4768
875.0,0.4671
876.0,0.4719
877.0,0.4767
878.0,0.4818
879.0,0.4744
880.0,0.4643
881.0,0.4571
882.0,0.467
883.0,0.4686
884.0,0.4664
885.0,0.4699
886.0,0.4472
887.0,0.4525
888.0,0.4588
889.0,0.4646
890.0,0.46
891.0,0.4596
892.0,0.4455
893.0,0.4306
894.0,0.4135
895.0,0.3883
896.0,0.3649
897.0,0.3104
898.0,0.3404
899.0,0.2553
900.0,0.3505
901.0,0.2676
902.0,0.319
903.0,0.3205
904.0,0.4104
905.0,0.3953
906.0,0.3691
907.0,0.2951
908.0,0.3017
909.0,0.329
910.0,0.287
911.0,0.3085
912.0,0.3232
913.0,0.291
914.0,0.2893
915.0,0.3137
916.0,0.2646
917.0,0.34
918.0,0.2711
919.0,0.3474
920.0,0.3534
921.0,0.3677
922.0,0.3258
923.0,0.3554
924.0,0.3335
925.0,0.3263
926.0,0.3296
927.0,0.3719
928.0,0.2644
929.0,0.2391
930.0,0.1842
931.0,0.175
932.0,0.1222
933.0,0.09736
934.0,0.04937
935.0,0.1012
936.0,0.06062
937.0,0.06118
938.0,0.07624
939.0,0.1694
940.0,0.2066
941.0,0.1523
942.0,0.1785
943.0,0.1145
944.0,0.1233
945.0,0.1577
946.0,0.07638
947.0,0.1574
948.0,0.1151
949.0,0.2145
950.0,0.05385
951.0,0.212
952.0,0.1088
953.0,0.1439
954.0,0.1802
955.0,0.1459
956.0,0.1442
957.0,0.1085
958.0,0.2094
959.0,0.162
960.0,0.1816
961.0,0.2072
962.0,0.1957
963.0,0.2286
964.0,0.2085
965.0,0.2279
966.0,0.2273
967.0,0.226
968.0,0.3138
969.0,0.3267
970.0,0.2987
971.0,0.3467
972.0,0.3307
973.0,0.2831
974.0,0.2681
975.0,0.2801
976.0,0.2634
977.0,0.3049
978.0,0.2875
979.0,0.3026
980.0,0.2836
981.0,0.3448
982.0,0.3279
983.0,0.3138
984.0,0.3573
985.0,0.3267
986.0,0.3649
987.0,0.3563
988.0,0.3557
989.0,0.3645
990.0,0.3535
991.0,0.3655
992.0,0.3677
993.0,0.3581
994.0,0.3678
995.0,0.3675
996.0,0.3657
997.0,0.3663
998.0,0.3645
999.0,0.3632
1000.0,0.3603
1001.0,0.3652
1002.0,0.3538
1003.0,0.3587
1004.0,0.3495
1005.0,0.3372
1006.0,0.3502
1007.0,0.3577
1008.0,0.3555
1009.0,0.3533
1010.0,0.3517
1011.0,0.3559
1012.0,0.3526
1013.0,0.3551
1014.0,0.3527
1015.0,0.3503
1016.0,0.3487
1017.0,0.3495
1018.0,0.3484
1019.0,0.3404
1020.0,0.3464
1021.0,0.3461
1022.0,0.3432
1023.0,0.3468
1024.0,0.3417
1025.0,0.3467
1026.0,0.3451
1027.0,0.3443
1028.0,0.3436
1029.0,0.3395
1030.0,0.342
1031.0,0.3405
1032.0,0.3396
1033.0,0.3345
1034.0,0.3345
1035.0,0.3356
1036.0,0.3372
1037.0,0.3318
1038.0,0.3332
1039.0,0.333
1040.0,0.3316
1041.0,0.3329
1042.0,0.3306
1043.0,0.3295
1044.0,0.3306
1045.0,0.3261
1046.0,0.3225
1047.0,0.3253
1048.0,0.3271
1049.0,0.3259
1050.0,0.3243
1051.0,0.3238
1052.0,0.3224
1053.0,0.3198
1054.0,0.3204
1055.0,0.3205
1056.0,0.3193
1057.0,0.3183
1058.0,0.3104
1059.0,0.3106
1060.0,0.3101
1061.0,0.3097
1062.0,0.3112
1063.0,0.3081
1064.0,0.3118
1065.0,0.3093
1066.0,0.3034
1067.0,0.3072
1068.0,0.3004
1069.0,0.2912
1070.0,0.3009
1071.0,0.3061
1072.0,0.3022
1073.0,0.2979
1074.0,0.3062
1075.0,0.2894
1076.0,0.3058
1077.0,0.2995
1078.0,0.2935
1079.0,0.3012
1080.0,0.2949
1081.0,0.2848
1082.0,0.2906
1083.0,0.2918
1084.0,0.2837
1085.0,0.2957
1086.0,0.2678
1087.0,0.2779
1088.0,0.2912
1089.0,0.2809
1090.0,0.2739
1091.0,0.2899
1092.0,0.2895
1093.0,0.2415
1094.0,0.2643
1095.0,0.252
1096.0,0.2402
1097.0,0.2828
1098.0,0.2359
1099.0,0.2468
1100.0,0.2277
1101.0,0.2311
1102.0,0.2197
1103.0,0.2167
1104.0,0.2171
1105.0,0.2408
1106.0,0.1777
1107.0,0.2274
1108.0,0.1889
1109.0,0.19
1110.0,0.2248
1111.0,0.1473
1112.0,0.1888
1113.0,0.115
1114.0,0.1289
1115.0,0.1066
1116.0,0.08207
1117.0,0.027
1118.0,0.09029
1119.0,0.04216
1120.0,0.05282
1121.0,0.07167
1122.0,0.02792
1123.0,0.04785
1124.0,0.04035
1125.0,0.0533
1126.0,0.01637
1127.0,0.06032
1128.0,0.03367
1129.0,0.03604
1130.0,0.02291
1131.0,0.1204
1132.0,0.09334
1133.0,0.05588
1134.0,0.01258
1135.0,0.004818
1136.0,0.04547
1137.0,0.1172
1138.0,0.08193
1139.0,0.1287
1140.0,0.105
1141.0,0.07791
1142.0,0.09092
1143.0,0.1318
1144.0,0.04298
1145.0,0.05395
1146.0,0.05815
1147.0,0.01822
1148.0,0.1139
1149.0,0.08904
1150.0,0.04662
1151.0,0.08126
1152.0,0.1023
1153.0,0.1015
1154.0,0.05207
1155.0,0.1342
1156.0,0.1195
1157.0,0.1363
1158.0,0.1348
1159.0,0.147
1160.0,0.124
1161.0,0.1563
1162.0,0.1568
1163.0,0.2175
1164.0,0.1845
1165.0,0.172
1166.0,0.1723
1167.0,0.1887
1168.0,0.1904
1169.0,0.1955
1170.0,0.2142
1171.0,0.2087
1172.0,0.2135
1173.0,0.2138
1174.0,0.1486
1175.0,0.2096
1176.0,0.2325
1177.0,0.2218
1178.0,0.1636
1179.0,0.2345
1180.0,0.207
1181.0,0.2138
1182.0,0.1443
1183.0,0.211
1184.0,0.1967
1185.0,0.1888
1186.0,0.227
1187.0,0.2153
1188.0,0.1463
1189.0,0.2004
1190.0,0.222
1191.0,0.209
1192.0,0.2253
1193.0,0.2153
1194.0,0.2223
1195.0,0.209
1196.0,0.2006
1197.0,0.223
1198.0,0.2033
1199.0,0.1703
1200.0,0.2125
1201.0,0.204
1202.0,0.2035
1203.0,0.2015
1204.0,0.175
1205.0,0.209
1206.0,0.2322
1207.0,0.2026
1208.0,0.2002
1209.0,0.2045
1210.0,0.2137
1211.0,0.2025
1212.0,0.1988
1213.0,0.2239
1214.0,0.2041
1215.0,0.2001
1216.0,0.2233
1217.0,0.2169
1218.0,0.2215
1219.0,0.2185
1220.0,0.2217
1221.0,0.2242
1222.0,0.2182
1223.0,0.2159
1224.0,0.2142
1225.0,0.2227
1226.0,0.2246
1227.0,0.2059
1228.0,0.226
1229.0,0.2246
1230.0,0.2205
1231.0,0.2276
1232.0,0.2262
1233.0,0.2174
1234.0,0.2276
1235.0,0.226
1236.0,0.2278
1237.0,0.2242
1238.0,0.227
1239.0,0.2241
1240.0,0.225
1241.0,0.2237
1242.0,0.2234
1243.0,0.2216
1244.0,0.2231
1245.0,0.2241
1246.0,0.2228
1247.0,0.2219
1248.0,0.2216
1249.0,0.2224
1250.0,0.221
1251.0,0.218
1252.0,0.2182
1253.0,0.2161
1254.0,0.2137
1255.0,0.2179
1256.0,0.2111
1257.0,0.2098
1258.0,0.2143
1259.0,0.2055
1260.0,0.2067
1261.0,0.1938
1262.0,0.1873
1263.0,0.1876
1264.0,0.1716
1265.0,0.1864
1266.0,0.1785
1267.0,0.1823
1268.0,0.1718
1269.0,0.09999
1270.0,0.1813
1271.0,0.1933
1272.0,0.1941
1273.0,0.1919
1274.0,0.1927
1275.0,0.1957
1276.0,0.1979
1277.0,0.1995
1278.0,0.2039
1279.0,0.202
1280.0,0.1995
1281.0,0.1906
1282.0,0.184
1283.0,0.1981
1284.0,0.2028
1285.0,0.2042
1286.0,0.2072
1287.0,0.2036
1288.0,0.2036
1289.0,0.1964
1290.0,0.2019
1291.0,0.2049
1292.0,0.191
1293.0,0.2005
1294.0,0.199
1295.0,0.1976
1296.0,0.1877
1297.0,0.1768
1298.0,0.1919
1299.0,0.2009
1300.0,0.1675
1301.0,0.1731
1302.0,0.1913
1303.0,0.1656
1304.0,0.1388
1305.0,0.1872
1306.0,0.187
1307.0,0.1427
1308.0,0.1663
1309.0,0.1853
1310.0,0.1398
1311.0,0.1588
1312.0,0.1541
1313.0,0.1507
1314.0,0.134
1315.0,0.1317
1316.0,0.1559
1317.0,0.1474
1318.0,0.1612
1319.0,0.123
1320.0,0.1198
1321.0,0.1406
1322.0,0.1415
1323.0,0.104
1324.0,0.1208
1325.0,0.1534
1326.0,0.1301
1327.0,0.1237
1328.0,0.1058
1329.0,0.07726
1330.0,0.1017
1331.0,0.05878
1332.0,0.06157
1333.0,0.08626
1334.0,0.07447
1335.0,0.1035
1336.0,0.08046
1337.0,0.0705
1338.0,0.07625
1339.0,0.0763
1340.0,0.07495
1341.0,0.07146
1342.0,0.07523
1343.0,0.04767
1344.0,0.02879
1345.0,0.04159
1346.0,0.0187
1347.0,0.01868
1348.0,0.0009687
1349.0,0.003702
1350.0,0.004018
1351.0,0.0007967
1352.0,0.0001704
1353.0,6.937e-06
1354.0,2.797e-05
1355.0,1.385e-07
1356.0,3.344e-06
1357.0,5.115e-06
1358.0,1.673e-07
1359.0,1.45e-08
1360.0,6.703e-08
1361.0,3.448e-11
1362.0,6.929e-14
1363.0,7.951e-08
1364.0,3.287e-08
1365.0,1.587e-14
1366.0,3.836e-07
1367.0,1.709e-07
1368.0,5.533e-17
1369.0,1.211e-08
1370.0,5.099e-09
1371.0,2.414e-10
1372.0,9.457e-08
1373.0,2.444e-06
1374.0,1.35e-05
1375.0,2.408e-05
1376.0,2.543e-05
1377.0,1.124e-05
1378.0,0.0001173
1379.0,4.714e-06
1380.0,6.071e-06
1381.0,1.449e-07
1382.0,8.145e-08
1383.0,1.077e-09
1384.0,1.281e-08
1385.0,9.27e-08
1386.0,6.477e-08
1387.0,1.246e-05
1388.0,2.519e-07
1389.0,5.169e-05
1390.0,4.412e-05
1391.0,2.857e-05
1392.0,1.777e-06
1393.0,1.032e-05
1394.0,3.991e-06
1395.0,2.452e-08
1396.0,5.529e-11
1397.0,3.843e-06
1398.0,0.0001289
1399.0,8.246e-05
1400.0,1.936e-11
1401.0,1.072e-10
1402.0,0.0002956
1403.0,0.0003537
1404.0,0.0001054
1405.0,1.042e-08
1406.0,0.0002521
1407.0,2.403e-05
1408.0,0.0002095
1409.0,6.102e-05
1410.0,5.427e-05
1411.0,0.0003141
1412.0,0.0004539
1413.0,0.005685
1414.0,4.367e-05
1415.0,1.965e-05
1416.0,0.01068
1417.0,0.002818
1418.0,0.003107
1419.0,0.0004665
1420.0,0.001889
1421.0,0.00207
1422.0,0.01402
1423.0,0.002616
1424.0,0.005028
1425.0,0.007171
1426.0,0.008668
1427.0,0.01712
1428.0,0.0008908
1429.0,0.01219
1430.0,0.02237
1431.0,0.02499
1432.0,0.000694
1433.0,0.01534
1434.0,0.007536
1435.0,0.006633
1436.0,0.01417
1437.0,0.0109
1438.0,0.004229
1439.0,0.01986
