interpolation:linear
wavelength,value
280.0,3.228e-21
280.5,1.009e-19
281.0,5.318e-19
281.5,3.276e-19
282.0,1.031e-18
282.5,2.752e-18
283.0,8.981e-18
283.5,1.474e-17
284.0,2.416e-16
284.5,6.981e-16
285.0,1.593e-15
285.5,7.771e-15
286.0,3.111e-14
286.5,1.373e-13
287.0,3.884e-13
287.5,1.468e-12
288.0,3.861e-12
288.5,1.293e-11
289.0,3.694e-11
289.5,1.176e-10
290.0,3.37e-10
290.5,7.028e-10
291.0,1.541e-09
291.5,4.52e-09
292.0,1e-08
292.5,1.513e-08
293.0,3.568e-08
293.5,9.891e-08
294.0,1.698e-07
294.5,2.198e-07
295.0,4.084e-07
295.5,1.084e-06
296.0,2.173e-06
296.5,3.169e-06
297.0,4.453e-06
297.5,1.27e-05
298.0,2.118e-05
298.5,2.232e-05
299.0,5.166e-05
299.5,9.379e-05
300.0,0.000109
300.5,0.0001677
301.0,0.0003383
301.5,0.000607
302.0,0.0005584
302.5,0.001101
303.0,0.002
303.5,0.002536
304.0,0.002395
304.5,0.003616
305.0,0.005564
305.5,0.006428
306.0,0.006243
306.5,0.007816
307.0,0.01172
307.5,0.01573
308.0,0.01664
308.5,0.01974
309.0,0.01944
309.5,0.02234
310.0,0.02248
310.5,0.03645
311.0,0.04583
311.5,0.04428
312.0,0.0444
312.5,0.05413
313.0,0.05877
313.5,0.05704
314.0,0.07147
314.5,0.06353
315.0,0.08353
315.5,0.06982
316.0,0.06109
316.5,0.08785
317.0,0.1091
317.5,0.1135
318.0,0.08864
318.5,0.1102
319.0,0.1309
319.5,0.1066
320.0,0.1288
320.5,0.1615
321.0,0.1439
321.5,0.138
322.0,0.147
322.5,0.1279
323.0,0.1275
323.5,0.1567
324.0,0.183
324.5,0.1858
325.0,0.1605
325.5,0.2065
326.0,0.2526
326.5,0.2529
327.0,0.2522
327.5,0.2436
328.0,0.217
328.5,0.2281
329.0,0.273
329.5,0.31
330.0,0.3128
330.5,0.2504
331.0,0.2552
331.5,0.2594
332.0,0.2802
332.5,0.2772
333.0,0.2765
333.5,0.2503
334.0,0.2565
334.5,0.296
335.0,0.2781
335.5,0.3249
336.0,0.2249
336.5,0.2634
337.0,0.2162
337.5,0.269
338.0,0.2626
338.5,0.3032
339.0,0.3001
339.5,0.2888
340.0,0.3394
340.5,0.306
341.0,0.2985
341.5,0.2742
342.0,0.3277
342.5,0.3067
343.0,0.3374
343.5,0.3177
344.0,0.2349
344.5,0.2373
345.0,0.3141
345.5,0.3208
346.0,0.2727
346.5,0.3089
347.0,0.3317
347.5,0.2682
348.0,0.3059
348.5,0.3058
349.0,0.2838
349.5,0.2811
350.0,0.3478
350.5,0.3669
351.0,0.3278
351.5,0.3187
352.0,0.3424
352.5,0.2673
353.0,0.3368
353.5,0.3602
354.0,0.374
354.5,0.3794
355.0,0.3782
355.5,0.3418
356.0,0.3577
356.5,0.3055
357.0,0.2524
357.5,0.3091
358.0,0.245
358.5,0.2094
359.0,0.293
359.5,0.3734
360.0,0.396
360.5,0.3166
361.0,0.2887
361.5,0.3325
362.0,0.2877
362.5,0.3983
363.0,0.3579
363.5,0.3298
364.0,0.4034
364.5,0.3449
365.0,0.3514
365.5,0.4412
366.0,0.4676
366.5,0.4395
367.0,0.4281
367.5,0.4444
368.0,0.389
368.5,0.3926
369.0,0.4241
369.5,0.4522
370.0,0.4822
370.5,0.3744
371.0,0.4001
371.5,0.5007
372.0,0.3324
372.5,0.3987
373.0,0.4057
373.5,0.264
374.0,0.3838
374.5,0.3179
375.0,0.3091
375.5,0.4616
376.0,0.3828
376.5,0.3967
377.0,0.4202
377.5,0.4917
378.0,0.5331
378.5,0.504
379.0,0.416
379.5,0.3801
380.0,0.3952
380.5,0.4789
381.0,0.48
381.5,0.3807
382.0,0.3382
382.5,0.2884
383.0,0.2671
383.5,0.2573
384.0,0.2839
384.5,0.4178
385.0,0.4144
385.5,0.3861
386.0,0.3307
386.5,0.4346
387.0,0.3612
387.5,0.4058
388.0,0.3748
388.5,0.3706
389.0,0.4001
389.5,0.4848
390.0,0.4866
390.5,0.448
391.0,0.5274
391.5,0.5381
392.0,0.4533
392.5,0.406
393.0,0.226
393.5,0.1643
394.0,0.3344
394.5,0.4253
395.0,0.5191
395.5,0.5274
396.0,0.4574
396.5,0.2675
397.0,0.2008
397.5,0.4084
398.0,0.572
398.5,0.5914
399.0,0.6406
399.5,0.6387
400.0,0.6633
401.0,0.6724
402.0,0.7098
403.0,0.6746
404.0,0.6645
405.0,0.6646
406.0,0.6542
407.0,0.644
408.0,0.6693
409.0,0.7166
410.0,0.6264
411.0,0.6788
412.0,0.7294
413.0,0.7115
414.0,0.7206
415.0,0.7228
416.0,0.7357
417.0,0.7179
418.0,0.7048
419.0,0.7144
420.0,0.7114
421.0,0.7445
422.0,0.7079
423.0,0.6917
424.0,0.7317
425.0,0.7307
426.0,0.712
427.0,0.6989
428.0,0.681
429.0,0.6453
430.0,0.5649
431.0,0.56
432.0,0.7233
433.0,0.7275
434.0,0.6757
435.0,0.7058
436.0,0.7955
437.0,0.7851
438.0,0.7152
439.0,0.7396
440.0,0.7634
441.0,0.7913
442.0,0.8488
443.0,0.8267
444.0,0.8449
445.0,0.8267
446.0,0.7893
447.0,0.8536
448.0,0.8668
449.0,0.8706
450.0,0.8952
451.0,0.9285
452.0,0.8948
453.0,0.8417
454.0,0.879
455.0,0.8845
456.0,0.9056
457.0,0.9208
458.0,0.8893
459.0,0.8849
460.0,0.8873
461.0,0.9078
462.0,0.915
463.0,0.9087
464.0,0.894
465.0,0.8829
466.0,0.8917
467.0,0.8754
468.0,0.8857
469.0,0.8904
470.0,0.862
471.0,0.861
472.0,0.9073
473.0,0.8955
474.0,0.8967
475.0,0.9043
476.0,0.8771
477.0,0.8794
478.0,0.9039
479.0,0.8986
480.0,0.9004
481.0,0.9174
482.0,0.9224
483.0,0.9115
484.0,0.893
485.0,0.8509
486.0,0.744
487.0,0.7799
488.0,0.8556
489.0,0.8582
490.0,0.903
491.0,0.8875
492.0,0.8382
493.0,0.8657
494.0,0.8744
495.0,0.8819
496.0,0.8873
497.0,0.9011
498.0,0.8589
499.0,0.8699
500.0,0.8445
501.0,0.8288
502.0,0.817
503.0,0.85
504.0,0.8277
505.0,0.8579
506.0,0.8857
507.0,0.8428
508.0,0.8168
509.0,0.8399
510.0,0.8356
511.0,0.8581
512.0,0.8675
513.0,0.8211
514.0,0.8156
515.0,0.8075
516.0,0.8055
517.0,0.7158
518.0,0.7525
519.0,0.7893
520.0,0.818
521.0,0.8257
522.0,0.8264
523.0,0.8115
524.0,0.8404
525.0,0.8501
526.0,0.812
527.0,0.765
528.0,0.809
529.0,0.8527
530.0,0.8403
531.0,0.8528
532.0,0.8234
533.0,0.7993
534.0,0.823
535.0,0.8411
536.0,0.8489
537.0,0.8155
538.0,0.8299
539.0,0.8229
540.0,0.789
541.0,0.794
542.0,0.8187
543.0,0.8103
544.0,0.8242
545.0,0.8216
546.0,0.8251
547.0,0.8249
548.0,0.8151
549.0,0.8176
550.0,0.8273
551.0,0.8173
552.0,0.823
553.0,0.8083
554.0,0.8276
555.0,0.8292
556.0,0.8184
557.0,0.7929
558.0,0.7868
559.0,0.772
560.0,0.7816
561.0,0.7916
562.0,0.7857
563.0,0.807
564.0,0.7849
565.0,0.778
566.0,0.7665
567.0,0.7808
568.0,0.7735
569.0,0.7543
570.0,0.7542
571.0,0.7499
572.0,0.7674
573.0,0.7755
574.0,0.7729
575.0,0.7583
576.0,0.7514
577.0,0.7596
578.0,0.7484
579.0,0.7518
580.0,0.7666
581.0,0.771
582.0,0.786
583.0,0.7882
584.0,0.7953
585.0,0.776
586.0,0.7601
587.0,0.7765
588.0,0.7566
589.0,0.6684
590.0,0.6991
591.0,0.741
592.0,0.7309
593.0,0.7426
594.0,0.7371
595.0,0.7182
596.0,0.7481
597.0,0.7396
598.0,0.7382
599.0,0.7391
600.0,0.7406
601.0,0.7348
602.0,0.7299
603.0,0.7421
604.0,0.7545
605.0,0.7507
606.0,0.7477
607.0,0.7553
608.0,0.7472
609.0,0.7486
610.0,0.7434
611.0,0.7474
612.0,0.7453
613.0,0.736
614.0,0.7261
615.0,0.7421
616.0,0.7177
617.0,0.7164
618.0,0.744
619.0,0.7365
620.0,0.7412
621.0,0.7418
622.0,0.733
623.0,0.7217
624.0,0.7094
625.0,0.7078
626.0,0.7183
627.0,0.726
628.0,0.6735
629.0,0.7072
630.0,0.6908
631.0,0.7079
632.0,0.6997
633.0,0.7216
634.0,0.7151
635.0,0.7265
636.0,0.7171
637.0,0.7291
638.0,0.7364
639.0,0.7283
640.0,0.7215
641.0,0.7212
642.0,0.7181
643.0,0.7278
644.0,0.7256
645.0,0.7267
646.0,0.7092
647.0,0.6996
648.0,0.7001
649.0,0.6865
650.0,0.6914
651.0,0.7216
652.0,0.6899
653.0,0.7121
654.0,0.7044
655.0,0.6773
656.0,0.6009
657.0,0.6171
658.0,0.6921
659.0,0.6972
660.0,0.7003
661.0,0.7052
662.0,0.7063
663.0,0.6925
664.0,0.7011
665.0,0.7021
666.0,0.7027
667.0,0.7023
668.0,0.7028
669.0,0.7137
670.0,0.7107
671.0,0.7106
672.0,0.7046
673.0,0.7153
674.0,0.7127
675.0,0.7063
676.0,0.7112
677.0,0.7042
678.0,0.7063
679.0,0.6949
680.0,0.7005
681.0,0.6959
682.0,0.695
683.0,0.6937
684.0,0.6903
685.0,0.6962
686.0,0.692
687.0,0.4402
688.0,0.5249
689.0,0.5271
690.0,0.5559
691.0,0.5886
692.0,0.6129
693.0,0.6076
694.0,0.6027
695.0,0.63
696.0,0.6309
697.0,0.6725
698.0,0.6619
699.0,0.6442
700.0,0.6363
701.0,0.6292
702.0,0.6343
703.0,0.6356
704.0,0.657
705.0,0.658
706.0,0.6579
707.0,0.6586
708.0,0.6599
709.0,0.6616
710.0,0.6612
711.0,0.6606
712.0,0.6589
713.0,0.652
714.0,0.6545
715.0,0.6331
716.0,0.6333
717.0,0.5422
718.0,0.497
719.0,0.4547
720.0,0.4757
721.0,0.5293
722.0,0.6101
723.0,0.5657
724.0,0.5069
725.0,0.4978
726.0,0.5215
727.0,0.5307
728.0,0.4962
729.0,0.5173
730.0,0.5472
731.0,0.5229
732.0,0.5619
733.0,0.5974
734.0,0.6123
735.0,0.5992
736.0,0.5984
737.0,0.6008
738.0,0.6118
739.0,0.5997
740.0,0.6159
741.0,0.6101
742.0,0.611
743.0,0.6266
744.0,0.6251
745.0,0.6254
746.0,0.6282
747.0,0.6296
748.0,0.6283
749.0,0.6212
750.0,0.6208
751.0,0.6145
752.0,0.6172
753.0,0.6203
754.0,0.6217
755.0,0.6182
756.0,0.618
757.0,0.6189
758.0,0.6111
759.0,0.5976
760.0,0.08184
761.0,0.03998
762.0,0.2846
763.0,0.1312
764.0,0.2067
765.0,0.2846
766.0,0.3592
767.0,0.4635
768.0,0.5434
769.0,0.5568
770.0,0.5779
771.0,0.5835
772.0,0.5851
773.0,0.5892
774.0,0.5864
775.0,0.582
776.0,0.5891
777.0,0.5814
778.0,0.5779
779.0,0.5783
780.0,0.5751
781.0,0.5757
782.0,0.5793
783.0,0.5693
784.0,0.5721
785.0,0.5677
786.0,0.5739
787.0,0.563
788.0,0.5556
789.0,0.5553
790.0,0.5393
791.0,0.5452
792.0,0.5413
793.0,0.5324
794.0,0.5428
795.0,0.5517
796.0,0.533
797.0,0.5336
798.0,0.5508
799.0,0.547
800.0,0.5371
801.0,0.535
802.0,0.5335
803.0,0.5292
804.0,0.5301
805.0,0.529
806.0,0.5446
807.0,0.5379
808.0,0.5385
809.0,0.5277
810.0,0.523
811.0,0.5227
812.0,0.5066
813.0,0.4954
814.0,0.4321
815.0,0.4297
816.0,0.3994
817.0,0.4071
818.0,0.391
819.0,0.4404
820.0,0.4135
821.0,0.4879
822.0,0.4732
823.0,0.3147
824.0,0.4578
825.0,0.4793
826.0,0.4598
827.0,0.4867
828.0,0.4083
829.0,0.4573
830.0,0.4508
831.0,0.4525
832.0,0.4379
833.0,0.468
834.0,0.45
835.0,0.4975
836.0,0.4742
837.0,0.499
838.0,0.4825
839.0,0.4917
840.0,0.5027
841.0,0.4951
842.0,0.4969
843.0,0.4973
844.0,0.49
845.0,0.5071
846.0,0.505
847.0,0.4958
848.0,0.4924
849.0,0.4784
850.0,0.4584
851.0,0.485
852.0,0.4817
853.0,0.464
854.0,0.4004
855.0,0.4402
856.0,0.4809
857.0,0.4919
858.0,0.4881
859.0,0.4887
860.0,0.4897
861.0,0.487
862.0,0.4947
863.0,0.5063
864.0,0.4811
865.0,0.4769
866.0,0.4288
867.0,0.4475
868.0,0.487
869.0,0.4769
870.0,0.4905
871.0,0.4838
872.0,0.4821
873.0,0.4811
874.0,0.4754
875.0,0.4658
876.0,0.4706
877.0,0.4754
878.0,0.4805
879.0,0.4731
880.0,0.463
881.0,0.4559
882.0,0.4656
883.0,0.4673
884.0,0.4651
885.0,0.4686
886.0,0.446
887.0,0.4512
888.0,0.4575
889.0,0.4633
890.0,0.4587
891.0,0.4583
892.0,0.4442
893.0,0.4293
894.0,0.4123
895.0,0.3871
896.0,0.3638
897.0,0.3093
898.0,0.3393
899.0,0.2544
900.0,0.3493
901.0,0.2666
902.0,0.3179
903.0,0.3194
904.0,0.4092
905.0,0.3941
906.0,0.368
907.0,0.2941
908.0,0.3007
909.0,0.3279
910.0,0.2859
911.0,0.3075
912.0,0.3221
913.0,0.29
914.0,0.2883
915.0,0.3126
916.0,0.2637
917.0,0.3389
918.0,0.2701
919.0,0.3463
920.0,0.3523
921.0,0.3666
922.0,0.3247
923.0,0.3543
924.0,0.3324
925.0,0.3252
926.0,0.3285
927.0,0.3707
928.0,0.2634
929.0,0.2381
930.0,0.1834
931.0,0.1742
932.0,0.1216
933.0,0.09684
934.0,0.04904
935.0,0.1007
936.0,0.06027
937.0,0.06083
938.0,0.07581
939.0,0.1687
940.0,0.2058
941.0,0.1516
942.0,0.1777
943.0,0.114
944.0,0.1228
945.0,0.157
946.0,0.07597
947.0,0.1567
948.0,0.1146
949.0,0.2136
950.0,0.05352
951.0,0.2111
952.0,0.1082
953.0,0.1432
954.0,0.1794
955.0,0.1453
956.0,0.1436
957.0,0.108
958.0,0.2086
959.0,0.1613
960.0,0.1808
961.0,0.2064
962.0,0.1949
963.0,0.2277
964.0,0.2077
965.0,0.2271
966.0,0.2264
967.0,0.2252
968.0,0.3129
969.0,0.3256
970.0,0.2977
971.0,0.3456
972.0,0.3297
973.0,0.2821
974.0,0.2672
975.0,0.2792
976.0,0.2624
977.0,0.304
978.0,0.2865
979.0,0.3016
980.0,0.2827
981.0,0.3438
982.0,0.3269
983.0,0.3128
984.0,0.3563
985.0,0.3257
986.0,0.3638
987.0,0.3552
988.0,0.3547
989.0,0.3635
990.0,0.3525
991.0,0.3644
992.0,0.3667
993.0,0.3571
994.0,0.3667
995.0,0.3665
996.0,0.3646
997.0,0.3653
998.0,0.3635
999.0,0.3622
1000.0,0.3593
1001.0,0.3642
1002.0,0.3528
1003.0,0.3577
1004.0,0.3486
1005.0,0.3363
1006.0,0.3492
1007.0,0.3567
1008.0,0.3545
1009.0,0.3523
1010.0,0.3507
1011.0,0.3549
1012.0,0.3516
1013.0,0.3542
1014.0,0.3517
1015.0,0.3493
1016.0,0.3477
1017.0,0.3485
1018.0,0.3474
1019.0,0.3395
1020.0,0.3455
1021.0,0.3451
1022.0,0.3422
1023.0,0.3458
1024.0,0.3408
1025.0,0.3458
1026.0,0.3441
1027.0,0.3434
1028.0,0.3426
1029.0,0.3385
1030.0,0.341
1031.0,0.3396
1032.0,0.3387
1033.0,0.3335
1034.0,0.3336
1035.0,0.3346
1036.0,0.3363
1037.0,0.3309
1038.0,0.3323
1039.0,0.3321
1040.0,0.3307
1041.0,0.332
1042.0,0.3297
1043.0,0.3286
1044.0,0.3297
1045.0,0.3252
1046.0,0.3216
1047.0,0.3244
1048.0,0.3262
1049.0,0.3249
1050.0,0.3234
1051.0,0.3229
1052.0,0.3215
1053.0,0.3189
1054.0,0.3195
1055.0,0.3196
1056.0,0.3184
1057.0,0.3174
1058.0,0.3095
1059.0,0.3097
1060.0,0.3092
1061.0,0.3088
1062.0,0.3103
1063.0,0.3072
1064.0,0.3109
1065.0,0.3084
1066.0,0.3025
1067.0,0.3063
1068.0,0.2995
1069.0,0.2904
1070.0,0.3001
1071.0,0.3052
1072.0,0.3013
1073.0,0.2971
1074.0,0.3053
1075.0,0.2885
1076.0,0.3049
1077.0,0.2987
1078.0,0.2927
1079.0,0.3003
1080.0,0.2941
1081.0,0.2839
1082.0,0.2897
1083.0,0.2909
1084.0,0.2829
1085.0,0.2949
1086.0,0.267
1087.0,0.2771
1088.0,0.2904
1089.0,0.2801
1090.0,0.2731
1091.0,0.2891
1092.0,0.2886
1093.0,0.2407
1094.0,0.2636
1095.0,0.2513
1096.0,0.2394
1097.0,0.282
1098.0,0.2352
1099.0,0.246
1100.0,0.227
1101.0,0.2303
1102.0,0.2189
1103.0,0.216
1104.0,0.2164
1105.0,0.24
1106.0,0.177
1107.0,0.2266
1108.0,0.1882
1109.0,0.1893
1110.0,0.2241
1111.0,0.1468
1112.0,0.1882
1113.0,0.1145
1114.0,0.1284
1115.0,0.1062
1116.0,0.08166
1117.0,0.02681
1118.0,0.08985
1119.0,0.04191
1120.0,0.05251
1121.0,0.07127
1122.0,0.02773
1123.0,0.04757
1124.0,0.04011
1125.0,0.05299
1126.0,0.01624
1127.0,0.05998
1128.0,0.03344
1129.0,0.0358
1130.0,0.02275
1131.0,0.1199
1132.0,0.09287
1133.0,0.05555
1134.0,0.01247
1135.0,0.004781
1136.0,0.04518
1137.0,0.1166
1138.0,0.08151
1139.0,0.1282
1140.0,0.1046
1141.0,0.07752
1142.0,0.09048
1143.0,0.1313
1144.0,0.04274
1145.0,0.05363
1146.0,0.0578
1147.0,0.01808
1148.0,0.1134
1149.0,0.08861
1150.0,0.04637
1151.0,0.08085
1152.0,0.1018
1153.0,0.101
1154.0,0.05176
1155.0,0.1336
1156.0,0.119
1157.0,0.1358
1158.0,0.1343
1159.0,0.1464
1160.0,0.1235
1161.0,0.1557
1162.0,0.1562
1163.0,0.2168
1164.0,0.1839
1165.0,0.1714
1166.0,0.1717
1167.0,0.1881
1168.0,0.1897
1169.0,0.1949
1170.0,0.2135
1171.0,0.208
1172.0,0.2128
1173.0,0.2131
1174.0,0.1481
1175.0,0.209
1176.0,0.2318
1177.0,0.2211
1178.0,0.1631
1179.0,0.2338
1180.0,0.2064
1181.0,0.2131
1182.0,0.1438
1183.0,0.2103
1184.0,0.196
1185.0,0.1882
1186.0,0.2263
1187.0,0.2146
1188.0,0.1458
1189.0,0.1997
1190.0,0.2213
1191.0,0.2083
1192.0,0.2246
1193.0,0.2146
1194.0,0.2216
1195.0,0.2084
1196.0,0.1999
1197.0,0.2223
1198.0,0.2026
1199.0,0.1697
1200.0,0.2118
1201.0,0.2034
1202.0,0.2029
1203.0,0.2009
1204.0,0.1744
1205.0,0.2084
1206.0,0.2315
1207.0,0.202
1208.0,0.1996
1209.0,0.2039
1210.0,0.213
1211.0,0.2019
1212.0,0.1982
1213.0,0.2233
1214.0,0.2035
1215.0,0.1994
1216.0,0.2227
1217.0,0.2163
1218.0,0.2208
1219.0,0.2178
1220.0,0.2211
1221.0,0.2236
1222.0,0.2175
1223.0,0.2153
1224.0,0.2135
1225.0,0.2221
1226.0,0.2239
1227.0,0.2053
1228.0,0.2253
1229.0,0.2239
1230.0,0.2199
1231.0,0.227
1232.0,0.2256
1233.0,0.2168
1234.0,0.227
1235.0,0.2254
1236.0,0.2272
1237.0,0.2235
1238.0,0.2264
1239.0,0.2235
1240.0,0.2244
1241.0,0.2231
1242.0,0.2228
1243.0,0.221
1244.0,0.2225
1245.0,0.2235
1246.0,0.2222
1247.0,0.2213
1248.0,0.221
1249.0,0.2218
1250.0,0.2204
1251.0,0.2174
1252.0,0.2176
1253.0,0.2155
1254.0,0.2131
1255.0,0.2173
1256.0,0.2105
1257.0,0.2092
1258.0,0.2137
1259.0,0.2049
1260.0,0.2061
1261.0,0.1932
1262.0,0.1867
1263.0,0.187
1264.0,0.171
1265.0,0.1858
1266.0,0.1779
1267.0,0.1817
1268.0,0.1712
1269.0,0.0995
1270.0,0.1807
1271.0,0.1927
1272.0,0.1935
1273.0,0.1913
1274.0,0.1921
1275.0,0.1951
1276.0,0.1973
1277.0,0.1989
1278.0,0.2033
1279.0,0.2014
1280.0,0.1989
1281.0,0.19
1282.0,0.1835
1283.0,0.1976
1284.0,0.2022
1285.0,0.2036
1286.0,0.2066
1287.0,0.203
1288.0,0.203
1289.0,0.1958
1290.0,0.2013
1291.0,0.2043
1292.0,0.1904
1293.0,0.1999
1294.0,0.1984
1295.0,0.197
1296.0,0.1871
1297.0,0.1763
1298.0,0.1913
1299.0,0.2003
1300.0,0.167
1301.0,0.1726
1302.0,0.1907
1303.0,0.1651
1304.0,0.1383
1305.0,0.1866
1306.0,0.1865
1307.0,0.1422
1308.0,0.1657
1309.0,0.1847
1310.0,0.1393
1311.0,0.1583
1312.0,0.1536
1313.0,0.1502
1314.0,0.1336
1315.0,0.1312
1316.0,0.1554
1317.0,0.1469
1318.0,0.1607
1319.0,0.1226
1320.0,0.1194
1321.0,0.1401
1322.0,0.141
1323.0,0.1036
1324.0,0.1203
1325.0,0.1529
1326.0,0.1297
1327.0,0.1232
1328.0,0.1054
1329.0,0.07692
1330.0,0.1013
1331.0,0.05849
1332.0,0.06127
1333.0,0.08586
1334.0,0.07416
1335.0,0.1031
1336.0,0.08011
1337.0,0.07018
1338.0,0.0759
1339.0,0.07595
1340.0,0.07463
1341.0,0.07112
1342.0,0.07488
1343.0,0.04738
1344.0,0.02863
1345.0,0.04135
1346.0,0.01856
1347.0,0.01852
1348.0,0.0009565
1349.0,0.003659
1350.0,0.003975
1351.0,0.000785
1352.0,0.0001671
1353.0,6.771e-06
1354.0,2.739e-05
1355.0,1.343e-07
1356.0,3.263e-06
1357.0,4.992e-06
1358.0,1.623e-07
1359.0,1.396e-08
1360.0,6.484e-08
1361.0,3.284e-11
1362.0,6.562e-14
1363.0,7.666e-08
1364.0,3.171e-08
1365.0,1.491e-14
1366.0,3.707e-07
1367.0,1.655e-07
1368.0,5.135e-17
1369.0,1.168e-08
1370.0,4.902e-09
1371.0,2.312e-10
1372.0,9.158e-08
1373.0,2.379e-06
1374.0,1.318e-05
1375.0,2.35e-05
1376.0,2.49e-05
1377.0,1.1e-05
1378.0,0.000115
1379.0,4.615e-06
1380.0,5.928e-06
1381.0,1.413e-07
1382.0,7.88e-08
1383.0,1.04e-09
1384.0,1.234e-08
1385.0,9.003e-08
1386.0,6.251e-08
1387.0,1.214e-05
1388.0,2.456e-07
1389.0,5.056e-05
1390.0,4.314e-05
1391.0,2.792e-05
1392.0,1.736e-06
1393.0,1.01e-05
1394.0,3.881e-06
1395.0,2.376e-08
1396.0,5.276e-11
1397.0,3.756e-06
1398.0,0.0001263
1399.0,8.077e-05
1400.0,1.84e-11
1401.0,1.025e-10
1402.0,0.0002911
1403.0,0.0003479
1404.0,0.0001036
1405.0,1.007e-08
1406.0,0.0002474
1407.0,2.363e-05
1408.0,0.0002057
1409.0,5.974e-05
1410.0,5.325e-05
1411.0,0.0003091
1412.0,0.0004472
1413.0,0.005622
1414.0,4.287e-05
1415.0,1.926e-05
1416.0,0.01059
1417.0,0.002788
1418.0,0.003071
1419.0,0.0004608
1420.0,0.001867
1421.0,0.002047
1422.0,0.0139
1423.0,0.002593
1424.0,0.004985
1425.0,0.007105
1426.0,0.008598
1427.0,0.017
1428.0,0.0008792
1429.0,0.01209
1430.0,0.02223
1431.0,0.02483
1432.0,0.0006848
1433.0,0.01524
1434.0,0.007481
1435.0,0.00657
1436.0,0.01406
1437.0,0.01082
1438.0,0.004191
1439.0,0.01972
