interpolation:linear
wavelength,value
280.0,1.1890000000000002e-20
280.5,3.547e-19
281.0,1.842e-18
281.5,4.4e-19
282.0,1.523e-18
282.5,4.106e-18
283.0,1.337e-17
283.5,2.19e-17
284.0,3.477e-16
284.5,9.897e-16
285.0,1.878e-15
285.5,1.014e-14
286.0,4.158e-14
286.5,1.889e-13
287.0,5.413e-13
287.5,2.063e-12
288.0,5.53e-12
288.5,2.027e-11
289.0,6.27e-11
289.5,2.152e-10
290.0,6.53e-10
290.5,1.426e-09
291.0,3.299e-09
291.5,1.034e-08
292.0,2.608e-08
292.5,4.135e-08
293.0,1.04e-07
293.5,3.178e-07
294.0,5.895e-07
294.5,7.897e-07
295.0,1.587e-06
295.5,4.29e-06
296.0,8.455e-06
296.5,1.208e-05
297.0,1.665e-05
297.5,4.586e-05
298.0,7.397e-05
298.5,7.579e-05
299.0,0.0001702
299.5,0.0002915
300.0,0.0003269
300.5,0.0004834
301.0,0.0009071
301.5,0.001503
302.0,0.001316
302.5,0.002535
303.0,0.004466
303.5,0.00555
304.0,0.005164
304.5,0.007503
305.0,0.01095
305.5,0.01225
306.0,0.01174
306.5,0.0144
307.0,0.02063
307.5,0.02653
308.0,0.02788
308.5,0.03239
309.0,0.03155
309.5,0.03528
310.0,0.03507
310.5,0.05649
311.0,0.07028
311.5,0.06759
312.0,0.06626
312.5,0.07957
313.0,0.08571
313.5,0.08378
314.0,0.1031
314.5,0.08947
315.0,0.1171
315.5,0.09901
316.0,0.08497
316.5,0.1202
317.0,0.1492
317.5,0.156
318.0,0.1204
318.5,0.1466
319.0,0.1722
319.5,0.1427
320.0,0.1728
320.5,0.2118
321.0,0.1851
321.5,0.1772
322.0,0.1927
322.5,0.1675
323.0,0.1646
323.5,0.1998
324.0,0.2327
324.5,0.2376
325.0,0.2067
325.5,0.2629
326.0,0.3205
326.5,0.3187
327.0,0.3185
327.5,0.3087
328.0,0.2775
328.5,0.2883
329.0,0.342
329.5,0.3871
330.0,0.3914
330.5,0.3156
331.0,0.3223
331.5,0.3258
332.0,0.3493
332.5,0.3443
333.0,0.344
333.5,0.3132
334.0,0.3212
334.5,0.3682
335.0,0.3447
335.5,0.4026
336.0,0.2786
336.5,0.3268
337.0,0.2689
337.5,0.3348
338.0,0.3252
338.5,0.3752
339.0,0.3714
339.5,0.3573
340.0,0.42
340.5,0.3784
341.0,0.3691
341.5,0.3388
342.0,0.4049
342.5,0.3788
343.0,0.4167
343.5,0.3924
344.0,0.29
344.5,0.293
345.0,0.3877
345.5,0.3958
346.0,0.3363
346.5,0.3808
347.0,0.4089
347.5,0.3307
348.0,0.3769
348.5,0.3767
349.0,0.3495
349.5,0.3461
350.0,0.4281
350.5,0.4516
351.0,0.4035
351.5,0.3922
352.0,0.4212
352.5,0.3287
353.0,0.414
353.5,0.4427
354.0,0.4596
354.5,0.4662
355.0,0.4647
355.5,0.4198
356.0,0.4392
356.5,0.3751
357.0,0.3099
357.5,0.3795
358.0,0.3008
358.5,0.257
359.0,0.3595
359.5,0.4583
360.0,0.4858
360.5,0.3883
361.0,0.354
361.5,0.4077
362.0,0.3525
362.5,0.488
363.0,0.4383
363.5,0.4038
364.0,0.4938
364.5,0.4222
365.0,0.43
365.5,0.5397
366.0,0.5719
366.5,0.5374
367.0,0.5234
367.5,0.5432
368.0,0.4754
368.5,0.4798
369.0,0.5182
369.5,0.5523
370.0,0.5889
370.5,0.4571
371.0,0.4885
371.5,0.6112
372.0,0.4057
372.5,0.4865
373.0,0.4949
373.5,0.322
374.0,0.468
374.5,0.3876
375.0,0.3768
375.5,0.5627
376.0,0.4665
376.5,0.4835
377.0,0.5119
377.5,0.599
378.0,0.6493
378.5,0.6138
379.0,0.5066
379.5,0.4628
380.0,0.4812
380.5,0.5829
381.0,0.5842
381.5,0.4632
382.0,0.4114
382.5,0.3507
383.0,0.3247
383.5,0.3128
384.0,0.3451
384.5,0.5077
385.0,0.5035
385.5,0.4689
386.0,0.4017
386.5,0.5277
387.0,0.4385
387.5,0.4926
388.0,0.4549
388.5,0.4497
389.0,0.4855
389.5,0.5881
390.0,0.5903
390.5,0.5433
391.0,0.6396
391.5,0.6524
392.0,0.5495
392.5,0.492
393.0,0.2738
393.5,0.1991
394.0,0.4051
394.5,0.5151
395.0,0.6286
395.5,0.6386
396.0,0.5538
396.5,0.3238
397.0,0.243
397.5,0.4942
398.0,0.6922
398.5,0.7155
399.0,0.7749
399.5,0.7724
400.0,0.8021
401.0,0.8143
402.0,0.8592
403.0,0.8163
404.0,0.8039
405.0,0.8039
406.0,0.7909
407.0,0.7783
408.0,0.8088
409.0,0.8658
410.0,0.7566
411.0,0.8196
412.0,0.8804
413.0,0.8587
414.0,0.8693
415.0,0.8717
416.0,0.887
417.0,0.8653
418.0,0.8494
419.0,0.8606
420.0,0.8569
421.0,0.8965
422.0,0.8522
423.0,0.8326
424.0,0.8807
425.0,0.8791
426.0,0.8564
427.0,0.8404
428.0,0.8187
429.0,0.7755
430.0,0.6788
431.0,0.6728
432.0,0.8687
433.0,0.8736
434.0,0.8112
435.0,0.8473
436.0,0.9547
437.0,0.9418
438.0,0.8577
439.0,0.8872
440.0,0.9155
441.0,0.9487
442.0,1.017
443.0,0.9911
444.0,1.013
445.0,0.9908
446.0,0.9455
447.0,1.022
448.0,1.038
449.0,1.042
450.0,1.071
451.0,1.111
452.0,1.071
453.0,1.007
454.0,1.051
455.0,1.058
456.0,1.083
457.0,1.101
458.0,1.063
459.0,1.058
460.0,1.061
461.0,1.085
462.0,1.093
463.0,1.086
464.0,1.068
465.0,1.054
466.0,1.064
467.0,1.045
468.0,1.057
469.0,1.063
470.0,1.029
471.0,1.028
472.0,1.083
473.0,1.069
474.0,1.071
475.0,1.08
476.0,1.048
477.0,1.051
478.0,1.08
479.0,1.073
480.0,1.075
481.0,1.095
482.0,1.101
483.0,1.087
484.0,1.065
485.0,1.015
486.0,0.8868
487.0,0.9293
488.0,1.02
489.0,1.023
490.0,1.076
491.0,1.057
492.0,0.9985
493.0,1.031
494.0,1.042
495.0,1.05
496.0,1.057
497.0,1.073
498.0,1.023
499.0,1.036
500.0,1.006
501.0,0.9878
502.0,0.9741
503.0,1.014
504.0,0.9889
505.0,1.024
506.0,1.057
507.0,1.006
508.0,0.9741
509.0,1.001
510.0,0.9959
511.0,1.022
512.0,1.033
513.0,0.9781
514.0,0.9714
515.0,0.9617
516.0,0.9594
517.0,0.8524
518.0,0.8962
519.0,0.94
520.0,0.9743
521.0,0.9835
522.0,0.9844
523.0,0.9668
524.0,1.001
525.0,1.013
526.0,0.9681
527.0,0.9124
528.0,0.9651
529.0,1.017
530.0,1.003
531.0,1.018
532.0,0.9828
533.0,0.954
534.0,0.9821
535.0,1.003
536.0,1.013
537.0,0.9726
538.0,0.9898
539.0,0.9815
540.0,0.941
541.0,0.9474
542.0,0.9772
543.0,0.9668
544.0,0.9837
545.0,0.9806
546.0,0.9851
547.0,0.9845
548.0,0.9727
549.0,0.9756
550.0,0.9871
551.0,0.9751
552.0,0.9819
553.0,0.9644
554.0,0.9875
555.0,0.9895
556.0,0.9766
557.0,0.9463
558.0,0.9393
559.0,0.9218
560.0,0.9334
561.0,0.9456
562.0,0.9388
563.0,0.9646
564.0,0.9384
565.0,0.9304
566.0,0.9168
567.0,0.9343
568.0,0.9263
569.0,0.9048
570.0,0.9045
571.0,0.8989
572.0,0.9208
573.0,0.9307
574.0,0.9278
575.0,0.9106
576.0,0.9023
577.0,0.9121
578.0,0.8982
579.0,0.9016
580.0,0.9183
581.0,0.9228
582.0,0.94
583.0,0.9421
584.0,0.9501
585.0,0.9268
586.0,0.9078
587.0,0.9278
588.0,0.9059
589.0,0.8039
590.0,0.8406
591.0,0.8888
592.0,0.878
593.0,0.8904
594.0,0.8845
595.0,0.8631
596.0,0.8961
597.0,0.8866
598.0,0.884
599.0,0.8847
600.0,0.8857
601.0,0.8783
602.0,0.8723
603.0,0.8866
604.0,0.9012
605.0,0.8965
606.0,0.8927
607.0,0.9015
608.0,0.8914
609.0,0.8928
610.0,0.8863
611.0,0.8909
612.0,0.8882
613.0,0.877
614.0,0.865
615.0,0.8837
616.0,0.8545
617.0,0.8527
618.0,0.8855
619.0,0.8765
620.0,0.882
621.0,0.883
622.0,0.8727
623.0,0.8595
624.0,0.8447
625.0,0.8428
626.0,0.8553
627.0,0.8651
628.0,0.8106
629.0,0.8456
630.0,0.8262
631.0,0.8439
632.0,0.8336
633.0,0.8586
634.0,0.85
635.0,0.8631
636.0,0.8515
637.0,0.8653
638.0,0.8734
639.0,0.8635
640.0,0.855
641.0,0.8544
642.0,0.8504
643.0,0.8618
644.0,0.8589
645.0,0.8604
646.0,0.8406
647.0,0.8314
648.0,0.8322
649.0,0.8162
650.0,0.8192
651.0,0.8545
652.0,0.82
653.0,0.8431
654.0,0.8337
655.0,0.8031
656.0,0.7114
657.0,0.7305
658.0,0.8184
659.0,0.8242
660.0,0.8275
661.0,0.8333
662.0,0.8352
663.0,0.8186
664.0,0.8281
665.0,0.8285
666.0,0.8291
667.0,0.8282
668.0,0.8285
669.0,0.8412
670.0,0.8375
671.0,0.8373
672.0,0.8301
673.0,0.8426
674.0,0.8394
675.0,0.8317
676.0,0.8374
677.0,0.829
678.0,0.8313
679.0,0.8179
680.0,0.8244
681.0,0.819
682.0,0.8179
683.0,0.8163
684.0,0.8123
685.0,0.8192
686.0,0.8144
687.0,0.5521
688.0,0.6416
689.0,0.6438
690.0,0.6734
691.0,0.7067
692.0,0.7307
693.0,0.7249
694.0,0.7189
695.0,0.7472
696.0,0.7483
697.0,0.7923
698.0,0.7801
699.0,0.7625
700.0,0.7534
701.0,0.7461
702.0,0.7508
703.0,0.7522
704.0,0.7756
705.0,0.7767
706.0,0.7758
707.0,0.7763
708.0,0.778
709.0,0.7786
710.0,0.7788
711.0,0.7776
712.0,0.7751
713.0,0.7675
714.0,0.7703
715.0,0.7464
716.0,0.747
717.0,0.6521
718.0,0.5995
719.0,0.5496
720.0,0.576
721.0,0.6333
722.0,0.7218
723.0,0.6734
724.0,0.6084
725.0,0.5992
726.0,0.6269
727.0,0.6349
728.0,0.5979
729.0,0.6187
730.0,0.6548
731.0,0.6269
732.0,0.669
733.0,0.7066
734.0,0.723
735.0,0.7083
736.0,0.7073
737.0,0.7102
738.0,0.7201
739.0,0.7059
740.0,0.724
741.0,0.7166
742.0,0.7171
743.0,0.7353
744.0,0.7331
745.0,0.7332
746.0,0.7365
747.0,0.7381
748.0,0.7366
749.0,0.7281
750.0,0.7277
751.0,0.7203
752.0,0.7234
753.0,0.7271
754.0,0.7287
755.0,0.7246
756.0,0.7242
757.0,0.7253
758.0,0.7163
759.0,0.7023
760.0,0.1267
761.0,0.0683
762.0,0.3697
763.0,0.1902
764.0,0.2812
765.0,0.3698
766.0,0.4493
767.0,0.5622
768.0,0.6451
769.0,0.6578
770.0,0.6792
771.0,0.6843
772.0,0.6856
773.0,0.6904
774.0,0.687
775.0,0.6817
776.0,0.69
777.0,0.6809
778.0,0.6768
779.0,0.6774
780.0,0.6736
781.0,0.6743
782.0,0.6784
783.0,0.6666
784.0,0.6698
785.0,0.6649
786.0,0.6722
787.0,0.6609
788.0,0.6529
789.0,0.6527
790.0,0.6359
791.0,0.6408
792.0,0.636
793.0,0.6258
794.0,0.6359
795.0,0.6468
796.0,0.6277
797.0,0.6285
798.0,0.6461
799.0,0.6421
800.0,0.6312
801.0,0.6294
802.0,0.6276
803.0,0.6229
804.0,0.6237
805.0,0.6215
806.0,0.6385
807.0,0.6309
808.0,0.6315
809.0,0.6199
810.0,0.615
811.0,0.6162
812.0,0.5991
813.0,0.587
814.0,0.5182
815.0,0.5149
816.0,0.4795
817.0,0.4881
818.0,0.4702
819.0,0.5242
820.0,0.4942
821.0,0.5756
822.0,0.5595
823.0,0.3838
824.0,0.5439
825.0,0.5657
826.0,0.5449
827.0,0.5743
828.0,0.4888
829.0,0.5414
830.0,0.5345
831.0,0.5363
832.0,0.5202
833.0,0.5526
834.0,0.5336
835.0,0.5849
836.0,0.5607
837.0,0.5865
838.0,0.5686
839.0,0.5776
840.0,0.5901
841.0,0.5819
842.0,0.5829
843.0,0.5824
844.0,0.5744
845.0,0.5936
846.0,0.591
847.0,0.5799
848.0,0.5764
849.0,0.56
850.0,0.5366
851.0,0.5682
852.0,0.5641
853.0,0.543
854.0,0.4689
855.0,0.515
856.0,0.5629
857.0,0.5754
858.0,0.5711
859.0,0.5716
860.0,0.5726
861.0,0.5695
862.0,0.5784
863.0,0.5921
864.0,0.5625
865.0,0.5576
866.0,0.5013
867.0,0.5232
868.0,0.5693
869.0,0.5575
870.0,0.5734
871.0,0.5656
872.0,0.5636
873.0,0.5625
874.0,0.5558
875.0,0.5445
876.0,0.5502
877.0,0.5557
878.0,0.5618
879.0,0.5531
880.0,0.5413
881.0,0.5332
882.0,0.5447
883.0,0.5464
884.0,0.5439
885.0,0.548
886.0,0.5224
887.0,0.5279
888.0,0.5357
889.0,0.5417
890.0,0.5372
891.0,0.5363
892.0,0.5209
893.0,0.5047
894.0,0.4873
895.0,0.4607
896.0,0.4341
897.0,0.3734
898.0,0.4072
899.0,0.3102
900.0,0.4167
901.0,0.3251
902.0,0.3809
903.0,0.3849
904.0,0.4836
905.0,0.4671
906.0,0.4372
907.0,0.3558
908.0,0.3628
909.0,0.3927
910.0,0.3478
911.0,0.3704
912.0,0.3871
913.0,0.3529
914.0,0.3499
915.0,0.3792
916.0,0.3211
917.0,0.4071
918.0,0.3292
919.0,0.4144
920.0,0.4184
921.0,0.4351
922.0,0.3893
923.0,0.4203
924.0,0.399
925.0,0.3903
926.0,0.3946
927.0,0.4415
928.0,0.3244
929.0,0.2962
930.0,0.2328
931.0,0.2206
932.0,0.1588
933.0,0.129
934.0,0.07062
935.0,0.1321
936.0,0.08238
937.0,0.08347
938.0,0.1027
939.0,0.2137
940.0,0.2571
941.0,0.194
942.0,0.2247
943.0,0.1476
944.0,0.1556
945.0,0.2
946.0,0.1016
947.0,0.2009
948.0,0.1475
949.0,0.2691
950.0,0.0744
951.0,0.265
952.0,0.1421
953.0,0.1837
954.0,0.2255
955.0,0.1858
956.0,0.1805
957.0,0.1423
958.0,0.2562
959.0,0.2032
960.0,0.2278
961.0,0.2559
962.0,0.2421
963.0,0.2793
964.0,0.2558
965.0,0.2783
966.0,0.2783
967.0,0.2771
968.0,0.3722
969.0,0.3887
970.0,0.3569
971.0,0.4089
972.0,0.391
973.0,0.3401
974.0,0.3228
975.0,0.3352
976.0,0.3181
977.0,0.3623
978.0,0.3441
979.0,0.3605
980.0,0.3388
981.0,0.4065
982.0,0.3886
983.0,0.373
984.0,0.419
985.0,0.3871
986.0,0.4264
987.0,0.418
988.0,0.4172
989.0,0.4252
990.0,0.4147
991.0,0.4264
992.0,0.4289
993.0,0.4193
994.0,0.4288
995.0,0.4283
996.0,0.4264
997.0,0.427
998.0,0.425
999.0,0.4234
1000.0,0.4204
1001.0,0.4257
1002.0,0.4139
1003.0,0.4182
1004.0,0.4079
1005.0,0.393
1006.0,0.4083
1007.0,0.417
1008.0,0.4147
1009.0,0.4125
1010.0,0.4107
1011.0,0.4149
1012.0,0.4113
1013.0,0.4139
1014.0,0.411
1015.0,0.4083
1016.0,0.4064
1017.0,0.4075
1018.0,0.406
1019.0,0.3972
1020.0,0.4038
1021.0,0.4033
1022.0,0.4001
1023.0,0.4043
1024.0,0.399
1025.0,0.4041
1026.0,0.4023
1027.0,0.4014
1028.0,0.4006
1029.0,0.3958
1030.0,0.3986
1031.0,0.397
1032.0,0.3958
1033.0,0.3898
1034.0,0.3899
1035.0,0.3911
1036.0,0.3931
1037.0,0.3867
1038.0,0.3884
1039.0,0.3882
1040.0,0.3866
1041.0,0.3882
1042.0,0.3855
1043.0,0.3842
1044.0,0.3856
1045.0,0.3803
1046.0,0.3761
1047.0,0.3795
1048.0,0.3816
1049.0,0.3802
1050.0,0.3785
1051.0,0.3779
1052.0,0.3764
1053.0,0.3734
1054.0,0.3742
1055.0,0.3744
1056.0,0.3731
1057.0,0.3719
1058.0,0.3627
1059.0,0.3631
1060.0,0.3626
1061.0,0.3621
1062.0,0.364
1063.0,0.3604
1064.0,0.3647
1065.0,0.362
1066.0,0.3549
1067.0,0.3595
1068.0,0.3516
1069.0,0.3408
1070.0,0.3523
1071.0,0.3579
1072.0,0.3537
1073.0,0.3486
1074.0,0.3577
1075.0,0.3396
1076.0,0.3574
1077.0,0.3509
1078.0,0.3442
1079.0,0.3517
1080.0,0.3455
1081.0,0.3343
1082.0,0.3398
1083.0,0.3409
1084.0,0.3335
1085.0,0.3463
1086.0,0.3158
1087.0,0.3261
1088.0,0.3405
1089.0,0.3299
1090.0,0.3226
1091.0,0.3394
1092.0,0.3385
1093.0,0.2867
1094.0,0.3097
1095.0,0.2987
1096.0,0.2859
1097.0,0.3307
1098.0,0.2814
1099.0,0.2936
1100.0,0.2727
1101.0,0.2762
1102.0,0.2637
1103.0,0.2611
1104.0,0.2614
1105.0,0.2868
1106.0,0.2188
1107.0,0.2723
1108.0,0.2304
1109.0,0.2309
1110.0,0.2699
1111.0,0.1825
1112.0,0.2292
1113.0,0.1453
1114.0,0.1625
1115.0,0.1347
1116.0,0.1071
1117.0,0.03892
1118.0,0.1167
1119.0,0.05755
1120.0,0.07242
1121.0,0.09635
1122.0,0.04022
1123.0,0.06546
1124.0,0.05525
1125.0,0.07217
1126.0,0.02478
1127.0,0.08144
1128.0,0.04835
1129.0,0.05136
1130.0,0.03364
1131.0,0.1553
1132.0,0.1217
1133.0,0.07663
1134.0,0.0193
1135.0,0.007247
1136.0,0.06375
1137.0,0.1524
1138.0,0.1073
1139.0,0.1609
1140.0,0.1341
1141.0,0.102
1142.0,0.1175
1143.0,0.1672
1144.0,0.05795
1145.0,0.07393
1146.0,0.07972
1147.0,0.02768
1148.0,0.1447
1149.0,0.1152
1150.0,0.06237
1151.0,0.1064
1152.0,0.1313
1153.0,0.1282
1154.0,0.07159
1155.0,0.1678
1156.0,0.151
1157.0,0.1696
1158.0,0.1678
1159.0,0.1812
1160.0,0.1546
1161.0,0.1908
1162.0,0.1918
1163.0,0.2592
1164.0,0.2222
1165.0,0.2096
1166.0,0.2082
1167.0,0.2268
1168.0,0.2293
1169.0,0.2347
1170.0,0.2551
1171.0,0.2487
1172.0,0.2532
1173.0,0.2545
1174.0,0.182
1175.0,0.2486
1176.0,0.2731
1177.0,0.2623
1178.0,0.1973
1179.0,0.2753
1180.0,0.246
1181.0,0.2538
1182.0,0.1755
1183.0,0.2499
1184.0,0.2343
1185.0,0.2262
1186.0,0.2677
1187.0,0.2552
1188.0,0.1785
1189.0,0.2377
1190.0,0.2617
1191.0,0.2487
1192.0,0.2653
1193.0,0.2543
1194.0,0.262
1195.0,0.2481
1196.0,0.239
1197.0,0.2621
1198.0,0.2399
1199.0,0.2046
1200.0,0.2511
1201.0,0.2424
1202.0,0.2409
1203.0,0.2388
1204.0,0.2092
1205.0,0.2463
1206.0,0.2718
1207.0,0.2403
1208.0,0.2364
1209.0,0.2412
1210.0,0.2511
1211.0,0.2394
1212.0,0.2368
1213.0,0.263
1214.0,0.2423
1215.0,0.2378
1216.0,0.2621
1217.0,0.2553
1218.0,0.26
1219.0,0.2569
1220.0,0.2602
1221.0,0.2628
1222.0,0.256
1223.0,0.2537
1224.0,0.2522
1225.0,0.2611
1226.0,0.2628
1227.0,0.2427
1228.0,0.264
1229.0,0.2628
1230.0,0.2584
1231.0,0.2655
1232.0,0.2639
1233.0,0.2552
1234.0,0.2652
1235.0,0.2636
1236.0,0.2655
1237.0,0.2619
1238.0,0.2646
1239.0,0.2612
1240.0,0.2622
1241.0,0.261
1242.0,0.2604
1243.0,0.2582
1244.0,0.2601
1245.0,0.2612
1246.0,0.2597
1247.0,0.2587
1248.0,0.2585
1249.0,0.2593
1250.0,0.2578
1251.0,0.2545
1252.0,0.2545
1253.0,0.2525
1254.0,0.2501
1255.0,0.2543
1256.0,0.2473
1257.0,0.246
1258.0,0.2504
1259.0,0.2416
1260.0,0.2429
1261.0,0.2296
1262.0,0.2229
1263.0,0.2233
1264.0,0.2065
1265.0,0.2219
1266.0,0.2137
1267.0,0.2173
1268.0,0.2064
1269.0,0.1297
1270.0,0.2166
1271.0,0.2288
1272.0,0.2295
1273.0,0.2271
1274.0,0.2278
1275.0,0.231
1276.0,0.2332
1277.0,0.2346
1278.0,0.239
1279.0,0.2369
1280.0,0.2339
1281.0,0.2231
1282.0,0.2148
1283.0,0.2314
1284.0,0.237
1285.0,0.2385
1286.0,0.2417
1287.0,0.238
1288.0,0.238
1289.0,0.2306
1290.0,0.2358
1291.0,0.2391
1292.0,0.225
1293.0,0.2345
1294.0,0.2329
1295.0,0.2319
1296.0,0.2216
1297.0,0.2098
1298.0,0.2255
1299.0,0.2348
1300.0,0.1994
1301.0,0.2054
1302.0,0.2247
1303.0,0.1967
1304.0,0.1683
1305.0,0.2202
1306.0,0.2202
1307.0,0.1718
1308.0,0.1969
1309.0,0.2186
1310.0,0.1685
1311.0,0.1889
1312.0,0.1839
1313.0,0.1804
1314.0,0.1617
1315.0,0.1597
1316.0,0.186
1317.0,0.1763
1318.0,0.1914
1319.0,0.1501
1320.0,0.1454
1321.0,0.1691
1322.0,0.1709
1323.0,0.129
1324.0,0.1473
1325.0,0.1834
1326.0,0.1577
1327.0,0.1504
1328.0,0.1298
1329.0,0.09776
1330.0,0.1271
1331.0,0.07696
1332.0,0.07941
1333.0,0.1105
1334.0,0.09348
1335.0,0.1285
1336.0,0.1017
1337.0,0.09
1338.0,0.0974
1339.0,0.09694
1340.0,0.09424
1341.0,0.09212
1342.0,0.09676
1343.0,0.06567
1344.0,0.03931
1345.0,0.0567
1346.0,0.02823
1347.0,0.02871
1348.0,0.001884
1349.0,0.00675
1350.0,0.006996
1351.0,0.001719
1352.0,0.0004706
1353.0,2.44e-05
1354.0,8.325e-05
1355.0,6.944e-07
1356.0,1.193e-05
1357.0,1.818e-05
1358.0,8.214e-07
1359.0,1.063e-07
1360.0,3.795e-07
1361.0,4.483e-10
1362.0,1.257e-12
1363.0,5.185e-07
1364.0,2.15e-07
1365.0,4.555e-13
1366.0,2.252e-06
1367.0,9.181e-07
1368.0,3.751e-15
1369.0,8.049e-08
1370.0,4.017e-08
1371.0,2.312e-09
1372.0,5.052e-07
1373.0,1.004e-05
1374.0,4.617e-05
1375.0,8.404e-05
1376.0,7.487e-05
1377.0,3.439e-05
1378.0,0.0003355
1379.0,1.446e-05
1380.0,2.098e-05
1381.0,5.519e-07
1382.0,4.571e-07
1383.0,6.918e-09
1384.0,9.147e-08
1385.0,4.272e-07
1386.0,4.107e-07
1387.0,4.829e-05
1388.0,9.528e-07
1389.0,0.0001619
1390.0,0.0001394
1391.0,9.32e-05
1392.0,6.082e-06
1393.0,3.211e-05
1394.0,1.691e-05
1395.0,1.259e-07
1396.0,6.415e-10
1397.0,1.285e-05
1398.0,0.0003774
1399.0,0.0002394
1400.0,2.813e-10
1401.0,1.149e-09
1402.0,0.0006584
1403.0,0.0008295
1404.0,0.000253
1405.0,6.187e-08
1406.0,0.0006611
1407.0,5.822e-05
1408.0,0.0005404
1409.0,0.0001823
1410.0,0.0001455
1411.0,0.0007292
1412.0,0.0009824
1413.0,0.01013
1414.0,0.0001148
1415.0,5.518e-05
1416.0,0.01675
1417.0,0.005
1418.0,0.005685
1419.0,0.0008792
1420.0,0.003476
1421.0,0.003759
1422.0,0.02189
1423.0,0.00422
1424.0,0.007933
1425.0,0.01164
1426.0,0.01331
1427.0,0.02474
1428.0,0.001771
1429.0,0.01837
1430.0,0.03165
1431.0,0.03487
1432.0,0.001392
1433.0,0.02204
1434.0,0.01114
1435.0,0.01089
1436.0,0.0214
1437.0,0.01641
1438.0,0.006821
1439.0,0.02928
1440.0,0.02192
1441.0,0.0165
1442.0,0.01832
