interpolation:linear
wavelength,value
280.0,4.5930000000000004e-20
280.5,1.29e-18
281.0,6.568e-18
281.5,4.549e-19
282.0,1.991e-18
282.5,5.645e-18
283.0,1.882e-17
283.5,3.107e-17
284.0,4.897e-16
284.5,1.381e-15
285.0,2.639e-15
285.5,1.623e-14
286.0,6.928e-14
286.5,3.352e-13
287.0,9.981e-13
287.5,3.966e-12
288.0,1.166e-11
288.5,4.63e-11
289.0,1.558e-10
289.5,5.866e-10
290.0,1.924e-09
290.5,4.49e-09
291.0,1.123e-08
291.5,3.872e-08
292.0,1.049e-07
292.5,1.651e-07
293.0,4.101e-07
293.5,1.224e-06
294.0,2.236e-06
294.5,2.923e-06
295.0,5.712e-06
295.5,1.382e-05
296.0,2.629e-05
296.5,3.623e-05
297.0,4.842e-05
297.5,0.0001273
298.0,0.000197
298.5,0.0001954
299.0,0.0004248
299.5,0.0006866
300.0,0.0007442
300.5,0.001061
301.0,0.001872
301.5,0.002914
302.0,0.002464
302.5,0.00465
303.0,0.007981
303.5,0.009759
304.0,0.008982
304.5,0.0127
305.0,0.01786
305.5,0.01951
306.0,0.01855
306.5,0.02242
307.0,0.03115
307.5,0.03893
308.0,0.04071
308.5,0.04664
309.0,0.04497
309.5,0.04934
310.0,0.0486
310.5,0.07795
311.0,0.09625
311.5,0.09225
312.0,0.089
312.5,0.1057
313.0,0.1133
313.5,0.1113
314.0,0.1351
314.5,0.1153
315.0,0.1505
315.5,0.1282
316.0,0.1086
316.5,0.1518
317.0,0.1885
317.5,0.1976
318.0,0.1514
318.5,0.1814
319.0,0.2115
319.5,0.1773
320.0,0.2152
320.5,0.2598
321.0,0.2239
321.5,0.214
322.0,0.2361
322.5,0.205
323.0,0.1996
323.5,0.24
324.0,0.2791
324.5,0.2859
325.0,0.25
325.5,0.3157
326.0,0.3837
326.5,0.3796
327.0,0.38
327.5,0.369
328.0,0.3339
328.5,0.3441
329.0,0.4056
329.5,0.4582
330.0,0.4639
330.5,0.3757
331.0,0.3843
331.5,0.3871
332.0,0.4128
332.5,0.4059
333.0,0.4061
333.5,0.371
334.0,0.3806
334.5,0.4344
335.0,0.4057
335.5,0.4738
336.0,0.3278
336.5,0.385
337.0,0.3172
337.5,0.3952
338.0,0.3824
338.5,0.4412
339.0,0.4365
339.5,0.4199
340.0,0.4935
340.5,0.4445
341.0,0.4336
341.5,0.3979
342.0,0.4754
342.5,0.4447
343.0,0.4891
343.5,0.4606
344.0,0.3403
344.5,0.3438
345.0,0.4547
345.5,0.4641
346.0,0.3943
346.5,0.4464
347.0,0.4793
347.5,0.3875
348.0,0.4416
348.5,0.4413
349.0,0.4093
349.5,0.4052
350.0,0.5011
350.5,0.5286
351.0,0.4722
351.5,0.4591
352.0,0.4929
352.5,0.3846
353.0,0.4842
353.5,0.5177
354.0,0.5374
354.5,0.545
355.0,0.5432
355.5,0.4906
356.0,0.5133
356.5,0.4383
357.0,0.3621
357.5,0.4433
358.0,0.3513
358.5,0.3002
359.0,0.4199
359.5,0.5352
360.0,0.5673
360.5,0.4534
361.0,0.4133
361.5,0.4757
362.0,0.4113
362.5,0.5691
363.0,0.5111
363.5,0.4707
364.0,0.5756
364.5,0.492
365.0,0.501
365.5,0.6288
366.0,0.6662
366.5,0.6258
367.0,0.6095
367.5,0.6325
368.0,0.5534
368.5,0.5584
369.0,0.603
369.5,0.6427
370.0,0.6851
370.5,0.5317
371.0,0.5681
371.5,0.7108
372.0,0.4717
372.5,0.5656
373.0,0.5753
373.5,0.3743
374.0,0.5439
374.5,0.4504
375.0,0.4378
375.5,0.6537
376.0,0.5419
376.5,0.5616
377.0,0.5945
377.5,0.6955
378.0,0.754
378.5,0.7127
379.0,0.5882
379.5,0.5373
380.0,0.5586
380.5,0.6766
381.0,0.678
381.5,0.5374
382.0,0.4772
382.5,0.4068
383.0,0.3766
383.5,0.3627
384.0,0.4001
384.5,0.5884
385.0,0.5835
385.5,0.5434
386.0,0.4654
386.5,0.6113
387.0,0.508
387.5,0.5706
388.0,0.5268
388.5,0.5207
389.0,0.5621
389.5,0.6808
390.0,0.6832
390.5,0.6288
391.0,0.7401
391.5,0.7549
392.0,0.6358
392.5,0.5692
393.0,0.3167
393.5,0.2302
394.0,0.4685
394.5,0.5956
395.0,0.7268
395.5,0.7383
396.0,0.6401
396.5,0.3742
397.0,0.2808
397.5,0.5711
398.0,0.7998
398.5,0.8267
399.0,0.895
399.5,0.8921
400.0,0.9264
401.0,0.9413
402.0,0.993
403.0,0.9432
404.0,0.9287
405.0,0.9285
406.0,0.9133
407.0,0.8984
408.0,0.9336
409.0,0.9992
410.0,0.873
411.0,0.9455
412.0,1.015
413.0,0.9902
414.0,1.002
415.0,1.005
416.0,1.022
417.0,0.9969
418.0,0.9785
419.0,0.9912
420.0,0.9868
421.0,1.032
422.0,0.9811
423.0,0.9583
424.0,1.014
425.0,1.012
426.0,0.9851
427.0,0.9666
428.0,0.9416
429.0,0.8916
430.0,0.7802
431.0,0.7734
432.0,0.9984
433.0,1.004
434.0,0.9321
435.0,0.9735
436.0,1.097
437.0,1.081
438.0,0.9847
439.0,1.019
440.0,1.051
441.0,1.089
442.0,1.168
443.0,1.138
444.0,1.162
445.0,1.137
446.0,1.085
447.0,1.172
448.0,1.191
449.0,1.195
450.0,1.228
451.0,1.274
452.0,1.227
453.0,1.154
454.0,1.204
455.0,1.212
456.0,1.24
457.0,1.261
458.0,1.218
459.0,1.212
460.0,1.215
461.0,1.243
462.0,1.252
463.0,1.244
464.0,1.223
465.0,1.207
466.0,1.218
467.0,1.196
468.0,1.21
469.0,1.216
470.0,1.178
471.0,1.176
472.0,1.239
473.0,1.223
474.0,1.225
475.0,1.236
476.0,1.2
477.0,1.203
478.0,1.237
479.0,1.229
480.0,1.231
481.0,1.253
482.0,1.259
483.0,1.244
484.0,1.218
485.0,1.16
486.0,1.014
487.0,1.062
488.0,1.165
489.0,1.169
490.0,1.23
491.0,1.208
492.0,1.141
493.0,1.178
494.0,1.19
495.0,1.2
496.0,1.207
497.0,1.226
498.0,1.169
499.0,1.184
500.0,1.15
501.0,1.129
502.0,1.114
503.0,1.16
504.0,1.132
505.0,1.171
506.0,1.209
507.0,1.15
508.0,1.114
509.0,1.145
510.0,1.138
511.0,1.168
512.0,1.181
513.0,1.118
514.0,1.11
515.0,1.099
516.0,1.096
517.0,0.9737
518.0,1.024
519.0,1.074
520.0,1.113
521.0,1.124
522.0,1.125
523.0,1.105
524.0,1.144
525.0,1.158
526.0,1.107
527.0,1.043
528.0,1.104
529.0,1.164
530.0,1.147
531.0,1.164
532.0,1.124
533.0,1.091
534.0,1.123
535.0,1.148
536.0,1.158
537.0,1.112
538.0,1.132
539.0,1.122
540.0,1.076
541.0,1.084
542.0,1.118
543.0,1.106
544.0,1.125
545.0,1.122
546.0,1.127
547.0,1.126
548.0,1.113
549.0,1.116
550.0,1.129
551.0,1.115
552.0,1.123
553.0,1.103
554.0,1.129
555.0,1.132
556.0,1.117
557.0,1.083
558.0,1.075
559.0,1.055
560.0,1.068
561.0,1.082
562.0,1.075
563.0,1.105
564.0,1.075
565.0,1.066
566.0,1.05
567.0,1.071
568.0,1.062
569.0,1.039
570.0,1.038
571.0,1.031
572.0,1.057
573.0,1.069
574.0,1.066
575.0,1.046
576.0,1.037
577.0,1.048
578.0,1.031
579.0,1.035
580.0,1.053
581.0,1.058
582.0,1.077
583.0,1.079
584.0,1.088
585.0,1.061
586.0,1.039
587.0,1.062
588.0,1.039
589.0,0.9247
590.0,0.9666
591.0,1.02
592.0,1.009
593.0,1.022
594.0,1.016
595.0,0.992
596.0,1.028
597.0,1.017
598.0,1.014
599.0,1.014
600.0,1.015
601.0,1.006
602.0,0.9987
603.0,1.015
604.0,1.032
605.0,1.026
606.0,1.021
607.0,1.031
608.0,1.019
609.0,1.021
610.0,1.013
611.0,1.018
612.0,1.015
613.0,1.002
614.0,0.9882
615.0,1.009
616.0,0.9759
617.0,0.9737
618.0,1.011
619.0,1.001
620.0,1.007
621.0,1.008
622.0,0.9968
623.0,0.9819
624.0,0.9648
625.0,0.9626
626.0,0.9769
627.0,0.9886
628.0,0.9327
629.0,0.9685
630.0,0.9465
631.0,0.9647
632.0,0.9526
633.0,0.9802
634.0,0.9697
635.0,0.9843
636.0,0.9706
637.0,0.9861
638.0,0.9949
639.0,0.9834
640.0,0.9734
641.0,0.9725
642.0,0.9677
643.0,0.9807
644.0,0.9771
645.0,0.9789
646.0,0.9572
647.0,0.9484
648.0,0.9495
649.0,0.9313
650.0,0.9326
651.0,0.9723
652.0,0.9355
653.0,0.9593
654.0,0.9483
655.0,0.9148
656.0,0.8095
657.0,0.8312
658.0,0.9305
659.0,0.9367
660.0,0.9404
661.0,0.9469
662.0,0.9495
663.0,0.9304
664.0,0.9405
665.0,0.9406
666.0,0.941
667.0,0.9398
668.0,0.9399
669.0,0.9542
670.0,0.9499
671.0,0.9495
672.0,0.9413
673.0,0.9553
674.0,0.9516
675.0,0.9428
676.0,0.9491
677.0,0.9396
678.0,0.9421
679.0,0.9268
680.0,0.9342
681.0,0.928
682.0,0.9268
683.0,0.925
684.0,0.9204
685.0,0.9281
686.0,0.9227
687.0,0.6534
688.0,0.7461
689.0,0.7482
690.0,0.7782
691.0,0.8117
692.0,0.8354
693.0,0.8292
694.0,0.8224
695.0,0.8515
696.0,0.8527
697.0,0.8986
698.0,0.8848
699.0,0.8677
700.0,0.8573
701.0,0.8499
702.0,0.8542
703.0,0.8557
704.0,0.8807
705.0,0.882
706.0,0.8803
707.0,0.8806
708.0,0.8826
709.0,0.8824
710.0,0.883
711.0,0.8813
712.0,0.878
713.0,0.8698
714.0,0.8729
715.0,0.8469
716.0,0.8478
717.0,0.7503
718.0,0.6917
719.0,0.6352
720.0,0.6664
721.0,0.7264
722.0,0.8209
723.0,0.7695
724.0,0.6993
725.0,0.6902
726.0,0.7213
727.0,0.7282
728.0,0.6891
729.0,0.7095
730.0,0.7506
731.0,0.7199
732.0,0.7644
733.0,0.8036
734.0,0.8212
735.0,0.805
736.0,0.8039
737.0,0.8073
738.0,0.8161
739.0,0.8001
740.0,0.8198
741.0,0.811
742.0,0.8111
743.0,0.8316
744.0,0.8288
745.0,0.8287
746.0,0.8324
747.0,0.8342
748.0,0.8324
749.0,0.8229
750.0,0.8224
751.0,0.814
752.0,0.8175
753.0,0.8216
754.0,0.8234
755.0,0.8188
756.0,0.8184
757.0,0.8196
758.0,0.8094
759.0,0.7951
760.0,0.1732
761.0,0.0999
762.0,0.4481
763.0,0.2485
764.0,0.3517
765.0,0.4483
766.0,0.5307
767.0,0.6503
768.0,0.7353
769.0,0.7474
770.0,0.769
771.0,0.7735
772.0,0.7746
773.0,0.7799
774.0,0.776
775.0,0.77
776.0,0.7794
777.0,0.7691
778.0,0.7644
779.0,0.7651
780.0,0.7607
781.0,0.7615
782.0,0.7662
783.0,0.7528
784.0,0.7564
785.0,0.7509
786.0,0.7593
787.0,0.7477
788.0,0.7391
789.0,0.739
790.0,0.7217
791.0,0.7257
792.0,0.72
793.0,0.7086
794.0,0.7183
795.0,0.7311
796.0,0.7118
797.0,0.7128
798.0,0.7306
799.0,0.7265
800.0,0.7146
801.0,0.7131
802.0,0.711
803.0,0.706
804.0,0.7066
805.0,0.7035
806.0,0.7217
807.0,0.7134
808.0,0.7139
809.0,0.7016
810.0,0.6967
811.0,0.6991
812.0,0.6812
813.0,0.6684
814.0,0.5953
815.0,0.5914
816.0,0.5515
817.0,0.5607
818.0,0.5414
819.0,0.5989
820.0,0.5665
821.0,0.6534
822.0,0.6362
823.0,0.4466
824.0,0.6207
825.0,0.6425
826.0,0.6208
827.0,0.6523
828.0,0.5609
829.0,0.6164
830.0,0.6092
831.0,0.6111
832.0,0.5938
833.0,0.6277
834.0,0.6081
835.0,0.6624
836.0,0.6375
837.0,0.664
838.0,0.6449
839.0,0.6537
840.0,0.6676
841.0,0.6588
842.0,0.6592
843.0,0.6578
844.0,0.6492
845.0,0.6703
846.0,0.6672
847.0,0.6545
848.0,0.6509
849.0,0.6324
850.0,0.6058
851.0,0.6419
852.0,0.6372
853.0,0.6129
854.0,0.5295
855.0,0.5813
856.0,0.6355
857.0,0.6494
858.0,0.6447
859.0,0.6451
860.0,0.6461
861.0,0.6426
862.0,0.6526
863.0,0.668
864.0,0.6346
865.0,0.629
866.0,0.5656
867.0,0.5902
868.0,0.6423
869.0,0.6289
870.0,0.6468
871.0,0.638
872.0,0.6358
873.0,0.6345
874.0,0.6269
875.0,0.6142
876.0,0.6207
877.0,0.6269
878.0,0.6338
879.0,0.624
880.0,0.6106
881.0,0.6017
882.0,0.6148
883.0,0.6165
884.0,0.6137
885.0,0.6184
886.0,0.5901
887.0,0.5958
888.0,0.6049
889.0,0.6112
890.0,0.6068
891.0,0.6054
892.0,0.5889
893.0,0.5717
894.0,0.5539
895.0,0.5264
896.0,0.4972
897.0,0.4311
898.0,0.4681
899.0,0.3609
900.0,0.4768
901.0,0.3782
902.0,0.4373
903.0,0.4437
904.0,0.5497
905.0,0.5321
906.0,0.499
907.0,0.4114
908.0,0.4187
909.0,0.4508
910.0,0.4037
911.0,0.4272
912.0,0.4455
913.0,0.4099
914.0,0.4055
915.0,0.4392
916.0,0.3732
917.0,0.4682
918.0,0.3828
919.0,0.4753
920.0,0.4776
921.0,0.4961
922.0,0.4472
923.0,0.4791
924.0,0.4586
925.0,0.4486
926.0,0.4536
927.0,0.5043
928.0,0.3798
929.0,0.3493
930.0,0.2785
931.0,0.2632
932.0,0.1937
933.0,0.1596
934.0,0.09217
935.0,0.1615
936.0,0.1037
937.0,0.1055
938.0,0.1286
939.0,0.2551
940.0,0.304
941.0,0.2333
942.0,0.2677
943.0,0.179
944.0,0.1859
945.0,0.2398
946.0,0.1261
947.0,0.242
948.0,0.1784
949.0,0.3199
950.0,0.09507
951.0,0.3143
952.0,0.1741
953.0,0.2214
954.0,0.2677
955.0,0.2236
956.0,0.2151
957.0,0.1749
958.0,0.2994
959.0,0.242
960.0,0.2711
961.0,0.3012
962.0,0.2853
963.0,0.3262
964.0,0.2997
965.0,0.3247
966.0,0.3254
967.0,0.3243
968.0,0.4253
969.0,0.445
970.0,0.4099
971.0,0.4651
972.0,0.4457
973.0,0.3922
974.0,0.3729
975.0,0.3854
976.0,0.3682
977.0,0.4146
978.0,0.3957
979.0,0.4131
980.0,0.3893
981.0,0.4622
982.0,0.4435
983.0,0.4266
984.0,0.4746
985.0,0.4418
986.0,0.4819
987.0,0.4736
988.0,0.4727
989.0,0.4798
990.0,0.4698
991.0,0.4814
992.0,0.4841
993.0,0.4744
994.0,0.4838
995.0,0.483
996.0,0.4811
997.0,0.4817
998.0,0.4795
999.0,0.4777
1000.0,0.4746
1001.0,0.4802
1002.0,0.468
1003.0,0.4718
1004.0,0.4605
1005.0,0.4433
1006.0,0.4608
1007.0,0.4704
1008.0,0.4681
1009.0,0.4658
1010.0,0.4639
1011.0,0.468
1012.0,0.4642
1013.0,0.4668
1014.0,0.4636
1015.0,0.4605
1016.0,0.4585
1017.0,0.4597
1018.0,0.4578
1019.0,0.4485
1020.0,0.4555
1021.0,0.4548
1022.0,0.4514
1023.0,0.4562
1024.0,0.4507
1025.0,0.4558
1026.0,0.4539
1027.0,0.4528
1028.0,0.4519
1029.0,0.4466
1030.0,0.4495
1031.0,0.4478
1032.0,0.4465
1033.0,0.4397
1034.0,0.4397
1035.0,0.4411
1036.0,0.4434
1037.0,0.4362
1038.0,0.4382
1039.0,0.4379
1040.0,0.4362
1041.0,0.4379
1042.0,0.4349
1043.0,0.4335
1044.0,0.4351
1045.0,0.4292
1046.0,0.4245
1047.0,0.4283
1048.0,0.4307
1049.0,0.4292
1050.0,0.4272
1051.0,0.4267
1052.0,0.425
1053.0,0.4217
1054.0,0.4226
1055.0,0.4229
1056.0,0.4215
1057.0,0.4202
1058.0,0.41
1059.0,0.4105
1060.0,0.4099
1061.0,0.4094
1062.0,0.4116
1063.0,0.4076
1064.0,0.4124
1065.0,0.4096
1066.0,0.4014
1067.0,0.4066
1068.0,0.3978
1069.0,0.3855
1070.0,0.3986
1071.0,0.4045
1072.0,0.4001
1073.0,0.3943
1074.0,0.4041
1075.0,0.3849
1076.0,0.4038
1077.0,0.3972
1078.0,0.3899
1079.0,0.3972
1080.0,0.3911
1081.0,0.3791
1082.0,0.3842
1083.0,0.3852
1084.0,0.3784
1085.0,0.3919
1086.0,0.3593
1087.0,0.3696
1088.0,0.385
1089.0,0.3742
1090.0,0.3666
1091.0,0.384
1092.0,0.3828
1093.0,0.3277
1094.0,0.3506
1095.0,0.341
1096.0,0.3274
1097.0,0.3739
1098.0,0.3226
1099.0,0.3361
1100.0,0.3138
1101.0,0.3173
1102.0,0.3039
1103.0,0.3016
1104.0,0.3019
1105.0,0.3286
1106.0,0.2568
1107.0,0.3132
1108.0,0.2687
1109.0,0.2686
1110.0,0.3109
1111.0,0.2152
1112.0,0.2662
1113.0,0.174
1114.0,0.1939
1115.0,0.1609
1116.0,0.1312
1117.0,0.05121
1118.0,0.1418
1119.0,0.07273
1120.0,0.09165
1121.0,0.1202
1122.0,0.05263
1123.0,0.08273
1124.0,0.06986
1125.0,0.09057
1126.0,0.03357
1127.0,0.102
1128.0,0.06322
1129.0,0.06675
1130.0,0.04485
1131.0,0.1882
1132.0,0.1486
1133.0,0.09697
1134.0,0.02647
1135.0,0.009833
1136.0,0.08189
1137.0,0.1857
1138.0,0.1314
1139.0,0.1907
1140.0,0.1614
1141.0,0.1249
1142.0,0.1425
1143.0,0.2002
1144.0,0.0726
1145.0,0.09345
1146.0,0.1008
1147.0,0.0376
1148.0,0.1733
1149.0,0.14
1150.0,0.0779
1151.0,0.1304
1152.0,0.1586
1153.0,0.1531
1154.0,0.09097
1155.0,0.199
1156.0,0.1802
1157.0,0.2006
1158.0,0.1984
1159.0,0.2126
1160.0,0.1834
1161.0,0.2227
1162.0,0.224
1163.0,0.2969
1164.0,0.2568
1165.0,0.2442
1166.0,0.2411
1167.0,0.2615
1168.0,0.2649
1169.0,0.2704
1170.0,0.2921
1171.0,0.2851
1172.0,0.2892
1173.0,0.2915
1174.0,0.213
1175.0,0.284
1176.0,0.3098
1177.0,0.2989
1178.0,0.2282
1179.0,0.3122
1180.0,0.2813
1181.0,0.2901
1182.0,0.2043
1183.0,0.285
1184.0,0.2685
1185.0,0.2603
1186.0,0.3045
1187.0,0.2913
1188.0,0.2081
1189.0,0.2717
1190.0,0.2976
1191.0,0.2848
1192.0,0.3015
1193.0,0.2897
1194.0,0.298
1195.0,0.2834
1196.0,0.274
1197.0,0.2973
1198.0,0.2732
1199.0,0.236
1200.0,0.2862
1201.0,0.2772
1202.0,0.2749
1203.0,0.2727
1204.0,0.2404
1205.0,0.2802
1206.0,0.3075
1207.0,0.2745
1208.0,0.2691
1209.0,0.2744
1210.0,0.285
1211.0,0.2728
1212.0,0.2712
1213.0,0.2982
1214.0,0.2769
1215.0,0.272
1216.0,0.2972
1217.0,0.29
1218.0,0.2948
1219.0,0.2915
1220.0,0.295
1221.0,0.2976
1222.0,0.2902
1223.0,0.2878
1224.0,0.2866
1225.0,0.2957
1226.0,0.2972
1227.0,0.276
1228.0,0.2983
1229.0,0.2973
1230.0,0.2925
1231.0,0.2997
1232.0,0.2979
1233.0,0.2892
1234.0,0.2991
1235.0,0.2974
1236.0,0.2994
1237.0,0.2958
1238.0,0.2984
1239.0,0.2946
1240.0,0.2956
1241.0,0.2946
1242.0,0.2936
1243.0,0.2912
1244.0,0.2934
1245.0,0.2946
1246.0,0.2929
1247.0,0.2918
1248.0,0.2918
1249.0,0.2926
1250.0,0.2909
1251.0,0.2874
1252.0,0.2871
1253.0,0.2854
1254.0,0.2829
1255.0,0.287
1256.0,0.2799
1257.0,0.2785
1258.0,0.283
1259.0,0.2742
1260.0,0.2755
1261.0,0.2619
1262.0,0.255
1263.0,0.2555
1264.0,0.2382
1265.0,0.2539
1266.0,0.2456
1267.0,0.249
1268.0,0.2376
1269.0,0.1575
1270.0,0.2485
1271.0,0.2608
1272.0,0.2614
1273.0,0.2588
1274.0,0.2594
1275.0,0.2628
1276.0,0.265
1277.0,0.2663
1278.0,0.2707
1279.0,0.2683
1280.0,0.2648
1281.0,0.2524
1282.0,0.2426
1283.0,0.2614
1284.0,0.2678
1285.0,0.2694
1286.0,0.2727
1287.0,0.2691
1288.0,0.2689
1289.0,0.2616
1290.0,0.2665
1291.0,0.27
1292.0,0.2558
1293.0,0.2653
1294.0,0.2635
1295.0,0.2628
1296.0,0.2523
1297.0,0.2397
1298.0,0.2558
1299.0,0.2654
1300.0,0.2284
1301.0,0.2347
1302.0,0.2549
1303.0,0.225
1304.0,0.1955
1305.0,0.25
1306.0,0.2502
1307.0,0.1984
1308.0,0.2248
1309.0,0.2486
1310.0,0.1948
1311.0,0.2163
1312.0,0.211
1313.0,0.2075
1314.0,0.187
1315.0,0.1854
1316.0,0.2135
1317.0,0.2026
1318.0,0.2188
1319.0,0.1752
1320.0,0.1688
1321.0,0.1952
1322.0,0.1978
1323.0,0.1522
1324.0,0.1718
1325.0,0.2106
1326.0,0.1829
1327.0,0.175
1328.0,0.152
1329.0,0.117
1330.0,0.1509
1331.0,0.09441
1332.0,0.09634
1333.0,0.1333
1334.0,0.1114
1335.0,0.1516
1336.0,0.1216
1337.0,0.1085
1338.0,0.1173
1339.0,0.1164
1340.0,0.1123
1341.0,0.1116
1342.0,0.1171
1343.0,0.08339
1344.0,0.04976
1345.0,0.07141
1346.0,0.03818
1347.0,0.03928
1348.0,0.003072
1349.0,0.01045
1350.0,0.01044
1351.0,0.003
1352.0,0.0009667
1353.0,6.046e-05
1354.0,0.0001833
1355.0,2.229e-06
1356.0,3.002e-05
1357.0,4.546e-05
1358.0,2.597e-06
1359.0,4.436e-07
1360.0,1.324e-06
1361.0,2.846e-09
1362.0,1.041e-11
1363.0,1.945e-06
1364.0,8.277e-07
1365.0,5.181e-12
1366.0,7.836e-06
1367.0,3.073e-06
1368.0,8.025e-14
1369.0,3.157e-07
1370.0,1.769e-07
1371.0,1.185e-08
1372.0,1.694e-06
1373.0,2.769e-05
1374.0,0.0001117
1375.0,0.0002031
1376.0,0.0001638
1377.0,7.758e-05
1378.0,0.0007083
1379.0,3.285e-05
1380.0,5.144e-05
1381.0,1.477e-06
1382.0,1.583e-06
1383.0,2.696e-08
1384.0,3.752e-07
1385.0,1.301e-06
1386.0,1.54e-06
1387.0,0.0001254
1388.0,2.531e-06
1389.0,0.0003659
1390.0,0.0003148
1391.0,0.0002173
1392.0,1.495e-05
1393.0,7.327e-05
1394.0,4.728e-05
1395.0,4.15e-07
1396.0,3.762e-09
1397.0,3.093e-05
1398.0,0.0008061
1399.0,0.0005108
1400.0,1.924e-09
1401.0,6.361e-09
1402.0,0.001181
1403.0,0.001535
1404.0,0.0004753
1405.0,2.256e-07
1406.0,0.001308
1407.0,0.000112
1408.0,0.001061
1409.0,0.0003951
1410.0,0.0002978
1411.0,0.001342
1412.0,0.001724
1413.0,0.01532
1414.0,0.0002322
1415.0,0.0001172
1416.0,0.02332
1417.0,0.007656
1418.0,0.008781
1419.0,0.001392
1420.0,0.005396
1421.0,0.005859
1422.0,0.03028
1423.0,0.006027
1424.0,0.01115
1425.0,0.01662
1426.0,0.01832
1427.0,0.03246
1428.0,0.002926
1429.0,0.02482
1430.0,0.04095
1431.0,0.04465
1432.0,0.002319
1433.0,0.02886
1434.0,0.01491
1435.0,0.01568
1436.0,0.02905
1437.0,0.02225
1438.0,0.009737
1439.0,0.03896
1440.0,0.02924
1441.0,0.02286
1442.0,0.02525
1443.0,0.03084
1444.0,0.04233
1445.0,0.03382
1446.0,0.01543
1447.0,0.02427
1448.0,0.0773
1449.0,0.06778
1450.0,0.01797
1451.0,0.007377
