interpolation:linear
wavelength,value
280.0,3.4870000000000006e-20
280.5,9.922e-19
281.0,5.074e-18
281.5,4.343e-19
282.0,1.846e-18
282.5,5.199e-18
283.0,1.728e-17
283.5,2.85e-17
284.0,4.505e-16
284.5,1.273e-15
285.0,2.233e-15
285.5,1.337e-14
286.0,5.655e-14
286.5,2.694e-13
287.0,7.942e-13
287.5,3.12e-12
288.0,9.421e-12
288.5,3.686e-11
289.0,1.229e-10
289.5,4.582e-10
290.0,1.49e-09
290.5,3.451e-09
291.0,8.556e-09
291.5,2.918e-08
292.0,8.023e-08
292.5,1.267e-07
293.0,3.163e-07
293.5,9.516e-07
294.0,1.747e-06
294.5,2.298e-06
295.0,4.527e-06
295.5,1.116e-05
296.0,2.14e-05
296.5,2.971e-05
297.0,3.995e-05
297.5,0.000106
298.0,0.0001654
298.5,0.0001651
299.0,0.0003611
299.5,0.00059
300.0,0.0006436
300.5,0.000924
301.0,0.001647
301.5,0.002592
302.0,0.002204
302.5,0.004176
303.0,0.007201
303.5,0.008831
304.0,0.008143
304.5,0.01157
305.0,0.01638
305.5,0.01797
306.0,0.0171
306.5,0.02072
307.0,0.02895
307.5,0.03635
308.0,0.03805
308.5,0.0437
309.0,0.04222
309.5,0.04648
310.0,0.04586
310.5,0.0736
311.0,0.09101
311.5,0.08727
312.0,0.08444
312.5,0.1005
313.0,0.1078
313.5,0.1058
314.0,0.1288
314.5,0.1102
315.0,0.1439
315.5,0.1224
316.0,0.1039
316.5,0.1455
317.0,0.1808
317.5,0.1894
318.0,0.1453
318.5,0.1746
319.0,0.2038
319.5,0.1705
320.0,0.2069
320.5,0.2504
321.0,0.2164
321.5,0.2068
322.0,0.2276
322.5,0.1977
323.0,0.1928
323.5,0.2322
324.0,0.2701
324.5,0.2766
325.0,0.2416
325.5,0.3054
326.0,0.3715
326.5,0.3678
327.0,0.3681
327.5,0.3573
328.0,0.323
328.5,0.3333
329.0,0.3933
329.5,0.4445
330.0,0.4499
330.5,0.3641
331.0,0.3723
331.5,0.3753
332.0,0.4006
332.5,0.394
333.0,0.3941
333.5,0.3598
334.0,0.3692
334.5,0.4217
335.0,0.3939
335.5,0.4601
336.0,0.3183
336.5,0.3738
337.0,0.3079
337.5,0.3835
338.0,0.3714
338.5,0.4285
339.0,0.424
339.5,0.4078
340.0,0.4794
340.5,0.4317
341.0,0.4211
341.5,0.3865
342.0,0.4618
342.5,0.432
343.0,0.4752
343.5,0.4475
344.0,0.3306
344.5,0.334
345.0,0.4418
345.5,0.451
346.0,0.3832
346.5,0.4338
347.0,0.4658
347.5,0.3766
348.0,0.4292
348.5,0.4289
349.0,0.3978
349.5,0.3939
350.0,0.4871
350.5,0.5138
351.0,0.459
351.5,0.4462
352.0,0.4791
352.5,0.3738
353.0,0.4707
353.5,0.5033
354.0,0.5225
354.5,0.5299
355.0,0.5281
355.5,0.477
356.0,0.4991
356.5,0.4261
357.0,0.3521
357.5,0.431
358.0,0.3416
358.5,0.2919
359.0,0.4083
359.5,0.5204
360.0,0.5516
360.5,0.4409
361.0,0.4019
361.5,0.4627
362.0,0.4
362.5,0.5535
363.0,0.4971
363.5,0.4579
364.0,0.5599
364.5,0.4786
365.0,0.4874
365.5,0.6117
366.0,0.6481
366.5,0.6089
367.0,0.5929
367.5,0.6153
368.0,0.5385
368.5,0.5433
369.0,0.5868
369.5,0.6254
370.0,0.6667
370.5,0.5174
371.0,0.5528
371.5,0.6917
372.0,0.4591
372.5,0.5504
373.0,0.5599
373.5,0.3643
374.0,0.5293
374.5,0.4384
375.0,0.4261
375.5,0.6362
376.0,0.5274
376.5,0.5466
377.0,0.5787
377.5,0.677
378.0,0.7339
378.5,0.6937
379.0,0.5725
379.5,0.523
380.0,0.5438
380.5,0.6586
381.0,0.66
381.5,0.5232
382.0,0.4646
382.5,0.396
383.0,0.3666
383.5,0.3531
384.0,0.3895
384.5,0.5729
385.0,0.5682
385.5,0.5291
386.0,0.4532
386.5,0.5953
387.0,0.4947
387.5,0.5556
388.0,0.513
388.5,0.5071
389.0,0.5474
389.5,0.663
390.0,0.6654
390.5,0.6124
391.0,0.7209
391.5,0.7353
392.0,0.6193
392.5,0.5544
393.0,0.3085
393.5,0.2243
394.0,0.4563
394.5,0.5802
395.0,0.708
395.5,0.7192
396.0,0.6236
396.5,0.3645
397.0,0.2736
397.5,0.5564
398.0,0.7792
398.5,0.8054
399.0,0.872
399.5,0.8692
400.0,0.9026
401.0,0.917
402.0,0.9674
403.0,0.9189
404.0,0.9048
405.0,0.9047
406.0,0.8899
407.0,0.8755
408.0,0.9097
409.0,0.9737
410.0,0.8507
411.0,0.9214
412.0,0.9895
413.0,0.965
414.0,0.9768
415.0,0.9792
416.0,0.9962
417.0,0.9718
418.0,0.9538
419.0,0.9662
420.0,0.962
421.0,1.006
422.0,0.9565
423.0,0.9343
424.0,0.9882
425.0,0.9863
426.0,0.9605
427.0,0.9425
428.0,0.9181
429.0,0.8694
430.0,0.7608
431.0,0.7542
432.0,0.9736
433.0,0.9789
434.0,0.909
435.0,0.9494
436.0,1.069
437.0,1.055
438.0,0.9604
439.0,0.9936
440.0,1.025
441.0,1.062
442.0,1.139
443.0,1.11
444.0,1.133
445.0,1.109
446.0,1.058
447.0,1.144
448.0,1.162
449.0,1.166
450.0,1.198
451.0,1.243
452.0,1.197
453.0,1.126
454.0,1.175
455.0,1.182
456.0,1.21
457.0,1.23
458.0,1.189
459.0,1.182
460.0,1.186
461.0,1.213
462.0,1.222
463.0,1.214
464.0,1.193
465.0,1.178
466.0,1.189
467.0,1.167
468.0,1.181
469.0,1.187
470.0,1.149
471.0,1.148
472.0,1.209
473.0,1.194
474.0,1.196
475.0,1.206
476.0,1.171
477.0,1.174
478.0,1.207
479.0,1.199
480.0,1.201
481.0,1.223
482.0,1.229
483.0,1.214
484.0,1.189
485.0,1.132
486.0,0.9895
487.0,1.037
488.0,1.137
489.0,1.141
490.0,1.2
491.0,1.179
492.0,1.114
493.0,1.15
494.0,1.162
495.0,1.171
496.0,1.179
497.0,1.197
498.0,1.141
499.0,1.156
500.0,1.122
501.0,1.102
502.0,1.087
503.0,1.132
504.0,1.105
505.0,1.143
506.0,1.18
507.0,1.123
508.0,1.087
509.0,1.117
510.0,1.111
511.0,1.14
512.0,1.153
513.0,1.091
514.0,1.083
515.0,1.072
516.0,1.07
517.0,0.9506
518.0,0.9994
519.0,1.048
520.0,1.086
521.0,1.097
522.0,1.098
523.0,1.078
524.0,1.117
525.0,1.131
526.0,1.08
527.0,1.018
528.0,1.077
529.0,1.136
530.0,1.119
531.0,1.136
532.0,1.097
533.0,1.065
534.0,1.096
535.0,1.12
536.0,1.13
537.0,1.086
538.0,1.105
539.0,1.095
540.0,1.05
541.0,1.058
542.0,1.091
543.0,1.079
544.0,1.098
545.0,1.095
546.0,1.1
547.0,1.099
548.0,1.086
549.0,1.089
550.0,1.102
551.0,1.088
552.0,1.096
553.0,1.076
554.0,1.102
555.0,1.105
556.0,1.09
557.0,1.057
558.0,1.049
559.0,1.03
560.0,1.043
561.0,1.056
562.0,1.049
563.0,1.078
564.0,1.049
565.0,1.04
566.0,1.025
567.0,1.045
568.0,1.036
569.0,1.013
570.0,1.013
571.0,1.006
572.0,1.031
573.0,1.042
574.0,1.039
575.0,1.02
576.0,1.011
577.0,1.022
578.0,1.006
579.0,1.009
580.0,1.027
581.0,1.032
582.0,1.051
583.0,1.053
584.0,1.061
585.0,1.035
586.0,1.014
587.0,1.037
588.0,1.013
589.0,0.9016
590.0,0.9426
591.0,0.9951
592.0,0.9839
593.0,0.9968
594.0,0.9906
595.0,0.9674
596.0,1.002
597.0,0.9923
598.0,0.9889
599.0,0.9893
600.0,0.99
601.0,0.9813
602.0,0.9746
603.0,0.9904
604.0,1.007
605.0,1.001
606.0,0.9969
607.0,1.006
608.0,0.995
609.0,0.9964
610.0,0.989
611.0,0.994
612.0,0.9909
613.0,0.9783
614.0,0.9646
615.0,0.9854
616.0,0.9527
617.0,0.9506
618.0,0.9871
619.0,0.977
620.0,0.9832
621.0,0.9844
622.0,0.9731
623.0,0.9585
624.0,0.9419
625.0,0.9397
626.0,0.9537
627.0,0.965
628.0,0.9093
629.0,0.945
630.0,0.9235
631.0,0.9416
632.0,0.9299
633.0,0.957
634.0,0.9468
635.0,0.9611
636.0,0.9479
637.0,0.9631
638.0,0.9717
639.0,0.9605
640.0,0.9508
641.0,0.95
642.0,0.9453
643.0,0.958
644.0,0.9546
645.0,0.9563
646.0,0.935
647.0,0.9261
648.0,0.9271
649.0,0.9093
650.0,0.9109
651.0,0.9498
652.0,0.9134
653.0,0.9372
654.0,0.9264
655.0,0.8935
656.0,0.7908
657.0,0.812
658.0,0.9091
659.0,0.9152
660.0,0.9188
661.0,0.9252
662.0,0.9277
663.0,0.9091
664.0,0.9191
665.0,0.9192
666.0,0.9197
667.0,0.9185
668.0,0.9186
669.0,0.9326
670.0,0.9285
671.0,0.9281
672.0,0.9201
673.0,0.9338
674.0,0.9302
675.0,0.9216
676.0,0.9278
677.0,0.9185
678.0,0.921
679.0,0.906
680.0,0.9132
681.0,0.9072
682.0,0.906
683.0,0.9042
684.0,0.8998
685.0,0.9073
686.0,0.9021
687.0,0.634
688.0,0.7261
689.0,0.7282
690.0,0.7582
691.0,0.7916
692.0,0.8155
693.0,0.8093
694.0,0.8026
695.0,0.8316
696.0,0.8327
697.0,0.8783
698.0,0.8648
699.0,0.8476
700.0,0.8374
701.0,0.83
702.0,0.8345
703.0,0.836
704.0,0.8606
705.0,0.8619
706.0,0.8604
707.0,0.8607
708.0,0.8626
709.0,0.8626
710.0,0.8632
711.0,0.8616
712.0,0.8584
713.0,0.8503
714.0,0.8534
715.0,0.8277
716.0,0.8286
717.0,0.7315
718.0,0.674
719.0,0.6188
720.0,0.6491
721.0,0.7086
722.0,0.802
723.0,0.7511
724.0,0.6819
725.0,0.6727
726.0,0.7033
727.0,0.7103
728.0,0.6716
729.0,0.6921
730.0,0.7323
731.0,0.7021
732.0,0.7461
733.0,0.7851
734.0,0.8025
735.0,0.7866
736.0,0.7855
737.0,0.7887
738.0,0.7978
739.0,0.7822
740.0,0.8015
741.0,0.793
742.0,0.7932
743.0,0.8132
744.0,0.8106
745.0,0.8104
746.0,0.8142
747.0,0.8159
748.0,0.8141
749.0,0.8048
750.0,0.8043
751.0,0.7962
752.0,0.7995
753.0,0.8035
754.0,0.8054
755.0,0.8008
756.0,0.8004
757.0,0.8016
758.0,0.7917
759.0,0.7774
760.0,0.1639
761.0,0.09342
762.0,0.4329
763.0,0.237
764.0,0.338
765.0,0.4331
766.0,0.5151
767.0,0.6335
768.0,0.7181
769.0,0.7303
770.0,0.7519
771.0,0.7565
772.0,0.7576
773.0,0.7628
774.0,0.759
775.0,0.7532
776.0,0.7623
777.0,0.7523
778.0,0.7477
779.0,0.7483
780.0,0.7441
781.0,0.7449
782.0,0.7495
783.0,0.7364
784.0,0.7399
785.0,0.7345
786.0,0.7427
787.0,0.7311
788.0,0.7226
789.0,0.7225
790.0,0.7053
791.0,0.7095
792.0,0.704
793.0,0.6928
794.0,0.7026
795.0,0.715
796.0,0.6957
797.0,0.6967
798.0,0.7144
799.0,0.7104
800.0,0.6987
801.0,0.6971
802.0,0.6951
803.0,0.6901
804.0,0.6908
805.0,0.6878
806.0,0.7059
807.0,0.6976
808.0,0.6981
809.0,0.686
810.0,0.6811
811.0,0.6833
812.0,0.6655
813.0,0.6528
814.0,0.5806
815.0,0.5768
816.0,0.5377
817.0,0.5468
818.0,0.5278
819.0,0.5846
820.0,0.5527
821.0,0.6386
822.0,0.6215
823.0,0.4345
824.0,0.606
825.0,0.6278
826.0,0.6062
827.0,0.6374
828.0,0.5471
829.0,0.6021
830.0,0.5949
831.0,0.5968
832.0,0.5797
833.0,0.6133
834.0,0.5938
835.0,0.6476
836.0,0.6228
837.0,0.6492
838.0,0.6304
839.0,0.6391
840.0,0.6528
841.0,0.6441
842.0,0.6446
843.0,0.6434
844.0,0.6349
845.0,0.6557
846.0,0.6527
847.0,0.6403
848.0,0.6367
849.0,0.6186
850.0,0.5926
851.0,0.6278
852.0,0.6232
853.0,0.5996
854.0,0.518
855.0,0.5687
856.0,0.6216
857.0,0.6352
858.0,0.6307
859.0,0.6311
860.0,0.6321
861.0,0.6287
862.0,0.6385
863.0,0.6536
864.0,0.6209
865.0,0.6154
866.0,0.5533
867.0,0.5774
868.0,0.6284
869.0,0.6153
870.0,0.6328
871.0,0.6242
872.0,0.622
873.0,0.6207
874.0,0.6134
875.0,0.6009
876.0,0.6072
877.0,0.6133
878.0,0.62
879.0,0.6105
880.0,0.5974
881.0,0.5886
882.0,0.6014
883.0,0.6031
884.0,0.6004
885.0,0.605
886.0,0.5772
887.0,0.5828
888.0,0.5917
889.0,0.5979
890.0,0.5935
891.0,0.5922
892.0,0.5759
893.0,0.5589
894.0,0.5412
895.0,0.5138
896.0,0.4851
897.0,0.42
898.0,0.4564
899.0,0.3512
900.0,0.4653
901.0,0.368
902.0,0.4265
903.0,0.4324
904.0,0.5371
905.0,0.5197
906.0,0.4872
907.0,0.4008
908.0,0.408
909.0,0.4397
910.0,0.393
911.0,0.4163
912.0,0.4343
913.0,0.399
914.0,0.3949
915.0,0.4277
916.0,0.3632
917.0,0.4565
918.0,0.3725
919.0,0.4637
920.0,0.4662
921.0,0.4845
922.0,0.4361
923.0,0.4678
924.0,0.4472
925.0,0.4375
926.0,0.4423
927.0,0.4923
928.0,0.3691
929.0,0.339
930.0,0.2697
931.0,0.255
932.0,0.1869
933.0,0.1536
934.0,0.0879
935.0,0.1558
936.0,0.09955
937.0,0.1012
938.0,0.1235
939.0,0.2471
940.0,0.295
941.0,0.2257
942.0,0.2594
943.0,0.1729
944.0,0.18
945.0,0.2321
946.0,0.1213
947.0,0.234
948.0,0.1724
949.0,0.3101
950.0,0.09098
951.0,0.3048
952.0,0.1679
953.0,0.2141
954.0,0.2596
955.0,0.2162
956.0,0.2084
957.0,0.1685
958.0,0.2911
959.0,0.2345
960.0,0.2628
961.0,0.2924
962.0,0.277
963.0,0.3172
964.0,0.2913
965.0,0.3158
966.0,0.3163
967.0,0.3152
968.0,0.4151
969.0,0.4342
970.0,0.3998
971.0,0.4544
972.0,0.4353
973.0,0.3823
974.0,0.3633
975.0,0.3758
976.0,0.3586
977.0,0.4046
978.0,0.3858
979.0,0.4031
980.0,0.3796
981.0,0.4516
982.0,0.433
983.0,0.4164
984.0,0.464
985.0,0.4313
986.0,0.4713
987.0,0.463
988.0,0.4621
989.0,0.4694
990.0,0.4593
991.0,0.4709
992.0,0.4735
993.0,0.4639
994.0,0.4733
995.0,0.4726
996.0,0.4706
997.0,0.4713
998.0,0.4691
999.0,0.4673
1000.0,0.4642
1001.0,0.4698
1002.0,0.4577
1003.0,0.4616
1004.0,0.4505
1005.0,0.4337
1006.0,0.4508
1007.0,0.4603
1008.0,0.4579
1009.0,0.4556
1010.0,0.4538
1011.0,0.4579
1012.0,0.4541
1013.0,0.4567
1014.0,0.4535
1015.0,0.4506
1016.0,0.4486
1017.0,0.4497
1018.0,0.4479
1019.0,0.4387
1020.0,0.4456
1021.0,0.445
1022.0,0.4416
1023.0,0.4463
1024.0,0.4408
1025.0,0.4459
1026.0,0.4441
1027.0,0.443
1028.0,0.4421
1029.0,0.4369
1030.0,0.4398
1031.0,0.4381
1032.0,0.4368
1033.0,0.4302
1034.0,0.4302
1035.0,0.4316
1036.0,0.4338
1037.0,0.4268
1038.0,0.4287
1039.0,0.4284
1040.0,0.4267
1041.0,0.4285
1042.0,0.4255
1043.0,0.4241
1044.0,0.4256
1045.0,0.4199
1046.0,0.4153
1047.0,0.419
1048.0,0.4213
1049.0,0.4198
1050.0,0.4179
1051.0,0.4174
1052.0,0.4157
1053.0,0.4124
1054.0,0.4134
1055.0,0.4137
1056.0,0.4123
1057.0,0.411
1058.0,0.401
1059.0,0.4014
1060.0,0.4008
1061.0,0.4004
1062.0,0.4025
1063.0,0.3986
1064.0,0.4033
1065.0,0.4005
1066.0,0.3925
1067.0,0.3976
1068.0,0.389
1069.0,0.3769
1070.0,0.3898
1071.0,0.3956
1072.0,0.3912
1073.0,0.3856
1074.0,0.3952
1075.0,0.3763
1076.0,0.3949
1077.0,0.3884
1078.0,0.3812
1079.0,0.3885
1080.0,0.3824
1081.0,0.3705
1082.0,0.3758
1083.0,0.3767
1084.0,0.3698
1085.0,0.3832
1086.0,0.351
1087.0,0.3613
1088.0,0.3765
1089.0,0.3657
1090.0,0.3582
1091.0,0.3755
1092.0,0.3743
1093.0,0.3198
1094.0,0.3428
1095.0,0.3329
1096.0,0.3195
1097.0,0.3656
1098.0,0.3147
1099.0,0.3279
1100.0,0.3059
1101.0,0.3094
1102.0,0.2962
1103.0,0.2938
1104.0,0.2941
1105.0,0.3207
1106.0,0.2495
1107.0,0.3054
1108.0,0.2614
1109.0,0.2613
1110.0,0.303
1111.0,0.2089
1112.0,0.2591
1113.0,0.1684
1114.0,0.1879
1115.0,0.1559
1116.0,0.1265
1117.0,0.04876
1118.0,0.1369
1119.0,0.06975
1120.0,0.08788
1121.0,0.1155
1122.0,0.05017
1123.0,0.07935
1124.0,0.067
1125.0,0.08697
1126.0,0.03182
1127.0,0.09796
1128.0,0.06027
1129.0,0.06371
1130.0,0.0426
1131.0,0.1818
1132.0,0.1434
1133.0,0.09298
1134.0,0.02502
1135.0,0.009312
1136.0,0.07832
1137.0,0.1793
1138.0,0.1267
1139.0,0.185
1140.0,0.1561
1141.0,0.1204
1142.0,0.1377
1143.0,0.1938
1144.0,0.06973
1145.0,0.08963
1146.0,0.09669
1147.0,0.03561
1148.0,0.1678
1149.0,0.1352
1150.0,0.07485
1151.0,0.1258
1152.0,0.1533
1153.0,0.1483
1154.0,0.08715
1155.0,0.193
1156.0,0.1746
1157.0,0.1947
1158.0,0.1925
1159.0,0.2066
1160.0,0.1778
1161.0,0.2165
1162.0,0.2178
1163.0,0.2897
1164.0,0.2501
1165.0,0.2376
1166.0,0.2348
1167.0,0.2549
1168.0,0.258
1169.0,0.2636
1170.0,0.2851
1171.0,0.2781
1172.0,0.2823
1173.0,0.2844
1174.0,0.207
1175.0,0.2772
1176.0,0.3028
1177.0,0.2919
1178.0,0.2223
1179.0,0.3051
1180.0,0.2746
1181.0,0.2831
1182.0,0.1987
1183.0,0.2783
1184.0,0.2619
1185.0,0.2538
1186.0,0.2975
1187.0,0.2844
1188.0,0.2024
1189.0,0.2652
1190.0,0.2907
1191.0,0.2779
1192.0,0.2946
1193.0,0.2829
1194.0,0.2912
1195.0,0.2767
1196.0,0.2673
1197.0,0.2906
1198.0,0.2668
1199.0,0.2299
1200.0,0.2795
1201.0,0.2706
1202.0,0.2684
1203.0,0.2662
1204.0,0.2344
1205.0,0.2737
1206.0,0.3007
1207.0,0.268
1208.0,0.2629
1209.0,0.268
1210.0,0.2786
1211.0,0.2664
1212.0,0.2646
1213.0,0.2915
1214.0,0.2703
1215.0,0.2655
1216.0,0.2905
1217.0,0.2834
1218.0,0.2882
1219.0,0.2849
1220.0,0.2884
1221.0,0.2909
1222.0,0.2837
1223.0,0.2813
1224.0,0.28
1225.0,0.2891
1226.0,0.2906
1227.0,0.2697
1228.0,0.2918
1229.0,0.2907
1230.0,0.286
1231.0,0.2931
1232.0,0.2914
1233.0,0.2827
1234.0,0.2926
1235.0,0.291
1236.0,0.2929
1237.0,0.2894
1238.0,0.2919
1239.0,0.2882
1240.0,0.2892
1241.0,0.2882
1242.0,0.2873
1243.0,0.2849
1244.0,0.2871
1245.0,0.2882
1246.0,0.2865
1247.0,0.2855
1248.0,0.2855
1249.0,0.2862
1250.0,0.2846
1251.0,0.2811
1252.0,0.2809
1253.0,0.2791
1254.0,0.2766
1255.0,0.2807
1256.0,0.2737
1257.0,0.2723
1258.0,0.2768
1259.0,0.268
1260.0,0.2692
1261.0,0.2557
1262.0,0.2489
1263.0,0.2494
1264.0,0.2321
1265.0,0.2477
1266.0,0.2395
1267.0,0.243
1268.0,0.2317
1269.0,0.1522
1270.0,0.2424
1271.0,0.2547
1272.0,0.2553
1273.0,0.2528
1274.0,0.2534
1275.0,0.2567
1276.0,0.2589
1277.0,0.2603
1278.0,0.2646
1279.0,0.2623
1280.0,0.2589
1281.0,0.2468
1282.0,0.2373
1283.0,0.2557
1284.0,0.2619
1285.0,0.2635
1286.0,0.2668
1287.0,0.2632
1288.0,0.263
1289.0,0.2557
1290.0,0.2606
1291.0,0.2641
1292.0,0.2499
1293.0,0.2594
1294.0,0.2577
1295.0,0.2569
1296.0,0.2464
1297.0,0.234
1298.0,0.25
1299.0,0.2595
1300.0,0.2229
1301.0,0.2291
1302.0,0.2492
1303.0,0.2196
1304.0,0.1903
1305.0,0.2443
1306.0,0.2445
1307.0,0.1933
1308.0,0.2195
1309.0,0.2429
1310.0,0.1898
1311.0,0.2111
1312.0,0.2058
1313.0,0.2023
1314.0,0.1821
1315.0,0.1804
1316.0,0.2082
1317.0,0.1976
1318.0,0.2135
1319.0,0.1703
1320.0,0.1643
1321.0,0.1902
1322.0,0.1926
1323.0,0.1477
1324.0,0.1671
1325.0,0.2054
1326.0,0.1781
1327.0,0.1703
1328.0,0.1477
1329.0,0.1133
1330.0,0.1463
1331.0,0.09101
1332.0,0.09306
1333.0,0.1289
1334.0,0.1079
1335.0,0.1472
1336.0,0.1178
1337.0,0.1049
1338.0,0.1135
1339.0,0.1126
1340.0,0.1088
1341.0,0.1079
1342.0,0.1132
1343.0,0.07991
1344.0,0.0477
1345.0,0.06854
1346.0,0.03619
1347.0,0.03716
1348.0,0.002817
1349.0,0.009673
1350.0,0.009729
1351.0,0.002719
1352.0,0.0008523
1353.0,5.153e-05
1354.0,0.0001595
1355.0,1.815e-06
1356.0,2.552e-05
1357.0,3.868e-05
1358.0,2.12e-06
1359.0,3.453e-07
1360.0,1.063e-06
1361.0,2.057e-09
1362.0,7.175e-12
1363.0,1.545e-06
1364.0,6.532e-07
1365.0,3.381e-12
1366.0,6.304e-06
1367.0,2.485e-06
1368.0,4.696e-14
1369.0,2.482e-07
1370.0,1.364e-07
1371.0,8.888e-09
1372.0,1.369e-06
1373.0,2.317e-05
1374.0,9.565e-05
1375.0,0.0001741
1376.0,0.0001427
1377.0,6.72e-05
1378.0,0.0006213
1379.0,2.841e-05
1380.0,4.392e-05
1381.0,1.24e-06
1382.0,1.273e-06
1383.0,2.12e-08
1384.0,2.929e-07
1385.0,1.069e-06
1386.0,1.221e-06
1387.0,0.0001062
1388.0,2.128e-06
1389.0,0.0003171
1390.0,0.000273
1391.0,0.0001873
1392.0,1.275e-05
1393.0,6.334e-05
1394.0,3.948e-05
1395.0,3.361e-07
1396.0,2.757e-09
1397.0,2.648e-05
1398.0,0.000706
1399.0,0.0004473
1400.0,1.373e-09
1401.0,4.708e-09
1402.0,0.001065
1403.0,0.001377
1404.0,0.0004253
1405.0,1.796e-07
1406.0,0.001161
1407.0,9.973e-05
1408.0,0.0009423
1409.0,0.0003451
1410.0,0.0002624
1411.0,0.001205
1412.0,0.001561
1413.0,0.01424
1414.0,0.000205
1415.0,0.0001026
1416.0,0.02199
1417.0,0.007097
1418.0,0.008134
1419.0,0.001283
1420.0,0.004994
1421.0,0.005414
1422.0,0.02859
1423.0,0.005656
1424.0,0.01049
1425.0,0.01561
1426.0,0.01731
1427.0,0.03093
1428.0,0.002677
1429.0,0.02353
1430.0,0.03912
1431.0,0.04273
1432.0,0.002119
1433.0,0.0275
1434.0,0.01415
1435.0,0.0147
1436.0,0.02751
1437.0,0.02108
1438.0,0.009139
1439.0,0.03704
1440.0,0.02778
1441.0,0.02157
1442.0,0.02386
1443.0,0.02936
1444.0,0.0404
1445.0,0.03209
1446.0,0.01458
1447.0,0.02294
1448.0,0.0744
1449.0,0.06504
1450.0,0.01699
