interpolation:linear
wavelength,value
280.0,4.0950000000000004e-21
280.5,1.27e-19
281.0,6.681e-19
281.5,4.451e-19
282.0,1.219e-18
282.5,3.169e-18
283.0,1.017e-17
283.5,1.659e-17
284.0,2.663e-16
284.5,7.646e-16
285.0,1.67e-15
285.5,8.263e-15
286.0,3.318e-14
286.5,1.469e-13
287.0,4.16e-13
287.5,1.573e-12
288.0,4.074e-12
288.5,1.384e-11
289.0,3.998e-11
289.5,1.285e-10
290.0,3.708e-10
290.5,7.77e-10
291.0,1.714e-09
291.5,5.372e-09
292.0,1.174e-08
292.5,1.794e-08
293.0,4.289e-08
293.5,1.214e-07
294.0,2.117e-07
294.5,2.748e-07
295.0,5.193e-07
295.5,1.404e-06
296.0,2.813e-06
296.5,4.097e-06
297.0,5.747e-06
297.5,1.632e-05
298.0,2.71e-05
298.5,2.845e-05
299.0,6.555e-05
299.5,0.0001179
300.0,0.0001362
300.5,0.0002081
301.0,0.0004146
301.5,0.0007333
302.0,0.0006684
302.5,0.001312
303.0,0.002369
303.5,0.002993
304.0,0.002817
304.5,0.00422
305.0,0.006422
305.5,0.007368
306.0,0.007137
306.5,0.008894
307.0,0.01321
307.5,0.01756
308.0,0.01855
308.5,0.02191
309.0,0.02153
309.5,0.02459
310.0,0.02468
310.5,0.03996
311.0,0.05013
311.5,0.04838
312.0,0.04829
312.5,0.05868
313.0,0.06361
313.5,0.06183
314.0,0.07716
314.5,0.06824
315.0,0.08964
315.5,0.07511
316.0,0.06545
316.5,0.09379
317.0,0.1165
317.5,0.1213
318.0,0.0945
318.5,0.117
319.0,0.1386
319.5,0.1133
320.0,0.137
320.5,0.1708
321.0,0.1516
321.5,0.1453
322.0,0.1555
322.5,0.1353
323.0,0.1344
323.5,0.1648
324.0,0.1924
324.5,0.1955
325.0,0.1692
325.5,0.2171
326.0,0.2654
326.5,0.2654
327.0,0.2647
327.5,0.2559
328.0,0.2284
328.5,0.2394
329.0,0.2861
329.5,0.3246
330.0,0.3276
330.5,0.2627
331.0,0.2679
331.5,0.272
332.0,0.2933
332.5,0.2899
333.0,0.2893
333.5,0.2622
334.0,0.2688
334.5,0.3097
335.0,0.2908
335.5,0.3396
336.0,0.2351
336.5,0.2754
337.0,0.2262
337.5,0.2815
338.0,0.2745
338.5,0.3168
339.0,0.3137
339.5,0.3018
340.0,0.3548
340.5,0.3198
341.0,0.3119
341.5,0.2864
342.0,0.3424
342.5,0.3204
343.0,0.3524
343.5,0.3319
344.0,0.2454
344.5,0.2479
345.0,0.3281
345.5,0.3351
346.0,0.2848
346.5,0.3226
347.0,0.3464
347.5,0.2801
348.0,0.3194
348.5,0.3193
349.0,0.2963
349.5,0.2935
350.0,0.3631
350.5,0.383
351.0,0.3422
351.5,0.3327
352.0,0.3574
352.5,0.279
353.0,0.3515
353.5,0.3759
354.0,0.3903
354.5,0.3959
355.0,0.3947
355.5,0.3566
356.0,0.3732
356.5,0.3187
357.0,0.2634
357.5,0.3225
358.0,0.2557
358.5,0.2185
359.0,0.3057
359.5,0.3896
360.0,0.4131
360.5,0.3303
361.0,0.3011
361.5,0.3469
362.0,0.3001
362.5,0.4154
363.0,0.3732
363.5,0.3439
364.0,0.4207
364.5,0.3597
365.0,0.3664
365.5,0.46
366.0,0.4875
366.5,0.4582
367.0,0.4463
367.5,0.4633
368.0,0.4055
368.5,0.4093
369.0,0.4421
369.5,0.4713
370.0,0.5026
370.5,0.3902
371.0,0.417
371.5,0.5218
372.0,0.3464
372.5,0.4155
373.0,0.4228
373.5,0.2751
374.0,0.3999
374.5,0.3313
375.0,0.3221
375.5,0.481
376.0,0.3988
376.5,0.4133
377.0,0.4377
377.5,0.5122
378.0,0.5554
378.5,0.525
379.0,0.4334
379.5,0.3959
380.0,0.4117
380.5,0.4988
381.0,0.5
381.5,0.3965
382.0,0.3522
382.5,0.3004
383.0,0.2781
383.5,0.268
384.0,0.2957
384.5,0.435
385.0,0.4315
385.5,0.4019
386.0,0.3443
386.5,0.4525
387.0,0.376
387.5,0.4225
388.0,0.3901
388.5,0.3858
389.0,0.4165
389.5,0.5046
390.0,0.5065
390.5,0.4662
391.0,0.549
391.5,0.56
392.0,0.4718
392.5,0.4225
393.0,0.2352
393.5,0.171
394.0,0.348
394.5,0.4425
395.0,0.5401
395.5,0.5488
396.0,0.4759
396.5,0.2783
397.0,0.2089
397.5,0.4249
398.0,0.5951
398.5,0.6152
399.0,0.6664
399.5,0.6644
400.0,0.6899
401.0,0.6996
402.0,0.7385
403.0,0.7018
404.0,0.6913
405.0,0.6914
406.0,0.6805
407.0,0.6698
408.0,0.6961
409.0,0.7453
410.0,0.6514
411.0,0.7059
412.0,0.7584
413.0,0.7398
414.0,0.7491
415.0,0.7514
416.0,0.7648
417.0,0.7462
418.0,0.7326
419.0,0.7425
420.0,0.7394
421.0,0.7738
422.0,0.7356
423.0,0.7188
424.0,0.7604
425.0,0.7592
426.0,0.7398
427.0,0.7261
428.0,0.7075
429.0,0.6704
430.0,0.5868
431.0,0.5817
432.0,0.7513
433.0,0.7556
434.0,0.7018
435.0,0.733
436.0,0.8262
437.0,0.8153
438.0,0.7426
439.0,0.768
440.0,0.7927
441.0,0.8216
442.0,0.8813
443.0,0.8584
444.0,0.8772
445.0,0.8583
446.0,0.8194
447.0,0.886
448.0,0.8998
449.0,0.9037
450.0,0.9291
451.0,0.9637
452.0,0.9286
453.0,0.8736
454.0,0.9121
455.0,0.9178
456.0,0.9397
457.0,0.9555
458.0,0.9229
459.0,0.9182
460.0,0.9207
461.0,0.942
462.0,0.9494
463.0,0.9429
464.0,0.9275
465.0,0.916
466.0,0.925
467.0,0.9081
468.0,0.9188
469.0,0.9237
470.0,0.8942
471.0,0.8932
472.0,0.9411
473.0,0.929
474.0,0.9302
475.0,0.9381
476.0,0.91
477.0,0.9125
478.0,0.9379
479.0,0.9323
480.0,0.9341
481.0,0.9517
482.0,0.9568
483.0,0.9454
484.0,0.9261
485.0,0.8825
486.0,0.7715
487.0,0.8087
488.0,0.8872
489.0,0.8899
490.0,0.9364
491.0,0.9203
492.0,0.8691
493.0,0.8976
494.0,0.9066
495.0,0.9143
496.0,0.92
497.0,0.9343
498.0,0.8906
499.0,0.902
500.0,0.8756
501.0,0.8595
502.0,0.8473
503.0,0.8816
504.0,0.8588
505.0,0.8899
506.0,0.9187
507.0,0.8742
508.0,0.8471
509.0,0.871
510.0,0.8665
511.0,0.8898
512.0,0.8995
513.0,0.8514
514.0,0.8456
515.0,0.8372
516.0,0.8352
517.0,0.7421
518.0,0.7802
519.0,0.8184
520.0,0.8481
521.0,0.8562
522.0,0.8569
523.0,0.8414
524.0,0.8715
525.0,0.8816
526.0,0.8421
527.0,0.7935
528.0,0.8391
529.0,0.8844
530.0,0.8717
531.0,0.8846
532.0,0.8542
533.0,0.8291
534.0,0.8537
535.0,0.8724
536.0,0.8805
537.0,0.8458
538.0,0.8607
539.0,0.8535
540.0,0.8183
541.0,0.8236
542.0,0.8493
543.0,0.8405
544.0,0.8549
545.0,0.8523
546.0,0.8559
547.0,0.8557
548.0,0.8455
549.0,0.8481
550.0,0.8582
551.0,0.8478
552.0,0.8537
553.0,0.8384
554.0,0.8584
555.0,0.8601
556.0,0.8489
557.0,0.8225
558.0,0.8162
559.0,0.8009
560.0,0.8108
561.0,0.8213
562.0,0.8152
563.0,0.8374
564.0,0.8145
565.0,0.8074
566.0,0.7955
567.0,0.8104
568.0,0.8029
569.0,0.7833
570.0,0.7832
571.0,0.7786
572.0,0.7969
573.0,0.8054
574.0,0.8027
575.0,0.7876
576.0,0.7804
577.0,0.789
578.0,0.7773
579.0,0.7806
580.0,0.7959
581.0,0.8003
582.0,0.8157
583.0,0.8179
584.0,0.8252
585.0,0.8051
586.0,0.7885
587.0,0.8057
588.0,0.7854
589.0,0.6945
590.0,0.7264
591.0,0.7694
592.0,0.7593
593.0,0.7711
594.0,0.7655
595.0,0.7461
596.0,0.7766
597.0,0.768
598.0,0.7663
599.0,0.7671
600.0,0.7686
601.0,0.7625
602.0,0.7573
603.0,0.77
604.0,0.7828
605.0,0.7788
606.0,0.7757
607.0,0.7835
608.0,0.775
609.0,0.7764
610.0,0.771
611.0,0.7751
612.0,0.7729
613.0,0.7632
614.0,0.7529
615.0,0.7694
616.0,0.7441
617.0,0.7427
618.0,0.7713
619.0,0.7635
620.0,0.7684
621.0,0.769
622.0,0.7599
623.0,0.7483
624.0,0.7355
625.0,0.7339
626.0,0.7447
627.0,0.7528
628.0,0.6999
629.0,0.7339
630.0,0.7169
631.0,0.7341
632.0,0.7255
633.0,0.748
634.0,0.7411
635.0,0.7528
636.0,0.743
637.0,0.7554
638.0,0.7629
639.0,0.7544
640.0,0.7473
641.0,0.7469
642.0,0.7436
643.0,0.7537
644.0,0.7513
645.0,0.7525
646.0,0.7346
647.0,0.725
648.0,0.7256
649.0,0.7115
650.0,0.716
651.0,0.7473
652.0,0.715
653.0,0.7374
654.0,0.7293
655.0,0.7016
656.0,0.6222
657.0,0.639
658.0,0.7165
659.0,0.7217
660.0,0.7248
661.0,0.7299
662.0,0.7312
663.0,0.7168
664.0,0.7256
665.0,0.7265
666.0,0.7271
667.0,0.7266
668.0,0.727
669.0,0.7383
670.0,0.7352
671.0,0.7351
672.0,0.7288
673.0,0.7399
674.0,0.7372
675.0,0.7305
676.0,0.7356
677.0,0.7283
678.0,0.7304
679.0,0.7187
680.0,0.7244
681.0,0.7197
682.0,0.7188
683.0,0.7174
684.0,0.7138
685.0,0.72
686.0,0.7156
687.0,0.4616
688.0,0.5473
689.0,0.5495
690.0,0.5785
691.0,0.6114
692.0,0.6356
693.0,0.6302
694.0,0.625
695.0,0.6526
696.0,0.6535
697.0,0.6956
698.0,0.6847
699.0,0.667
700.0,0.6589
701.0,0.6518
702.0,0.6568
703.0,0.6581
704.0,0.6799
705.0,0.6809
706.0,0.6807
707.0,0.6813
708.0,0.6827
709.0,0.6842
710.0,0.6839
711.0,0.6832
712.0,0.6814
713.0,0.6743
714.0,0.6769
715.0,0.655
716.0,0.6552
717.0,0.5633
718.0,0.5167
719.0,0.4728
720.0,0.4949
721.0,0.5493
722.0,0.6317
723.0,0.5864
724.0,0.5264
725.0,0.5172
726.0,0.5418
727.0,0.5507
728.0,0.5157
729.0,0.5368
730.0,0.5679
731.0,0.5429
732.0,0.5826
733.0,0.6184
734.0,0.6336
735.0,0.6203
736.0,0.6194
737.0,0.6219
738.0,0.6327
739.0,0.6202
740.0,0.6368
741.0,0.6307
742.0,0.6315
743.0,0.6476
744.0,0.6459
745.0,0.6462
746.0,0.6491
747.0,0.6506
748.0,0.6492
749.0,0.6418
750.0,0.6415
751.0,0.635
752.0,0.6377
753.0,0.641
754.0,0.6424
755.0,0.6388
756.0,0.6385
757.0,0.6394
758.0,0.6314
759.0,0.6179
760.0,0.08981
761.0,0.04481
762.0,0.3007
763.0,0.1419
764.0,0.2206
765.0,0.3007
766.0,0.3764
767.0,0.4825
768.0,0.563
769.0,0.5763
770.0,0.5975
771.0,0.603
772.0,0.6045
773.0,0.6088
774.0,0.6059
775.0,0.6013
776.0,0.6086
777.0,0.6006
778.0,0.597
779.0,0.5975
780.0,0.5941
781.0,0.5948
782.0,0.5985
783.0,0.5881
784.0,0.5909
785.0,0.5865
786.0,0.5929
787.0,0.5819
788.0,0.5744
789.0,0.5741
790.0,0.5579
791.0,0.5636
792.0,0.5596
793.0,0.5505
794.0,0.5608
795.0,0.57
796.0,0.5513
797.0,0.5519
798.0,0.5692
799.0,0.5653
800.0,0.5552
801.0,0.5532
802.0,0.5516
803.0,0.5473
804.0,0.5482
805.0,0.5468
806.0,0.5628
807.0,0.5558
808.0,0.5564
809.0,0.5455
810.0,0.5407
811.0,0.5408
812.0,0.5245
813.0,0.5131
814.0,0.4487
815.0,0.446
816.0,0.4148
817.0,0.4227
818.0,0.4062
819.0,0.4565
820.0,0.429
821.0,0.5048
822.0,0.4899
823.0,0.3279
824.0,0.4744
825.0,0.496
826.0,0.4761
827.0,0.5036
828.0,0.4238
829.0,0.4735
830.0,0.4669
831.0,0.4687
832.0,0.4537
833.0,0.4843
834.0,0.4661
835.0,0.5143
836.0,0.4908
837.0,0.5159
838.0,0.4991
839.0,0.5083
840.0,0.5196
841.0,0.5119
842.0,0.5135
843.0,0.5137
844.0,0.5063
845.0,0.5238
846.0,0.5216
847.0,0.512
848.0,0.5086
849.0,0.4942
850.0,0.4735
851.0,0.501
852.0,0.4976
853.0,0.4792
854.0,0.4136
855.0,0.4546
856.0,0.4967
857.0,0.508
858.0,0.5042
859.0,0.5047
860.0,0.5057
861.0,0.5029
862.0,0.5108
863.0,0.5229
864.0,0.4968
865.0,0.4925
866.0,0.4428
867.0,0.4621
868.0,0.5029
869.0,0.4924
870.0,0.5065
871.0,0.4996
872.0,0.4978
873.0,0.4968
874.0,0.4909
875.0,0.481
876.0,0.486
877.0,0.4909
878.0,0.4962
879.0,0.4886
880.0,0.4781
881.0,0.4708
882.0,0.4809
883.0,0.4826
884.0,0.4803
885.0,0.4839
886.0,0.4607
887.0,0.466
888.0,0.4726
889.0,0.4784
890.0,0.4739
891.0,0.4734
892.0,0.459
893.0,0.4439
894.0,0.4267
895.0,0.4013
896.0,0.3773
897.0,0.3216
898.0,0.3523
899.0,0.265
900.0,0.3623
901.0,0.2778
902.0,0.33
903.0,0.332
904.0,0.4235
905.0,0.4081
906.0,0.3813
907.0,0.3059
908.0,0.3126
909.0,0.3404
910.0,0.2978
911.0,0.3195
912.0,0.3346
913.0,0.302
914.0,0.3001
915.0,0.3254
916.0,0.2746
917.0,0.352
918.0,0.2814
919.0,0.3593
920.0,0.365
921.0,0.3798
922.0,0.3371
923.0,0.3671
924.0,0.3452
925.0,0.3377
926.0,0.3412
927.0,0.3844
928.0,0.275
929.0,0.2492
930.0,0.1927
931.0,0.183
932.0,0.1285
933.0,0.1028
934.0,0.05296
935.0,0.1066
936.0,0.06436
937.0,0.065
938.0,0.08079
939.0,0.1772
940.0,0.2155
941.0,0.1596
942.0,0.1867
943.0,0.1203
944.0,0.129
945.0,0.1652
946.0,0.08074
947.0,0.165
948.0,0.1208
949.0,0.2242
950.0,0.05734
951.0,0.2213
952.0,0.1146
953.0,0.1508
954.0,0.1882
955.0,0.1529
956.0,0.1506
957.0,0.1144
958.0,0.2177
959.0,0.1692
960.0,0.1897
961.0,0.2158
962.0,0.2039
963.0,0.2376
964.0,0.2168
965.0,0.2369
966.0,0.2363
967.0,0.2351
968.0,0.3243
969.0,0.3378
970.0,0.3091
971.0,0.3578
972.0,0.3415
973.0,0.2933
974.0,0.2778
975.0,0.2899
976.0,0.2731
977.0,0.3152
978.0,0.2976
979.0,0.3129
980.0,0.2935
981.0,0.3559
982.0,0.3388
983.0,0.3244
984.0,0.3684
985.0,0.3375
986.0,0.3759
987.0,0.3673
988.0,0.3667
989.0,0.3754
990.0,0.3645
991.0,0.3764
992.0,0.3787
993.0,0.3691
994.0,0.3787
995.0,0.3784
996.0,0.3766
997.0,0.3772
998.0,0.3754
999.0,0.374
1000.0,0.3711
1001.0,0.3761
1002.0,0.3646
1003.0,0.3694
1004.0,0.36
1005.0,0.3473
1006.0,0.3606
1007.0,0.3684
1008.0,0.3662
1009.0,0.364
1010.0,0.3623
1011.0,0.3665
1012.0,0.3631
1013.0,0.3657
1014.0,0.3631
1015.0,0.3607
1016.0,0.359
1017.0,0.3599
1018.0,0.3587
1019.0,0.3506
1020.0,0.3567
1021.0,0.3563
1022.0,0.3534
1023.0,0.3571
1024.0,0.352
1025.0,0.357
1026.0,0.3554
1027.0,0.3546
1028.0,0.3538
1029.0,0.3496
1030.0,0.3521
1031.0,0.3507
1032.0,0.3497
1033.0,0.3444
1034.0,0.3445
1035.0,0.3455
1036.0,0.3473
1037.0,0.3416
1038.0,0.3431
1039.0,0.3429
1040.0,0.3415
1041.0,0.3428
1042.0,0.3404
1043.0,0.3393
1044.0,0.3405
1045.0,0.3359
1046.0,0.3321
1047.0,0.3351
1048.0,0.3369
1049.0,0.3356
1050.0,0.334
1051.0,0.3335
1052.0,0.3321
1053.0,0.3294
1054.0,0.3301
1055.0,0.3302
1056.0,0.329
1057.0,0.3279
1058.0,0.3198
1059.0,0.32
1060.0,0.3195
1061.0,0.3191
1062.0,0.3207
1063.0,0.3175
1064.0,0.3213
1065.0,0.3188
1066.0,0.3126
1067.0,0.3166
1068.0,0.3096
1069.0,0.3001
1070.0,0.3102
1071.0,0.3154
1072.0,0.3114
1073.0,0.307
1074.0,0.3154
1075.0,0.2984
1076.0,0.3151
1077.0,0.3087
1078.0,0.3026
1079.0,0.3102
1080.0,0.304
1081.0,0.2937
1082.0,0.2994
1083.0,0.3006
1084.0,0.2926
1085.0,0.3048
1086.0,0.2764
1087.0,0.2865
1088.0,0.3001
1089.0,0.2897
1090.0,0.2826
1091.0,0.2988
1092.0,0.2983
1093.0,0.2496
1094.0,0.2725
1095.0,0.2604
1096.0,0.2484
1097.0,0.2914
1098.0,0.2441
1099.0,0.2551
1100.0,0.2357
1101.0,0.2391
1102.0,0.2275
1103.0,0.2246
1104.0,0.225
1105.0,0.249
1106.0,0.1849
1107.0,0.2354
1108.0,0.1963
1109.0,0.1973
1110.0,0.2329
1111.0,0.1536
1112.0,0.196
1113.0,0.1203
1114.0,0.1348
1115.0,0.1116
1116.0,0.08643
1117.0,0.029
1118.0,0.09491
1119.0,0.0448
1120.0,0.05619
1121.0,0.07595
1122.0,0.03
1123.0,0.05088
1124.0,0.04291
1125.0,0.05655
1126.0,0.01777
1127.0,0.06397
1128.0,0.03615
1129.0,0.03864
1130.0,0.0247
1131.0,0.1266
1132.0,0.09829
1133.0,0.05945
1134.0,0.01368
1135.0,0.005219
1136.0,0.04859
1137.0,0.1233
1138.0,0.08635
1139.0,0.1344
1140.0,0.1102
1141.0,0.08211
1142.0,0.09558
1143.0,0.1381
1144.0,0.04556
1145.0,0.05739
1146.0,0.06186
1147.0,0.01979
1148.0,0.1193
1149.0,0.09363
1150.0,0.04933
1151.0,0.08565
1152.0,0.1074
1153.0,0.1062
1154.0,0.0554
1155.0,0.1401
1156.0,0.1251
1157.0,0.1422
1158.0,0.1406
1159.0,0.153
1160.0,0.1294
1161.0,0.1624
1162.0,0.163
1163.0,0.225
1164.0,0.1912
1165.0,0.1787
1166.0,0.1787
1167.0,0.1955
1168.0,0.1973
1169.0,0.2025
1170.0,0.2215
1171.0,0.2158
1172.0,0.2206
1173.0,0.2211
1174.0,0.1545
1175.0,0.2166
1176.0,0.2398
1177.0,0.2291
1178.0,0.1696
1179.0,0.2418
1180.0,0.214
1181.0,0.2209
1182.0,0.1498
1183.0,0.218
1184.0,0.2034
1185.0,0.1955
1186.0,0.2343
1187.0,0.2224
1188.0,0.152
1189.0,0.207
1190.0,0.2291
1191.0,0.2161
1192.0,0.2325
1193.0,0.2223
1194.0,0.2294
1195.0,0.216
1196.0,0.2074
1197.0,0.23
1198.0,0.2098
1199.0,0.1764
1200.0,0.2194
1201.0,0.2109
1202.0,0.2102
1203.0,0.2082
1204.0,0.1811
1205.0,0.2157
1206.0,0.2393
1207.0,0.2094
1208.0,0.2067
1209.0,0.2111
1210.0,0.2204
1211.0,0.2091
1212.0,0.2056
1213.0,0.2309
1214.0,0.211
1215.0,0.2068
1216.0,0.2303
1217.0,0.2238
1218.0,0.2284
1219.0,0.2254
1220.0,0.2286
1221.0,0.2311
1222.0,0.2249
1223.0,0.2227
1224.0,0.221
1225.0,0.2296
1226.0,0.2314
1227.0,0.2125
1228.0,0.2328
1229.0,0.2314
1230.0,0.2273
1231.0,0.2344
1232.0,0.233
1233.0,0.2242
1234.0,0.2344
1235.0,0.2328
1236.0,0.2346
1237.0,0.2309
1238.0,0.2338
1239.0,0.2308
1240.0,0.2317
1241.0,0.2304
1242.0,0.2301
1243.0,0.2282
1244.0,0.2298
1245.0,0.2308
1246.0,0.2294
1247.0,0.2285
1248.0,0.2282
1249.0,0.229
1250.0,0.2276
1251.0,0.2246
1252.0,0.2248
1253.0,0.2227
1254.0,0.2202
1255.0,0.2244
1256.0,0.2176
1257.0,0.2163
1258.0,0.2208
1259.0,0.212
1260.0,0.2132
1261.0,0.2002
1262.0,0.1937
1263.0,0.194
1264.0,0.1778
1265.0,0.1928
1266.0,0.1848
1267.0,0.1885
1268.0,0.178
1269.0,0.1052
1270.0,0.1877
1271.0,0.1997
1272.0,0.2004
1273.0,0.1982
1274.0,0.199
1275.0,0.2021
1276.0,0.2042
1277.0,0.2058
1278.0,0.2102
1279.0,0.2082
1280.0,0.2057
1281.0,0.1964
1282.0,0.1896
1283.0,0.2041
1284.0,0.2089
1285.0,0.2103
1286.0,0.2133
1287.0,0.2097
1288.0,0.2098
1289.0,0.2025
1290.0,0.208
1291.0,0.211
1292.0,0.1971
1293.0,0.2066
1294.0,0.2051
1295.0,0.2038
1296.0,0.1938
1297.0,0.1827
1298.0,0.1979
1299.0,0.207
1300.0,0.1732
1301.0,0.1789
1302.0,0.1973
1303.0,0.1711
1304.0,0.1441
1305.0,0.1931
1306.0,0.193
1307.0,0.1479
1308.0,0.1717
1309.0,0.1913
1310.0,0.1449
1311.0,0.1642
1312.0,0.1594
1313.0,0.156
1314.0,0.139
1315.0,0.1367
1316.0,0.1613
1317.0,0.1525
1318.0,0.1666
1319.0,0.1278
1320.0,0.1244
1321.0,0.1457
1322.0,0.1467
1323.0,0.1084
1324.0,0.1255
1325.0,0.1588
1326.0,0.135
1327.0,0.1284
1328.0,0.1101
1329.0,0.08087
1330.0,0.1062
1331.0,0.06194
1332.0,0.06469
1333.0,0.09052
1334.0,0.07781
1335.0,0.1079
1336.0,0.08421
1337.0,0.07391
1338.0,0.07996
1339.0,0.07992
1340.0,0.07834
1341.0,0.07508
1342.0,0.079
1343.0,0.05075
1344.0,0.03059
1345.0,0.0442
1346.0,0.02028
1347.0,0.02033
1348.0,0.001104
1349.0,0.004169
1350.0,0.004486
1351.0,0.000928
1352.0,0.0002088
1353.0,8.903e-06
1354.0,3.472e-05
1355.0,1.906e-07
1356.0,4.302e-06
1357.0,6.577e-06
1358.0,2.293e-07
1359.0,2.153e-08
1360.0,9.451e-08
1361.0,5.721e-11
1362.0,1.222e-13
1363.0,1.157e-07
1364.0,4.772e-08
1365.0,3.054e-14
1366.0,5.468e-07
1367.0,2.386e-07
1368.0,1.233e-16
1369.0,1.762e-08
1370.0,7.678e-09
1371.0,3.772e-10
1372.0,1.318e-07
1373.0,3.237e-06
1374.0,1.724e-05
1375.0,3.093e-05
1376.0,3.149e-05
1377.0,1.402e-05
1378.0,0.0001448
1379.0,5.88e-06
1380.0,7.763e-06
1381.0,1.885e-07
1382.0,1.147e-07
1383.0,1.554e-09
1384.0,1.892e-08
1385.0,1.253e-07
1386.0,9.352e-08
1387.0,1.635e-05
1388.0,3.273e-07
1389.0,6.491e-05
1390.0,5.555e-05
1391.0,3.615e-05
1392.0,2.265e-06
1393.0,1.292e-05
1394.0,5.322e-06
1395.0,3.386e-08
1396.0,8.972e-11
1397.0,4.879e-06
1398.0,0.0001599
1399.0,0.000102
1400.0,3.285e-11
1401.0,1.713e-10
1402.0,0.0003462
1403.0,0.0004188
1404.0,0.0001254
1405.0,1.482e-08
1406.0,0.0003057
1407.0,2.859e-05
1408.0,0.0002532
1409.0,7.597e-05
1410.0,6.597e-05
1411.0,0.0003712
1412.0,0.0005287
1413.0,0.006378
1414.0,5.285e-05
1415.0,2.409e-05
1416.0,0.01167
1417.0,0.003153
1418.0,0.003504
1419.0,0.0005289
1420.0,0.002132
1421.0,0.002327
1422.0,0.01531
1423.0,0.002873
1424.0,0.005497
1425.0,0.007889
1426.0,0.009428
1427.0,0.0184
1428.0,0.00102
1429.0,0.01321
1430.0,0.02395
1431.0,0.02668
1432.0,0.0007961
1433.0,0.01647
1434.0,0.008135
1435.0,0.007313
1436.0,0.01537
1437.0,0.01181
