interpolation:linear
wavelength,value
280.0,1.477e-22
280.5,4.899e-21
281.0,2.636e-20
281.5,3.983e-19
282.0,5.688e-19
282.5,1.4e-18
283.0,4.419e-18
283.5,7.198e-18
284.0,1.19e-16
284.5,3.481e-16
285.0,5.836e-16
285.5,2.886e-15
286.0,1.163e-14
286.5,5.237e-14
287.0,1.505e-13
287.5,5.816e-13
288.0,2.068e-12
288.5,6.106e-12
289.0,1.603e-11
289.5,4.798e-11
290.0,1.327e-10
290.5,2.701e-10
291.0,5.792e-10
291.5,1.663e-09
292.0,3.341e-09
292.5,4.678e-09
293.0,1.001e-08
293.5,2.431e-08
294.0,3.799e-08
294.5,5.13e-08
295.0,8.681e-08
295.5,1.439e-07
296.0,2.766e-07
296.5,3.854e-07
297.0,5.196e-07
297.5,1.386e-06
298.0,2.171e-06
298.5,2.173e-06
299.0,4.763e-06
299.5,7.818e-06
300.0,8.53e-06
300.5,1.224e-05
301.0,2.178e-05
301.5,3.408e-05
302.0,2.882e-05
302.5,5.746e-05
303.0,0.0001055
303.5,0.0001358
304.0,0.0001317
304.5,0.0002144
305.0,0.0003687
305.5,0.0004583
306.0,0.0004579
306.5,0.0006018
307.0,0.001008
307.5,0.001509
308.0,0.001625
308.5,0.002036
309.0,0.002305
309.5,0.00303
310.0,0.003244
310.5,0.005421
311.0,0.007165
311.5,0.007072
312.0,0.007902
312.5,0.01034
313.0,0.01166
313.5,0.01092
314.0,0.0149
314.5,0.01483
315.0,0.01989
315.5,0.01574
316.0,0.01509
316.5,0.02347
317.0,0.0291
317.5,0.0296
318.0,0.02438
318.5,0.03361
319.0,0.04203
319.5,0.03148
320.0,0.03756
320.5,0.05228
321.0,0.05122
321.5,0.04958
322.0,0.04769
322.5,0.04171
323.0,0.04441
323.5,0.0585
324.0,0.06905
324.5,0.06817
325.0,0.05654
325.5,0.07676
326.0,0.09606
326.5,0.09973
327.0,0.0981
327.5,0.09317
328.0,0.07909
328.5,0.0881
329.0,0.1105
329.5,0.1272
330.0,0.1269
330.5,0.09802
331.0,0.09869
331.5,0.103
332.0,0.1157
332.5,0.1164
333.0,0.115
333.5,0.1012
334.0,0.1032
334.5,0.123
335.0,0.1178
335.5,0.1384
336.0,0.09579
336.5,0.1105
337.0,0.08951
337.5,0.1108
338.0,0.1111
338.5,0.1294
339.0,0.1284
339.5,0.1234
340.0,0.1439
340.5,0.1301
341.0,0.1278
341.5,0.1177
342.0,0.1409
342.5,0.132
343.0,0.1449
343.5,0.1363
344.0,0.1002
344.5,0.1017
345.0,0.1351
345.5,0.1382
346.0,0.1177
346.5,0.1334
347.0,0.1431
347.5,0.1157
348.0,0.1322
348.5,0.1324
349.0,0.123
349.5,0.1218
350.0,0.1508
350.5,0.1591
351.0,0.1421
351.5,0.1378
352.0,0.1483
352.5,0.116
353.0,0.1463
353.5,0.1567
354.0,0.1628
354.5,0.1652
355.0,0.1646
355.5,0.1489
356.0,0.1559
356.5,0.1332
357.0,0.1101
357.5,0.1349
358.0,0.107
358.5,0.09145
359.0,0.1279
359.5,0.163
360.0,0.1729
360.5,0.1383
361.0,0.1262
361.5,0.1456
362.0,0.1261
362.5,0.1747
363.0,0.1571
363.5,0.1448
364.0,0.1773
364.5,0.1516
365.0,0.1545
365.5,0.1941
366.0,0.2059
366.5,0.1937
367.0,0.1887
367.5,0.196
368.0,0.1716
368.5,0.1733
369.0,0.1873
369.5,0.1999
370.0,0.2132
370.5,0.1656
371.0,0.1771
371.5,0.2218
372.0,0.1473
372.5,0.1767
373.0,0.18
373.5,0.1172
374.0,0.1704
374.5,0.1413
375.0,0.1374
375.5,0.2053
376.0,0.1703
376.5,0.1766
377.0,0.1871
377.5,0.2191
378.0,0.2376
378.5,0.2247
379.0,0.1855
379.5,0.1695
380.0,0.1763
380.5,0.2138
381.0,0.2145
381.5,0.1702
382.0,0.1514
382.5,0.1292
383.0,0.1197
383.5,0.1154
384.0,0.1274
384.5,0.1876
385.0,0.1862
385.5,0.1736
386.0,0.1488
386.5,0.1957
387.0,0.1627
387.5,0.1829
388.0,0.169
388.5,0.1672
389.0,0.1806
389.5,0.2189
390.0,0.2199
390.5,0.2026
391.0,0.2386
391.5,0.2436
392.0,0.2053
392.5,0.184
393.0,0.1025
393.5,0.07456
394.0,0.1518
394.5,0.1932
395.0,0.2359
395.5,0.2398
396.0,0.2081
396.5,0.1218
397.0,0.09149
397.5,0.1862
398.0,0.2608
398.5,0.2698
399.0,0.2926
399.5,0.2918
400.0,0.3031
401.0,0.3051
402.0,0.3225
403.0,0.3069
404.0,0.3026
405.0,0.303
406.0,0.2987
407.0,0.2944
408.0,0.3061
409.0,0.3281
410.0,0.2871
411.0,0.3115
412.0,0.3353
413.0,0.3273
414.0,0.3318
415.0,0.3333
416.0,0.3398
417.0,0.3318
418.0,0.3261
419.0,0.3309
420.0,0.3298
421.0,0.3455
422.0,0.3288
423.0,0.3215
424.0,0.3404
425.0,0.3402
426.0,0.3322
427.0,0.3263
428.0,0.3182
429.0,0.3021
430.0,0.2648
431.0,0.2625
432.0,0.3395
433.0,0.3418
434.0,0.3176
435.0,0.3319
436.0,0.3747
437.0,0.3704
438.0,0.3378
439.0,0.3489
440.0,0.3605
441.0,0.3742
442.0,0.4016
443.0,0.3911
444.0,0.4002
445.0,0.3917
446.0,0.3748
447.0,0.406
448.0,0.412
449.0,0.4147
450.0,0.4268
451.0,0.443
452.0,0.4273
453.0,0.4024
454.0,0.4208
455.0,0.4235
456.0,0.4339
457.0,0.4413
458.0,0.4259
459.0,0.424
460.0,0.425
461.0,0.435
462.0,0.439
463.0,0.4361
464.0,0.4299
465.0,0.4255
466.0,0.4303
467.0,0.4222
468.0,0.4273
469.0,0.4297
470.0,0.4159
471.0,0.4157
472.0,0.438
473.0,0.4324
474.0,0.4325
475.0,0.4356
476.0,0.4217
477.0,0.4223
478.0,0.4343
479.0,0.4321
480.0,0.4334
481.0,0.4423
482.0,0.4455
483.0,0.4411
484.0,0.4327
485.0,0.4129
486.0,0.3616
487.0,0.3796
488.0,0.4165
489.0,0.4176
490.0,0.4398
491.0,0.4327
492.0,0.4087
493.0,0.4223
494.0,0.4268
495.0,0.4305
496.0,0.4332
497.0,0.4398
498.0,0.4192
499.0,0.4241
500.0,0.4113
501.0,0.4031
502.0,0.3963
503.0,0.4112
504.0,0.3975
505.0,0.4144
506.0,0.4277
507.0,0.4072
508.0,0.3956
509.0,0.4075
510.0,0.4061
511.0,0.4177
512.0,0.4226
513.0,0.4001
514.0,0.3976
515.0,0.3937
516.0,0.3926
517.0,0.3491
518.0,0.3669
519.0,0.3848
520.0,0.3986
521.0,0.4023
522.0,0.4023
523.0,0.3949
524.0,0.4084
525.0,0.4123
526.0,0.3935
527.0,0.3701
528.0,0.3909
529.0,0.4115
530.0,0.4053
531.0,0.4109
532.0,0.3967
533.0,0.3851
534.0,0.3967
535.0,0.4058
536.0,0.4099
537.0,0.3941
538.0,0.4013
539.0,0.3979
540.0,0.3813
541.0,0.3827
542.0,0.3942
543.0,0.3909
544.0,0.3968
545.0,0.3957
546.0,0.3967
547.0,0.3972
548.0,0.3928
549.0,0.3943
550.0,0.399
551.0,0.3943
552.0,0.3971
553.0,0.3898
554.0,0.3991
555.0,0.3996
556.0,0.3943
557.0,0.3817
558.0,0.3783
559.0,0.3706
560.0,0.3749
561.0,0.3792
562.0,0.3758
563.0,0.3853
564.0,0.3742
565.0,0.3705
566.0,0.3645
567.0,0.3707
568.0,0.3657
569.0,0.3537
570.0,0.354
571.0,0.3527
572.0,0.3589
573.0,0.3623
574.0,0.3606
575.0,0.3531
576.0,0.3499
577.0,0.3541
578.0,0.3497
579.0,0.3527
580.0,0.3619
581.0,0.3657
582.0,0.3743
583.0,0.3766
584.0,0.3808
585.0,0.372
586.0,0.3645
587.0,0.3714
588.0,0.3582
589.0,0.3093
590.0,0.3241
591.0,0.3478
592.0,0.3406
593.0,0.3493
594.0,0.3454
595.0,0.3337
596.0,0.3536
597.0,0.348
598.0,0.3492
599.0,0.3503
600.0,0.3525
601.0,0.3509
602.0,0.3488
603.0,0.3552
604.0,0.3615
605.0,0.36
606.0,0.3593
607.0,0.3636
608.0,0.3604
609.0,0.3616
610.0,0.3598
611.0,0.3622
612.0,0.3616
613.0,0.3574
614.0,0.3532
615.0,0.3615
616.0,0.3502
617.0,0.3498
618.0,0.3637
619.0,0.3602
620.0,0.3625
621.0,0.3623
622.0,0.3576
623.0,0.3518
624.0,0.3462
625.0,0.3454
626.0,0.3503
627.0,0.3526
628.0,0.3102
629.0,0.3376
630.0,0.3291
631.0,0.3431
632.0,0.3402
633.0,0.3533
634.0,0.352
635.0,0.3586
636.0,0.3551
637.0,0.3619
638.0,0.3669
639.0,0.3636
640.0,0.361
641.0,0.3615
642.0,0.3607
643.0,0.3657
644.0,0.3653
645.0,0.3655
646.0,0.3546
647.0,0.345
648.0,0.3457
649.0,0.3382
650.0,0.3468
651.0,0.363
652.0,0.3412
653.0,0.3587
654.0,0.3552
655.0,0.3385
656.0,0.3025
657.0,0.311
658.0,0.3508
659.0,0.3542
660.0,0.3562
661.0,0.359
662.0,0.3585
663.0,0.3519
664.0,0.358
665.0,0.3598
666.0,0.3607
667.0,0.3611
668.0,0.3621
669.0,0.3682
670.0,0.3669
671.0,0.3673
672.0,0.3644
673.0,0.3702
674.0,0.3692
675.0,0.3662
676.0,0.369
677.0,0.3656
678.0,0.3669
679.0,0.3613
680.0,0.3643
681.0,0.3621
682.0,0.3617
683.0,0.361
684.0,0.3592
685.0,0.3626
686.0,0.3601
687.0,0.1623
688.0,0.222
689.0,0.224
690.0,0.247
691.0,0.2746
692.0,0.297
693.0,0.2939
694.0,0.2936
695.0,0.3158
696.0,0.317
697.0,0.3478
698.0,0.3422
699.0,0.326
700.0,0.3217
701.0,0.3151
702.0,0.3205
703.0,0.322
704.0,0.3371
705.0,0.3375
706.0,0.339
707.0,0.3401
708.0,0.3406
709.0,0.3444
710.0,0.3426
711.0,0.3434
712.0,0.344
713.0,0.3389
714.0,0.3407
715.0,0.3266
716.0,0.326
717.0,0.2541
718.0,0.2313
719.0,0.2097
720.0,0.2166
721.0,0.255
722.0,0.3093
723.0,0.2794
724.0,0.241
725.0,0.2339
726.0,0.2456
727.0,0.2563
728.0,0.2321
729.0,0.2505
730.0,0.2626
731.0,0.2496
732.0,0.2775
733.0,0.3032
734.0,0.3136
735.0,0.3054
736.0,0.3045
737.0,0.3059
738.0,0.3185
739.0,0.3124
740.0,0.3229
741.0,0.321
742.0,0.3228
743.0,0.3315
744.0,0.3315
745.0,0.3324
746.0,0.3339
747.0,0.3348
748.0,0.3342
749.0,0.3305
750.0,0.3303
751.0,0.3271
752.0,0.3286
753.0,0.3304
754.0,0.3311
755.0,0.3292
756.0,0.3292
757.0,0.3296
758.0,0.3253
759.0,0.3135
760.0,0.01063
761.0,0.003577
762.0,0.08653
763.0,0.02287
764.0,0.04937
765.0,0.0863
766.0,0.1337
767.0,0.2041
768.0,0.2696
769.0,0.2836
770.0,0.303
771.0,0.3098
772.0,0.3119
773.0,0.3144
774.0,0.3132
775.0,0.311
776.0,0.315
777.0,0.3108
778.0,0.3089
779.0,0.3092
780.0,0.3076
781.0,0.3079
782.0,0.31
783.0,0.3047
784.0,0.3063
785.0,0.3037
786.0,0.3067
787.0,0.2974
788.0,0.2919
789.0,0.2917
790.0,0.2788
791.0,0.2864
792.0,0.2851
793.0,0.28
794.0,0.29
795.0,0.2934
796.0,0.2771
797.0,0.2768
798.0,0.2922
799.0,0.289
800.0,0.2823
801.0,0.2796
802.0,0.2787
803.0,0.2756
804.0,0.2768
805.0,0.2781
806.0,0.2897
807.0,0.2854
808.0,0.2859
809.0,0.2777
810.0,0.2738
811.0,0.2706
812.0,0.2575
813.0,0.2503
814.0,0.2073
815.0,0.207
816.0,0.1909
817.0,0.195
818.0,0.1848
819.0,0.2175
820.0,0.2011
821.0,0.252
822.0,0.242
823.0,0.14
824.0,0.2284
825.0,0.2478
826.0,0.2327
827.0,0.2513
828.0,0.1968
829.0,0.2325
830.0,0.2283
831.0,0.229
832.0,0.2191
833.0,0.2404
834.0,0.2271
835.0,0.2615
836.0,0.2419
837.0,0.2624
838.0,0.2499
839.0,0.2588
840.0,0.2656
841.0,0.26
842.0,0.2634
843.0,0.2662
844.0,0.261
845.0,0.2719
846.0,0.2712
847.0,0.267
848.0,0.2641
849.0,0.2566
850.0,0.2459
851.0,0.259
852.0,0.2579
853.0,0.2493
854.0,0.2143
855.0,0.2368
856.0,0.2582
857.0,0.2648
858.0,0.2625
859.0,0.2633
860.0,0.2642
861.0,0.2626
862.0,0.267
863.0,0.2733
864.0,0.2597
865.0,0.2575
866.0,0.2316
867.0,0.2417
868.0,0.2631
869.0,0.2577
870.0,0.2651
871.0,0.2614
872.0,0.2606
873.0,0.2601
874.0,0.257
875.0,0.2518
876.0,0.2543
877.0,0.257
878.0,0.2595
879.0,0.2556
880.0,0.2501
881.0,0.2457
882.0,0.2508
883.0,0.2523
884.0,0.2508
885.0,0.2527
886.0,0.2385
887.0,0.2429
888.0,0.2455
889.0,0.2502
890.0,0.2456
891.0,0.2464
892.0,0.2361
893.0,0.2258
894.0,0.2111
895.0,0.1914
896.0,0.1783
897.0,0.1442
898.0,0.1615
899.0,0.1132
900.0,0.1713
901.0,0.1185
902.0,0.1519
903.0,0.1487
904.0,0.2093
905.0,0.1994
906.0,0.184
907.0,0.1346
908.0,0.1404
909.0,0.1575
910.0,0.1287
911.0,0.1456
912.0,0.1524
913.0,0.13
914.0,0.1312
915.0,0.141
916.0,0.1182
917.0,0.1602
918.0,0.1202
919.0,0.167
920.0,0.1773
921.0,0.1835
922.0,0.1562
923.0,0.1783
924.0,0.1576
925.0,0.1548
926.0,0.1549
927.0,0.1811
928.0,0.1107
929.0,0.09545
930.0,0.06619
931.0,0.06255
932.0,0.03696
933.0,0.02689
934.0,0.009032
935.0,0.02989
936.0,0.01461
937.0,0.01471
938.0,0.01944
939.0,0.06036
940.0,0.07907
941.0,0.0518
942.0,0.06377
943.0,0.03621
944.0,0.04405
945.0,0.05517
946.0,0.02073
947.0,0.05334
948.0,0.03854
949.0,0.07927
950.0,0.01254
951.0,0.07879
952.0,0.0332
953.0,0.04888
954.0,0.067
955.0,0.05025
956.0,0.0569
957.0,0.03287
958.0,0.08807
959.0,0.06051
960.0,0.06789
961.0,0.08376
962.0,0.079
963.0,0.09787
964.0,0.08778
965.0,0.09704
966.0,0.09652
967.0,0.09497
968.0,0.1557
969.0,0.1579
970.0,0.1428
971.0,0.1761
972.0,0.1654
973.0,0.1314
974.0,0.1239
975.0,0.1324
976.0,0.1185
977.0,0.1502
978.0,0.1363
979.0,0.1461
980.0,0.1358
981.0,0.1753
982.0,0.1629
983.0,0.1539
984.0,0.1868
985.0,0.1619
986.0,0.194
987.0,0.1861
988.0,0.1861
989.0,0.196
990.0,0.1848
991.0,0.1961
992.0,0.1977
993.0,0.1891
994.0,0.1981
995.0,0.1986
996.0,0.197
997.0,0.1976
998.0,0.1964
999.0,0.1959
1000.0,0.1934
1001.0,0.1971
1002.0,0.1871
1003.0,0.1933
1004.0,0.1874
1005.0,0.1821
1006.0,0.1885
1007.0,0.1929
1008.0,0.191
1009.0,0.1891
1010.0,0.1879
1011.0,0.192
1012.0,0.1895
1013.0,0.1918
1014.0,0.1904
1015.0,0.1891
1016.0,0.1881
1017.0,0.1884
1018.0,0.1883
1019.0,0.1825
1020.0,0.187
1021.0,0.1871
1022.0,0.185
1023.0,0.1868
1024.0,0.1826
1025.0,0.1873
1026.0,0.186
1027.0,0.1857
1028.0,0.1852
1029.0,0.1828
1030.0,0.1847
1031.0,0.1837
1032.0,0.1833
1033.0,0.1806
1034.0,0.1806
1035.0,0.1812
1036.0,0.1819
1037.0,0.179
1038.0,0.1798
1039.0,0.1795
1040.0,0.1788
1041.0,0.1793
1042.0,0.1781
1043.0,0.1774
1044.0,0.1779
1045.0,0.1754
1046.0,0.1733
1047.0,0.1748
1048.0,0.1756
1049.0,0.1748
1050.0,0.1739
1051.0,0.1734
1052.0,0.1725
1053.0,0.171
1054.0,0.1711
1055.0,0.1709
1056.0,0.17
1057.0,0.1692
1058.0,0.1648
1059.0,0.1647
1060.0,0.1643
1061.0,0.164
1062.0,0.1646
1063.0,0.1627
1064.0,0.1647
1065.0,0.1629
1066.0,0.1602
1067.0,0.1621
1068.0,0.1581
1069.0,0.1536
1070.0,0.1584
1071.0,0.1623
1072.0,0.1593
1073.0,0.1572
1074.0,0.1631
1075.0,0.1507
1076.0,0.1627
1077.0,0.1574
1078.0,0.1533
1079.0,0.1609
1080.0,0.1551
1081.0,0.1478
1082.0,0.1539
1083.0,0.1554
1084.0,0.1467
1085.0,0.1557
1086.0,0.1366
1087.0,0.1446
1088.0,0.1546
1089.0,0.1455
1090.0,0.1404
1091.0,0.153
1092.0,0.1533
1093.0,0.1194
1094.0,0.1389
1095.0,0.1247
1096.0,0.1166
1097.0,0.1499
1098.0,0.1131
1099.0,0.1195
1100.0,0.1072
1101.0,0.1101
1102.0,0.1022
1103.0,0.09918
1104.0,0.09964
1105.0,0.1158
1106.0,0.07287
1107.0,0.1071
1108.0,0.08148
1109.0,0.083
1110.0,0.104
1111.0,0.05815
1112.0,0.08292
1113.0,0.04144
1114.0,0.04664
1115.0,0.03768
1116.0,0.02467
1117.0,0.00503
1118.0,0.02793
1119.0,0.009869
1120.0,0.0118
1121.0,0.01751
1122.0,0.004626
1123.0,0.0108
1124.0,0.009059
1125.0,0.01281
1126.0,0.002062
1127.0,0.01469
1128.0,0.005829
1129.0,0.006416
1130.0,0.003854
1131.0,0.03738
1132.0,0.0273
1133.0,0.01239
1134.0,0.001546
1135.0,0.0006841
1136.0,0.008845
1137.0,0.03472
1138.0,0.02341
1139.0,0.04723
1140.0,0.03463
1141.0,0.02242
1142.0,0.02785
1143.0,0.0452
1144.0,0.01077
1145.0,0.01188
1146.0,0.01278
1147.0,0.002254
1148.0,0.03816
1149.0,0.02717
1150.0,0.01277
1151.0,0.02325
1152.0,0.03256
1153.0,0.03503
1154.0,0.01202
1155.0,0.04914
1156.0,0.04161
1157.0,0.05259
1158.0,0.05178
1159.0,0.05843
1160.0,0.04809
1161.0,0.06678
1162.0,0.06623
1163.0,0.1042
1164.0,0.08419
1165.0,0.07421
1166.0,0.07816
1167.0,0.08759
1168.0,0.08747
1169.0,0.09082
1170.0,0.1034
1171.0,0.1008
1172.0,0.1058
1173.0,0.1033
1174.0,0.06369
1175.0,0.1039
1176.0,0.1209
1177.0,0.1114
1178.0,0.07587
1179.0,0.1218
1180.0,0.1016
1181.0,0.1051
1182.0,0.0635
1183.0,0.1049
1184.0,0.09516
1185.0,0.08895
1186.0,0.1151
1187.0,0.1065
1188.0,0.06279
1189.0,0.09881
1190.0,0.1133
1191.0,0.1012
1192.0,0.1155
1193.0,0.1085
1194.0,0.1133
1195.0,0.1028
1196.0,0.09669
1197.0,0.115
1198.0,0.1035
1199.0,0.07927
1200.0,0.1071
1201.0,0.09999
1202.0,0.1024
1203.0,0.09957
1204.0,0.08362
1205.0,0.1071
1206.0,0.1226
1207.0,0.1007
1208.0,0.1018
1209.0,0.1043
1210.0,0.1107
1211.0,0.1024
1212.0,0.09602
1213.0,0.116
1214.0,0.1002
1215.0,0.09785
1216.0,0.1162
1217.0,0.1115
1218.0,0.1151
1219.0,0.1126
1220.0,0.1154
1221.0,0.1177
1222.0,0.114
1223.0,0.1121
1224.0,0.1095
1225.0,0.1166
1226.0,0.1188
1227.0,0.1048
1228.0,0.1204
1229.0,0.1188
1230.0,0.1159
1231.0,0.1223
1232.0,0.1215
1233.0,0.1131
1234.0,0.1231
1235.0,0.1217
1236.0,0.1231
1237.0,0.1198
1238.0,0.1227
1239.0,0.1211
1240.0,0.1218
1241.0,0.1201
1242.0,0.1208
1243.0,0.1199
1244.0,0.1204
1245.0,0.1211
1246.0,0.1205
1247.0,0.1197
1248.0,0.1191
1249.0,0.1199
1250.0,0.1189
1251.0,0.1166
1252.0,0.1175
1253.0,0.115
1254.0,0.1127
1255.0,0.117
1256.0,0.1108
1257.0,0.1096
1258.0,0.114
1259.0,0.1054
1260.0,0.1065
1261.0,0.0952
1262.0,0.08964
1263.0,0.08967
1264.0,0.07685
1265.0,0.08919
1266.0,0.08227
1267.0,0.08618
1268.0,0.07786
1269.0,0.02896
1270.0,0.0849
1271.0,0.09559
1272.0,0.09644
1273.0,0.09481
1274.0,0.09595
1275.0,0.09829
1276.0,0.1003
1277.0,0.1024
1278.0,0.1065
1279.0,0.1054
1280.0,0.1042
1281.0,0.1004
1282.0,0.09847
1283.0,0.1057
1284.0,0.1079
1285.0,0.1089
1286.0,0.1113
1287.0,0.1079
1288.0,0.1084
1289.0,0.1016
1290.0,0.1076
1291.0,0.1098
1292.0,0.09712
1293.0,0.1062
1294.0,0.1053
1295.0,0.1026
1296.0,0.09447
1297.0,0.08693
1298.0,0.09906
1299.0,0.1069
1300.0,0.08163
1301.0,0.08556
1302.0,0.09894
1303.0,0.08135
1304.0,0.06169
1305.0,0.0965
1306.0,0.0955
1307.0,0.06584
1308.0,0.08284
1309.0,0.09328
1310.0,0.06379
1311.0,0.07755
1312.0,0.07451
1313.0,0.07096
1314.0,0.06065
1315.0,0.05826
1316.0,0.07481
1317.0,0.06966
1318.0,0.07913
1319.0,0.05272
1320.0,0.05272
1321.0,0.06474
1322.0,0.06361
1323.0,0.04074
1324.0,0.05213
1325.0,0.07256
1326.0,0.05784
1327.0,0.05383
1328.0,0.04384
1329.0,0.02703
1330.0,0.03842
1331.0,0.01739
1332.0,0.01944
1333.0,0.02812
1334.0,0.02794
1335.0,0.03982
1336.0,0.02795
1337.0,0.02405
1338.0,0.02555
1339.0,0.02615
1340.0,0.0272
1341.0,0.02233
1342.0,0.02407
1343.0,0.01064
1344.0,0.006917
1345.0,0.009413
1346.0,0.002436
1347.0,0.002148
1348.0,4.005e-05
1349.0,0.0001854
1350.0,0.0002285
1351.0,1.84e-05
1352.0,1.583e-06
1353.0,5.898e-08
1354.0,2.677e-07
1355.0,1.398e-09
1356.0,2.865e-08
1357.0,4.326e-08
1358.0,1.647e-09
1359.0,2.025e-10
1360.0,7.378e-10
1361.0,8.172e-13
1362.0,2.235e-15
1363.0,9.842e-10
1364.0,4.07e-10
1365.0,7.804e-16
1366.0,4.274e-09
1367.0,1.76e-09
1368.0,6.026e-18
1369.0,1.5e-10
1370.0,7.367e-11
1371.0,4.173e-12
1372.0,9.569e-10
1373.0,2.033e-08
1374.0,1.079e-07
1375.0,1.818e-07
1376.0,2.403e-07
1377.0,1.031e-07
1378.0,1.005e-06
1379.0,4.492e-08
1380.0,4.897e-08
1381.0,1.224e-09
1382.0,8.349e-10
1383.0,1.244e-11
1384.0,1.622e-10
1385.0,8.135e-10
1386.0,7.312e-10
1387.0,9.418e-08
1388.0,2.075e-09
1389.0,4.053e-07
1390.0,3.289e-07
1391.0,2.203e-07
1392.0,1.465e-08
1393.0,8.955e-08
1394.0,3.158e-08
1395.0,2.262e-10
1396.0,1.064e-12
1397.0,3.124e-08
1398.0,1.001e-06
1399.0,6.646e-07
1400.0,4.548e-13
1401.0,1.887e-12
1402.0,6.374e-06
1403.0,5.646e-06
1404.0,1.421e-06
1405.0,1.053e-10
1406.0,2.369e-06
1407.0,4.365e-07
1408.0,2.109e-06
1409.0,4.554e-07
1410.0,6.03e-07
1411.0,5.341e-06
1412.0,1.073e-05
1413.0,0.0002748
1414.0,5.31e-07
1415.0,2.023e-07
1416.0,0.00114
1417.0,0.0001893
1418.0,0.0001344
1419.0,1.822e-05
1420.0,8.06e-05
1421.0,0.0001279
1422.0,0.001479
1423.0,0.0002607
1424.0,0.0005986
1425.0,0.0006775
1426.0,0.001145
