interpolation:linear
wavelength,value
280.0,5.938e-22
280.5,1.9310000000000002e-20
281.0,1.031e-19
281.5,4.949e-19
282.0,8.204e-19
282.5,2.029e-18
283.0,6.394e-18
283.5,1.039e-17
284.0,1.693e-16
284.5,4.914e-16
285.0,8.781e-16
285.5,4.311e-15
286.0,1.73e-14
286.5,7.726e-14
287.0,2.205e-13
287.5,8.446e-13
288.0,2.764e-12
288.5,8.471e-12
289.0,2.273e-11
289.5,6.896e-11
290.0,1.919e-10
290.5,3.917e-10
291.0,8.415e-10
291.5,2.417e-09
292.0,5.509e-09
292.5,7.687e-09
293.0,1.638e-08
293.5,3.954e-08
294.0,6.153e-08
294.5,8.212e-08
295.0,1.385e-07
295.5,2.606e-07
296.0,5.044e-07
296.5,7.22e-07
297.0,9.983e-07
297.5,2.785e-06
298.0,4.567e-06
298.5,4.758e-06
299.0,1.09e-05
299.5,1.958e-05
300.0,2.264e-05
300.5,3.469e-05
301.0,6.957e-05
301.5,0.0001234
302.0,0.0001123
302.5,0.0002266
303.0,0.0004262
303.5,0.0005551
304.0,0.0005368
304.5,0.0008639
305.0,0.001457
305.5,0.001787
306.0,0.001776
306.5,0.002311
307.0,0.003781
307.5,0.005528
308.0,0.00593
308.5,0.007343
309.0,0.007491
309.5,0.009121
310.0,0.00943
310.5,0.01549
311.0,0.01991
311.5,0.01942
312.0,0.02041
312.5,0.02567
313.0,0.02833
313.5,0.02708
314.0,0.03523
314.5,0.0329
315.0,0.04364
315.5,0.03562
316.0,0.03244
316.5,0.04829
317.0,0.05992
317.5,0.06174
318.0,0.04937
318.5,0.06422
319.0,0.07802
319.5,0.06127
320.0,0.07364
320.5,0.09661
321.0,0.08974
321.5,0.08643
322.0,0.08808
322.5,0.07682
323.0,0.0788
323.5,0.09943
324.0,0.1166
324.5,0.1171
325.0,0.09975
325.5,0.1314
326.0,0.1616
326.5,0.1643
327.0,0.1629
327.5,0.1563
328.0,0.1365
328.5,0.147
329.0,0.1794
329.5,0.2049
330.0,0.2058
330.5,0.1624
331.0,0.1647
331.5,0.1693
332.0,0.1858
332.5,0.1852
333.0,0.184
333.5,0.1646
334.0,0.1684
334.5,0.197
335.0,0.1866
335.5,0.2182
336.0,0.1511
336.5,0.1761
337.0,0.1438
337.5,0.1785
338.0,0.1763
338.5,0.204
339.0,0.2021
339.5,0.1945
340.0,0.2282
340.5,0.206
341.0,0.2012
341.5,0.185
342.0,0.2213
342.5,0.2072
343.0,0.2278
343.5,0.2145
344.0,0.1584
344.5,0.1601
345.0,0.2123
345.5,0.217
346.0,0.1846
346.5,0.2092
347.0,0.2246
347.5,0.1816
348.0,0.2073
348.5,0.2074
349.0,0.1926
349.5,0.1908
350.0,0.2361
350.5,0.2492
351.0,0.2226
351.5,0.2162
352.0,0.2325
352.5,0.1816
353.0,0.229
353.5,0.2451
354.0,0.2545
354.5,0.2582
355.0,0.2574
355.5,0.2328
356.0,0.2437
356.5,0.2082
357.0,0.172
357.5,0.2107
358.0,0.1671
358.5,0.1428
359.0,0.1998
359.5,0.2547
360.0,0.2701
360.5,0.216
361.0,0.1971
361.5,0.2272
362.0,0.1967
362.5,0.2724
363.0,0.2449
363.5,0.2257
364.0,0.2763
364.5,0.2363
365.0,0.2408
365.5,0.3023
366.0,0.3206
366.5,0.3014
367.0,0.2937
367.5,0.305
368.0,0.267
368.5,0.2696
369.0,0.2914
369.5,0.3107
370.0,0.3315
370.5,0.2574
371.0,0.2752
371.5,0.3445
372.0,0.2287
372.5,0.2744
373.0,0.2794
373.5,0.1819
374.0,0.2644
374.5,0.2191
375.0,0.2131
375.5,0.3183
376.0,0.264
376.5,0.2737
377.0,0.29
377.5,0.3394
378.0,0.3681
378.5,0.348
379.0,0.2873
379.5,0.2625
380.0,0.2731
380.5,0.331
381.0,0.3319
381.5,0.2633
382.0,0.234
382.5,0.1997
383.0,0.185
383.5,0.1783
384.0,0.1968
384.5,0.2896
385.0,0.2874
385.5,0.2678
386.0,0.2295
386.5,0.3017
387.0,0.2508
387.5,0.2819
388.0,0.2604
388.5,0.2576
389.0,0.2782
389.5,0.3371
390.0,0.3385
390.5,0.3117
391.0,0.3671
391.5,0.3746
392.0,0.3157
392.5,0.2828
393.0,0.1575
393.5,0.1145
394.0,0.2332
394.5,0.2967
395.0,0.3622
395.5,0.368
396.0,0.3192
396.5,0.1868
397.0,0.1402
397.5,0.2854
398.0,0.3997
398.5,0.4133
399.0,0.448
399.5,0.4467
400.0,0.464
401.0,0.469
402.0,0.4954
403.0,0.4712
404.0,0.4643
405.0,0.4646
406.0,0.4576
407.0,0.4508
408.0,0.4686
409.0,0.502
410.0,0.4391
411.0,0.4761
412.0,0.512
413.0,0.4996
414.0,0.5062
415.0,0.5081
416.0,0.5176
417.0,0.5052
418.0,0.4962
419.0,0.5032
420.0,0.5013
421.0,0.5249
422.0,0.4993
423.0,0.4881
424.0,0.5165
425.0,0.516
426.0,0.5033
427.0,0.4942
428.0,0.4817
429.0,0.4568
430.0,0.4001
431.0,0.3967
432.0,0.5127
433.0,0.5159
434.0,0.4792
435.0,0.5006
436.0,0.5647
437.0,0.5578
438.0,0.5083
439.0,0.5254
440.0,0.5426
441.0,0.5628
442.0,0.6039
443.0,0.5881
444.0,0.6014
445.0,0.5885
446.0,0.5623
447.0,0.6086
448.0,0.6179
449.0,0.6212
450.0,0.639
451.0,0.663
452.0,0.6391
453.0,0.6015
454.0,0.6285
455.0,0.6325
456.0,0.6479
457.0,0.6588
458.0,0.6361
459.0,0.633
460.0,0.6347
461.0,0.6495
462.0,0.655
463.0,0.6506
464.0,0.6406
465.0,0.6332
466.0,0.6399
467.0,0.6281
468.0,0.6355
469.0,0.639
470.0,0.6186
471.0,0.618
472.0,0.6512
473.0,0.6428
474.0,0.6433
475.0,0.6484
476.0,0.6284
477.0,0.6297
478.0,0.6474
479.0,0.6439
480.0,0.6455
481.0,0.6582
482.0,0.6623
483.0,0.655
484.0,0.642
485.0,0.6121
486.0,0.5356
487.0,0.5617
488.0,0.6163
489.0,0.618
490.0,0.6505
491.0,0.6396
492.0,0.6041
493.0,0.624
494.0,0.6304
495.0,0.6358
496.0,0.6398
497.0,0.6497
498.0,0.6192
499.0,0.6269
500.0,0.6083
501.0,0.5968
502.0,0.5876
503.0,0.6107
504.0,0.5928
505.0,0.616
506.0,0.6358
507.0,0.6052
508.0,0.5871
509.0,0.6041
510.0,0.6014
511.0,0.6181
512.0,0.6251
513.0,0.5917
514.0,0.5879
515.0,0.5821
516.0,0.5806
517.0,0.516
518.0,0.5424
519.0,0.5689
520.0,0.5895
521.0,0.5951
522.0,0.5954
523.0,0.5845
524.0,0.605
525.0,0.6115
526.0,0.584
527.0,0.5498
528.0,0.5811
529.0,0.6121
530.0,0.6031
531.0,0.6119
532.0,0.5907
533.0,0.5734
534.0,0.5906
535.0,0.6038
536.0,0.6096
537.0,0.5858
538.0,0.5963
539.0,0.5913
540.0,0.5668
541.0,0.5698
542.0,0.5873
543.0,0.5817
544.0,0.5912
545.0,0.5895
546.0,0.5915
547.0,0.5917
548.0,0.5849
549.0,0.5869
550.0,0.5939
551.0,0.5868
552.0,0.5909
553.0,0.5802
554.0,0.594
555.0,0.595
556.0,0.5872
557.0,0.5687
558.0,0.5641
559.0,0.5531
560.0,0.5598
561.0,0.5667
562.0,0.5621
563.0,0.5769
564.0,0.5608
565.0,0.5556
566.0,0.5471
567.0,0.557
568.0,0.5507
569.0,0.5352
570.0,0.5354
571.0,0.5328
572.0,0.5439
573.0,0.5494
574.0,0.5473
575.0,0.5365
576.0,0.5317
577.0,0.5377
578.0,0.5304
579.0,0.5336
580.0,0.5456
581.0,0.5497
582.0,0.5613
583.0,0.5637
584.0,0.5692
585.0,0.5557
586.0,0.5443
587.0,0.5555
588.0,0.5389
589.0,0.4716
590.0,0.4936
591.0,0.5259
592.0,0.5172
593.0,0.5275
594.0,0.5227
595.0,0.5077
596.0,0.5325
597.0,0.5255
598.0,0.5257
599.0,0.5268
600.0,0.5288
601.0,0.5254
602.0,0.522
603.0,0.5311
604.0,0.5401
605.0,0.5377
606.0,0.536
607.0,0.5419
608.0,0.5364
609.0,0.5378
610.0,0.5345
611.0,0.5376
612.0,0.5363
613.0,0.5299
614.0,0.5231
615.0,0.5349
616.0,0.5177
617.0,0.5169
618.0,0.5371
619.0,0.5318
620.0,0.5351
621.0,0.5352
622.0,0.5286
623.0,0.5202
624.0,0.5116
625.0,0.5105
626.0,0.5179
627.0,0.5226
628.0,0.4745
629.0,0.5055
630.0,0.4934
631.0,0.5092
632.0,0.5039
633.0,0.5212
634.0,0.5176
635.0,0.5265
636.0,0.5204
637.0,0.5296
638.0,0.5357
639.0,0.5303
640.0,0.5258
641.0,0.5259
642.0,0.5241
643.0,0.5312
644.0,0.5301
645.0,0.5306
646.0,0.5166
647.0,0.5067
648.0,0.5072
649.0,0.4969
650.0,0.5042
651.0,0.5269
652.0,0.5
653.0,0.5202
654.0,0.5148
655.0,0.4931
656.0,0.4388
657.0,0.4509
658.0,0.5069
659.0,0.5111
660.0,0.5136
661.0,0.5173
662.0,0.5175
663.0,0.5076
664.0,0.515
665.0,0.5165
666.0,0.5173
667.0,0.5174
668.0,0.5182
669.0,0.5265
670.0,0.5245
671.0,0.5246
672.0,0.5203
673.0,0.5284
674.0,0.5267
675.0,0.5221
676.0,0.5259
677.0,0.5209
678.0,0.5225
679.0,0.5143
680.0,0.5185
681.0,0.5151
682.0,0.5145
683.0,0.5136
684.0,0.511
685.0,0.5156
686.0,0.5123
687.0,0.2832
688.0,0.3573
689.0,0.3594
690.0,0.3861
691.0,0.4169
692.0,0.4408
693.0,0.4365
694.0,0.4338
695.0,0.4589
696.0,0.4599
697.0,0.4965
698.0,0.4886
699.0,0.4712
700.0,0.4652
701.0,0.4584
702.0,0.4638
703.0,0.4651
704.0,0.4834
705.0,0.4841
706.0,0.485
707.0,0.4859
708.0,0.4868
709.0,0.4898
710.0,0.4886
711.0,0.4888
712.0,0.4884
713.0,0.4824
714.0,0.4846
715.0,0.4669
716.0,0.4666
717.0,0.3838
718.0,0.3503
719.0,0.3192
720.0,0.3324
721.0,0.379
722.0,0.4467
723.0,0.4093
724.0,0.3608
725.0,0.3524
726.0,0.3697
727.0,0.3802
728.0,0.3505
729.0,0.371
730.0,0.3914
731.0,0.3728
732.0,0.4065
733.0,0.4375
734.0,0.4502
735.0,0.4397
736.0,0.4389
737.0,0.4406
738.0,0.4529
739.0,0.444
740.0,0.4572
741.0,0.4536
742.0,0.4551
743.0,0.467
744.0,0.4663
745.0,0.4669
746.0,0.469
747.0,0.4702
748.0,0.4692
749.0,0.4639
750.0,0.4637
751.0,0.459
752.0,0.4611
753.0,0.4635
754.0,0.4645
755.0,0.4619
756.0,0.4618
757.0,0.4624
758.0,0.4565
759.0,0.4438
760.0,0.03337
761.0,0.0133
762.0,0.1694
763.0,0.06147
764.0,0.1112
765.0,0.1692
766.0,0.2322
767.0,0.3209
768.0,0.3946
769.0,0.4086
770.0,0.4291
771.0,0.4355
772.0,0.4373
773.0,0.4406
774.0,0.4387
775.0,0.4355
776.0,0.4409
777.0,0.4351
778.0,0.4324
779.0,0.4328
780.0,0.4304
781.0,0.4309
782.0,0.4337
783.0,0.4262
784.0,0.4284
785.0,0.4249
786.0,0.4294
787.0,0.4193
788.0,0.4128
789.0,0.4125
790.0,0.3979
791.0,0.4049
792.0,0.4025
793.0,0.3956
794.0,0.4061
795.0,0.4119
796.0,0.3942
797.0,0.3944
798.0,0.4109
799.0,0.4073
800.0,0.399
801.0,0.3966
802.0,0.3954
803.0,0.3918
804.0,0.3929
805.0,0.3931
806.0,0.4067
807.0,0.4012
808.0,0.4018
809.0,0.3924
810.0,0.3879
811.0,0.3857
812.0,0.3713
813.0,0.3619
814.0,0.3084
815.0,0.3071
816.0,0.2846
817.0,0.2907
818.0,0.2775
819.0,0.3188
820.0,0.2971
821.0,0.3598
822.0,0.3475
823.0,0.2174
824.0,0.3327
825.0,0.3534
826.0,0.336
827.0,0.3587
828.0,0.2923
829.0,0.3348
830.0,0.3294
831.0,0.3307
832.0,0.3184
833.0,0.3443
834.0,0.3284
835.0,0.3693
836.0,0.3478
837.0,0.3706
838.0,0.3562
839.0,0.3656
840.0,0.3743
841.0,0.3678
842.0,0.3705
843.0,0.3723
844.0,0.3661
845.0,0.3799
846.0,0.3785
847.0,0.3721
848.0,0.3689
849.0,0.3584
850.0,0.3435
851.0,0.3627
852.0,0.3606
853.0,0.3478
854.0,0.2997
855.0,0.3302
856.0,0.3604
857.0,0.3691
858.0,0.3661
859.0,0.3668
860.0,0.3677
861.0,0.3657
862.0,0.3715
863.0,0.3803
864.0,0.3614
865.0,0.3583
866.0,0.3222
867.0,0.3362
868.0,0.3659
869.0,0.3584
870.0,0.3686
871.0,0.3636
872.0,0.3623
873.0,0.3616
874.0,0.3573
875.0,0.3501
876.0,0.3536
877.0,0.3573
878.0,0.361
879.0,0.3555
880.0,0.3479
881.0,0.3422
882.0,0.3494
883.0,0.351
884.0,0.3492
885.0,0.3518
886.0,0.3337
887.0,0.3385
888.0,0.3428
889.0,0.348
890.0,0.3434
891.0,0.3437
892.0,0.3315
893.0,0.3189
894.0,0.3028
895.0,0.2801
896.0,0.2622
897.0,0.2181
898.0,0.2416
899.0,0.1757
900.0,0.252
901.0,0.1841
902.0,0.227
903.0,0.2254
904.0,0.3005
905.0,0.2879
906.0,0.2675
907.0,0.206
908.0,0.2122
909.0,0.2345
910.0,0.1985
911.0,0.2179
912.0,0.2288
913.0,0.201
914.0,0.2011
915.0,0.2175
916.0,0.1827
917.0,0.2406
918.0,0.1866
919.0,0.2479
920.0,0.2566
921.0,0.2668
922.0,0.232
923.0,0.2584
924.0,0.2363
925.0,0.2315
926.0,0.2331
927.0,0.2674
928.0,0.1778
929.0,0.1575
930.0,0.1162
931.0,0.1106
932.0,0.07205
933.0,0.0552
934.0,0.02358
935.0,0.05917
936.0,0.03248
937.0,0.03266
938.0,0.04176
939.0,0.1069
940.0,0.1343
941.0,0.09415
942.0,0.1129
943.0,0.0688
944.0,0.0779
945.0,0.09862
946.0,0.04298
947.0,0.09709
948.0,0.07057
949.0,0.1372
950.0,0.02818
951.0,0.1362
952.0,0.06403
953.0,0.08874
954.0,0.1157
955.0,0.09048
956.0,0.09397
957.0,0.06352
958.0,0.1414
959.0,0.1039
960.0,0.1165
961.0,0.1374
962.0,0.1295
963.0,0.1552
964.0,0.1405
965.0,0.1547
966.0,0.1537
967.0,0.1523
968.0,0.2269
969.0,0.2339
970.0,0.2126
971.0,0.2534
972.0,0.2402
973.0,0.199
974.0,0.1879
975.0,0.1986
976.0,0.1829
977.0,0.2197
978.0,0.2039
979.0,0.2165
980.0,0.202
981.0,0.2522
982.0,0.2374
983.0,0.2258
984.0,0.2644
985.0,0.2364
986.0,0.2719
987.0,0.2632
988.0,0.263
989.0,0.2729
990.0,0.2613
991.0,0.2734
992.0,0.2753
993.0,0.2659
994.0,0.2755
995.0,0.2757
996.0,0.2739
997.0,0.2746
998.0,0.2731
999.0,0.2723
1000.0,0.2696
1001.0,0.2738
1002.0,0.2631
1003.0,0.2688
1004.0,0.2614
1005.0,0.2529
1006.0,0.2622
1007.0,0.2681
1008.0,0.2661
1009.0,0.264
1010.0,0.2626
1011.0,0.2668
1012.0,0.2639
1013.0,0.2664
1014.0,0.2645
1015.0,0.2626
1016.0,0.2614
1017.0,0.2619
1018.0,0.2613
1019.0,0.2546
1020.0,0.2598
1021.0,0.2596
1022.0,0.2572
1023.0,0.2598
1024.0,0.2552
1025.0,0.2601
1026.0,0.2586
1027.0,0.2581
1028.0,0.2574
1029.0,0.2543
1030.0,0.2565
1031.0,0.2553
1032.0,0.2547
1033.0,0.2508
1034.0,0.2509
1035.0,0.2516
1036.0,0.2528
1037.0,0.2488
1038.0,0.2498
1039.0,0.2496
1040.0,0.2485
1041.0,0.2494
1042.0,0.2477
1043.0,0.2468
1044.0,0.2476
1045.0,0.2442
1046.0,0.2414
1047.0,0.2435
1048.0,0.2447
1049.0,0.2437
1050.0,0.2425
1051.0,0.242
1052.0,0.2409
1053.0,0.2389
1054.0,0.2392
1055.0,0.2392
1056.0,0.2381
1057.0,0.2372
1058.0,0.2312
1059.0,0.2313
1060.0,0.2308
1061.0,0.2304
1062.0,0.2314
1063.0,0.229
1064.0,0.2318
1065.0,0.2296
1066.0,0.2255
1067.0,0.2283
1068.0,0.2229
1069.0,0.2163
1070.0,0.2233
1071.0,0.2279
1072.0,0.2244
1073.0,0.2214
1074.0,0.2283
1075.0,0.2137
1076.0,0.228
1077.0,0.2221
1078.0,0.2171
1079.0,0.2249
1080.0,0.2187
1081.0,0.2101
1082.0,0.2162
1083.0,0.2176
1084.0,0.2089
1085.0,0.2195
1086.0,0.1959
1087.0,0.2052
1088.0,0.2168
1089.0,0.2071
1090.0,0.2009
1091.0,0.2153
1092.0,0.2154
1093.0,0.1743
1094.0,0.196
1095.0,0.1822
1096.0,0.1722
1097.0,0.2105
1098.0,0.1683
1099.0,0.1768
1100.0,0.1611
1101.0,0.1642
1102.0,0.1546
1103.0,0.1515
1104.0,0.1519
1105.0,0.1721
1106.0,0.1184
1107.0,0.1609
1108.0,0.1286
1109.0,0.1303
1110.0,0.158
1111.0,0.09691
1112.0,0.1298
1113.0,0.0726
1114.0,0.08173
1115.0,0.06709
1116.0,0.04819
1117.0,0.01286
1118.0,0.05386
1119.0,0.02236
1120.0,0.02758
1121.0,0.03895
1122.0,0.01297
1123.0,0.02512
1124.0,0.02114
1125.0,0.02866
1126.0,0.00679
1127.0,0.03264
1128.0,0.01584
1129.0,0.01719
1130.0,0.01047
1131.0,0.072
1132.0,0.05449
1133.0,0.02912
1134.0,0.005125
1135.0,0.002075
1136.0,0.02249
1137.0,0.06862
1138.0,0.04738
1139.0,0.08251
1140.0,0.06437
1141.0,0.04516
1142.0,0.05412
1143.0,0.082
1144.0,0.02344
1145.0,0.0281
1146.0,0.03025
1147.0,0.007502
1148.0,0.0704
1149.0,0.05288
1150.0,0.02618
1151.0,0.04699
1152.0,0.06184
1153.0,0.06345
1154.0,0.02733
1155.0,0.0859
1156.0,0.07492
1157.0,0.08877
1158.0,0.08765
1159.0,0.09726
1160.0,0.08067
1161.0,0.1061
1162.0,0.106
1163.0,0.1553
1164.0,0.1289
1165.0,0.1172
1166.0,0.1199
1167.0,0.1327
1168.0,0.1331
1169.0,0.1376
1170.0,0.1532
1171.0,0.1492
1172.0,0.1543
1173.0,0.153
1174.0,0.1007
1175.0,0.1515
1176.0,0.1716
1177.0,0.1613
1178.0,0.1147
1179.0,0.173
1180.0,0.1491
1181.0,0.1541
1182.0,0.0991
1183.0,0.1528
1184.0,0.1408
1185.0,0.1336
1186.0,0.1659
1187.0,0.1556
1188.0,0.09956
1189.0,0.1446
1190.0,0.1625
1191.0,0.1497
1192.0,0.1653
1193.0,0.1568
1194.0,0.1627
1195.0,0.1507
1196.0,0.1433
1197.0,0.1641
1198.0,0.1485
1199.0,0.1198
1200.0,0.1547
1201.0,0.1468
1202.0,0.1479
1203.0,0.1456
1204.0,0.1245
1205.0,0.1532
1206.0,0.1725
1207.0,0.1466
1208.0,0.1463
1209.0,0.1497
1210.0,0.1574
1211.0,0.1476
1212.0,0.1423
1213.0,0.1651
1214.0,0.1471
1215.0,0.1438
1216.0,0.1649
1217.0,0.1593
1218.0,0.1634
1219.0,0.1607
1220.0,0.1638
1221.0,0.1661
1222.0,0.1613
1223.0,0.1592
1224.0,0.157
1225.0,0.1649
1226.0,0.1669
1227.0,0.1506
1228.0,0.1685
1229.0,0.1669
1230.0,0.1635
1231.0,0.1703
1232.0,0.1693
1233.0,0.1605
1234.0,0.1708
1235.0,0.1693
1236.0,0.1709
1237.0,0.1673
1238.0,0.1703
1239.0,0.1681
1240.0,0.1689
1241.0,0.1674
1242.0,0.1677
1243.0,0.1663
1244.0,0.1673
1245.0,0.1681
1246.0,0.1672
1247.0,0.1663
1248.0,0.1658
1249.0,0.1667
1250.0,0.1655
1251.0,0.1629
1252.0,0.1635
1253.0,0.1611
1254.0,0.1587
1255.0,0.163
1256.0,0.1566
1257.0,0.1553
1258.0,0.1597
1259.0,0.151
1260.0,0.1521
1261.0,0.14
1262.0,0.1339
1263.0,0.134
1264.0,0.1195
1265.0,0.1332
1266.0,0.1257
1267.0,0.1296
1268.0,0.1202
1269.0,0.0585
1270.0,0.1285
1271.0,0.1399
1272.0,0.1408
1273.0,0.1389
1274.0,0.1399
1275.0,0.1426
1276.0,0.1447
1277.0,0.1466
1278.0,0.1509
1279.0,0.1494
1280.0,0.1476
1281.0,0.1415
1282.0,0.1375
1283.0,0.1479
1284.0,0.1512
1285.0,0.1524
1286.0,0.155
1287.0,0.1515
1288.0,0.1518
1289.0,0.1447
1290.0,0.1506
1291.0,0.1531
1292.0,0.1397
1293.0,0.1492
1294.0,0.1479
1295.0,0.1459
1296.0,0.1367
1297.0,0.1275
1298.0,0.1412
1299.0,0.1497
1300.0,0.1201
1301.0,0.125
1302.0,0.1409
1303.0,0.1193
1304.0,0.09573
1305.0,0.1377
1306.0,0.1371
1307.0,0.1
1308.0,0.1205
1309.0,0.1351
1310.0,0.09763
1311.0,0.1141
1312.0,0.1101
1313.0,0.1067
1314.0,0.09335
1315.0,0.09077
1316.0,0.1112
1317.0,0.1045
1318.0,0.1161
1319.0,0.08363
1320.0,0.08249
1321.0,0.09858
1322.0,0.09824
1323.0,0.06818
1324.0,0.08229
1325.0,0.1089
1326.0,0.08986
1327.0,0.08469
1328.0,0.07106
1329.0,0.04842
1330.0,0.06559
1331.0,0.03428
1332.0,0.037
1333.0,0.05252
1334.0,0.04782
1335.0,0.06754
1336.0,0.05037
1337.0,0.04355
1338.0,0.04684
1339.0,0.04739
1340.0,0.04767
1341.0,0.04284
1342.0,0.04544
1343.0,0.02474
1344.0,0.01538
1345.0,0.02192
1346.0,0.007842
1347.0,0.00747
1348.0,0.0002408
1349.0,0.001028
1350.0,0.001206
1351.0,0.0001535
1352.0,1.826e-05
1353.0,4.931e-07
1354.0,2.781e-06
1355.0,5.479e-09
1356.0,2.358e-07
1357.0,3.585e-07
1358.0,6.819e-09
1359.0,3.765e-10
1360.0,2.224e-09
1361.0,9.388e-13
1362.0,2.373e-15
1363.0,2.086e-09
1364.0,9.22e-10
1365.0,7.946e-16
1366.0,1.101e-08
1367.0,5.94e-09
1368.0,6.073e-18
1369.0,3.397e-10
1370.0,1.268e-10
1371.0,5.887e-12
1372.0,3.362e-09
1373.0,1.276e-07
1374.0,9.887e-07
1375.0,1.577e-06
1376.0,2.592e-06
1377.0,1.077e-06
1378.0,1.179e-05
1379.0,4.614e-07
1380.0,4.479e-07
1381.0,9.605e-09
1382.0,2.668e-09
1383.0,3.242e-11
1384.0,3.285e-10
1385.0,4.239e-09
1386.0,1.8e-09
1387.0,6.614e-07
1388.0,1.67e-08
1389.0,4.38e-06
1390.0,3.546e-06
1391.0,2.256e-06
1392.0,1.39e-07
1393.0,9.516e-07
1394.0,1.89e-07
1395.0,9.485e-10
1396.0,1.319e-12
1397.0,3.096e-07
1398.0,1.204e-05
1399.0,8e-06
1400.0,5.078e-13
1401.0,2.479e-12
1402.0,5.442e-05
1403.0,5.672e-05
1404.0,1.574e-05
1405.0,3.246e-10
1406.0,2.988e-05
1407.0,3.882e-06
1408.0,2.609e-05
1409.0,5.476e-06
1410.0,6.722e-06
1411.0,5.194e-05
1412.0,8.823e-05
1413.0,0.001605
1414.0,5.717e-06
1415.0,2.251e-06
1416.0,0.004129
1417.0,0.0008651
1418.0,0.000833
1419.0,0.0001187
1420.0,0.0005022
1421.0,0.0006089
1422.0,0.005414
1423.0,0.0009712
1424.0,0.001978
1425.0,0.0026
1426.0,0.003587
1427.0,0.007895
1428.0,0.000209
1429.0,0.00512
1430.0,0.01088
1431.0,0.0125
