interpolation:linear
wavelength,value
280.0,4.1779999999999997e-22
280.5,1.366e-20
281.0,7.308000000000001e-20
281.5,4.478e-19
282.0,7.411e-19
282.5,1.836e-18
283.0,5.798e-18
283.5,9.429e-18
284.0,1.545e-16
284.5,4.496e-16
285.0,7.659e-16
285.5,3.799e-15
286.0,1.529e-14
286.5,6.862e-14
287.0,1.964e-13
287.5,7.551e-13
288.0,2.542e-12
288.5,7.727e-12
289.0,2.063e-11
289.5,6.239e-11
290.0,1.733e-10
290.5,3.534e-10
291.0,7.587e-10
291.5,2.178e-09
292.0,4.542e-09
292.5,6.383e-09
293.0,1.372e-08
293.5,3.346e-08
294.0,5.239e-08
294.5,7.124e-08
295.0,1.208e-07
295.5,2.126e-07
296.0,4.165e-07
296.5,5.928e-07
297.0,8.151e-07
297.5,2.251e-06
298.0,3.652e-06
298.5,3.769e-06
299.0,8.544e-06
299.5,1.502e-05
300.0,1.713e-05
300.5,2.584e-05
301.0,5.033e-05
301.5,8.644e-05
302.0,7.706e-05
302.5,0.0001557
303.0,0.0002934
303.5,0.0003832
304.0,0.0003721
304.5,0.0006056
305.0,0.001039
305.5,0.001289
306.0,0.001287
306.5,0.001688
307.0,0.002813
307.5,0.004189
308.0,0.004508
308.5,0.005636
309.0,0.005781
309.5,0.00716
310.0,0.00746
310.5,0.0123
311.0,0.0159
311.5,0.01555
312.0,0.01657
312.5,0.02103
313.0,0.02331
313.5,0.02219
314.0,0.02916
314.5,0.02761
315.0,0.03672
315.5,0.02976
316.0,0.02741
316.5,0.0412
317.0,0.05112
317.5,0.05252
318.0,0.04227
318.5,0.05568
319.0,0.06808
319.5,0.05292
320.0,0.0635
320.5,0.08439
321.0,0.07929
321.5,0.07645
322.0,0.07695
322.5,0.06715
323.0,0.06944
323.5,0.0883
324.0,0.1037
324.5,0.1037
325.0,0.08802
325.5,0.1167
326.0,0.1438
326.5,0.1469
327.0,0.1454
327.5,0.1392
328.0,0.1209
328.5,0.131
329.0,0.1609
329.5,0.1841
330.0,0.1846
330.5,0.145
331.0,0.1468
331.5,0.1514
332.0,0.167
332.5,0.1668
333.0,0.1655
333.5,0.1476
334.0,0.1509
334.5,0.1772
335.0,0.1682
335.5,0.1969
336.0,0.1363
336.5,0.1586
337.0,0.1293
337.5,0.1604
338.0,0.1589
338.5,0.1841
339.0,0.1825
339.5,0.1755
340.0,0.2058
340.5,0.1858
341.0,0.1816
341.5,0.1671
342.0,0.1999
342.5,0.1872
343.0,0.2057
343.5,0.1937
344.0,0.1429
344.5,0.1446
345.0,0.1918
345.5,0.1961
346.0,0.1668
346.5,0.1891
347.0,0.2029
347.5,0.1641
348.0,0.1874
348.5,0.1875
349.0,0.1741
349.5,0.1725
350.0,0.2135
350.5,0.2253
351.0,0.2013
351.5,0.1955
352.0,0.2102
352.5,0.1643
353.0,0.2071
353.5,0.2217
354.0,0.2303
354.5,0.2336
355.0,0.2329
355.5,0.2106
356.0,0.2205
356.5,0.1884
357.0,0.1557
357.5,0.1907
358.0,0.1512
358.5,0.1293
359.0,0.1809
359.5,0.2305
360.0,0.2445
360.5,0.1955
361.0,0.1784
361.5,0.2057
362.0,0.1781
362.5,0.2467
363.0,0.2218
363.5,0.2045
364.0,0.2502
364.5,0.214
365.0,0.2181
365.5,0.2739
366.0,0.2904
366.5,0.2731
367.0,0.2662
367.5,0.2764
368.0,0.242
368.5,0.2444
369.0,0.2641
369.5,0.2816
370.0,0.3005
370.5,0.2334
371.0,0.2495
371.5,0.3123
372.0,0.2074
372.5,0.2489
373.0,0.2533
373.5,0.165
374.0,0.2398
374.5,0.1988
375.0,0.1933
375.5,0.2888
376.0,0.2395
376.5,0.2483
377.0,0.2631
377.5,0.308
378.0,0.334
378.5,0.3158
379.0,0.2607
379.5,0.2382
380.0,0.2478
380.5,0.3004
381.0,0.3013
381.5,0.239
382.0,0.2125
382.5,0.1813
383.0,0.168
383.5,0.1619
384.0,0.1787
384.5,0.2631
385.0,0.261
385.5,0.2433
386.0,0.2085
386.5,0.2741
387.0,0.2279
387.5,0.2561
388.0,0.2366
388.5,0.2341
389.0,0.2528
389.5,0.3064
390.0,0.3077
390.5,0.2833
391.0,0.3337
391.5,0.3406
392.0,0.287
392.5,0.2571
393.0,0.1432
393.5,0.1042
394.0,0.2121
394.5,0.2698
395.0,0.3294
395.5,0.3348
396.0,0.2904
396.5,0.1699
397.0,0.1276
397.5,0.2597
398.0,0.3637
398.5,0.3761
399.0,0.4077
399.5,0.4066
400.0,0.4223
401.0,0.4265
402.0,0.4506
403.0,0.4286
404.0,0.4224
405.0,0.4228
406.0,0.4165
407.0,0.4103
408.0,0.4266
409.0,0.457
410.0,0.3998
411.0,0.4336
412.0,0.4664
413.0,0.4551
414.0,0.4612
415.0,0.463
416.0,0.4717
417.0,0.4605
418.0,0.4524
419.0,0.4588
420.0,0.4571
421.0,0.4787
422.0,0.4554
423.0,0.4452
424.0,0.4711
425.0,0.4707
426.0,0.4593
427.0,0.451
428.0,0.4396
429.0,0.417
430.0,0.3653
431.0,0.3622
432.0,0.4682
433.0,0.4712
434.0,0.4377
435.0,0.4573
436.0,0.516
437.0,0.5097
438.0,0.4646
439.0,0.4801
440.0,0.4959
441.0,0.5144
442.0,0.552
443.0,0.5376
444.0,0.5498
445.0,0.538
446.0,0.5143
447.0,0.5567
448.0,0.5651
449.0,0.5683
450.0,0.5847
451.0,0.6067
452.0,0.5849
453.0,0.5506
454.0,0.5754
455.0,0.579
456.0,0.5931
457.0,0.6032
458.0,0.5823
459.0,0.5796
460.0,0.581
461.0,0.5946
462.0,0.5998
463.0,0.5957
464.0,0.5867
465.0,0.5801
466.0,0.5863
467.0,0.5755
468.0,0.5824
469.0,0.5855
470.0,0.5668
471.0,0.5663
472.0,0.5967
473.0,0.589
474.0,0.5895
475.0,0.594
476.0,0.5755
477.0,0.5767
478.0,0.5929
479.0,0.5898
480.0,0.5914
481.0,0.603
482.0,0.6069
483.0,0.6004
484.0,0.5886
485.0,0.5613
486.0,0.4912
487.0,0.5153
488.0,0.5653
489.0,0.5669
490.0,0.5967
491.0,0.5868
492.0,0.5542
493.0,0.5725
494.0,0.5784
495.0,0.5834
496.0,0.5871
497.0,0.5961
498.0,0.5682
499.0,0.5752
500.0,0.558
501.0,0.5473
502.0,0.5388
503.0,0.5597
504.0,0.5428
505.0,0.5645
506.0,0.5827
507.0,0.5546
508.0,0.5382
509.0,0.5539
510.0,0.5516
511.0,0.567
512.0,0.5734
513.0,0.5428
514.0,0.5394
515.0,0.534
516.0,0.5326
517.0,0.4734
518.0,0.4977
519.0,0.522
520.0,0.5408
521.0,0.5459
522.0,0.5461
523.0,0.5361
524.0,0.5548
525.0,0.5607
526.0,0.5354
527.0,0.5039
528.0,0.5325
529.0,0.5609
530.0,0.5526
531.0,0.5606
532.0,0.5412
533.0,0.5253
534.0,0.5411
535.0,0.5533
536.0,0.5586
537.0,0.5369
538.0,0.5465
539.0,0.5419
540.0,0.5194
541.0,0.522
542.0,0.538
543.0,0.533
544.0,0.5415
545.0,0.54
546.0,0.5417
547.0,0.5421
548.0,0.5359
549.0,0.5377
550.0,0.5442
551.0,0.5377
552.0,0.5414
553.0,0.5316
554.0,0.5443
555.0,0.5452
556.0,0.5379
557.0,0.521
558.0,0.5166
559.0,0.5065
560.0,0.5126
561.0,0.5188
562.0,0.5145
563.0,0.528
564.0,0.5131
565.0,0.5083
566.0,0.5004
567.0,0.5094
568.0,0.5034
569.0,0.4887
570.0,0.4889
571.0,0.4867
572.0,0.4965
573.0,0.5015
574.0,0.4995
575.0,0.4895
576.0,0.4851
577.0,0.4907
578.0,0.4841
579.0,0.4873
580.0,0.4986
581.0,0.5027
582.0,0.5135
583.0,0.5159
584.0,0.5211
585.0,0.5088
586.0,0.4984
587.0,0.5085
588.0,0.4927
589.0,0.4299
590.0,0.4501
591.0,0.4803
592.0,0.4719
593.0,0.4819
594.0,0.4773
595.0,0.4631
596.0,0.4868
597.0,0.4801
598.0,0.4805
599.0,0.4817
600.0,0.4838
601.0,0.4809
602.0,0.4778
603.0,0.4862
604.0,0.4945
605.0,0.4923
606.0,0.4909
607.0,0.4964
608.0,0.4915
609.0,0.4929
610.0,0.49
611.0,0.4929
612.0,0.4918
613.0,0.4859
614.0,0.4798
615.0,0.4907
616.0,0.475
617.0,0.4743
618.0,0.4929
619.0,0.4881
620.0,0.4912
621.0,0.4912
622.0,0.485
623.0,0.4772
624.0,0.4695
625.0,0.4684
626.0,0.4752
627.0,0.4793
628.0,0.4323
629.0,0.4626
630.0,0.4514
631.0,0.4668
632.0,0.4622
633.0,0.4784
634.0,0.4755
635.0,0.4837
636.0,0.4783
637.0,0.4869
638.0,0.4928
639.0,0.4879
640.0,0.4839
641.0,0.4841
642.0,0.4826
643.0,0.4892
644.0,0.4882
645.0,0.4887
646.0,0.4754
647.0,0.4656
648.0,0.466
649.0,0.4565
650.0,0.4642
651.0,0.4853
652.0,0.4595
653.0,0.4791
654.0,0.4743
655.0,0.4538
656.0,0.4042
657.0,0.4154
658.0,0.4672
659.0,0.4713
660.0,0.4736
661.0,0.4771
662.0,0.4771
663.0,0.468
664.0,0.4751
665.0,0.4767
666.0,0.4776
667.0,0.4777
668.0,0.4786
669.0,0.4864
670.0,0.4845
671.0,0.4847
672.0,0.4808
673.0,0.4883
674.0,0.4868
675.0,0.4826
676.0,0.4861
677.0,0.4815
678.0,0.4831
679.0,0.4755
680.0,0.4794
681.0,0.4764
682.0,0.4758
683.0,0.4749
684.0,0.4725
685.0,0.4769
686.0,0.4737
687.0,0.2512
688.0,0.3222
689.0,0.3243
690.0,0.3503
691.0,0.3805
692.0,0.4041
693.0,0.4001
694.0,0.3979
695.0,0.4225
696.0,0.4235
697.0,0.4588
698.0,0.4515
699.0,0.4343
700.0,0.4287
701.0,0.4219
702.0,0.4274
703.0,0.4287
704.0,0.4463
705.0,0.4469
706.0,0.448
707.0,0.4489
708.0,0.4497
709.0,0.453
710.0,0.4516
711.0,0.4519
712.0,0.4518
713.0,0.4461
714.0,0.4481
715.0,0.4313
716.0,0.4309
717.0,0.3505
718.0,0.3196
719.0,0.2909
720.0,0.3024
721.0,0.3472
722.0,0.4118
723.0,0.3761
724.0,0.3301
725.0,0.3219
726.0,0.3377
727.0,0.3485
728.0,0.32
729.0,0.3401
730.0,0.3584
731.0,0.3412
732.0,0.3735
733.0,0.4034
734.0,0.4155
735.0,0.4055
736.0,0.4048
737.0,0.4064
738.0,0.4188
739.0,0.4106
740.0,0.4232
741.0,0.42
742.0,0.4216
743.0,0.4327
744.0,0.4322
745.0,0.4328
746.0,0.4348
747.0,0.4359
748.0,0.4351
749.0,0.4302
750.0,0.43
751.0,0.4256
752.0,0.4276
753.0,0.4298
754.0,0.4308
755.0,0.4283
756.0,0.4282
757.0,0.4288
758.0,0.4233
759.0,0.4108
760.0,0.02599
761.0,0.009833
762.0,0.1468
763.0,0.04972
764.0,0.09351
765.0,0.1465
766.0,0.2062
767.0,0.2908
768.0,0.3628
769.0,0.3769
770.0,0.3971
771.0,0.4037
772.0,0.4056
773.0,0.4087
774.0,0.4069
775.0,0.404
776.0,0.409
777.0,0.4036
778.0,0.4012
779.0,0.4015
780.0,0.3993
781.0,0.3998
782.0,0.4024
783.0,0.3954
784.0,0.3975
785.0,0.3943
786.0,0.3984
787.0,0.3884
788.0,0.3822
789.0,0.3819
790.0,0.3677
791.0,0.3749
792.0,0.3727
793.0,0.3663
794.0,0.3767
795.0,0.3819
796.0,0.3645
797.0,0.3645
798.0,0.3808
799.0,0.3773
800.0,0.3694
801.0,0.3669
802.0,0.3658
803.0,0.3623
804.0,0.3635
805.0,0.364
806.0,0.3771
807.0,0.3719
808.0,0.3725
809.0,0.3633
810.0,0.359
811.0,0.3564
812.0,0.3424
813.0,0.3335
814.0,0.2824
815.0,0.2814
816.0,0.2605
817.0,0.2661
818.0,0.2536
819.0,0.2929
820.0,0.2725
821.0,0.3324
822.0,0.3207
823.0,0.1972
824.0,0.3061
825.0,0.3266
826.0,0.3097
827.0,0.3314
828.0,0.2678
829.0,0.3087
830.0,0.3036
831.0,0.3048
832.0,0.293
833.0,0.3179
834.0,0.3025
835.0,0.3419
836.0,0.3209
837.0,0.3431
838.0,0.3292
839.0,0.3386
840.0,0.3468
841.0,0.3405
842.0,0.3434
843.0,0.3455
844.0,0.3395
845.0,0.3525
846.0,0.3514
847.0,0.3455
848.0,0.3424
849.0,0.3326
850.0,0.3188
851.0,0.3365
852.0,0.3346
853.0,0.3229
854.0,0.2781
855.0,0.3065
856.0,0.3346
857.0,0.3427
858.0,0.3399
859.0,0.3406
860.0,0.3416
861.0,0.3396
862.0,0.3451
863.0,0.3532
864.0,0.3356
865.0,0.3328
866.0,0.2992
867.0,0.3123
868.0,0.3399
869.0,0.3329
870.0,0.3424
871.0,0.3377
872.0,0.3366
873.0,0.3359
874.0,0.332
875.0,0.3252
876.0,0.3285
877.0,0.3319
878.0,0.3353
879.0,0.3302
880.0,0.3232
881.0,0.3178
882.0,0.3245
883.0,0.326
884.0,0.3243
885.0,0.3267
886.0,0.3096
887.0,0.3143
888.0,0.3181
889.0,0.3233
890.0,0.3186
891.0,0.3191
892.0,0.3073
893.0,0.2953
894.0,0.2795
895.0,0.2574
896.0,0.2407
897.0,0.199
898.0,0.221
899.0,0.1595
900.0,0.2313
901.0,0.1671
902.0,0.2078
903.0,0.2057
904.0,0.2773
905.0,0.2653
906.0,0.2462
907.0,0.1876
908.0,0.1937
909.0,0.2147
910.0,0.1804
911.0,0.1992
912.0,0.2091
913.0,0.1826
914.0,0.183
915.0,0.1977
916.0,0.1659
917.0,0.2199
918.0,0.1694
919.0,0.2272
920.0,0.2363
921.0,0.2455
922.0,0.2125
923.0,0.2379
924.0,0.2161
925.0,0.2118
926.0,0.2131
927.0,0.2454
928.0,0.1602
929.0,0.1411
930.0,0.1029
931.0,0.09778
932.0,0.06245
933.0,0.04733
934.0,0.01923
935.0,0.05114
936.0,0.0274
937.0,0.02754
938.0,0.03547
939.0,0.09454
940.0,0.1197
941.0,0.08277
942.0,0.09986
943.0,0.05996
944.0,0.06889
945.0,0.087
946.0,0.03677
947.0,0.08532
948.0,0.06193
949.0,0.1218
950.0,0.02367
951.0,0.121
952.0,0.05556
953.0,0.07801
954.0,0.1028
955.0,0.07966
956.0,0.08411
957.0,0.05507
958.0,0.1275
959.0,0.09237
960.0,0.1035
961.0,0.1233
962.0,0.1163
963.0,0.1403
964.0,0.1267
965.0,0.1397
966.0,0.1388
967.0,0.1373
968.0,0.2087
969.0,0.2145
970.0,0.1947
971.0,0.2337
972.0,0.2212
973.0,0.1816
974.0,0.1714
975.0,0.1816
976.0,0.1663
977.0,0.2019
978.0,0.1865
979.0,0.1985
980.0,0.185
981.0,0.2326
982.0,0.2183
983.0,0.2074
984.0,0.2447
985.0,0.2174
986.0,0.2522
987.0,0.2436
988.0,0.2434
989.0,0.2534
990.0,0.2418
991.0,0.2538
992.0,0.2556
993.0,0.2464
994.0,0.256
995.0,0.2562
996.0,0.2545
997.0,0.2551
998.0,0.2537
999.0,0.2529
1000.0,0.2503
1001.0,0.2544
1002.0,0.2438
1003.0,0.2497
1004.0,0.2426
1005.0,0.235
1006.0,0.2436
1007.0,0.2491
1008.0,0.2471
1009.0,0.2451
1010.0,0.2437
1011.0,0.2479
1012.0,0.2451
1013.0,0.2475
1014.0,0.2457
1015.0,0.244
1016.0,0.2428
1017.0,0.2433
1018.0,0.2428
1019.0,0.2363
1020.0,0.2414
1021.0,0.2413
1022.0,0.2389
1023.0,0.2413
1024.0,0.2368
1025.0,0.2416
1026.0,0.2403
1027.0,0.2398
1028.0,0.2392
1029.0,0.2362
1030.0,0.2383
1031.0,0.2372
1032.0,0.2366
1033.0,0.233
1034.0,0.2331
1035.0,0.2338
1036.0,0.2349
1037.0,0.2311
1038.0,0.2321
1039.0,0.2319
1040.0,0.2309
1041.0,0.2317
1042.0,0.2301
1043.0,0.2293
1044.0,0.23
1045.0,0.2268
1046.0,0.2242
1047.0,0.2261
1048.0,0.2272
1049.0,0.2263
1050.0,0.2251
1051.0,0.2247
1052.0,0.2236
1053.0,0.2217
1054.0,0.222
1055.0,0.2219
1056.0,0.2209
1057.0,0.22
1058.0,0.2144
1059.0,0.2144
1060.0,0.214
1061.0,0.2136
1062.0,0.2145
1063.0,0.2122
1064.0,0.2148
1065.0,0.2127
1066.0,0.2089
1067.0,0.2115
1068.0,0.2065
1069.0,0.2004
1070.0,0.2069
1071.0,0.2113
1072.0,0.208
1073.0,0.2051
1074.0,0.2118
1075.0,0.1977
1076.0,0.2114
1077.0,0.2057
1078.0,0.2009
1079.0,0.2087
1080.0,0.2026
1081.0,0.1943
1082.0,0.2004
1083.0,0.2019
1084.0,0.1931
1085.0,0.2033
1086.0,0.1808
1087.0,0.1898
1088.0,0.2011
1089.0,0.1915
1090.0,0.1855
1091.0,0.1995
1092.0,0.1997
1093.0,0.1603
1094.0,0.1815
1095.0,0.1675
1096.0,0.1579
1097.0,0.1951
1098.0,0.1541
1099.0,0.1621
1100.0,0.1473
1101.0,0.1503
1102.0,0.1411
1103.0,0.138
1104.0,0.1384
1105.0,0.1577
1106.0,0.1065
1107.0,0.1471
1108.0,0.1163
1109.0,0.118
1110.0,0.1441
1111.0,0.08673
1112.0,0.1177
1113.0,0.06428
1114.0,0.07238
1115.0,0.05926
1116.0,0.04175
1117.0,0.01052
1118.0,0.04681
1119.0,0.0188
1120.0,0.02306
1121.0,0.03292
1122.0,0.01046
1123.0,0.02102
1124.0,0.01768
1125.0,0.02417
1126.0,0.005296
1127.0,0.02757
1128.0,0.01284
1129.0,0.01398
1130.0,0.008453
1131.0,0.06261
1132.0,0.04705
1133.0,0.02432
1134.0,0.003987
1135.0,0.001643
1136.0,0.01849
1137.0,0.05932
1138.0,0.04079
1139.0,0.07321
1140.0,0.05638
1141.0,0.03891
1142.0,0.04699
1143.0,0.07216
1144.0,0.01987
1145.0,0.02345
1146.0,0.02524
1147.0,0.005839
1148.0,0.06178
1149.0,0.04589
1150.0,0.02243
1151.0,0.04047
1152.0,0.05393
1153.0,0.05588
1154.0,0.02293
1155.0,0.07619
1156.0,0.06605
1157.0,0.07923
1158.0,0.07818
1159.0,0.08712
1160.0,0.07205
1161.0,0.09588
1162.0,0.09564
1163.0,0.1422
1164.0,0.1174
1165.0,0.106
1166.0,0.1091
1167.0,0.1211
1168.0,0.1213
1169.0,0.1255
1170.0,0.1405
1171.0,0.1368
1172.0,0.142
1173.0,0.1403
1174.0,0.09101
1175.0,0.1394
1176.0,0.1587
1177.0,0.1486
1178.0,0.1046
1179.0,0.16
1180.0,0.137
1181.0,0.1416
1182.0,0.08986
1183.0,0.1406
1184.0,0.1291
1185.0,0.1221
1186.0,0.153
1187.0,0.1431
1188.0,0.09
1189.0,0.1329
1190.0,0.15
1191.0,0.1373
1192.0,0.1526
1193.0,0.1445
1194.0,0.1501
1195.0,0.1384
1196.0,0.1314
1197.0,0.1517
1198.0,0.137
1199.0,0.1094
1200.0,0.1426
1201.0,0.1349
1202.0,0.1363
1203.0,0.1339
1204.0,0.114
1205.0,0.1414
1206.0,0.1598
1207.0,0.1348
1208.0,0.1349
1209.0,0.1381
1210.0,0.1456
1211.0,0.136
1212.0,0.1304
1213.0,0.1526
1214.0,0.1351
1215.0,0.1321
1216.0,0.1525
1217.0,0.1472
1218.0,0.1512
1219.0,0.1485
1220.0,0.1515
1221.0,0.1538
1222.0,0.1492
1223.0,0.1472
1224.0,0.1449
1225.0,0.1526
1226.0,0.1547
1227.0,0.1389
1228.0,0.1563
1229.0,0.1547
1230.0,0.1514
1231.0,0.1582
1232.0,0.1572
1233.0,0.1485
1234.0,0.1588
1235.0,0.1573
1236.0,0.1588
1237.0,0.1552
1238.0,0.1583
1239.0,0.1562
1240.0,0.157
1241.0,0.1554
1242.0,0.1558
1243.0,0.1546
1244.0,0.1554
1245.0,0.1562
1246.0,0.1554
1247.0,0.1545
1248.0,0.154
1249.0,0.1549
1250.0,0.1537
1251.0,0.1512
1252.0,0.1519
1253.0,0.1495
1254.0,0.1471
1255.0,0.1514
1256.0,0.145
1257.0,0.1437
1258.0,0.1482
1259.0,0.1394
1260.0,0.1406
1261.0,0.1286
1262.0,0.1226
1263.0,0.1227
1264.0,0.1085
1265.0,0.122
1266.0,0.1146
1267.0,0.1186
1268.0,0.1093
1269.0,0.05045
1270.0,0.1174
1271.0,0.1287
1272.0,0.1295
1273.0,0.1277
1274.0,0.1287
1275.0,0.1314
1276.0,0.1334
1277.0,0.1354
1278.0,0.1396
1279.0,0.1382
1280.0,0.1366
1281.0,0.1311
1282.0,0.1276
1283.0,0.1372
1284.0,0.1402
1285.0,0.1414
1286.0,0.144
1287.0,0.1404
1288.0,0.1408
1289.0,0.1338
1290.0,0.1397
1291.0,0.1421
1292.0,0.1289
1293.0,0.1383
1294.0,0.1371
1295.0,0.1349
1296.0,0.126
1297.0,0.1171
1298.0,0.1305
1299.0,0.1389
1300.0,0.1103
1301.0,0.1149
1302.0,0.1302
1303.0,0.1096
1304.0,0.08689
1305.0,0.1272
1306.0,0.1265
1307.0,0.0912
1308.0,0.1109
1309.0,0.1245
1310.0,0.0889
1311.0,0.1048
1312.0,0.101
1313.0,0.09751
1314.0,0.08493
1315.0,0.08235
1316.0,0.1018
1317.0,0.09557
1318.0,0.1067
1319.0,0.07558
1320.0,0.07479
1321.0,0.08987
1322.0,0.0893
1323.0,0.06097
1324.0,0.07444
1325.0,0.0996
1326.0,0.08157
1327.0,0.07669
1328.0,0.06397
1329.0,0.04272
1330.0,0.05839
1331.0,0.02964
1332.0,0.03224
1333.0,0.04594
1334.0,0.04255
1335.0,0.06026
1336.0,0.04439
1337.0,0.0383
1338.0,0.04111
1339.0,0.04171
1340.0,0.04224
1341.0,0.03729
1342.0,0.03966
1343.0,0.02067
1344.0,0.01297
1345.0,0.01835
1346.0,0.006143
1347.0,0.005764
1348.0,0.0001638
1349.0,0.0007165
1350.0,0.0008543
1351.0,9.673e-05
1352.0,9.8e-06
1353.0,2.515e-07
1354.0,1.498e-06
1355.0,2.878e-09
1356.0,1.206e-07
1357.0,1.827e-07
1358.0,3.547e-09
1359.0,2.514e-10
1360.0,1.235e-09
1361.0,8.445e-13
1362.0,2.269e-15
1363.0,1.297e-09
1364.0,5.627e-10
1365.0,7.861e-16
1366.0,6.316e-09
1367.0,3.189e-09
1368.0,6.062e-18
1369.0,2.078e-10
1370.0,8.814e-11
1371.0,4.604e-12
1372.0,1.793e-09
1373.0,6.332e-08
1374.0,5.013e-07
1375.0,7.751e-07
1376.0,1.402e-06
1377.0,5.773e-07
1378.0,6.241e-06
1379.0,2.498e-07
1380.0,2.286e-07
1381.0,4.93e-09
1382.0,1.449e-09
1383.0,1.893e-11
1384.0,2.101e-10
1385.0,2.146e-09
1386.0,1.057e-09
1387.0,3.192e-07
1388.0,8.536e-09
1389.0,2.251e-06
1390.0,1.789e-06
1391.0,1.148e-06
1392.0,7.209e-08
1393.0,5.049e-07
1394.0,9.233e-08
1395.0,4.907e-10
1396.0,1.123e-12
1397.0,1.605e-07
1398.0,6.238e-06
1399.0,4.192e-06
1400.0,4.664e-13
1401.0,2.028e-12
1402.0,3.402e-05
1403.0,3.396e-05
1404.0,9.193e-06
1405.0,1.783e-10
1406.0,1.633e-05
1407.0,2.369e-06
1408.0,1.447e-05
1409.0,2.811e-06
1410.0,3.792e-06
1411.0,3.141e-05
1412.0,5.586e-05
1413.0,0.001115
1414.0,3.279e-06
1415.0,1.251e-06
1416.0,0.003159
1417.0,0.0006255
1418.0,0.0005706
1419.0,8.031e-05
1420.0,0.0003434
1421.0,0.0004357
1422.0,0.004135
1423.0,0.0007372
1424.0,0.001533
1425.0,0.001959
1426.0,0.002814
1427.0,0.006353
1428.0,0.0001395
1429.0,0.004008
