interpolation:linear
wavelength,value
280.0,4.504999999999999e-22
280.5,1.4710000000000003e-20
281.0,7.868e-20
281.5,4.579e-19
282.0,7.575e-19
282.5,1.876e-18
283.0,5.921e-18
283.5,9.627e-18
284.0,1.576e-16
284.5,4.583e-16
285.0,7.878e-16
285.5,3.9e-15
286.0,1.569e-14
286.5,7.034e-14
287.0,2.012e-13
287.5,7.73e-13
288.0,2.587e-12
288.5,7.877e-12
289.0,2.105e-11
289.5,6.371e-11
290.0,1.77e-10
290.5,3.611e-10
291.0,7.753e-10
291.5,2.226e-09
292.0,4.697e-09
292.5,6.597e-09
293.0,1.417e-08
293.5,3.452e-08
294.0,5.401e-08
294.5,7.324e-08
295.0,1.241e-07
295.5,2.208e-07
296.0,4.329e-07
296.5,6.17e-07
297.0,8.494e-07
297.5,2.351e-06
298.0,3.823e-06
298.5,3.953e-06
299.0,8.985e-06
299.5,1.587e-05
300.0,1.816e-05
300.5,2.749e-05
301.0,5.39e-05
301.5,9.323e-05
302.0,8.348e-05
302.5,0.0001687
303.0,0.0003178
303.5,0.0004149
304.0,0.0004025
304.5,0.0006537
305.0,0.001118
305.5,0.001383
306.0,0.00138
306.5,0.001807
307.0,0.003
307.5,0.004451
308.0,0.004787
308.5,0.005972
309.0,0.006124
309.5,0.007556
310.0,0.007858
310.5,0.01295
311.0,0.01672
311.5,0.01634
312.0,0.01735
312.5,0.02198
313.0,0.02434
313.5,0.02319
314.0,0.03041
314.5,0.02871
315.0,0.03815
315.5,0.03097
316.0,0.02846
316.5,0.04268
317.0,0.05295
317.5,0.05444
318.0,0.04375
318.5,0.05747
319.0,0.07016
319.5,0.05467
320.0,0.06562
320.5,0.08695
321.0,0.0815
321.5,0.07855
322.0,0.07929
322.5,0.06918
323.0,0.07142
323.5,0.09065
324.0,0.1064
324.5,0.1065
325.0,0.09049
325.5,0.1198
326.0,0.1476
326.5,0.1506
327.0,0.1491
327.5,0.1428
328.0,0.1242
328.5,0.1344
329.0,0.1648
329.5,0.1885
330.0,0.1891
330.5,0.1487
331.0,0.1506
331.5,0.1552
332.0,0.171
332.5,0.1707
333.0,0.1694
333.5,0.1512
334.0,0.1546
334.5,0.1814
335.0,0.1721
335.5,0.2014
336.0,0.1395
336.5,0.1623
337.0,0.1323
337.5,0.1643
338.0,0.1626
338.5,0.1883
339.0,0.1866
339.5,0.1795
340.0,0.2105
340.5,0.1901
341.0,0.1858
341.5,0.1709
342.0,0.2044
342.5,0.1914
343.0,0.2104
343.5,0.1981
344.0,0.1462
344.5,0.1479
345.0,0.1961
345.5,0.2005
346.0,0.1706
346.5,0.1934
347.0,0.2075
347.5,0.1678
348.0,0.1916
348.5,0.1917
349.0,0.178
349.5,0.1764
350.0,0.2183
350.5,0.2304
351.0,0.2058
351.5,0.1999
352.0,0.215
352.5,0.168
353.0,0.2118
353.5,0.2266
354.0,0.2354
354.5,0.2389
355.0,0.2381
355.5,0.2153
356.0,0.2254
356.5,0.1926
357.0,0.1592
357.5,0.1949
358.0,0.1546
358.5,0.1322
359.0,0.1849
359.5,0.2356
360.0,0.2499
360.5,0.1999
361.0,0.1824
361.5,0.2102
362.0,0.182
362.5,0.2522
363.0,0.2267
363.5,0.209
364.0,0.2558
364.5,0.2188
365.0,0.2229
365.5,0.28
366.0,0.2969
366.5,0.2792
367.0,0.272
367.5,0.2824
368.0,0.2473
368.5,0.2497
369.0,0.2699
369.5,0.2878
370.0,0.307
370.5,0.2385
371.0,0.255
371.5,0.3192
372.0,0.2119
372.5,0.2543
373.0,0.2589
373.5,0.1686
374.0,0.2451
374.5,0.2031
375.0,0.1975
375.5,0.2951
376.0,0.2447
376.5,0.2537
377.0,0.2688
377.5,0.3147
378.0,0.3413
378.5,0.3227
379.0,0.2664
379.5,0.2434
380.0,0.2532
380.5,0.3069
381.0,0.3078
381.5,0.2442
382.0,0.2171
382.5,0.1852
383.0,0.1716
383.5,0.1654
384.0,0.1826
384.5,0.2687
385.0,0.2667
385.5,0.2485
386.0,0.213
386.5,0.28
387.0,0.2328
387.5,0.2616
388.0,0.2417
388.5,0.2391
389.0,0.2582
389.5,0.3129
390.0,0.3143
390.5,0.2894
391.0,0.3409
391.5,0.3478
392.0,0.2931
392.5,0.2626
393.0,0.1462
393.5,0.1064
394.0,0.2166
394.5,0.2755
395.0,0.3364
395.5,0.3419
396.0,0.2966
396.5,0.1735
397.0,0.1303
397.5,0.2651
398.0,0.3714
398.5,0.3841
399.0,0.4163
399.5,0.4152
400.0,0.4312
401.0,0.4355
402.0,0.4601
403.0,0.4377
404.0,0.4314
405.0,0.4317
406.0,0.4253
407.0,0.419
408.0,0.4356
409.0,0.4666
410.0,0.4082
411.0,0.4427
412.0,0.4761
413.0,0.4646
414.0,0.4708
415.0,0.4726
416.0,0.4815
417.0,0.47
418.0,0.4617
419.0,0.4683
420.0,0.4666
421.0,0.4886
422.0,0.4647
423.0,0.4544
424.0,0.4808
425.0,0.4804
426.0,0.4687
427.0,0.4602
428.0,0.4486
429.0,0.4255
430.0,0.3728
431.0,0.3695
432.0,0.4777
433.0,0.4807
434.0,0.4466
435.0,0.4666
436.0,0.5264
437.0,0.52
438.0,0.4739
439.0,0.4898
440.0,0.5059
441.0,0.5248
442.0,0.5631
443.0,0.5484
444.0,0.5609
445.0,0.5488
446.0,0.5246
447.0,0.5678
448.0,0.5764
449.0,0.5796
450.0,0.5963
451.0,0.6187
452.0,0.5965
453.0,0.5615
454.0,0.5867
455.0,0.5905
456.0,0.6048
457.0,0.6151
458.0,0.5938
459.0,0.591
460.0,0.5925
461.0,0.6064
462.0,0.6116
463.0,0.6075
464.0,0.5983
465.0,0.5915
466.0,0.5978
467.0,0.5867
468.0,0.5937
469.0,0.5969
470.0,0.5779
471.0,0.5774
472.0,0.6084
473.0,0.6005
474.0,0.601
475.0,0.6056
476.0,0.5869
477.0,0.588
478.0,0.6046
479.0,0.6014
480.0,0.603
481.0,0.6148
482.0,0.6188
483.0,0.6121
484.0,0.6
485.0,0.5722
486.0,0.5007
487.0,0.5252
488.0,0.5762
489.0,0.5778
490.0,0.6083
491.0,0.5981
492.0,0.5649
493.0,0.5835
494.0,0.5895
495.0,0.5946
496.0,0.5983
497.0,0.6076
498.0,0.5791
499.0,0.5863
500.0,0.5688
501.0,0.5579
502.0,0.5492
503.0,0.5706
504.0,0.5535
505.0,0.5755
506.0,0.594
507.0,0.5654
508.0,0.5487
509.0,0.5647
510.0,0.5623
511.0,0.5779
512.0,0.5845
513.0,0.5533
514.0,0.5498
515.0,0.5443
516.0,0.5429
517.0,0.4825
518.0,0.5073
519.0,0.532
520.0,0.5513
521.0,0.5564
522.0,0.5567
523.0,0.5465
524.0,0.5656
525.0,0.5716
526.0,0.5458
527.0,0.5137
528.0,0.5429
529.0,0.5719
530.0,0.5634
531.0,0.5715
532.0,0.5518
533.0,0.5356
534.0,0.5517
535.0,0.5641
536.0,0.5695
537.0,0.5474
538.0,0.5572
539.0,0.5525
540.0,0.5296
541.0,0.5323
542.0,0.5485
543.0,0.5434
544.0,0.5522
545.0,0.5506
546.0,0.5524
547.0,0.5527
548.0,0.5464
549.0,0.5482
550.0,0.5548
551.0,0.5482
552.0,0.552
553.0,0.542
554.0,0.5549
555.0,0.5558
556.0,0.5485
557.0,0.5312
558.0,0.5268
559.0,0.5165
560.0,0.5227
561.0,0.529
562.0,0.5247
563.0,0.5385
564.0,0.5233
565.0,0.5184
566.0,0.5104
567.0,0.5195
568.0,0.5135
569.0,0.4987
570.0,0.4989
571.0,0.4966
572.0,0.5067
573.0,0.5118
574.0,0.5097
575.0,0.4996
576.0,0.4951
577.0,0.5007
578.0,0.494
579.0,0.4972
580.0,0.5086
581.0,0.5127
582.0,0.5238
583.0,0.5261
584.0,0.5314
585.0,0.5189
586.0,0.5082
587.0,0.5186
588.0,0.5026
589.0,0.4388
590.0,0.4594
591.0,0.49
592.0,0.4816
593.0,0.4917
594.0,0.487
595.0,0.4726
596.0,0.4966
597.0,0.4898
598.0,0.4902
599.0,0.4913
600.0,0.4934
601.0,0.4904
602.0,0.4872
603.0,0.4958
604.0,0.5043
605.0,0.502
606.0,0.5005
607.0,0.5061
608.0,0.5011
609.0,0.5025
610.0,0.4995
611.0,0.5024
612.0,0.5013
613.0,0.4953
614.0,0.4891
615.0,0.5002
616.0,0.4841
617.0,0.4834
618.0,0.5023
619.0,0.4974
620.0,0.5006
621.0,0.5006
622.0,0.4943
623.0,0.4864
624.0,0.4785
625.0,0.4774
626.0,0.4844
627.0,0.4885
628.0,0.4413
629.0,0.4718
630.0,0.4604
631.0,0.4759
632.0,0.4711
633.0,0.4876
634.0,0.4845
635.0,0.4929
636.0,0.4873
637.0,0.4961
638.0,0.502
639.0,0.497
640.0,0.4929
641.0,0.4931
642.0,0.4915
643.0,0.4982
644.0,0.4972
645.0,0.4977
646.0,0.4843
647.0,0.4744
648.0,0.4748
649.0,0.4652
650.0,0.4727
651.0,0.4942
652.0,0.4682
653.0,0.4879
654.0,0.483
655.0,0.4622
656.0,0.4116
657.0,0.423
658.0,0.4757
659.0,0.4798
660.0,0.4822
661.0,0.4857
662.0,0.4857
663.0,0.4765
664.0,0.4837
665.0,0.4852
666.0,0.4861
667.0,0.4862
668.0,0.4871
669.0,0.495
670.0,0.4931
671.0,0.4933
672.0,0.4893
673.0,0.4969
674.0,0.4953
675.0,0.4911
676.0,0.4946
677.0,0.4899
678.0,0.4916
679.0,0.4838
680.0,0.4878
681.0,0.4847
682.0,0.4841
683.0,0.4832
684.0,0.4808
685.0,0.4852
686.0,0.482
687.0,0.258
688.0,0.3297
689.0,0.3318
690.0,0.3579
691.0,0.3883
692.0,0.412
693.0,0.4079
694.0,0.4056
695.0,0.4303
696.0,0.4313
697.0,0.4669
698.0,0.4595
699.0,0.4422
700.0,0.4365
701.0,0.4297
702.0,0.4352
703.0,0.4365
704.0,0.4542
705.0,0.4549
706.0,0.4559
707.0,0.4569
708.0,0.4577
709.0,0.4609
710.0,0.4595
711.0,0.4598
712.0,0.4596
713.0,0.4539
714.0,0.4559
715.0,0.439
716.0,0.4386
717.0,0.3576
718.0,0.3262
719.0,0.297
720.0,0.3088
721.0,0.354
722.0,0.4193
723.0,0.3832
724.0,0.3367
725.0,0.3284
726.0,0.3446
727.0,0.3553
728.0,0.3265
729.0,0.3467
730.0,0.3654
731.0,0.348
732.0,0.3806
733.0,0.4107
734.0,0.4229
735.0,0.4129
736.0,0.4121
737.0,0.4137
738.0,0.4261
739.0,0.4177
740.0,0.4305
741.0,0.4272
742.0,0.4288
743.0,0.44
744.0,0.4395
745.0,0.4401
746.0,0.4421
747.0,0.4433
748.0,0.4424
749.0,0.4374
750.0,0.4372
751.0,0.4328
752.0,0.4348
753.0,0.437
754.0,0.438
755.0,0.4355
756.0,0.4354
757.0,0.436
758.0,0.4305
759.0,0.4179
760.0,0.02748
761.0,0.01051
762.0,0.1515
763.0,0.05213
764.0,0.09719
765.0,0.1513
766.0,0.2118
767.0,0.2972
768.0,0.3696
769.0,0.3837
770.0,0.404
771.0,0.4105
772.0,0.4124
773.0,0.4155
774.0,0.4137
775.0,0.4107
776.0,0.4158
777.0,0.4104
778.0,0.4079
779.0,0.4082
780.0,0.406
781.0,0.4065
782.0,0.4091
783.0,0.402
784.0,0.4041
785.0,0.4008
786.0,0.405
787.0,0.395
788.0,0.3888
789.0,0.3884
790.0,0.3741
791.0,0.3813
792.0,0.3791
793.0,0.3726
794.0,0.383
795.0,0.3884
796.0,0.3709
797.0,0.3709
798.0,0.3873
799.0,0.3838
800.0,0.3758
801.0,0.3733
802.0,0.3722
803.0,0.3686
804.0,0.3698
805.0,0.3703
806.0,0.3834
807.0,0.3782
808.0,0.3788
809.0,0.3695
810.0,0.3652
811.0,0.3627
812.0,0.3486
813.0,0.3396
814.0,0.288
815.0,0.2869
816.0,0.2657
817.0,0.2714
818.0,0.2587
819.0,0.2985
820.0,0.2778
821.0,0.3383
822.0,0.3264
823.0,0.2015
824.0,0.3118
825.0,0.3323
826.0,0.3153
827.0,0.3372
828.0,0.2731
829.0,0.3143
830.0,0.3091
831.0,0.3103
832.0,0.2985
833.0,0.3236
834.0,0.308
835.0,0.3478
836.0,0.3266
837.0,0.349
838.0,0.335
839.0,0.3444
840.0,0.3527
841.0,0.3464
842.0,0.3492
843.0,0.3512
844.0,0.3452
845.0,0.3584
846.0,0.3572
847.0,0.3512
848.0,0.3481
849.0,0.3381
850.0,0.3241
851.0,0.3421
852.0,0.3402
853.0,0.3283
854.0,0.2827
855.0,0.3116
856.0,0.3401
857.0,0.3484
858.0,0.3455
859.0,0.3463
860.0,0.3472
861.0,0.3452
862.0,0.3508
863.0,0.359
864.0,0.3412
865.0,0.3383
866.0,0.3042
867.0,0.3174
868.0,0.3455
869.0,0.3383
870.0,0.348
871.0,0.3433
872.0,0.3421
873.0,0.3414
874.0,0.3374
875.0,0.3305
876.0,0.3339
877.0,0.3373
878.0,0.3408
879.0,0.3356
880.0,0.3285
881.0,0.323
882.0,0.3298
883.0,0.3314
884.0,0.3297
885.0,0.3321
886.0,0.3147
887.0,0.3195
888.0,0.3234
889.0,0.3286
890.0,0.324
891.0,0.3244
892.0,0.3125
893.0,0.3003
894.0,0.2845
895.0,0.2623
896.0,0.2453
897.0,0.2031
898.0,0.2254
899.0,0.1629
900.0,0.2357
901.0,0.1707
902.0,0.2119
903.0,0.2099
904.0,0.2823
905.0,0.2702
906.0,0.2508
907.0,0.1915
908.0,0.1976
909.0,0.2189
910.0,0.1842
911.0,0.2032
912.0,0.2133
913.0,0.1865
914.0,0.1868
915.0,0.2019
916.0,0.1695
917.0,0.2244
918.0,0.1731
919.0,0.2316
920.0,0.2407
921.0,0.2501
922.0,0.2167
923.0,0.2423
924.0,0.2204
925.0,0.216
926.0,0.2173
927.0,0.2501
928.0,0.164
929.0,0.1446
930.0,0.1057
931.0,0.1005
932.0,0.06447
933.0,0.04899
934.0,0.02013
935.0,0.05283
936.0,0.02846
937.0,0.0286
938.0,0.03678
939.0,0.09717
940.0,0.1228
941.0,0.08518
942.0,0.1026
943.0,0.06183
944.0,0.0708
945.0,0.08946
946.0,0.03808
947.0,0.08781
948.0,0.06375
949.0,0.125
950.0,0.02461
951.0,0.1242
952.0,0.05734
953.0,0.08028
954.0,0.1056
955.0,0.08195
956.0,0.0862
957.0,0.05685
958.0,0.1305
959.0,0.09482
960.0,0.1063
961.0,0.1263
962.0,0.1191
963.0,0.1434
964.0,0.1296
965.0,0.1429
966.0,0.142
967.0,0.1405
968.0,0.2126
969.0,0.2187
970.0,0.1985
971.0,0.2379
972.0,0.2253
973.0,0.1853
974.0,0.1749
975.0,0.1853
976.0,0.1698
977.0,0.2057
978.0,0.1902
979.0,0.2023
980.0,0.1886
981.0,0.2368
982.0,0.2224
983.0,0.2114
984.0,0.2489
985.0,0.2214
986.0,0.2564
987.0,0.2478
988.0,0.2476
989.0,0.2576
990.0,0.2459
991.0,0.258
992.0,0.2598
993.0,0.2505
994.0,0.2602
995.0,0.2603
996.0,0.2586
997.0,0.2593
998.0,0.2579
999.0,0.2571
1000.0,0.2544
1001.0,0.2585
1002.0,0.248
1003.0,0.2538
1004.0,0.2466
1005.0,0.2389
1006.0,0.2476
1007.0,0.2531
1008.0,0.2512
1009.0,0.2491
1010.0,0.2477
1011.0,0.2519
1012.0,0.2491
1013.0,0.2515
1014.0,0.2498
1015.0,0.248
1016.0,0.2468
1017.0,0.2473
1018.0,0.2468
1019.0,0.2402
1020.0,0.2453
1021.0,0.2452
1022.0,0.2428
1023.0,0.2453
1024.0,0.2408
1025.0,0.2456
1026.0,0.2442
1027.0,0.2437
1028.0,0.2431
1029.0,0.2401
1030.0,0.2422
1031.0,0.241
1032.0,0.2405
1033.0,0.2368
1034.0,0.2369
1035.0,0.2376
1036.0,0.2387
1037.0,0.2349
1038.0,0.2359
1039.0,0.2357
1040.0,0.2347
1041.0,0.2355
1042.0,0.2338
1043.0,0.233
1044.0,0.2338
1045.0,0.2305
1046.0,0.2279
1047.0,0.2298
1048.0,0.231
1049.0,0.23
1050.0,0.2289
1051.0,0.2284
1052.0,0.2273
1053.0,0.2254
1054.0,0.2257
1055.0,0.2256
1056.0,0.2246
1057.0,0.2237
1058.0,0.218
1059.0,0.218
1060.0,0.2176
1061.0,0.2172
1062.0,0.2181
1063.0,0.2158
1064.0,0.2184
1065.0,0.2164
1066.0,0.2125
1067.0,0.2151
1068.0,0.21
1069.0,0.2038
1070.0,0.2104
1071.0,0.2149
1072.0,0.2115
1073.0,0.2086
1074.0,0.2154
1075.0,0.2011
1076.0,0.215
1077.0,0.2092
1078.0,0.2043
1079.0,0.2122
1080.0,0.2061
1081.0,0.1977
1082.0,0.2038
1083.0,0.2052
1084.0,0.1965
1085.0,0.2068
1086.0,0.1841
1087.0,0.1931
1088.0,0.2045
1089.0,0.1948
1090.0,0.1888
1091.0,0.2029
1092.0,0.203
1093.0,0.1633
1094.0,0.1846
1095.0,0.1707
1096.0,0.161
1097.0,0.1984
1098.0,0.1572
1099.0,0.1653
1100.0,0.1502
1101.0,0.1533
1102.0,0.144
1103.0,0.1409
1104.0,0.1413
1105.0,0.1608
1106.0,0.109
1107.0,0.15
1108.0,0.1189
1109.0,0.1206
1110.0,0.1471
1111.0,0.08889
1112.0,0.1202
1113.0,0.06604
1114.0,0.07437
1115.0,0.06092
1116.0,0.0431
1117.0,0.011
1118.0,0.0483
1119.0,0.01954
1120.0,0.024
1121.0,0.03418
1122.0,0.01097
1123.0,0.02188
1124.0,0.0184
1125.0,0.02511
1126.0,0.0056
1127.0,0.02863
1128.0,0.01346
1129.0,0.01464
1130.0,0.008865
1131.0,0.06459
1132.0,0.04862
1133.0,0.02532
1134.0,0.004218
1135.0,0.001731
1136.0,0.01932
1137.0,0.06128
1138.0,0.04218
1139.0,0.07518
1140.0,0.05807
1141.0,0.04023
1142.0,0.04849
1143.0,0.07424
1144.0,0.02062
1145.0,0.02442
1146.0,0.02628
1147.0,0.006177
1148.0,0.0636
1149.0,0.04737
1150.0,0.02321
1151.0,0.04184
1152.0,0.0556
1153.0,0.05748
1154.0,0.02385
1155.0,0.07825
1156.0,0.06793
1157.0,0.08126
1158.0,0.08019
1159.0,0.08928
1160.0,0.07388
1161.0,0.09806
1162.0,0.09784
1163.0,0.145
1164.0,0.1198
1165.0,0.1084
1166.0,0.1114
1167.0,0.1236
1168.0,0.1239
1169.0,0.1281
1170.0,0.1432
1171.0,0.1395
1172.0,0.1446
1173.0,0.143
1174.0,0.09307
1175.0,0.142
1176.0,0.1615
1177.0,0.1513
1178.0,0.1068
1179.0,0.1628
1180.0,0.1395
1181.0,0.1442
1182.0,0.09183
1183.0,0.1432
1184.0,0.1316
1185.0,0.1246
1186.0,0.1557
1187.0,0.1458
1188.0,0.09204
1189.0,0.1354
1190.0,0.1527
1191.0,0.1399
1192.0,0.1553
1193.0,0.1472
1194.0,0.1528
1195.0,0.1411
1196.0,0.1339
1197.0,0.1544
1198.0,0.1395
1199.0,0.1116
1200.0,0.1452
1201.0,0.1374
1202.0,0.1387
1203.0,0.1364
1204.0,0.1162
1205.0,0.1439
1206.0,0.1625
1207.0,0.1373
1208.0,0.1373
1209.0,0.1406
1210.0,0.1481
1211.0,0.1385
1212.0,0.133
1213.0,0.1553
1214.0,0.1377
1215.0,0.1346
1216.0,0.1552
1217.0,0.1498
1218.0,0.1538
1219.0,0.1511
1220.0,0.1541
1221.0,0.1565
1222.0,0.1518
1223.0,0.1498
1224.0,0.1475
1225.0,0.1552
1226.0,0.1573
1227.0,0.1414
1228.0,0.1589
1229.0,0.1573
1230.0,0.154
1231.0,0.1608
1232.0,0.1598
1233.0,0.151
1234.0,0.1613
1235.0,0.1598
1236.0,0.1614
1237.0,0.1578
1238.0,0.1609
1239.0,0.1588
1240.0,0.1595
1241.0,0.158
1242.0,0.1583
1243.0,0.1571
1244.0,0.158
1245.0,0.1588
1246.0,0.1579
1247.0,0.1571
1248.0,0.1565
1249.0,0.1574
1250.0,0.1562
1251.0,0.1537
1252.0,0.1544
1253.0,0.152
1254.0,0.1496
1255.0,0.1539
1256.0,0.1475
1257.0,0.1462
1258.0,0.1506
1259.0,0.1419
1260.0,0.1431
1261.0,0.131
1262.0,0.125
1263.0,0.1251
1264.0,0.1109
1265.0,0.1244
1266.0,0.117
1267.0,0.1209
1268.0,0.1116
1269.0,0.05215
1270.0,0.1197
1271.0,0.1311
1272.0,0.132
1273.0,0.1301
1274.0,0.1311
1275.0,0.1338
1276.0,0.1359
1277.0,0.1378
1278.0,0.142
1279.0,0.1406
1280.0,0.139
1281.0,0.1334
1282.0,0.1297
1283.0,0.1395
1284.0,0.1426
1285.0,0.1437
1286.0,0.1463
1287.0,0.1428
1288.0,0.1432
1289.0,0.1361
1290.0,0.142
1291.0,0.1445
1292.0,0.1312
1293.0,0.1406
1294.0,0.1394
1295.0,0.1373
1296.0,0.1283
1297.0,0.1193
1298.0,0.1328
1299.0,0.1412
1300.0,0.1124
1301.0,0.1171
1302.0,0.1325
1303.0,0.1116
1304.0,0.08877
1305.0,0.1294
1306.0,0.1288
1307.0,0.09309
1308.0,0.1129
1309.0,0.1267
1310.0,0.09076
1311.0,0.1068
1312.0,0.1029
1313.0,0.09947
1314.0,0.08673
1315.0,0.08415
1316.0,0.1038
1317.0,0.09748
1318.0,0.1087
1319.0,0.0773
1320.0,0.07644
1321.0,0.09173
1322.0,0.09121
1323.0,0.0625
1324.0,0.07611
1325.0,0.1016
1326.0,0.08334
1327.0,0.0784
1328.0,0.06548
1329.0,0.04393
1330.0,0.05992
1331.0,0.03062
1332.0,0.03325
1333.0,0.04733
1334.0,0.04367
1335.0,0.06181
1336.0,0.04566
1337.0,0.03941
1338.0,0.04232
1339.0,0.04291
1340.0,0.04339
1341.0,0.03846
1342.0,0.04088
1343.0,0.02152
1344.0,0.01347
1345.0,0.0191
1346.0,0.006489
1347.0,0.006109
1348.0,0.0001785
1349.0,0.0007769
1350.0,0.0009232
1351.0,0.0001073
1352.0,1.125e-05
1353.0,2.906e-07
1354.0,1.716e-06
1355.0,3.259e-09
1356.0,1.393e-07
1357.0,2.111e-07
1358.0,4.03e-09
1359.0,2.676e-10
1360.0,1.374e-09
1361.0,8.548e-13
1362.0,2.279e-15
1363.0,1.4e-09
1364.0,6.108e-10
1365.0,7.869e-16
1366.0,6.949e-09
1367.0,3.581e-09
1368.0,6.064e-18
1369.0,2.255e-10
1370.0,9.303e-11
1371.0,4.759e-12
1372.0,2.018e-09
1373.0,7.322e-08
1374.0,5.805e-07
1375.0,9.028e-07
1376.0,1.605e-06
1377.0,6.619e-07
1378.0,7.183e-06
1379.0,2.857e-07
1380.0,2.643e-07
1381.0,5.683e-09
1382.0,1.621e-09
1383.0,2.08e-11
1384.0,2.255e-10
1385.0,2.463e-09
1386.0,1.157e-09
1387.0,3.718e-07
1388.0,9.851e-09
1389.0,2.604e-06
1390.0,2.078e-06
1391.0,1.33e-06
1392.0,8.311e-08
1393.0,5.801e-07
1394.0,1.07e-07
1395.0,5.579e-10
1396.0,1.145e-12
1397.0,1.852e-07
1398.0,7.213e-06
1399.0,4.835e-06
1400.0,4.707e-13
1401.0,2.08e-12
1402.0,3.778e-05
1403.0,3.808e-05
1404.0,1.037e-05
1405.0,1.988e-10
1406.0,1.869e-05
1407.0,2.644e-06
1408.0,1.65e-05
1409.0,3.256e-06
1410.0,4.305e-06
1411.0,3.514e-05
1412.0,6.187e-05
1413.0,0.00121
1414.0,3.709e-06
1415.0,1.425e-06
1416.0,0.003355
1417.0,0.0006725
1418.0,0.0006212
1419.0,8.768e-05
1420.0,0.000374
1421.0,0.0004695
1422.0,0.004392
1423.0,0.0007842
1424.0,0.001623
1425.0,0.002087
1426.0,0.002971
1427.0,0.00667
1428.0,0.0001527
1429.0,0.004235
1430.0,0.00931
1431.0,0.01076
