interpolation:linear
wavelength,value
280.0,8.720999999999999e-22
280.5,2.816e-20
281.0,1.5e-19
281.5,5.265e-19
282.0,9.081e-19
282.5,2.25e-18
283.0,7.084e-18
283.5,1.15e-17
284.0,1.865e-16
284.5,5.401e-16
285.0,1.028e-15
285.5,4.984e-15
286.0,1.994e-14
286.5,8.853e-14
287.0,2.518e-13
287.5,9.603e-13
288.0,3.028e-12
288.5,9.389e-12
289.0,2.538e-11
289.5,7.738e-11
290.0,2.159e-10
290.5,4.416e-10
291.0,9.502e-10
291.5,2.732e-09
292.0,5.876e-09
292.5,8.362e-09
293.0,1.823e-08
293.5,4.527e-08
294.0,7.172e-08
294.5,9.479e-08
295.0,1.622e-07
295.5,3.502e-07
296.0,6.399e-07
296.5,9.218e-07
297.0,1.283e-06
297.5,3.617e-06
298.0,5.996e-06
298.5,6.305e-06
299.0,1.459e-05
299.5,2.669e-05
300.0,3.122e-05
300.5,4.848e-05
301.0,9.961e-05
301.5,0.0001819
302.0,0.0001686
302.5,0.0003393
303.0,0.0006348
303.5,0.000823
304.0,0.0007918
304.5,0.001256
305.0,0.002075
305.5,0.002508
306.0,0.00248
306.5,0.003197
307.0,0.005121
307.5,0.007327
308.0,0.007834
308.5,0.009594
309.0,0.009683
309.5,0.0116
310.0,0.0119
310.5,0.01948
311.0,0.02488
311.5,0.02421
312.0,0.02512
312.5,0.03133
313.0,0.03442
313.5,0.03304
314.0,0.04253
314.5,0.03919
315.0,0.05186
315.5,0.0426
316.0,0.03838
316.5,0.0566
317.0,0.07025
317.5,0.07258
318.0,0.05766
318.5,0.07408
319.0,0.08944
319.5,0.07095
320.0,0.0854
320.5,0.1106
321.0,0.1016
321.5,0.09775
322.0,0.1008
322.5,0.0879
323.0,0.08946
323.5,0.1121
324.0,0.1313
324.5,0.1322
325.0,0.1131
325.5,0.148
326.0,0.1817
326.5,0.184
327.0,0.1827
327.5,0.1756
328.0,0.1542
328.5,0.165
329.0,0.2003
329.5,0.2284
330.0,0.2297
330.5,0.1819
331.0,0.1848
331.5,0.1893
332.0,0.207
332.5,0.2058
333.0,0.2047
333.5,0.1838
334.0,0.1881
334.5,0.2192
335.0,0.2071
335.5,0.2422
336.0,0.1676
336.5,0.1957
337.0,0.16
337.5,0.1988
338.0,0.1957
338.5,0.2263
339.0,0.2241
339.5,0.2157
340.0,0.2532
340.5,0.2285
341.0,0.2231
341.5,0.2051
342.0,0.2452
342.5,0.2296
343.0,0.2524
343.5,0.2377
344.0,0.1756
344.5,0.1775
345.0,0.2352
345.5,0.2404
346.0,0.2045
346.5,0.2317
347.0,0.2487
347.5,0.2012
348.0,0.2296
348.5,0.2296
349.0,0.2132
349.5,0.2112
350.0,0.2613
350.5,0.2758
351.0,0.2464
351.5,0.2394
352.0,0.2574
352.5,0.201
353.0,0.2534
353.5,0.2711
354.0,0.2816
354.5,0.2857
355.0,0.2848
355.5,0.2575
356.0,0.2695
356.5,0.2302
357.0,0.1903
357.5,0.233
358.0,0.1848
358.5,0.1579
359.0,0.221
359.5,0.2816
360.0,0.2987
360.5,0.2388
361.0,0.2179
361.5,0.2511
362.0,0.2173
362.5,0.301
363.0,0.2706
363.5,0.2494
364.0,0.3052
364.5,0.261
365.0,0.2659
365.5,0.3339
366.0,0.354
366.5,0.3329
367.0,0.3243
367.5,0.3367
368.0,0.2948
368.5,0.2977
369.0,0.3216
369.5,0.343
370.0,0.3658
370.5,0.2841
371.0,0.3037
371.5,0.3802
372.0,0.2524
372.5,0.3028
373.0,0.3082
373.5,0.2006
374.0,0.2917
374.5,0.2417
375.0,0.2351
375.5,0.3511
376.0,0.2911
376.5,0.3018
377.0,0.3197
377.5,0.3743
378.0,0.4058
378.5,0.3837
379.0,0.3168
379.5,0.2894
380.0,0.301
380.5,0.3648
381.0,0.3658
381.5,0.2902
382.0,0.2579
382.5,0.22
383.0,0.2038
383.5,0.1964
384.0,0.2168
384.5,0.319
385.0,0.3165
385.5,0.2949
386.0,0.2527
386.5,0.3322
387.0,0.2762
387.5,0.3103
388.0,0.2866
388.5,0.2835
389.0,0.3062
389.5,0.371
390.0,0.3725
390.5,0.343
391.0,0.404
391.5,0.4122
392.0,0.3473
392.5,0.3111
393.0,0.1732
393.5,0.126
394.0,0.2565
394.5,0.3262
395.0,0.3982
395.5,0.4047
396.0,0.351
396.5,0.2053
397.0,0.1542
397.5,0.3137
398.0,0.4394
398.5,0.4543
399.0,0.4924
399.5,0.4909
400.0,0.5099
401.0,0.5158
402.0,0.5447
403.0,0.518
404.0,0.5104
405.0,0.5107
406.0,0.5029
407.0,0.4953
408.0,0.5149
409.0,0.5515
410.0,0.4823
411.0,0.5229
412.0,0.5622
413.0,0.5485
414.0,0.5557
415.0,0.5577
416.0,0.568
417.0,0.5543
418.0,0.5444
419.0,0.552
420.0,0.5499
421.0,0.5757
422.0,0.5475
423.0,0.5352
424.0,0.5663
425.0,0.5656
426.0,0.5516
427.0,0.5416
428.0,0.5278
429.0,0.5005
430.0,0.4383
431.0,0.4345
432.0,0.5615
433.0,0.5649
434.0,0.5247
435.0,0.5482
436.0,0.6182
437.0,0.6105
438.0,0.5563
439.0,0.5751
440.0,0.5938
441.0,0.6158
442.0,0.6607
443.0,0.6434
444.0,0.6579
445.0,0.6437
446.0,0.615
447.0,0.6655
448.0,0.6756
449.0,0.6791
450.0,0.6985
451.0,0.7247
452.0,0.6985
453.0,0.6573
454.0,0.6867
455.0,0.691
456.0,0.7077
457.0,0.7196
458.0,0.6949
459.0,0.6915
460.0,0.6933
461.0,0.7095
462.0,0.7154
463.0,0.7105
464.0,0.6995
465.0,0.6913
466.0,0.6984
467.0,0.6855
468.0,0.6937
469.0,0.6974
470.0,0.6752
471.0,0.6745
472.0,0.7107
473.0,0.7015
474.0,0.7022
475.0,0.7078
476.0,0.6862
477.0,0.6877
478.0,0.707
479.0,0.7031
480.0,0.7048
481.0,0.7185
482.0,0.7228
483.0,0.7147
484.0,0.7004
485.0,0.6677
486.0,0.5841
487.0,0.6125
488.0,0.6719
489.0,0.6738
490.0,0.7092
491.0,0.6973
492.0,0.6586
493.0,0.6802
494.0,0.6871
495.0,0.6931
496.0,0.6974
497.0,0.7082
498.0,0.675
499.0,0.6835
500.0,0.6633
501.0,0.6508
502.0,0.641
503.0,0.6663
504.0,0.6474
505.0,0.6723
506.0,0.6939
507.0,0.6604
508.0,0.6405
509.0,0.659
510.0,0.6559
511.0,0.674
512.0,0.6815
513.0,0.6451
514.0,0.6409
515.0,0.6345
516.0,0.6329
517.0,0.5625
518.0,0.5914
519.0,0.6202
520.0,0.6427
521.0,0.6488
522.0,0.6491
523.0,0.6373
524.0,0.6598
525.0,0.6671
526.0,0.637
527.0,0.5999
528.0,0.6341
529.0,0.6681
530.0,0.6583
531.0,0.6679
532.0,0.6449
533.0,0.626
534.0,0.6447
535.0,0.659
536.0,0.6653
537.0,0.6393
538.0,0.6507
539.0,0.6452
540.0,0.6185
541.0,0.622
542.0,0.6411
543.0,0.6349
544.0,0.6454
545.0,0.6435
546.0,0.6458
547.0,0.646
548.0,0.6385
549.0,0.6406
550.0,0.6482
551.0,0.6405
552.0,0.6449
553.0,0.6333
554.0,0.6484
555.0,0.6495
556.0,0.641
557.0,0.6209
558.0,0.6159
559.0,0.604
560.0,0.6114
561.0,0.619
562.0,0.6141
563.0,0.6305
564.0,0.6129
565.0,0.6073
566.0,0.5981
567.0,0.609
568.0,0.6025
569.0,0.5861
570.0,0.5862
571.0,0.5832
572.0,0.5958
573.0,0.6019
574.0,0.5997
575.0,0.588
576.0,0.5827
577.0,0.5893
578.0,0.581
579.0,0.5843
580.0,0.5969
581.0,0.6012
582.0,0.6136
583.0,0.6159
584.0,0.6218
585.0,0.607
586.0,0.5945
587.0,0.6069
588.0,0.5895
589.0,0.5172
590.0,0.5413
591.0,0.5758
592.0,0.5668
593.0,0.5775
594.0,0.5725
595.0,0.5565
596.0,0.5826
597.0,0.5753
598.0,0.5751
599.0,0.5761
600.0,0.5781
601.0,0.5741
602.0,0.5704
603.0,0.5802
604.0,0.59
605.0,0.5872
606.0,0.5852
607.0,0.5916
608.0,0.5855
609.0,0.5869
610.0,0.5831
611.0,0.5864
612.0,0.585
613.0,0.5779
614.0,0.5704
615.0,0.5832
616.0,0.5643
617.0,0.5634
618.0,0.5853
619.0,0.5795
620.0,0.5831
621.0,0.5834
622.0,0.5762
623.0,0.5671
624.0,0.5577
625.0,0.5565
626.0,0.5646
627.0,0.5699
628.0,0.5206
629.0,0.5524
630.0,0.5393
631.0,0.5554
632.0,0.5495
633.0,0.5679
634.0,0.5636
635.0,0.5731
636.0,0.5663
637.0,0.5761
638.0,0.5825
639.0,0.5765
640.0,0.5714
641.0,0.5715
642.0,0.5694
643.0,0.5771
644.0,0.5757
645.0,0.5764
646.0,0.5615
647.0,0.5517
648.0,0.5521
649.0,0.5411
650.0,0.5478
651.0,0.5723
652.0,0.5442
653.0,0.5649
654.0,0.559
655.0,0.5361
656.0,0.4766
657.0,0.4897
658.0,0.5501
659.0,0.5546
660.0,0.5572
661.0,0.5612
662.0,0.5615
663.0,0.5507
664.0,0.5585
665.0,0.5598
666.0,0.5606
667.0,0.5605
668.0,0.5613
669.0,0.5703
670.0,0.568
671.0,0.5681
672.0,0.5634
673.0,0.5721
674.0,0.5701
675.0,0.5651
676.0,0.5692
677.0,0.5637
678.0,0.5655
679.0,0.5565
680.0,0.561
681.0,0.5574
682.0,0.5567
683.0,0.5557
684.0,0.5529
685.0,0.5578
686.0,0.5543
687.0,0.3188
688.0,0.3959
689.0,0.3981
690.0,0.4254
691.0,0.4568
692.0,0.4809
693.0,0.4763
694.0,0.473
695.0,0.4987
696.0,0.4997
697.0,0.5376
698.0,0.5291
699.0,0.5115
700.0,0.5051
701.0,0.4982
702.0,0.5036
703.0,0.5048
704.0,0.5239
705.0,0.5247
706.0,0.5254
707.0,0.5262
708.0,0.5272
709.0,0.53
710.0,0.5289
711.0,0.5289
712.0,0.5282
713.0,0.522
714.0,0.5243
715.0,0.5057
716.0,0.5055
717.0,0.4204
718.0,0.3841
719.0,0.3504
720.0,0.3653
721.0,0.4138
722.0,0.4848
723.0,0.4456
724.0,0.3946
725.0,0.3859
726.0,0.4047
727.0,0.415
728.0,0.3841
729.0,0.4048
730.0,0.4275
731.0,0.4075
732.0,0.4426
733.0,0.4748
734.0,0.488
735.0,0.4769
736.0,0.4761
737.0,0.478
738.0,0.49
739.0,0.4803
740.0,0.4943
741.0,0.4902
742.0,0.4915
743.0,0.5043
744.0,0.5034
745.0,0.5039
746.0,0.5062
747.0,0.5074
748.0,0.5064
749.0,0.5007
750.0,0.5004
751.0,0.4954
752.0,0.4976
753.0,0.5002
754.0,0.5013
755.0,0.4984
756.0,0.4983
757.0,0.499
758.0,0.4927
759.0,0.4798
760.0,0.04266
761.0,0.01795
762.0,0.195
763.0,0.07565
764.0,0.1316
765.0,0.1948
766.0,0.2611
767.0,0.3539
768.0,0.4293
769.0,0.4432
770.0,0.4638
771.0,0.4701
772.0,0.4718
773.0,0.4753
774.0,0.4732
775.0,0.4697
776.0,0.4755
777.0,0.4693
778.0,0.4664
779.0,0.4668
780.0,0.4642
781.0,0.4648
782.0,0.4677
783.0,0.4596
784.0,0.462
785.0,0.4583
786.0,0.4632
787.0,0.4529
788.0,0.4462
789.0,0.4458
790.0,0.4309
791.0,0.4377
792.0,0.4349
793.0,0.4275
794.0,0.438
795.0,0.4446
796.0,0.4266
797.0,0.4269
798.0,0.4436
799.0,0.4399
800.0,0.4313
801.0,0.4289
802.0,0.4277
803.0,0.4239
804.0,0.425
805.0,0.4249
806.0,0.4389
807.0,0.4332
808.0,0.4337
809.0,0.424
810.0,0.4195
811.0,0.4176
812.0,0.4028
813.0,0.393
814.0,0.337
815.0,0.3354
816.0,0.3111
817.0,0.3176
818.0,0.3037
819.0,0.347
820.0,0.324
821.0,0.3896
822.0,0.3767
823.0,0.2396
824.0,0.3617
825.0,0.3827
826.0,0.3648
827.0,0.3885
828.0,0.3191
829.0,0.3633
830.0,0.3576
831.0,0.359
832.0,0.3461
833.0,0.3732
834.0,0.3566
835.0,0.3992
836.0,0.3772
837.0,0.4006
838.0,0.3857
839.0,0.3951
840.0,0.4043
841.0,0.3975
842.0,0.4
843.0,0.4015
844.0,0.395
845.0,0.4096
846.0,0.4081
847.0,0.401
848.0,0.3978
849.0,0.3864
850.0,0.3703
851.0,0.3913
852.0,0.3889
853.0,0.375
854.0,0.3232
855.0,0.3559
856.0,0.3886
857.0,0.3978
858.0,0.3946
859.0,0.3953
860.0,0.3962
861.0,0.394
862.0,0.4003
863.0,0.4098
864.0,0.3893
865.0,0.386
866.0,0.3471
867.0,0.3622
868.0,0.3942
869.0,0.3861
870.0,0.3971
871.0,0.3917
872.0,0.3903
873.0,0.3896
874.0,0.3849
875.0,0.3771
876.0,0.381
877.0,0.3849
878.0,0.3889
879.0,0.383
880.0,0.3748
881.0,0.3688
882.0,0.3766
883.0,0.3782
884.0,0.3763
885.0,0.3791
886.0,0.3599
887.0,0.3648
888.0,0.3696
889.0,0.375
890.0,0.3704
891.0,0.3705
892.0,0.3578
893.0,0.3446
894.0,0.3283
895.0,0.3049
896.0,0.2857
897.0,0.2391
898.0,0.2642
899.0,0.1937
900.0,0.2745
901.0,0.203
902.0,0.248
903.0,0.2471
904.0,0.3258
905.0,0.3126
906.0,0.2908
907.0,0.2262
908.0,0.2325
909.0,0.2561
910.0,0.2185
911.0,0.2385
912.0,0.2503
913.0,0.2214
914.0,0.2211
915.0,0.2394
916.0,0.2012
917.0,0.2633
918.0,0.2057
919.0,0.2707
920.0,0.2788
921.0,0.29
922.0,0.2534
923.0,0.2807
924.0,0.2585
925.0,0.2532
926.0,0.2552
927.0,0.2915
928.0,0.1973
929.0,0.1757
930.0,0.1312
931.0,0.1249
932.0,0.08295
933.0,0.06424
934.0,0.02879
935.0,0.0683
936.0,0.0384
937.0,0.03863
938.0,0.04906
939.0,0.1208
940.0,0.1505
941.0,0.107
942.0,0.1275
943.0,0.07881
944.0,0.08799
945.0,0.1117
946.0,0.05012
947.0,0.1104
948.0,0.08033
949.0,0.1544
950.0,0.03348
951.0,0.1531
952.0,0.07369
953.0,0.1008
954.0,0.1301
955.0,0.1027
956.0,0.105
957.0,0.07319
958.0,0.1568
959.0,0.1168
960.0,0.1309
961.0,0.1531
962.0,0.1443
963.0,0.1717
964.0,0.1557
965.0,0.1713
966.0,0.1703
967.0,0.1689
968.0,0.2469
969.0,0.2552
970.0,0.2323
971.0,0.2748
972.0,0.261
973.0,0.2182
974.0,0.2061
975.0,0.2172
976.0,0.2012
977.0,0.2392
978.0,0.223
979.0,0.2362
980.0,0.2206
981.0,0.2735
982.0,0.2582
983.0,0.246
984.0,0.2859
985.0,0.2571
986.0,0.2934
987.0,0.2847
988.0,0.2844
989.0,0.2941
990.0,0.2825
991.0,0.2947
992.0,0.2966
993.0,0.2872
994.0,0.2969
995.0,0.2969
996.0,0.2951
997.0,0.2958
998.0,0.2942
999.0,0.2933
1000.0,0.2905
1001.0,0.2949
1002.0,0.284
1003.0,0.2896
1004.0,0.2817
1005.0,0.2724
1006.0,0.2826
1007.0,0.2888
1008.0,0.2868
1009.0,0.2847
1010.0,0.2832
1011.0,0.2874
1012.0,0.2844
1013.0,0.2869
1014.0,0.2849
1015.0,0.2829
1016.0,0.2816
1017.0,0.2822
1018.0,0.2814
1019.0,0.2744
1020.0,0.2798
1021.0,0.2796
1022.0,0.277
1023.0,0.2799
1024.0,0.2752
1025.0,0.2801
1026.0,0.2786
1027.0,0.278
1028.0,0.2774
1029.0,0.274
1030.0,0.2762
1031.0,0.275
1032.0,0.2743
1033.0,0.2701
1034.0,0.2702
1035.0,0.271
1036.0,0.2723
1037.0,0.2679
1038.0,0.2691
1039.0,0.2689
1040.0,0.2677
1041.0,0.2687
1042.0,0.2668
1043.0,0.2659
1044.0,0.2668
1045.0,0.2631
1046.0,0.2601
1047.0,0.2624
1048.0,0.2638
1049.0,0.2627
1050.0,0.2614
1051.0,0.2609
1052.0,0.2598
1053.0,0.2576
1054.0,0.258
1055.0,0.258
1056.0,0.2569
1057.0,0.2559
1058.0,0.2495
1059.0,0.2496
1060.0,0.2491
1061.0,0.2487
1062.0,0.2499
1063.0,0.2473
1064.0,0.2503
1065.0,0.248
1066.0,0.2435
1067.0,0.2465
1068.0,0.2408
1069.0,0.2336
1070.0,0.2413
1071.0,0.246
1072.0,0.2424
1073.0,0.2391
1074.0,0.2463
1075.0,0.2311
1076.0,0.246
1077.0,0.24
1078.0,0.2347
1079.0,0.2425
1080.0,0.2363
1081.0,0.2273
1082.0,0.2334
1083.0,0.2347
1084.0,0.2262
1085.0,0.2371
1086.0,0.2124
1087.0,0.222
1088.0,0.234
1089.0,0.2241
1090.0,0.2177
1091.0,0.2325
1092.0,0.2325
1093.0,0.1897
1094.0,0.2118
1095.0,0.1983
1096.0,0.1877
1097.0,0.2272
1098.0,0.1838
1099.0,0.1929
1100.0,0.1763
1101.0,0.1795
1102.0,0.1694
1103.0,0.1663
1104.0,0.1667
1105.0,0.1878
1106.0,0.1317
1107.0,0.1761
1108.0,0.1422
1109.0,0.1438
1110.0,0.1733
1111.0,0.1082
1112.0,0.1432
1113.0,0.08195
1114.0,0.0922
1115.0,0.07587
1116.0,0.05552
1117.0,0.01568
1118.0,0.06183
1119.0,0.02651
1120.0,0.03287
1121.0,0.04593
1122.0,0.01598
1123.0,0.02989
1124.0,0.02517
1125.0,0.03387
1126.0,0.008639
1127.0,0.03851
1128.0,0.01944
1129.0,0.02102
1130.0,0.01291
1131.0,0.08263
1132.0,0.06295
1133.0,0.03473
1134.0,0.006544
1135.0,0.002606
1136.0,0.02722
1137.0,0.0792
1138.0,0.05488
1139.0,0.09287
1140.0,0.07336
1141.0,0.05227
1142.0,0.06219
1143.0,0.09305
1144.0,0.02758
1145.0,0.03353
1146.0,0.0361
1147.0,0.009565
1148.0,0.08006
1149.0,0.0608
1150.0,0.03051
1151.0,0.05443
1152.0,0.07075
1153.0,0.07192
1154.0,0.03247
1155.0,0.09671
1156.0,0.08485
1157.0,0.0994
1158.0,0.09819
1159.0,0.1085
1160.0,0.09031
1161.0,0.1174
1162.0,0.1175
1163.0,0.1696
1164.0,0.1415
1165.0,0.1296
1166.0,0.1318
1167.0,0.1455
1168.0,0.1462
1169.0,0.1508
1170.0,0.1672
1171.0,0.1628
1172.0,0.1679
1173.0,0.1669
1174.0,0.1115
1175.0,0.1648
1176.0,0.1856
1177.0,0.1752
1178.0,0.1258
1179.0,0.1872
1180.0,0.1624
1181.0,0.1678
1182.0,0.1093
1183.0,0.1662
1184.0,0.1536
1185.0,0.1462
1186.0,0.18
1187.0,0.1693
1188.0,0.1101
1189.0,0.1574
1190.0,0.1762
1191.0,0.1633
1192.0,0.1791
1193.0,0.1703
1194.0,0.1764
1195.0,0.1641
1196.0,0.1564
1197.0,0.1777
1198.0,0.1611
1199.0,0.1313
1200.0,0.168
1201.0,0.1599
1202.0,0.1606
1203.0,0.1584
1204.0,0.136
1205.0,0.166
1206.0,0.1862
1207.0,0.1594
1208.0,0.1586
1209.0,0.1623
1210.0,0.1704
1211.0,0.1602
1212.0,0.1553
1213.0,0.1787
1214.0,0.1602
1215.0,0.1567
1216.0,0.1784
1217.0,0.1726
1218.0,0.1768
1219.0,0.174
1220.0,0.1771
1221.0,0.1795
1222.0,0.1744
1223.0,0.1722
1224.0,0.1701
1225.0,0.1782
1226.0,0.1802
1227.0,0.1633
1228.0,0.1818
1229.0,0.1802
1230.0,0.1767
1231.0,0.1836
1232.0,0.1824
1233.0,0.1736
1234.0,0.184
1235.0,0.1824
1236.0,0.184
1237.0,0.1804
1238.0,0.1834
1239.0,0.1811
1240.0,0.1819
1241.0,0.1804
1242.0,0.1805
1243.0,0.1791
1244.0,0.1802
1245.0,0.1811
1246.0,0.18
1247.0,0.1792
1248.0,0.1787
1249.0,0.1796
1250.0,0.1783
1251.0,0.1756
1252.0,0.1761
1253.0,0.1738
1254.0,0.1714
1255.0,0.1757
1256.0,0.1692
1257.0,0.1679
1258.0,0.1723
1259.0,0.1636
1260.0,0.1647
1261.0,0.1524
1262.0,0.1462
1263.0,0.1464
1264.0,0.1314
1265.0,0.1455
1266.0,0.1378
1267.0,0.1417
1268.0,0.132
1269.0,0.06762
1270.0,0.1406
1271.0,0.1522
1272.0,0.1531
1273.0,0.1511
1274.0,0.1521
1275.0,0.1549
1276.0,0.157
1277.0,0.1588
1278.0,0.1631
1279.0,0.1615
1280.0,0.1596
1281.0,0.1529
1282.0,0.1483
1283.0,0.1595
1284.0,0.1631
1285.0,0.1643
1286.0,0.1671
1287.0,0.1635
1288.0,0.1638
1289.0,0.1566
1290.0,0.1624
1291.0,0.1651
1292.0,0.1515
1293.0,0.161
1294.0,0.1597
1295.0,0.1578
1296.0,0.1485
1297.0,0.1388
1298.0,0.1529
1299.0,0.1615
1300.0,0.131
1301.0,0.1361
1302.0,0.1525
1303.0,0.1299
1304.0,0.1055
1305.0,0.1491
1306.0,0.1486
1307.0,0.1097
1308.0,0.131
1309.0,0.1467
1310.0,0.1072
1311.0,0.1244
1312.0,0.1202
1313.0,0.1167
1314.0,0.1026
1315.0,0.1001
1316.0,0.1214
1317.0,0.1143
1318.0,0.1265
1319.0,0.09252
1320.0,0.09097
1321.0,0.1081
1322.0,0.1081
1323.0,0.07621
1324.0,0.09097
1325.0,0.1191
1326.0,0.099
1327.0,0.09353
1328.0,0.07891
1329.0,0.05482
1330.0,0.07364
1331.0,0.03958
1332.0,0.04238
1333.0,0.05994
1334.0,0.05373
1335.0,0.07562
1336.0,0.05705
1337.0,0.04947
1338.0,0.05331
1339.0,0.05378
1340.0,0.05374
1341.0,0.04912
1342.0,0.05198
1343.0,0.02951
1344.0,0.01819
1345.0,0.02607
1346.0,0.009942
1347.0,0.009602
1348.0,0.0003512
1349.0,0.00146
1350.0,0.001682
1351.0,0.0002409
1352.0,3.375e-05
1353.0,9.958e-07
1354.0,5.181e-06
1355.0,1.218e-08
1356.0,4.757e-07
1357.0,7.258e-07
1358.0,1.513e-08
1359.0,7.938e-10
1360.0,4.99e-09
1361.0,1.382e-12
1362.0,2.943e-15
1363.0,4.642e-09
1364.0,2.033e-09
1365.0,8.549e-16
1366.0,2.524e-08
1367.0,1.343e-08
1368.0,6.123e-18
1369.0,7.461e-10
1370.0,2.609e-10
1371.0,1.082e-11
1372.0,7.58e-09
1373.0,2.759e-07
1374.0,1.992e-06
1375.0,3.295e-06
1376.0,4.799e-06
1377.0,2.021e-06
1378.0,2.215e-05
1379.0,8.583e-07
1380.0,8.976e-07
1381.0,1.949e-08
1382.0,6.064e-09
1383.0,7.174e-11
1384.0,7.145e-10
1385.0,9.283e-09
1386.0,4.066e-09
1387.0,1.449e-06
1388.0,3.398e-08
1389.0,8.565e-06
1390.0,7.061e-06
1391.0,4.48e-06
1392.0,2.734e-07
1393.0,1.805e-06
1394.0,4.199e-07
1395.0,2.124e-09
1396.0,2.173e-12
1397.0,6.062e-07
1398.0,2.312e-05
1399.0,1.518e-05
1400.0,7.176e-13
1401.0,4.343e-12
1402.0,8.622e-05
1403.0,9.36e-05
1404.0,2.657e-05
1405.0,7.381e-10
1406.0,5.39e-05
1407.0,6.333e-06
1408.0,4.638e-05
1409.0,1.062e-05
1410.0,1.184e-05
1411.0,8.493e-05
1412.0,0.0001379
1413.0,0.002279
1414.0,9.91e-06
1415.0,4.037e-06
1416.0,0.005353
1417.0,0.001189
1418.0,0.001199
1419.0,0.0001731
1420.0,0.0007242
1421.0,0.0008461
1422.0,0.007029
1423.0,0.00127
1424.0,0.002542
1425.0,0.003425
1426.0,0.004549
1427.0,0.00975
1428.0,0.0003102
1429.0,0.006491
1430.0,0.01323
1431.0,0.01508
1432.0,0.000239
1433.0,0.008886
1434.0,0.004181
