interpolation:linear
wavelength,value
280.0,7.809000000000001e-20
280.5,2.136e-18
281.0,1.747e-19
281.5,4.931e-19
282.0,2.304e-18
282.5,6.652e-18
283.0,2.241e-17
283.5,3.713e-17
284.0,5.873e-16
284.5,1.657e-15
285.0,3.707e-15
285.5,2.38e-14
286.0,1.032e-13
286.5,5.135e-13
287.0,1.558e-12
287.5,6.328e-12
288.0,1.897e-11
288.5,7.585e-11
289.0,2.569e-10
289.5,9.744e-10
290.0,3.217e-09
290.5,7.551e-09
291.0,1.902e-08
291.5,6.616e-08
292.0,1.713e-07
292.5,2.675e-07
293.0,6.566e-07
293.5,1.925e-06
294.0,3.474e-06
294.5,4.482e-06
295.0,8.614e-06
295.5,2.016e-05
296.0,3.781e-05
296.5,5.139e-05
297.0,6.788e-05
297.5,0.0001754
298.0,0.0002675
298.5,0.0002624
299.0,0.0005641
299.5,0.0008941
300.0,0.0009586
300.5,0.001352
301.0,0.002339
301.5,0.003578
302.0,0.002998
302.5,0.005617
303.0,0.009557
303.5,0.01162
304.0,0.01066
304.5,0.01495
305.0,0.02079
305.5,0.02256
306.0,0.02139
306.5,0.02573
307.0,0.03544
307.5,0.04391
308.0,0.04585
308.5,0.05233
309.0,0.05025
309.5,0.05481
310.0,0.05384
310.5,0.08623
311.0,0.1062
311.5,0.1017
312.0,0.09764
312.5,0.1156
313.0,0.1236
313.5,0.1216
314.0,0.1472
314.5,0.1249
315.0,0.1629
315.5,0.1391
316.0,0.1173
316.5,0.1634
317.0,0.2029
317.5,0.213
318.0,0.1627
318.5,0.1941
319.0,0.2258
319.5,0.19
320.0,0.2306
320.5,0.2771
321.0,0.2379
321.5,0.2273
322.0,0.2518
322.5,0.2186
323.0,0.2122
323.5,0.2545
324.0,0.2957
324.5,0.3033
325.0,0.2656
325.5,0.3346
326.0,0.4064
326.5,0.4014
327.0,0.402
327.5,0.3907
328.0,0.3542
328.5,0.3641
329.0,0.4284
329.5,0.4836
330.0,0.4899
330.5,0.3973
331.0,0.4065
331.5,0.409
332.0,0.4355
332.5,0.4279
333.0,0.4282
333.5,0.3916
334.0,0.4019
334.5,0.4581
335.0,0.4274
335.5,0.4991
336.0,0.3453
336.5,0.4056
337.0,0.3344
337.5,0.4166
338.0,0.4028
338.5,0.4647
339.0,0.4597
339.5,0.4422
340.0,0.5197
340.5,0.4679
341.0,0.4565
341.5,0.4189
342.0,0.5005
342.5,0.4681
343.0,0.5149
343.5,0.4849
344.0,0.3581
344.5,0.3618
345.0,0.4786
345.5,0.4884
346.0,0.4149
346.5,0.4697
347.0,0.5043
347.5,0.4077
348.0,0.4646
348.5,0.4643
349.0,0.4306
349.5,0.4262
350.0,0.5271
350.5,0.5559
351.0,0.4966
351.5,0.4828
352.0,0.5183
352.5,0.4043
353.0,0.5091
353.5,0.5443
354.0,0.565
354.5,0.573
355.0,0.571
355.5,0.5157
356.0,0.5395
356.5,0.4606
357.0,0.3806
357.5,0.4659
358.0,0.3692
358.5,0.3155
359.0,0.4413
359.5,0.5624
360.0,0.5961
360.5,0.4764
361.0,0.4342
361.5,0.4998
362.0,0.4321
362.5,0.5978
363.0,0.5368
363.5,0.4944
364.0,0.6045
364.5,0.5167
365.0,0.5262
365.5,0.6603
366.0,0.6995
366.5,0.6571
367.0,0.6399
367.5,0.664
368.0,0.581
368.5,0.5862
369.0,0.633
369.5,0.6747
370.0,0.7191
370.5,0.5581
371.0,0.5963
371.5,0.7459
372.0,0.4951
372.5,0.5936
373.0,0.6037
373.5,0.3928
374.0,0.5707
374.5,0.4726
375.0,0.4593
375.5,0.6858
376.0,0.5685
376.5,0.5891
377.0,0.6237
377.5,0.7296
378.0,0.7909
378.5,0.7475
379.0,0.6169
379.5,0.5636
380.0,0.5859
380.5,0.7096
381.0,0.711
381.5,0.5635
382.0,0.5004
382.5,0.4265
383.0,0.3948
383.5,0.3802
384.0,0.4194
384.5,0.6169
385.0,0.6117
385.5,0.5696
386.0,0.4878
386.5,0.6407
387.0,0.5324
387.5,0.598
388.0,0.5521
388.5,0.5457
389.0,0.5891
389.5,0.7134
390.0,0.716
390.5,0.6589
391.0,0.7755
391.5,0.791
392.0,0.6662
392.5,0.5964
393.0,0.3318
393.5,0.2412
394.0,0.4908
394.5,0.6239
395.0,0.7613
395.5,0.7734
396.0,0.6705
396.5,0.3919
397.0,0.2941
397.5,0.5981
398.0,0.8376
398.5,0.8658
399.0,0.9373
399.5,0.9342
400.0,0.9702
401.0,0.9861
402.0,1.04
403.0,0.9879
404.0,0.9726
405.0,0.9724
406.0,0.9563
407.0,0.9407
408.0,0.9775
409.0,1.046
410.0,0.9139
411.0,0.9897
412.0,1.063
413.0,1.036
414.0,1.049
415.0,1.051
416.0,1.07
417.0,1.043
418.0,1.024
419.0,1.037
420.0,1.032
421.0,1.08
422.0,1.026
423.0,1.002
424.0,1.06
425.0,1.058
426.0,1.03
427.0,1.011
428.0,0.9848
429.0,0.9324
430.0,0.8159
431.0,0.8087
432.0,1.044
433.0,1.049
434.0,0.9745
435.0,1.018
436.0,1.146
437.0,1.13
438.0,1.029
439.0,1.065
440.0,1.099
441.0,1.138
442.0,1.22
443.0,1.189
444.0,1.214
445.0,1.188
446.0,1.133
447.0,1.225
448.0,1.244
449.0,1.249
450.0,1.283
451.0,1.331
452.0,1.282
453.0,1.205
454.0,1.258
455.0,1.266
456.0,1.296
457.0,1.317
458.0,1.272
459.0,1.266
460.0,1.269
461.0,1.298
462.0,1.308
463.0,1.299
464.0,1.277
465.0,1.26
466.0,1.272
467.0,1.249
468.0,1.264
469.0,1.27
470.0,1.23
471.0,1.228
472.0,1.294
473.0,1.277
474.0,1.28
475.0,1.291
476.0,1.253
477.0,1.257
478.0,1.292
479.0,1.283
480.0,1.285
481.0,1.309
482.0,1.315
483.0,1.298
484.0,1.271
485.0,1.211
486.0,1.058
487.0,1.109
488.0,1.216
489.0,1.22
490.0,1.284
491.0,1.261
492.0,1.191
493.0,1.23
494.0,1.242
495.0,1.252
496.0,1.26
497.0,1.28
498.0,1.22
499.0,1.236
500.0,1.2
501.0,1.178
502.0,1.163
503.0,1.211
504.0,1.182
505.0,1.223
506.0,1.262
507.0,1.201
508.0,1.163
509.0,1.195
510.0,1.188
511.0,1.219
512.0,1.232
513.0,1.166
514.0,1.158
515.0,1.147
516.0,1.144
517.0,1.016
518.0,1.068
519.0,1.121
520.0,1.162
521.0,1.173
522.0,1.174
523.0,1.153
524.0,1.195
525.0,1.209
526.0,1.155
527.0,1.089
528.0,1.152
529.0,1.215
530.0,1.198
531.0,1.215
532.0,1.174
533.0,1.139
534.0,1.173
535.0,1.198
536.0,1.209
537.0,1.161
538.0,1.181
539.0,1.171
540.0,1.123
541.0,1.131
542.0,1.167
543.0,1.154
544.0,1.175
545.0,1.171
546.0,1.177
547.0,1.176
548.0,1.162
549.0,1.165
550.0,1.179
551.0,1.164
552.0,1.172
553.0,1.151
554.0,1.179
555.0,1.182
556.0,1.166
557.0,1.13
558.0,1.122
559.0,1.102
560.0,1.115
561.0,1.13
562.0,1.122
563.0,1.154
564.0,1.123
565.0,1.113
566.0,1.097
567.0,1.118
568.0,1.11
569.0,1.085
570.0,1.085
571.0,1.078
572.0,1.105
573.0,1.117
574.0,1.114
575.0,1.094
576.0,1.084
577.0,1.095
578.0,1.078
579.0,1.081
580.0,1.1
581.0,1.105
582.0,1.125
583.0,1.127
584.0,1.136
585.0,1.108
586.0,1.085
587.0,1.109
588.0,1.085
589.0,0.967
590.0,1.011
591.0,1.066
592.0,1.055
593.0,1.068
594.0,1.062
595.0,1.037
596.0,1.074
597.0,1.063
598.0,1.059
599.0,1.059
600.0,1.06
601.0,1.05
602.0,1.043
603.0,1.06
604.0,1.077
605.0,1.071
606.0,1.067
607.0,1.077
608.0,1.064
609.0,1.066
610.0,1.058
611.0,1.063
612.0,1.06
613.0,1.046
614.0,1.031
615.0,1.053
616.0,1.018
617.0,1.016
618.0,1.055
619.0,1.044
620.0,1.051
621.0,1.052
622.0,1.04
623.0,1.025
624.0,1.007
625.0,1.005
626.0,1.02
627.0,1.032
628.0,0.9755
629.0,1.012
630.0,0.9886
631.0,1.007
632.0,0.9942
633.0,1.023
634.0,1.012
635.0,1.027
636.0,1.012
637.0,1.028
638.0,1.037
639.0,1.025
640.0,1.015
641.0,1.014
642.0,1.009
643.0,1.022
644.0,1.019
645.0,1.02
646.0,0.9981
647.0,0.9894
648.0,0.9907
649.0,0.9717
650.0,0.9723
651.0,1.014
652.0,0.976
653.0,1.0
654.0,0.9885
655.0,0.9539
656.0,0.8439
657.0,0.8664
658.0,0.9697
659.0,0.9761
660.0,0.9799
661.0,0.9867
662.0,0.9895
663.0,0.9696
664.0,0.9799
665.0,0.9799
666.0,0.9802
667.0,0.9789
668.0,0.9789
669.0,0.9937
670.0,0.9892
671.0,0.9888
672.0,0.9802
673.0,0.9948
674.0,0.9909
675.0,0.9817
676.0,0.9883
677.0,0.9783
678.0,0.9809
679.0,0.965
680.0,0.9726
681.0,0.9661
682.0,0.9649
683.0,0.963
684.0,0.9582
685.0,0.9662
686.0,0.9607
687.0,0.6893
688.0,0.7829
689.0,0.7849
690.0,0.815
691.0,0.8486
692.0,0.8721
693.0,0.8658
694.0,0.8587
695.0,0.888
696.0,0.8893
697.0,0.9358
698.0,0.9215
699.0,0.9045
700.0,0.8937
701.0,0.8862
702.0,0.8904
703.0,0.8921
704.0,0.9175
705.0,0.9189
706.0,0.9169
707.0,0.9171
708.0,0.9192
709.0,0.9187
710.0,0.9195
711.0,0.9177
712.0,0.9141
713.0,0.9056
714.0,0.9089
715.0,0.8821
716.0,0.8831
717.0,0.7848
718.0,0.7242
719.0,0.6654
720.0,0.6984
721.0,0.7591
722.0,0.8557
723.0,0.8033
724.0,0.7313
725.0,0.7223
726.0,0.7546
727.0,0.761
728.0,0.7213
729.0,0.7414
730.0,0.7843
731.0,0.7526
732.0,0.7979
733.0,0.8376
734.0,0.8557
735.0,0.8389
736.0,0.8378
737.0,0.8413
738.0,0.8497
739.0,0.8331
740.0,0.8534
741.0,0.8441
742.0,0.8441
743.0,0.8653
744.0,0.8623
745.0,0.8621
746.0,0.866
747.0,0.8678
748.0,0.866
749.0,0.8561
750.0,0.8555
751.0,0.8468
752.0,0.8504
753.0,0.8546
754.0,0.8566
755.0,0.8518
756.0,0.8513
757.0,0.8526
758.0,0.8421
759.0,0.8276
760.0,0.1907
761.0,0.1123
762.0,0.476
763.0,0.2701
764.0,0.3772
765.0,0.4763
766.0,0.5594
767.0,0.6812
768.0,0.7669
769.0,0.7787
770.0,0.8004
771.0,0.8048
772.0,0.8058
773.0,0.8113
774.0,0.8072
775.0,0.801
776.0,0.8107
777.0,0.7999
778.0,0.7951
779.0,0.7958
780.0,0.7913
781.0,0.7921
782.0,0.797
783.0,0.783
784.0,0.7867
785.0,0.7811
786.0,0.7898
787.0,0.778
788.0,0.7693
789.0,0.7692
790.0,0.7517
791.0,0.7554
792.0,0.7495
793.0,0.7377
794.0,0.7472
795.0,0.7606
796.0,0.7412
797.0,0.7423
798.0,0.7601
799.0,0.756
800.0,0.7439
801.0,0.7424
802.0,0.7402
803.0,0.735
804.0,0.7356
805.0,0.7322
806.0,0.7509
807.0,0.7422
808.0,0.7427
809.0,0.7302
810.0,0.7253
811.0,0.7281
812.0,0.71
813.0,0.697
814.0,0.6225
815.0,0.6184
816.0,0.5769
817.0,0.5863
818.0,0.5665
819.0,0.6251
820.0,0.5919
821.0,0.6807
822.0,0.6631
823.0,0.4689
824.0,0.6477
825.0,0.6694
826.0,0.6474
827.0,0.6796
828.0,0.5863
829.0,0.6428
830.0,0.6354
831.0,0.6373
832.0,0.6196
833.0,0.654
834.0,0.6342
835.0,0.6896
836.0,0.6645
837.0,0.6912
838.0,0.6716
839.0,0.6803
840.0,0.6947
841.0,0.6857
842.0,0.6859
843.0,0.6842
844.0,0.6754
845.0,0.6972
846.0,0.6939
847.0,0.6806
848.0,0.6769
849.0,0.6577
850.0,0.6301
851.0,0.6677
852.0,0.6627
853.0,0.6374
854.0,0.5508
855.0,0.6046
856.0,0.6609
857.0,0.6753
858.0,0.6705
859.0,0.6708
860.0,0.6718
861.0,0.6682
862.0,0.6786
863.0,0.6946
864.0,0.6599
865.0,0.6541
866.0,0.5881
867.0,0.6137
868.0,0.6678
869.0,0.6539
870.0,0.6726
871.0,0.6634
872.0,0.661
873.0,0.6597
874.0,0.6518
875.0,0.6387
876.0,0.6453
877.0,0.6518
878.0,0.659
879.0,0.6488
880.0,0.6349
881.0,0.6257
882.0,0.6393
883.0,0.641
884.0,0.6382
885.0,0.643
886.0,0.6138
887.0,0.6196
888.0,0.6292
889.0,0.6355
890.0,0.6312
891.0,0.6296
892.0,0.6127
893.0,0.5952
894.0,0.5773
895.0,0.5494
896.0,0.5194
897.0,0.4515
898.0,0.4896
899.0,0.379
900.0,0.498
901.0,0.397
902.0,0.4571
903.0,0.4645
904.0,0.5729
905.0,0.555
906.0,0.5208
907.0,0.4311
908.0,0.4385
909.0,0.4712
910.0,0.4235
911.0,0.4473
912.0,0.4661
913.0,0.4301
914.0,0.4253
915.0,0.4604
916.0,0.3917
917.0,0.4897
918.0,0.4019
919.0,0.4968
920.0,0.4984
921.0,0.5176
922.0,0.4675
923.0,0.4997
924.0,0.4795
925.0,0.4692
926.0,0.4744
927.0,0.5264
928.0,0.3994
929.0,0.3681
930.0,0.2949
931.0,0.2785
932.0,0.2063
933.0,0.1707
934.0,0.1002
935.0,0.1721
936.0,0.1116
937.0,0.1136
938.0,0.1381
939.0,0.2699
940.0,0.3207
941.0,0.2474
942.0,0.283
943.0,0.1903
944.0,0.1967
945.0,0.2541
946.0,0.135
947.0,0.2567
948.0,0.1895
949.0,0.3381
950.0,0.1028
951.0,0.3319
952.0,0.1857
953.0,0.235
954.0,0.2828
955.0,0.2371
956.0,0.2275
957.0,0.1868
958.0,0.3147
959.0,0.2559
960.0,0.2866
961.0,0.3173
962.0,0.3008
963.0,0.3429
964.0,0.3154
965.0,0.3411
966.0,0.3421
967.0,0.3411
968.0,0.444
969.0,0.4647
970.0,0.4286
971.0,0.4849
972.0,0.4649
973.0,0.4106
974.0,0.3906
975.0,0.4031
976.0,0.3859
977.0,0.433
978.0,0.4139
979.0,0.4317
980.0,0.407
981.0,0.4818
982.0,0.4628
983.0,0.4455
984.0,0.4941
985.0,0.461
986.0,0.5014
987.0,0.4931
988.0,0.4922
989.0,0.499
990.0,0.4891
991.0,0.5006
992.0,0.5034
993.0,0.4937
994.0,0.5031
995.0,0.5022
996.0,0.5002
997.0,0.5008
998.0,0.4986
999.0,0.4967
1000.0,0.4935
1001.0,0.4993
1002.0,0.487
1003.0,0.4906
1004.0,0.4789
1005.0,0.4609
1006.0,0.4791
1007.0,0.4892
1008.0,0.4868
1009.0,0.4845
1010.0,0.4826
1011.0,0.4866
1012.0,0.4827
1013.0,0.4854
1014.0,0.482
1015.0,0.4788
1016.0,0.4767
1017.0,0.478
1018.0,0.476
1019.0,0.4664
1020.0,0.4736
1021.0,0.4728
1022.0,0.4694
1023.0,0.4744
1024.0,0.4688
1025.0,0.4739
1026.0,0.472
1027.0,0.4709
1028.0,0.4699
1029.0,0.4644
1030.0,0.4674
1031.0,0.4656
1032.0,0.4642
1033.0,0.4572
1034.0,0.4572
1035.0,0.4586
1036.0,0.4611
1037.0,0.4536
1038.0,0.4556
1039.0,0.4554
1040.0,0.4535
1041.0,0.4554
1042.0,0.4522
1043.0,0.4508
1044.0,0.4524
1045.0,0.4463
1046.0,0.4414
1047.0,0.4454
1048.0,0.4479
1049.0,0.4463
1050.0,0.4443
1051.0,0.4438
1052.0,0.442
1053.0,0.4386
1054.0,0.4396
1055.0,0.4399
1056.0,0.4385
1057.0,0.4372
1058.0,0.4265
1059.0,0.427
1060.0,0.4264
1061.0,0.426
1062.0,0.4283
1063.0,0.4241
1064.0,0.4291
1065.0,0.4262
1066.0,0.4177
1067.0,0.4231
1068.0,0.414
1069.0,0.4011
1070.0,0.4149
1071.0,0.4208
1072.0,0.4164
1073.0,0.4103
1074.0,0.4203
1075.0,0.4008
1076.0,0.4201
1077.0,0.4134
1078.0,0.4059
1079.0,0.4131
1080.0,0.4071
1081.0,0.3947
1082.0,0.3998
1083.0,0.4007
1084.0,0.3942
1085.0,0.4078
1086.0,0.3746
1087.0,0.3848
1088.0,0.4005
1089.0,0.3897
1090.0,0.3821
1091.0,0.3996
1092.0,0.3983
1093.0,0.3421
1094.0,0.365
1095.0,0.3558
1096.0,0.342
1097.0,0.389
1098.0,0.3371
1099.0,0.351
1100.0,0.3283
1101.0,0.3318
1102.0,0.3181
1103.0,0.3159
1104.0,0.3162
1105.0,0.3433
1106.0,0.2702
1107.0,0.3276
1108.0,0.2823
1109.0,0.2819
1110.0,0.3253
1111.0,0.2268
1112.0,0.2793
1113.0,0.1843
1114.0,0.2052
1115.0,0.1703
1116.0,0.1399
1117.0,0.05584
1118.0,0.1508
1119.0,0.07831
1120.0,0.09869
1121.0,0.1288
1122.0,0.05724
1123.0,0.08906
1124.0,0.07522
1125.0,0.09729
1126.0,0.0369
1127.0,0.1095
1128.0,0.06875
1129.0,0.07245
1130.0,0.04909
1131.0,0.2
1132.0,0.1583
1133.0,0.1044
1134.0,0.02922
1135.0,0.01083
1136.0,0.08856
1137.0,0.1976
1138.0,0.1401
1139.0,0.2013
1140.0,0.1711
1141.0,0.1331
1142.0,0.1515
1143.0,0.212
1144.0,0.07797
1145.0,0.1006
1146.0,0.1085
1147.0,0.04136
1148.0,0.1836
1149.0,0.1489
1150.0,0.08361
1151.0,0.1391
1152.0,0.1684
1153.0,0.162
1154.0,0.09812
1155.0,0.2101
1156.0,0.1907
1157.0,0.2117
1158.0,0.2093
1159.0,0.2237
1160.0,0.1936
1161.0,0.234
1162.0,0.2355
1163.0,0.3101
1164.0,0.2689
1165.0,0.2564
1166.0,0.2527
1167.0,0.2738
1168.0,0.2774
1169.0,0.283
1170.0,0.3052
1171.0,0.2979
1172.0,0.3019
1173.0,0.3045
1174.0,0.224
1175.0,0.2964
1176.0,0.3226
1177.0,0.3118
1178.0,0.2392
1179.0,0.3251
1180.0,0.2938
1181.0,0.3028
1182.0,0.2145
1183.0,0.2974
1184.0,0.2805
1185.0,0.2723
1186.0,0.3174
1187.0,0.304
1188.0,0.2186
1189.0,0.2836
1190.0,0.3102
1191.0,0.2974
1192.0,0.3142
1193.0,0.3021
1194.0,0.3107
1195.0,0.2959
1196.0,0.2863
1197.0,0.3097
1198.0,0.2849
1199.0,0.247
1200.0,0.2985
1201.0,0.2895
1202.0,0.2868
1203.0,0.2845
1204.0,0.2514
1205.0,0.2921
1206.0,0.32
1207.0,0.2866
1208.0,0.2806
1209.0,0.2861
1210.0,0.2969
1211.0,0.2846
1212.0,0.2832
1213.0,0.3105
1214.0,0.289
1215.0,0.284
1216.0,0.3094
1217.0,0.3022
1218.0,0.307
1219.0,0.3037
1220.0,0.3072
1221.0,0.3097
1222.0,0.3022
1223.0,0.2998
1224.0,0.2986
1225.0,0.3078
1226.0,0.3093
1227.0,0.2877
1228.0,0.3103
1229.0,0.3093
1230.0,0.3045
1231.0,0.3116
1232.0,0.3098
1233.0,0.3011
1234.0,0.311
1235.0,0.3093
1236.0,0.3113
1237.0,0.3077
1238.0,0.3102
1239.0,0.3063
1240.0,0.3073
1241.0,0.3064
1242.0,0.3053
1243.0,0.3028
1244.0,0.3051
1245.0,0.3063
1246.0,0.3045
1247.0,0.3034
1248.0,0.3035
1249.0,0.3042
1250.0,0.3025
1251.0,0.2989
1252.0,0.2986
1253.0,0.2968
1254.0,0.2944
1255.0,0.2984
1256.0,0.2913
1257.0,0.2899
1258.0,0.2944
1259.0,0.2856
1260.0,0.2869
1261.0,0.2732
1262.0,0.2663
1263.0,0.2668
1264.0,0.2493
1265.0,0.2651
1266.0,0.2568
1267.0,0.2601
1268.0,0.2486
1269.0,0.1674
1270.0,0.2596
1271.0,0.272
1272.0,0.2726
1273.0,0.27
1274.0,0.2705
1275.0,0.2739
1276.0,0.2761
1277.0,0.2774
1278.0,0.2817
1279.0,0.2793
1280.0,0.2757
1281.0,0.2626
1282.0,0.2523
1283.0,0.2719
1284.0,0.2785
1285.0,0.2803
1286.0,0.2836
1287.0,0.28
1288.0,0.2798
1289.0,0.2724
1290.0,0.2772
1291.0,0.2808
1292.0,0.2666
1293.0,0.276
1294.0,0.2742
1295.0,0.2736
1296.0,0.263
1297.0,0.2502
1298.0,0.2665
1299.0,0.2761
1300.0,0.2386
1301.0,0.245
1302.0,0.2655
1303.0,0.235
1304.0,0.2051
1305.0,0.2604
1306.0,0.2607
1307.0,0.2078
1308.0,0.2346
1309.0,0.2591
1310.0,0.2041
1311.0,0.2259
1312.0,0.2206
1313.0,0.2171
1314.0,0.1959
1315.0,0.1944
1316.0,0.2231
1317.0,0.2119
1318.0,0.2284
1319.0,0.184
1320.0,0.1771
1321.0,0.2044
1322.0,0.2073
1323.0,0.1605
1324.0,0.1804
1325.0,0.2202
1326.0,0.1919
1327.0,0.1837
1328.0,0.1599
1329.0,0.1239
1330.0,0.1593
1331.0,0.1007
1332.0,0.1024
1333.0,0.1414
1334.0,0.1178
1335.0,0.1598
1336.0,0.1287
1337.0,0.1151
1338.0,0.1245
1339.0,0.1233
1340.0,0.1188
1341.0,0.1186
1342.0,0.1244
1343.0,0.08989
1344.0,0.05362
1345.0,0.07678
1346.0,0.04194
1347.0,0.04329
1348.0,0.003577
1349.0,0.01196
1350.0,0.01181
1351.0,0.003562
1352.0,0.001204
1353.0,7.992e-05
1354.0,0.0002338
1355.0,3.191e-06
1356.0,3.99e-05
1357.0,6.027e-05
1358.0,3.701e-06
1359.0,6.867e-07
1360.0,1.944e-06
1361.0,5.013e-09
1362.0,1.998e-11
1363.0,2.905e-06
1364.0,1.251e-06
1365.0,1.091e-11
1366.0,1.143e-05
1367.0,4.451e-06
1368.0,2.039e-13
1369.0,4.804e-07
1370.0,2.786e-07
1371.0,1.958e-08
1372.0,2.456e-06
1373.0,3.78e-05
1374.0,0.0001465
1375.0,0.0002656
1376.0,0.0002085
1377.0,9.977e-05
1378.0,0.0008898
1379.0,4.238e-05
1380.0,6.78e-05
1381.0,2.006e-06
1382.0,2.318e-06
1383.0,4.108e-08
1384.0,5.782e-07
1385.0,1.836e-06
1386.0,2.306e-06
1387.0,0.0001676
1388.0,3.428e-06
1389.0,0.0004694
1390.0,0.0004034
1391.0,0.0002816
1392.0,1.975e-05
1393.0,9.453e-05
1394.0,6.472e-05
1395.0,6.001e-07
1396.0,6.473e-09
1397.0,4.058e-05
1398.0,0.001015
1399.0,0.0006438
1400.0,3.463e-09
1401.0,1.076e-08
1402.0,0.001416
1403.0,0.001856
1404.0,0.000577
1405.0,3.363e-07
1406.0,0.001611
1407.0,0.0001375
1408.0,0.001303
1409.0,0.0004999
1410.0,0.0003715
1411.0,0.00162
1412.0,0.002052
1413.0,0.01739
1414.0,0.0002889
1415.0,0.0001481
1416.0,0.02585
1417.0,0.008747
1418.0,0.01004
1419.0,0.001604
1420.0,0.00618
1421.0,0.006732
1422.0,0.03348
1423.0,0.00674
1424.0,0.01241
1425.0,0.01858
1426.0,0.02026
1427.0,0.03533
1428.0,0.00342
1429.0,0.02726
1430.0,0.0444
1431.0,0.04825
1432.0,0.002718
1433.0,0.03141
1434.0,0.01634
1435.0,0.01757
1436.0,0.03195
1437.0,0.02449
1438.0,0.01089
1439.0,0.04259
1440.0,0.032
1441.0,0.02531
1442.0,0.02789
1443.0,0.03363
1444.0,0.04597
1445.0,0.03709
1446.0,0.01703
1447.0,0.02678
1448.0,0.0827
1449.0,0.07289
1450.0,0.01982
1451.0,0.008231
1452.0,0.04491
1453.0,0.05835
1454.0,0.09647
1455.0,0.04686
