interpolation:linear
wavelength,value
280.0,3.208e-22
280.5,1.0530000000000001e-20
281.0,5.641e-20
281.5,4.159e-19
282.0,6.869e-19
282.5,1.704e-18
283.0,5.388e-18
283.5,8.77e-18
284.0,1.442e-16
284.5,4.204e-16
285.0,6.983e-16
285.5,3.483e-15
286.0,1.404e-14
286.5,6.318e-14
287.0,1.812e-13
287.5,6.982e-13
288.0,2.396e-12
288.5,7.238e-12
289.0,1.926e-11
289.5,5.809e-11
290.0,1.612e-10
290.5,3.285e-10
291.0,7.051e-10
291.5,2.024e-09
292.0,4.111e-09
292.5,5.781e-09
293.0,1.243e-08
293.5,3.037e-08
294.0,4.758e-08
294.5,6.514e-08
295.0,1.106e-07
295.5,1.882e-07
296.0,3.673e-07
296.5,5.205e-07
297.0,7.125e-07
297.5,1.952e-06
298.0,3.141e-06
298.5,3.217e-06
299.0,7.232e-06
299.5,1.249e-05
300.0,1.409e-05
300.5,2.097e-05
301.0,3.988e-05
301.5,6.674e-05
302.0,5.86e-05
302.5,0.0001183
303.0,0.0002229
303.5,0.0002913
304.0,0.0002835
304.5,0.0004645
305.0,0.0008057
305.5,0.001006
306.0,0.001008
306.5,0.001329
307.0,0.00224
307.5,0.003377
308.0,0.003641
308.5,0.00458
309.0,0.004681
309.5,0.005879
310.0,0.006164
310.5,0.0102
311.0,0.01325
311.5,0.01298
312.0,0.01399
312.5,0.01787
313.0,0.01989
313.5,0.01886
314.0,0.02501
314.5,0.02395
315.0,0.03191
315.5,0.02572
316.0,0.02391
316.5,0.03622
317.0,0.04493
317.5,0.04606
318.0,0.03727
318.5,0.0496
319.0,0.06096
319.5,0.04699
320.0,0.05631
320.5,0.07563
321.0,0.07174
321.5,0.06923
322.0,0.06897
322.5,0.06022
323.0,0.06269
323.5,0.08026
324.0,0.09437
324.5,0.09412
325.0,0.07954
325.5,0.106
326.0,0.131
326.5,0.1342
327.0,0.1327
327.5,0.1268
328.0,0.1096
328.5,0.1195
329.0,0.1474
329.5,0.1689
330.0,0.1692
330.5,0.1324
331.0,0.1339
331.5,0.1385
332.0,0.1533
332.5,0.1534
333.0,0.152
333.5,0.1352
334.0,0.1381
334.5,0.1628
335.0,0.1548
335.5,0.1814
336.0,0.1255
336.5,0.1459
337.0,0.1187
337.5,0.1472
338.0,0.1462
338.5,0.1696
339.0,0.1681
339.5,0.1617
340.0,0.1894
340.5,0.171
341.0,0.1673
341.5,0.154
342.0,0.1842
342.5,0.1725
343.0,0.1896
343.5,0.1785
344.0,0.1316
344.5,0.1332
345.0,0.1767
345.5,0.1808
346.0,0.1538
346.5,0.1743
347.0,0.1871
347.5,0.1513
348.0,0.1728
348.5,0.1729
349.0,0.1606
349.5,0.1591
350.0,0.1969
350.5,0.2078
351.0,0.1856
351.5,0.1802
352.0,0.1939
352.5,0.1515
353.0,0.1911
353.5,0.2045
354.0,0.2125
354.5,0.2156
355.0,0.2149
355.5,0.1943
356.0,0.2035
356.5,0.1738
357.0,0.1437
357.5,0.176
358.0,0.1395
358.5,0.1193
359.0,0.1669
359.5,0.2127
360.0,0.2256
360.5,0.1805
361.0,0.1647
361.5,0.1898
362.0,0.1644
362.5,0.2277
363.0,0.2047
363.5,0.1888
364.0,0.2311
364.5,0.1976
365.0,0.2014
365.5,0.2529
366.0,0.2682
366.5,0.2523
367.0,0.2458
367.5,0.2553
368.0,0.2235
368.5,0.2257
369.0,0.2439
369.5,0.2602
370.0,0.2776
370.5,0.2156
371.0,0.2305
371.5,0.2886
372.0,0.1916
372.5,0.2299
373.0,0.2341
373.5,0.1524
374.0,0.2216
374.5,0.1837
375.0,0.1787
375.5,0.2669
376.0,0.2214
376.5,0.2295
377.0,0.2432
377.5,0.2847
378.0,0.3088
378.5,0.292
379.0,0.241
379.5,0.2202
380.0,0.2291
380.5,0.2777
381.0,0.2786
381.5,0.2211
382.0,0.1965
382.5,0.1677
383.0,0.1554
383.5,0.1498
384.0,0.1653
384.5,0.2434
385.0,0.2415
385.5,0.2251
386.0,0.1929
386.5,0.2537
387.0,0.2109
387.5,0.237
388.0,0.219
388.5,0.2166
389.0,0.234
389.5,0.2836
390.0,0.2848
390.5,0.2623
391.0,0.309
391.5,0.3153
392.0,0.2657
392.5,0.2381
393.0,0.1326
393.5,0.09646
394.0,0.1964
394.5,0.2499
395.0,0.3051
395.5,0.3101
396.0,0.269
396.5,0.1574
397.0,0.1182
397.5,0.2406
398.0,0.337
398.5,0.3485
399.0,0.3778
399.5,0.3768
400.0,0.3913
401.0,0.3949
402.0,0.4173
403.0,0.397
404.0,0.3913
405.0,0.3917
406.0,0.3859
407.0,0.3802
408.0,0.3953
409.0,0.4236
410.0,0.3706
411.0,0.4019
412.0,0.4324
413.0,0.422
414.0,0.4277
415.0,0.4294
416.0,0.4375
417.0,0.4272
418.0,0.4197
419.0,0.4257
420.0,0.4242
421.0,0.4443
422.0,0.4226
423.0,0.4132
424.0,0.4373
425.0,0.437
426.0,0.4264
427.0,0.4188
428.0,0.4083
429.0,0.3874
430.0,0.3394
431.0,0.3364
432.0,0.435
433.0,0.4378
434.0,0.4067
435.0,0.425
436.0,0.4795
437.0,0.4738
438.0,0.4319
439.0,0.4463
440.0,0.461
441.0,0.4783
442.0,0.5133
443.0,0.4998
444.0,0.5113
445.0,0.5003
446.0,0.4783
447.0,0.5179
448.0,0.5257
449.0,0.5288
450.0,0.5441
451.0,0.5646
452.0,0.5444
453.0,0.5124
454.0,0.5356
455.0,0.539
456.0,0.5522
457.0,0.5615
458.0,0.5421
459.0,0.5396
460.0,0.5409
461.0,0.5536
462.0,0.5585
463.0,0.5547
464.0,0.5464
465.0,0.5404
466.0,0.5463
467.0,0.5361
468.0,0.5425
469.0,0.5455
470.0,0.528
471.0,0.5276
472.0,0.556
473.0,0.5488
474.0,0.5492
475.0,0.5533
476.0,0.536
477.0,0.537
478.0,0.5522
479.0,0.5493
480.0,0.5508
481.0,0.5618
482.0,0.5655
483.0,0.5595
484.0,0.5486
485.0,0.5232
486.0,0.458
487.0,0.4805
488.0,0.5272
489.0,0.5286
490.0,0.5565
491.0,0.5473
492.0,0.5169
493.0,0.534
494.0,0.5395
495.0,0.5442
496.0,0.5476
497.0,0.556
498.0,0.5299
499.0,0.5364
500.0,0.5204
501.0,0.5103
502.0,0.5022
503.0,0.5216
504.0,0.5055
505.0,0.5259
506.0,0.5429
507.0,0.5168
508.0,0.5016
509.0,0.5164
510.0,0.5142
511.0,0.5286
512.0,0.5347
513.0,0.5062
514.0,0.503
515.0,0.498
516.0,0.4967
517.0,0.4415
518.0,0.4641
519.0,0.4868
520.0,0.5044
521.0,0.5091
522.0,0.5092
523.0,0.4999
524.0,0.5173
525.0,0.5226
526.0,0.499
527.0,0.4696
528.0,0.4962
529.0,0.5225
530.0,0.5148
531.0,0.5221
532.0,0.5041
533.0,0.4893
534.0,0.504
535.0,0.5154
536.0,0.5205
537.0,0.5002
538.0,0.5093
539.0,0.505
540.0,0.484
541.0,0.4863
542.0,0.5011
543.0,0.4965
544.0,0.5044
545.0,0.503
546.0,0.5045
547.0,0.5049
548.0,0.4992
549.0,0.5009
550.0,0.5069
551.0,0.5009
552.0,0.5044
553.0,0.4952
554.0,0.507
555.0,0.5078
556.0,0.5011
557.0,0.4852
558.0,0.4811
559.0,0.4716
560.0,0.4772
561.0,0.483
562.0,0.4789
563.0,0.4913
564.0,0.4774
565.0,0.4729
566.0,0.4655
567.0,0.4737
568.0,0.468
569.0,0.4539
570.0,0.4542
571.0,0.4522
572.0,0.4611
573.0,0.4657
574.0,0.4637
575.0,0.4544
576.0,0.4503
577.0,0.4555
578.0,0.4495
579.0,0.4527
580.0,0.4634
581.0,0.4674
582.0,0.4777
583.0,0.4801
584.0,0.4851
585.0,0.4737
586.0,0.464
587.0,0.4733
588.0,0.4581
589.0,0.3988
590.0,0.4176
591.0,0.4462
592.0,0.4381
593.0,0.4478
594.0,0.4433
595.0,0.4297
596.0,0.4525
597.0,0.4461
598.0,0.4467
599.0,0.4479
600.0,0.4501
601.0,0.4475
602.0,0.4446
603.0,0.4526
604.0,0.4604
605.0,0.4583
606.0,0.4571
607.0,0.4623
608.0,0.4579
609.0,0.4592
610.0,0.4566
611.0,0.4593
612.0,0.4584
613.0,0.453
614.0,0.4473
615.0,0.4576
616.0,0.443
617.0,0.4424
618.0,0.4598
619.0,0.4553
620.0,0.4582
621.0,0.4582
622.0,0.4523
623.0,0.445
624.0,0.4378
625.0,0.4369
626.0,0.4432
627.0,0.4468
628.0,0.4009
629.0,0.4305
630.0,0.42
631.0,0.4351
632.0,0.4309
633.0,0.4463
634.0,0.4439
635.0,0.4517
636.0,0.4468
637.0,0.4549
638.0,0.4606
639.0,0.4561
640.0,0.4525
641.0,0.4528
642.0,0.4514
643.0,0.4576
644.0,0.4568
645.0,0.4572
646.0,0.4445
647.0,0.4347
648.0,0.4352
649.0,0.4262
650.0,0.4341
651.0,0.454
652.0,0.4292
653.0,0.4483
654.0,0.4438
655.0,0.4243
656.0,0.3782
657.0,0.3887
658.0,0.4375
659.0,0.4414
660.0,0.4436
661.0,0.4469
662.0,0.4468
663.0,0.4383
664.0,0.4452
665.0,0.4468
666.0,0.4477
667.0,0.448
668.0,0.4489
669.0,0.4562
670.0,0.4545
671.0,0.4548
672.0,0.4511
673.0,0.4582
674.0,0.4568
675.0,0.4529
676.0,0.4562
677.0,0.4519
678.0,0.4535
679.0,0.4464
680.0,0.4501
681.0,0.4472
682.0,0.4467
683.0,0.4459
684.0,0.4436
685.0,0.4477
686.0,0.4447
687.0,0.2276
688.0,0.2962
689.0,0.2983
690.0,0.3236
691.0,0.3533
692.0,0.3767
693.0,0.3729
694.0,0.3711
695.0,0.3952
696.0,0.3962
697.0,0.4305
698.0,0.4236
699.0,0.4066
700.0,0.4013
701.0,0.3946
702.0,0.4
703.0,0.4014
704.0,0.4184
705.0,0.4189
706.0,0.4202
707.0,0.4212
708.0,0.4219
709.0,0.4253
710.0,0.4238
711.0,0.4242
712.0,0.4243
713.0,0.4187
714.0,0.4207
715.0,0.4046
716.0,0.4041
717.0,0.3256
718.0,0.2968
719.0,0.2699
720.0,0.2802
721.0,0.3235
722.0,0.3856
723.0,0.3513
724.0,0.3071
725.0,0.2992
726.0,0.3139
727.0,0.3247
728.0,0.2972
729.0,0.317
730.0,0.3337
731.0,0.3176
732.0,0.3489
733.0,0.3778
734.0,0.3895
735.0,0.3799
736.0,0.3791
737.0,0.3807
738.0,0.3932
739.0,0.3855
740.0,0.3976
741.0,0.3948
742.0,0.3964
743.0,0.4069
744.0,0.4065
745.0,0.4072
746.0,0.4091
747.0,0.4101
748.0,0.4094
749.0,0.4048
750.0,0.4046
751.0,0.4005
752.0,0.4023
753.0,0.4045
754.0,0.4054
755.0,0.403
756.0,0.403
757.0,0.4035
758.0,0.3984
759.0,0.386
760.0,0.02117
761.0,0.007706
762.0,0.1304
763.0,0.04174
764.0,0.08108
765.0,0.1302
766.0,0.1871
767.0,0.2684
768.0,0.339
769.0,0.3531
770.0,0.3731
771.0,0.3797
772.0,0.3817
773.0,0.3847
774.0,0.383
775.0,0.3803
776.0,0.385
777.0,0.38
778.0,0.3777
779.0,0.378
780.0,0.3759
781.0,0.3764
782.0,0.3788
783.0,0.3723
784.0,0.3743
785.0,0.3712
786.0,0.375
787.0,0.3652
788.0,0.3592
789.0,0.3589
790.0,0.345
791.0,0.3523
792.0,0.3504
793.0,0.3443
794.0,0.3546
795.0,0.3594
796.0,0.3422
797.0,0.3421
798.0,0.3582
799.0,0.3548
800.0,0.3472
801.0,0.3446
802.0,0.3436
803.0,0.3402
804.0,0.3414
805.0,0.3421
806.0,0.3548
807.0,0.3499
808.0,0.3504
809.0,0.3415
810.0,0.3372
811.0,0.3344
812.0,0.3207
813.0,0.3122
814.0,0.263
815.0,0.2622
816.0,0.2426
817.0,0.2478
818.0,0.2358
819.0,0.2736
820.0,0.2541
821.0,0.3118
822.0,0.3005
823.0,0.1823
824.0,0.2862
825.0,0.3064
826.0,0.29
827.0,0.3109
828.0,0.2495
829.0,0.2892
830.0,0.2843
831.0,0.2854
832.0,0.2741
833.0,0.2981
834.0,0.2832
835.0,0.3214
836.0,0.3006
837.0,0.3225
838.0,0.3089
839.0,0.3182
840.0,0.3261
841.0,0.32
842.0,0.323
843.0,0.3253
844.0,0.3194
845.0,0.332
846.0,0.331
847.0,0.3255
848.0,0.3224
849.0,0.3132
850.0,0.3002
851.0,0.3167
852.0,0.3151
853.0,0.3041
854.0,0.2618
855.0,0.2888
856.0,0.3151
857.0,0.3229
858.0,0.3201
859.0,0.3209
860.0,0.3218
861.0,0.32
862.0,0.3252
863.0,0.3329
864.0,0.3163
865.0,0.3136
866.0,0.282
867.0,0.2943
868.0,0.3203
869.0,0.3137
870.0,0.3227
871.0,0.3183
872.0,0.3172
873.0,0.3166
874.0,0.3129
875.0,0.3065
876.0,0.3096
877.0,0.3128
878.0,0.316
879.0,0.3112
880.0,0.3046
881.0,0.2994
882.0,0.3057
883.0,0.3072
884.0,0.3056
885.0,0.3079
886.0,0.2914
887.0,0.2961
888.0,0.2996
889.0,0.3047
890.0,0.3
891.0,0.3006
892.0,0.2892
893.0,0.2775
894.0,0.262
895.0,0.2405
896.0,0.2247
897.0,0.1849
898.0,0.2057
899.0,0.1474
900.0,0.2159
901.0,0.1545
902.0,0.1934
903.0,0.1909
904.0,0.2599
905.0,0.2484
906.0,0.2302
907.0,0.1738
908.0,0.1799
909.0,0.2
910.0,0.1669
911.0,0.1854
912.0,0.1945
913.0,0.1689
914.0,0.1695
915.0,0.183
916.0,0.1535
917.0,0.2045
918.0,0.1566
919.0,0.2117
920.0,0.2212
921.0,0.2296
922.0,0.198
923.0,0.2227
924.0,0.201
925.0,0.1971
926.0,0.1981
927.0,0.2289
928.0,0.1473
929.0,0.1291
930.0,0.09309
931.0,0.08843
932.0,0.05553
933.0,0.04171
934.0,0.01625
935.0,0.04536
936.0,0.02381
937.0,0.02393
938.0,0.031
939.0,0.08546
940.0,0.109
941.0,0.07449
942.0,0.09029
943.0,0.05355
944.0,0.0623
945.0,0.07851
946.0,0.03235
947.0,0.07676
948.0,0.05565
949.0,0.1105
950.0,0.02052
951.0,0.1098
952.0,0.04947
953.0,0.0702
954.0,0.09336
955.0,0.07179
956.0,0.0769
957.0,0.04901
958.0,0.1173
959.0,0.08393
960.0,0.09409
961.0,0.113
962.0,0.1065
963.0,0.1292
964.0,0.1165
965.0,0.1286
966.0,0.1277
967.0,0.1262
968.0,0.1951
969.0,0.2
970.0,0.1813
971.0,0.2189
972.0,0.2069
973.0,0.1686
974.0,0.1591
975.0,0.169
976.0,0.1539
977.0,0.1886
978.0,0.1736
979.0,0.185
980.0,0.1723
981.0,0.218
982.0,0.2041
983.0,0.1937
984.0,0.2299
985.0,0.2031
986.0,0.2373
987.0,0.2288
988.0,0.2287
989.0,0.2388
990.0,0.2272
991.0,0.2391
992.0,0.2409
993.0,0.2317
994.0,0.2412
995.0,0.2415
996.0,0.2398
997.0,0.2405
998.0,0.2391
999.0,0.2384
1000.0,0.2358
1001.0,0.2398
1002.0,0.2294
1003.0,0.2353
1004.0,0.2285
1005.0,0.2215
1006.0,0.2295
1007.0,0.2347
1008.0,0.2328
1009.0,0.2308
1010.0,0.2294
1011.0,0.2336
1012.0,0.2309
1013.0,0.2333
1014.0,0.2317
1015.0,0.23
1016.0,0.2289
1017.0,0.2293
1018.0,0.2289
1019.0,0.2226
1020.0,0.2275
1021.0,0.2275
1022.0,0.2251
1023.0,0.2275
1024.0,0.223
1025.0,0.2278
1026.0,0.2264
1027.0,0.226
1028.0,0.2254
1029.0,0.2226
1030.0,0.2246
1031.0,0.2235
1032.0,0.223
1033.0,0.2197
1034.0,0.2197
1035.0,0.2204
1036.0,0.2214
1037.0,0.2178
1038.0,0.2187
1039.0,0.2185
1040.0,0.2176
1041.0,0.2184
1042.0,0.2168
1043.0,0.216
1044.0,0.2167
1045.0,0.2137
1046.0,0.2112
1047.0,0.213
1048.0,0.2141
1049.0,0.2132
1050.0,0.2121
1051.0,0.2116
1052.0,0.2106
1053.0,0.2088
1054.0,0.209
1055.0,0.2089
1056.0,0.2079
1057.0,0.2071
1058.0,0.2018
1059.0,0.2018
1060.0,0.2013
1061.0,0.201
1062.0,0.2018
1063.0,0.1996
1064.0,0.202
1065.0,0.2
1066.0,0.1965
1067.0,0.1989
1068.0,0.1942
1069.0,0.1885
1070.0,0.1945
1071.0,0.1988
1072.0,0.1956
1073.0,0.1929
1074.0,0.1994
1075.0,0.1856
1076.0,0.199
1077.0,0.1934
1078.0,0.1887
1079.0,0.1965
1080.0,0.1905
1081.0,0.1824
1082.0,0.1886
1083.0,0.19
1084.0,0.1813
1085.0,0.1912
1086.0,0.1695
1087.0,0.1782
1088.0,0.1892
1089.0,0.1797
1090.0,0.174
1091.0,0.1877
1092.0,0.1879
1093.0,0.1498
1094.0,0.1707
1095.0,0.1566
1096.0,0.1473
1097.0,0.1836
1098.0,0.1436
1099.0,0.1512
1100.0,0.1369
1101.0,0.1399
1102.0,0.131
1103.0,0.1279
1104.0,0.1284
1105.0,0.1469
1106.0,0.09765
1107.0,0.1368
1108.0,0.1072
1109.0,0.1089
1110.0,0.1338
1111.0,0.07923
1112.0,0.1086
1113.0,0.0582
1114.0,0.06555
1115.0,0.05352
1116.0,0.03711
1117.0,0.008912
1118.0,0.04172
1119.0,0.01629
1120.0,0.01988
1121.0,0.02863
1122.0,0.008741
1123.0,0.01814
1124.0,0.01525
1125.0,0.02099
1126.0,0.004305
1127.0,0.02398
1128.0,0.01079
1129.0,0.01178
1130.0,0.00709
1131.0,0.0558
1132.0,0.04168
1133.0,0.02095
1134.0,0.003235
1135.0,0.001353
1136.0,0.01571
1137.0,0.05263
1138.0,0.03605
1139.0,0.06636
1140.0,0.05056
1141.0,0.03442
1142.0,0.04182
1143.0,0.06497
1144.0,0.01734
1145.0,0.02019
1146.0,0.02171
1147.0,0.004738
1148.0,0.05548
1149.0,0.04083
1150.0,0.01976
1151.0,0.03577
1152.0,0.04819
1153.0,0.05034
1154.0,0.01985
1155.0,0.06905
1156.0,0.05955
1157.0,0.07221
1158.0,0.07122
1159.0,0.07962
1160.0,0.06572
1161.0,0.0883
1162.0,0.08797
1163.0,0.1325
1164.0,0.1088
1165.0,0.09771
1166.0,0.1011
1167.0,0.1124
1168.0,0.1126
1169.0,0.1166
1170.0,0.1309
1171.0,0.1275
1172.0,0.1327
1173.0,0.1308
1174.0,0.08386
1175.0,0.1303
1176.0,0.149
1177.0,0.139
1178.0,0.09717
1179.0,0.1503
1180.0,0.1279
1181.0,0.1322
1182.0,0.083
1183.0,0.1314
1184.0,0.1204
1185.0,0.1136
1186.0,0.1433
1187.0,0.1337
1188.0,0.08292
1189.0,0.1242
1190.0,0.1406
1191.0,0.128
1192.0,0.1431
1193.0,0.1353
1194.0,0.1407
1195.0,0.1293
1196.0,0.1225
1197.0,0.1423
1198.0,0.1284
1199.0,0.1016
1200.0,0.1335
1201.0,0.1259
1202.0,0.1276
1203.0,0.1251
1204.0,0.1061
1205.0,0.1326
1206.0,0.1503
1207.0,0.1261
1208.0,0.1264
1209.0,0.1295
1210.0,0.1367
1211.0,0.1274
1212.0,0.1216
1213.0,0.1433
1214.0,0.1261
1215.0,0.1233
1216.0,0.1433
1217.0,0.138
1218.0,0.142
1219.0,0.1393
1220.0,0.1423
1221.0,0.1446
1222.0,0.1402
1223.0,0.1382
1224.0,0.1358
1225.0,0.1434
1226.0,0.1455
1227.0,0.1302
1228.0,0.1472
1229.0,0.1456
1230.0,0.1423
1231.0,0.149
1232.0,0.1481
1233.0,0.1394
1234.0,0.1497
1235.0,0.1482
1236.0,0.1497
1237.0,0.1462
1238.0,0.1492
1239.0,0.1473
1240.0,0.148
1241.0,0.1464
1242.0,0.1469
1243.0,0.1458
1244.0,0.1465
1245.0,0.1473
1246.0,0.1465
1247.0,0.1457
1248.0,0.1451
1249.0,0.146
1250.0,0.1448
1251.0,0.1424
1252.0,0.1431
1253.0,0.1407
1254.0,0.1383
1255.0,0.1426
1256.0,0.1363
1257.0,0.135
1258.0,0.1394
1259.0,0.1308
1260.0,0.1319
1261.0,0.12
1262.0,0.1142
1263.0,0.1143
1264.0,0.1004
1265.0,0.1136
1266.0,0.1063
1267.0,0.1103
1268.0,0.1012
1269.0,0.04463
1270.0,0.109
1271.0,0.1202
1272.0,0.1211
1273.0,0.1193
1274.0,0.1204
1275.0,0.1229
1276.0,0.125
1277.0,0.127
1278.0,0.1312
1279.0,0.1298
1280.0,0.1284
1281.0,0.1233
1282.0,0.1202
1283.0,0.1292
1284.0,0.132
1285.0,0.1331
1286.0,0.1356
1287.0,0.1321
1288.0,0.1326
1289.0,0.1256
1290.0,0.1315
1291.0,0.1339
1292.0,0.1207
1293.0,0.1301
1294.0,0.129
1295.0,0.1267
1296.0,0.1179
1297.0,0.1094
1298.0,0.1225
1299.0,0.1307
1300.0,0.1029
1301.0,0.1074
1302.0,0.1222
1303.0,0.1023
1304.0,0.08034
1305.0,0.1193
1306.0,0.1186
1307.0,0.08464
1308.0,0.1037
1309.0,0.1165
1310.0,0.0824
1311.0,0.09778
1312.0,0.09416
1313.0,0.09067
1314.0,0.07865
1315.0,0.0761
1316.0,0.09488
1317.0,0.08889
1318.0,0.09962
1319.0,0.06963
1320.0,0.06907
1321.0,0.08338
1322.0,0.08265
1323.0,0.05565
1324.0,0.06863
1325.0,0.09264
1326.0,0.07542
1327.0,0.07075
1328.0,0.05872
1329.0,0.03854
1330.0,0.05311
1331.0,0.0263
1332.0,0.02879
1333.0,0.04115
1334.0,0.03868
1335.0,0.0549
1336.0,0.04002
1337.0,0.03449
1338.0,0.03694
1339.0,0.03756
1340.0,0.03826
1341.0,0.03326
1342.0,0.03547
1343.0,0.01782
1344.0,0.01127
1345.0,0.01584
1346.0,0.005012
1347.0,0.004642
1348.0,0.0001192
1349.0,0.0005307
1350.0,0.00064
1351.0,6.607e-05
1352.0,5.966e-06
1353.0,1.538e-07
1354.0,9.239e-07
1355.0,2.021e-09
1356.0,7.41e-08
1357.0,1.119e-07
1358.0,2.455e-09
1359.0,2.195e-10
1360.0,9.339e-10
1361.0,8.268e-13
1362.0,2.251e-15
1363.0,1.092e-09
1364.0,4.639e-10
1365.0,7.844e-16
1366.0,5.013e-09
1367.0,2.333e-09
1368.0,6.055e-18
1369.0,1.713e-10
1370.0,7.86e-11
1371.0,4.315e-12
1372.0,1.297e-09
1373.0,3.986e-08
1374.0,3.027e-07
1375.0,4.628e-07
1376.0,8.641e-07
1377.0,3.551e-07
1378.0,3.766e-06
1379.0,1.548e-07
1380.0,1.386e-07
1381.0,3.056e-09
1382.0,1.078e-09
1383.0,1.496e-11
1384.0,1.791e-10
1385.0,1.407e-09
1386.0,8.508e-10
1387.0,1.949e-07
1388.0,5.264e-09
1389.0,1.346e-06
1390.0,1.058e-06
1391.0,6.869e-07
1392.0,4.397e-08
1393.0,3.084e-07
1394.0,5.828e-08
1395.0,3.387e-10
1396.0,1.083e-12
1397.0,9.749e-08
1398.0,3.71e-06
1399.0,2.511e-06
1400.0,4.591e-13
1401.0,1.933e-12
1402.0,2.312e-05
1403.0,2.228e-05
1404.0,5.903e-06
1405.0,1.341e-10
1406.0,9.995e-06
1407.0,1.586e-06
1408.0,8.944e-06
1409.0,1.664e-06
1410.0,2.39e-06
1411.0,2.077e-05
1412.0,3.832e-05
1413.0,0.0008207
1414.0,2.092e-06
1415.0,7.828e-07
1416.0,0.002527
1417.0,0.0004788
1418.0,0.0004155
1419.0,5.792e-05
1420.0,0.0002498
1421.0,0.0003309
1422.0,0.003301
1423.0,0.0005863
1424.0,0.001242
1425.0,0.001549
1426.0,0.002304
1427.0,0.005299
1428.0,9.981e-05
1429.0,0.003267
1430.0,0.007535
1431.0,0.008777
