interpolation:linear
wavelength,value
280.0,4.318e-22
280.5,1.411e-20
281.0,7.547000000000001e-20
281.5,4.522e-19
282.0,7.482e-19
282.5,1.854e-18
283.0,5.851e-18
283.5,9.515e-18
284.0,1.558e-16
284.5,4.533e-16
285.0,7.753e-16
285.5,3.843e-15
286.0,1.546e-14
286.5,6.936e-14
287.0,1.985e-13
287.5,7.628e-13
288.0,2.561e-12
288.5,7.792e-12
289.0,2.081e-11
289.5,6.296e-11
290.0,1.749e-10
290.5,3.567e-10
291.0,7.659e-10
291.5,2.199e-09
292.0,4.607e-09
292.5,6.473e-09
293.0,1.391e-08
293.5,3.391e-08
294.0,5.308e-08
294.5,7.21e-08
295.0,1.222e-07
295.5,2.161e-07
296.0,4.235e-07
296.5,6.031e-07
297.0,8.298e-07
297.5,2.293e-06
298.0,3.725e-06
298.5,3.848e-06
299.0,8.733e-06
299.5,1.539e-05
300.0,1.757e-05
300.5,2.655e-05
301.0,5.185e-05
301.5,8.933e-05
302.0,7.979e-05
302.5,0.0001612
303.0,0.0003038
303.5,0.0003967
304.0,0.000385
304.5,0.0006261
305.0,0.001073
305.5,0.001329
306.0,0.001327
306.5,0.001739
307.0,0.002894
307.5,0.004302
308.0,0.004628
308.5,0.00578
309.0,0.005929
309.5,0.007331
310.0,0.007632
310.5,0.01258
311.0,0.01626
311.5,0.01589
312.0,0.01691
312.5,0.02144
313.0,0.02376
313.5,0.02262
314.0,0.0297
314.5,0.02809
315.0,0.03734
315.5,0.03029
316.0,0.02787
316.5,0.04184
317.0,0.05191
317.5,0.05336
318.0,0.04291
318.5,0.05646
319.0,0.06898
319.5,0.05368
320.0,0.06442
320.5,0.0855
321.0,0.08025
321.5,0.07737
322.0,0.07796
322.5,0.06804
323.0,0.0703
323.5,0.08932
324.0,0.1049
324.5,0.105
325.0,0.08909
325.5,0.118
326.0,0.1455
326.5,0.1485
327.0,0.147
327.5,0.1408
328.0,0.1223
328.5,0.1325
329.0,0.1626
329.5,0.186
330.0,0.1866
330.5,0.1466
331.0,0.1485
331.5,0.1531
332.0,0.1688
332.5,0.1685
333.0,0.1672
333.5,0.1492
334.0,0.1525
334.5,0.179
335.0,0.1699
335.5,0.1989
336.0,0.1377
336.5,0.1603
337.0,0.1306
337.5,0.1621
338.0,0.1605
338.5,0.1859
339.0,0.1843
339.5,0.1773
340.0,0.2078
340.5,0.1877
341.0,0.1834
341.5,0.1687
342.0,0.2019
342.5,0.189
343.0,0.2078
343.5,0.1956
344.0,0.1444
344.5,0.146
345.0,0.1937
345.5,0.198
346.0,0.1685
346.5,0.1909
347.0,0.2049
347.5,0.1657
348.0,0.1892
348.5,0.1893
349.0,0.1758
349.5,0.1742
350.0,0.2156
350.5,0.2275
351.0,0.2032
351.5,0.1974
352.0,0.2123
352.5,0.1659
353.0,0.2092
353.5,0.2238
354.0,0.2325
354.5,0.2359
355.0,0.2352
355.5,0.2127
356.0,0.2227
356.5,0.1902
357.0,0.1572
357.5,0.1925
358.0,0.1527
358.5,0.1305
359.0,0.1826
359.5,0.2327
360.0,0.2469
360.5,0.1974
361.0,0.1801
361.5,0.2077
362.0,0.1798
362.5,0.2491
363.0,0.2239
363.5,0.2064
364.0,0.2527
364.5,0.2161
365.0,0.2202
365.5,0.2765
366.0,0.2932
366.5,0.2758
367.0,0.2687
367.5,0.279
368.0,0.2443
368.5,0.2467
369.0,0.2666
369.5,0.2843
370.0,0.3033
370.5,0.2356
371.0,0.2519
371.5,0.3153
372.0,0.2094
372.5,0.2512
373.0,0.2557
373.5,0.1665
374.0,0.2421
374.5,0.2007
375.0,0.1952
375.5,0.2915
376.0,0.2418
376.5,0.2507
377.0,0.2656
377.5,0.3109
378.0,0.3372
378.5,0.3188
379.0,0.2632
379.5,0.2405
380.0,0.2501
380.5,0.3032
381.0,0.3041
381.5,0.2413
382.0,0.2145
382.5,0.183
383.0,0.1696
383.5,0.1634
384.0,0.1804
384.5,0.2655
385.0,0.2635
385.5,0.2456
386.0,0.2105
386.5,0.2767
387.0,0.23
387.5,0.2585
388.0,0.2388
388.5,0.2362
389.0,0.2551
389.5,0.3092
390.0,0.3106
390.5,0.286
391.0,0.3368
391.5,0.3437
392.0,0.2897
392.5,0.2595
393.0,0.1445
393.5,0.1051
394.0,0.214
394.5,0.2723
395.0,0.3325
395.5,0.3378
396.0,0.2931
396.5,0.1715
397.0,0.1288
397.5,0.262
398.0,0.3671
398.5,0.3796
399.0,0.4115
399.5,0.4103
400.0,0.4262
401.0,0.4304
402.0,0.4547
403.0,0.4326
404.0,0.4263
405.0,0.4267
406.0,0.4203
407.0,0.4141
408.0,0.4305
409.0,0.4612
410.0,0.4035
411.0,0.4375
412.0,0.4706
413.0,0.4592
414.0,0.4654
415.0,0.4672
416.0,0.476
417.0,0.4646
418.0,0.4564
419.0,0.4629
420.0,0.4612
421.0,0.483
422.0,0.4595
423.0,0.4492
424.0,0.4754
425.0,0.475
426.0,0.4634
427.0,0.455
428.0,0.4435
429.0,0.4208
430.0,0.3686
431.0,0.3654
432.0,0.4723
433.0,0.4753
434.0,0.4416
435.0,0.4613
436.0,0.5205
437.0,0.5142
438.0,0.4687
439.0,0.4844
440.0,0.5003
441.0,0.5189
442.0,0.5569
443.0,0.5423
444.0,0.5546
445.0,0.5427
446.0,0.5188
447.0,0.5616
448.0,0.5701
449.0,0.5732
450.0,0.5898
451.0,0.612
452.0,0.59
453.0,0.5553
454.0,0.5803
455.0,0.584
456.0,0.5982
457.0,0.6083
458.0,0.5873
459.0,0.5846
460.0,0.586
461.0,0.5998
462.0,0.605
463.0,0.6008
464.0,0.5918
465.0,0.5851
466.0,0.5913
467.0,0.5804
468.0,0.5873
469.0,0.5905
470.0,0.5716
471.0,0.5711
472.0,0.6018
473.0,0.5941
474.0,0.5945
475.0,0.5991
476.0,0.5805
477.0,0.5816
478.0,0.598
479.0,0.5948
480.0,0.5964
481.0,0.6082
482.0,0.6121
483.0,0.6055
484.0,0.5936
485.0,0.566
486.0,0.4954
487.0,0.5196
488.0,0.5701
489.0,0.5716
490.0,0.6018
491.0,0.5917
492.0,0.5589
493.0,0.5773
494.0,0.5832
495.0,0.5883
496.0,0.592
497.0,0.6011
498.0,0.5729
499.0,0.58
500.0,0.5627
501.0,0.5519
502.0,0.5433
503.0,0.5645
504.0,0.5475
505.0,0.5693
506.0,0.5876
507.0,0.5593
508.0,0.5427
509.0,0.5586
510.0,0.5562
511.0,0.5717
512.0,0.5782
513.0,0.5474
514.0,0.5439
515.0,0.5385
516.0,0.5371
517.0,0.4774
518.0,0.5019
519.0,0.5263
520.0,0.5454
521.0,0.5505
522.0,0.5507
523.0,0.5406
524.0,0.5595
525.0,0.5654
526.0,0.5399
527.0,0.5082
528.0,0.537
529.0,0.5657
530.0,0.5573
531.0,0.5653
532.0,0.5458
533.0,0.5298
534.0,0.5457
535.0,0.558
536.0,0.5634
537.0,0.5415
538.0,0.5512
539.0,0.5465
540.0,0.5238
541.0,0.5265
542.0,0.5426
543.0,0.5375
544.0,0.5462
545.0,0.5446
546.0,0.5464
547.0,0.5467
548.0,0.5405
549.0,0.5423
550.0,0.5488
551.0,0.5423
552.0,0.546
553.0,0.5361
554.0,0.5489
555.0,0.5498
556.0,0.5425
557.0,0.5254
558.0,0.5211
559.0,0.5109
560.0,0.517
561.0,0.5233
562.0,0.519
563.0,0.5326
564.0,0.5176
565.0,0.5127
566.0,0.5048
567.0,0.5138
568.0,0.5078
569.0,0.493
570.0,0.4933
571.0,0.491
572.0,0.501
573.0,0.506
574.0,0.504
575.0,0.4939
576.0,0.4895
577.0,0.4951
578.0,0.4884
579.0,0.4916
580.0,0.503
581.0,0.507
582.0,0.518
583.0,0.5203
584.0,0.5256
585.0,0.5132
586.0,0.5027
587.0,0.5129
588.0,0.497
589.0,0.4338
590.0,0.4542
591.0,0.4845
592.0,0.4761
593.0,0.4862
594.0,0.4815
595.0,0.4672
596.0,0.491
597.0,0.4843
598.0,0.4847
599.0,0.4859
600.0,0.488
601.0,0.485
602.0,0.4819
603.0,0.4904
604.0,0.4988
605.0,0.4965
606.0,0.4951
607.0,0.5006
608.0,0.4957
609.0,0.4971
610.0,0.4941
611.0,0.497
612.0,0.496
613.0,0.49
614.0,0.4838
615.0,0.4949
616.0,0.479
617.0,0.4783
618.0,0.497
619.0,0.4921
620.0,0.4953
621.0,0.4953
622.0,0.4891
623.0,0.4812
624.0,0.4734
625.0,0.4723
626.0,0.4792
627.0,0.4833
628.0,0.4363
629.0,0.4666
630.0,0.4553
631.0,0.4708
632.0,0.4661
633.0,0.4824
634.0,0.4794
635.0,0.4877
636.0,0.4823
637.0,0.4909
638.0,0.4968
639.0,0.4919
640.0,0.4878
641.0,0.488
642.0,0.4865
643.0,0.4931
644.0,0.4922
645.0,0.4926
646.0,0.4793
647.0,0.4694
648.0,0.4699
649.0,0.4603
650.0,0.4679
651.0,0.4892
652.0,0.4633
653.0,0.483
654.0,0.4781
655.0,0.4575
656.0,0.4074
657.0,0.4187
658.0,0.4709
659.0,0.475
660.0,0.4774
661.0,0.4809
662.0,0.4809
663.0,0.4717
664.0,0.4789
665.0,0.4804
666.0,0.4813
667.0,0.4814
668.0,0.4823
669.0,0.4901
670.0,0.4883
671.0,0.4885
672.0,0.4845
673.0,0.4921
674.0,0.4905
675.0,0.4863
676.0,0.4898
677.0,0.4852
678.0,0.4868
679.0,0.4791
680.0,0.4831
681.0,0.48
682.0,0.4794
683.0,0.4785
684.0,0.4761
685.0,0.4805
686.0,0.4773
687.0,0.2541
688.0,0.3255
689.0,0.3276
690.0,0.3536
691.0,0.3839
692.0,0.4076
693.0,0.4035
694.0,0.4013
695.0,0.4259
696.0,0.4269
697.0,0.4624
698.0,0.455
699.0,0.4377
700.0,0.4321
701.0,0.4253
702.0,0.4308
703.0,0.4321
704.0,0.4497
705.0,0.4504
706.0,0.4514
707.0,0.4524
708.0,0.4532
709.0,0.4564
710.0,0.4551
711.0,0.4554
712.0,0.4552
713.0,0.4495
714.0,0.4515
715.0,0.4347
716.0,0.4343
717.0,0.3536
718.0,0.3225
719.0,0.2936
720.0,0.3052
721.0,0.3502
722.0,0.415
723.0,0.3792
724.0,0.3329
725.0,0.3247
726.0,0.3407
727.0,0.3514
728.0,0.3228
729.0,0.343
730.0,0.3614
731.0,0.3441
732.0,0.3766
733.0,0.4066
734.0,0.4187
735.0,0.4087
736.0,0.408
737.0,0.4096
738.0,0.422
739.0,0.4137
740.0,0.4263
741.0,0.4232
742.0,0.4247
743.0,0.4359
744.0,0.4353
745.0,0.436
746.0,0.438
747.0,0.4391
748.0,0.4383
749.0,0.4333
750.0,0.4331
751.0,0.4288
752.0,0.4307
753.0,0.433
754.0,0.4339
755.0,0.4314
756.0,0.4313
757.0,0.4319
758.0,0.4264
759.0,0.4139
760.0,0.02663
761.0,0.01013
762.0,0.1488
763.0,0.05076
764.0,0.09511
765.0,0.1486
766.0,0.2087
767.0,0.2936
768.0,0.3658
769.0,0.3799
770.0,0.4001
771.0,0.4066
772.0,0.4085
773.0,0.4117
774.0,0.4099
775.0,0.4069
776.0,0.412
777.0,0.4066
778.0,0.4041
779.0,0.4044
780.0,0.4022
781.0,0.4027
782.0,0.4053
783.0,0.3983
784.0,0.4004
785.0,0.3971
786.0,0.4013
787.0,0.3913
788.0,0.3851
789.0,0.3847
790.0,0.3705
791.0,0.3777
792.0,0.3755
793.0,0.369
794.0,0.3794
795.0,0.3847
796.0,0.3673
797.0,0.3673
798.0,0.3836
799.0,0.3801
800.0,0.3722
801.0,0.3697
802.0,0.3686
803.0,0.3651
804.0,0.3662
805.0,0.3667
806.0,0.3799
807.0,0.3747
808.0,0.3752
809.0,0.366
810.0,0.3617
811.0,0.3591
812.0,0.3451
813.0,0.3362
814.0,0.2848
815.0,0.2838
816.0,0.2628
817.0,0.2684
818.0,0.2558
819.0,0.2954
820.0,0.2748
821.0,0.3349
822.0,0.3232
823.0,0.1991
824.0,0.3086
825.0,0.3291
826.0,0.3121
827.0,0.3339
828.0,0.2701
829.0,0.3112
830.0,0.306
831.0,0.3072
832.0,0.2954
833.0,0.3204
834.0,0.3049
835.0,0.3445
836.0,0.3234
837.0,0.3457
838.0,0.3317
839.0,0.3411
840.0,0.3494
841.0,0.343
842.0,0.3459
843.0,0.348
844.0,0.3419
845.0,0.3551
846.0,0.3539
847.0,0.348
848.0,0.3449
849.0,0.335
850.0,0.3211
851.0,0.3389
852.0,0.337
853.0,0.3252
854.0,0.2801
855.0,0.3088
856.0,0.337
857.0,0.3452
858.0,0.3423
859.0,0.3431
860.0,0.344
861.0,0.342
862.0,0.3476
863.0,0.3558
864.0,0.338
865.0,0.3352
866.0,0.3014
867.0,0.3145
868.0,0.3423
869.0,0.3353
870.0,0.3449
871.0,0.3401
872.0,0.339
873.0,0.3383
874.0,0.3343
875.0,0.3275
876.0,0.3309
877.0,0.3343
878.0,0.3377
879.0,0.3326
880.0,0.3255
881.0,0.3201
882.0,0.3268
883.0,0.3284
884.0,0.3266
885.0,0.3291
886.0,0.3118
887.0,0.3166
888.0,0.3204
889.0,0.3256
890.0,0.321
891.0,0.3214
892.0,0.3096
893.0,0.2975
894.0,0.2817
895.0,0.2596
896.0,0.2427
897.0,0.2008
898.0,0.223
899.0,0.161
900.0,0.2333
901.0,0.1687
902.0,0.2096
903.0,0.2075
904.0,0.2795
905.0,0.2674
906.0,0.2482
907.0,0.1893
908.0,0.1954
909.0,0.2166
910.0,0.1821
911.0,0.201
912.0,0.211
913.0,0.1843
914.0,0.1847
915.0,0.1995
916.0,0.1675
917.0,0.2219
918.0,0.171
919.0,0.2291
920.0,0.2382
921.0,0.2475
922.0,0.2143
923.0,0.2399
924.0,0.218
925.0,0.2136
926.0,0.2149
927.0,0.2475
928.0,0.1619
929.0,0.1426
930.0,0.1041
931.0,0.09896
932.0,0.06333
933.0,0.04805
934.0,0.01962
935.0,0.05188
936.0,0.02786
937.0,0.028
938.0,0.03604
939.0,0.09569
940.0,0.1211
941.0,0.08382
942.0,0.1011
943.0,0.06077
944.0,0.06972
945.0,0.08807
946.0,0.03734
947.0,0.0864
948.0,0.06272
949.0,0.1232
950.0,0.02408
951.0,0.1224
952.0,0.05634
953.0,0.079
954.0,0.104
955.0,0.08066
956.0,0.08502
957.0,0.05584
958.0,0.1288
959.0,0.09344
960.0,0.1047
961.0,0.1246
962.0,0.1175
963.0,0.1417
964.0,0.128
965.0,0.1411
966.0,0.1402
967.0,0.1387
968.0,0.2104
969.0,0.2163
970.0,0.1963
971.0,0.2355
972.0,0.223
973.0,0.1832
974.0,0.1729
975.0,0.1832
976.0,0.1678
977.0,0.2036
978.0,0.1881
979.0,0.2002
980.0,0.1866
981.0,0.2345
982.0,0.2201
983.0,0.2092
984.0,0.2466
985.0,0.2191
986.0,0.254
987.0,0.2454
988.0,0.2453
989.0,0.2553
990.0,0.2436
991.0,0.2556
992.0,0.2575
993.0,0.2482
994.0,0.2578
995.0,0.258
996.0,0.2563
997.0,0.2569
998.0,0.2555
999.0,0.2547
1000.0,0.2521
1001.0,0.2562
1002.0,0.2456
1003.0,0.2515
1004.0,0.2444
1005.0,0.2367
1006.0,0.2453
1007.0,0.2508
1008.0,0.2489
1009.0,0.2468
1010.0,0.2454
1011.0,0.2497
1012.0,0.2468
1013.0,0.2493
1014.0,0.2475
1015.0,0.2458
1016.0,0.2446
1017.0,0.2451
1018.0,0.2446
1019.0,0.238
1020.0,0.2431
1021.0,0.243
1022.0,0.2406
1023.0,0.2431
1024.0,0.2385
1025.0,0.2434
1026.0,0.242
1027.0,0.2415
1028.0,0.2409
1029.0,0.2379
1030.0,0.24
1031.0,0.2389
1032.0,0.2383
1033.0,0.2347
1034.0,0.2348
1035.0,0.2355
1036.0,0.2365
1037.0,0.2328
1038.0,0.2337
1039.0,0.2335
1040.0,0.2325
1041.0,0.2334
1042.0,0.2317
1043.0,0.2309
1044.0,0.2316
1045.0,0.2284
1046.0,0.2258
1047.0,0.2277
1048.0,0.2289
1049.0,0.2279
1050.0,0.2268
1051.0,0.2263
1052.0,0.2253
1053.0,0.2233
1054.0,0.2236
1055.0,0.2235
1056.0,0.2225
1057.0,0.2216
1058.0,0.216
1059.0,0.216
1060.0,0.2156
1061.0,0.2152
1062.0,0.2161
1063.0,0.2138
1064.0,0.2164
1065.0,0.2143
1066.0,0.2105
1067.0,0.2131
1068.0,0.208
1069.0,0.2019
1070.0,0.2084
1071.0,0.2129
1072.0,0.2095
1073.0,0.2067
1074.0,0.2134
1075.0,0.1992
1076.0,0.213
1077.0,0.2072
1078.0,0.2024
1079.0,0.2102
1080.0,0.2041
1081.0,0.1958
1082.0,0.2019
1083.0,0.2033
1084.0,0.1946
1085.0,0.2048
1086.0,0.1822
1087.0,0.1912
1088.0,0.2026
1089.0,0.1929
1090.0,0.187
1091.0,0.201
1092.0,0.2011
1093.0,0.1616
1094.0,0.1829
1095.0,0.1689
1096.0,0.1593
1097.0,0.1965
1098.0,0.1554
1099.0,0.1635
1100.0,0.1485
1101.0,0.1516
1102.0,0.1423
1103.0,0.1392
1104.0,0.1397
1105.0,0.159
1106.0,0.1076
1107.0,0.1484
1108.0,0.1174
1109.0,0.1191
1110.0,0.1454
1111.0,0.08767
1112.0,0.1188
1113.0,0.06505
1114.0,0.07325
1115.0,0.05998
1116.0,0.04234
1117.0,0.01072
1118.0,0.04746
1119.0,0.01912
1120.0,0.02347
1121.0,0.03346
1122.0,0.01068
1123.0,0.02139
1124.0,0.01799
1125.0,0.02457
1126.0,0.005427
1127.0,0.02803
1128.0,0.01311
1129.0,0.01427
1130.0,0.008631
1131.0,0.06347
1132.0,0.04773
1133.0,0.02475
1134.0,0.004087
1135.0,0.001681
1136.0,0.01885
1137.0,0.06017
1138.0,0.0414
1139.0,0.07407
1140.0,0.05712
1141.0,0.03949
1142.0,0.04764
1143.0,0.07306
1144.0,0.02019
1145.0,0.02387
1146.0,0.02569
1147.0,0.005985
1148.0,0.06257
1149.0,0.04653
1150.0,0.02277
1151.0,0.04106
1152.0,0.05466
1153.0,0.05658
1154.0,0.02333
1155.0,0.07709
1156.0,0.06687
1157.0,0.08011
1158.0,0.07906
1159.0,0.08807
1160.0,0.07285
1161.0,0.09683
1162.0,0.0966
1163.0,0.1435
1164.0,0.1184
1165.0,0.107
1166.0,0.1101
1167.0,0.1222
1168.0,0.1224
1169.0,0.1266
1170.0,0.1417
1171.0,0.138
1172.0,0.1431
1173.0,0.1415
1174.0,0.09191
1175.0,0.1405
1176.0,0.1599
1177.0,0.1498
1178.0,0.1056
1179.0,0.1612
1180.0,0.1381
1181.0,0.1427
1182.0,0.09072
1183.0,0.1417
1184.0,0.1302
1185.0,0.1232
1186.0,0.1542
1187.0,0.1443
1188.0,0.09089
1189.0,0.134
1190.0,0.1512
1191.0,0.1384
1192.0,0.1538
1193.0,0.1457
1194.0,0.1513
1195.0,0.1396
1196.0,0.1325
1197.0,0.1528
1198.0,0.1381
1199.0,0.1103
1200.0,0.1437
1201.0,0.136
1202.0,0.1373
1203.0,0.135
1204.0,0.115
1205.0,0.1425
1206.0,0.161
1207.0,0.1359
1208.0,0.136
1209.0,0.1392
1210.0,0.1467
1211.0,0.1371
1212.0,0.1316
1213.0,0.1538
1214.0,0.1362
1215.0,0.1332
1216.0,0.1537
1217.0,0.1483
1218.0,0.1523
1219.0,0.1496
1220.0,0.1526
1221.0,0.155
1222.0,0.1504
1223.0,0.1483
1224.0,0.146
1225.0,0.1538
1226.0,0.1559
1227.0,0.14
1228.0,0.1575
1229.0,0.1559
1230.0,0.1525
1231.0,0.1593
1232.0,0.1583
1233.0,0.1496
1234.0,0.1599
1235.0,0.1584
1236.0,0.1599
1237.0,0.1563
1238.0,0.1594
1239.0,0.1573
1240.0,0.1581
1241.0,0.1565
1242.0,0.1569
1243.0,0.1557
1244.0,0.1565
1245.0,0.1574
1246.0,0.1565
1247.0,0.1556
1248.0,0.1551
1249.0,0.156
1250.0,0.1548
1251.0,0.1523
1252.0,0.153
1253.0,0.1506
1254.0,0.1482
1255.0,0.1525
1256.0,0.1461
1257.0,0.1448
1258.0,0.1492
1259.0,0.1405
1260.0,0.1417
1261.0,0.1296
1262.0,0.1237
1263.0,0.1238
1264.0,0.1096
1265.0,0.1231
1266.0,0.1156
1267.0,0.1196
1268.0,0.1103
1269.0,0.05119
1270.0,0.1184
1271.0,0.1297
1272.0,0.1306
1273.0,0.1287
1274.0,0.1298
1275.0,0.1324
1276.0,0.1345
1277.0,0.1364
1278.0,0.1407
1279.0,0.1393
1280.0,0.1376
1281.0,0.1321
1282.0,0.1285
1283.0,0.1382
1284.0,0.1412
1285.0,0.1424
1286.0,0.145
1287.0,0.1415
1288.0,0.1418
1289.0,0.1348
1290.0,0.1407
1291.0,0.1432
1292.0,0.1299
1293.0,0.1393
1294.0,0.1381
1295.0,0.1359
1296.0,0.127
1297.0,0.1181
1298.0,0.1315
1299.0,0.1399
1300.0,0.1112
1301.0,0.1159
1302.0,0.1312
1303.0,0.1105
1304.0,0.08771
1305.0,0.1282
1306.0,0.1275
1307.0,0.09202
1308.0,0.1118
1309.0,0.1255
1310.0,0.08971
1311.0,0.1056
1312.0,0.1018
1313.0,0.09836
1314.0,0.08571
1315.0,0.08313
1316.0,0.1027
1317.0,0.0964
1318.0,0.1076
1319.0,0.07633
1320.0,0.07551
1321.0,0.09068
1322.0,0.09013
1323.0,0.06164
1324.0,0.07517
1325.0,0.1005
1326.0,0.08235
1327.0,0.07743
1328.0,0.06463
1329.0,0.04324
1330.0,0.05906
1331.0,0.03006
1332.0,0.03268
1333.0,0.04654
1334.0,0.04303
1335.0,0.06094
1336.0,0.04494
1337.0,0.03879
1338.0,0.04164
1339.0,0.04223
1340.0,0.04274
1341.0,0.0378
1342.0,0.04019
1343.0,0.02104
1344.0,0.01319
1345.0,0.01868
1346.0,0.006293
1347.0,0.005913
1348.0,0.0001701
1349.0,0.0007424
1350.0,0.0008839
1351.0,0.0001012
1352.0,1.041e-05
1353.0,2.678e-07
1354.0,1.59e-06
1355.0,3.035e-09
1356.0,1.284e-07
1357.0,1.945e-07
1358.0,3.746e-09
1359.0,2.579e-10
1360.0,1.292e-09
1361.0,8.486e-13
1362.0,2.273e-15
1363.0,1.339e-09
1364.0,5.823e-10
1365.0,7.864e-16
1366.0,6.573e-09
1367.0,3.35e-09
1368.0,6.063e-18
1369.0,2.15e-10
1370.0,9.011e-11
1371.0,4.666e-12
1372.0,1.885e-09
1373.0,6.743e-08
1374.0,5.344e-07
1375.0,8.283e-07
1376.0,1.487e-06
1377.0,6.129e-07
1378.0,6.637e-06
1379.0,2.649e-07
1380.0,2.435e-07
1381.0,5.245e-09
1382.0,1.519e-09
1383.0,1.969e-11
1384.0,2.163e-10
1385.0,2.277e-09
1386.0,1.098e-09
1387.0,3.41e-07
1388.0,9.085e-09
1389.0,2.399e-06
1390.0,1.91e-06
1391.0,1.225e-06
1392.0,7.671e-08
1393.0,5.365e-07
1394.0,9.839e-08
1395.0,5.184e-10
1396.0,1.131e-12
1397.0,1.709e-07
1398.0,6.648e-06
1399.0,4.463e-06
1400.0,4.681e-13
1401.0,2.048e-12
1402.0,3.562e-05
1403.0,3.571e-05
1404.0,9.691e-06
1405.0,1.867e-10
1406.0,1.733e-05
1407.0,2.486e-06
1408.0,1.533e-05
1409.0,2.998e-06
1410.0,4.009e-06
1411.0,3.299e-05
1412.0,5.843e-05
1413.0,0.001156
1414.0,3.461e-06
1415.0,1.325e-06
1416.0,0.003244
1417.0,0.0006457
1418.0,0.0005923
1419.0,8.347e-05
1420.0,0.0003566
1421.0,0.0004503
1422.0,0.004246
1423.0,0.0007575
1424.0,0.001572
1425.0,0.002014
1426.0,0.002882
1427.0,0.00649
1428.0,0.0001451
1429.0,0.004106
1430.0,0.009078
1431.0,0.0105
