interpolation:linear
wavelength,value
280.0,3.313e-21
280.5,1.035e-19
281.0,5.453e-19
281.5,3.414e-19
282.0,1.053e-18
282.5,2.802e-18
283.0,9.122e-18
283.5,1.496e-17
284.0,2.445e-16
284.5,7.058e-16
285.0,1.602e-15
285.5,7.826e-15
286.0,3.134e-14
286.5,1.383e-13
287.0,3.914e-13
287.5,1.48e-12
288.0,3.881e-12
288.5,1.302e-11
289.0,3.724e-11
289.5,1.187e-10
290.0,3.405e-10
290.5,7.103e-10
291.0,1.559e-09
291.5,4.607e-09
292.0,1.018e-08
292.5,1.541e-08
293.0,3.639e-08
293.5,1.011e-07
294.0,1.739e-07
294.5,2.251e-07
295.0,4.19e-07
295.5,1.115e-06
296.0,2.235e-06
296.5,3.26e-06
297.0,4.58e-06
297.5,1.305e-05
298.0,2.176e-05
298.5,2.293e-05
299.0,5.304e-05
299.5,9.621e-05
300.0,0.0001117
300.5,0.0001718
301.0,0.0003461
301.5,0.0006201
302.0,0.0005698
302.5,0.001123
303.0,0.002038
303.5,0.002584
304.0,0.002439
304.5,0.003679
305.0,0.005655
305.5,0.006528
306.0,0.006339
306.5,0.007931
307.0,0.01188
307.5,0.01593
308.0,0.01685
308.5,0.01997
309.0,0.01967
309.5,0.02258
310.0,0.02272
310.5,0.03683
311.0,0.04629
311.5,0.04472
312.0,0.04482
312.5,0.05463
313.0,0.0593
313.5,0.05756
314.0,0.07209
314.5,0.06404
315.0,0.0842
315.5,0.0704
316.0,0.06157
316.5,0.0885
317.0,0.1099
317.5,0.1144
318.0,0.08928
318.5,0.111
319.0,0.1318
319.5,0.1074
320.0,0.1297
320.5,0.1625
321.0,0.1448
321.5,0.1388
322.0,0.1479
322.5,0.1287
323.0,0.1282
323.5,0.1576
324.0,0.184
324.5,0.1869
325.0,0.1615
325.5,0.2077
326.0,0.254
326.5,0.2543
327.0,0.2535
327.5,0.245
328.0,0.2183
328.5,0.2293
329.0,0.2745
329.5,0.3116
330.0,0.3144
330.5,0.2518
331.0,0.2566
331.5,0.2608
332.0,0.2817
332.5,0.2786
333.0,0.2779
333.5,0.2516
334.0,0.2579
334.5,0.2975
335.0,0.2795
335.5,0.3265
336.0,0.226
336.5,0.2647
337.0,0.2173
337.5,0.2703
338.0,0.2639
338.5,0.3047
339.0,0.3016
339.5,0.2902
340.0,0.3411
340.5,0.3076
341.0,0.3
341.5,0.2755
342.0,0.3294
342.5,0.3082
343.0,0.339
343.5,0.3193
344.0,0.236
344.5,0.2384
345.0,0.3156
345.5,0.3224
346.0,0.2741
346.5,0.3104
347.0,0.3333
347.5,0.2696
348.0,0.3074
348.5,0.3073
349.0,0.2852
349.5,0.2825
350.0,0.3495
350.5,0.3687
351.0,0.3294
351.5,0.3202
352.0,0.344
352.5,0.2686
353.0,0.3384
353.5,0.3619
354.0,0.3758
354.5,0.3812
355.0,0.38
355.5,0.3434
356.0,0.3594
356.5,0.3069
357.0,0.2537
357.5,0.3106
358.0,0.2462
358.5,0.2104
359.0,0.2944
359.5,0.3752
360.0,0.3979
360.5,0.3181
361.0,0.2901
361.5,0.3341
362.0,0.2891
362.5,0.4002
363.0,0.3596
363.5,0.3313
364.0,0.4054
364.5,0.3466
365.0,0.3531
365.5,0.4432
366.0,0.4698
366.5,0.4415
367.0,0.4301
367.5,0.4465
368.0,0.3908
368.5,0.3945
369.0,0.4261
369.5,0.4543
370.0,0.4845
370.5,0.3761
371.0,0.402
371.5,0.5031
372.0,0.334
372.5,0.4005
373.0,0.4076
373.5,0.2653
374.0,0.3855
374.5,0.3194
375.0,0.3106
375.5,0.4638
376.0,0.3845
376.5,0.3986
377.0,0.4221
377.5,0.494
378.0,0.5356
378.5,0.5063
379.0,0.4179
379.5,0.3818
380.0,0.397
380.5,0.4811
381.0,0.4823
381.5,0.3824
382.0,0.3397
382.5,0.2897
383.0,0.2683
383.5,0.2585
384.0,0.2852
384.5,0.4197
385.0,0.4163
385.5,0.3878
386.0,0.3322
386.5,0.4366
387.0,0.3629
387.5,0.4077
388.0,0.3765
388.5,0.3723
389.0,0.4019
389.5,0.4869
390.0,0.4888
390.5,0.45
391.0,0.5298
391.5,0.5405
392.0,0.4554
392.5,0.4078
393.0,0.227
393.5,0.165
394.0,0.3359
394.5,0.4272
395.0,0.5214
395.5,0.5298
396.0,0.4594
396.5,0.2687
397.0,0.2017
397.5,0.4102
398.0,0.5746
398.5,0.594
399.0,0.6435
399.5,0.6415
400.0,0.6662
401.0,0.6754
402.0,0.713
403.0,0.6776
404.0,0.6675
405.0,0.6676
406.0,0.6571
407.0,0.6468
408.0,0.6722
409.0,0.7198
410.0,0.6292
411.0,0.6818
412.0,0.7327
413.0,0.7147
414.0,0.7237
415.0,0.7259
416.0,0.739
417.0,0.721
418.0,0.7079
419.0,0.7175
420.0,0.7145
421.0,0.7478
422.0,0.7109
423.0,0.6947
424.0,0.7349
425.0,0.7338
426.0,0.7151
427.0,0.7019
428.0,0.6839
429.0,0.6481
430.0,0.5674
431.0,0.5624
432.0,0.7264
433.0,0.7306
434.0,0.6786
435.0,0.7088
436.0,0.7989
437.0,0.7885
438.0,0.7182
439.0,0.7427
440.0,0.7666
441.0,0.7946
442.0,0.8524
443.0,0.8303
444.0,0.8485
445.0,0.8302
446.0,0.7926
447.0,0.8572
448.0,0.8705
449.0,0.8743
450.0,0.8989
451.0,0.9324
452.0,0.8985
453.0,0.8453
454.0,0.8826
455.0,0.8882
456.0,0.9094
457.0,0.9246
458.0,0.893
459.0,0.8886
460.0,0.891
461.0,0.9116
462.0,0.9188
463.0,0.9125
464.0,0.8977
465.0,0.8866
466.0,0.8954
467.0,0.879
468.0,0.8894
469.0,0.8941
470.0,0.8656
471.0,0.8646
472.0,0.911
473.0,0.8992
474.0,0.9004
475.0,0.908
476.0,0.8807
477.0,0.8831
478.0,0.9077
479.0,0.9023
480.0,0.9042
481.0,0.9212
482.0,0.9262
483.0,0.9153
484.0,0.8966
485.0,0.8544
486.0,0.747
487.0,0.783
488.0,0.8591
489.0,0.8617
490.0,0.9067
491.0,0.8912
492.0,0.8416
493.0,0.8692
494.0,0.878
495.0,0.8854
496.0,0.8909
497.0,0.9048
498.0,0.8624
499.0,0.8734
500.0,0.8479
501.0,0.8322
502.0,0.8203
503.0,0.8535
504.0,0.8311
505.0,0.8615
506.0,0.8893
507.0,0.8463
508.0,0.8201
509.0,0.8433
510.0,0.839
511.0,0.8616
512.0,0.8711
513.0,0.8245
514.0,0.8189
515.0,0.8108
516.0,0.8088
517.0,0.7187
518.0,0.7556
519.0,0.7925
520.0,0.8213
521.0,0.8291
522.0,0.8298
523.0,0.8148
524.0,0.8438
525.0,0.8536
526.0,0.8154
527.0,0.7682
528.0,0.8124
529.0,0.8562
530.0,0.8438
531.0,0.8563
532.0,0.8268
533.0,0.8026
534.0,0.8264
535.0,0.8445
536.0,0.8524
537.0,0.8188
538.0,0.8333
539.0,0.8263
540.0,0.7922
541.0,0.7972
542.0,0.8221
543.0,0.8136
544.0,0.8276
545.0,0.825
546.0,0.8285
547.0,0.8283
548.0,0.8185
549.0,0.821
550.0,0.8308
551.0,0.8207
552.0,0.8264
553.0,0.8116
554.0,0.831
555.0,0.8326
556.0,0.8218
557.0,0.7962
558.0,0.7901
559.0,0.7752
560.0,0.7848
561.0,0.7949
562.0,0.789
563.0,0.8104
564.0,0.7882
565.0,0.7813
566.0,0.7697
567.0,0.7841
568.0,0.7767
569.0,0.7575
570.0,0.7574
571.0,0.7531
572.0,0.7706
573.0,0.7788
574.0,0.7762
575.0,0.7615
576.0,0.7546
577.0,0.7629
578.0,0.7516
579.0,0.755
580.0,0.7699
581.0,0.7743
582.0,0.7893
583.0,0.7915
584.0,0.7986
585.0,0.7792
586.0,0.7632
587.0,0.7797
588.0,0.7598
589.0,0.6713
590.0,0.7021
591.0,0.7441
592.0,0.7341
593.0,0.7458
594.0,0.7402
595.0,0.7213
596.0,0.7513
597.0,0.7428
598.0,0.7413
599.0,0.7422
600.0,0.7437
601.0,0.7379
602.0,0.7329
603.0,0.7452
604.0,0.7576
605.0,0.7538
606.0,0.7508
607.0,0.7585
608.0,0.7502
609.0,0.7517
610.0,0.7465
611.0,0.7505
612.0,0.7484
613.0,0.739
614.0,0.7291
615.0,0.7451
616.0,0.7207
617.0,0.7193
618.0,0.747
619.0,0.7395
620.0,0.7442
621.0,0.7448
622.0,0.7359
623.0,0.7246
624.0,0.7123
625.0,0.7107
626.0,0.7212
627.0,0.7289
628.0,0.6765
629.0,0.7102
630.0,0.6937
631.0,0.7108
632.0,0.7026
633.0,0.7245
634.0,0.718
635.0,0.7294
636.0,0.72
637.0,0.732
638.0,0.7394
639.0,0.7312
640.0,0.7243
641.0,0.724
642.0,0.7209
643.0,0.7306
644.0,0.7285
645.0,0.7295
646.0,0.712
647.0,0.7024
648.0,0.7029
649.0,0.6892
650.0,0.6941
651.0,0.7245
652.0,0.6927
653.0,0.7149
654.0,0.7071
655.0,0.68
656.0,0.6032
657.0,0.6195
658.0,0.6948
659.0,0.7
660.0,0.703
661.0,0.708
662.0,0.7091
663.0,0.6952
664.0,0.7039
665.0,0.7048
666.0,0.7054
667.0,0.705
668.0,0.7054
669.0,0.7165
670.0,0.7134
671.0,0.7133
672.0,0.7073
673.0,0.718
674.0,0.7154
675.0,0.709
676.0,0.7139
677.0,0.7069
678.0,0.7089
679.0,0.6975
680.0,0.7032
681.0,0.6985
682.0,0.6977
683.0,0.6963
684.0,0.6929
685.0,0.6989
686.0,0.6946
687.0,0.4426
688.0,0.5274
689.0,0.5296
690.0,0.5584
691.0,0.5911
692.0,0.6154
693.0,0.6101
694.0,0.6051
695.0,0.6325
696.0,0.6334
697.0,0.675
698.0,0.6645
699.0,0.6467
700.0,0.6388
701.0,0.6317
702.0,0.6368
703.0,0.638
704.0,0.6596
705.0,0.6606
706.0,0.6604
707.0,0.6611
708.0,0.6625
709.0,0.6641
710.0,0.6637
711.0,0.6631
712.0,0.6614
713.0,0.6545
714.0,0.657
715.0,0.6355
716.0,0.6357
717.0,0.5446
718.0,0.4992
719.0,0.4567
720.0,0.4778
721.0,0.5315
722.0,0.6125
723.0,0.568
724.0,0.5091
725.0,0.4999
726.0,0.5237
727.0,0.5329
728.0,0.4984
729.0,0.5195
730.0,0.5495
731.0,0.5251
732.0,0.5642
733.0,0.5997
734.0,0.6146
735.0,0.6016
736.0,0.6008
737.0,0.6031
738.0,0.6141
739.0,0.602
740.0,0.6182
741.0,0.6124
742.0,0.6133
743.0,0.629
744.0,0.6274
745.0,0.6277
746.0,0.6305
747.0,0.632
748.0,0.6306
749.0,0.6235
750.0,0.6231
751.0,0.6168
752.0,0.6195
753.0,0.6226
754.0,0.624
755.0,0.6205
756.0,0.6202
757.0,0.6211
758.0,0.6134
759.0,0.5999
760.0,0.08271
761.0,0.0405
762.0,0.2864
763.0,0.1324
764.0,0.2082
765.0,0.2864
766.0,0.3611
767.0,0.4656
768.0,0.5456
769.0,0.5589
770.0,0.5801
771.0,0.5857
772.0,0.5872
773.0,0.5914
774.0,0.5886
775.0,0.5842
776.0,0.5913
777.0,0.5835
778.0,0.58
779.0,0.5805
780.0,0.5772
781.0,0.5778
782.0,0.5815
783.0,0.5714
784.0,0.5742
785.0,0.5698
786.0,0.576
787.0,0.5651
788.0,0.5577
789.0,0.5574
790.0,0.5414
791.0,0.5472
792.0,0.5434
793.0,0.5344
794.0,0.5448
795.0,0.5537
796.0,0.535
797.0,0.5356
798.0,0.5529
799.0,0.549
800.0,0.5391
801.0,0.537
802.0,0.5355
803.0,0.5312
804.0,0.5321
805.0,0.5309
806.0,0.5466
807.0,0.5399
808.0,0.5404
809.0,0.5297
810.0,0.5249
811.0,0.5247
812.0,0.5086
813.0,0.4974
814.0,0.434
815.0,0.4315
816.0,0.4011
817.0,0.4089
818.0,0.3927
819.0,0.4422
820.0,0.4153
821.0,0.4898
822.0,0.4751
823.0,0.3162
824.0,0.4597
825.0,0.4812
826.0,0.4616
827.0,0.4885
828.0,0.41
829.0,0.459
830.0,0.4526
831.0,0.4543
832.0,0.4396
833.0,0.4698
834.0,0.4518
835.0,0.4993
836.0,0.476
837.0,0.5009
838.0,0.4843
839.0,0.4935
840.0,0.5046
841.0,0.497
842.0,0.4987
843.0,0.4991
844.0,0.4918
845.0,0.5089
846.0,0.5068
847.0,0.4976
848.0,0.4942
849.0,0.4801
850.0,0.46
851.0,0.4867
852.0,0.4835
853.0,0.4656
854.0,0.4018
855.0,0.4418
856.0,0.4827
857.0,0.4936
858.0,0.4899
859.0,0.4905
860.0,0.4914
861.0,0.4887
862.0,0.4965
863.0,0.5082
864.0,0.4828
865.0,0.4786
866.0,0.4303
867.0,0.4491
868.0,0.4887
869.0,0.4786
870.0,0.4922
871.0,0.4855
872.0,0.4838
873.0,0.4829
874.0,0.4771
875.0,0.4675
876.0,0.4723
877.0,0.4771
878.0,0.4822
879.0,0.4748
880.0,0.4646
881.0,0.4575
882.0,0.4673
883.0,0.469
884.0,0.4668
885.0,0.4703
886.0,0.4476
887.0,0.4528
888.0,0.4592
889.0,0.465
890.0,0.4604
891.0,0.46
892.0,0.4458
893.0,0.4309
894.0,0.4139
895.0,0.3887
896.0,0.3653
897.0,0.3107
898.0,0.3407
899.0,0.2555
900.0,0.3508
901.0,0.2679
902.0,0.3193
903.0,0.3208
904.0,0.4107
905.0,0.3956
906.0,0.3694
907.0,0.2954
908.0,0.302
909.0,0.3293
910.0,0.2873
911.0,0.3088
912.0,0.3235
913.0,0.2913
914.0,0.2896
915.0,0.314
916.0,0.2649
917.0,0.3403
918.0,0.2714
919.0,0.3477
920.0,0.3537
921.0,0.3681
922.0,0.3261
923.0,0.3558
924.0,0.3338
925.0,0.3266
926.0,0.3299
927.0,0.3723
928.0,0.2647
929.0,0.2393
930.0,0.1844
931.0,0.1752
932.0,0.1223
933.0,0.0975
934.0,0.04947
935.0,0.1014
936.0,0.06072
937.0,0.06129
938.0,0.07636
939.0,0.1697
940.0,0.2068
941.0,0.1525
942.0,0.1787
943.0,0.1147
944.0,0.1235
945.0,0.1579
946.0,0.07649
947.0,0.1576
948.0,0.1153
949.0,0.2148
950.0,0.05394
951.0,0.2122
952.0,0.1089
953.0,0.1441
954.0,0.1804
955.0,0.1461
956.0,0.1444
957.0,0.1087
958.0,0.2096
959.0,0.1622
960.0,0.1818
961.0,0.2074
962.0,0.1959
963.0,0.2288
964.0,0.2087
965.0,0.2282
966.0,0.2275
967.0,0.2262
968.0,0.3141
969.0,0.327
970.0,0.299
971.0,0.347
972.0,0.331
973.0,0.2834
974.0,0.2683
975.0,0.2804
976.0,0.2636
977.0,0.3052
978.0,0.2878
979.0,0.3029
980.0,0.2839
981.0,0.3451
982.0,0.3282
983.0,0.3141
984.0,0.3576
985.0,0.327
986.0,0.3652
987.0,0.3566
988.0,0.356
989.0,0.3648
990.0,0.3538
991.0,0.3658
992.0,0.368
993.0,0.3584
994.0,0.3681
995.0,0.3678
996.0,0.366
997.0,0.3666
998.0,0.3648
999.0,0.3635
1000.0,0.3606
1001.0,0.3655
1002.0,0.3541
1003.0,0.359
1004.0,0.3498
1005.0,0.3375
1006.0,0.3504
1007.0,0.358
1008.0,0.3558
1009.0,0.3536
1010.0,0.352
1011.0,0.3562
1012.0,0.3529
1013.0,0.3554
1014.0,0.3529
1015.0,0.3506
1016.0,0.349
1017.0,0.3498
1018.0,0.3486
1019.0,0.3407
1020.0,0.3467
1021.0,0.3463
1022.0,0.3435
1023.0,0.3471
1024.0,0.342
1025.0,0.347
1026.0,0.3454
1027.0,0.3446
1028.0,0.3438
1029.0,0.3397
1030.0,0.3423
1031.0,0.3408
1032.0,0.3399
1033.0,0.3347
1034.0,0.3348
1035.0,0.3358
1036.0,0.3375
1037.0,0.332
1038.0,0.3335
1039.0,0.3333
1040.0,0.3319
1041.0,0.3332
1042.0,0.3308
1043.0,0.3298
1044.0,0.3309
1045.0,0.3264
1046.0,0.3227
1047.0,0.3256
1048.0,0.3274
1049.0,0.3261
1050.0,0.3246
1051.0,0.3241
1052.0,0.3227
1053.0,0.3201
1054.0,0.3207
1055.0,0.3208
1056.0,0.3196
1057.0,0.3185
1058.0,0.3106
1059.0,0.3109
1060.0,0.3103
1061.0,0.3099
1062.0,0.3115
1063.0,0.3083
1064.0,0.312
1065.0,0.3096
1066.0,0.3036
1067.0,0.3075
1068.0,0.3006
1069.0,0.2914
1070.0,0.3012
1071.0,0.3063
1072.0,0.3024
1073.0,0.2982
1074.0,0.3064
1075.0,0.2896
1076.0,0.3061
1077.0,0.2998
1078.0,0.2938
1079.0,0.3014
1080.0,0.2952
1081.0,0.285
1082.0,0.2908
1083.0,0.292
1084.0,0.284
1085.0,0.296
1086.0,0.268
1087.0,0.2781
1088.0,0.2915
1089.0,0.2812
1090.0,0.2741
1091.0,0.2901
1092.0,0.2897
1093.0,0.2417
1094.0,0.2646
1095.0,0.2523
1096.0,0.2404
1097.0,0.283
1098.0,0.2362
1099.0,0.247
1100.0,0.2279
1101.0,0.2313
1102.0,0.2199
1103.0,0.217
1104.0,0.2173
1105.0,0.241
1106.0,0.1779
1107.0,0.2276
1108.0,0.1891
1109.0,0.1902
1110.0,0.225
1111.0,0.1475
1112.0,0.189
1113.0,0.1151
1114.0,0.1291
1115.0,0.1068
1116.0,0.08219
1117.0,0.02705
1118.0,0.09041
1119.0,0.04223
1120.0,0.05291
1121.0,0.07179
1122.0,0.02798
1123.0,0.04793
1124.0,0.04042
1125.0,0.05338
1126.0,0.01641
1127.0,0.06042
1128.0,0.03373
1129.0,0.03611
1130.0,0.02296
1131.0,0.1206
1132.0,0.09347
1133.0,0.05597
1134.0,0.01261
1135.0,0.004828
1136.0,0.04555
1137.0,0.1173
1138.0,0.08204
1139.0,0.1289
1140.0,0.1052
1141.0,0.07803
1142.0,0.09105
1143.0,0.132
1144.0,0.04305
1145.0,0.05404
1146.0,0.05824
1147.0,0.01826
1148.0,0.1141
1149.0,0.08917
1150.0,0.04669
1151.0,0.08138
1152.0,0.1025
1153.0,0.1016
1154.0,0.05216
1155.0,0.1343
1156.0,0.1197
1157.0,0.1365
1158.0,0.135
1159.0,0.1471
1160.0,0.1241
1161.0,0.1564
1162.0,0.1569
1163.0,0.2177
1164.0,0.1847
1165.0,0.1722
1166.0,0.1725
1167.0,0.1889
1168.0,0.1905
1169.0,0.1957
1170.0,0.2144
1171.0,0.2089
1172.0,0.2137
1173.0,0.214
1174.0,0.1488
1175.0,0.2098
1176.0,0.2327
1177.0,0.222
1178.0,0.1638
1179.0,0.2347
1180.0,0.2072
1181.0,0.214
1182.0,0.1444
1183.0,0.2112
1184.0,0.1968
1185.0,0.189
1186.0,0.2272
1187.0,0.2155
1188.0,0.1465
1189.0,0.2005
1190.0,0.2222
1191.0,0.2092
1192.0,0.2255
1193.0,0.2155
1194.0,0.2225
1195.0,0.2092
1196.0,0.2007
1197.0,0.2232
1198.0,0.2034
1199.0,0.1704
1200.0,0.2127
1201.0,0.2042
1202.0,0.2037
1203.0,0.2017
1204.0,0.1751
1205.0,0.2092
1206.0,0.2324
1207.0,0.2028
1208.0,0.2004
1209.0,0.2047
1210.0,0.2138
1211.0,0.2027
1212.0,0.199
1213.0,0.2241
1214.0,0.2043
1215.0,0.2002
1216.0,0.2235
1217.0,0.2171
1218.0,0.2217
1219.0,0.2187
1220.0,0.2219
1221.0,0.2244
1222.0,0.2183
1223.0,0.2161
1224.0,0.2143
1225.0,0.2229
1226.0,0.2247
1227.0,0.2061
1228.0,0.2261
1229.0,0.2248
1230.0,0.2207
1231.0,0.2278
1232.0,0.2264
1233.0,0.2176
1234.0,0.2278
1235.0,0.2262
1236.0,0.228
1237.0,0.2244
1238.0,0.2272
1239.0,0.2243
1240.0,0.2252
1241.0,0.2239
1242.0,0.2236
1243.0,0.2218
1244.0,0.2233
1245.0,0.2243
1246.0,0.223
1247.0,0.2221
1248.0,0.2218
1249.0,0.2226
1250.0,0.2212
1251.0,0.2182
1252.0,0.2184
1253.0,0.2163
1254.0,0.2139
1255.0,0.2181
1256.0,0.2113
1257.0,0.21
1258.0,0.2145
1259.0,0.2057
1260.0,0.2069
1261.0,0.194
1262.0,0.1875
1263.0,0.1878
1264.0,0.1718
1265.0,0.1866
1266.0,0.1786
1267.0,0.1824
1268.0,0.172
1269.0,0.1001
1270.0,0.1815
1271.0,0.1935
1272.0,0.1943
1273.0,0.1921
1274.0,0.1929
1275.0,0.1959
1276.0,0.1981
1277.0,0.1997
1278.0,0.2041
1279.0,0.2022
1280.0,0.1997
1281.0,0.1907
1282.0,0.1842
1283.0,0.1983
1284.0,0.2029
1285.0,0.2044
1286.0,0.2073
1287.0,0.2037
1288.0,0.2038
1289.0,0.1965
1290.0,0.202
1291.0,0.205
1292.0,0.1911
1293.0,0.2007
1294.0,0.1992
1295.0,0.1978
1296.0,0.1879
1297.0,0.177
1298.0,0.192
1299.0,0.2011
1300.0,0.1676
1301.0,0.1733
1302.0,0.1914
1303.0,0.1657
1304.0,0.139
1305.0,0.1873
1306.0,0.1872
1307.0,0.1428
1308.0,0.1664
1309.0,0.1854
1310.0,0.14
1311.0,0.159
1312.0,0.1543
1313.0,0.1508
1314.0,0.1342
1315.0,0.1318
1316.0,0.156
1317.0,0.1475
1318.0,0.1613
1319.0,0.1231
1320.0,0.12
1321.0,0.1407
1322.0,0.1416
1323.0,0.1041
1324.0,0.1209
1325.0,0.1536
1326.0,0.1303
1327.0,0.1238
1328.0,0.1059
1329.0,0.07736
1330.0,0.1018
1331.0,0.05887
1332.0,0.06165
1333.0,0.08638
1334.0,0.07456
1335.0,0.1036
1336.0,0.08056
1337.0,0.07059
1338.0,0.07635
1339.0,0.07639
1340.0,0.07504
1341.0,0.07156
1342.0,0.07533
1343.0,0.04775
1344.0,0.02884
1345.0,0.04166
1346.0,0.01874
1347.0,0.01872
1348.0,0.0009722
1349.0,0.003714
1350.0,0.00403
1351.0,0.0008001
1352.0,0.0001714
1353.0,6.985e-06
1354.0,2.813e-05
1355.0,1.397e-07
1356.0,3.367e-06
1357.0,5.15e-06
1358.0,1.688e-07
1359.0,1.466e-08
1360.0,6.766e-08
1361.0,3.496e-11
1362.0,7.037e-14
1363.0,8.033e-08
1364.0,3.321e-08
1365.0,1.615e-14
1366.0,3.874e-07
1367.0,1.725e-07
1368.0,5.652e-17
1369.0,1.224e-08
1370.0,5.157e-09
1371.0,2.444e-10
1372.0,9.544e-08
1373.0,2.463e-06
1374.0,1.359e-05
1375.0,2.425e-05
1376.0,2.558e-05
1377.0,1.131e-05
1378.0,0.000118
1379.0,4.743e-06
1380.0,6.112e-06
1381.0,1.459e-07
1382.0,8.222e-08
1383.0,1.088e-09
1384.0,1.295e-08
1385.0,9.347e-08
1386.0,6.543e-08
1387.0,1.255e-05
1388.0,2.537e-07
1389.0,5.202e-05
1390.0,4.44e-05
1391.0,2.875e-05
1392.0,1.789e-06
1393.0,1.039e-05
1394.0,4.022e-06
1395.0,2.474e-08
1396.0,5.603e-11
1397.0,3.869e-06
1398.0,0.0001297
1399.0,8.294e-05
1400.0,1.964e-11
1401.0,1.086e-10
1402.0,0.0002969
1403.0,0.0003553
1404.0,0.0001059
1405.0,1.052e-08
1406.0,0.0002534
1407.0,2.415e-05
1408.0,0.0002106
1409.0,6.139e-05
1410.0,5.456e-05
1411.0,0.0003156
1412.0,0.0004558
1413.0,0.005703
1414.0,4.39e-05
1415.0,1.976e-05
1416.0,0.01071
1417.0,0.002827
1418.0,0.003118
1419.0,0.0004681
1420.0,0.001895
1421.0,0.002077
1422.0,0.01405
1423.0,0.002623
1424.0,0.00504
1425.0,0.00719
1426.0,0.008688
1427.0,0.01715
1428.0,0.0008941
1429.0,0.01222
1430.0,0.02242
1431.0,0.02503
1432.0,0.0006966
1433.0,0.01537
1434.0,0.007552
1435.0,0.00665
1436.0,0.0142
1437.0,0.01092
1438.0,0.00424
1439.0,0.01991
