interpolation:linear
wavelength,value
280.0,3.0689999999999996e-22
280.5,1.0080000000000002e-20
281.0,5.4010000000000004e-20
281.5,4.114e-19
282.0,6.785e-19
282.5,1.683e-18
283.0,5.323e-18
283.5,8.665e-18
284.0,1.426e-16
284.5,4.157e-16
285.0,6.883e-16
285.5,3.435e-15
286.0,1.385e-14
286.5,6.236e-14
287.0,1.789e-13
287.5,6.895e-13
288.0,2.374e-12
288.5,7.162e-12
289.0,1.904e-11
289.5,5.742e-11
290.0,1.593e-10
290.5,3.246e-10
291.0,6.967e-10
291.5,2e-09
292.0,4.051e-09
292.5,5.697e-09
293.0,1.225e-08
293.5,2.992e-08
294.0,4.688e-08
294.5,6.421e-08
295.0,1.09e-07
295.5,1.847e-07
296.0,3.603e-07
296.5,5.1e-07
297.0,6.977e-07
297.5,1.909e-06
298.0,3.067e-06
298.5,3.137e-06
299.0,7.042e-06
299.5,1.213e-05
300.0,1.365e-05
300.5,2.028e-05
301.0,3.84e-05
301.5,6.4e-05
302.0,5.606e-05
302.5,0.0001132
303.0,0.0002131
303.5,0.0002785
304.0,0.0002711
304.5,0.0004447
305.0,0.0007724
305.5,0.0009659
306.0,0.0009676
306.5,0.001277
307.0,0.002156
307.5,0.003256
308.0,0.003511
308.5,0.004421
309.0,0.004511
309.5,0.00568
310.0,0.005962
310.5,0.009867
311.0,0.01283
311.5,0.01258
312.0,0.01358
312.5,0.01737
313.0,0.01935
313.5,0.01834
314.0,0.02435
314.5,0.02337
315.0,0.03114
315.5,0.02508
316.0,0.02335
316.5,0.03542
317.0,0.04393
317.5,0.04502
318.0,0.03646
318.5,0.04861
319.0,0.0598
319.5,0.04603
320.0,0.05514
320.5,0.07419
321.0,0.0705
321.5,0.06804
322.0,0.06767
322.5,0.05909
323.0,0.06158
323.5,0.07894
324.0,0.09283
324.5,0.09254
325.0,0.07815
325.5,0.1043
326.0,0.1288
326.5,0.1321
327.0,0.1306
327.5,0.1248
328.0,0.1077
328.5,0.1176
329.0,0.1452
329.5,0.1664
330.0,0.1666
330.5,0.1303
331.0,0.1318
331.5,0.1363
332.0,0.1511
332.5,0.1512
333.0,0.1498
333.5,0.1331
334.0,0.136
334.5,0.1604
335.0,0.1526
335.5,0.1788
336.0,0.1238
336.5,0.1437
337.0,0.1169
337.5,0.145
338.0,0.1441
338.5,0.1672
339.0,0.1657
339.5,0.1594
340.0,0.1866
340.5,0.1686
341.0,0.165
341.5,0.1518
342.0,0.1816
342.5,0.1701
343.0,0.1869
343.5,0.176
344.0,0.1297
344.5,0.1313
345.0,0.1743
345.5,0.1782
346.0,0.1517
346.5,0.1719
347.0,0.1844
347.5,0.1492
348.0,0.1704
348.5,0.1705
349.0,0.1583
349.5,0.1569
350.0,0.1942
350.5,0.2049
351.0,0.183
351.5,0.1777
352.0,0.1912
352.5,0.1494
353.0,0.1884
353.5,0.2017
354.0,0.2095
354.5,0.2126
355.0,0.2119
355.5,0.1916
356.0,0.2007
356.5,0.1714
357.0,0.1417
357.5,0.1735
358.0,0.1376
358.5,0.1177
359.0,0.1646
359.5,0.2097
360.0,0.2225
360.5,0.178
361.0,0.1624
361.5,0.1872
362.0,0.1621
362.5,0.2246
363.0,0.2019
363.5,0.1862
364.0,0.2279
364.5,0.1949
365.0,0.1986
365.5,0.2495
366.0,0.2645
366.5,0.2488
367.0,0.2424
367.5,0.2518
368.0,0.2205
368.5,0.2226
369.0,0.2406
369.5,0.2566
370.0,0.2738
370.5,0.2126
371.0,0.2274
371.5,0.2846
372.0,0.189
372.5,0.2268
373.0,0.2309
373.5,0.1504
374.0,0.2186
374.5,0.1812
375.0,0.1763
375.5,0.2633
376.0,0.2184
376.5,0.2264
377.0,0.2399
377.5,0.2809
378.0,0.3046
378.5,0.288
379.0,0.2378
379.5,0.2173
380.0,0.226
380.5,0.274
381.0,0.2748
381.5,0.2181
382.0,0.1939
382.5,0.1654
383.0,0.1533
383.5,0.1478
384.0,0.1631
384.5,0.2401
385.0,0.2383
385.5,0.2221
386.0,0.1903
386.5,0.2503
387.0,0.2081
387.5,0.2338
388.0,0.216
388.5,0.2137
389.0,0.2308
389.5,0.2798
390.0,0.281
390.5,0.2588
391.0,0.3048
391.5,0.3111
392.0,0.2622
392.5,0.2349
393.0,0.1308
393.5,0.09517
394.0,0.1938
394.5,0.2466
395.0,0.301
395.5,0.3059
396.0,0.2654
396.5,0.1553
397.0,0.1167
397.5,0.2374
398.0,0.3325
398.5,0.3439
399.0,0.3728
399.5,0.3718
400.0,0.3862
401.0,0.3896
402.0,0.4117
403.0,0.3917
404.0,0.3861
405.0,0.3865
406.0,0.3808
407.0,0.3752
408.0,0.3901
409.0,0.418
410.0,0.3657
411.0,0.3967
412.0,0.4267
413.0,0.4164
414.0,0.4221
415.0,0.4238
416.0,0.4318
417.0,0.4216
418.0,0.4142
419.0,0.4202
420.0,0.4187
421.0,0.4385
422.0,0.4172
423.0,0.4079
424.0,0.4317
425.0,0.4314
426.0,0.4209
427.0,0.4134
428.0,0.403
429.0,0.3824
430.0,0.335
431.0,0.3321
432.0,0.4294
433.0,0.4322
434.0,0.4016
435.0,0.4195
436.0,0.4734
437.0,0.4678
438.0,0.4264
439.0,0.4407
440.0,0.4552
441.0,0.4722
442.0,0.5068
443.0,0.4935
444.0,0.5049
445.0,0.494
446.0,0.4723
447.0,0.5114
448.0,0.5191
449.0,0.5222
450.0,0.5373
451.0,0.5575
452.0,0.5376
453.0,0.5061
454.0,0.529
455.0,0.5324
456.0,0.5453
457.0,0.5546
458.0,0.5354
459.0,0.5329
460.0,0.5342
461.0,0.5467
462.0,0.5516
463.0,0.5478
464.0,0.5397
465.0,0.5337
466.0,0.5396
467.0,0.5295
468.0,0.5359
469.0,0.5388
470.0,0.5216
471.0,0.5211
472.0,0.5492
473.0,0.5421
474.0,0.5424
475.0,0.5465
476.0,0.5294
477.0,0.5303
478.0,0.5453
479.0,0.5425
480.0,0.544
481.0,0.5549
482.0,0.5585
483.0,0.5527
484.0,0.5419
485.0,0.5168
486.0,0.4524
487.0,0.4747
488.0,0.5208
489.0,0.5222
490.0,0.5498
491.0,0.5407
492.0,0.5107
493.0,0.5275
494.0,0.533
495.0,0.5376
496.0,0.541
497.0,0.5493
498.0,0.5235
499.0,0.5299
500.0,0.5141
501.0,0.5041
502.0,0.4961
503.0,0.5152
504.0,0.4992
505.0,0.5195
506.0,0.5362
507.0,0.5104
508.0,0.4954
509.0,0.5101
510.0,0.508
511.0,0.5222
512.0,0.5282
513.0,0.5001
514.0,0.4969
515.0,0.492
516.0,0.4907
517.0,0.4362
518.0,0.4585
519.0,0.4809
520.0,0.4983
521.0,0.5029
522.0,0.5031
523.0,0.4938
524.0,0.511
525.0,0.5162
526.0,0.4929
527.0,0.4638
528.0,0.4901
529.0,0.5161
530.0,0.5084
531.0,0.5157
532.0,0.4979
533.0,0.4833
534.0,0.4978
535.0,0.5091
536.0,0.5141
537.0,0.4941
538.0,0.503
539.0,0.4988
540.0,0.478
541.0,0.4803
542.0,0.4949
543.0,0.4904
544.0,0.4982
545.0,0.4968
546.0,0.4982
547.0,0.4986
548.0,0.493
549.0,0.4947
550.0,0.5007
551.0,0.4947
552.0,0.4982
553.0,0.4891
554.0,0.5007
555.0,0.5015
556.0,0.4949
557.0,0.4792
558.0,0.4752
559.0,0.4658
560.0,0.4713
561.0,0.477
562.0,0.473
563.0,0.4852
564.0,0.4715
565.0,0.467
566.0,0.4597
567.0,0.4678
568.0,0.462
569.0,0.4481
570.0,0.4484
571.0,0.4464
572.0,0.4552
573.0,0.4597
574.0,0.4578
575.0,0.4485
576.0,0.4445
577.0,0.4496
578.0,0.4437
579.0,0.4469
580.0,0.4575
581.0,0.4616
582.0,0.4718
583.0,0.4741
584.0,0.479
585.0,0.4678
586.0,0.4583
587.0,0.4674
588.0,0.4523
589.0,0.3936
590.0,0.4122
591.0,0.4405
592.0,0.4324
593.0,0.4421
594.0,0.4377
595.0,0.4242
596.0,0.4468
597.0,0.4404
598.0,0.4411
599.0,0.4423
600.0,0.4444
601.0,0.4419
602.0,0.4391
603.0,0.4469
604.0,0.4546
605.0,0.4526
606.0,0.4514
607.0,0.4566
608.0,0.4522
609.0,0.4536
610.0,0.451
611.0,0.4537
612.0,0.4528
613.0,0.4474
614.0,0.4419
615.0,0.4521
616.0,0.4376
617.0,0.4371
618.0,0.4542
619.0,0.4498
620.0,0.4527
621.0,0.4526
622.0,0.4469
623.0,0.4397
624.0,0.4326
625.0,0.4316
626.0,0.4378
627.0,0.4413
628.0,0.3956
629.0,0.4251
630.0,0.4147
631.0,0.4297
632.0,0.4257
633.0,0.441
634.0,0.4386
635.0,0.4463
636.0,0.4415
637.0,0.4496
638.0,0.4552
639.0,0.4508
640.0,0.4472
641.0,0.4475
642.0,0.4462
643.0,0.4523
644.0,0.4516
645.0,0.4519
646.0,0.4394
647.0,0.4295
648.0,0.43
649.0,0.4211
650.0,0.4291
651.0,0.4488
652.0,0.4241
653.0,0.4431
654.0,0.4387
655.0,0.4194
656.0,0.3738
657.0,0.3842
658.0,0.4325
659.0,0.4363
660.0,0.4386
661.0,0.4419
662.0,0.4417
663.0,0.4334
664.0,0.4402
665.0,0.4418
666.0,0.4427
667.0,0.443
668.0,0.4439
669.0,0.4512
670.0,0.4495
671.0,0.4497
672.0,0.4461
673.0,0.4531
674.0,0.4517
675.0,0.4479
676.0,0.4512
677.0,0.447
678.0,0.4485
679.0,0.4415
680.0,0.4452
681.0,0.4423
682.0,0.4418
683.0,0.441
684.0,0.4388
685.0,0.4428
686.0,0.4399
687.0,0.2237
688.0,0.2918
689.0,0.2939
690.0,0.3191
691.0,0.3487
692.0,0.3721
693.0,0.3683
694.0,0.3666
695.0,0.3906
696.0,0.3916
697.0,0.4257
698.0,0.4189
699.0,0.4019
700.0,0.3967
701.0,0.39
702.0,0.3955
703.0,0.3968
704.0,0.4137
705.0,0.4143
706.0,0.4155
707.0,0.4165
708.0,0.4172
709.0,0.4206
710.0,0.4191
711.0,0.4196
712.0,0.4197
713.0,0.4141
714.0,0.4161
715.0,0.4001
716.0,0.3996
717.0,0.3214
718.0,0.293
719.0,0.2664
720.0,0.2765
721.0,0.3196
722.0,0.3812
723.0,0.3471
724.0,0.3033
725.0,0.2954
726.0,0.31
727.0,0.3208
728.0,0.2934
729.0,0.3132
730.0,0.3296
731.0,0.3136
732.0,0.3448
733.0,0.3735
734.0,0.3851
735.0,0.3756
736.0,0.3748
737.0,0.3764
738.0,0.3889
739.0,0.3813
740.0,0.3933
741.0,0.3906
742.0,0.3922
743.0,0.4026
744.0,0.4022
745.0,0.4029
746.0,0.4048
747.0,0.4058
748.0,0.4051
749.0,0.4005
750.0,0.4003
751.0,0.3963
752.0,0.3981
753.0,0.4002
754.0,0.4011
755.0,0.3988
756.0,0.3987
757.0,0.3993
758.0,0.3942
759.0,0.3818
760.0,0.02042
761.0,0.007388
762.0,0.1277
763.0,0.04048
764.0,0.07907
765.0,0.1275
766.0,0.1839
767.0,0.2647
768.0,0.335
769.0,0.3491
770.0,0.3691
771.0,0.3757
772.0,0.3777
773.0,0.3806
774.0,0.379
775.0,0.3763
776.0,0.381
777.0,0.376
778.0,0.3737
779.0,0.374
780.0,0.372
781.0,0.3725
782.0,0.3749
783.0,0.3684
784.0,0.3704
785.0,0.3673
786.0,0.3711
787.0,0.3613
788.0,0.3553
789.0,0.355
790.0,0.3412
791.0,0.3485
792.0,0.3466
793.0,0.3406
794.0,0.3509
795.0,0.3556
796.0,0.3385
797.0,0.3384
798.0,0.3544
799.0,0.351
800.0,0.3435
801.0,0.3409
802.0,0.3399
803.0,0.3365
804.0,0.3377
805.0,0.3384
806.0,0.3511
807.0,0.3462
808.0,0.3467
809.0,0.3378
810.0,0.3336
811.0,0.3307
812.0,0.317
813.0,0.3086
814.0,0.2598
815.0,0.259
816.0,0.2396
817.0,0.2447
818.0,0.2329
819.0,0.2704
820.0,0.2511
821.0,0.3084
822.0,0.2972
823.0,0.1799
824.0,0.2828
825.0,0.303
826.0,0.2867
827.0,0.3075
828.0,0.2465
829.0,0.2859
830.0,0.281
831.0,0.2821
832.0,0.2709
833.0,0.2948
834.0,0.2799
835.0,0.3179
836.0,0.2973
837.0,0.319
838.0,0.3055
839.0,0.3148
840.0,0.3226
841.0,0.3165
842.0,0.3196
843.0,0.3219
844.0,0.3161
845.0,0.3285
846.0,0.3275
847.0,0.3222
848.0,0.3191
849.0,0.31
850.0,0.2971
851.0,0.3134
852.0,0.3118
853.0,0.301
854.0,0.2591
855.0,0.2858
856.0,0.3118
857.0,0.3196
858.0,0.3168
859.0,0.3176
860.0,0.3185
861.0,0.3167
862.0,0.3218
863.0,0.3295
864.0,0.313
865.0,0.3104
866.0,0.2791
867.0,0.2913
868.0,0.317
869.0,0.3105
870.0,0.3194
871.0,0.315
872.0,0.314
873.0,0.3134
874.0,0.3097
875.0,0.3033
876.0,0.3064
877.0,0.3096
878.0,0.3128
879.0,0.308
880.0,0.3014
881.0,0.2964
882.0,0.3025
883.0,0.3041
884.0,0.3025
885.0,0.3047
886.0,0.2884
887.0,0.293
888.0,0.2965
889.0,0.3015
890.0,0.2969
891.0,0.2975
892.0,0.2861
893.0,0.2745
894.0,0.2591
895.0,0.2376
896.0,0.222
897.0,0.1825
898.0,0.2031
899.0,0.1454
900.0,0.2133
901.0,0.1523
902.0,0.191
903.0,0.1885
904.0,0.257
905.0,0.2456
906.0,0.2276
907.0,0.1716
908.0,0.1776
909.0,0.1975
910.0,0.1647
911.0,0.183
912.0,0.1921
913.0,0.1666
914.0,0.1673
915.0,0.1805
916.0,0.1514
917.0,0.2019
918.0,0.1544
919.0,0.2091
920.0,0.2186
921.0,0.227
922.0,0.1956
923.0,0.2201
924.0,0.1985
925.0,0.1946
926.0,0.1955
927.0,0.2262
928.0,0.1451
929.0,0.1271
930.0,0.09148
931.0,0.08688
932.0,0.0544
933.0,0.04079
934.0,0.01578
935.0,0.04441
936.0,0.02323
937.0,0.02335
938.0,0.03028
939.0,0.08396
940.0,0.1073
941.0,0.07312
942.0,0.08871
943.0,0.0525
944.0,0.06121
945.0,0.07711
946.0,0.03163
947.0,0.07535
948.0,0.05461
949.0,0.1086
950.0,0.02001
951.0,0.108
952.0,0.04848
953.0,0.06892
954.0,0.09179
955.0,0.07049
956.0,0.0757
957.0,0.04802
958.0,0.1155
959.0,0.08254
960.0,0.09253
961.0,0.1112
962.0,0.1048
963.0,0.1274
964.0,0.1148
965.0,0.1268
966.0,0.1259
967.0,0.1244
968.0,0.1928
969.0,0.1975
970.0,0.179
971.0,0.2165
972.0,0.2045
973.0,0.1665
974.0,0.157
975.0,0.1668
976.0,0.1519
977.0,0.1864
978.0,0.1714
979.0,0.1828
980.0,0.1702
981.0,0.2155
982.0,0.2017
983.0,0.1914
984.0,0.2274
985.0,0.2008
986.0,0.2348
987.0,0.2264
988.0,0.2263
989.0,0.2363
990.0,0.2247
991.0,0.2366
992.0,0.2384
993.0,0.2292
994.0,0.2387
995.0,0.239
996.0,0.2374
997.0,0.238
998.0,0.2366
999.0,0.236
1000.0,0.2334
1001.0,0.2373
1002.0,0.2269
1003.0,0.2329
1004.0,0.2262
1005.0,0.2193
1006.0,0.2272
1007.0,0.2323
1008.0,0.2304
1009.0,0.2284
1010.0,0.2271
1011.0,0.2313
1012.0,0.2285
1013.0,0.2309
1014.0,0.2293
1015.0,0.2277
1016.0,0.2266
1017.0,0.227
1018.0,0.2266
1019.0,0.2203
1020.0,0.2252
1021.0,0.2251
1022.0,0.2228
1023.0,0.2251
1024.0,0.2207
1025.0,0.2255
1026.0,0.2241
1027.0,0.2237
1028.0,0.2231
1029.0,0.2203
1030.0,0.2224
1031.0,0.2213
1032.0,0.2208
1033.0,0.2174
1034.0,0.2175
1035.0,0.2182
1036.0,0.2191
1037.0,0.2156
1038.0,0.2165
1039.0,0.2163
1040.0,0.2154
1041.0,0.2161
1042.0,0.2146
1043.0,0.2138
1044.0,0.2145
1045.0,0.2115
1046.0,0.2091
1047.0,0.2108
1048.0,0.2119
1049.0,0.211
1050.0,0.2099
1051.0,0.2094
1052.0,0.2084
1053.0,0.2066
1054.0,0.2068
1055.0,0.2067
1056.0,0.2057
1057.0,0.2049
1058.0,0.1997
1059.0,0.1996
1060.0,0.1992
1061.0,0.1988
1062.0,0.1996
1063.0,0.1975
1064.0,0.1999
1065.0,0.1979
1066.0,0.1944
1067.0,0.1968
1068.0,0.1921
1069.0,0.1865
1070.0,0.1924
1071.0,0.1967
1072.0,0.1935
1073.0,0.1909
1074.0,0.1973
1075.0,0.1836
1076.0,0.1969
1077.0,0.1913
1078.0,0.1867
1079.0,0.1945
1080.0,0.1884
1081.0,0.1804
1082.0,0.1866
1083.0,0.1881
1084.0,0.1793
1085.0,0.1892
1086.0,0.1676
1087.0,0.1763
1088.0,0.1872
1089.0,0.1778
1090.0,0.172
1091.0,0.1857
1092.0,0.1859
1093.0,0.148
1094.0,0.1688
1095.0,0.1547
1096.0,0.1455
1097.0,0.1816
1098.0,0.1418
1099.0,0.1493
1100.0,0.1352
1101.0,0.1382
1102.0,0.1294
1103.0,0.1263
1104.0,0.1267
1105.0,0.1451
1106.0,0.09619
1107.0,0.1351
1108.0,0.1057
1109.0,0.1074
1110.0,0.132
1111.0,0.07798
1112.0,0.1071
1113.0,0.0572
1114.0,0.06442
1115.0,0.05257
1116.0,0.03635
1117.0,0.008657
1118.0,0.04088
1119.0,0.01588
1120.0,0.01936
1121.0,0.02793
1122.0,0.008468
1123.0,0.01768
1124.0,0.01486
1125.0,0.02048
1126.0,0.00415
1127.0,0.0234
1128.0,0.01046
1129.0,0.01142
1130.0,0.006874
1131.0,0.05468
1132.0,0.0408
1133.0,0.0204
1134.0,0.003118
1135.0,0.001308
1136.0,0.01527
1137.0,0.05153
1138.0,0.03528
1139.0,0.06522
1140.0,0.0496
1141.0,0.03368
1142.0,0.04097
1143.0,0.06378
1144.0,0.01693
1145.0,0.01966
1146.0,0.02115
1147.0,0.004566
1148.0,0.05444
1149.0,0.04
1150.0,0.01932
1151.0,0.035
1152.0,0.04724
1153.0,0.04942
1154.0,0.01935
1155.0,0.06787
1156.0,0.05848
1157.0,0.07105
1158.0,0.07007
1159.0,0.07838
1160.0,0.06468
1161.0,0.08704
1162.0,0.08669
1163.0,0.1308
1164.0,0.1073
1165.0,0.09633
1166.0,0.09975
1167.0,0.111
1168.0,0.1111
1169.0,0.1151
1170.0,0.1293
1171.0,0.126
1172.0,0.1311
1173.0,0.1292
1174.0,0.08267
1175.0,0.1287
1176.0,0.1474
1177.0,0.1374
1178.0,0.09593
1179.0,0.1486
1180.0,0.1264
1181.0,0.1306
1182.0,0.08186
1183.0,0.1299
1184.0,0.1189
1185.0,0.1121
1186.0,0.1417
1187.0,0.1321
1188.0,0.08174
1189.0,0.1227
1190.0,0.1391
1191.0,0.1264
1192.0,0.1415
1193.0,0.1338
1194.0,0.1391
1195.0,0.1278
1196.0,0.121
1197.0,0.1408
1198.0,0.127
1199.0,0.1003
1200.0,0.1319
1201.0,0.1244
1202.0,0.1261
1203.0,0.1236
1204.0,0.1048
1205.0,0.1312
1206.0,0.1487
1207.0,0.1246
1208.0,0.125
1209.0,0.128
1210.0,0.1352
1211.0,0.126
1212.0,0.1201
1213.0,0.1417
1214.0,0.1246
1215.0,0.1218
1216.0,0.1417
1217.0,0.1365
1218.0,0.1404
1219.0,0.1378
1220.0,0.1407
1221.0,0.143
1222.0,0.1387
1223.0,0.1367
1224.0,0.1343
1225.0,0.1419
1226.0,0.144
1227.0,0.1287
1228.0,0.1456
1229.0,0.144
1230.0,0.1408
1231.0,0.1475
1232.0,0.1465
1233.0,0.1379
1234.0,0.1482
1235.0,0.1467
1236.0,0.1482
1237.0,0.1446
1238.0,0.1477
1239.0,0.1458
1240.0,0.1465
1241.0,0.1449
1242.0,0.1454
1243.0,0.1443
1244.0,0.145
1245.0,0.1458
1246.0,0.145
1247.0,0.1442
1248.0,0.1436
1249.0,0.1445
1250.0,0.1433
1251.0,0.1409
1252.0,0.1416
1253.0,0.1392
1254.0,0.1368
1255.0,0.1412
1256.0,0.1348
1257.0,0.1336
1258.0,0.138
1259.0,0.1293
1260.0,0.1304
1261.0,0.1186
1262.0,0.1127
1263.0,0.1128
1264.0,0.09901
1265.0,0.1122
1266.0,0.1049
1267.0,0.1089
1268.0,0.09988
1269.0,0.04367
1270.0,0.1076
1271.0,0.1188
1272.0,0.1197
1273.0,0.1179
1274.0,0.119
1275.0,0.1215
1276.0,0.1236
1277.0,0.1256
1278.0,0.1297
1279.0,0.1284
1280.0,0.127
1281.0,0.122
1282.0,0.1189
1283.0,0.1278
1284.0,0.1306
1285.0,0.1317
1286.0,0.1343
1287.0,0.1308
1288.0,0.1312
1289.0,0.1242
1290.0,0.1302
1291.0,0.1325
1292.0,0.1194
1293.0,0.1287
1294.0,0.1276
1295.0,0.1253
1296.0,0.1166
1297.0,0.1081
1298.0,0.1211
1299.0,0.1294
1300.0,0.1017
1301.0,0.1061
1302.0,0.1209
1303.0,0.1011
1304.0,0.07924
1305.0,0.118
1306.0,0.1173
1307.0,0.08355
1308.0,0.1025
1309.0,0.1152
1310.0,0.08132
1311.0,0.09661
1312.0,0.09302
1313.0,0.08952
1314.0,0.07761
1315.0,0.07505
1316.0,0.09372
1317.0,0.08778
1318.0,0.09843
1319.0,0.06863
1320.0,0.06812
1321.0,0.08229
1322.0,0.08154
1323.0,0.05477
1324.0,0.06766
1325.0,0.09148
1326.0,0.07439
1327.0,0.06976
1328.0,0.05785
1329.0,0.03785
1330.0,0.05224
1331.0,0.02576
1332.0,0.02823
1333.0,0.04036
1334.0,0.03804
1335.0,0.054
1336.0,0.0393
1337.0,0.03386
1338.0,0.03625
1339.0,0.03687
1340.0,0.0376
1341.0,0.0326
1342.0,0.03478
1343.0,0.01737
1344.0,0.011
1345.0,0.01543
1346.0,0.004835
1347.0,0.004468
1348.0,0.0001127
1349.0,0.0005032
1350.0,0.000608
1351.0,6.179e-05
1352.0,5.483e-06
1353.0,1.423e-07
1354.0,8.518e-07
1355.0,1.931e-09
1356.0,6.859e-08
1357.0,1.035e-07
1358.0,2.339e-09
1359.0,2.166e-10
1360.0,9.037e-10
1361.0,8.254e-13
1362.0,2.249e-15
1363.0,1.074e-09
1364.0,4.545e-10
1365.0,7.841e-16
1366.0,4.889e-09
1367.0,2.246e-09
1368.0,6.054e-18
1369.0,1.678e-10
1370.0,7.775e-11
1371.0,4.291e-12
1372.0,1.246e-09
1373.0,3.724e-08
1374.0,2.791e-07
1375.0,4.268e-07
1376.0,7.962e-07
1377.0,3.273e-07
1378.0,3.457e-06
1379.0,1.429e-07
1380.0,1.278e-07
1381.0,2.834e-09
1382.0,1.04e-09
1383.0,1.457e-11
1384.0,1.763e-10
1385.0,1.326e-09
1386.0,8.311e-10
1387.0,1.812e-07
1388.0,4.877e-09
1389.0,1.236e-06
1390.0,9.707e-07
1391.0,6.314e-07
1392.0,4.056e-08
1393.0,2.84e-07
1394.0,5.457e-08
1395.0,3.226e-10
1396.0,1.08e-12
1397.0,8.981e-08
1398.0,3.398e-06
1399.0,2.302e-06
1400.0,4.585e-13
1401.0,1.925e-12
1402.0,2.16e-05
1403.0,2.07e-05
1404.0,5.463e-06
1405.0,1.297e-10
1406.0,9.181e-06
1407.0,1.479e-06
1408.0,8.228e-06
1409.0,1.523e-06
1410.0,2.207e-06
1411.0,1.932e-05
1412.0,3.586e-05
1413.0,0.0007772
1414.0,1.935e-06
1415.0,7.222e-07
1416.0,0.002429
1417.0,0.0004568
1418.0,0.0003928
1419.0,5.466e-05
1420.0,0.0002361
1421.0,0.0003152
1422.0,0.003172
1423.0,0.0005631
1424.0,0.001197
1425.0,0.001486
1426.0,0.002224
1427.0,0.005132
1428.0,9.409e-05
