interpolation:linear
wavelength,value
280.0,4.721e-22
280.5,9.293e-21
281.0,4.2130000000000005e-20
281.5,8.911e-19
282.0,5.681e-18
282.5,1.88e-17
283.0,7.113e-17
283.5,1.233e-16
284.0,2.331e-15
284.5,6.98e-15
285.0,2.007e-14
285.5,1.354e-13
286.0,5.952e-13
286.5,3.056e-12
287.0,9.43e-12
287.5,3.894e-11
288.0,1.349e-10
288.5,5.064e-10
289.0,1.604e-09
289.5,5.641e-09
290.0,1.746e-08
290.5,3.877e-08
291.0,9.141e-08
291.5,2.938e-07
292.0,6.687e-07
292.5,9.753e-07
293.0,2.19e-06
293.5,5.662e-06
294.0,9.269e-06
294.5,1.809e-05
295.0,3.222e-05
295.5,6.789e-05
296.0,0.0001208
296.5,0.000156
297.0,0.0001978
297.5,0.0004813
298.0,0.0006986
298.5,0.0006596
299.0,0.001367
299.5,0.002037
300.0,0.002111
300.5,0.002876
301.0,0.004714
301.5,0.006872
302.0,0.005619
302.5,0.01028
303.0,0.01698
303.5,0.02029
304.0,0.01842
304.5,0.02515
305.0,0.03378
305.5,0.03589
306.0,0.03375
306.5,0.04007
307.0,0.05366
307.5,0.06479
308.0,0.06737
308.5,0.07594
309.0,0.0718
309.5,0.07688
310.0,0.07486
310.5,0.1194
311.0,0.146
311.5,0.1393
312.0,0.1317
312.5,0.1543
313.0,0.1641
313.5,0.1622
314.0,0.1938
314.5,0.162
315.0,0.2105
315.5,0.1811
316.0,0.1507
316.5,0.2076
317.0,0.2579
317.5,0.2714
318.0,0.2058
318.5,0.242
319.0,0.2795
319.5,0.2378
320.0,0.2891
320.5,0.3425
321.0,0.2904
321.5,0.2769
322.0,0.3109
322.5,0.2696
323.0,0.2594
323.5,0.3083
324.0,0.3577
324.5,0.3682
325.0,0.324
325.5,0.4053
326.0,0.4907
326.5,0.4823
327.0,0.4837
327.5,0.4711
328.0,0.4297
328.5,0.4383
329.0,0.5126
329.5,0.5777
330.0,0.5858
330.5,0.477
331.0,0.4888
331.5,0.4901
332.0,0.5192
332.5,0.5091
333.0,0.51
333.5,0.468
334.0,0.4803
334.5,0.5453
335.0,0.5076
335.5,0.5925
336.0,0.4098
336.5,0.482
337.0,0.3979
337.5,0.496
338.0,0.4779
338.5,0.5511
339.0,0.5452
339.5,0.5242
340.0,0.6161
340.5,0.5545
341.0,0.5409
341.5,0.4963
342.0,0.5928
342.5,0.5544
343.0,0.6097
343.5,0.5741
344.0,0.4239
344.5,0.4282
345.0,0.5662
345.5,0.5777
346.0,0.4907
346.5,0.5554
347.0,0.5962
347.5,0.4819
348.0,0.549
348.5,0.5486
349.0,0.5086
349.5,0.5034
350.0,0.6224
350.5,0.6563
351.0,0.5862
351.5,0.5698
352.0,0.6117
352.5,0.4771
353.0,0.6006
353.5,0.6419
354.0,0.6662
354.5,0.6756
355.0,0.6732
355.5,0.6079
356.0,0.6358
356.5,0.5428
357.0,0.4485
357.5,0.5489
358.0,0.4349
358.5,0.3716
359.0,0.5197
359.5,0.6624
360.0,0.702
360.5,0.5609
361.0,0.5112
361.5,0.5882
362.0,0.5083
362.5,0.7031
363.0,0.6312
363.5,0.5812
364.0,0.7105
364.5,0.6072
365.0,0.6182
365.5,0.7757
366.0,0.8216
366.5,0.7716
367.0,0.7513
367.5,0.7795
368.0,0.682
368.5,0.688
369.0,0.7428
369.5,0.7915
370.0,0.8436
370.5,0.6546
371.0,0.6992
371.5,0.8747
372.0,0.5804
372.5,0.6958
373.0,0.7076
373.5,0.4603
374.0,0.6687
374.5,0.5536
375.0,0.5381
375.5,0.8033
376.0,0.6658
376.5,0.6899
377.0,0.7303
377.5,0.8542
378.0,0.9259
378.5,0.8751
379.0,0.7221
379.5,0.6597
380.0,0.6858
380.5,0.8304
381.0,0.8319
381.5,0.6592
382.0,0.5852
382.5,0.4987
383.0,0.4616
383.5,0.4445
384.0,0.4902
384.5,0.7209
385.0,0.7147
385.5,0.6655
386.0,0.5698
386.5,0.7483
387.0,0.6218
387.5,0.6983
388.0,0.6446
388.5,0.6371
389.0,0.6876
389.5,0.8327
390.0,0.8355
390.5,0.7688
391.0,0.9048
391.5,0.9228
392.0,0.7772
392.5,0.6956
393.0,0.387
393.5,0.2812
394.0,0.5722
394.5,0.7273
395.0,0.8874
395.5,0.9014
396.0,0.7814
396.5,0.4567
397.0,0.3427
397.5,0.6968
398.0,0.9758
398.5,1.008
399.0,1.092
399.5,1.088
400.0,1.13
401.0,1.149
402.0,1.212
403.0,1.151
404.0,1.133
405.0,1.132
406.0,1.113
407.0,1.095
408.0,1.138
409.0,1.217
410.0,1.063
411.0,1.151
412.0,1.236
413.0,1.205
414.0,1.219
415.0,1.222
416.0,1.243
417.0,1.212
418.0,1.189
419.0,1.204
420.0,1.199
421.0,1.254
422.0,1.191
423.0,1.163
424.0,1.23
425.0,1.228
426.0,1.195
427.0,1.172
428.0,1.142
429.0,1.081
430.0,0.9456
431.0,0.9374
432.0,1.21
433.0,1.216
434.0,1.129
435.0,1.179
436.0,1.328
437.0,1.309
438.0,1.191
439.0,1.233
440.0,1.272
441.0,1.317
442.0,1.412
443.0,1.376
444.0,1.405
445.0,1.375
446.0,1.311
447.0,1.416
448.0,1.439
449.0,1.444
450.0,1.483
451.0,1.538
452.0,1.481
453.0,1.393
454.0,1.453
455.0,1.462
456.0,1.497
457.0,1.521
458.0,1.47
459.0,1.462
460.0,1.466
461.0,1.5
462.0,1.51
463.0,1.5
464.0,1.474
465.0,1.455
466.0,1.468
467.0,1.441
468.0,1.458
469.0,1.466
470.0,1.419
471.0,1.417
472.0,1.493
473.0,1.474
474.0,1.477
475.0,1.49
476.0,1.447
477.0,1.452
478.0,1.491
479.0,1.482
480.0,1.484
481.0,1.51
482.0,1.517
483.0,1.498
484.0,1.466
485.0,1.396
486.0,1.22
487.0,1.278
488.0,1.402
489.0,1.407
490.0,1.479
491.0,1.453
492.0,1.372
493.0,1.417
494.0,1.431
495.0,1.443
496.0,1.452
497.0,1.475
498.0,1.406
499.0,1.424
500.0,1.383
501.0,1.358
502.0,1.34
503.0,1.396
504.0,1.365
505.0,1.41
506.0,1.456
507.0,1.385
508.0,1.341
509.0,1.377
510.0,1.369
511.0,1.405
512.0,1.42
513.0,1.344
514.0,1.334
515.0,1.321
516.0,1.318
517.0,1.171
518.0,1.231
519.0,1.291
520.0,1.338
521.0,1.351
522.0,1.353
523.0,1.328
524.0,1.377
525.0,1.394
526.0,1.332
527.0,1.256
528.0,1.329
529.0,1.401
530.0,1.381
531.0,1.402
532.0,1.354
533.0,1.314
534.0,1.353
535.0,1.382
536.0,1.394
537.0,1.339
538.0,1.362
539.0,1.351
540.0,1.295
541.0,1.305
542.0,1.346
543.0,1.331
544.0,1.355
545.0,1.351
546.0,1.358
547.0,1.356
548.0,1.34
549.0,1.343
550.0,1.359
551.0,1.343
552.0,1.352
553.0,1.328
554.0,1.36
555.0,1.363
556.0,1.345
557.0,1.304
558.0,1.294
559.0,1.271
560.0,1.287
561.0,1.304
562.0,1.296
563.0,1.332
564.0,1.296
565.0,1.286
566.0,1.267
567.0,1.292
568.0,1.283
569.0,1.256
570.0,1.255
571.0,1.246
572.0,1.279
573.0,1.293
574.0,1.29
575.0,1.266
576.0,1.255
577.0,1.268
578.0,1.248
579.0,1.251
580.0,1.272
581.0,1.277
582.0,1.299
583.0,1.301
584.0,1.311
585.0,1.278
586.0,1.252
587.0,1.281
588.0,1.254
589.0,1.121
590.0,1.172
591.0,1.234
592.0,1.222
593.0,1.236
594.0,1.229
595.0,1.202
596.0,1.241
597.0,1.23
598.0,1.224
599.0,1.224
600.0,1.224
601.0,1.213
602.0,1.204
603.0,1.223
604.0,1.243
605.0,1.236
606.0,1.23
607.0,1.242
608.0,1.227
609.0,1.229
610.0,1.219
611.0,1.225
612.0,1.221
613.0,1.205
614.0,1.188
615.0,1.213
616.0,1.173
617.0,1.17
618.0,1.215
619.0,1.202
620.0,1.21
621.0,1.212
622.0,1.198
623.0,1.181
624.0,1.16
625.0,1.157
626.0,1.174
627.0,1.189
628.0,1.131
629.0,1.168
630.0,1.142
631.0,1.161
632.0,1.146
633.0,1.178
634.0,1.164
635.0,1.181
636.0,1.164
637.0,1.182
638.0,1.192
639.0,1.178
640.0,1.165
641.0,1.164
642.0,1.158
643.0,1.173
644.0,1.169
645.0,1.171
646.0,1.146
647.0,1.138
648.0,1.14
649.0,1.118
650.0,1.117
651.0,1.164
652.0,1.123
653.0,1.148
654.0,1.134
655.0,1.096
656.0,0.9687
657.0,0.9944
658.0,1.112
659.0,1.119
660.0,1.123
661.0,1.131
662.0,1.135
663.0,1.112
664.0,1.123
665.0,1.122
666.0,1.123
667.0,1.121
668.0,1.121
669.0,1.137
670.0,1.132
671.0,1.131
672.0,1.122
673.0,1.138
674.0,1.134
675.0,1.123
676.0,1.13
677.0,1.119
678.0,1.122
679.0,1.103
680.0,1.112
681.0,1.105
682.0,1.103
683.0,1.101
684.0,1.096
685.0,1.105
686.0,1.098
687.0,0.8208
688.0,0.9171
689.0,0.9189
690.0,0.9492
691.0,0.9827
692.0,1.006
693.0,0.9989
694.0,0.991
695.0,1.021
696.0,1.023
697.0,1.071
698.0,1.055
699.0,1.039
700.0,1.026
701.0,1.019
702.0,1.022
703.0,1.024
704.0,1.051
705.0,1.053
706.0,1.05
707.0,1.05
708.0,1.052
709.0,1.051
710.0,1.052
711.0,1.05
712.0,1.045
713.0,1.036
714.0,1.039
715.0,1.01
716.0,1.012
717.0,0.9109
718.0,0.8432
719.0,0.7764
720.0,0.8153
721.0,0.8787
722.0,0.982
723.0,0.9264
724.0,0.8484
725.0,0.8397
726.0,0.8759
727.0,0.8809
728.0,0.8389
729.0,0.858
730.0,0.907
731.0,0.8721
732.0,0.9199
733.0,0.9613
734.0,0.9808
735.0,0.9622
736.0,0.9607
737.0,0.965
738.0,0.9719
739.0,0.953
740.0,0.9753
741.0,0.9641
742.0,0.9636
743.0,0.9877
744.0,0.984
745.0,0.9835
746.0,0.988
747.0,0.99
748.0,0.9879
749.0,0.9765
750.0,0.9759
751.0,0.966
752.0,0.97
753.0,0.9748
754.0,0.977
755.0,0.9715
756.0,0.971
757.0,0.9724
758.0,0.9605
759.0,0.9456
760.0,0.2596
761.0,0.1628
762.0,0.5794
763.0,0.3525
764.0,0.4727
765.0,0.5798
766.0,0.6649
767.0,0.794
768.0,0.8818
769.0,0.8927
770.0,0.9146
771.0,0.9183
772.0,0.919
773.0,0.9252
774.0,0.9204
775.0,0.9133
776.0,0.9243
777.0,0.912
778.0,0.9066
779.0,0.9073
780.0,0.9021
781.0,0.903
782.0,0.9086
783.0,0.8927
784.0,0.8968
785.0,0.8905
786.0,0.9006
787.0,0.8883
788.0,0.879
789.0,0.8791
790.0,0.861
791.0,0.8634
792.0,0.8564
793.0,0.8431
794.0,0.8521
795.0,0.8678
796.0,0.8483
797.0,0.8495
798.0,0.8675
799.0,0.8634
800.0,0.8501
801.0,0.8489
802.0,0.8464
803.0,0.8408
804.0,0.8411
805.0,0.8365
806.0,0.8567
807.0,0.8471
808.0,0.8475
809.0,0.8341
810.0,0.8292
811.0,0.8334
812.0,0.8146
813.0,0.8009
814.0,0.7219
815.0,0.717
816.0,0.67
817.0,0.68
818.0,0.6584
819.0,0.7208
820.0,0.6849
821.0,0.78
822.0,0.7612
823.0,0.5512
824.0,0.7459
825.0,0.7676
826.0,0.7446
827.0,0.7792
828.0,0.6791
829.0,0.7388
830.0,0.7312
831.0,0.733
832.0,0.7139
833.0,0.7498
834.0,0.7294
835.0,0.7882
836.0,0.7625
837.0,0.7898
838.0,0.7688
839.0,0.7772
840.0,0.7933
841.0,0.7836
842.0,0.7829
843.0,0.78
844.0,0.7705
845.0,0.7947
846.0,0.7909
847.0,0.7754
848.0,0.7716
849.0,0.7497
850.0,0.7182
851.0,0.7615
852.0,0.7556
853.0,0.7265
854.0,0.628
855.0,0.6889
856.0,0.7533
857.0,0.7694
858.0,0.764
859.0,0.7642
860.0,0.7652
861.0,0.7612
862.0,0.773
863.0,0.7912
864.0,0.7516
865.0,0.7449
866.0,0.6698
867.0,0.699
868.0,0.7606
869.0,0.7448
870.0,0.766
871.0,0.7555
872.0,0.7528
873.0,0.7513
874.0,0.7423
875.0,0.7273
876.0,0.735
877.0,0.7423
878.0,0.7506
879.0,0.739
880.0,0.7231
881.0,0.7128
882.0,0.7284
883.0,0.7302
884.0,0.727
885.0,0.7325
886.0,0.7
887.0,0.706
888.0,0.7173
889.0,0.7238
890.0,0.7197
891.0,0.7175
892.0,0.6992
893.0,0.6805
894.0,0.6624
895.0,0.6334
896.0,0.6004
897.0,0.5264
898.0,0.5682
899.0,0.4455
900.0,0.5754
901.0,0.4662
902.0,0.5297
903.0,0.5404
904.0,0.6574
905.0,0.6382
906.0,0.6001
907.0,0.5032
908.0,0.5111
909.0,0.5459
910.0,0.4964
911.0,0.521
912.0,0.5413
913.0,0.5044
914.0,0.4977
915.0,0.5379
916.0,0.4599
917.0,0.5681
918.0,0.4718
919.0,0.5751
920.0,0.5744
921.0,0.5955
922.0,0.5421
923.0,0.5748
924.0,0.556
925.0,0.5443
926.0,0.5501
927.0,0.6065
928.0,0.4716
929.0,0.4378
930.0,0.3559
931.0,0.3351
932.0,0.2533
933.0,0.2128
934.0,0.1313
935.0,0.212
936.0,0.1414
937.0,0.1447
938.0,0.1743
939.0,0.3247
940.0,0.3823
941.0,0.3
942.0,0.3398
943.0,0.2325
944.0,0.237
945.0,0.3073
946.0,0.1688
947.0,0.3118
948.0,0.2313
949.0,0.405
950.0,0.1325
951.0,0.3966
952.0,0.2296
953.0,0.2857
954.0,0.3385
955.0,0.2876
956.0,0.2743
957.0,0.2317
958.0,0.3713
959.0,0.3075
960.0,0.3442
961.0,0.3768
962.0,0.3579
963.0,0.4042
964.0,0.3732
965.0,0.4016
966.0,0.4039
967.0,0.4028
968.0,0.5122
969.0,0.5367
970.0,0.497
971.0,0.5567
972.0,0.5349
973.0,0.4779
974.0,0.4556
975.0,0.4679
976.0,0.4507
977.0,0.5003
978.0,0.4806
979.0,0.4992
980.0,0.4721
981.0,0.5529
982.0,0.533
983.0,0.5144
984.0,0.5649
985.0,0.5308
986.0,0.572
987.0,0.5638
988.0,0.5628
989.0,0.5685
990.0,0.5591
991.0,0.5705
992.0,0.5735
993.0,0.5637
994.0,0.573
995.0,0.5719
996.0,0.5698
997.0,0.5704
998.0,0.5679
999.0,0.5657
1000.0,0.5624
1001.0,0.5686
1002.0,0.5559
1003.0,0.5588
1004.0,0.5459
1005.0,0.5248
1006.0,0.5459
1007.0,0.5571
1008.0,0.5547
1009.0,0.5523
1010.0,0.5502
1011.0,0.5542
1012.0,0.55
1013.0,0.5527
1014.0,0.5488
1015.0,0.5453
1016.0,0.5429
1017.0,0.5444
1018.0,0.542
1019.0,0.5315
1020.0,0.5393
1021.0,0.5384
1022.0,0.5346
1023.0,0.5404
1024.0,0.5345
1025.0,0.5396
1026.0,0.5376
1027.0,0.5363
1028.0,0.5352
1029.0,0.529
1030.0,0.5322
1031.0,0.5303
1032.0,0.5286
1033.0,0.5207
1034.0,0.5206
1035.0,0.5223
1036.0,0.5251
1037.0,0.5165
1038.0,0.5188
1039.0,0.5186
1040.0,0.5165
1041.0,0.5187
1042.0,0.5151
1043.0,0.5135
1044.0,0.5154
1045.0,0.5085
1046.0,0.5029
1047.0,0.5075
1048.0,0.5104
1049.0,0.5086
1050.0,0.5064
1051.0,0.5058
1052.0,0.5038
1053.0,0.5
1054.0,0.5012
1055.0,0.5016
1056.0,0.5001
1057.0,0.4987
1058.0,0.4865
1059.0,0.4873
1060.0,0.4866
1061.0,0.4861
1062.0,0.4888
1063.0,0.4842
1064.0,0.4898
1065.0,0.4867
1066.0,0.4768
1067.0,0.4831
1068.0,0.4728
1069.0,0.458
1070.0,0.4738
1071.0,0.4802
1072.0,0.4754
1073.0,0.4684
1074.0,0.4794
1075.0,0.4585
1076.0,0.4792
1077.0,0.4724
1078.0,0.4641
1079.0,0.471
1080.0,0.4651
1081.0,0.4517
1082.0,0.4563
1083.0,0.457
1084.0,0.4515
1085.0,0.4659
1086.0,0.4302
1087.0,0.4402
1088.0,0.4571
1089.0,0.4461
1090.0,0.4384
1091.0,0.4565
1092.0,0.4546
1093.0,0.3948
1094.0,0.4171
1095.0,0.4098
1096.0,0.3952
1097.0,0.4439
1098.0,0.39
1099.0,0.4053
1100.0,0.3811
1101.0,0.3846
1102.0,0.3698
1103.0,0.3681
1104.0,0.3683
1105.0,0.3969
1106.0,0.3198
1107.0,0.3801
1108.0,0.3321
1109.0,0.3307
1110.0,0.378
1111.0,0.2698
1112.0,0.3274
1113.0,0.2226
1114.0,0.247
1115.0,0.2052
1116.0,0.1728
1117.0,0.07393
1118.0,0.1844
1119.0,0.09961
1120.0,0.1255
1121.0,0.1613
1122.0,0.075
1123.0,0.1131
1124.0,0.09559
1125.0,0.1228
1126.0,0.04994
1127.0,0.1378
1128.0,0.09015
1129.0,0.09436
1130.0,0.06578
1131.0,0.2436
1132.0,0.1945
1133.0,0.1326
1134.0,0.04018
1135.0,0.01479
1136.0,0.114
1137.0,0.2418
1138.0,0.1727
1139.0,0.2403
1140.0,0.2074
1141.0,0.1641
1142.0,0.185
1143.0,0.2555
1144.0,0.09837
1145.0,0.1276
1146.0,0.1377
1147.0,0.05612
1148.0,0.2213
1149.0,0.1822
1150.0,0.1055
1151.0,0.1715
1152.0,0.2047
1153.0,0.1948
1154.0,0.1255
1155.0,0.2509
1156.0,0.2292
1157.0,0.2525
1158.0,0.2495
1159.0,0.2646
1160.0,0.2317
1161.0,0.2755
1162.0,0.2776
1163.0,0.3583
1164.0,0.3135
1165.0,0.3013
1166.0,0.2955
1167.0,0.3187
1168.0,0.3233
1169.0,0.3288
1170.0,0.3526
1171.0,0.3447
1172.0,0.3482
1173.0,0.3519
1174.0,0.2647
1175.0,0.3418
1176.0,0.3694
1177.0,0.3587
1178.0,0.2796
1179.0,0.3721
1180.0,0.3392
1181.0,0.3493
1182.0,0.2522
1183.0,0.3423
1184.0,0.3245
1185.0,0.3163
1186.0,0.3643
1187.0,0.3503
1188.0,0.2573
1189.0,0.3271
1190.0,0.356
1191.0,0.3435
1192.0,0.3604
1193.0,0.3474
1194.0,0.3566
1195.0,0.3411
1196.0,0.3311
1197.0,0.3546
1198.0,0.3276
1199.0,0.2876
1200.0,0.3433
1201.0,0.3341
1202.0,0.3305
1203.0,0.3278
1204.0,0.2918
1205.0,0.3355
1206.0,0.3655
1207.0,0.3305
1208.0,0.3226
1209.0,0.3286
1210.0,0.3402
1211.0,0.3275
1212.0,0.3273
1213.0,0.3554
1214.0,0.3332
1215.0,0.3279
1216.0,0.3541
1217.0,0.3465
1218.0,0.3514
1219.0,0.3478
1220.0,0.3515
1221.0,0.3541
1222.0,0.3459
1223.0,0.3434
1224.0,0.3425
1225.0,0.3518
1226.0,0.3531
1227.0,0.3302
1228.0,0.354
1229.0,0.3531
1230.0,0.348
1231.0,0.3551
1232.0,0.3531
1233.0,0.3444
1234.0,0.3541
1235.0,0.3523
1236.0,0.3545
1237.0,0.3509
1238.0,0.3533
1239.0,0.3488
1240.0,0.3499
1241.0,0.3491
1242.0,0.3476
1243.0,0.3447
1244.0,0.3474
1245.0,0.3488
1246.0,0.3467
1247.0,0.3456
1248.0,0.3458
1249.0,0.3465
1250.0,0.3446
1251.0,0.3407
1252.0,0.3401
1253.0,0.3386
1254.0,0.3361
1255.0,0.3401
1256.0,0.3328
1257.0,0.3314
1258.0,0.3358
1259.0,0.3271
1260.0,0.3284
1261.0,0.3143
1262.0,0.3072
1263.0,0.3079
1264.0,0.2897
1265.0,0.3059
1266.0,0.2975
1267.0,0.3005
1268.0,0.2886
1269.0,0.2041
1270.0,0.3003
1271.0,0.3127
1272.0,0.3132
1273.0,0.3104
1274.0,0.3108
1275.0,0.3144
1276.0,0.3166
1277.0,0.3178
1278.0,0.322
1279.0,0.3193
1280.0,0.3151
1281.0,0.2999
1282.0,0.2876
1283.0,0.3101
1284.0,0.3177
1285.0,0.3196
1286.0,0.3232
1287.0,0.3196
1288.0,0.3192
1289.0,0.3117
1290.0,0.3161
1291.0,0.3201
1292.0,0.3058
1293.0,0.3151
1294.0,0.3132
1295.0,0.3129
1296.0,0.3021
1297.0,0.2885
1298.0,0.3052
1299.0,0.315
1300.0,0.276
1301.0,0.2825
1302.0,0.304
1303.0,0.2713
1304.0,0.2402
1305.0,0.2985
1306.0,0.299
1307.0,0.2423
1308.0,0.2703
1309.0,0.2973
1310.0,0.2381
1311.0,0.2612
1312.0,0.2555
1313.0,0.2519
1314.0,0.2287
1315.0,0.2277
1316.0,0.2585
1317.0,0.2459
1318.0,0.2636
1319.0,0.2166
1320.0,0.2076
1321.0,0.2381
1322.0,0.242
1323.0,0.191
1324.0,0.2124
1325.0,0.2552
1326.0,0.2247
1327.0,0.2157
1328.0,0.1889
1329.0,0.1494
1330.0,0.1905
1331.0,0.1245
1332.0,0.1253
1333.0,0.1717
1334.0,0.1418
1335.0,0.1901
1336.0,0.155
1337.0,0.14
1338.0,0.151
1339.0,0.1492
1340.0,0.1428
1341.0,0.1447
1342.0,0.1517
1343.0,0.1146
1344.0,0.06845
1345.0,0.09709
1346.0,0.0567
1347.0,0.05905
1348.0,0.005822
1349.0,0.0184
1350.0,0.01748
1351.0,0.006143
1352.0,0.002393
1353.0,0.0001932
1354.0,0.0005057
1355.0,9.938e-06
1356.0,9.839e-05
1357.0,0.0001473
1358.0,1.136e-05
1359.0,2.714e-06
1360.0,6.535e-06
1361.0,2.98e-08
1362.0,1.573e-10
1363.0,1.014e-05
1364.0,4.589e-06
1365.0,1.134e-10
1366.0,3.711e-05
1367.0,1.431e-05
1368.0,3.768e-12
1369.0,1.809e-06
1370.0,1.164e-06
1371.0,9.561e-08
1372.0,7.958e-06
1373.0,0.0001008
1374.0,0.0003447
1375.0,0.0006139
1376.0,0.0004488
1377.0,0.0002221
1378.0,0.001822
1379.0,9.56e-05
1380.0,0.0001626
1381.0,5.347e-06
1382.0,7.723e-06
1383.0,1.571e-07
1384.0,2.257e-06
1385.0,5.488e-06
1386.0,8.214e-06
1387.0,0.0004139
1388.0,9.039e-06
1389.0,0.001028
1390.0,0.0008771
1391.0,0.0006369
1392.0,4.799e-05
1393.0,0.0002125
1394.0,0.0001734
1395.0,1.94e-06
1396.0,3.586e-08
1397.0,9.627e-05
1398.0,0.002089
1399.0,0.001332
1400.0,2.199e-08
1401.0,5.645e-08
1402.0,0.002522
1403.0,0.003385
1404.0,0.001067
1405.0,1.193e-06
1406.0,0.00309
1407.0,0.0002651
1408.0,0.002489
1409.0,0.001044
1410.0,0.0007506
1411.0,0.002944
1412.0,0.003573
1413.0,0.02598
1414.0,0.0005792
1415.0,0.0003116
1416.0,0.036
1417.0,0.01344
1418.0,0.01533
1419.0,0.002524
1420.0,0.009504
1421.0,0.01054
1422.0,0.04614
1423.0,0.00969
1424.0,0.01754
1425.0,0.02653
1426.0,0.028
1427.0,0.04644
1428.0,0.005627
1429.0,0.03686
1430.0,0.05763
1431.0,0.062
1432.0,0.004513
1433.0,0.04134
1434.0,0.02201
1435.0,0.02528
1436.0,0.04345
1437.0,0.03339
1438.0,0.01562
1439.0,0.0567
1440.0,0.04285
1441.0,0.03511
1442.0,0.03828
1443.0,0.04436
1444.0,0.06001
1445.0,0.04984
1446.0,0.02333
1447.0,0.03678
1448.0,0.1029
1449.0,0.09233
1450.0,0.02721
1451.0,0.01174
1452.0,0.05833
1453.0,0.0748
1454.0,0.1185
1455.0,0.0596
1456.0,0.08165
1457.0,0.1035
1458.0,0.1164
1459.0,0.1385
1460.0,0.07523
1461.0,0.08095
1462.0,0.1139
