interpolation:linear
wavelength,value
280.0,2.198e-20
280.5,6.388e-19
281.0,3.289e-18
281.5,4.146e-19
282.0,1.659e-18
282.5,4.611e-18
283.0,1.524e-17
283.5,2.509e-17
284.0,3.985e-16
284.5,1.13e-15
285.0,1.971e-15
285.5,1.115e-14
286.0,4.634e-14
286.5,2.144e-13
287.0,6.208e-13
287.5,2.391e-12
288.0,7.011e-12
288.5,2.698e-11
289.0,8.774e-11
289.5,3.18e-10
290.0,1.009e-09
290.5,2.289e-09
291.0,5.537e-09
291.5,1.833e-08
292.0,5.024e-08
292.5,7.965e-08
293.0,2e-07
293.5,6.077e-07
294.0,1.123e-06
294.5,1.491e-06
295.0,2.969e-06
295.5,7.588e-06
296.0,1.473e-05
296.5,2.071e-05
297.0,2.815e-05
297.5,7.589e-05
298.0,0.0001201
298.5,0.0001212
299.0,0.000268
299.5,0.0004465
300.0,0.0004925
300.5,0.0007156
301.0,0.001302
301.5,0.00209
302.0,0.001797
302.5,0.003428
303.0,0.005963
303.5,0.007352
304.0,0.006803
304.5,0.00975
305.0,0.01397
305.5,0.01544
306.0,0.01474
306.5,0.01794
307.0,0.02531
307.5,0.03208
308.0,0.03363
308.5,0.0388
309.0,0.03761
309.5,0.04167
310.0,0.04123
310.5,0.06627
311.0,0.08214
311.5,0.07886
312.0,0.07669
312.5,0.09161
313.0,0.0984
313.5,0.09642
314.0,0.1179
314.5,0.1014
315.0,0.1326
315.5,0.1125
316.0,0.09592
316.5,0.1349
317.0,0.1675
317.5,0.1754
318.0,0.1348
318.5,0.1628
319.0,0.1905
319.5,0.1588
320.0,0.1926
320.5,0.2343
321.0,0.2033
321.5,0.1944
322.0,0.213
322.5,0.185
323.0,0.181
323.5,0.2187
324.0,0.2545
324.5,0.2603
325.0,0.227
325.5,0.2877
326.0,0.3502
326.5,0.3474
327.0,0.3474
327.5,0.3371
328.0,0.304
328.5,0.3146
329.0,0.372
329.5,0.4206
330.0,0.4256
330.5,0.3439
331.0,0.3515
331.5,0.3547
332.0,0.3792
332.5,0.3734
333.0,0.3733
333.5,0.3404
334.0,0.3492
334.5,0.3994
335.0,0.3735
335.5,0.4362
336.0,0.3018
336.5,0.3543
337.0,0.2917
337.5,0.3633
338.0,0.3522
338.5,0.4064
339.0,0.4021
339.5,0.3868
340.0,0.4547
340.5,0.4096
341.0,0.3995
341.5,0.3667
342.0,0.4382
342.5,0.4099
343.0,0.4509
343.5,0.4247
344.0,0.3138
344.5,0.317
345.0,0.4193
345.5,0.428
346.0,0.3637
346.5,0.4118
347.0,0.4422
347.5,0.3575
348.0,0.4075
348.5,0.4073
349.0,0.3778
349.5,0.374
350.0,0.4626
350.5,0.488
351.0,0.436
351.5,0.4238
352.0,0.4551
352.5,0.3551
353.0,0.4472
353.5,0.4782
354.0,0.4964
354.5,0.5034
355.0,0.5018
355.5,0.4533
356.0,0.4743
356.5,0.405
357.0,0.3346
357.5,0.4097
358.0,0.3247
358.5,0.2774
359.0,0.3881
359.5,0.4946
360.0,0.5244
360.5,0.4191
361.0,0.382
361.5,0.4399
362.0,0.3803
362.5,0.5264
363.0,0.4727
363.5,0.4354
364.0,0.5325
364.5,0.4552
365.0,0.4636
365.5,0.5819
366.0,0.6165
366.5,0.5792
367.0,0.5641
367.5,0.5854
368.0,0.5123
368.5,0.517
369.0,0.5583
369.5,0.5951
370.0,0.6344
370.5,0.4924
371.0,0.5262
371.5,0.6583
372.0,0.437
372.5,0.5239
373.0,0.533
373.5,0.3468
374.0,0.5039
374.5,0.4173
375.0,0.4057
375.5,0.6058
376.0,0.5022
376.5,0.5204
377.0,0.551
377.5,0.6447
378.0,0.6989
378.5,0.6606
379.0,0.5452
379.5,0.4981
380.0,0.5179
380.5,0.6273
381.0,0.6286
381.5,0.4983
382.0,0.4426
382.5,0.3773
383.0,0.3493
383.5,0.3364
384.0,0.3711
384.5,0.5459
385.0,0.5414
385.5,0.5042
386.0,0.4319
386.5,0.5673
387.0,0.4714
387.5,0.5296
388.0,0.489
388.5,0.4834
389.0,0.5218
389.5,0.632
390.0,0.6343
390.5,0.5838
391.0,0.6872
391.5,0.701
392.0,0.5904
392.5,0.5286
393.0,0.2942
393.5,0.2138
394.0,0.4351
394.5,0.5533
395.0,0.6752
395.5,0.6859
396.0,0.5947
396.5,0.3477
397.0,0.2609
397.5,0.5307
398.0,0.7432
398.5,0.7682
399.0,0.8318
399.5,0.8292
400.0,0.8611
401.0,0.8745
402.0,0.9227
403.0,0.8765
404.0,0.8631
405.0,0.863
406.0,0.849
407.0,0.8353
408.0,0.868
409.0,0.929
410.0,0.8118
411.0,0.8793
412.0,0.9444
413.0,0.921
414.0,0.9323
415.0,0.9348
416.0,0.9511
417.0,0.9277
418.0,0.9106
419.0,0.9226
420.0,0.9185
421.0,0.9609
422.0,0.9134
423.0,0.8922
424.0,0.9437
425.0,0.942
426.0,0.9174
427.0,0.9003
428.0,0.877
429.0,0.8306
430.0,0.7269
431.0,0.7206
432.0,0.9303
433.0,0.9354
434.0,0.8686
435.0,0.9072
436.0,1.022
437.0,1.008
438.0,0.918
439.0,0.9497
440.0,0.9798
441.0,1.015
442.0,1.089
443.0,1.061
444.0,1.084
445.0,1.06
446.0,1.012
447.0,1.093
448.0,1.111
449.0,1.115
450.0,1.146
451.0,1.188
452.0,1.145
453.0,1.077
454.0,1.124
455.0,1.131
456.0,1.158
457.0,1.177
458.0,1.137
459.0,1.131
460.0,1.134
461.0,1.16
462.0,1.169
463.0,1.161
464.0,1.141
465.0,1.127
466.0,1.137
467.0,1.117
468.0,1.13
469.0,1.136
470.0,1.1
471.0,1.098
472.0,1.157
473.0,1.142
474.0,1.144
475.0,1.154
476.0,1.12
477.0,1.123
478.0,1.154
479.0,1.147
480.0,1.149
481.0,1.17
482.0,1.176
483.0,1.162
484.0,1.138
485.0,1.084
486.0,0.9471
487.0,0.9924
488.0,1.089
489.0,1.092
490.0,1.149
491.0,1.129
492.0,1.066
493.0,1.101
494.0,1.112
495.0,1.121
496.0,1.128
497.0,1.146
498.0,1.092
499.0,1.106
500.0,1.074
501.0,1.055
502.0,1.04
503.0,1.083
504.0,1.057
505.0,1.094
506.0,1.129
507.0,1.074
508.0,1.04
509.0,1.069
510.0,1.063
511.0,1.092
512.0,1.103
513.0,1.044
514.0,1.037
515.0,1.027
516.0,1.024
517.0,0.9101
518.0,0.9568
519.0,1.004
520.0,1.04
521.0,1.05
522.0,1.051
523.0,1.032
524.0,1.069
525.0,1.082
526.0,1.034
527.0,0.9746
528.0,1.031
529.0,1.087
530.0,1.071
531.0,1.087
532.0,1.05
533.0,1.019
534.0,1.049
535.0,1.072
536.0,1.082
537.0,1.039
538.0,1.057
539.0,1.048
540.0,1.005
541.0,1.012
542.0,1.044
543.0,1.033
544.0,1.051
545.0,1.048
546.0,1.053
547.0,1.052
548.0,1.039
549.0,1.042
550.0,1.055
551.0,1.042
552.0,1.049
553.0,1.03
554.0,1.055
555.0,1.057
556.0,1.043
557.0,1.011
558.0,1.004
559.0,0.985
560.0,0.9975
561.0,1.011
562.0,1.003
563.0,1.031
564.0,1.003
565.0,0.9947
566.0,0.9803
567.0,0.9991
568.0,0.9907
569.0,0.9683
570.0,0.9679
571.0,0.9618
572.0,0.9856
573.0,0.9963
574.0,0.9933
575.0,0.975
576.0,0.9661
577.0,0.9765
578.0,0.9615
579.0,0.9648
580.0,0.9823
581.0,0.9868
582.0,1.005
583.0,1.007
584.0,1.015
585.0,0.9905
586.0,0.9701
587.0,0.9917
588.0,0.969
589.0,0.8613
590.0,0.9004
591.0,0.9512
592.0,0.9401
593.0,0.9528
594.0,0.9467
595.0,0.9243
596.0,0.9585
597.0,0.9487
598.0,0.9456
599.0,0.9461
600.0,0.9469
601.0,0.9388
602.0,0.9323
603.0,0.9475
604.0,0.9631
605.0,0.958
606.0,0.9539
607.0,0.9631
608.0,0.9522
609.0,0.9537
610.0,0.9466
611.0,0.9514
612.0,0.9485
613.0,0.9365
614.0,0.9235
615.0,0.9434
616.0,0.9122
617.0,0.9102
618.0,0.9451
619.0,0.9355
620.0,0.9414
621.0,0.9425
622.0,0.9317
623.0,0.9177
624.0,0.9018
625.0,0.8997
626.0,0.9131
627.0,0.9238
628.0,0.8685
629.0,0.9039
630.0,0.8833
631.0,0.9013
632.0,0.8901
633.0,0.9164
634.0,0.9068
635.0,0.9206
636.0,0.9081
637.0,0.9227
638.0,0.9311
639.0,0.9205
640.0,0.9113
641.0,0.9105
642.0,0.9061
643.0,0.9183
644.0,0.9151
645.0,0.9167
646.0,0.896
647.0,0.887
648.0,0.8879
649.0,0.8709
650.0,0.8731
651.0,0.9105
652.0,0.8748
653.0,0.8983
654.0,0.8881
655.0,0.8562
656.0,0.758
657.0,0.7783
658.0,0.8716
659.0,0.8776
660.0,0.8811
661.0,0.8873
662.0,0.8895
663.0,0.8717
664.0,0.8815
665.0,0.8818
666.0,0.8823
667.0,0.8812
668.0,0.8814
669.0,0.8949
670.0,0.8909
671.0,0.8906
672.0,0.8829
673.0,0.8961
674.0,0.8927
675.0,0.8845
676.0,0.8905
677.0,0.8816
678.0,0.884
679.0,0.8697
680.0,0.8766
681.0,0.8708
682.0,0.8696
683.0,0.868
684.0,0.8636
685.0,0.8709
686.0,0.8659
687.0,0.6001
688.0,0.6912
689.0,0.6933
690.0,0.7231
691.0,0.7565
692.0,0.7805
693.0,0.7745
694.0,0.768
695.0,0.7967
696.0,0.7978
697.0,0.8428
698.0,0.8298
699.0,0.8125
700.0,0.8027
701.0,0.7954
702.0,0.7999
703.0,0.8014
704.0,0.8255
705.0,0.8267
706.0,0.8254
707.0,0.8258
708.0,0.8277
709.0,0.8279
710.0,0.8283
711.0,0.8269
712.0,0.824
713.0,0.8161
714.0,0.8191
715.0,0.7942
716.0,0.7949
717.0,0.6986
718.0,0.6432
719.0,0.5901
720.0,0.6189
721.0,0.6775
722.0,0.7689
723.0,0.719
724.0,0.6514
725.0,0.6423
726.0,0.6717
727.0,0.6791
728.0,0.6411
729.0,0.6618
730.0,0.7003
731.0,0.671
732.0,0.7142
733.0,0.7527
734.0,0.7697
735.0,0.7542
736.0,0.7532
737.0,0.7563
738.0,0.7657
739.0,0.7507
740.0,0.7695
741.0,0.7615
742.0,0.7618
743.0,0.7811
744.0,0.7786
745.0,0.7785
746.0,0.7821
747.0,0.7838
748.0,0.7821
749.0,0.7732
750.0,0.7727
751.0,0.7649
752.0,0.7681
753.0,0.772
754.0,0.7737
755.0,0.7693
756.0,0.769
757.0,0.7701
758.0,0.7606
759.0,0.7464
760.0,0.1481
761.0,0.08258
762.0,0.4066
763.0,0.2173
764.0,0.3142
765.0,0.4068
766.0,0.4878
767.0,0.604
768.0,0.6879
769.0,0.7003
770.0,0.7219
771.0,0.7267
772.0,0.7279
773.0,0.7329
774.0,0.7293
775.0,0.7237
776.0,0.7325
777.0,0.7228
778.0,0.7184
779.0,0.719
780.0,0.715
781.0,0.7157
782.0,0.7202
783.0,0.7076
784.0,0.711
785.0,0.7058
786.0,0.7136
787.0,0.7021
788.0,0.6938
789.0,0.6937
790.0,0.6766
791.0,0.6811
792.0,0.6759
793.0,0.6652
794.0,0.6751
795.0,0.6869
796.0,0.6677
797.0,0.6686
798.0,0.6862
799.0,0.6822
800.0,0.6708
801.0,0.6692
802.0,0.6672
803.0,0.6624
804.0,0.663
805.0,0.6604
806.0,0.6781
807.0,0.6701
808.0,0.6706
809.0,0.6587
810.0,0.6538
811.0,0.6556
812.0,0.6381
813.0,0.6256
814.0,0.5548
815.0,0.5512
816.0,0.5136
817.0,0.5225
818.0,0.5039
819.0,0.5596
820.0,0.5285
821.0,0.6126
822.0,0.5959
823.0,0.4135
824.0,0.5804
825.0,0.6021
826.0,0.5809
827.0,0.6113
828.0,0.523
829.0,0.577
830.0,0.57
831.0,0.5718
832.0,0.5551
833.0,0.5882
834.0,0.5689
835.0,0.6217
836.0,0.5972
837.0,0.6233
838.0,0.6049
839.0,0.6137
840.0,0.6269
841.0,0.6184
842.0,0.6192
843.0,0.6182
844.0,0.6099
845.0,0.6301
846.0,0.6272
847.0,0.6154
848.0,0.6118
849.0,0.5944
850.0,0.5695
851.0,0.6032
852.0,0.5988
853.0,0.5762
854.0,0.4977
855.0,0.5465
856.0,0.5974
857.0,0.6105
858.0,0.6061
859.0,0.6065
860.0,0.6075
861.0,0.6042
862.0,0.6137
863.0,0.6282
864.0,0.5968
865.0,0.5915
866.0,0.5319
867.0,0.555
868.0,0.604
869.0,0.5914
870.0,0.6083
871.0,0.6
872.0,0.5979
873.0,0.5967
874.0,0.5896
875.0,0.5776
876.0,0.5837
877.0,0.5895
878.0,0.596
879.0,0.5868
880.0,0.5742
881.0,0.5657
882.0,0.578
883.0,0.5797
884.0,0.5771
885.0,0.5815
886.0,0.5546
887.0,0.5601
888.0,0.5686
889.0,0.5747
890.0,0.5703
891.0,0.5691
892.0,0.5532
893.0,0.5365
894.0,0.5189
895.0,0.4919
896.0,0.464
897.0,0.4007
898.0,0.436
899.0,0.3342
900.0,0.4452
901.0,0.3502
902.0,0.4076
903.0,0.4128
904.0,0.515
905.0,0.498
906.0,0.4665
907.0,0.3821
908.0,0.3893
909.0,0.4202
910.0,0.3742
911.0,0.3973
912.0,0.4148
913.0,0.3799
914.0,0.3762
915.0,0.4076
916.0,0.3457
917.0,0.4361
918.0,0.3546
919.0,0.4433
920.0,0.4465
921.0,0.4641
922.0,0.4167
923.0,0.4482
924.0,0.4272
925.0,0.418
926.0,0.4226
927.0,0.4713
928.0,0.3506
929.0,0.3213
930.0,0.2543
931.0,0.2407
932.0,0.1752
933.0,0.1433
934.0,0.08059
935.0,0.1459
936.0,0.09234
937.0,0.09373
938.0,0.1148
939.0,0.2332
940.0,0.2793
941.0,0.2125
942.0,0.245
943.0,0.1624
944.0,0.1698
945.0,0.2188
946.0,0.113
947.0,0.2202
948.0,0.162
949.0,0.2931
950.0,0.08398
951.0,0.2883
952.0,0.1571
953.0,0.2014
954.0,0.2454
955.0,0.2036
956.0,0.1967
957.0,0.1575
958.0,0.2766
959.0,0.2215
960.0,0.2482
961.0,0.2773
962.0,0.2625
963.0,0.3015
964.0,0.2765
965.0,0.3002
966.0,0.3005
967.0,0.2994
968.0,0.3974
969.0,0.4154
970.0,0.382
971.0,0.4356
972.0,0.417
973.0,0.3648
974.0,0.3465
975.0,0.359
976.0,0.3418
977.0,0.3871
978.0,0.3685
979.0,0.3855
980.0,0.3627
981.0,0.433
982.0,0.4146
983.0,0.3984
984.0,0.4454
985.0,0.413
986.0,0.4528
987.0,0.4444
988.0,0.4436
989.0,0.4512
990.0,0.4409
991.0,0.4525
992.0,0.4551
993.0,0.4455
994.0,0.4549
995.0,0.4543
996.0,0.4524
997.0,0.453
998.0,0.4509
999.0,0.4492
1000.0,0.4462
1001.0,0.4516
1002.0,0.4396
1003.0,0.4437
1004.0,0.4329
1005.0,0.4169
1006.0,0.4333
1007.0,0.4424
1008.0,0.4401
1009.0,0.4378
1010.0,0.436
1011.0,0.4402
1012.0,0.4364
1013.0,0.4391
1014.0,0.436
1015.0,0.4331
1016.0,0.4312
1017.0,0.4323
1018.0,0.4306
1019.0,0.4216
1020.0,0.4284
1021.0,0.4277
1022.0,0.4245
1023.0,0.429
1024.0,0.4236
1025.0,0.4286
1026.0,0.4269
1027.0,0.4259
1028.0,0.425
1029.0,0.42
1030.0,0.4228
1031.0,0.4211
1032.0,0.4199
1033.0,0.4136
1034.0,0.4136
1035.0,0.4149
1036.0,0.417
1037.0,0.4102
1038.0,0.4121
1039.0,0.4118
1040.0,0.4102
1041.0,0.4118
1042.0,0.4089
1043.0,0.4077
1044.0,0.4091
1045.0,0.4036
1046.0,0.3991
1047.0,0.4027
1048.0,0.4049
1049.0,0.4035
1050.0,0.4016
1051.0,0.4011
1052.0,0.3995
1053.0,0.3963
1054.0,0.3972
1055.0,0.3974
1056.0,0.3961
1057.0,0.3949
1058.0,0.3852
1059.0,0.3856
1060.0,0.385
1061.0,0.3846
1062.0,0.3866
1063.0,0.3828
1064.0,0.3874
1065.0,0.3846
1066.0,0.377
1067.0,0.3819
1068.0,0.3736
1069.0,0.362
1070.0,0.3743
1071.0,0.38
1072.0,0.3757
1073.0,0.3703
1074.0,0.3797
1075.0,0.3611
1076.0,0.3794
1077.0,0.3729
1078.0,0.3659
1079.0,0.3733
1080.0,0.3671
1081.0,0.3556
1082.0,0.3609
1083.0,0.3619
1084.0,0.3548
1085.0,0.3679
1086.0,0.3364
1087.0,0.3468
1088.0,0.3616
1089.0,0.351
1090.0,0.3435
1091.0,0.3606
1092.0,0.3596
1093.0,0.3061
1094.0,0.3291
1095.0,0.3188
1096.0,0.3056
1097.0,0.3512
1098.0,0.301
1099.0,0.3137
1100.0,0.2922
1101.0,0.2957
1102.0,0.2828
1103.0,0.2803
1104.0,0.2806
1105.0,0.3067
1106.0,0.2367
1107.0,0.2917
1108.0,0.2485
1109.0,0.2487
1110.0,0.2893
1111.0,0.1979
1112.0,0.2467
1113.0,0.1588
1114.0,0.1773
1115.0,0.147
1116.0,0.1184
1117.0,0.04459
1118.0,0.1285
1119.0,0.06462
1120.0,0.08139
1121.0,0.1075
1122.0,0.04597
1123.0,0.07352
1124.0,0.06206
1125.0,0.08076
1126.0,0.02883
1127.0,0.09103
1128.0,0.05524
1129.0,0.0585
1130.0,0.03879
1131.0,0.1708
1132.0,0.1343
1133.0,0.08612
1134.0,0.02258
1135.0,0.00843
1136.0,0.07219
1137.0,0.1681
1138.0,0.1186
1139.0,0.175
1140.0,0.1469
1141.0,0.1127
1142.0,0.1293
1143.0,0.1828
1144.0,0.06479
1145.0,0.08304
1146.0,0.08957
1147.0,0.03224
1148.0,0.1582
1149.0,0.1269
1150.0,0.0696
1151.0,0.1177
1152.0,0.1442
1153.0,0.14
1154.0,0.0806
1155.0,0.1825
1156.0,0.1648
1157.0,0.1843
1158.0,0.1822
1159.0,0.196
1160.0,0.1682
1161.0,0.2059
1162.0,0.207
1163.0,0.2771
1164.0,0.2386
1165.0,0.226
1166.0,0.2238
1167.0,0.2432
1168.0,0.2461
1169.0,0.2516
1170.0,0.2727
1171.0,0.266
1172.0,0.2703
1173.0,0.2721
1174.0,0.1966
1175.0,0.2654
1176.0,0.2905
1177.0,0.2797
1178.0,0.2119
1179.0,0.2928
1180.0,0.2627
1181.0,0.271
1182.0,0.1891
1183.0,0.2666
1184.0,0.2505
1185.0,0.2423
1186.0,0.2852
1187.0,0.2723
1188.0,0.1925
1189.0,0.2538
1190.0,0.2787
1191.0,0.2658
1192.0,0.2825
1193.0,0.2711
1194.0,0.2791
1195.0,0.2648
1196.0,0.2556
1197.0,0.2788
1198.0,0.2557
1199.0,0.2194
1200.0,0.2678
1201.0,0.2589
1202.0,0.257
1203.0,0.2549
1204.0,0.224
1205.0,0.2624
1206.0,0.2888
1207.0,0.2565
1208.0,0.2519
1209.0,0.2569
1210.0,0.2672
1211.0,0.2553
1212.0,0.2531
1213.0,0.2797
1214.0,0.2587
1215.0,0.254
1216.0,0.2788
1217.0,0.2718
1218.0,0.2765
1219.0,0.2733
1220.0,0.2768
1221.0,0.2793
1222.0,0.2723
1223.0,0.2699
1224.0,0.2685
1225.0,0.2775
1226.0,0.2791
1227.0,0.2585
1228.0,0.2803
1229.0,0.2792
1230.0,0.2746
1231.0,0.2817
1232.0,0.2801
1233.0,0.2713
1234.0,0.2813
1235.0,0.2797
1236.0,0.2816
1237.0,0.278
1238.0,0.2806
1239.0,0.277
1240.0,0.2781
1241.0,0.277
1242.0,0.2762
1243.0,0.2739
1244.0,0.2759
1245.0,0.2771
1246.0,0.2754
1247.0,0.2744
1248.0,0.2743
1249.0,0.2751
1250.0,0.2735
1251.0,0.2701
1252.0,0.27
1253.0,0.2681
1254.0,0.2657
1255.0,0.2698
1256.0,0.2628
1257.0,0.2614
1258.0,0.2659
1259.0,0.2571
1260.0,0.2584
1261.0,0.2449
1262.0,0.2381
1263.0,0.2386
1264.0,0.2215
1265.0,0.2371
1266.0,0.2289
1267.0,0.2324
1268.0,0.2212
1269.0,0.1428
1270.0,0.2317
1271.0,0.244
1272.0,0.2446
1273.0,0.2422
1274.0,0.2428
1275.0,0.2461
1276.0,0.2483
1277.0,0.2497
1278.0,0.254
1279.0,0.2518
1280.0,0.2486
1281.0,0.237
1282.0,0.228
1283.0,0.2457
1284.0,0.2516
1285.0,0.2532
1286.0,0.2564
1287.0,0.2528
1288.0,0.2527
1289.0,0.2453
1290.0,0.2504
1291.0,0.2538
1292.0,0.2397
1293.0,0.2491
1294.0,0.2474
1295.0,0.2466
1296.0,0.2362
1297.0,0.224
1298.0,0.2399
1299.0,0.2493
1300.0,0.2132
1301.0,0.2193
1302.0,0.2391
1303.0,0.2101
1304.0,0.1812
1305.0,0.2343
1306.0,0.2345
1307.0,0.1844
1308.0,0.2101
1309.0,0.2328
1310.0,0.181
1311.0,0.2019
1312.0,0.1967
1313.0,0.1933
1314.0,0.1737
1315.0,0.1718
1316.0,0.199
1317.0,0.1888
1318.0,0.2044
1319.0,0.162
1320.0,0.1565
1321.0,0.1815
1322.0,0.1836
1323.0,0.1399
1324.0,0.1589
1325.0,0.1963
1326.0,0.1696
1327.0,0.1621
1328.0,0.1403
1329.0,0.1068
1330.0,0.1383
1331.0,0.08514
1332.0,0.08736
1333.0,0.1212
1334.0,0.1019
1335.0,0.1394
1336.0,0.1111
1337.0,0.09868
1338.0,0.1068
1339.0,0.1061
1340.0,0.1027
1341.0,0.1013
1342.0,0.1063
1343.0,0.07393
1344.0,0.04417
1345.0,0.06357
1346.0,0.0328
1347.0,0.03356
1348.0,0.002403
1349.0,0.008393
1350.0,0.008544
1351.0,0.00227
1352.0,0.0006752
1353.0,3.84e-05
1354.0,0.0001235
1355.0,1.243e-06
1356.0,1.892e-05
1357.0,2.873e-05
1358.0,1.46e-06
1359.0,2.174e-07
1360.0,7.088e-07
1361.0,1.13e-09
1362.0,3.613e-12
1363.0,1.008e-06
1364.0,4.221e-07
1365.0,1.538e-12
1366.0,4.214e-06
1367.0,1.68e-06
1368.0,1.743e-14
1369.0,1.594e-07
1370.0,8.436e-08
1371.0,5.233e-09
1372.0,9.247e-07
1373.0,1.668e-05
1374.0,7.184e-05
1375.0,0.0001309
1376.0,0.0001107
1377.0,5.16e-05
1378.0,0.0004879
1379.0,2.176e-05
1380.0,3.284e-05
1381.0,9.006e-07
1382.0,8.508e-07
1383.0,1.363e-08
1384.0,1.854e-07
1385.0,7.445e-07
1386.0,7.96e-07
1387.0,7.8e-05
1388.0,1.549e-06
1389.0,0.0002436
1390.0,0.0002098
1391.0,0.0001424
1392.0,9.52e-06
1393.0,4.846e-05
1394.0,2.831e-05
1395.0,2.282e-07
1396.0,1.554e-09
1397.0,1.991e-05
1398.0,0.0005524
1399.0,0.00035
1400.0,7.366e-10
1401.0,2.703e-09
1402.0,0.000881
1403.0,0.001128
1404.0,0.0003467
1405.0,1.18e-07
1406.0,0.000931
1407.0,8.06e-05
1408.0,0.0007576
1409.0,0.0002687
1410.0,0.000208
1411.0,0.0009887
1412.0,0.0013
1413.0,0.01246
1414.0,0.0001631
1415.0,8.034e-05
1416.0,0.01975
1417.0,0.006178
1418.0,0.007065
1419.0,0.001106
1420.0,0.00433
1421.0,0.004686
1422.0,0.02573
1423.0,0.005036
1424.0,0.009393
1425.0,0.0139
1426.0,0.0156
1427.0,0.02831
1428.0,0.002274
1429.0,0.02133
1430.0,0.03597
1431.0,0.03942
1432.0,0.001795
1433.0,0.02519
1434.0,0.01287
1435.0,0.01306
1436.0,0.02491
1437.0,0.01908
1438.0,0.008138
1439.0,0.03375
1440.0,0.02529
1441.0,0.0194
1442.0,0.0215
1443.0,0.02682
1444.0,0.03708
1445.0,0.02914
1446.0,0.01314
1447.0,0.02071
1448.0,0.06937
1449.0,0.06032
