interpolation:linear
wavelength,value
280.0,3.844e-23
280.5,1.298e-21
281.0,7.046e-21
281.5,2.3e-19
282.0,4.802e-19
282.5,1.098e-18
283.0,3.367e-18
283.5,5.46e-18
284.0,8.918e-17
284.5,2.619e-16
285.0,8.485e-16
285.5,3.196e-15
286.0,1.23e-14
286.5,5.202e-14
287.0,1.457e-13
287.5,5.512e-13
288.0,1.651e-12
288.5,4.681e-12
289.0,1.205e-11
289.5,3.569e-11
290.0,9.851e-11
290.5,2.009e-10
291.0,4.322e-10
291.5,1.246e-09
292.0,2.558e-09
292.5,3.554e-09
293.0,7.537e-09
293.5,1.809e-08
294.0,2.82e-08
294.5,3.363e-08
295.0,5.648e-08
295.5,9.505e-08
296.0,1.773e-07
296.5,2.393e-07
297.0,3.138e-07
297.5,8.007e-07
298.0,1.205e-06
298.5,1.167e-06
299.0,2.475e-06
299.5,3.821e-06
300.0,4.023e-06
300.5,5.563e-06
301.0,9.307e-06
301.5,1.376e-05
302.0,1.13e-05
302.5,2.147e-05
303.0,3.681e-05
303.5,4.543e-05
304.0,4.309e-05
304.5,6.628e-05
305.0,0.000106
305.5,0.0001261
306.0,0.000124
306.5,0.0001587
307.0,0.0002517
307.5,0.0003589
308.0,0.0003834
308.5,0.0004697
309.0,0.0004853
309.5,0.000685
310.0,0.0007587
310.5,0.00129
311.0,0.001754
311.5,0.001753
312.0,0.002089
312.5,0.002857
313.0,0.003296
313.5,0.00302
314.0,0.00435
314.5,0.004662
315.0,0.006335
315.5,0.004828
316.0,0.004921
316.5,0.008081
317.0,0.01
317.5,0.01001
318.0,0.00856
318.5,0.01269
319.0,0.01647
319.5,0.01161
320.0,0.01372
320.5,0.02059
321.0,0.02163
321.5,0.02107
322.0,0.0188
322.5,0.01649
323.0,0.01843
323.5,0.02753
324.0,0.03285
324.5,0.03147
325.0,0.02363
325.5,0.03339
326.0,0.046
326.5,0.04948
327.0,0.04801
327.5,0.04481
328.0,0.03614
328.5,0.04276
329.0,0.05606
329.5,0.06539
330.0,0.0645
330.5,0.04811
331.0,0.04783
331.5,0.05122
332.0,0.05963
332.5,0.06099
333.0,0.05963
333.5,0.05107
334.0,0.05183
334.5,0.06366
335.0,0.062
335.5,0.07381
336.0,0.05106
336.5,0.05763
337.0,0.04605
337.5,0.05672
338.0,0.05829
338.5,0.06903
339.0,0.06857
339.5,0.06581
340.0,0.07548
340.5,0.06838
341.0,0.06812
341.5,0.06295
342.0,0.07538
342.5,0.07066
343.0,0.0774
343.5,0.07268
344.0,0.05257
344.5,0.05401
345.0,0.07202
345.5,0.07379
346.0,0.06287
346.5,0.07131
347.0,0.0763
347.5,0.06163
348.0,0.07058
348.5,0.07074
349.0,0.06572
349.5,0.06507
350.0,0.08054
350.5,0.08497
351.0,0.07575
351.5,0.07324
352.0,0.07896
352.5,0.06181
353.0,0.07803
353.5,0.08356
354.0,0.08685
354.5,0.08809
355.0,0.08775
355.5,0.07936
356.0,0.08312
356.5,0.071
357.0,0.05866
357.5,0.07186
358.0,0.05699
358.5,0.04872
359.0,0.06814
359.5,0.08671
360.0,0.092
360.5,0.07361
361.0,0.06719
361.5,0.07746
362.0,0.06707
362.5,0.09292
363.0,0.08353
363.5,0.077
364.0,0.09424
364.5,0.08059
365.0,0.08211
365.5,0.1031
366.0,0.1094
366.5,0.1029
367.0,0.1002
367.5,0.1041
368.0,0.09113
368.5,0.092
369.0,0.09943
369.5,0.1061
370.0,0.1132
370.5,0.08789
371.0,0.09399
371.5,0.1177
372.0,0.07813
372.5,0.09375
373.0,0.09544
373.5,0.06215
374.0,0.09036
374.5,0.0749
375.0,0.07286
375.5,0.1088
376.0,0.09027
376.5,0.0936
377.0,0.09918
377.5,0.1161
378.0,0.1259
378.5,0.1191
379.0,0.09833
379.5,0.08985
380.0,0.09347
380.5,0.1133
381.0,0.1137
381.5,0.09023
382.0,0.08022
382.5,0.06847
383.0,0.06346
383.5,0.06118
384.0,0.06755
384.5,0.09944
385.0,0.09871
385.5,0.09202
386.0,0.07888
386.5,0.1037
387.0,0.08626
387.5,0.09696
388.0,0.0896
388.5,0.08866
389.0,0.09578
389.5,0.1161
390.0,0.1166
390.5,0.1074
391.0,0.1266
391.5,0.1292
392.0,0.1089
392.5,0.09762
393.0,0.05438
393.5,0.03957
394.0,0.08059
394.5,0.1026
395.0,0.1253
395.5,0.1273
396.0,0.1105
396.5,0.06468
397.0,0.0486
397.5,0.09892
398.0,0.1386
398.5,0.1434
399.0,0.1555
399.5,0.1551
400.0,0.1611
401.0,0.161
402.0,0.1703
403.0,0.1621
404.0,0.1599
405.0,0.1601
406.0,0.1579
407.0,0.1557
408.0,0.1619
409.0,0.1736
410.0,0.152
411.0,0.165
412.0,0.1777
413.0,0.1735
414.0,0.176
415.0,0.1769
416.0,0.1804
417.0,0.1762
418.0,0.1733
419.0,0.1759
420.0,0.1754
421.0,0.1839
422.0,0.175
423.0,0.1713
424.0,0.1813
425.0,0.1813
426.0,0.1772
427.0,0.1742
428.0,0.1699
429.0,0.1615
430.0,0.1416
431.0,0.1404
432.0,0.1817
433.0,0.183
434.0,0.1702
435.0,0.1779
436.0,0.201
437.0,0.1989
438.0,0.1814
439.0,0.1873
440.0,0.1936
441.0,0.201
442.0,0.2159
443.0,0.2102
444.0,0.2153
445.0,0.2108
446.0,0.202
447.0,0.2191
448.0,0.2223
449.0,0.224
450.0,0.2306
451.0,0.2395
452.0,0.2312
453.0,0.2178
454.0,0.228
455.0,0.2295
456.0,0.2353
457.0,0.2393
458.0,0.2307
459.0,0.2297
460.0,0.2301
461.0,0.2356
462.0,0.238
463.0,0.2365
464.0,0.2336
465.0,0.2316
466.0,0.2345
467.0,0.2301
468.0,0.2328
469.0,0.2341
470.0,0.2265
471.0,0.2265
472.0,0.2387
473.0,0.2357
474.0,0.2356
475.0,0.2371
476.0,0.2291
477.0,0.2291
478.0,0.2356
479.0,0.2345
480.0,0.2354
481.0,0.2404
482.0,0.2425
483.0,0.2405
484.0,0.2362
485.0,0.2257
486.0,0.198
487.0,0.2081
488.0,0.2284
489.0,0.2289
490.0,0.2413
491.0,0.2375
492.0,0.2245
493.0,0.232
494.0,0.2345
495.0,0.2367
496.0,0.2383
497.0,0.2419
498.0,0.2304
499.0,0.233
500.0,0.2257
501.0,0.2209
502.0,0.2166
503.0,0.2243
504.0,0.2155
505.0,0.2258
506.0,0.2331
507.0,0.2221
508.0,0.2162
509.0,0.2231
510.0,0.2228
511.0,0.2295
512.0,0.2324
513.0,0.2202
514.0,0.219
515.0,0.2168
516.0,0.2162
517.0,0.1922
518.0,0.2019
519.0,0.2117
520.0,0.2193
521.0,0.2212
522.0,0.2211
523.0,0.2169
524.0,0.2239
525.0,0.2255
526.0,0.2151
527.0,0.202
528.0,0.213
529.0,0.224
530.0,0.2204
531.0,0.2233
532.0,0.2154
533.0,0.2091
534.0,0.2156
535.0,0.2207
536.0,0.2232
537.0,0.2147
538.0,0.2187
539.0,0.2168
540.0,0.2076
541.0,0.2079
542.0,0.2138
543.0,0.2123
544.0,0.2151
545.0,0.2147
546.0,0.2148
547.0,0.2155
548.0,0.2133
549.0,0.2142
550.0,0.2167
551.0,0.2142
552.0,0.2157
553.0,0.2117
554.0,0.2167
555.0,0.2169
556.0,0.2139
557.0,0.2069
558.0,0.2048
559.0,0.2003
560.0,0.2024
561.0,0.2045
562.0,0.2023
563.0,0.207
564.0,0.2007
565.0,0.1984
566.0,0.195
567.0,0.198
568.0,0.1943
569.0,0.1865
570.0,0.1868
571.0,0.1864
572.0,0.1886
573.0,0.1902
574.0,0.189
575.0,0.1846
576.0,0.183
577.0,0.1854
578.0,0.1835
579.0,0.1859
580.0,0.192
581.0,0.1949
582.0,0.2004
583.0,0.2023
584.0,0.205
585.0,0.2006
586.0,0.1966
587.0,0.1998
588.0,0.1909
589.0,0.1613
590.0,0.1691
591.0,0.1839
592.0,0.1787
593.0,0.1849
594.0,0.1823
595.0,0.1744
596.0,0.1881
597.0,0.1841
598.0,0.1857
599.0,0.1867
600.0,0.1886
601.0,0.1884
602.0,0.1873
603.0,0.1912
604.0,0.1947
605.0,0.1942
606.0,0.1941
607.0,0.1968
608.0,0.1954
609.0,0.1964
610.0,0.1957
611.0,0.1974
612.0,0.1973
613.0,0.1953
614.0,0.1933
615.0,0.1982
616.0,0.1922
617.0,0.1923
618.0,0.2001
619.0,0.1983
620.0,0.1996
621.0,0.1993
622.0,0.1968
623.0,0.1936
624.0,0.1907
625.0,0.19
626.0,0.1925
627.0,0.1929
628.0,0.1602
629.0,0.1811
630.0,0.1762
631.0,0.187
632.0,0.1861
633.0,0.1946
634.0,0.1951
635.0,0.1993
636.0,0.198
637.0,0.2023
638.0,0.206
639.0,0.2046
640.0,0.2037
641.0,0.2043
642.0,0.2043
643.0,0.2072
644.0,0.2075
645.0,0.2073
646.0,0.2
647.0,0.1917
648.0,0.1929
649.0,0.1878
650.0,0.1964
651.0,0.2062
652.0,0.1908
653.0,0.2041
654.0,0.2023
655.0,0.1913
656.0,0.172
657.0,0.1772
658.0,0.2011
659.0,0.2036
660.0,0.2052
661.0,0.2074
662.0,0.2068
663.0,0.203
664.0,0.2073
665.0,0.2089
666.0,0.2096
667.0,0.2102
668.0,0.2112
669.0,0.215
670.0,0.2145
671.0,0.2149
672.0,0.2134
673.0,0.217
674.0,0.2166
675.0,0.215
676.0,0.2168
677.0,0.215
678.0,0.2159
679.0,0.2128
680.0,0.2147
681.0,0.2134
682.0,0.2132
683.0,0.2129
684.0,0.2118
685.0,0.214
686.0,0.2123
687.0,0.06626
688.0,0.1039
689.0,0.1053
690.0,0.1218
691.0,0.1429
692.0,0.1613
693.0,0.1599
694.0,0.1623
695.0,0.1799
696.0,0.181
697.0,0.204
698.0,0.2005
699.0,0.1872
700.0,0.1845
701.0,0.1786
702.0,0.1833
703.0,0.1852
704.0,0.1963
705.0,0.1963
706.0,0.1979
707.0,0.199
708.0,0.1991
709.0,0.2033
710.0,0.201
711.0,0.2023
712.0,0.2036
713.0,0.1996
714.0,0.2011
715.0,0.1909
716.0,0.1903
717.0,0.1355
718.0,0.1232
719.0,0.1106
720.0,0.1125
721.0,0.1396
722.0,0.1774
723.0,0.1568
724.0,0.1305
725.0,0.1257
726.0,0.1321
727.0,0.1411
728.0,0.1242
729.0,0.1385
730.0,0.1431
731.0,0.1357
732.0,0.1563
733.0,0.1745
734.0,0.1823
735.0,0.1766
736.0,0.1753
737.0,0.1764
738.0,0.1881
739.0,0.1849
740.0,0.1923
741.0,0.1918
742.0,0.1938
743.0,0.1992
744.0,0.1998
745.0,0.2008
746.0,0.2017
747.0,0.2024
748.0,0.2021
749.0,0.1999
750.0,0.1999
751.0,0.1979
752.0,0.1989
753.0,0.2001
754.0,0.2005
755.0,0.1993
756.0,0.1994
757.0,0.1996
758.0,0.1969
759.0,0.1864
760.0,0.003093
761.0,0.001409
762.0,0.02897
763.0,0.006014
764.0,0.01399
765.0,0.02879
766.0,0.05403
767.0,0.09899
768.0,0.15
769.0,0.1628
770.0,0.1801
771.0,0.187
772.0,0.1891
773.0,0.1909
774.0,0.1904
775.0,0.1892
776.0,0.1917
777.0,0.1892
778.0,0.188
779.0,0.1882
780.0,0.1872
781.0,0.1875
782.0,0.1888
783.0,0.1857
784.0,0.1868
785.0,0.185
786.0,0.1866
787.0,0.1785
788.0,0.1742
789.0,0.1744
790.0,0.1641
791.0,0.1714
792.0,0.1711
793.0,0.1678
794.0,0.1764
795.0,0.1777
796.0,0.1638
797.0,0.1629
798.0,0.1764
799.0,0.1739
800.0,0.1689
801.0,0.1661
802.0,0.1652
803.0,0.1627
804.0,0.1641
805.0,0.1662
806.0,0.1754
807.0,0.1724
808.0,0.1727
809.0,0.166
810.0,0.1629
811.0,0.1603
812.0,0.1482
813.0,0.1441
814.0,0.1141
815.0,0.1149
816.0,0.1044
817.0,0.1064
818.0,0.09964
819.0,0.1217
820.0,0.1116
821.0,0.1481
822.0,0.1408
823.0,0.07131
824.0,0.1296
825.0,0.1462
826.0,0.1341
827.0,0.1478
828.0,0.1078
829.0,0.1347
830.0,0.1322
831.0,0.1322
832.0,0.1249
833.0,0.1405
834.0,0.1312
835.0,0.1577
836.0,0.1405
837.0,0.1578
838.0,0.1482
839.0,0.1549
840.0,0.1595
841.0,0.1551
842.0,0.1588
843.0,0.1624
844.0,0.1584
845.0,0.1661
846.0,0.1661
847.0,0.164
848.0,0.1614
849.0,0.1568
850.0,0.1504
851.0,0.1575
852.0,0.1573
853.0,0.1527
854.0,0.1307
855.0,0.1452
856.0,0.158
857.0,0.1626
858.0,0.1609
859.0,0.1618
860.0,0.1626
861.0,0.1616
862.0,0.1644
863.0,0.1683
864.0,0.16
865.0,0.1587
866.0,0.1427
867.0,0.149
868.0,0.1622
869.0,0.1589
870.0,0.1635
871.0,0.1612
872.0,0.1608
873.0,0.1605
874.0,0.1586
875.0,0.1553
876.0,0.1568
877.0,0.1585
878.0,0.1599
879.0,0.1576
880.0,0.1542
881.0,0.1511
882.0,0.154
883.0,0.1554
884.0,0.1543
885.0,0.1554
886.0,0.1456
887.0,0.1491
888.0,0.1503
889.0,0.1542
890.0,0.15
891.0,0.1511
892.0,0.1432
893.0,0.1357
894.0,0.1235
895.0,0.1081
896.0,0.0997
897.0,0.07701
898.0,0.08748
899.0,0.05754
900.0,0.09523
901.0,0.06043
902.0,0.08176
903.0,0.07831
904.0,0.1217
905.0,0.115
906.0,0.1047
907.0,0.06981
908.0,0.07504
909.0,0.08574
910.0,0.06639
911.0,0.07981
912.0,0.08214
913.0,0.06689
914.0,0.0686
915.0,0.07275
916.0,0.06073
917.0,0.08641
918.0,0.06117
919.0,0.09156
920.0,0.102
921.0,0.1045
922.0,0.08621
923.0,0.1021
924.0,0.08519
925.0,0.08394
926.0,0.08308
927.0,0.09979
928.0,0.05308
929.0,0.0439
930.0,0.02676
931.0,0.02452
932.0,0.01222
933.0,0.008176
934.0,0.001969
935.0,0.009491
936.0,0.00391
937.0,0.003999
938.0,0.005496
939.0,0.02353
940.0,0.03338
941.0,0.01939
942.0,0.02475
943.0,0.01244
944.0,0.01718
945.0,0.02129
946.0,0.006185
947.0,0.01998
948.0,0.01432
949.0,0.03287
950.0,0.003436
951.0,0.03217
952.0,0.01147
953.0,0.01853
954.0,0.02738
955.0,0.01947
956.0,0.02637
957.0,0.01145
958.0,0.04135
959.0,0.02539
960.0,0.02873
961.0,0.03823
962.0,0.03624
963.0,0.04768
964.0,0.04216
965.0,0.04636
966.0,0.04684
967.0,0.0454
968.0,0.08828
969.0,0.08663
970.0,0.07804
971.0,0.1019
972.0,0.09402
973.0,0.06949
974.0,0.06584
975.0,0.07111
976.0,0.06045
977.0,0.08502
978.0,0.07389
979.0,0.08029
980.0,0.07435
981.0,0.1016
982.0,0.0927
983.0,0.08657
984.0,0.1114
985.0,0.0916
986.0,0.1178
987.0,0.112
988.0,0.1125
989.0,0.1206
990.0,0.1111
991.0,0.1204
992.0,0.1216
993.0,0.115
994.0,0.1222
995.0,0.1229
996.0,0.1215
997.0,0.1221
998.0,0.1212
999.0,0.121
1000.0,0.1188
1001.0,0.1218
1002.0,0.113
1003.0,0.1193
1004.0,0.1149
1005.0,0.1127
1006.0,0.1162
1007.0,0.1191
1008.0,0.1175
1009.0,0.1159
1010.0,0.1149
1011.0,0.1186
1012.0,0.1167
1013.0,0.1187
1014.0,0.1178
1015.0,0.1169
1016.0,0.1162
1017.0,0.1163
1018.0,0.1166
1019.0,0.112
1020.0,0.1156
1021.0,0.1158
1022.0,0.1142
1023.0,0.1153
1024.0,0.1117
1025.0,0.1159
1026.0,0.1148
1027.0,0.1147
1028.0,0.1143
1029.0,0.1127
1030.0,0.1142
1031.0,0.1135
1032.0,0.1134
1033.0,0.1116
1034.0,0.1117
1035.0,0.1121
1036.0,0.1124
1037.0,0.1107
1038.0,0.1111
1039.0,0.1108
1040.0,0.1104
1041.0,0.1106
1042.0,0.1098
1043.0,0.1093
1044.0,0.1096
1045.0,0.108
1046.0,0.1066
1047.0,0.1074
1048.0,0.1078
1049.0,0.1073
1050.0,0.1066
1051.0,0.1062
1052.0,0.1055
1053.0,0.1044
1054.0,0.1044
1055.0,0.1041
1056.0,0.1033
1057.0,0.1027
1058.0,0.0999
1059.0,0.09965
1060.0,0.09932
1061.0,0.099
1062.0,0.09917
1063.0,0.09793
1064.0,0.09918
1065.0,0.09766
1066.0,0.09636
1067.0,0.09741
1068.0,0.09471
1069.0,0.0923
1070.0,0.09498
1071.0,0.0982
1072.0,0.09575
1073.0,0.09461
1074.0,0.09916
1075.0,0.09014
1076.0,0.09881
1077.0,0.09485
1078.0,0.09168
1079.0,0.09823
1080.0,0.09309
1081.0,0.08795
1082.0,0.09311
1083.0,0.09464
1084.0,0.08677
1085.0,0.09367
1086.0,0.07983
1087.0,0.08611
1088.0,0.09391
1089.0,0.086
1090.0,0.08244
1091.0,0.09235
1092.0,0.09271
1093.0,0.06776
1094.0,0.08343
1095.0,0.07036
1096.0,0.06476
1097.0,0.09064
1098.0,0.06187
1099.0,0.06578
1100.0,0.05757
1101.0,0.06011
1102.0,0.05441
1103.0,0.05179
1104.0,0.05237
1105.0,0.06307
1106.0,0.03434
1107.0,0.0577
1108.0,0.0404
1109.0,0.04096
1110.0,0.05429
1111.0,0.02546
1112.0,0.04105
1113.0,0.01675
1114.0,0.01867
1115.0,0.01445
1116.0,0.007996
1117.0,0.001107
1118.0,0.009133
1119.0,0.002439
1120.0,0.002725
1121.0,0.004331
1122.0,0.0007788
1123.0,0.002485
1124.0,0.002077
1125.0,0.003194
1126.0,0.0002909
1127.0,0.003678
1128.0,0.001056
1129.0,0.001173
1130.0,0.0007713
1131.0,0.01222
1132.0,0.008301
1133.0,0.00283
1134.0,0.0002207
1135.0,0.0001077
1136.0,0.001758
1137.0,0.01106
1138.0,0.006922
1139.0,0.01844
1140.0,0.01208
1141.0,0.006723
1142.0,0.008893
1143.0,0.01665
1144.0,0.002865
1145.0,0.002627
1146.0,0.002823
1147.0,0.0003095
1148.0,0.01339
1149.0,0.008654
1150.0,0.003881
1151.0,0.006936
1152.0,0.01088
1153.0,0.01278
1154.0,0.003045
1155.0,0.01926
1156.0,0.01548
1157.0,0.02253
1158.0,0.02217
1159.0,0.02528
1160.0,0.02119
1161.0,0.03226
1162.0,0.03155
1163.0,0.0563
1164.0,0.04351
1165.0,0.03661
1166.0,0.04046
1167.0,0.04626
1168.0,0.04631
1169.0,0.0483
1170.0,0.05696
1171.0,0.05551
1172.0,0.05998
1173.0,0.05689
1174.0,0.03165
1175.0,0.05902
1176.0,0.07179
1177.0,0.06411
1178.0,0.04073
1179.0,0.07211
1180.0,0.057
1181.0,0.059
1182.0,0.03178
1183.0,0.05946
1184.0,0.05244
1185.0,0.04775
1186.0,0.06653
1187.0,0.05995
1188.0,0.0304
1189.0,0.05545
1190.0,0.0661
1191.0,0.05579
1192.0,0.06775
1193.0,0.06241
1194.0,0.06603
1195.0,0.05773
1196.0,0.05323
1197.0,0.06754
1198.0,0.06052
1199.0,0.04218
1200.0,0.0619
1201.0,0.05588
1202.0,0.05932
1203.0,0.05603
1204.0,0.04578
1205.0,0.06293
1206.0,0.074
1207.0,0.05755
1208.0,0.05953
1209.0,0.06079
1210.0,0.06572
1211.0,0.05963
1212.0,0.05284
1213.0,0.06843
1214.0,0.05602
1215.0,0.05476
1216.0,0.06923
1217.0,0.06563
1218.0,0.06846
1219.0,0.06625
1220.0,0.06873
1221.0,0.07113
1222.0,0.06827
1223.0,0.06673
1224.0,0.06388
1225.0,0.06991
1226.0,0.07222
1227.0,0.06093
1228.0,0.07343
1229.0,0.07229
1230.0,0.07001
1231.0,0.07525
1232.0,0.07467
1233.0,0.0677
1234.0,0.07637
1235.0,0.07504
1236.0,0.07626
1237.0,0.07357
1238.0,0.07602
1239.0,0.075
1240.0,0.07557
1241.0,0.07384
1242.0,0.07489
1243.0,0.07437
1244.0,0.07445
1245.0,0.07503
1246.0,0.07466
1247.0,0.07395
1248.0,0.07319
1249.0,0.07406
1250.0,0.07317
1251.0,0.07134
1252.0,0.07248
1253.0,0.06986
1254.0,0.06771
1255.0,0.07189
1256.0,0.06617
1257.0,0.06507
1258.0,0.06919
1259.0,0.06118
1260.0,0.06216
1261.0,0.05235
1262.0,0.04771
1263.0,0.04766
1264.0,0.03766
1265.0,0.04745
1266.0,0.04179
1267.0,0.0452
1268.0,0.03871
1269.0,0.008341
1270.0,0.04396
1271.0,0.05316
1272.0,0.05378
1273.0,0.05251
1274.0,0.05369
1275.0,0.05554
1276.0,0.05738
1277.0,0.05959
1278.0,0.06316
1279.0,0.06278
1280.0,0.06191
1281.0,0.06036
1282.0,0.06023
1283.0,0.06442
1284.0,0.06564
1285.0,0.06646
1286.0,0.06845
1287.0,0.06533
1288.0,0.06609
1289.0,0.05992
1290.0,0.0656
1291.0,0.0673
1292.0,0.05639
1293.0,0.06449
1294.0,0.06378
1295.0,0.06078
1296.0,0.05427
1297.0,0.04876
1298.0,0.05832
1299.0,0.06506
1300.0,0.0457
1301.0,0.04826
1302.0,0.05863
1303.0,0.04566
1304.0,0.03146
1305.0,0.05683
1306.0,0.05544
1307.0,0.03467
1308.0,0.047
1309.0,0.05322
1310.0,0.03301
1311.0,0.04315
1312.0,0.04148
1313.0,0.03784
1314.0,0.03078
1315.0,0.02914
1316.0,0.04096
1317.0,0.03733
1318.0,0.04412
1319.0,0.02559
1320.0,0.02597
1321.0,0.03375
1322.0,0.03224
1323.0,0.01769
1324.0,0.02558
1325.0,0.0386
1326.0,0.02908
1327.0,0.02635
1328.0,0.0201
1329.0,0.01017
1330.0,0.01624
1331.0,0.005566
1332.0,0.006486
1333.0,0.009841
1334.0,0.01171
1335.0,0.01659
1336.0,0.01034
1337.0,0.009047
1338.0,0.009394
1339.0,0.009652
1340.0,0.01067
1341.0,0.0073
1342.0,0.008199
1343.0,0.002565
1344.0,0.001758
1345.0,0.002089
1346.0,0.0003244
1347.0,0.0002539
1348.0,5.117e-06
1349.0,2.005e-05
1350.0,2.179e-05
1351.0,3.71e-06
1352.0,9.499e-07
1353.0,4.831e-08
1354.0,1.662e-07
1355.0,1.337e-09
1356.0,2.34e-08
1357.0,3.555e-08
1358.0,1.569e-09
1359.0,1.977e-10
1360.0,7.145e-10
1361.0,7.992e-13
1362.0,2.186e-15
1363.0,9.607e-10
1364.0,3.966e-10
1365.0,7.633e-16
1366.0,4.164e-09
1367.0,1.7e-09
1368.0,5.894e-18
1369.0,1.462e-10
1370.0,7.198e-11
1371.0,4.08e-12
1372.0,9.218e-10
1373.0,1.857e-08
1374.0,8.614e-08
1375.0,1.562e-07
1376.0,1.403e-07
1377.0,6.407e-08
1378.0,6.26e-07
1379.0,2.679e-08
1380.0,3.843e-08
1381.0,1.001e-09
1382.0,8.079e-10
1383.0,1.208e-11
1384.0,1.584e-10
1385.0,7.573e-10
1386.0,7.123e-10
1387.0,8.615e-08
1388.0,1.695e-09
1389.0,2.91e-07
1390.0,2.497e-07
1391.0,1.661e-07
1392.0,1.077e-08
1393.0,5.707e-08
1394.0,2.938e-08
1395.0,2.153e-10
1396.0,1.041e-12
1397.0,2.246e-08
1398.0,6.639e-07
1399.0,4.2e-07
1400.0,4.45e-13
1401.0,1.846e-12
1402.0,1.233e-06
1403.0,1.486e-06
1404.0,4.464e-07
1405.0,1.02e-10
1406.0,1.146e-06
1407.0,1.055e-07
