interpolation:linear
wavelength,value
280.0,1.229e-22
280.5,4.0840000000000004e-21
281.0,2.1990000000000003e-20
281.5,4.239e-19
282.0,5.501e-19
282.5,1.346e-18
283.0,4.238e-18
283.5,6.902e-18
284.0,1.14e-16
284.5,3.339e-16
285.0,5.756e-16
285.5,2.817e-15
286.0,1.133e-14
286.5,5.091e-14
287.0,1.462e-13
287.5,5.646e-13
288.0,2.006e-12
288.5,5.884e-12
289.0,1.54e-11
289.5,4.599e-11
290.0,1.271e-10
290.5,2.586e-10
291.0,5.546e-10
291.5,1.592e-09
292.0,3.209e-09
292.5,4.488e-09
293.0,9.59e-09
293.5,2.324e-08
294.0,3.628e-08
294.5,4.849e-08
295.0,8.195e-08
295.5,1.37e-07
296.0,2.623e-07
296.5,3.638e-07
297.0,4.884e-07
297.5,1.294e-06
298.0,2.014e-06
298.5,2.005e-06
299.0,4.369e-06
299.5,7.093e-06
300.0,7.688e-06
300.5,1.095e-05
301.0,1.925e-05
301.5,2.975e-05
302.0,2.5e-05
302.5,4.921e-05
303.0,8.946e-05
303.5,0.0001145
304.0,0.0001108
304.5,0.0001792
305.0,0.0003057
305.5,0.000378
306.0,0.0003769
306.5,0.0004937
307.0,0.0008211
307.5,0.001221
308.0,0.001313
308.5,0.00164
309.0,0.001907
309.5,0.002537
310.0,0.00273
310.5,0.004574
311.0,0.006071
311.5,0.006004
312.0,0.006772
312.5,0.008921
313.0,0.01009
313.5,0.009421
314.0,0.01295
314.5,0.01302
315.0,0.0175
315.5,0.01377
316.0,0.01331
316.5,0.02086
317.0,0.02585
317.5,0.02624
318.0,0.02172
318.5,0.03022
319.0,0.03798
319.5,0.02822
320.0,0.03363
320.5,0.04726
321.0,0.04671
321.5,0.04525
322.0,0.04312
322.5,0.03773
323.0,0.04041
323.5,0.05376
324.0,0.06352
324.5,0.06252
325.0,0.0515
325.5,0.07026
326.0,0.08842
326.5,0.09214
327.0,0.0905
327.5,0.08581
328.0,0.07247
328.5,0.08121
329.0,0.1023
329.5,0.1179
330.0,0.1175
330.5,0.09046
331.0,0.09096
331.5,0.0952
332.0,0.1073
332.5,0.1082
333.0,0.1067
333.5,0.09364
334.0,0.09547
334.5,0.1141
335.0,0.1095
335.5,0.1288
336.0,0.08916
336.5,0.1027
337.0,0.08303
337.5,0.1027
338.0,0.1033
338.5,0.1205
339.0,0.1195
339.5,0.1149
340.0,0.1338
340.5,0.121
341.0,0.1189
341.5,0.1096
342.0,0.1312
342.5,0.1229
343.0,0.1349
343.5,0.1269
344.0,0.09312
344.5,0.09461
345.0,0.1258
345.5,0.1287
346.0,0.1096
346.5,0.1242
347.0,0.1332
347.5,0.1077
348.0,0.1231
348.5,0.1233
349.0,0.1145
349.5,0.1134
350.0,0.1404
350.5,0.1482
351.0,0.1323
351.5,0.1283
352.0,0.1381
352.5,0.108
353.0,0.1363
353.5,0.1459
354.0,0.1516
354.5,0.1538
355.0,0.1533
355.5,0.1387
356.0,0.1452
356.5,0.1241
357.0,0.1025
357.5,0.1256
358.0,0.09961
358.5,0.08518
359.0,0.1192
359.5,0.1518
360.0,0.161
360.5,0.1288
361.0,0.1176
361.5,0.1356
362.0,0.1174
362.5,0.1627
363.0,0.1463
363.5,0.1349
364.0,0.1651
364.5,0.1412
365.0,0.1439
365.5,0.1808
366.0,0.1918
366.5,0.1804
367.0,0.1758
367.5,0.1826
368.0,0.1599
368.5,0.1615
369.0,0.1745
369.5,0.1862
370.0,0.1986
370.5,0.1543
371.0,0.165
371.5,0.2066
372.0,0.1372
372.5,0.1647
373.0,0.1677
373.5,0.1092
374.0,0.1588
374.5,0.1316
375.0,0.128
375.5,0.1913
376.0,0.1587
376.5,0.1645
377.0,0.1743
377.5,0.2041
378.0,0.2214
378.5,0.2094
379.0,0.1729
379.5,0.158
380.0,0.1643
380.5,0.1992
381.0,0.1999
381.5,0.1587
382.0,0.1411
382.5,0.1204
383.0,0.1116
383.5,0.1076
384.0,0.1188
384.5,0.1749
385.0,0.1736
385.5,0.1618
386.0,0.1387
386.5,0.1824
387.0,0.1517
387.5,0.1705
388.0,0.1575
388.5,0.1559
389.0,0.1684
389.5,0.2041
390.0,0.2051
390.5,0.1889
391.0,0.2225
391.5,0.2271
392.0,0.1914
392.5,0.1716
393.0,0.09557
393.5,0.06954
394.0,0.1416
394.5,0.1802
395.0,0.2201
395.5,0.2237
396.0,0.1941
396.5,0.1136
397.0,0.08534
397.5,0.1737
398.0,0.2433
398.5,0.2517
399.0,0.273
399.5,0.2723
400.0,0.2828
401.0,0.2844
402.0,0.3007
403.0,0.2862
404.0,0.2822
405.0,0.2826
406.0,0.2786
407.0,0.2746
408.0,0.2855
409.0,0.306
410.0,0.2679
411.0,0.2907
412.0,0.3129
413.0,0.3054
414.0,0.3097
415.0,0.3111
416.0,0.3172
417.0,0.3097
418.0,0.3044
419.0,0.3089
420.0,0.3079
421.0,0.3226
422.0,0.307
423.0,0.3003
424.0,0.3179
425.0,0.3178
426.0,0.3103
427.0,0.3049
428.0,0.2973
429.0,0.2823
430.0,0.2474
431.0,0.2453
432.0,0.3173
433.0,0.3195
434.0,0.2969
435.0,0.3103
436.0,0.3503
437.0,0.3464
438.0,0.3158
439.0,0.3263
440.0,0.3371
441.0,0.3499
442.0,0.3756
443.0,0.3657
444.0,0.3744
445.0,0.3664
446.0,0.3506
447.0,0.3799
448.0,0.3855
449.0,0.3881
450.0,0.3995
451.0,0.4146
452.0,0.4
453.0,0.3767
454.0,0.3939
455.0,0.3965
456.0,0.4063
457.0,0.4132
458.0,0.3987
459.0,0.3969
460.0,0.3978
461.0,0.4073
462.0,0.4111
463.0,0.4084
464.0,0.4026
465.0,0.3985
466.0,0.4031
467.0,0.3956
468.0,0.4004
469.0,0.4025
470.0,0.3896
471.0,0.3894
472.0,0.4104
473.0,0.4051
474.0,0.4052
475.0,0.408
476.0,0.3949
477.0,0.3954
478.0,0.4067
479.0,0.4047
480.0,0.406
481.0,0.4143
482.0,0.4174
483.0,0.4133
484.0,0.4055
485.0,0.387
486.0,0.339
487.0,0.3559
488.0,0.3905
489.0,0.3915
490.0,0.4124
491.0,0.4057
492.0,0.3833
493.0,0.3961
494.0,0.4002
495.0,0.4039
496.0,0.4064
497.0,0.4126
498.0,0.3932
499.0,0.3978
500.0,0.3857
501.0,0.378
502.0,0.3715
503.0,0.3854
504.0,0.3723
505.0,0.3883
506.0,0.4008
507.0,0.3816
508.0,0.3708
509.0,0.382
510.0,0.3807
511.0,0.3917
512.0,0.3963
513.0,0.3752
514.0,0.3729
515.0,0.3692
516.0,0.3682
517.0,0.3274
518.0,0.3441
519.0,0.3608
520.0,0.3738
521.0,0.3773
522.0,0.3773
523.0,0.3702
524.0,0.3829
525.0,0.3864
526.0,0.3688
527.0,0.3468
528.0,0.3662
529.0,0.3855
530.0,0.3796
531.0,0.3849
532.0,0.3715
533.0,0.3606
534.0,0.3716
535.0,0.3801
536.0,0.384
537.0,0.3692
538.0,0.376
539.0,0.3728
540.0,0.3572
541.0,0.3585
542.0,0.3692
543.0,0.3661
544.0,0.3716
545.0,0.3706
546.0,0.3714
547.0,0.372
548.0,0.3679
549.0,0.3693
550.0,0.3737
551.0,0.3694
552.0,0.3719
553.0,0.3651
554.0,0.3738
555.0,0.3743
556.0,0.3692
557.0,0.3574
558.0,0.3542
559.0,0.347
560.0,0.3509
561.0,0.3549
562.0,0.3517
563.0,0.3605
564.0,0.3501
565.0,0.3465
566.0,0.3409
567.0,0.3467
568.0,0.3418
569.0,0.3303
570.0,0.3306
571.0,0.3294
572.0,0.335
573.0,0.3382
574.0,0.3366
575.0,0.3295
576.0,0.3265
577.0,0.3304
578.0,0.3265
579.0,0.3294
580.0,0.3382
581.0,0.3419
582.0,0.3501
583.0,0.3524
584.0,0.3564
585.0,0.3482
586.0,0.3412
587.0,0.3476
588.0,0.3349
589.0,0.2885
590.0,0.3023
591.0,0.3249
592.0,0.3179
593.0,0.3264
594.0,0.3226
595.0,0.3114
596.0,0.3305
597.0,0.3251
598.0,0.3264
599.0,0.3275
600.0,0.3297
601.0,0.3283
602.0,0.3263
603.0,0.3324
604.0,0.3383
605.0,0.337
606.0,0.3363
607.0,0.3405
608.0,0.3375
609.0,0.3388
610.0,0.3371
611.0,0.3394
612.0,0.3389
613.0,0.335
614.0,0.3311
615.0,0.339
616.0,0.3284
617.0,0.3281
618.0,0.3411
619.0,0.3379
620.0,0.34
621.0,0.3398
622.0,0.3354
623.0,0.3299
624.0,0.3247
625.0,0.3239
626.0,0.3285
627.0,0.3305
628.0,0.2892
629.0,0.3158
630.0,0.3078
631.0,0.3215
632.0,0.3189
633.0,0.3314
634.0,0.3304
635.0,0.3367
636.0,0.3335
637.0,0.34
638.0,0.3448
639.0,0.3418
640.0,0.3395
641.0,0.34
642.0,0.3393
643.0,0.344
644.0,0.3438
645.0,0.3438
646.0,0.3335
647.0,0.3239
648.0,0.3247
649.0,0.3175
650.0,0.3262
651.0,0.3416
652.0,0.3205
653.0,0.3375
654.0,0.3343
655.0,0.3183
656.0,0.2846
657.0,0.2927
658.0,0.3304
659.0,0.3336
660.0,0.3356
661.0,0.3383
662.0,0.3377
663.0,0.3315
664.0,0.3374
665.0,0.3392
666.0,0.3401
667.0,0.3406
668.0,0.3416
669.0,0.3474
670.0,0.3462
671.0,0.3466
672.0,0.3439
673.0,0.3494
674.0,0.3485
675.0,0.3457
676.0,0.3484
677.0,0.3452
678.0,0.3465
679.0,0.3411
680.0,0.344
681.0,0.3419
682.0,0.3415
683.0,0.3409
684.0,0.3392
685.0,0.3425
686.0,0.34
687.0,0.1477
688.0,0.205
689.0,0.2069
690.0,0.2293
691.0,0.2562
692.0,0.2783
693.0,0.2754
694.0,0.2754
695.0,0.2972
696.0,0.2983
697.0,0.3283
698.0,0.323
699.0,0.307
700.0,0.3029
701.0,0.2964
702.0,0.3017
703.0,0.3033
704.0,0.3179
705.0,0.3183
706.0,0.3198
707.0,0.3209
708.0,0.3214
709.0,0.3253
710.0,0.3234
711.0,0.3242
712.0,0.3249
713.0,0.32
714.0,0.3218
715.0,0.3082
716.0,0.3075
717.0,0.2375
718.0,0.2161
719.0,0.1957
720.0,0.2019
721.0,0.239
722.0,0.2913
723.0,0.2625
724.0,0.2256
725.0,0.2188
726.0,0.2297
727.0,0.2403
728.0,0.2169
729.0,0.235
730.0,0.2459
731.0,0.2337
732.0,0.2608
733.0,0.2856
734.0,0.2958
735.0,0.2878
736.0,0.2869
737.0,0.2882
738.0,0.3008
739.0,0.2951
740.0,0.3052
741.0,0.3036
742.0,0.3054
743.0,0.3136
744.0,0.3137
745.0,0.3146
746.0,0.316
747.0,0.3169
748.0,0.3164
749.0,0.3129
750.0,0.3127
751.0,0.3096
752.0,0.3111
753.0,0.3128
754.0,0.3135
755.0,0.3116
756.0,0.3116
757.0,0.3121
758.0,0.308
759.0,0.2963
760.0,0.008881
761.0,0.002987
762.0,0.07713
763.0,0.0194
764.0,0.04298
765.0,0.0769
766.0,0.1217
767.0,0.1892
768.0,0.2532
769.0,0.2671
770.0,0.2863
771.0,0.2932
772.0,0.2953
773.0,0.2978
774.0,0.2966
775.0,0.2946
776.0,0.2983
777.0,0.2944
778.0,0.2926
779.0,0.2929
780.0,0.2913
781.0,0.2917
782.0,0.2936
783.0,0.2886
784.0,0.2902
785.0,0.2877
786.0,0.2905
787.0,0.2813
788.0,0.276
789.0,0.2758
790.0,0.2632
791.0,0.2708
792.0,0.2697
793.0,0.2648
794.0,0.2747
795.0,0.2778
796.0,0.2617
797.0,0.2613
798.0,0.2766
799.0,0.2734
800.0,0.2669
801.0,0.2642
802.0,0.2633
803.0,0.2603
804.0,0.2616
805.0,0.263
806.0,0.2743
807.0,0.2702
808.0,0.2706
809.0,0.2626
810.0,0.2587
811.0,0.2556
812.0,0.2426
813.0,0.2358
814.0,0.1943
815.0,0.1942
816.0,0.1789
817.0,0.1827
818.0,0.1729
819.0,0.2044
820.0,0.1887
821.0,0.2378
822.0,0.2282
823.0,0.1302
824.0,0.2149
825.0,0.2339
826.0,0.2192
827.0,0.2372
828.0,0.1845
829.0,0.2191
830.0,0.2151
831.0,0.2158
832.0,0.2062
833.0,0.2268
834.0,0.2139
835.0,0.2474
836.0,0.228
837.0,0.2482
838.0,0.236
839.0,0.2448
840.0,0.2513
841.0,0.2458
842.0,0.2493
843.0,0.2522
844.0,0.2471
845.0,0.2576
846.0,0.257
847.0,0.2531
848.0,0.2502
849.0,0.2431
850.0,0.233
851.0,0.2453
852.0,0.2443
853.0,0.2362
854.0,0.203
855.0,0.2244
856.0,0.2447
857.0,0.2511
858.0,0.2488
859.0,0.2497
860.0,0.2505
861.0,0.249
862.0,0.2532
863.0,0.2591
864.0,0.2463
865.0,0.2442
866.0,0.2196
867.0,0.2292
868.0,0.2495
869.0,0.2444
870.0,0.2514
871.0,0.2479
872.0,0.2472
873.0,0.2467
874.0,0.2438
875.0,0.2388
876.0,0.2412
877.0,0.2437
878.0,0.2461
879.0,0.2424
880.0,0.2372
881.0,0.233
882.0,0.2377
883.0,0.2392
884.0,0.2378
885.0,0.2396
886.0,0.2259
887.0,0.2302
888.0,0.2326
889.0,0.2372
890.0,0.2327
891.0,0.2336
892.0,0.2235
893.0,0.2136
894.0,0.1992
895.0,0.1799
896.0,0.1675
897.0,0.1348
898.0,0.1512
899.0,0.1053
900.0,0.1608
901.0,0.1103
902.0,0.1422
903.0,0.1388
904.0,0.1973
905.0,0.1878
906.0,0.1731
907.0,0.1255
908.0,0.1313
909.0,0.1475
910.0,0.1198
911.0,0.1364
912.0,0.1426
913.0,0.1211
914.0,0.1224
915.0,0.1313
916.0,0.11
917.0,0.1499
918.0,0.1118
919.0,0.1565
920.0,0.1669
921.0,0.1727
922.0,0.1465
923.0,0.1679
924.0,0.1475
925.0,0.1449
926.0,0.1449
927.0,0.1699
928.0,0.1024
929.0,0.08787
930.0,0.06022
931.0,0.05679
932.0,0.03297
933.0,0.02378
934.0,0.007659
935.0,0.02658
936.0,0.01273
937.0,0.01284
938.0,0.01705
939.0,0.05477
940.0,0.07231
941.0,0.0468
942.0,0.05785
943.0,0.03244
944.0,0.03998
945.0,0.05
946.0,0.01829
947.0,0.0482
948.0,0.03479
949.0,0.0723
950.0,0.01093
951.0,0.07183
952.0,0.02971
953.0,0.0442
954.0,0.06108
955.0,0.04551
956.0,0.05241
957.0,0.02942
958.0,0.08137
959.0,0.05526
960.0,0.06203
961.0,0.07713
962.0,0.07277
963.0,0.09069
964.0,0.08122
965.0,0.0898
966.0,0.08938
967.0,0.08782
968.0,0.1464
969.0,0.148
970.0,0.1338
971.0,0.166
972.0,0.1557
973.0,0.1227
974.0,0.1158
975.0,0.1239
976.0,0.1103
977.0,0.1412
978.0,0.1276
979.0,0.137
980.0,0.1273
981.0,0.1653
982.0,0.1532
983.0,0.1446
984.0,0.1766
985.0,0.1523
986.0,0.1837
987.0,0.176
988.0,0.176
989.0,0.1858
990.0,0.1748
991.0,0.1859
992.0,0.1874
993.0,0.179
994.0,0.1879
995.0,0.1884
996.0,0.1868
997.0,0.1874
998.0,0.1863
999.0,0.1858
1000.0,0.1834
1001.0,0.1869
1002.0,0.1771
1003.0,0.1833
1004.0,0.1776
1005.0,0.1728
1006.0,0.1787
1007.0,0.1829
1008.0,0.1811
1009.0,0.1792
1010.0,0.178
1011.0,0.1821
1012.0,0.1797
1013.0,0.182
1014.0,0.1807
1015.0,0.1793
1016.0,0.1784
1017.0,0.1787
1018.0,0.1786
1019.0,0.173
1020.0,0.1774
1021.0,0.1775
1022.0,0.1754
1023.0,0.1772
1024.0,0.1731
1025.0,0.1777
1026.0,0.1764
1027.0,0.1761
1028.0,0.1756
1029.0,0.1733
1030.0,0.1752
1031.0,0.1742
1032.0,0.1739
1033.0,0.1713
1034.0,0.1713
1035.0,0.1719
1036.0,0.1726
1037.0,0.1698
1038.0,0.1705
1039.0,0.1703
1040.0,0.1696
1041.0,0.1701
1042.0,0.1689
1043.0,0.1682
1044.0,0.1687
1045.0,0.1663
1046.0,0.1644
1047.0,0.1657
1048.0,0.1665
1049.0,0.1657
1050.0,0.1648
1051.0,0.1644
1052.0,0.1635
1053.0,0.162
1054.0,0.1621
1055.0,0.1619
1056.0,0.161
1057.0,0.1603
1058.0,0.1561
1059.0,0.1559
1060.0,0.1556
1061.0,0.1552
1062.0,0.1557
1063.0,0.154
1064.0,0.1559
1065.0,0.1541
1066.0,0.1516
1067.0,0.1533
1068.0,0.1495
1069.0,0.1453
1070.0,0.1498
1071.0,0.1537
1072.0,0.1507
1073.0,0.1488
1074.0,0.1544
1075.0,0.1424
1076.0,0.1541
1077.0,0.149
1078.0,0.1449
1079.0,0.1524
1080.0,0.1467
1081.0,0.1397
1082.0,0.1457
1083.0,0.1472
1084.0,0.1386
1085.0,0.1473
1086.0,0.1289
1087.0,0.1366
1088.0,0.1464
1089.0,0.1374
1090.0,0.1325
1091.0,0.1448
1092.0,0.1451
1093.0,0.1123
1094.0,0.1314
1095.0,0.1172
1096.0,0.1094
1097.0,0.1419
1098.0,0.106
1099.0,0.112
1100.0,0.1003
1101.0,0.1031
1102.0,0.0955
1103.0,0.09252
1104.0,0.09299
1105.0,0.1085
1106.0,0.06725
1107.0,0.1002
1108.0,0.07559
1109.0,0.07703
1110.0,0.09703
1111.0,0.05337
1112.0,0.07699
1113.0,0.03771
1114.0,0.04242
1115.0,0.03415
1116.0,0.022
1117.0,0.004287
1118.0,0.02494
1119.0,0.008563
1120.0,0.01017
1121.0,0.01523
1122.0,0.003855
1123.0,0.009317
1124.0,0.007811
1125.0,0.01113
1126.0,0.001671
1127.0,0.01278
1128.0,0.004892
1129.0,0.005395
1130.0,0.00325
1131.0,0.03338
1132.0,0.02422
1133.0,0.01068
1134.0,0.001253
1135.0,0.0005634
1136.0,0.007507
1137.0,0.03089
1138.0,0.02071
1139.0,0.04293
1140.0,0.03113
1141.0,0.01986
1142.0,0.02483
1143.0,0.04082
1144.0,0.009418
1145.0,0.01022
1146.0,0.01098
1147.0,0.001823
1148.0,0.03433
1149.0,0.02421
1150.0,0.0113
1151.0,0.02058
1152.0,0.02915
1153.0,0.03163
1154.0,0.01044
1155.0,0.04467
1156.0,0.03762
1157.0,0.04816
1158.0,0.0474
1159.0,0.05361
1160.0,0.04413
1161.0,0.06185
1162.0,0.06125
1163.0,0.09758
1164.0,0.07849
1165.0,0.06882
1166.0,0.07285
1167.0,0.08182
1168.0,0.08167
1169.0,0.08485
1170.0,0.09696
1171.0,0.0945
1172.0,0.09955
1173.0,0.09687
1174.0,0.05909
1175.0,0.09775
1176.0,0.1142
1177.0,0.1049
1178.0,0.07094
1179.0,0.1151
1180.0,0.0955
1181.0,0.09875
1182.0,0.059
1183.0,0.09865
1184.0,0.08926
1185.0,0.08322
1186.0,0.1085
1187.0,0.1001
1188.0,0.05816
1189.0,0.09286
1190.0,0.1069
1191.0,0.09487
1192.0,0.109
1193.0,0.1022
1194.0,0.1069
1195.0,0.09658
1196.0,0.09067
1197.0,0.1086
1198.0,0.09762
1199.0,0.07409
1200.0,0.1009
1201.0,0.09391
1202.0,0.09647
1203.0,0.09359
1204.0,0.07836
1205.0,0.1011
1206.0,0.116
1207.0,0.09477
1208.0,0.09604
1209.0,0.09837
1210.0,0.1046
1211.0,0.09656
1212.0,0.09004
1213.0,0.1095
1214.0,0.09407
1215.0,0.0919
1216.0,0.1099
1217.0,0.1053
1218.0,0.1088
1219.0,0.1063
1220.0,0.1091
1221.0,0.1114
1222.0,0.1077
1223.0,0.1059
1224.0,0.1032
1225.0,0.1102
1226.0,0.1125
1227.0,0.0988
1228.0,0.1141
1229.0,0.1125
1230.0,0.1097
1231.0,0.116
1232.0,0.1152
1233.0,0.1069
1234.0,0.1168
1235.0,0.1154
1236.0,0.1168
1237.0,0.1135
1238.0,0.1164
1239.0,0.1149
1240.0,0.1156
1241.0,0.1139
1242.0,0.1146
1243.0,0.1138
1244.0,0.1142
1245.0,0.1149
1246.0,0.1143
1247.0,0.1135
1248.0,0.1129
1249.0,0.1137
1250.0,0.1127
1251.0,0.1105
1252.0,0.1115
1253.0,0.1089
1254.0,0.1066
1255.0,0.1109
1256.0,0.1048
1257.0,0.1036
1258.0,0.1079
1259.0,0.09942
1260.0,0.1005
1261.0,0.08935
1262.0,0.08387
1263.0,0.08389
1264.0,0.07137
1265.0,0.08345
1266.0,0.07665
1267.0,0.08053
1268.0,0.0724
1269.0,0.0256
1270.0,0.07924
1271.0,0.08979
1272.0,0.09062
1273.0,0.08904
1274.0,0.09018
1275.0,0.09247
1276.0,0.09448
1277.0,0.09659
1278.0,0.1006
1279.0,0.09962
1280.0,0.09848
1281.0,0.09503
1282.0,0.09331
1283.0,0.1001
1284.0,0.1022
1285.0,0.1032
1286.0,0.1055
1287.0,0.1021
1288.0,0.1027
1289.0,0.09594
1290.0,0.102
1291.0,0.104
1292.0,0.09155
1293.0,0.1006
1294.0,0.09965
1295.0,0.09695
1296.0,0.08895
1297.0,0.08167
1298.0,0.09353
1299.0,0.1012
1300.0,0.07666
1301.0,0.08043
1302.0,0.09344
1303.0,0.07644
1304.0,0.0574
1305.0,0.09111
1306.0,0.09005
1307.0,0.06148
1308.0,0.07794
1309.0,0.08781
1310.0,0.05947
1311.0,0.07282
1312.0,0.06993
1313.0,0.06636
1314.0,0.05647
1315.0,0.05414
1316.0,0.07012
1317.0,0.06517
1318.0,0.07432
1319.0,0.04884
1320.0,0.04894
1321.0,0.06041
1322.0,0.0592
1323.0,0.03736
1324.0,0.04834
1325.0,0.06786
1326.0,0.05378
1327.0,0.04993
1328.0,0.04043
1329.0,0.02447
1330.0,0.03513
1331.0,0.01549
1332.0,0.0174
1333.0,0.02527
1334.0,0.02553
1335.0,0.03641
1336.0,0.02527
1337.0,0.02175
1338.0,0.02305
1339.0,0.02362
1340.0,0.02472
1341.0,0.01996
1342.0,0.02158
1343.0,0.009198
1344.0,0.006025
1345.0,0.00811
1346.0,0.001981
1347.0,0.001722
1348.0,2.981e-05
1349.0,0.0001384
1350.0,0.0001706
1351.0,1.333e-05
1352.0,1.297e-06
1353.0,5.409e-08
1354.0,2.236e-07
1355.0,1.377e-09
1356.0,2.626e-08
1357.0,3.973e-08
1358.0,1.62e-09
1359.0,2.019e-10
1360.0,7.321e-10
1361.0,8.158e-13
1362.0,2.232e-15
1363.0,9.813e-10
1364.0,4.054e-10
1365.0,7.792e-16
1366.0,4.255e-09
1367.0,1.743e-09
1368.0,6.016e-18
1369.0,1.494e-10
1370.0,7.349e-11
1371.0,4.165e-12
1372.0,9.466e-10
1373.0,1.956e-08
1374.0,9.78e-08
1375.0,1.696e-07
1376.0,1.972e-07
1377.0,8.62e-08
1378.0,8.32e-07
1379.0,3.724e-08
1380.0,4.414e-08
1381.0,1.125e-09
1382.0,8.28e-10
1383.0,1.236e-11
1384.0,1.617e-10
1385.0,7.905e-10
1386.0,7.28e-10
1387.0,9.053e-08
1388.0,1.905e-09
1389.0,3.521e-07
1390.0,2.91e-07
1391.0,1.95e-07
1392.0,1.292e-08
1393.0,7.531e-08
1394.0,3.065e-08
1395.0,2.223e-10
1396.0,1.062e-12
1397.0,2.73e-08
1398.0,8.431e-07
1399.0,5.517e-07
1400.0,4.541e-13
1401.0,1.884e-12
1402.0,4.605e-06
1403.0,4.085e-06
1404.0,1.033e-06
1405.0,1.045e-10
1406.0,1.83e-06
1407.0,3.209e-07
1408.0,1.602e-06
1409.0,3.868e-07
1410.0,4.6e-07
1411.0,3.851e-06
1412.0,7.722e-06
1413.0,0.0002014
1414.0,3.994e-07
1415.0,1.575e-07
1416.0,0.0009071
1417.0,0.0001461
1418.0,9.781e-05
1419.0,1.319e-05
1420.0,5.861e-05
1421.0,9.836e-05
