interpolation:linear
wavelength,value
280.0,2.0210000000000002e-20
280.5,5.896e-19
281.0,3.039e-18
281.5,4.141e-19
282.0,1.634e-18
282.5,4.526e-18
283.0,1.494e-17
283.5,2.458e-17
284.0,3.906e-16
284.5,1.108e-15
285.0,1.956e-15
285.5,1.1e-14
286.0,4.564e-14
286.5,2.107e-13
287.0,6.09e-13
287.5,2.341e-12
288.0,6.731e-12
288.5,2.576e-11
289.0,8.327e-11
289.5,2.998e-10
290.0,9.46e-10
290.5,2.135e-09
291.0,5.136e-09
291.5,1.688e-08
292.0,4.603e-08
292.5,7.3e-08
293.0,1.834e-07
293.5,5.581e-07
294.0,1.033e-06
294.5,1.372e-06
295.0,2.737e-06
295.5,7.046e-06
296.0,1.371e-05
296.5,1.932e-05
297.0,2.631e-05
297.5,7.114e-05
298.0,0.0001129
298.5,0.0001141
299.0,0.0002529
299.5,0.0004229
300.0,0.0004675
300.5,0.0006808
301.0,0.001244
301.5,0.002004
302.0,0.001727
302.5,0.003299
303.0,0.005748
303.5,0.007094
304.0,0.006569
304.5,0.009431
305.0,0.01354
305.5,0.01499
306.0,0.01432
306.5,0.01745
307.0,0.02466
307.5,0.03132
308.0,0.03283
308.5,0.03791
309.0,0.03678
309.5,0.04079
310.0,0.04039
310.5,0.06494
311.0,0.08052
311.5,0.07732
312.0,0.07528
312.5,0.08998
313.0,0.09668
313.5,0.0947
314.0,0.1159
314.5,0.09983
315.0,0.1305
315.5,0.1107
316.0,0.09445
316.5,0.1329
317.0,0.1651
317.5,0.1728
318.0,0.1329
318.5,0.1607
319.0,0.1881
319.5,0.1567
320.0,0.1899
320.5,0.2313
321.0,0.2009
321.5,0.1921
322.0,0.2103
322.5,0.1827
323.0,0.1788
323.5,0.2162
324.0,0.2516
324.5,0.2573
325.0,0.2243
325.5,0.2844
326.0,0.3463
326.5,0.3435
327.0,0.3436
327.5,0.3333
328.0,0.3005
328.5,0.3111
329.0,0.368
329.5,0.4162
330.0,0.4211
330.5,0.3401
331.0,0.3476
331.5,0.3509
332.0,0.3753
332.5,0.3695
333.0,0.3694
333.5,0.3368
334.0,0.3455
334.5,0.3953
335.0,0.3696
335.5,0.4317
336.0,0.2987
336.5,0.3506
337.0,0.2887
337.5,0.3595
338.0,0.3486
338.5,0.4022
339.0,0.398
339.5,0.3829
340.0,0.4501
340.5,0.4054
341.0,0.3955
341.5,0.363
342.0,0.4338
342.5,0.4058
343.0,0.4464
343.5,0.4204
344.0,0.3106
344.5,0.3138
345.0,0.4151
345.5,0.4238
346.0,0.3601
346.5,0.4077
347.0,0.4378
347.5,0.354
348.0,0.4034
348.5,0.4032
349.0,0.374
349.5,0.3703
350.0,0.458
350.5,0.4831
351.0,0.4316
351.5,0.4196
352.0,0.4506
352.5,0.3516
353.0,0.4428
353.5,0.4735
354.0,0.4915
354.5,0.4985
355.0,0.4969
355.5,0.4488
356.0,0.4696
356.5,0.401
357.0,0.3314
357.5,0.4057
358.0,0.3215
358.5,0.2747
359.0,0.3843
359.5,0.4898
360.0,0.5192
360.5,0.415
361.0,0.3783
361.5,0.4356
362.0,0.3767
362.5,0.5213
363.0,0.4682
363.5,0.4312
364.0,0.5274
364.5,0.4508
365.0,0.4592
365.5,0.5763
366.0,0.6106
366.5,0.5737
367.0,0.5587
367.5,0.5798
368.0,0.5074
368.5,0.5121
369.0,0.553
369.5,0.5895
370.0,0.6284
370.5,0.4877
371.0,0.5212
371.5,0.6521
372.0,0.4328
372.5,0.519
373.0,0.5279
373.5,0.3435
374.0,0.4992
374.5,0.4134
375.0,0.4019
375.5,0.6
376.0,0.4974
376.5,0.5155
377.0,0.5459
377.5,0.6386
378.0,0.6923
378.5,0.6544
379.0,0.5401
379.5,0.4934
380.0,0.513
380.5,0.6214
381.0,0.6227
381.5,0.4937
382.0,0.4384
382.5,0.3738
383.0,0.346
383.5,0.3333
384.0,0.3677
384.5,0.5409
385.0,0.5364
385.5,0.4996
386.0,0.4279
386.5,0.5621
387.0,0.4671
387.5,0.5247
388.0,0.4844
388.5,0.4789
389.0,0.517
389.5,0.6262
390.0,0.6285
390.5,0.5784
391.0,0.6809
391.5,0.6945
392.0,0.585
392.5,0.5238
393.0,0.2915
393.5,0.2119
394.0,0.4312
394.5,0.5482
395.0,0.669
395.5,0.6796
396.0,0.5893
396.5,0.3445
397.0,0.2585
397.5,0.5258
398.0,0.7364
398.5,0.7612
399.0,0.8243
399.5,0.8216
400.0,0.8533
401.0,0.8665
402.0,0.9143
403.0,0.8685
404.0,0.8552
405.0,0.8552
406.0,0.8413
407.0,0.8277
408.0,0.8601
409.0,0.9207
410.0,0.8045
411.0,0.8714
412.0,0.9359
413.0,0.9128
414.0,0.924
415.0,0.9264
416.0,0.9426
417.0,0.9195
418.0,0.9025
419.0,0.9144
420.0,0.9104
421.0,0.9524
422.0,0.9053
423.0,0.8843
424.0,0.9354
425.0,0.9337
426.0,0.9094
427.0,0.8924
428.0,0.8693
429.0,0.8233
430.0,0.7205
431.0,0.7143
432.0,0.9221
433.0,0.9272
434.0,0.861
435.0,0.8993
436.0,1.013
437.0,0.9994
438.0,0.91
439.0,0.9414
440.0,0.9713
441.0,1.006
442.0,1.079
443.0,1.051
444.0,1.074
445.0,1.051
446.0,1.003
447.0,1.084
448.0,1.101
449.0,1.105
450.0,1.136
451.0,1.178
452.0,1.135
453.0,1.067
454.0,1.114
455.0,1.121
456.0,1.148
457.0,1.167
458.0,1.127
459.0,1.121
460.0,1.124
461.0,1.15
462.0,1.159
463.0,1.151
464.0,1.132
465.0,1.117
466.0,1.128
467.0,1.107
468.0,1.12
469.0,1.126
470.0,1.09
471.0,1.089
472.0,1.147
473.0,1.133
474.0,1.134
475.0,1.144
476.0,1.11
477.0,1.114
478.0,1.145
479.0,1.137
480.0,1.139
481.0,1.16
482.0,1.166
483.0,1.152
484.0,1.128
485.0,1.075
486.0,0.9392
487.0,0.9841
488.0,1.08
489.0,1.083
490.0,1.139
491.0,1.12
492.0,1.057
493.0,1.092
494.0,1.103
495.0,1.112
496.0,1.119
497.0,1.136
498.0,1.083
499.0,1.097
500.0,1.065
501.0,1.046
502.0,1.032
503.0,1.074
504.0,1.048
505.0,1.084
506.0,1.12
507.0,1.065
508.0,1.032
509.0,1.06
510.0,1.055
511.0,1.083
512.0,1.094
513.0,1.036
514.0,1.028
515.0,1.018
516.0,1.016
517.0,0.9025
518.0,0.9488
519.0,0.9952
520.0,1.031
521.0,1.041
522.0,1.042
523.0,1.024
524.0,1.06
525.0,1.073
526.0,1.025
527.0,0.9663
528.0,1.022
529.0,1.078
530.0,1.062
531.0,1.078
532.0,1.041
533.0,1.011
534.0,1.04
535.0,1.063
536.0,1.073
537.0,1.03
538.0,1.048
539.0,1.039
540.0,0.9967
541.0,1.004
542.0,1.035
543.0,1.024
544.0,1.042
545.0,1.039
546.0,1.044
547.0,1.043
548.0,1.03
549.0,1.033
550.0,1.046
551.0,1.033
552.0,1.04
553.0,1.021
554.0,1.046
555.0,1.048
556.0,1.035
557.0,1.002
558.0,0.9951
559.0,0.9767
560.0,0.989
561.0,1.002
562.0,0.9949
563.0,1.022
564.0,0.9946
565.0,0.9862
566.0,0.9719
567.0,0.9905
568.0,0.9822
569.0,0.9599
570.0,0.9595
571.0,0.9534
572.0,0.977
573.0,0.9876
574.0,0.9846
575.0,0.9665
576.0,0.9576
577.0,0.9679
578.0,0.9531
579.0,0.9564
580.0,0.9739
581.0,0.9783
582.0,0.9963
583.0,0.9984
584.0,1.007
585.0,0.982
586.0,0.9618
587.0,0.9832
588.0,0.9607
589.0,0.8537
590.0,0.8925
591.0,0.9429
592.0,0.9319
593.0,0.9446
594.0,0.9385
595.0,0.9162
596.0,0.9503
597.0,0.9405
598.0,0.9375
599.0,0.938
600.0,0.9388
601.0,0.9308
602.0,0.9244
603.0,0.9395
604.0,0.955
605.0,0.9499
606.0,0.9458
607.0,0.9549
608.0,0.9442
609.0,0.9456
610.0,0.9386
611.0,0.9434
612.0,0.9405
613.0,0.9286
614.0,0.9157
615.0,0.9355
616.0,0.9046
617.0,0.9026
618.0,0.9373
619.0,0.9277
620.0,0.9336
621.0,0.9346
622.0,0.9239
623.0,0.91
624.0,0.8942
625.0,0.8922
626.0,0.9054
627.0,0.916
628.0,0.8609
629.0,0.8962
630.0,0.8757
631.0,0.8937
632.0,0.8827
633.0,0.9087
634.0,0.8993
635.0,0.913
636.0,0.9006
637.0,0.9151
638.0,0.9235
639.0,0.9129
640.0,0.9038
641.0,0.9031
642.0,0.8988
643.0,0.9108
644.0,0.9077
645.0,0.9093
646.0,0.8887
647.0,0.8796
648.0,0.8806
649.0,0.8636
650.0,0.8659
651.0,0.9031
652.0,0.8676
653.0,0.891
654.0,0.8809
655.0,0.8492
656.0,0.7519
657.0,0.772
658.0,0.8646
659.0,0.8706
660.0,0.8741
661.0,0.8802
662.0,0.8823
663.0,0.8647
664.0,0.8744
665.0,0.8747
666.0,0.8752
667.0,0.8742
668.0,0.8744
669.0,0.8878
670.0,0.8839
671.0,0.8836
672.0,0.8759
673.0,0.8891
674.0,0.8856
675.0,0.8775
676.0,0.8834
677.0,0.8746
678.0,0.877
679.0,0.8628
680.0,0.8697
681.0,0.8639
682.0,0.8628
683.0,0.8611
684.0,0.8569
685.0,0.8641
686.0,0.859
687.0,0.5937
688.0,0.6846
689.0,0.6867
690.0,0.7165
691.0,0.7499
692.0,0.7739
693.0,0.7679
694.0,0.7615
695.0,0.7902
696.0,0.7913
697.0,0.8362
698.0,0.8232
699.0,0.8059
700.0,0.7962
701.0,0.7888
702.0,0.7934
703.0,0.7949
704.0,0.8189
705.0,0.8201
706.0,0.8189
707.0,0.8193
708.0,0.8211
709.0,0.8214
710.0,0.8218
711.0,0.8204
712.0,0.8175
713.0,0.8097
714.0,0.8126
715.0,0.7879
716.0,0.7885
717.0,0.6925
718.0,0.6374
719.0,0.5847
720.0,0.6132
721.0,0.6716
722.0,0.7627
723.0,0.713
724.0,0.6457
725.0,0.6366
726.0,0.6658
727.0,0.6733
728.0,0.6354
729.0,0.6561
730.0,0.6942
731.0,0.6651
732.0,0.7083
733.0,0.7466
734.0,0.7635
735.0,0.7481
736.0,0.7471
737.0,0.7502
738.0,0.7597
739.0,0.7448
740.0,0.7635
741.0,0.7556
742.0,0.7559
743.0,0.775
744.0,0.7726
745.0,0.7725
746.0,0.7761
747.0,0.7777
748.0,0.7761
749.0,0.7672
750.0,0.7667
751.0,0.759
752.0,0.7622
753.0,0.766
754.0,0.7678
755.0,0.7634
756.0,0.7631
757.0,0.7642
758.0,0.7547
759.0,0.7406
760.0,0.1452
761.0,0.08062
762.0,0.4017
763.0,0.2136
764.0,0.3098
765.0,0.4019
766.0,0.4827
767.0,0.5985
768.0,0.6822
769.0,0.6947
770.0,0.7162
771.0,0.7211
772.0,0.7223
773.0,0.7273
774.0,0.7237
775.0,0.7182
776.0,0.7269
777.0,0.7173
778.0,0.7129
779.0,0.7135
780.0,0.7095
781.0,0.7102
782.0,0.7146
783.0,0.7022
784.0,0.7055
785.0,0.7004
786.0,0.7082
787.0,0.6967
788.0,0.6884
789.0,0.6883
790.0,0.6713
791.0,0.6758
792.0,0.6707
793.0,0.66
794.0,0.6699
795.0,0.6816
796.0,0.6624
797.0,0.6633
798.0,0.6809
799.0,0.6769
800.0,0.6656
801.0,0.6639
802.0,0.662
803.0,0.6571
804.0,0.6578
805.0,0.6553
806.0,0.6728
807.0,0.6649
808.0,0.6654
809.0,0.6536
810.0,0.6487
811.0,0.6504
812.0,0.6329
813.0,0.6205
814.0,0.5499
815.0,0.5464
816.0,0.5091
817.0,0.5179
818.0,0.4995
819.0,0.5549
820.0,0.524
821.0,0.6077
822.0,0.5911
823.0,0.4096
824.0,0.5756
825.0,0.5973
826.0,0.5761
827.0,0.6064
828.0,0.5185
829.0,0.5723
830.0,0.5653
831.0,0.5671
832.0,0.5505
833.0,0.5835
834.0,0.5643
835.0,0.6169
836.0,0.5923
837.0,0.6185
838.0,0.6001
839.0,0.6089
840.0,0.6221
841.0,0.6136
842.0,0.6144
843.0,0.6135
844.0,0.6052
845.0,0.6253
846.0,0.6224
847.0,0.6107
848.0,0.6071
849.0,0.5899
850.0,0.5651
851.0,0.5986
852.0,0.5943
853.0,0.5718
854.0,0.4939
855.0,0.5424
856.0,0.5928
857.0,0.6059
858.0,0.6015
859.0,0.6019
860.0,0.6029
861.0,0.5996
862.0,0.609
863.0,0.6234
864.0,0.5922
865.0,0.587
866.0,0.5278
867.0,0.5508
868.0,0.5994
869.0,0.587
870.0,0.6037
871.0,0.5955
872.0,0.5933
873.0,0.5922
874.0,0.5851
875.0,0.5733
876.0,0.5792
877.0,0.5851
878.0,0.5915
879.0,0.5824
880.0,0.5699
881.0,0.5614
882.0,0.5736
883.0,0.5753
884.0,0.5727
885.0,0.577
886.0,0.5503
887.0,0.5559
888.0,0.5642
889.0,0.5704
890.0,0.5659
891.0,0.5648
892.0,0.549
893.0,0.5323
894.0,0.5147
895.0,0.4878
896.0,0.4601
897.0,0.3971
898.0,0.4322
899.0,0.331
900.0,0.4414
901.0,0.3469
902.0,0.4041
903.0,0.4091
904.0,0.5108
905.0,0.4939
906.0,0.4627
907.0,0.3787
908.0,0.3857
909.0,0.4166
910.0,0.3707
911.0,0.3937
912.0,0.4111
913.0,0.3763
914.0,0.3727
915.0,0.4039
916.0,0.3425
917.0,0.4322
918.0,0.3512
919.0,0.4395
920.0,0.4427
921.0,0.4603
922.0,0.4131
923.0,0.4445
924.0,0.4235
925.0,0.4143
926.0,0.4188
927.0,0.4674
928.0,0.3471
929.0,0.3179
930.0,0.2515
931.0,0.238
932.0,0.173
933.0,0.1414
934.0,0.07925
935.0,0.144
936.0,0.091
937.0,0.09235
938.0,0.1132
939.0,0.2306
940.0,0.2763
941.0,0.21
942.0,0.2423
943.0,0.1604
944.0,0.1679
945.0,0.2163
946.0,0.1115
947.0,0.2176
948.0,0.1601
949.0,0.2899
950.0,0.08269
951.0,0.2852
952.0,0.1551
953.0,0.1991
954.0,0.2428
955.0,0.2012
956.0,0.1946
957.0,0.1555
958.0,0.2739
959.0,0.219
960.0,0.2455
961.0,0.2744
962.0,0.2598
963.0,0.2985
964.0,0.2738
965.0,0.2973
966.0,0.2976
967.0,0.2964
968.0,0.3941
969.0,0.4119
970.0,0.3787
971.0,0.432
972.0,0.4136
973.0,0.3615
974.0,0.3433
975.0,0.3558
976.0,0.3387
977.0,0.3838
978.0,0.3653
979.0,0.3822
980.0,0.3596
981.0,0.4295
982.0,0.4112
983.0,0.3951
984.0,0.4419
985.0,0.4096
986.0,0.4493
987.0,0.4409
988.0,0.4401
989.0,0.4477
990.0,0.4375
991.0,0.4491
992.0,0.4517
993.0,0.442
994.0,0.4515
995.0,0.4509
996.0,0.4489
997.0,0.4496
998.0,0.4475
999.0,0.4458
1000.0,0.4428
1001.0,0.4482
1002.0,0.4362
1003.0,0.4403
1004.0,0.4296
1005.0,0.4138
1006.0,0.43
1007.0,0.4391
1008.0,0.4367
1009.0,0.4345
1010.0,0.4327
1011.0,0.4368
1012.0,0.4331
1013.0,0.4357
1014.0,0.4327
1015.0,0.4298
1016.0,0.4279
1017.0,0.429
1018.0,0.4273
1019.0,0.4184
1020.0,0.4251
1021.0,0.4245
1022.0,0.4213
1023.0,0.4257
1024.0,0.4203
1025.0,0.4254
1026.0,0.4236
1027.0,0.4226
1028.0,0.4217
1029.0,0.4168
1030.0,0.4196
1031.0,0.4179
1032.0,0.4167
1033.0,0.4104
1034.0,0.4104
1035.0,0.4117
1036.0,0.4139
1037.0,0.4071
1038.0,0.4089
1039.0,0.4087
1040.0,0.4071
1041.0,0.4087
1042.0,0.4058
1043.0,0.4046
1044.0,0.406
1045.0,0.4005
1046.0,0.3961
1047.0,0.3996
1048.0,0.4018
1049.0,0.4004
1050.0,0.3986
1051.0,0.398
1052.0,0.3964
1053.0,0.3933
1054.0,0.3942
1055.0,0.3944
1056.0,0.393
1057.0,0.3918
1058.0,0.3822
1059.0,0.3826
1060.0,0.3821
1061.0,0.3816
1062.0,0.3836
1063.0,0.3799
1064.0,0.3844
1065.0,0.3816
1066.0,0.3741
1067.0,0.3789
1068.0,0.3707
1069.0,0.3592
1070.0,0.3714
1071.0,0.3771
1072.0,0.3728
1073.0,0.3674
1074.0,0.3768
1075.0,0.3583
1076.0,0.3765
1077.0,0.37
1078.0,0.3631
1079.0,0.3704
1080.0,0.3643
1081.0,0.3528
1082.0,0.3581
1083.0,0.3592
1084.0,0.352
1085.0,0.3651
1086.0,0.3337
1087.0,0.344
1088.0,0.3588
1089.0,0.3482
1090.0,0.3407
1091.0,0.3578
1092.0,0.3568
1093.0,0.3035
1094.0,0.3266
1095.0,0.3161
1096.0,0.303
1097.0,0.3485
1098.0,0.2984
1099.0,0.3111
1100.0,0.2896
1101.0,0.2931
1102.0,0.2802
1103.0,0.2777
1104.0,0.2781
1105.0,0.304
1106.0,0.2344
1107.0,0.2891
1108.0,0.2461
1109.0,0.2464
1110.0,0.2867
1111.0,0.1959
1112.0,0.2444
1113.0,0.157
1114.0,0.1753
1115.0,0.1454
1116.0,0.1169
1117.0,0.04382
1118.0,0.1269
1119.0,0.06367
1120.0,0.08018
1121.0,0.106
1122.0,0.04519
1123.0,0.07244
1124.0,0.06115
1125.0,0.07961
1126.0,0.02828
1127.0,0.08975
1128.0,0.05431
1129.0,0.05754
1130.0,0.0381
1131.0,0.1688
1132.0,0.1327
1133.0,0.08485
1134.0,0.02213
1135.0,0.008269
1136.0,0.07106
1137.0,0.166
1138.0,0.1171
1139.0,0.1731
1140.0,0.1452
1141.0,0.1113
1142.0,0.1277
1143.0,0.1807
1144.0,0.06387
1145.0,0.08182
1146.0,0.08825
1147.0,0.03162
1148.0,0.1564
1149.0,0.1253
1150.0,0.06863
1151.0,0.1162
1152.0,0.1425
1153.0,0.1384
1154.0,0.07939
1155.0,0.1806
1156.0,0.1629
1157.0,0.1823
1158.0,0.1803
1159.0,0.1941
1160.0,0.1664
1161.0,0.2039
1162.0,0.205
1163.0,0.2747
1164.0,0.2364
1165.0,0.2238
1166.0,0.2217
1167.0,0.2411
1168.0,0.2439
1169.0,0.2494
1170.0,0.2703
1171.0,0.2637
1172.0,0.268
1173.0,0.2698
1174.0,0.1947
1175.0,0.2632
1176.0,0.2882
1177.0,0.2774
1178.0,0.21
1179.0,0.2905
1180.0,0.2605
1181.0,0.2687
1182.0,0.1873
1183.0,0.2643
1184.0,0.2483
1185.0,0.2402
1186.0,0.2829
1187.0,0.2701
1188.0,0.1906
1189.0,0.2517
1190.0,0.2764
1191.0,0.2636
1192.0,0.2802
1193.0,0.2689
1194.0,0.2769
1195.0,0.2626
1196.0,0.2534
1197.0,0.2766
1198.0,0.2536
1199.0,0.2175
1200.0,0.2656
1201.0,0.2567
1202.0,0.2549
1203.0,0.2528
1204.0,0.222
1205.0,0.2603
1206.0,0.2865
1207.0,0.2544
1208.0,0.2499
1209.0,0.2549
1210.0,0.2651
1211.0,0.2532
1212.0,0.2509
1213.0,0.2775
1214.0,0.2565
1215.0,0.2519
1216.0,0.2766
1217.0,0.2696
1218.0,0.2744
1219.0,0.2712
1220.0,0.2746
1221.0,0.2771
1222.0,0.2701
1223.0,0.2678
1224.0,0.2664
1225.0,0.2754
1226.0,0.277
1227.0,0.2565
1228.0,0.2782
1229.0,0.277
1230.0,0.2725
1231.0,0.2796
1232.0,0.2779
1233.0,0.2692
1234.0,0.2792
1235.0,0.2775
1236.0,0.2795
1237.0,0.2759
1238.0,0.2785
1239.0,0.275
1240.0,0.276
1241.0,0.2748
1242.0,0.2741
1243.0,0.2718
1244.0,0.2738
1245.0,0.275
1246.0,0.2734
1247.0,0.2723
1248.0,0.2723
1249.0,0.273
1250.0,0.2714
1251.0,0.2681
1252.0,0.268
1253.0,0.2661
1254.0,0.2636
1255.0,0.2677
1256.0,0.2607
1257.0,0.2594
1258.0,0.2639
1259.0,0.2551
1260.0,0.2563
1261.0,0.2429
1262.0,0.2361
1263.0,0.2366
1264.0,0.2196
1265.0,0.235
1266.0,0.2269
1267.0,0.2304
1268.0,0.2192
1269.0,0.1411
1270.0,0.2297
1271.0,0.242
1272.0,0.2426
1273.0,0.2402
1274.0,0.2408
1275.0,0.2441
1276.0,0.2463
1277.0,0.2477
1278.0,0.2521
1279.0,0.2498
1280.0,0.2466
1281.0,0.2352
1282.0,0.2263
1283.0,0.2438
1284.0,0.2497
1285.0,0.2513
1286.0,0.2545
1287.0,0.2509
1288.0,0.2507
1289.0,0.2434
1290.0,0.2485
1291.0,0.2518
1292.0,0.2377
1293.0,0.2472
1294.0,0.2455
1295.0,0.2446
1296.0,0.2343
1297.0,0.2222
1298.0,0.238
1299.0,0.2474
1300.0,0.2113
1301.0,0.2175
1302.0,0.2372
1303.0,0.2084
1304.0,0.1795
1305.0,0.2324
1306.0,0.2326
1307.0,0.1827
1308.0,0.2084
1309.0,0.231
1310.0,0.1793
1311.0,0.2002
1312.0,0.195
1313.0,0.1916
1314.0,0.1721
1315.0,0.1702
1316.0,0.1973
1317.0,0.1871
1318.0,0.2027
1319.0,0.1604
1320.0,0.155
1321.0,0.1798
1322.0,0.1819
1323.0,0.1385
1324.0,0.1573
1325.0,0.1946
1326.0,0.168
1327.0,0.1605
1328.0,0.1389
1329.0,0.1056
1330.0,0.1368
1331.0,0.08405
1332.0,0.0863
1333.0,0.1198
1334.0,0.1008
1335.0,0.138
1336.0,0.1099
1337.0,0.09752
1338.0,0.1055
1339.0,0.1049
1340.0,0.1016
1341.0,0.1001
1342.0,0.1051
1343.0,0.07282
1344.0,0.04352
1345.0,0.06265
1346.0,0.03218
1347.0,0.0329
1348.0,0.00233
1349.0,0.008164
1350.0,0.00833
1351.0,0.002191
1352.0,0.0006451
1353.0,3.625e-05
1354.0,0.0001175
1355.0,1.155e-06
1356.0,1.784e-05
1357.0,2.711e-05
1358.0,1.357e-06
1359.0,1.986e-07
1360.0,6.549e-07
1361.0,1.005e-09
1362.0,3.161e-12
1363.0,9.266e-07
1364.0,3.876e-07
1365.0,1.319e-12
1366.0,3.894e-06
1367.0,1.556e-06
1368.0,1.436e-14
1369.0,1.462e-07
1370.0,7.68e-08
1371.0,4.719e-09
1372.0,8.565e-07
1373.0,1.564e-05
1374.0,6.793e-05
1375.0,0.0001238
1376.0,0.0001053
1377.0,4.901e-05
1378.0,0.0004653
1379.0,2.066e-05
1380.0,3.102e-05
1381.0,8.462e-07
1382.0,7.864e-07
1383.0,1.25e-08
1384.0,1.695e-07
1385.0,6.938e-07
1386.0,7.321e-07
1387.0,7.342e-05
1388.0,1.457e-06
1389.0,0.0002313
1390.0,0.0001992
1391.0,0.0001349
1392.0,8.993e-06
1393.0,4.6e-05
1394.0,2.652e-05
1395.0,2.116e-07
1396.0,1.389e-09
1397.0,1.884e-05
1398.0,0.0005265
1399.0,0.0003336
1400.0,6.521e-10
1401.0,2.426e-09
1402.0,0.000849
1403.0,0.001085
1404.0,0.0003332
1405.0,1.087e-07
1406.0,0.0008916
1407.0,7.733e-05
1408.0,0.0007259
1409.0,0.0002559
1410.0,0.0001988
1411.0,0.0009512
1412.0,0.001255
1413.0,0.01213
1414.0,0.0001559
1415.0,7.66e-05
1416.0,0.01934
1417.0,0.006014
1418.0,0.006873
1419.0,0.001074
1420.0,0.004211
1421.0,0.004556
1422.0,0.02521
1423.0,0.004924
1424.0,0.009192
1425.0,0.01359
1426.0,0.01529
1427.0,0.02783
1428.0,0.002203
1429.0,0.02093
1430.0,0.03539
1431.0,0.03881
1432.0,0.001738
1433.0,0.02476
1434.0,0.01263
1435.0,0.01276
1436.0,0.02443
1437.0,0.01872
1438.0,0.007957
1439.0,0.03315
1440.0,0.02483
1441.0,0.019
1442.0,0.02107
1443.0,0.02635
1444.0,0.03647
1445.0,0.0286
1446.0,0.01288
