interpolation:linear
wavelength,value
280.0,4.061e-22
280.5,7.182e-21
281.0,3.174e-20
281.5,6.41e-19
282.0,4.014e-18
282.5,1.316e-17
283.0,4.942e-17
283.5,8.541e-17
284.0,1.609e-15
284.5,4.826e-15
285.0,1.409e-14
285.5,9.59e-14
286.0,4.23e-13
286.5,2.188e-12
287.0,6.792e-12
287.5,2.827e-11
288.0,9.873e-11
288.5,3.751e-10
289.0,1.203e-09
289.5,4.29e-09
290.0,1.344e-08
290.5,3.013e-08
291.0,7.19e-08
291.5,2.345e-07
292.0,5.404e-07
292.5,7.959e-07
293.0,1.809e-06
293.5,4.755e-06
294.0,7.886e-06
294.5,1.545e-05
295.0,2.779e-05
295.5,5.926e-05
296.0,0.0001061
296.5,0.0001379
297.0,0.0001756
297.5,0.0004304
298.0,0.0006283
298.5,0.0005958
299.0,0.00124
299.5,0.00186
300.0,0.001935
300.5,0.002645
301.0,0.00436
301.5,0.006387
302.0,0.005235
302.5,0.009604
303.0,0.01592
303.5,0.01906
304.0,0.01732
304.5,0.02373
305.0,0.03199
305.5,0.03407
306.0,0.03206
306.5,0.03812
307.0,0.0512
307.5,0.062
308.0,0.0645
308.5,0.0728
309.0,0.06897
309.5,0.074
310.0,0.07212
310.5,0.1151
311.0,0.1408
311.5,0.1344
312.0,0.1273
312.5,0.1494
313.0,0.1589
313.5,0.157
314.0,0.1879
314.5,0.1573
315.0,0.2045
315.5,0.1758
316.0,0.1465
316.5,0.202
317.0,0.2509
317.5,0.264
318.0,0.2003
318.5,0.236
319.0,0.2728
319.5,0.2318
320.0,0.2818
320.5,0.3343
321.0,0.2838
321.5,0.2707
322.0,0.3035
322.5,0.2632
323.0,0.2535
323.5,0.3016
324.0,0.35
324.5,0.3602
325.0,0.3168
325.5,0.3965
326.0,0.4802
326.5,0.4723
327.0,0.4736
327.5,0.4611
328.0,0.4203
328.5,0.4291
329.0,0.5021
329.5,0.566
330.0,0.5739
330.5,0.4671
331.0,0.4786
331.5,0.48
332.0,0.5089
332.5,0.499
333.0,0.4998
333.5,0.4585
334.0,0.4706
334.5,0.5345
335.0,0.4976
335.5,0.581
336.0,0.4018
336.5,0.4725
337.0,0.3901
337.5,0.4861
338.0,0.4686
338.5,0.5404
339.0,0.5346
339.5,0.514
340.0,0.6042
340.5,0.5438
341.0,0.5304
341.5,0.4867
342.0,0.5814
342.5,0.5437
343.0,0.5979
343.5,0.563
344.0,0.4157
344.5,0.42
345.0,0.5554
345.5,0.5667
346.0,0.4813
346.5,0.5448
347.0,0.5848
347.5,0.4727
348.0,0.5386
348.5,0.5381
349.0,0.499
349.5,0.4939
350.0,0.6106
350.5,0.6439
351.0,0.5752
351.5,0.5591
352.0,0.6001
352.5,0.4681
353.0,0.5893
353.5,0.6299
354.0,0.6537
354.5,0.6629
355.0,0.6606
355.5,0.5965
356.0,0.6239
356.5,0.5327
357.0,0.4401
357.5,0.5387
358.0,0.4268
358.5,0.3647
359.0,0.51
359.5,0.65
360.0,0.6889
360.5,0.5505
361.0,0.5017
361.5,0.5773
362.0,0.4989
362.5,0.6901
363.0,0.6196
363.5,0.5705
364.0,0.6974
364.5,0.596
365.0,0.6069
365.5,0.7615
366.0,0.8065
366.5,0.7575
367.0,0.7376
367.5,0.7653
368.0,0.6696
368.5,0.6755
369.0,0.7293
369.5,0.7771
370.0,0.8283
370.5,0.6427
371.0,0.6865
371.5,0.8588
372.0,0.5699
372.5,0.6832
373.0,0.6948
373.5,0.452
374.0,0.6566
374.5,0.5436
375.0,0.5284
375.5,0.7888
376.0,0.6538
376.5,0.6775
377.0,0.7171
377.5,0.8388
378.0,0.9092
378.5,0.8594
379.0,0.7092
379.5,0.6478
380.0,0.6735
380.5,0.8155
381.0,0.817
381.5,0.6474
382.0,0.5748
382.5,0.4898
383.0,0.4534
383.5,0.4366
384.0,0.4815
384.5,0.7081
385.0,0.7021
385.5,0.6537
386.0,0.5598
386.5,0.7351
387.0,0.6108
387.5,0.686
388.0,0.6332
388.5,0.6258
389.0,0.6755
389.5,0.818
390.0,0.8208
390.5,0.7553
391.0,0.8889
391.5,0.9066
392.0,0.7635
392.5,0.6834
393.0,0.3802
393.5,0.2763
394.0,0.5622
394.5,0.7146
395.0,0.8719
395.5,0.8857
396.0,0.7678
396.5,0.4487
397.0,0.3367
397.5,0.6846
398.0,0.9588
398.5,0.9909
399.0,1.073
399.5,1.069
400.0,1.11
401.0,1.129
402.0,1.191
403.0,1.131
404.0,1.113
405.0,1.113
406.0,1.094
407.0,1.076
408.0,1.118
409.0,1.196
410.0,1.045
411.0,1.131
412.0,1.214
413.0,1.184
414.0,1.198
415.0,1.201
416.0,1.221
417.0,1.191
418.0,1.169
419.0,1.184
420.0,1.178
421.0,1.232
422.0,1.171
423.0,1.144
424.0,1.209
425.0,1.207
426.0,1.175
427.0,1.153
428.0,1.123
429.0,1.063
430.0,0.9297
431.0,0.9216
432.0,1.189
433.0,1.195
434.0,1.11
435.0,1.159
436.0,1.305
437.0,1.287
438.0,1.172
439.0,1.212
440.0,1.25
441.0,1.295
442.0,1.389
443.0,1.353
444.0,1.382
445.0,1.352
446.0,1.289
447.0,1.393
448.0,1.415
449.0,1.42
450.0,1.459
451.0,1.513
452.0,1.457
453.0,1.37
454.0,1.429
455.0,1.438
456.0,1.472
457.0,1.496
458.0,1.446
459.0,1.438
460.0,1.442
461.0,1.475
462.0,1.486
463.0,1.475
464.0,1.45
465.0,1.431
466.0,1.444
467.0,1.418
468.0,1.434
469.0,1.442
470.0,1.396
471.0,1.394
472.0,1.469
473.0,1.45
474.0,1.453
475.0,1.466
476.0,1.423
477.0,1.428
478.0,1.467
479.0,1.457
480.0,1.459
481.0,1.485
482.0,1.492
483.0,1.473
484.0,1.442
485.0,1.374
486.0,1.2
487.0,1.257
488.0,1.379
489.0,1.384
490.0,1.455
491.0,1.43
492.0,1.35
493.0,1.394
494.0,1.408
495.0,1.42
496.0,1.428
497.0,1.451
498.0,1.383
499.0,1.401
500.0,1.36
501.0,1.336
502.0,1.318
503.0,1.373
504.0,1.343
505.0,1.387
506.0,1.432
507.0,1.363
508.0,1.319
509.0,1.355
510.0,1.347
511.0,1.382
512.0,1.397
513.0,1.322
514.0,1.313
515.0,1.3
516.0,1.296
517.0,1.152
518.0,1.211
519.0,1.27
520.0,1.317
521.0,1.329
522.0,1.331
523.0,1.307
524.0,1.354
525.0,1.371
526.0,1.31
527.0,1.235
528.0,1.307
529.0,1.378
530.0,1.359
531.0,1.379
532.0,1.332
533.0,1.293
534.0,1.331
535.0,1.359
536.0,1.371
537.0,1.317
538.0,1.34
539.0,1.329
540.0,1.274
541.0,1.284
542.0,1.324
543.0,1.31
544.0,1.333
545.0,1.329
546.0,1.336
547.0,1.334
548.0,1.318
549.0,1.321
550.0,1.337
551.0,1.321
552.0,1.33
553.0,1.306
554.0,1.338
555.0,1.34
556.0,1.323
557.0,1.282
558.0,1.273
559.0,1.25
560.0,1.266
561.0,1.283
562.0,1.274
563.0,1.31
564.0,1.275
565.0,1.264
566.0,1.246
567.0,1.271
568.0,1.261
569.0,1.235
570.0,1.234
571.0,1.226
572.0,1.258
573.0,1.272
574.0,1.268
575.0,1.245
576.0,1.234
577.0,1.247
578.0,1.227
579.0,1.23
580.0,1.251
581.0,1.256
582.0,1.278
583.0,1.279
584.0,1.289
585.0,1.257
586.0,1.231
587.0,1.26
588.0,1.234
589.0,1.102
590.0,1.152
591.0,1.213
592.0,1.201
593.0,1.215
594.0,1.208
595.0,1.182
596.0,1.221
597.0,1.209
598.0,1.204
599.0,1.204
600.0,1.204
601.0,1.193
602.0,1.184
603.0,1.203
604.0,1.223
605.0,1.216
606.0,1.21
607.0,1.222
608.0,1.207
609.0,1.209
610.0,1.199
611.0,1.205
612.0,1.201
613.0,1.186
614.0,1.169
615.0,1.194
616.0,1.154
617.0,1.151
618.0,1.195
619.0,1.183
620.0,1.19
621.0,1.192
622.0,1.179
623.0,1.161
624.0,1.141
625.0,1.138
626.0,1.155
627.0,1.17
628.0,1.112
629.0,1.149
630.0,1.123
631.0,1.142
632.0,1.127
633.0,1.159
634.0,1.145
635.0,1.162
636.0,1.145
637.0,1.163
638.0,1.173
639.0,1.159
640.0,1.147
641.0,1.146
642.0,1.14
643.0,1.155
644.0,1.15
645.0,1.153
646.0,1.128
647.0,1.12
648.0,1.122
649.0,1.1
650.0,1.099
651.0,1.145
652.0,1.105
653.0,1.13
654.0,1.116
655.0,1.079
656.0,0.9534
657.0,0.9787
658.0,1.095
659.0,1.102
660.0,1.106
661.0,1.113
662.0,1.117
663.0,1.094
664.0,1.105
665.0,1.105
666.0,1.105
667.0,1.103
668.0,1.103
669.0,1.12
670.0,1.115
671.0,1.114
672.0,1.104
673.0,1.121
674.0,1.116
675.0,1.106
676.0,1.113
677.0,1.102
678.0,1.105
679.0,1.086
680.0,1.095
681.0,1.088
682.0,1.086
683.0,1.084
684.0,1.079
685.0,1.088
686.0,1.082
687.0,0.8045
688.0,0.9006
689.0,0.9024
690.0,0.9327
691.0,0.9662
692.0,0.9892
693.0,0.9826
694.0,0.9748
695.0,1.005
696.0,1.006
697.0,1.054
698.0,1.038
699.0,1.022
700.0,1.01
701.0,1.002
702.0,1.006
703.0,1.008
704.0,1.035
705.0,1.037
706.0,1.034
707.0,1.034
708.0,1.036
709.0,1.034
710.0,1.036
711.0,1.033
712.0,1.029
713.0,1.02
714.0,1.023
715.0,0.9943
716.0,0.9958
717.0,0.8954
718.0,0.8285
719.0,0.7627
720.0,0.8009
721.0,0.8639
722.0,0.9665
723.0,0.9113
724.0,0.834
725.0,0.8252
726.0,0.861
727.0,0.8661
728.0,0.8244
729.0,0.8436
730.0,0.892
731.0,0.8574
732.0,0.9049
733.0,0.9461
734.0,0.9655
735.0,0.9471
736.0,0.9457
737.0,0.9498
738.0,0.9569
739.0,0.9383
740.0,0.9603
741.0,0.9494
742.0,0.949
743.0,0.9727
744.0,0.9691
745.0,0.9686
746.0,0.9731
747.0,0.975
748.0,0.9729
749.0,0.9618
750.0,0.9611
751.0,0.9514
752.0,0.9553
753.0,0.9601
754.0,0.9623
755.0,0.9568
756.0,0.9563
757.0,0.9577
758.0,0.946
759.0,0.9311
760.0,0.2508
761.0,0.1562
762.0,0.5666
763.0,0.3421
764.0,0.4608
765.0,0.567
766.0,0.6519
767.0,0.7802
768.0,0.8677
769.0,0.8787
770.0,0.9006
771.0,0.9044
772.0,0.9051
773.0,0.9112
774.0,0.9066
775.0,0.8995
776.0,0.9103
777.0,0.8983
778.0,0.8929
779.0,0.8936
780.0,0.8885
781.0,0.8894
782.0,0.8949
783.0,0.8792
784.0,0.8833
785.0,0.8771
786.0,0.887
787.0,0.8748
788.0,0.8655
789.0,0.8656
790.0,0.8476
791.0,0.8502
792.0,0.8433
793.0,0.8302
794.0,0.8392
795.0,0.8547
796.0,0.8351
797.0,0.8363
798.0,0.8544
799.0,0.8502
800.0,0.8371
801.0,0.8359
802.0,0.8333
803.0,0.8278
804.0,0.8282
805.0,0.8237
806.0,0.8437
807.0,0.8343
808.0,0.8347
809.0,0.8214
810.0,0.8164
811.0,0.8205
812.0,0.8017
813.0,0.7882
814.0,0.7096
815.0,0.7048
816.0,0.6585
817.0,0.6684
818.0,0.6471
819.0,0.7091
820.0,0.6735
821.0,0.7678
822.0,0.7491
823.0,0.541
824.0,0.7338
825.0,0.7555
826.0,0.7327
827.0,0.7669
828.0,0.6677
829.0,0.727
830.0,0.7194
831.0,0.7212
832.0,0.7023
833.0,0.738
834.0,0.7177
835.0,0.7761
836.0,0.7505
837.0,0.7777
838.0,0.7568
839.0,0.7653
840.0,0.7812
841.0,0.7716
842.0,0.771
843.0,0.7683
844.0,0.7589
845.0,0.7827
846.0,0.779
847.0,0.7638
848.0,0.76
849.0,0.7385
850.0,0.7074
851.0,0.75
852.0,0.7442
853.0,0.7155
854.0,0.6185
855.0,0.6785
856.0,0.7419
857.0,0.7578
858.0,0.7525
859.0,0.7527
860.0,0.7538
861.0,0.7498
862.0,0.7614
863.0,0.7794
864.0,0.7404
865.0,0.7338
866.0,0.6598
867.0,0.6885
868.0,0.7492
869.0,0.7336
870.0,0.7545
871.0,0.7442
872.0,0.7416
873.0,0.7401
874.0,0.7312
875.0,0.7165
876.0,0.724
877.0,0.7312
878.0,0.7393
879.0,0.7279
880.0,0.7123
881.0,0.7021
882.0,0.7175
883.0,0.7193
884.0,0.7161
885.0,0.7215
886.0,0.6894
887.0,0.6954
888.0,0.7065
889.0,0.713
890.0,0.7088
891.0,0.7067
892.0,0.6886
893.0,0.67
894.0,0.6519
895.0,0.6231
896.0,0.5905
897.0,0.5172
898.0,0.5585
899.0,0.4372
900.0,0.5659
901.0,0.4577
902.0,0.5208
903.0,0.5311
904.0,0.647
905.0,0.628
906.0,0.5903
907.0,0.4943
908.0,0.5022
909.0,0.5367
910.0,0.4874
911.0,0.5119
912.0,0.5321
913.0,0.4952
914.0,0.4888
915.0,0.5283
916.0,0.4515
917.0,0.5585
918.0,0.4632
919.0,0.5655
920.0,0.5651
921.0,0.5859
922.0,0.5329
923.0,0.5656
924.0,0.5466
925.0,0.535
926.0,0.5408
927.0,0.5967
928.0,0.4627
929.0,0.4291
930.0,0.3483
931.0,0.328
932.0,0.2474
933.0,0.2075
934.0,0.1273
935.0,0.207
936.0,0.1376
937.0,0.1408
938.0,0.1697
939.0,0.3179
940.0,0.3747
941.0,0.2934
942.0,0.3327
943.0,0.2273
944.0,0.232
945.0,0.3007
946.0,0.1645
947.0,0.3049
948.0,0.226
949.0,0.3967
950.0,0.1287
951.0,0.3886
952.0,0.2241
953.0,0.2794
954.0,0.3316
955.0,0.2813
956.0,0.2684
957.0,0.226
958.0,0.3643
959.0,0.3011
960.0,0.337
961.0,0.3694
962.0,0.3508
963.0,0.3966
964.0,0.3661
965.0,0.3942
966.0,0.3962
967.0,0.3952
968.0,0.5038
969.0,0.5278
970.0,0.4886
971.0,0.5479
972.0,0.5263
973.0,0.4696
974.0,0.4476
975.0,0.4599
976.0,0.4427
977.0,0.492
978.0,0.4723
979.0,0.4909
980.0,0.4641
981.0,0.5442
982.0,0.5244
983.0,0.5059
984.0,0.5562
985.0,0.5223
986.0,0.5633
987.0,0.5551
988.0,0.5541
989.0,0.56
990.0,0.5505
991.0,0.5619
992.0,0.5649
993.0,0.5551
994.0,0.5644
995.0,0.5633
996.0,0.5613
997.0,0.5619
998.0,0.5594
999.0,0.5572
1000.0,0.554
1001.0,0.5601
1002.0,0.5475
1003.0,0.5504
1004.0,0.5377
1005.0,0.517
1006.0,0.5377
1007.0,0.5488
1008.0,0.5463
1009.0,0.544
1010.0,0.5419
1011.0,0.5459
1012.0,0.5417
1013.0,0.5445
1014.0,0.5406
1015.0,0.5372
1016.0,0.5348
1017.0,0.5363
1018.0,0.5339
1019.0,0.5236
1020.0,0.5313
1021.0,0.5303
1022.0,0.5266
1023.0,0.5323
1024.0,0.5264
1025.0,0.5315
1026.0,0.5295
1027.0,0.5282
1028.0,0.5272
1029.0,0.5211
1030.0,0.5243
1031.0,0.5223
1032.0,0.5207
1033.0,0.5129
1034.0,0.5129
1035.0,0.5145
1036.0,0.5173
1037.0,0.5088
1038.0,0.5111
1039.0,0.5109
1040.0,0.5088
1041.0,0.5109
1042.0,0.5074
1043.0,0.5058
1044.0,0.5077
1045.0,0.5008
1046.0,0.4954
1047.0,0.4999
1048.0,0.5027
1049.0,0.501
1050.0,0.4988
1051.0,0.4982
1052.0,0.4963
1053.0,0.4924
1054.0,0.4936
1055.0,0.4941
1056.0,0.4925
1057.0,0.4911
1058.0,0.4792
1059.0,0.4799
1060.0,0.4792
1061.0,0.4787
1062.0,0.4814
1063.0,0.4768
1064.0,0.4824
1065.0,0.4793
1066.0,0.4695
1067.0,0.4757
1068.0,0.4656
1069.0,0.451
1070.0,0.4666
1071.0,0.4729
1072.0,0.4682
1073.0,0.4613
1074.0,0.4721
1075.0,0.4514
1076.0,0.4719
1077.0,0.4651
1078.0,0.457
1079.0,0.4639
1080.0,0.458
1081.0,0.4447
1082.0,0.4494
1083.0,0.4501
1084.0,0.4444
1085.0,0.4587
1086.0,0.4234
1087.0,0.4334
1088.0,0.4502
1089.0,0.4391
1090.0,0.4315
1091.0,0.4495
1092.0,0.4477
1093.0,0.3883
1094.0,0.4107
1095.0,0.4032
1096.0,0.3887
1097.0,0.4372
1098.0,0.3835
1099.0,0.3986
1100.0,0.3746
1101.0,0.3781
1102.0,0.3634
1103.0,0.3617
1104.0,0.3619
1105.0,0.3903
1106.0,0.3137
1107.0,0.3737
1108.0,0.3259
1109.0,0.3247
1110.0,0.3715
1111.0,0.2645
1112.0,0.3215
1113.0,0.2178
1114.0,0.2418
1115.0,0.2009
1116.0,0.1687
1117.0,0.07161
1118.0,0.1802
1119.0,0.09691
1120.0,0.1221
1121.0,0.1572
1122.0,0.07274
1123.0,0.1101
1124.0,0.09301
1125.0,0.1196
1126.0,0.04827
1127.0,0.1343
1128.0,0.08742
1129.0,0.09158
1130.0,0.06363
1131.0,0.2382
1132.0,0.19
1133.0,0.1291
1134.0,0.03875
1135.0,0.01428
1136.0,0.1108
1137.0,0.2364
1138.0,0.1686
1139.0,0.2354
1140.0,0.2029
1141.0,0.1602
1142.0,0.1808
1143.0,0.2501
1144.0,0.09579
1145.0,0.1242
1146.0,0.1341
1147.0,0.05422
1148.0,0.2166
1149.0,0.178
1150.0,0.1027
1151.0,0.1674
1152.0,0.2002
1153.0,0.1907
1154.0,0.122
1155.0,0.2458
1156.0,0.2244
1157.0,0.2474
1158.0,0.2445
1159.0,0.2596
1160.0,0.227
1161.0,0.2704
1162.0,0.2723
1163.0,0.3524
1164.0,0.308
1165.0,0.2958
1166.0,0.2902
1167.0,0.3132
1168.0,0.3177
1169.0,0.3232
1170.0,0.3468
1171.0,0.3389
1172.0,0.3425
1173.0,0.346
1174.0,0.2597
1175.0,0.3362
1176.0,0.3637
1177.0,0.3529
1178.0,0.2746
1179.0,0.3663
1180.0,0.3336
1181.0,0.3436
1182.0,0.2475
1183.0,0.3368
1184.0,0.3191
1185.0,0.3109
1186.0,0.3586
1187.0,0.3446
1188.0,0.2525
1189.0,0.3218
1190.0,0.3504
1191.0,0.3379
1192.0,0.3547
1193.0,0.3418
1194.0,0.351
1195.0,0.3356
1196.0,0.3256
1197.0,0.3491
1198.0,0.3224
1199.0,0.2826
1200.0,0.3378
1201.0,0.3286
1202.0,0.3251
1203.0,0.3225
1204.0,0.2868
1205.0,0.3302
1206.0,0.36
1207.0,0.3251
1208.0,0.3175
1209.0,0.3233
1210.0,0.3349
1211.0,0.3222
1212.0,0.3219
1213.0,0.3499
1214.0,0.3278
1215.0,0.3225
1216.0,0.3486
1217.0,0.341
1218.0,0.3459
1219.0,0.3424
1220.0,0.3461
1221.0,0.3486
1222.0,0.3406
1223.0,0.338
1224.0,0.3371
1225.0,0.3464
1226.0,0.3478
1227.0,0.325
1228.0,0.3486
1229.0,0.3478
1230.0,0.3426
1231.0,0.3498
1232.0,0.3478
1233.0,0.3391
1234.0,0.3488
1235.0,0.347
1236.0,0.3492
1237.0,0.3456
1238.0,0.348
1239.0,0.3436
1240.0,0.3447
1241.0,0.3439
1242.0,0.3424
1243.0,0.3396
1244.0,0.3423
1245.0,0.3436
1246.0,0.3415
1247.0,0.3404
1248.0,0.3406
1249.0,0.3413
1250.0,0.3395
1251.0,0.3356
1252.0,0.335
1253.0,0.3335
1254.0,0.331
1255.0,0.335
1256.0,0.3277
1257.0,0.3263
1258.0,0.3307
1259.0,0.322
1260.0,0.3233
1261.0,0.3093
1262.0,0.3022
1263.0,0.3029
1264.0,0.2847
1265.0,0.3009
1266.0,0.2925
1267.0,0.2956
1268.0,0.2837
1269.0,0.1996
1270.0,0.2953
1271.0,0.3077
1272.0,0.3083
1273.0,0.3055
1274.0,0.3058
1275.0,0.3095
1276.0,0.3117
1277.0,0.3128
1278.0,0.3171
1279.0,0.3144
1280.0,0.3103
1281.0,0.2953
1282.0,0.2833
1283.0,0.3054
1284.0,0.3129
1285.0,0.3148
1286.0,0.3183
1287.0,0.3147
1288.0,0.3143
1289.0,0.3069
1290.0,0.3114
1291.0,0.3152
1292.0,0.301
1293.0,0.3103
1294.0,0.3084
1295.0,0.3081
1296.0,0.2973
1297.0,0.2838
1298.0,0.3004
1299.0,0.3102
1300.0,0.2714
1301.0,0.2779
1302.0,0.2993
1303.0,0.2668
1304.0,0.2359
1305.0,0.2938
1306.0,0.2943
1307.0,0.2381
1308.0,0.2659
1309.0,0.2927
1310.0,0.2339
1311.0,0.2568
1312.0,0.2512
1313.0,0.2476
1314.0,0.2247
1315.0,0.2236
1316.0,0.2541
1317.0,0.2417
1318.0,0.2593
1319.0,0.2126
1320.0,0.2038
1321.0,0.234
1322.0,0.2377
1323.0,0.1872
1324.0,0.2085
1325.0,0.2509
1326.0,0.2206
1327.0,0.2118
1328.0,0.1853
1329.0,0.1462
1330.0,0.1867
1331.0,0.1215
1332.0,0.1224
1333.0,0.1679
1334.0,0.1388
1335.0,0.1863
1336.0,0.1517
1337.0,0.1369
1338.0,0.1477
1339.0,0.146
1340.0,0.1398
1341.0,0.1415
1342.0,0.1483
1343.0,0.1115
1344.0,0.06656
1345.0,0.09454
1346.0,0.0548
1347.0,0.05702
1348.0,0.005511
1349.0,0.01753
1350.0,0.01672
1351.0,0.005779
1352.0,0.002217
1353.0,0.0001751
1354.0,0.0004639
1355.0,8.753e-06
1356.0,8.894e-05
1357.0,0.0001333
1358.0,1.002e-05
1359.0,2.329e-06
1360.0,5.708e-06
1361.0,2.444e-08
1362.0,1.249e-10
1363.0,8.827e-06
1364.0,3.971e-06
1365.0,8.737e-11
1366.0,3.258e-05
1367.0,1.257e-05
1368.0,2.727e-12
1369.0,1.56e-06
1370.0,9.928e-07
1371.0,8.01e-08
1372.0,6.979e-06
1373.0,9.036e-05
1374.0,0.0003133
1375.0,0.0005595
1376.0,0.0004119
1377.0,0.000203
1378.0,0.001683
1379.0,8.724e-05
1380.0,0.0001475
1381.0,4.788e-06
1382.0,6.752e-06
1383.0,1.352e-07
1384.0,1.939e-06
1385.0,4.853e-06
1386.0,7.132e-06
1387.0,0.0003745
1388.0,8.105e-06
1389.0,0.0009421
1390.0,0.0008047
1391.0,0.0005816
1392.0,4.343e-05
1393.0,0.000194
1394.0,0.0001554
1395.0,1.701e-06
1396.0,2.963e-08
1397.0,8.738e-05
1398.0,0.001928
1399.0,0.001229
1400.0,1.79e-08
1401.0,4.692e-08
1402.0,0.002363
1403.0,0.003165
1404.0,0.0009962
1405.0,1.035e-06
1406.0,0.002875
1407.0,0.0002462
1408.0,0.002316
1409.0,0.0009622
1410.0,0.0006937
1411.0,0.002753
1412.0,0.003357
1413.0,0.02484
1414.0,0.0005357
1415.0,0.0002866
1416.0,0.03468
1417.0,0.0128
1418.0,0.01462
1419.0,0.002398
1420.0,0.009057
1421.0,0.01002
1422.0,0.04451
1423.0,0.009298
1424.0,0.01687
1425.0,0.02549
1426.0,0.02699
1427.0,0.04503
1428.0,0.005321
1429.0,0.03563
1430.0,0.05595
1431.0,0.06026
1432.0,0.004263
1433.0,0.04007
1434.0,0.02127
1435.0,0.02427
1436.0,0.04196
1437.0,0.03224
1438.0,0.01499
1439.0,0.0549
1440.0,0.04145
1441.0,0.03383
1442.0,0.03694
1443.0,0.043
1444.0,0.05822
1445.0,0.04821
1446.0,0.02252
1447.0,0.03548
1448.0,0.1004
1449.0,0.08988
1450.0,0.02625
1451.0,0.01128
1452.0,0.05662
1453.0,0.07273
1454.0,0.1157
1455.0,0.05799
1456.0,0.07936
1457.0,0.1009
1458.0,0.1138
1459.0,0.1354
1460.0,0.07336
1461.0,0.0788
1462.0,0.1111
