interpolation:linear
wavelength,value
280.0,1.605e-20
280.5,4.729e-19
281.0,2.446e-18
281.5,4.189e-19
282.0,1.576e-18
282.5,4.321e-18
283.0,1.419e-17
283.5,2.331e-17
284.0,3.706e-16
284.5,1.053e-15
285.0,1.92e-15
285.5,1.062e-14
286.0,4.383e-14
286.5,2.009e-13
287.0,5.785e-13
287.5,2.215e-12
288.0,6.115e-12
288.5,2.3e-11
289.0,7.301e-11
289.5,2.576e-10
290.0,7.994e-10
290.5,1.779e-09
291.0,4.207e-09
291.5,1.355e-08
292.0,3.607e-08
292.5,5.723e-08
293.0,1.44e-07
293.5,4.393e-07
294.0,8.142e-07
294.5,1.086e-06
295.0,2.175e-06
295.5,5.714e-06
296.0,1.118e-05
296.5,1.586e-05
297.0,2.171e-05
297.5,5.917e-05
298.0,9.454e-05
298.5,9.615e-05
299.0,0.0002143
299.5,0.000362
300.0,0.0004026
300.5,0.0005902
301.0,0.00109
301.5,0.001777
302.0,0.001542
302.5,0.002956
303.0,0.005174
303.5,0.006404
304.0,0.005942
304.5,0.008574
305.0,0.0124
305.5,0.01378
306.0,0.01318
306.5,0.0161
307.0,0.02289
307.5,0.02922
308.0,0.03066
308.5,0.0355
309.0,0.0345
309.5,0.03839
310.0,0.03807
310.5,0.06127
311.0,0.07607
311.5,0.07309
312.0,0.07137
312.5,0.08547
313.0,0.09193
313.5,0.08997
314.0,0.1103
314.5,0.09536
315.0,0.1247
315.5,0.1057
316.0,0.09036
316.5,0.1274
317.0,0.1582
317.5,0.1655
318.0,0.1275
318.5,0.1546
319.0,0.1812
319.5,0.1506
320.0,0.1826
320.5,0.2229
321.0,0.1941
321.5,0.1857
322.0,0.2027
322.5,0.1761
323.0,0.1727
323.5,0.2092
324.0,0.2435
324.5,0.2488
325.0,0.2167
325.5,0.2752
326.0,0.3353
326.5,0.3329
327.0,0.3328
327.5,0.3227
328.0,0.2906
328.5,0.3013
329.0,0.3569
329.5,0.4037
330.0,0.4084
330.5,0.3296
331.0,0.3368
331.5,0.3401
332.0,0.3641
332.5,0.3587
333.0,0.3585
333.5,0.3267
334.0,0.3351
334.5,0.3837
335.0,0.359
335.5,0.4193
336.0,0.2901
336.5,0.3404
337.0,0.2802
337.5,0.3489
338.0,0.3386
338.5,0.3907
339.0,0.3866
339.5,0.3719
340.0,0.4372
340.5,0.3939
341.0,0.3842
341.5,0.3527
342.0,0.4214
342.5,0.3942
343.0,0.4337
343.5,0.4084
344.0,0.3018
344.5,0.3049
345.0,0.4034
345.5,0.4118
346.0,0.3499
346.5,0.3962
347.0,0.4254
347.5,0.344
348.0,0.3921
348.5,0.3919
349.0,0.3635
349.5,0.36
350.0,0.4452
350.5,0.4696
351.0,0.4196
351.5,0.4079
352.0,0.4381
352.5,0.3418
353.0,0.4305
353.5,0.4603
354.0,0.4779
354.5,0.4847
355.0,0.4831
355.5,0.4364
356.0,0.4566
356.5,0.3899
357.0,0.3222
357.5,0.3945
358.0,0.3126
358.5,0.2672
359.0,0.3737
359.5,0.4763
360.0,0.505
360.5,0.4036
361.0,0.3679
361.5,0.4237
362.0,0.3664
362.5,0.507
363.0,0.4554
363.5,0.4195
364.0,0.5131
364.5,0.4386
365.0,0.4467
365.5,0.5607
366.0,0.5941
366.5,0.5582
367.0,0.5436
367.5,0.5642
368.0,0.4938
368.5,0.4983
369.0,0.5381
369.5,0.5736
370.0,0.6115
370.5,0.4746
371.0,0.5072
371.5,0.6346
372.0,0.4212
372.5,0.5051
373.0,0.5138
373.5,0.3343
374.0,0.4858
374.5,0.4024
375.0,0.3912
375.5,0.5841
376.0,0.4842
376.5,0.5018
377.0,0.5314
377.5,0.6217
378.0,0.674
378.5,0.6371
379.0,0.5258
379.5,0.4803
380.0,0.4995
380.5,0.605
381.0,0.6063
381.5,0.4806
382.0,0.4269
382.5,0.3639
383.0,0.3369
383.5,0.3246
384.0,0.3581
384.5,0.5267
385.0,0.5223
385.5,0.4865
386.0,0.4167
386.5,0.5474
387.0,0.4549
387.5,0.511
388.0,0.4718
388.5,0.4664
389.0,0.5035
389.5,0.6099
390.0,0.6122
390.5,0.5634
391.0,0.6633
391.5,0.6766
392.0,0.5699
392.5,0.5102
393.0,0.2839
393.5,0.2064
394.0,0.42
394.5,0.5341
395.0,0.6518
395.5,0.6621
396.0,0.5741
396.5,0.3356
397.0,0.2519
397.5,0.5123
398.0,0.7175
398.5,0.7417
399.0,0.8032
399.5,0.8006
400.0,0.8314
401.0,0.8442
402.0,0.8908
403.0,0.8463
404.0,0.8333
405.0,0.8333
406.0,0.8198
407.0,0.8066
408.0,0.8382
409.0,0.8972
410.0,0.784
411.0,0.8493
412.0,0.9122
413.0,0.8897
414.0,0.9006
415.0,0.903
416.0,0.9189
417.0,0.8963
418.0,0.8798
419.0,0.8914
420.0,0.8876
421.0,0.9286
422.0,0.8826
423.0,0.8622
424.0,0.912
425.0,0.9104
426.0,0.8868
427.0,0.8702
428.0,0.8477
429.0,0.8029
430.0,0.7027
431.0,0.6966
432.0,0.8993
433.0,0.9043
434.0,0.8398
435.0,0.8771
436.0,0.9882
437.0,0.9748
438.0,0.8877
439.0,0.9183
440.0,0.9475
441.0,0.9818
442.0,1.053
443.0,1.026
444.0,1.048
445.0,1.025
446.0,0.9784
447.0,1.058
448.0,1.074
449.0,1.078
450.0,1.108
451.0,1.15
452.0,1.107
453.0,1.042
454.0,1.087
455.0,1.094
456.0,1.12
457.0,1.139
458.0,1.1
459.0,1.094
460.0,1.097
461.0,1.122
462.0,1.131
463.0,1.123
464.0,1.105
465.0,1.09
466.0,1.101
467.0,1.081
468.0,1.093
469.0,1.099
470.0,1.064
471.0,1.063
472.0,1.12
473.0,1.105
474.0,1.107
475.0,1.117
476.0,1.084
477.0,1.087
478.0,1.117
479.0,1.11
480.0,1.112
481.0,1.133
482.0,1.138
483.0,1.124
484.0,1.101
485.0,1.049
486.0,0.9169
487.0,0.9607
488.0,1.054
489.0,1.057
490.0,1.112
491.0,1.093
492.0,1.032
493.0,1.066
494.0,1.077
495.0,1.086
496.0,1.092
497.0,1.109
498.0,1.058
499.0,1.071
500.0,1.04
501.0,1.021
502.0,1.007
503.0,1.048
504.0,1.023
505.0,1.059
506.0,1.093
507.0,1.04
508.0,1.007
509.0,1.035
510.0,1.03
511.0,1.057
512.0,1.068
513.0,1.011
514.0,1.004
515.0,0.9941
516.0,0.9917
517.0,0.8811
518.0,0.9264
519.0,0.9717
520.0,1.007
521.0,1.017
522.0,1.018
523.0,0.9994
524.0,1.035
525.0,1.048
526.0,1.001
527.0,0.9433
528.0,0.9978
529.0,1.052
530.0,1.037
531.0,1.052
532.0,1.016
533.0,0.9864
534.0,1.016
535.0,1.038
536.0,1.047
537.0,1.006
538.0,1.023
539.0,1.015
540.0,0.9729
541.0,0.9797
542.0,1.01
543.0,0.9996
544.0,1.017
545.0,1.014
546.0,1.019
547.0,1.018
548.0,1.006
549.0,1.009
550.0,1.021
551.0,1.008
552.0,1.015
553.0,0.9971
554.0,1.021
555.0,1.023
556.0,1.01
557.0,0.9785
558.0,0.9713
559.0,0.9533
560.0,0.9653
561.0,0.9779
562.0,0.971
563.0,0.9977
564.0,0.9707
565.0,0.9624
566.0,0.9484
567.0,0.9665
568.0,0.9584
569.0,0.9364
570.0,0.936
571.0,0.9302
572.0,0.9531
573.0,0.9634
574.0,0.9604
575.0,0.9426
576.0,0.934
577.0,0.9441
578.0,0.9297
579.0,0.933
580.0,0.9502
581.0,0.9547
582.0,0.9723
583.0,0.9744
584.0,0.9826
585.0,0.9585
586.0,0.9388
587.0,0.9596
588.0,0.9373
589.0,0.8325
590.0,0.8704
591.0,0.9198
592.0,0.9089
593.0,0.9215
594.0,0.9155
595.0,0.8936
596.0,0.9272
597.0,0.9175
598.0,0.9147
599.0,0.9152
600.0,0.9162
601.0,0.9084
602.0,0.9022
603.0,0.9169
604.0,0.932
605.0,0.9271
606.0,0.9232
607.0,0.9321
608.0,0.9216
609.0,0.9231
610.0,0.9163
611.0,0.921
612.0,0.9182
613.0,0.9066
614.0,0.8941
615.0,0.9134
616.0,0.8832
617.0,0.8813
618.0,0.9152
619.0,0.9059
620.0,0.9116
621.0,0.9126
622.0,0.9021
623.0,0.8885
624.0,0.8731
625.0,0.8711
626.0,0.8841
627.0,0.8943
628.0,0.8394
629.0,0.8746
630.0,0.8546
631.0,0.8725
632.0,0.8618
633.0,0.8874
634.0,0.8783
635.0,0.8917
636.0,0.8797
637.0,0.8939
638.0,0.9021
639.0,0.8919
640.0,0.883
641.0,0.8823
642.0,0.8782
643.0,0.8899
644.0,0.8869
645.0,0.8884
646.0,0.8682
647.0,0.859
648.0,0.86
649.0,0.8434
650.0,0.846
651.0,0.8824
652.0,0.8473
653.0,0.8706
654.0,0.8608
655.0,0.8295
656.0,0.7346
657.0,0.7543
658.0,0.8449
659.0,0.8508
660.0,0.8542
661.0,0.8602
662.0,0.8622
663.0,0.8451
664.0,0.8547
665.0,0.855
666.0,0.8556
667.0,0.8546
668.0,0.8548
669.0,0.8679
670.0,0.8641
671.0,0.8638
672.0,0.8564
673.0,0.8692
674.0,0.8659
675.0,0.858
676.0,0.8638
677.0,0.8552
678.0,0.8576
679.0,0.8437
680.0,0.8504
681.0,0.8448
682.0,0.8437
683.0,0.842
684.0,0.8379
685.0,0.8449
686.0,0.84
687.0,0.5759
688.0,0.6663
689.0,0.6684
690.0,0.6981
691.0,0.7315
692.0,0.7555
693.0,0.7496
694.0,0.7433
695.0,0.7719
696.0,0.7729
697.0,0.8175
698.0,0.8048
699.0,0.7874
700.0,0.7779
701.0,0.7706
702.0,0.7753
703.0,0.7767
704.0,0.8004
705.0,0.8016
706.0,0.8005
707.0,0.8009
708.0,0.8027
709.0,0.8032
710.0,0.8035
711.0,0.8022
712.0,0.7995
713.0,0.7917
714.0,0.7946
715.0,0.7702
716.0,0.7708
717.0,0.6752
718.0,0.6212
719.0,0.5697
720.0,0.5973
721.0,0.6553
722.0,0.7453
723.0,0.6961
724.0,0.6298
725.0,0.6206
726.0,0.6492
727.0,0.6569
728.0,0.6193
729.0,0.6401
730.0,0.6774
731.0,0.6488
732.0,0.6915
733.0,0.7296
734.0,0.7462
735.0,0.7311
736.0,0.7302
737.0,0.7331
738.0,0.7428
739.0,0.7282
740.0,0.7467
741.0,0.739
742.0,0.7394
743.0,0.7581
744.0,0.7558
745.0,0.7558
746.0,0.7592
747.0,0.7608
748.0,0.7592
749.0,0.7506
750.0,0.7501
751.0,0.7425
752.0,0.7457
753.0,0.7494
754.0,0.7511
755.0,0.7469
756.0,0.7465
757.0,0.7476
758.0,0.7383
759.0,0.7243
760.0,0.1372
761.0,0.07524
762.0,0.388
763.0,0.2035
764.0,0.2975
765.0,0.3881
766.0,0.4684
767.0,0.583
768.0,0.6664
769.0,0.679
770.0,0.7005
771.0,0.7054
772.0,0.7067
773.0,0.7115
774.0,0.7081
775.0,0.7026
776.0,0.7112
777.0,0.7018
778.0,0.6975
779.0,0.6981
780.0,0.6942
781.0,0.6949
782.0,0.6992
783.0,0.687
784.0,0.6903
785.0,0.6852
786.0,0.6928
787.0,0.6814
788.0,0.6733
789.0,0.6731
790.0,0.6562
791.0,0.6609
792.0,0.6559
793.0,0.6454
794.0,0.6554
795.0,0.6668
796.0,0.6476
797.0,0.6485
798.0,0.6661
799.0,0.6621
800.0,0.6509
801.0,0.6492
802.0,0.6473
803.0,0.6425
804.0,0.6433
805.0,0.6409
806.0,0.6582
807.0,0.6504
808.0,0.6509
809.0,0.6392
810.0,0.6343
811.0,0.6358
812.0,0.6185
813.0,0.6062
814.0,0.5364
815.0,0.533
816.0,0.4965
817.0,0.5052
818.0,0.487
819.0,0.5418
820.0,0.5113
821.0,0.594
822.0,0.5776
823.0,0.3986
824.0,0.5621
825.0,0.5838
826.0,0.5628
827.0,0.5927
828.0,0.5058
829.0,0.5591
830.0,0.5521
831.0,0.554
832.0,0.5376
833.0,0.5703
834.0,0.5512
835.0,0.6032
836.0,0.5788
837.0,0.6048
838.0,0.5866
839.0,0.5956
840.0,0.6084
841.0,0.6001
842.0,0.601
843.0,0.6002
844.0,0.5921
845.0,0.6118
846.0,0.609
847.0,0.5976
848.0,0.594
849.0,0.5772
850.0,0.5529
851.0,0.5856
852.0,0.5814
853.0,0.5595
854.0,0.4832
855.0,0.5307
856.0,0.58
857.0,0.5929
858.0,0.5885
859.0,0.589
860.0,0.59
861.0,0.5868
862.0,0.596
863.0,0.6101
864.0,0.5796
865.0,0.5745
866.0,0.5165
867.0,0.539
868.0,0.5866
869.0,0.5744
870.0,0.5908
871.0,0.5827
872.0,0.5807
873.0,0.5795
874.0,0.5726
875.0,0.561
876.0,0.5668
877.0,0.5726
878.0,0.5788
879.0,0.5699
880.0,0.5577
881.0,0.5494
882.0,0.5613
883.0,0.563
884.0,0.5604
885.0,0.5647
886.0,0.5384
887.0,0.5439
888.0,0.5521
889.0,0.5581
890.0,0.5537
891.0,0.5526
892.0,0.537
893.0,0.5206
894.0,0.503
895.0,0.4762
896.0,0.449
897.0,0.3869
898.0,0.4215
899.0,0.3221
900.0,0.4309
901.0,0.3376
902.0,0.3942
903.0,0.3987
904.0,0.4992
905.0,0.4824
906.0,0.4518
907.0,0.3689
908.0,0.3759
909.0,0.4064
910.0,0.3609
911.0,0.3837
912.0,0.4009
913.0,0.3663
914.0,0.3629
915.0,0.3934
916.0,0.3333
917.0,0.4215
918.0,0.3418
919.0,0.4288
920.0,0.4324
921.0,0.4495
922.0,0.4029
923.0,0.4342
924.0,0.413
925.0,0.4041
926.0,0.4085
927.0,0.4564
928.0,0.3374
929.0,0.3086
930.0,0.2435
931.0,0.2305
932.0,0.1669
933.0,0.1361
934.0,0.07553
935.0,0.1389
936.0,0.08729
937.0,0.08853
938.0,0.1087
939.0,0.2234
940.0,0.2681
941.0,0.2031
942.0,0.2347
943.0,0.1549
944.0,0.1627
945.0,0.2093
946.0,0.1072
947.0,0.2104
948.0,0.1547
949.0,0.281
950.0,0.07912
951.0,0.2766
952.0,0.1495
953.0,0.1925
954.0,0.2354
955.0,0.1946
956.0,0.1886
957.0,0.1498
958.0,0.2663
959.0,0.2123
960.0,0.2379
961.0,0.2665
962.0,0.2522
963.0,0.2903
964.0,0.2661
965.0,0.2892
966.0,0.2893
967.0,0.2881
968.0,0.3847
969.0,0.402
970.0,0.3694
971.0,0.4222
972.0,0.404
973.0,0.3524
974.0,0.3346
975.0,0.347
976.0,0.3299
977.0,0.3747
978.0,0.3562
979.0,0.3729
980.0,0.3507
981.0,0.4197
982.0,0.4015
983.0,0.3856
984.0,0.4321
985.0,0.4
986.0,0.4396
987.0,0.4312
988.0,0.4304
989.0,0.4381
990.0,0.4278
991.0,0.4394
992.0,0.442
993.0,0.4323
994.0,0.4418
995.0,0.4412
996.0,0.4393
997.0,0.4399
998.0,0.4379
999.0,0.4363
1000.0,0.4332
1001.0,0.4386
1002.0,0.4267
1003.0,0.4309
1004.0,0.4204
1005.0,0.4049
1006.0,0.4208
1007.0,0.4297
1008.0,0.4274
1009.0,0.4251
1010.0,0.4233
1011.0,0.4275
1012.0,0.4238
1013.0,0.4264
1014.0,0.4234
1015.0,0.4206
1016.0,0.4188
1017.0,0.4198
1018.0,0.4182
1019.0,0.4094
1020.0,0.416
1021.0,0.4154
1022.0,0.4122
1023.0,0.4166
1024.0,0.4112
1025.0,0.4163
1026.0,0.4145
1027.0,0.4136
1028.0,0.4127
1029.0,0.4078
1030.0,0.4106
1031.0,0.409
1032.0,0.4078
1033.0,0.4017
1034.0,0.4017
1035.0,0.4029
1036.0,0.405
1037.0,0.3984
1038.0,0.4002
1039.0,0.4
1040.0,0.3983
1041.0,0.3999
1042.0,0.3971
1043.0,0.3959
1044.0,0.3973
1045.0,0.3919
1046.0,0.3876
1047.0,0.3911
1048.0,0.3932
1049.0,0.3918
1050.0,0.39
1051.0,0.3895
1052.0,0.3879
1053.0,0.3848
1054.0,0.3856
1055.0,0.3859
1056.0,0.3845
1057.0,0.3833
1058.0,0.3739
1059.0,0.3743
1060.0,0.3738
1061.0,0.3733
1062.0,0.3753
1063.0,0.3716
1064.0,0.376
1065.0,0.3733
1066.0,0.3659
1067.0,0.3706
1068.0,0.3625
1069.0,0.3513
1070.0,0.3633
1071.0,0.3689
1072.0,0.3647
1073.0,0.3594
1074.0,0.3686
1075.0,0.3503
1076.0,0.3683
1077.0,0.3618
1078.0,0.355
1079.0,0.3624
1080.0,0.3563
1081.0,0.3449
1082.0,0.3503
1083.0,0.3514
1084.0,0.3441
1085.0,0.3571
1086.0,0.326
1087.0,0.3364
1088.0,0.351
1089.0,0.3404
1090.0,0.333
1091.0,0.3499
1092.0,0.349
1093.0,0.2963
1094.0,0.3194
1095.0,0.3087
1096.0,0.2957
1097.0,0.3409
1098.0,0.2911
1099.0,0.3036
1100.0,0.2824
1101.0,0.2859
1102.0,0.2732
1103.0,0.2706
1104.0,0.271
1105.0,0.2967
1106.0,0.2277
1107.0,0.2819
1108.0,0.2394
1109.0,0.2398
1110.0,0.2795
1111.0,0.1902
1112.0,0.2379
1113.0,0.152
1114.0,0.1698
1115.0,0.1408
1116.0,0.1127
1117.0,0.0417
1118.0,0.1225
1119.0,0.06104
1120.0,0.07685
1121.0,0.1019
1122.0,0.04305
1123.0,0.06944
1124.0,0.05861
1125.0,0.07641
1126.0,0.02676
1127.0,0.08618
1128.0,0.05174
1129.0,0.05488
1130.0,0.03617
1131.0,0.163
1132.0,0.128
1133.0,0.08132
1134.0,0.0209
1135.0,0.007826
1136.0,0.06791
1137.0,0.1602
1138.0,0.1129
1139.0,0.1679
1140.0,0.1405
1141.0,0.1073
1142.0,0.1233
1143.0,0.1749
1144.0,0.06133
1145.0,0.07842
1146.0,0.08458
1147.0,0.02992
1148.0,0.1514
1149.0,0.121
1150.0,0.06594
1151.0,0.112
1152.0,0.1377
1153.0,0.1341
1154.0,0.07603
1155.0,0.1751
1156.0,0.1578
1157.0,0.1769
1158.0,0.175
1159.0,0.1886
1160.0,0.1614
1161.0,0.1983
1162.0,0.1993
1163.0,0.2681
1164.0,0.2304
1165.0,0.2178
1166.0,0.2159
1167.0,0.235
1168.0,0.2377
1169.0,0.2431
1170.0,0.2638
1171.0,0.2573
1172.0,0.2617
1173.0,0.2633
1174.0,0.1893
1175.0,0.2569
1176.0,0.2818
1177.0,0.271
1178.0,0.2045
1179.0,0.284
1180.0,0.2543
1181.0,0.2624
1182.0,0.1822
1183.0,0.2582
1184.0,0.2423
1185.0,0.2342
1186.0,0.2764
1187.0,0.2637
1188.0,0.1854
1189.0,0.2458
1190.0,0.2701
1191.0,0.2572
1192.0,0.2738
1193.0,0.2627
1194.0,0.2705
1195.0,0.2564
1196.0,0.2473
1197.0,0.2704
1198.0,0.2478
1199.0,0.212
1200.0,0.2594
1201.0,0.2506
1202.0,0.2489
1203.0,0.2468
1204.0,0.2165
1205.0,0.2543
1206.0,0.2802
1207.0,0.2484
1208.0,0.2441
1209.0,0.249
1210.0,0.2591
1211.0,0.2473
1212.0,0.2449
1213.0,0.2713
1214.0,0.2505
1215.0,0.2459
1216.0,0.2704
1217.0,0.2635
1218.0,0.2682
1219.0,0.2651
1220.0,0.2685
1221.0,0.271
1222.0,0.2641
1223.0,0.2618
1224.0,0.2603
1225.0,0.2693
1226.0,0.2709
1227.0,0.2506
1228.0,0.2721
1229.0,0.271
1230.0,0.2665
1231.0,0.2736
1232.0,0.272
1233.0,0.2632
1234.0,0.2732
1235.0,0.2716
1236.0,0.2735
1237.0,0.2699
1238.0,0.2726
1239.0,0.2691
1240.0,0.2701
1241.0,0.2689
1242.0,0.2682
1243.0,0.266
1244.0,0.268
1245.0,0.2691
1246.0,0.2675
1247.0,0.2665
1248.0,0.2664
1249.0,0.2672
1250.0,0.2656
1251.0,0.2623
1252.0,0.2622
1253.0,0.2603
1254.0,0.2578
1255.0,0.262
1256.0,0.255
1257.0,0.2537
1258.0,0.2581
1259.0,0.2493
1260.0,0.2506
1261.0,0.2372
1262.0,0.2305
1263.0,0.2309
1264.0,0.214
1265.0,0.2294
1266.0,0.2213
1267.0,0.2248
1268.0,0.2137
1269.0,0.1362
1270.0,0.2241
1271.0,0.2363
1272.0,0.237
1273.0,0.2346
1274.0,0.2352
1275.0,0.2385
1276.0,0.2407
1277.0,0.2421
1278.0,0.2465
1279.0,0.2443
1280.0,0.2412
1281.0,0.23
1282.0,0.2214
1283.0,0.2385
1284.0,0.2442
1285.0,0.2458
1286.0,0.249
1287.0,0.2454
1288.0,0.2453
1289.0,0.238
1290.0,0.2431
1291.0,0.2464
1292.0,0.2323
1293.0,0.2418
1294.0,0.2401
1295.0,0.2392
1296.0,0.2289
1297.0,0.2169
1298.0,0.2327
1299.0,0.242
1300.0,0.2062
1301.0,0.2123
1302.0,0.2319
1303.0,0.2034
1304.0,0.1747
1305.0,0.2272
1306.0,0.2273
1307.0,0.178
1308.0,0.2035
1309.0,0.2257
1310.0,0.1747
1311.0,0.1954
1312.0,0.1903
1313.0,0.1868
1314.0,0.1676
1315.0,0.1657
1316.0,0.1925
1317.0,0.1825
1318.0,0.1978
1319.0,0.156
1320.0,0.1509
1321.0,0.1753
1322.0,0.1772
1323.0,0.1344
1324.0,0.153
1325.0,0.1898
1326.0,0.1636
1327.0,0.1562
1328.0,0.135
1329.0,0.1022
1330.0,0.1327
1331.0,0.08101
1332.0,0.08335
1333.0,0.1158
1334.0,0.09765
1335.0,0.1339
1336.0,0.1064
1337.0,0.0943
1338.0,0.102
1339.0,0.1015
1340.0,0.09846
1341.0,0.09667
1342.0,0.1015
1343.0,0.06974
1344.0,0.04171
1345.0,0.06009
1346.0,0.03047
1347.0,0.03109
1348.0,0.002132
1349.0,0.007542
1350.0,0.007747
1351.0,0.001981
1352.0,0.0005659
1353.0,3.074e-05
1354.0,0.0001018
1355.0,9.346e-07
1356.0,1.509e-05
1357.0,2.296e-05
1358.0,1.101e-06
1359.0,1.532e-07
1360.0,5.219e-07
1361.0,7.186e-10
1362.0,2.153e-12
1363.0,7.282e-07
1364.0,3.033e-07
1365.0,8.476e-13
1366.0,3.103e-06
1367.0,1.25e-06
1368.0,8.222e-15
1369.0,1.14e-07
1370.0,5.865e-08
1371.0,3.507e-09
1372.0,6.876e-07
1373.0,1.301e-05
1374.0,5.785e-05
1375.0,0.0001054
1376.0,9.138e-05
1377.0,4.228e-05
1378.0,0.0004062
1379.0,1.78e-05
1380.0,2.636e-05
1381.0,7.081e-07
1382.0,6.276e-07
1383.0,9.771e-09
1384.0,1.312e-07
1385.0,5.669e-07
1386.0,5.757e-07
1387.0,6.17e-05
1388.0,1.22e-06
1389.0,0.0001995
1390.0,0.0001718
1391.0,0.0001157
1392.0,7.641e-06
1393.0,3.961e-05
1394.0,2.199e-05
1395.0,1.704e-07
1396.0,1.007e-09
1397.0,1.606e-05
1398.0,0.0004585
1399.0,0.0002906
1400.0,4.597e-10
1401.0,1.777e-09
1402.0,0.0007637
1403.0,0.0009703
1404.0,0.0002971
1405.0,8.599e-08
1406.0,0.0007874
1407.0,6.869e-05
1408.0,0.0006422
1409.0,0.0002223
1410.0,0.0001745
1411.0,0.0008516
1412.0,0.001133
1413.0,0.01126
1414.0,0.0001372
1415.0,6.682e-05
1416.0,0.01822
1417.0,0.005568
1418.0,0.006351
1419.0,0.0009881
1420.0,0.003888
1421.0,0.004205
1422.0,0.02377
1423.0,0.004617
1424.0,0.008644
1425.0,0.01274
1426.0,0.01443
1427.0,0.02649
1428.0,0.002011
1429.0,0.01982
1430.0,0.03378
1431.0,0.03711
1432.0,0.001585
1433.0,0.02359
1434.0,0.01199
1435.0,0.01194
1436.0,0.02312
1437.0,0.01772
1438.0,0.007461
1439.0,0.03148
1440.0,0.02357
1441.0,0.01791
1442.0,0.01988
1443.0,0.02506
1444.0,0.03478
1445.0,0.02711
1446.0,0.01216
