interpolation:linear
wavelength,value
280.0,2.5890000000000003e-20
280.5,7.468e-19
281.0,3.836e-18
281.5,4.186e-19
282.0,1.717e-18
282.5,4.796e-18
283.0,1.589e-17
283.5,2.618e-17
284.0,4.152e-16
284.5,1.176e-15
285.0,1.875e-15
285.5,1.086e-14
286.0,4.545e-14
286.5,2.128e-13
287.0,6.205e-13
287.5,2.409e-12
288.0,7.669e-12
288.5,2.98e-11
289.0,9.793e-11
289.5,3.591e-10
290.0,1.151e-09
290.5,2.634e-09
291.0,6.435e-09
291.5,2.156e-08
292.0,5.946e-08
292.5,9.418e-08
293.0,2.361e-07
293.5,7.152e-07
294.0,1.319e-06
294.5,1.746e-06
295.0,3.464e-06
295.5,8.736e-06
296.0,1.688e-05
296.5,2.364e-05
297.0,3.201e-05
297.5,8.579e-05
298.0,0.0001351
298.5,0.0001358
299.0,0.0002991
299.5,0.0004947
300.0,0.0005435
300.5,0.0007863
301.0,0.00142
301.5,0.002262
302.0,0.001937
302.5,0.003686
303.0,0.006391
303.5,0.007865
304.0,0.007268
304.5,0.01038
305.0,0.01481
305.5,0.01632
306.0,0.01557
306.5,0.01892
307.0,0.02659
307.5,0.03359
308.0,0.03519
308.5,0.04053
309.0,0.03924
309.5,0.04337
310.0,0.04287
310.5,0.06888
311.0,0.08529
311.5,0.08185
312.0,0.07945
312.5,0.09478
313.0,0.1017
313.5,0.09975
314.0,0.1218
314.5,0.1046
315.0,0.1366
315.5,0.1161
316.0,0.09878
316.5,0.1387
317.0,0.1723
317.5,0.1804
318.0,0.1386
318.5,0.167
319.0,0.1953
319.5,0.163
320.0,0.1977
320.5,0.2401
321.0,0.208
321.5,0.1989
322.0,0.2183
322.5,0.1896
323.0,0.1852
323.5,0.2236
324.0,0.2601
324.5,0.2661
325.0,0.2322
325.5,0.2941
326.0,0.3579
326.5,0.3547
327.0,0.3548
327.5,0.3444
328.0,0.3108
328.5,0.3213
329.0,0.3797
329.5,0.4292
330.0,0.4344
330.5,0.3512
331.0,0.359
331.5,0.3621
332.0,0.3869
332.5,0.3808
333.0,0.3808
333.5,0.3474
334.0,0.3564
334.5,0.4074
335.0,0.3808
335.5,0.4448
336.0,0.3077
336.5,0.3613
337.0,0.2975
337.5,0.3706
338.0,0.3591
338.5,0.4143
339.0,0.41
339.5,0.3944
340.0,0.4636
340.5,0.4176
341.0,0.4073
341.5,0.3738
342.0,0.4467
342.5,0.4179
343.0,0.4596
343.5,0.4329
344.0,0.3198
344.5,0.3231
345.0,0.4274
345.5,0.4363
346.0,0.3707
346.5,0.4197
347.0,0.4507
347.5,0.3644
348.0,0.4153
348.5,0.4151
349.0,0.385
349.5,0.3812
350.0,0.4714
350.5,0.4973
351.0,0.4443
351.5,0.4319
352.0,0.4638
352.5,0.3618
353.0,0.4557
353.5,0.4872
354.0,0.5058
354.5,0.513
355.0,0.5113
355.5,0.4618
356.0,0.4832
356.5,0.4126
357.0,0.3409
357.5,0.4174
358.0,0.3308
358.5,0.2827
359.0,0.3954
359.5,0.5039
360.0,0.5342
360.5,0.4269
361.0,0.3892
361.5,0.4481
362.0,0.3874
362.5,0.5361
363.0,0.4815
363.5,0.4435
364.0,0.5424
364.5,0.4636
365.0,0.4722
365.5,0.5926
366.0,0.6279
366.5,0.5899
367.0,0.5745
367.5,0.5962
368.0,0.5218
368.5,0.5265
369.0,0.5686
369.5,0.606
370.0,0.6461
370.5,0.5014
371.0,0.5358
371.5,0.6703
372.0,0.4449
372.5,0.5335
373.0,0.5427
373.5,0.3531
374.0,0.5131
374.5,0.4249
375.0,0.4131
375.5,0.6167
376.0,0.5113
376.5,0.5299
377.0,0.561
377.5,0.6563
378.0,0.7115
378.5,0.6726
379.0,0.5551
379.5,0.5071
380.0,0.5272
380.5,0.6386
381.0,0.6399
381.5,0.5073
382.0,0.4505
382.5,0.384
383.0,0.3555
383.5,0.3425
384.0,0.3778
384.5,0.5557
385.0,0.5511
385.5,0.5132
386.0,0.4396
386.5,0.5774
387.0,0.4798
387.5,0.539
388.0,0.4976
388.5,0.4919
389.0,0.531
389.5,0.6432
390.0,0.6455
390.5,0.5941
391.0,0.6993
391.5,0.7133
392.0,0.6009
392.5,0.5379
393.0,0.2993
393.5,0.2176
394.0,0.4428
394.5,0.563
395.0,0.687
395.5,0.6979
396.0,0.6051
396.5,0.3537
397.0,0.2655
397.5,0.5399
398.0,0.7562
398.5,0.7816
399.0,0.8463
399.5,0.8436
400.0,0.8761
401.0,0.8898
402.0,0.9388
403.0,0.8918
404.0,0.8781
405.0,0.878
406.0,0.8637
407.0,0.8498
408.0,0.883
409.0,0.9451
410.0,0.8258
411.0,0.8945
412.0,0.9606
413.0,0.9369
414.0,0.9484
415.0,0.9508
416.0,0.9674
417.0,0.9436
418.0,0.9262
419.0,0.9383
420.0,0.9342
421.0,0.9773
422.0,0.9289
423.0,0.9074
424.0,0.9597
425.0,0.958
426.0,0.933
427.0,0.9155
428.0,0.8919
429.0,0.8446
430.0,0.7391
431.0,0.7327
432.0,0.9459
433.0,0.9511
434.0,0.8832
435.0,0.9224
436.0,1.039
437.0,1.025
438.0,0.9333
439.0,0.9655
440.0,0.9962
441.0,1.032
442.0,1.107
443.0,1.078
444.0,1.102
445.0,1.078
446.0,1.028
447.0,1.111
448.0,1.129
449.0,1.133
450.0,1.165
451.0,1.208
452.0,1.164
453.0,1.094
454.0,1.142
455.0,1.149
456.0,1.177
457.0,1.196
458.0,1.156
459.0,1.149
460.0,1.153
461.0,1.179
462.0,1.188
463.0,1.18
464.0,1.16
465.0,1.145
466.0,1.156
467.0,1.135
468.0,1.148
469.0,1.154
470.0,1.118
471.0,1.116
472.0,1.176
473.0,1.161
474.0,1.163
475.0,1.173
476.0,1.138
477.0,1.142
478.0,1.173
479.0,1.166
480.0,1.168
481.0,1.189
482.0,1.195
483.0,1.18
484.0,1.156
485.0,1.101
486.0,0.9624
487.0,1.008
488.0,1.106
489.0,1.11
490.0,1.168
491.0,1.147
492.0,1.083
493.0,1.119
494.0,1.13
495.0,1.139
496.0,1.147
497.0,1.164
498.0,1.11
499.0,1.124
500.0,1.092
501.0,1.072
502.0,1.057
503.0,1.101
504.0,1.074
505.0,1.111
506.0,1.147
507.0,1.092
508.0,1.057
509.0,1.087
510.0,1.081
511.0,1.109
512.0,1.121
513.0,1.061
514.0,1.054
515.0,1.043
516.0,1.041
517.0,0.9247
518.0,0.9722
519.0,1.02
520.0,1.057
521.0,1.067
522.0,1.068
523.0,1.049
524.0,1.087
525.0,1.1
526.0,1.051
527.0,0.9903
528.0,1.048
529.0,1.104
530.0,1.089
531.0,1.105
532.0,1.067
533.0,1.036
534.0,1.066
535.0,1.089
536.0,1.099
537.0,1.056
538.0,1.074
539.0,1.065
540.0,1.021
541.0,1.029
542.0,1.061
543.0,1.049
544.0,1.068
545.0,1.065
546.0,1.07
547.0,1.069
548.0,1.056
549.0,1.059
550.0,1.072
551.0,1.059
552.0,1.066
553.0,1.047
554.0,1.072
555.0,1.074
556.0,1.06
557.0,1.027
558.0,1.02
559.0,1.001
560.0,1.014
561.0,1.027
562.0,1.02
563.0,1.048
564.0,1.02
565.0,1.011
566.0,0.9964
567.0,1.015
568.0,1.007
569.0,0.9844
570.0,0.984
571.0,0.9777
572.0,1.002
573.0,1.013
574.0,1.01
575.0,0.9913
576.0,0.9822
577.0,0.9928
578.0,0.9776
579.0,0.9808
580.0,0.9986
581.0,1.003
582.0,1.021
583.0,1.023
584.0,1.032
585.0,1.007
586.0,0.9859
587.0,1.008
588.0,0.985
589.0,0.8758
590.0,0.9156
591.0,0.967
592.0,0.9559
593.0,0.9687
594.0,0.9626
595.0,0.9399
596.0,0.9744
597.0,0.9644
598.0,0.9612
599.0,0.9617
600.0,0.9625
601.0,0.9541
602.0,0.9476
603.0,0.963
604.0,0.9789
605.0,0.9737
606.0,0.9694
607.0,0.9787
608.0,0.9676
609.0,0.9691
610.0,0.9619
611.0,0.9668
612.0,0.9638
613.0,0.9515
614.0,0.9383
615.0,0.9585
616.0,0.9268
617.0,0.9248
618.0,0.9603
619.0,0.9505
620.0,0.9565
621.0,0.9576
622.0,0.9466
623.0,0.9324
624.0,0.9162
625.0,0.9142
626.0,0.9278
627.0,0.9387
628.0,0.8833
629.0,0.9188
630.0,0.8978
631.0,0.9158
632.0,0.9045
633.0,0.931
634.0,0.9213
635.0,0.9353
636.0,0.9225
637.0,0.9373
638.0,0.9458
639.0,0.9349
640.0,0.9255
641.0,0.9247
642.0,0.9203
643.0,0.9326
644.0,0.9294
645.0,0.931
646.0,0.9101
647.0,0.9011
648.0,0.9021
649.0,0.8847
650.0,0.8867
651.0,0.9247
652.0,0.8887
653.0,0.9123
654.0,0.902
655.0,0.8696
656.0,0.7699
657.0,0.7905
658.0,0.8852
659.0,0.8912
660.0,0.8948
661.0,0.901
662.0,0.9033
663.0,0.8852
664.0,0.8951
665.0,0.8953
666.0,0.8958
667.0,0.8947
668.0,0.8948
669.0,0.9085
670.0,0.9045
671.0,0.9042
672.0,0.8963
673.0,0.9097
674.0,0.9062
675.0,0.8979
676.0,0.9039
677.0,0.8949
678.0,0.8973
679.0,0.8828
680.0,0.8898
681.0,0.8839
682.0,0.8828
683.0,0.8811
684.0,0.8767
685.0,0.8841
686.0,0.8789
687.0,0.6123
688.0,0.7038
689.0,0.7059
690.0,0.7358
691.0,0.7692
692.0,0.7931
693.0,0.787
694.0,0.7805
695.0,0.8093
696.0,0.8104
697.0,0.8556
698.0,0.8424
699.0,0.8251
700.0,0.8152
701.0,0.8079
702.0,0.8124
703.0,0.8139
704.0,0.8382
705.0,0.8394
706.0,0.838
707.0,0.8384
708.0,0.8403
709.0,0.8404
710.0,0.8409
711.0,0.8394
712.0,0.8364
713.0,0.8284
714.0,0.8314
715.0,0.8063
716.0,0.807
717.0,0.7105
718.0,0.6543
719.0,0.6004
720.0,0.6298
721.0,0.6887
722.0,0.7809
723.0,0.7306
724.0,0.6624
725.0,0.6533
726.0,0.6831
727.0,0.6904
728.0,0.6521
729.0,0.6727
730.0,0.7118
731.0,0.6822
732.0,0.7257
733.0,0.7644
734.0,0.7815
735.0,0.7659
736.0,0.7649
737.0,0.768
738.0,0.7773
739.0,0.762
740.0,0.7811
741.0,0.7729
742.0,0.7731
743.0,0.7927
744.0,0.7901
745.0,0.7901
746.0,0.7937
747.0,0.7954
748.0,0.7937
749.0,0.7846
750.0,0.7841
751.0,0.7762
752.0,0.7794
753.0,0.7834
754.0,0.7851
755.0,0.7807
756.0,0.7803
757.0,0.7815
758.0,0.7718
759.0,0.7576
760.0,0.1537
761.0,0.08642
762.0,0.4161
763.0,0.2243
764.0,0.3227
765.0,0.4163
766.0,0.4976
767.0,0.6146
768.0,0.6988
769.0,0.7111
770.0,0.7327
771.0,0.7374
772.0,0.7386
773.0,0.7437
774.0,0.74
775.0,0.7344
776.0,0.7433
777.0,0.7334
778.0,0.729
779.0,0.7296
780.0,0.7255
781.0,0.7262
782.0,0.7307
783.0,0.718
784.0,0.7214
785.0,0.7162
786.0,0.7241
787.0,0.7126
788.0,0.7042
789.0,0.7041
790.0,0.687
791.0,0.6914
792.0,0.6861
793.0,0.6751
794.0,0.685
795.0,0.697
796.0,0.6778
797.0,0.6787
798.0,0.6964
799.0,0.6924
800.0,0.6809
801.0,0.6792
802.0,0.6773
803.0,0.6724
804.0,0.673
805.0,0.6703
806.0,0.6881
807.0,0.68
808.0,0.6805
809.0,0.6686
810.0,0.6637
811.0,0.6656
812.0,0.648
813.0,0.6354
814.0,0.5641
815.0,0.5604
816.0,0.5223
817.0,0.5313
818.0,0.5125
819.0,0.5686
820.0,0.5372
821.0,0.622
822.0,0.6052
823.0,0.4211
824.0,0.5896
825.0,0.6114
826.0,0.59
827.0,0.6207
828.0,0.5317
829.0,0.5861
830.0,0.579
831.0,0.5808
832.0,0.564
833.0,0.5973
834.0,0.5779
835.0,0.6311
836.0,0.6064
837.0,0.6327
838.0,0.6141
839.0,0.6229
840.0,0.6363
841.0,0.6277
842.0,0.6284
843.0,0.6273
844.0,0.619
845.0,0.6393
846.0,0.6364
847.0,0.6243
848.0,0.6208
849.0,0.6031
850.0,0.5778
851.0,0.6121
852.0,0.6077
853.0,0.5847
854.0,0.505
855.0,0.5545
856.0,0.6061
857.0,0.6195
858.0,0.615
859.0,0.6154
860.0,0.6164
861.0,0.613
862.0,0.6226
863.0,0.6373
864.0,0.6055
865.0,0.6001
866.0,0.5396
867.0,0.5631
868.0,0.6128
869.0,0.6001
870.0,0.6171
871.0,0.6087
872.0,0.6066
873.0,0.6054
874.0,0.5982
875.0,0.586
876.0,0.5922
877.0,0.5981
878.0,0.6047
879.0,0.5954
880.0,0.5826
881.0,0.574
882.0,0.5864
883.0,0.5882
884.0,0.5855
885.0,0.5899
886.0,0.5627
887.0,0.5683
888.0,0.5769
889.0,0.5831
890.0,0.5787
891.0,0.5775
892.0,0.5614
893.0,0.5446
894.0,0.527
895.0,0.4998
896.0,0.4716
897.0,0.4076
898.0,0.4434
899.0,0.3403
900.0,0.4525
901.0,0.3566
902.0,0.4144
903.0,0.4199
904.0,0.523
905.0,0.5058
906.0,0.474
907.0,0.3889
908.0,0.396
909.0,0.4272
910.0,0.381
911.0,0.4041
912.0,0.4218
913.0,0.3868
914.0,0.3829
915.0,0.4149
916.0,0.352
917.0,0.4434
918.0,0.361
919.0,0.4506
920.0,0.4536
921.0,0.4715
922.0,0.4237
923.0,0.4553
924.0,0.4344
925.0,0.425
926.0,0.4297
927.0,0.4789
928.0,0.3572
929.0,0.3277
930.0,0.2598
931.0,0.2458
932.0,0.1794
933.0,0.147
934.0,0.0832
935.0,0.1494
936.0,0.09492
937.0,0.0964
938.0,0.1179
939.0,0.2382
940.0,0.2849
941.0,0.2172
942.0,0.2502
943.0,0.1662
944.0,0.1735
945.0,0.2236
946.0,0.116
947.0,0.2252
948.0,0.1657
949.0,0.2992
950.0,0.08648
951.0,0.2943
952.0,0.1609
953.0,0.206
954.0,0.2505
955.0,0.2081
956.0,0.2009
957.0,0.1615
958.0,0.2818
959.0,0.2261
960.0,0.2534
961.0,0.2827
962.0,0.2677
963.0,0.3071
964.0,0.2818
965.0,0.3058
966.0,0.3062
967.0,0.3051
968.0,0.4038
969.0,0.4222
970.0,0.3884
971.0,0.4424
972.0,0.4236
973.0,0.3711
974.0,0.3525
975.0,0.365
976.0,0.3478
977.0,0.3934
978.0,0.3748
979.0,0.3918
980.0,0.3688
981.0,0.4397
982.0,0.4212
983.0,0.4049
984.0,0.4521
985.0,0.4196
986.0,0.4595
987.0,0.4511
988.0,0.4503
989.0,0.4577
990.0,0.4476
991.0,0.4592
992.0,0.4618
993.0,0.4521
994.0,0.4616
995.0,0.4609
996.0,0.459
997.0,0.4596
998.0,0.4575
999.0,0.4558
1000.0,0.4527
1001.0,0.4582
1002.0,0.4461
1003.0,0.4501
1004.0,0.4393
1005.0,0.423
1006.0,0.4396
1007.0,0.4489
1008.0,0.4465
1009.0,0.4442
1010.0,0.4424
1011.0,0.4466
1012.0,0.4428
1013.0,0.4454
1014.0,0.4423
1015.0,0.4394
1016.0,0.4374
1017.0,0.4386
1018.0,0.4369
1019.0,0.4278
1020.0,0.4346
1021.0,0.434
1022.0,0.4307
1023.0,0.4352
1024.0,0.4298
1025.0,0.4349
1026.0,0.4331
1027.0,0.4321
1028.0,0.4312
1029.0,0.4261
1030.0,0.4289
1031.0,0.4272
1032.0,0.426
1033.0,0.4196
1034.0,0.4196
1035.0,0.4209
1036.0,0.4231
1037.0,0.4162
1038.0,0.4181
1039.0,0.4178
1040.0,0.4161
1041.0,0.4178
1042.0,0.4149
1043.0,0.4136
1044.0,0.4151
1045.0,0.4095
1046.0,0.4049
1047.0,0.4086
1048.0,0.4109
1049.0,0.4094
1050.0,0.4075
1051.0,0.407
1052.0,0.4053
1053.0,0.4021
1054.0,0.403
1055.0,0.4033
1056.0,0.4019
1057.0,0.4007
1058.0,0.3909
1059.0,0.3913
1060.0,0.3907
1061.0,0.3903
1062.0,0.3924
1063.0,0.3885
1064.0,0.3931
1065.0,0.3904
1066.0,0.3826
1067.0,0.3876
1068.0,0.3791
1069.0,0.3674
1070.0,0.3799
1071.0,0.3856
1072.0,0.3813
1073.0,0.3758
1074.0,0.3853
1075.0,0.3666
1076.0,0.385
1077.0,0.3785
1078.0,0.3714
1079.0,0.3788
1080.0,0.3726
1081.0,0.361
1082.0,0.3663
1083.0,0.3673
1084.0,0.3602
1085.0,0.3734
1086.0,0.3417
1087.0,0.352
1088.0,0.367
1089.0,0.3563
1090.0,0.3488
1091.0,0.3659
1092.0,0.3649
1093.0,0.3111
1094.0,0.3341
1095.0,0.3239
1096.0,0.3106
1097.0,0.3564
1098.0,0.3059
1099.0,0.3189
1100.0,0.2972
1101.0,0.3007
1102.0,0.2876
1103.0,0.2851
1104.0,0.2855
1105.0,0.3117
1106.0,0.2413
1107.0,0.2966
1108.0,0.2532
1109.0,0.2533
1110.0,0.2942
1111.0,0.2019
1112.0,0.2512
1113.0,0.1623
1114.0,0.1811
1115.0,0.1502
1116.0,0.1213
1117.0,0.04608
1118.0,0.1315
1119.0,0.06646
1120.0,0.08371
1121.0,0.1104
1122.0,0.04747
1123.0,0.07561
1124.0,0.06383
1125.0,0.08298
1126.0,0.02989
1127.0,0.09352
1128.0,0.05704
1129.0,0.06036
1130.0,0.04015
1131.0,0.1748
1132.0,0.1376
1133.0,0.08858
1134.0,0.02345
1135.0,0.008744
1136.0,0.07439
1137.0,0.1721
1138.0,0.1215
1139.0,0.1786
1140.0,0.1502
1141.0,0.1155
1142.0,0.1323
1143.0,0.1867
1144.0,0.06656
1145.0,0.0854
1146.0,0.09212
1147.0,0.03344
1148.0,0.1617
1149.0,0.1299
1150.0,0.07148
1151.0,0.1206
1152.0,0.1475
1153.0,0.143
1154.0,0.08294
1155.0,0.1863
1156.0,0.1683
1157.0,0.188
1158.0,0.1859
1159.0,0.1998
1160.0,0.1716
1161.0,0.2097
1162.0,0.2109
1163.0,0.2816
1164.0,0.2428
1165.0,0.2302
1166.0,0.2277
1167.0,0.2474
1168.0,0.2504
1169.0,0.2559
1170.0,0.2771
1171.0,0.2704
1172.0,0.2746
1173.0,0.2765
1174.0,0.2004
1175.0,0.2697
1176.0,0.2949
1177.0,0.2841
1178.0,0.2157
1179.0,0.2973
1180.0,0.267
1181.0,0.2754
1182.0,0.1925
1183.0,0.2708
1184.0,0.2546
1185.0,0.2465
1186.0,0.2896
1187.0,0.2767
1188.0,0.1961
1189.0,0.2579
1190.0,0.283
1191.0,0.2702
1192.0,0.2868
1193.0,0.2754
1194.0,0.2835
1195.0,0.2691
1196.0,0.2598
1197.0,0.2831
1198.0,0.2597
1199.0,0.2232
1200.0,0.272
1201.0,0.2631
1202.0,0.2611
1203.0,0.259
1204.0,0.2277
1205.0,0.2665
1206.0,0.2931
1207.0,0.2607
1208.0,0.2559
1209.0,0.2609
1210.0,0.2713
1211.0,0.2593
1212.0,0.2572
1213.0,0.284
1214.0,0.2629
1215.0,0.2581
1216.0,0.283
1217.0,0.276
1218.0,0.2807
1219.0,0.2775
1220.0,0.281
1221.0,0.2835
1222.0,0.2764
1223.0,0.274
1224.0,0.2727
1225.0,0.2817
1226.0,0.2833
1227.0,0.2626
1228.0,0.2844
1229.0,0.2833
1230.0,0.2787
1231.0,0.2859
1232.0,0.2842
1233.0,0.2754
1234.0,0.2854
1235.0,0.2837
1236.0,0.2857
1237.0,0.2821
1238.0,0.2847
1239.0,0.2811
1240.0,0.2821
1241.0,0.281
1242.0,0.2802
1243.0,0.2779
1244.0,0.2799
1245.0,0.2811
1246.0,0.2794
1247.0,0.2784
1248.0,0.2784
1249.0,0.2791
1250.0,0.2775
1251.0,0.2741
1252.0,0.2739
1253.0,0.2721
1254.0,0.2696
1255.0,0.2738
1256.0,0.2667
1257.0,0.2654
1258.0,0.2698
1259.0,0.261
1260.0,0.2623
1261.0,0.2488
1262.0,0.242
1263.0,0.2425
1264.0,0.2254
1265.0,0.2409
1266.0,0.2327
1267.0,0.2362
1268.0,0.225
1269.0,0.1462
1270.0,0.2356
1271.0,0.2478
1272.0,0.2485
1273.0,0.246
1274.0,0.2466
1275.0,0.2499
1276.0,0.2521
1277.0,0.2535
1278.0,0.2579
1279.0,0.2556
1280.0,0.2523
1281.0,0.2405
1282.0,0.2314
1283.0,0.2493
1284.0,0.2553
1285.0,0.2569
1286.0,0.2602
1287.0,0.2566
1288.0,0.2564
1289.0,0.2491
1290.0,0.2541
1291.0,0.2575
1292.0,0.2434
1293.0,0.2528
1294.0,0.2511
1295.0,0.2503
1296.0,0.2399
1297.0,0.2276
1298.0,0.2436
1299.0,0.253
1300.0,0.2167
1301.0,0.2228
1302.0,0.2427
1303.0,0.2135
1304.0,0.1845
1305.0,0.2379
1306.0,0.2381
1307.0,0.1876
1308.0,0.2135
1309.0,0.2365
1310.0,0.1841
1311.0,0.2052
1312.0,0.2
1313.0,0.1965
1314.0,0.1767
1315.0,0.1749
1316.0,0.2023
1317.0,0.1919
1318.0,0.2077
1319.0,0.165
1320.0,0.1593
1321.0,0.1846
1322.0,0.1869
1323.0,0.1428
1324.0,0.1618
1325.0,0.1996
1326.0,0.1727
1327.0,0.165
1328.0,0.143
1329.0,0.1091
1330.0,0.1412
1331.0,0.08725
1332.0,0.08941
1333.0,0.124
1334.0,0.1041
1335.0,0.1422
1336.0,0.1135
1337.0,0.1009
1338.0,0.1092
1339.0,0.1084
1340.0,0.1049
1341.0,0.1037
1342.0,0.1088
1343.0,0.07607
1344.0,0.04543
1345.0,0.06535
1346.0,0.03401
1347.0,0.03485
1348.0,0.002548
1349.0,0.008843
1350.0,0.008963
1351.0,0.002426
1352.0,0.0007358
1353.0,4.279e-05
1354.0,0.0001357
1355.0,1.429e-06
1356.0,2.112e-05
1357.0,3.206e-05
1358.0,1.675e-06
1359.0,2.578e-07
1360.0,8.23e-07
1361.0,1.41e-09
1362.0,4.652e-12
1363.0,1.18e-06
1364.0,4.958e-07
1365.0,2.057e-12
1366.0,4.89e-06
1367.0,1.941e-06
1368.0,2.513e-14
1369.0,1.877e-07
1370.0,1.007e-07
1371.0,6.361e-09
1372.0,1.068e-06
1373.0,1.883e-05
1374.0,7.983e-05
1375.0,0.0001454
1376.0,0.0001215
1377.0,5.687e-05
1378.0,0.0005334
1379.0,2.4e-05
1380.0,3.655e-05
1381.0,1.013e-06
1382.0,9.869e-07
1383.0,1.603e-08
1384.0,2.194e-07
1385.0,8.505e-07
1386.0,9.321e-07
1387.0,8.741e-05
1388.0,1.741e-06
1389.0,0.0002685
1390.0,0.0002312
1391.0,0.0001575
1392.0,1.06e-05
1393.0,5.348e-05
1394.0,3.2e-05
1395.0,2.632e-07
1396.0,1.919e-09
1397.0,2.212e-05
1398.0,0.0006048
1399.0,0.0003831
1400.0,9.267e-10
1401.0,3.317e-09
1402.0,0.0009447
1403.0,0.001214
1404.0,0.0003738
1405.0,1.378e-07
1406.0,0.00101
1407.0,8.716e-05
1408.0,0.0008211
1409.0,0.0002947
1410.0,0.0002266
1411.0,0.001063
1412.0,0.001391
1413.0,0.01309
1414.0,0.0001774
1415.0,8.791e-05
1416.0,0.02055
1417.0,0.006501
1418.0,0.007441
1419.0,0.001168
1420.0,0.004564
1421.0,0.004941
1422.0,0.02675
1423.0,0.005255
1424.0,0.009783
1425.0,0.0145
1426.0,0.01621
1427.0,0.02924
1428.0,0.002415
1429.0,0.02212
1430.0,0.0371
1431.0,0.0406
1432.0,0.001908
1433.0,0.02602
1434.0,0.01333
1435.0,0.01364
1436.0,0.02584
1437.0,0.01979
1438.0,0.008492
1439.0,0.03493
1440.0,0.02618
1441.0,0.02017
1442.0,0.02234
1443.0,0.02773
1444.0,0.03827
1445.0,0.03019
1446.0,0.01366
1447.0,0.0215
