interpolation:linear
wavelength,value
280.0,2.79e-21
280.5,8.760000000000001e-20
281.0,4.624e-19
281.5,3.378e-19
282.0,1.015e-18
282.5,2.69e-18
283.0,8.746e-18
283.5,1.434e-17
284.0,2.348e-16
284.5,6.789e-16
285.0,1.539e-15
285.5,7.459e-15
286.0,2.982e-14
286.5,1.314e-13
287.0,3.717e-13
287.5,1.406e-12
288.0,3.754e-12
288.5,1.245e-11
289.0,3.532e-11
289.5,1.117e-10
290.0,3.191e-10
290.5,6.633e-10
291.0,1.45e-09
291.5,4.236e-09
292.0,9.123e-09
292.5,1.371e-08
293.0,3.209e-08
293.5,8.787e-08
294.0,1.494e-07
294.5,1.934e-07
295.0,3.556e-07
295.5,9.27e-07
296.0,1.857e-06
296.5,2.71e-06
297.0,3.809e-06
297.5,1.088e-05
298.0,1.818e-05
298.5,1.92e-05
299.0,4.454e-05
299.5,8.128e-05
300.0,9.475e-05
300.5,0.0001464
301.0,0.0002974
301.5,0.0005379
302.0,0.0004974
302.5,0.0009831
303.0,0.001792
303.5,0.002279
304.0,0.002156
304.5,0.003272
305.0,0.005071
305.5,0.005886
306.0,0.005726
306.5,0.007189
307.0,0.01085
307.5,0.01465
308.0,0.01551
308.5,0.01845
309.0,0.01821
309.5,0.021
310.0,0.02117
310.5,0.03436
311.0,0.04325
311.5,0.04182
312.0,0.04207
312.5,0.05139
313.0,0.05586
313.5,0.05416
314.0,0.06803
314.5,0.06067
315.0,0.07982
315.5,0.06661
316.0,0.05844
316.5,0.08424
317.0,0.1046
317.5,0.1088
318.0,0.08508
318.5,0.1061
319.0,0.1262
319.5,0.1026
320.0,0.1239
320.5,0.1557
321.0,0.1392
321.5,0.1335
322.0,0.1418
322.5,0.1234
323.0,0.1232
323.5,0.1518
324.0,0.1772
324.5,0.1798
325.0,0.1552
325.5,0.2
326.0,0.2447
326.5,0.2453
327.0,0.2445
327.5,0.2361
328.0,0.21
328.5,0.2211
329.0,0.265
329.5,0.3009
330.0,0.3036
330.5,0.2429
331.0,0.2474
331.5,0.2517
332.0,0.2721
332.5,0.2693
333.0,0.2686
333.5,0.243
334.0,0.249
334.5,0.2875
335.0,0.2703
335.5,0.3158
336.0,0.2186
336.5,0.256
337.0,0.21
337.5,0.2612
338.0,0.2552
338.5,0.2947
339.0,0.2918
339.5,0.2808
340.0,0.33
340.5,0.2975
341.0,0.2902
341.5,0.2666
342.0,0.3187
342.5,0.2982
343.0,0.328
343.5,0.309
344.0,0.2284
344.5,0.2307
345.0,0.3055
345.5,0.312
346.0,0.2653
346.5,0.3004
347.0,0.3226
347.5,0.2609
348.0,0.2975
348.5,0.2975
349.0,0.2761
349.5,0.2734
350.0,0.3383
350.5,0.357
351.0,0.3189
351.5,0.31
352.0,0.3331
352.5,0.26
353.0,0.3277
353.5,0.3505
354.0,0.3639
354.5,0.3691
355.0,0.368
355.5,0.3326
356.0,0.3481
356.5,0.2973
357.0,0.2457
357.5,0.3008
358.0,0.2385
358.5,0.2038
359.0,0.2851
359.5,0.3634
360.0,0.3854
360.5,0.3081
361.0,0.281
361.5,0.3237
362.0,0.28
362.5,0.3877
363.0,0.3484
363.5,0.321
364.0,0.3928
364.5,0.3358
365.0,0.3421
365.5,0.4295
366.0,0.4552
366.5,0.4279
367.0,0.4168
367.5,0.4327
368.0,0.3788
368.5,0.3823
369.0,0.413
369.5,0.4403
370.0,0.4696
370.5,0.3646
371.0,0.3897
371.5,0.4876
372.0,0.3237
372.5,0.3883
373.0,0.3951
373.5,0.2572
374.0,0.3738
374.5,0.3097
375.0,0.3011
375.5,0.4496
376.0,0.3728
376.5,0.3864
377.0,0.4093
377.5,0.479
378.0,0.5193
378.5,0.491
379.0,0.4052
379.5,0.3702
380.0,0.385
380.5,0.4665
381.0,0.4677
381.5,0.3709
382.0,0.3295
382.5,0.281
383.0,0.2603
383.5,0.2507
384.0,0.2767
384.5,0.4071
385.0,0.4038
385.5,0.3762
386.0,0.3223
386.5,0.4235
387.0,0.352
387.5,0.3955
388.0,0.3652
388.5,0.3612
389.0,0.39
389.5,0.4725
390.0,0.4743
390.5,0.4366
391.0,0.5141
391.5,0.5245
392.0,0.4419
392.5,0.3957
393.0,0.2203
393.5,0.1602
394.0,0.326
394.5,0.4146
395.0,0.506
395.5,0.5142
396.0,0.4459
396.5,0.2608
397.0,0.1958
397.5,0.3982
398.0,0.5577
398.5,0.5766
399.0,0.6247
399.5,0.6228
400.0,0.6467
401.0,0.6555
402.0,0.692
403.0,0.6577
404.0,0.6479
405.0,0.6481
406.0,0.6379
407.0,0.6279
408.0,0.6526
409.0,0.6988
410.0,0.6109
411.0,0.662
412.0,0.7114
413.0,0.694
414.0,0.7028
415.0,0.705
416.0,0.7177
417.0,0.7003
418.0,0.6876
419.0,0.6969
420.0,0.694
421.0,0.7264
422.0,0.6906
423.0,0.6749
424.0,0.7139
425.0,0.7129
426.0,0.6948
427.0,0.682
428.0,0.6645
429.0,0.6298
430.0,0.5513
431.0,0.5465
432.0,0.706
433.0,0.7101
434.0,0.6595
435.0,0.6888
436.0,0.7765
437.0,0.7664
438.0,0.6981
439.0,0.7219
440.0,0.7452
441.0,0.7724
442.0,0.8286
443.0,0.8071
444.0,0.8249
445.0,0.8071
446.0,0.7706
447.0,0.8334
448.0,0.8463
449.0,0.8501
450.0,0.8741
451.0,0.9067
452.0,0.8737
453.0,0.822
454.0,0.8583
455.0,0.8637
456.0,0.8844
457.0,0.8992
458.0,0.8685
459.0,0.8642
460.0,0.8665
461.0,0.8865
462.0,0.8936
463.0,0.8875
464.0,0.8731
465.0,0.8624
466.0,0.871
467.0,0.855
468.0,0.8652
469.0,0.8697
470.0,0.842
471.0,0.8411
472.0,0.8862
473.0,0.8747
474.0,0.8759
475.0,0.8832
476.0,0.8566
477.0,0.8589
478.0,0.8828
479.0,0.8776
480.0,0.8795
481.0,0.8961
482.0,0.901
483.0,0.8904
484.0,0.8723
485.0,0.8313
486.0,0.7269
487.0,0.7619
488.0,0.8359
489.0,0.8385
490.0,0.8822
491.0,0.8672
492.0,0.8189
493.0,0.8458
494.0,0.8543
495.0,0.8616
496.0,0.867
497.0,0.8804
498.0,0.8393
499.0,0.8499
500.0,0.8251
501.0,0.8098
502.0,0.7981
503.0,0.8304
504.0,0.8084
505.0,0.8381
506.0,0.8651
507.0,0.8233
508.0,0.7979
509.0,0.8205
510.0,0.8163
511.0,0.8384
512.0,0.8476
513.0,0.8023
514.0,0.7969
515.0,0.789
516.0,0.787
517.0,0.6994
518.0,0.7353
519.0,0.7712
520.0,0.7992
521.0,0.8068
522.0,0.8074
523.0,0.7928
524.0,0.8211
525.0,0.8305
526.0,0.7933
527.0,0.7474
528.0,0.7903
529.0,0.8329
530.0,0.8209
531.0,0.833
532.0,0.8043
533.0,0.7808
534.0,0.8039
535.0,0.8216
536.0,0.8292
537.0,0.7966
538.0,0.8107
539.0,0.8039
540.0,0.7707
541.0,0.7756
542.0,0.7997
543.0,0.7915
544.0,0.805
545.0,0.8026
546.0,0.8059
547.0,0.8057
548.0,0.7962
549.0,0.7987
550.0,0.8082
551.0,0.7984
552.0,0.804
553.0,0.7895
554.0,0.8084
555.0,0.81
556.0,0.7994
557.0,0.7745
558.0,0.7685
559.0,0.754
560.0,0.7633
561.0,0.7731
562.0,0.7673
563.0,0.7881
564.0,0.7665
565.0,0.7597
566.0,0.7485
567.0,0.7624
568.0,0.7552
569.0,0.7363
570.0,0.7362
571.0,0.732
572.0,0.749
573.0,0.7569
574.0,0.7543
575.0,0.74
576.0,0.7333
577.0,0.7414
578.0,0.7305
579.0,0.7338
580.0,0.7485
581.0,0.7528
582.0,0.7675
583.0,0.7698
584.0,0.7767
585.0,0.7579
586.0,0.7423
587.0,0.7583
588.0,0.7387
589.0,0.6521
590.0,0.6822
591.0,0.7233
592.0,0.7133
593.0,0.7249
594.0,0.7194
595.0,0.7009
596.0,0.7304
597.0,0.722
598.0,0.7207
599.0,0.7216
600.0,0.7232
601.0,0.7176
602.0,0.7128
603.0,0.7248
604.0,0.7369
605.0,0.7332
606.0,0.7303
607.0,0.7378
608.0,0.7299
609.0,0.7313
610.0,0.7263
611.0,0.7302
612.0,0.7282
613.0,0.7191
614.0,0.7095
615.0,0.7251
616.0,0.7013
617.0,0.7
618.0,0.727
619.0,0.7197
620.0,0.7243
621.0,0.7248
622.0,0.7162
623.0,0.7051
624.0,0.6932
625.0,0.6917
626.0,0.7018
627.0,0.7093
628.0,0.6571
629.0,0.6907
630.0,0.6746
631.0,0.6916
632.0,0.6836
633.0,0.7052
634.0,0.6989
635.0,0.7101
636.0,0.701
637.0,0.7127
638.0,0.72
639.0,0.7121
640.0,0.7055
641.0,0.7052
642.0,0.7022
643.0,0.7117
644.0,0.7096
645.0,0.7106
646.0,0.6934
647.0,0.6837
648.0,0.6843
649.0,0.6709
650.0,0.676
651.0,0.7057
652.0,0.6743
653.0,0.6964
654.0,0.6888
655.0,0.6622
656.0,0.5876
657.0,0.6035
658.0,0.6769
659.0,0.682
660.0,0.685
661.0,0.6898
662.0,0.6909
663.0,0.6773
664.0,0.6859
665.0,0.6869
666.0,0.6876
667.0,0.6871
668.0,0.6876
669.0,0.6984
670.0,0.6955
671.0,0.6954
672.0,0.6895
673.0,0.7
674.0,0.6975
675.0,0.6912
676.0,0.696
677.0,0.6892
678.0,0.6912
679.0,0.6801
680.0,0.6856
681.0,0.6811
682.0,0.6803
683.0,0.679
684.0,0.6756
685.0,0.6815
686.0,0.6773
687.0,0.427
688.0,0.511
689.0,0.5132
690.0,0.5419
691.0,0.5745
692.0,0.5988
693.0,0.5936
694.0,0.5887
695.0,0.6159
696.0,0.6169
697.0,0.6581
698.0,0.6477
699.0,0.63
700.0,0.6223
701.0,0.6152
702.0,0.6203
703.0,0.6216
704.0,0.6428
705.0,0.6438
706.0,0.6438
707.0,0.6444
708.0,0.6458
709.0,0.6476
710.0,0.6471
711.0,0.6465
712.0,0.645
713.0,0.6381
714.0,0.6406
715.0,0.6195
716.0,0.6196
717.0,0.5291
718.0,0.4849
719.0,0.4434
720.0,0.4637
721.0,0.5169
722.0,0.5967
723.0,0.5528
724.0,0.4948
725.0,0.4857
726.0,0.5089
727.0,0.5182
728.0,0.4841
729.0,0.5052
730.0,0.5344
731.0,0.5105
732.0,0.5491
733.0,0.5843
734.0,0.599
735.0,0.5861
736.0,0.5854
737.0,0.5876
738.0,0.5988
739.0,0.587
740.0,0.6029
741.0,0.5973
742.0,0.5982
743.0,0.6136
744.0,0.6121
745.0,0.6124
746.0,0.6152
747.0,0.6166
748.0,0.6153
749.0,0.6083
750.0,0.608
751.0,0.6018
752.0,0.6044
753.0,0.6075
754.0,0.6089
755.0,0.6054
756.0,0.6052
757.0,0.6061
758.0,0.5985
759.0,0.5851
760.0,0.07706
761.0,0.03712
762.0,0.2747
763.0,0.1247
764.0,0.1982
765.0,0.2746
766.0,0.3485
767.0,0.4517
768.0,0.5312
769.0,0.5446
770.0,0.5657
771.0,0.5714
772.0,0.573
773.0,0.5771
774.0,0.5744
775.0,0.5701
776.0,0.577
777.0,0.5694
778.0,0.566
779.0,0.5664
780.0,0.5633
781.0,0.5639
782.0,0.5674
783.0,0.5576
784.0,0.5603
785.0,0.5561
786.0,0.5621
787.0,0.5513
788.0,0.5439
789.0,0.5436
790.0,0.5277
791.0,0.5337
792.0,0.53
793.0,0.5212
794.0,0.5317
795.0,0.5402
796.0,0.5216
797.0,0.5222
798.0,0.5394
799.0,0.5355
800.0,0.5258
801.0,0.5237
802.0,0.5222
803.0,0.518
804.0,0.5189
805.0,0.5178
806.0,0.5334
807.0,0.5267
808.0,0.5273
809.0,0.5166
810.0,0.5119
811.0,0.5115
812.0,0.4955
813.0,0.4844
814.0,0.4219
815.0,0.4195
816.0,0.3899
817.0,0.3975
818.0,0.3816
819.0,0.4304
820.0,0.4039
821.0,0.4774
822.0,0.4629
823.0,0.3065
824.0,0.4475
825.0,0.469
826.0,0.4496
827.0,0.4762
828.0,0.3987
829.0,0.4472
830.0,0.4408
831.0,0.4425
832.0,0.428
833.0,0.4578
834.0,0.44
835.0,0.487
836.0,0.4638
837.0,0.4885
838.0,0.4721
839.0,0.4814
840.0,0.4922
841.0,0.4847
842.0,0.4865
843.0,0.4871
844.0,0.4799
845.0,0.4967
846.0,0.4946
847.0,0.4857
848.0,0.4823
849.0,0.4686
850.0,0.449
851.0,0.475
852.0,0.4718
853.0,0.4545
854.0,0.3921
855.0,0.4312
856.0,0.471
857.0,0.4818
858.0,0.4781
859.0,0.4787
860.0,0.4797
861.0,0.477
862.0,0.4846
863.0,0.496
864.0,0.4713
865.0,0.4672
866.0,0.4201
867.0,0.4384
868.0,0.4771
869.0,0.4672
870.0,0.4805
871.0,0.474
872.0,0.4723
873.0,0.4714
874.0,0.4658
875.0,0.4563
876.0,0.461
877.0,0.4657
878.0,0.4707
879.0,0.4635
880.0,0.4536
881.0,0.4466
882.0,0.4561
883.0,0.4578
884.0,0.4556
885.0,0.459
886.0,0.4368
887.0,0.442
888.0,0.4481
889.0,0.4539
890.0,0.4493
891.0,0.4489
892.0,0.435
893.0,0.4203
894.0,0.4033
895.0,0.3783
896.0,0.3554
897.0,0.3017
898.0,0.3312
899.0,0.2478
900.0,0.3413
901.0,0.2597
902.0,0.3104
903.0,0.3116
904.0,0.4002
905.0,0.3853
906.0,0.3597
907.0,0.2868
908.0,0.2933
909.0,0.3202
910.0,0.2786
911.0,0.3
912.0,0.3144
913.0,0.2826
914.0,0.281
915.0,0.3047
916.0,0.2569
917.0,0.3308
918.0,0.2631
919.0,0.3381
920.0,0.3444
921.0,0.3584
922.0,0.3171
923.0,0.3464
924.0,0.3244
925.0,0.3174
926.0,0.3206
927.0,0.3623
928.0,0.2562
929.0,0.2313
930.0,0.1776
931.0,0.1688
932.0,0.1172
933.0,0.09317
934.0,0.04666
935.0,0.09709
936.0,0.05777
937.0,0.05828
938.0,0.07277
939.0,0.1635
940.0,0.1997
941.0,0.1466
942.0,0.1722
943.0,0.1101
944.0,0.119
945.0,0.152
946.0,0.07305
947.0,0.1516
948.0,0.1108
949.0,0.2071
950.0,0.0512
951.0,0.2047
952.0,0.1044
953.0,0.1385
954.0,0.174
955.0,0.1405
956.0,0.1394
957.0,0.1041
958.0,0.2029
959.0,0.1564
960.0,0.1753
961.0,0.2006
962.0,0.1894
963.0,0.2216
964.0,0.202
965.0,0.221
966.0,0.2203
967.0,0.219
968.0,0.3058
969.0,0.3181
970.0,0.2907
971.0,0.338
972.0,0.3223
973.0,0.2752
974.0,0.2606
975.0,0.2725
976.0,0.2558
977.0,0.297
978.0,0.2797
979.0,0.2946
980.0,0.276
981.0,0.3363
982.0,0.3196
983.0,0.3057
984.0,0.3488
985.0,0.3183
986.0,0.3563
987.0,0.3477
988.0,0.3471
989.0,0.3561
990.0,0.345
991.0,0.357
992.0,0.3592
993.0,0.3496
994.0,0.3593
995.0,0.3591
996.0,0.3572
997.0,0.3579
998.0,0.3561
999.0,0.3549
1000.0,0.352
1001.0,0.3568
1002.0,0.3454
1003.0,0.3504
1004.0,0.3414
1005.0,0.3295
1006.0,0.3421
1007.0,0.3495
1008.0,0.3473
1009.0,0.3451
1010.0,0.3435
1011.0,0.3477
1012.0,0.3444
1013.0,0.347
1014.0,0.3445
1015.0,0.3422
1016.0,0.3406
1017.0,0.3414
1018.0,0.3404
1019.0,0.3325
1020.0,0.3385
1021.0,0.3381
1022.0,0.3353
1023.0,0.3388
1024.0,0.3338
1025.0,0.3388
1026.0,0.3372
1027.0,0.3364
1028.0,0.3356
1029.0,0.3316
1030.0,0.3341
1031.0,0.3327
1032.0,0.3318
1033.0,0.3268
1034.0,0.3268
1035.0,0.3278
1036.0,0.3295
1037.0,0.3241
1038.0,0.3255
1039.0,0.3253
1040.0,0.324
1041.0,0.3252
1042.0,0.323
1043.0,0.3219
1044.0,0.323
1045.0,0.3186
1046.0,0.315
1047.0,0.3178
1048.0,0.3195
1049.0,0.3183
1050.0,0.3168
1051.0,0.3163
1052.0,0.3149
1053.0,0.3124
1054.0,0.313
1055.0,0.313
1056.0,0.3118
1057.0,0.3108
1058.0,0.3031
1059.0,0.3033
1060.0,0.3028
1061.0,0.3024
1062.0,0.3039
1063.0,0.3008
1064.0,0.3044
1065.0,0.302
1066.0,0.2962
1067.0,0.2999
1068.0,0.2932
1069.0,0.2843
1070.0,0.2938
1071.0,0.2989
1072.0,0.295
1073.0,0.2909
1074.0,0.299
1075.0,0.2824
1076.0,0.2986
1077.0,0.2924
1078.0,0.2865
1079.0,0.2941
1080.0,0.2879
1081.0,0.2779
1082.0,0.2837
1083.0,0.2849
1084.0,0.2768
1085.0,0.2887
1086.0,0.2611
1087.0,0.2712
1088.0,0.2844
1089.0,0.2741
1090.0,0.2671
1091.0,0.283
1092.0,0.2826
1093.0,0.2353
1094.0,0.258
1095.0,0.2456
1096.0,0.2339
1097.0,0.2761
1098.0,0.2297
1099.0,0.2403
1100.0,0.2215
1101.0,0.2249
1102.0,0.2136
1103.0,0.2106
1104.0,0.211
1105.0,0.2344
1106.0,0.172
1107.0,0.2212
1108.0,0.1832
1109.0,0.1844
1110.0,0.2186
1111.0,0.1426
1112.0,0.1833
1113.0,0.1109
1114.0,0.1244
1115.0,0.1028
1116.0,0.07873
1117.0,0.02549
1118.0,0.08674
1119.0,0.04015
1120.0,0.05026
1121.0,0.06841
1122.0,0.02635
1123.0,0.04555
1124.0,0.03841
1125.0,0.05082
1126.0,0.01532
1127.0,0.05755
1128.0,0.03179
1129.0,0.03407
1130.0,0.02157
1131.0,0.1157
1132.0,0.08954
1133.0,0.05316
1134.0,0.01175
1135.0,0.004518
1136.0,0.0431
1137.0,0.1124
1138.0,0.07854
1139.0,0.1243
1140.0,0.1011
1141.0,0.0747
1142.0,0.08735
1143.0,0.1271
1144.0,0.04101
1145.0,0.05134
1146.0,0.05532
1147.0,0.01705
1148.0,0.1098
1149.0,0.08552
1150.0,0.04456
1151.0,0.0779
1152.0,0.0984
1153.0,0.09784
1154.0,0.04954
1155.0,0.1296
1156.0,0.1153
1157.0,0.1318
1158.0,0.1303
1159.0,0.1423
1160.0,0.1198
1161.0,0.1515
1162.0,0.152
1163.0,0.2118
1164.0,0.1793
1165.0,0.1668
1166.0,0.1674
1167.0,0.1835
1168.0,0.185
1169.0,0.1901
1170.0,0.2085
1171.0,0.2032
1172.0,0.208
1173.0,0.2081
1174.0,0.1441
1175.0,0.2042
1176.0,0.2269
1177.0,0.2162
1178.0,0.159
1179.0,0.2288
1180.0,0.2016
1181.0,0.2082
1182.0,0.14
1183.0,0.2056
1184.0,0.1915
1185.0,0.1837
1186.0,0.2214
1187.0,0.2097
1188.0,0.1419
1189.0,0.1952
1190.0,0.2165
1191.0,0.2035
1192.0,0.2197
1193.0,0.2099
1194.0,0.2168
1195.0,0.2036
1196.0,0.1952
1197.0,0.2176
1198.0,0.1982
1199.0,0.1656
1200.0,0.2071
1201.0,0.1987
1202.0,0.1983
1203.0,0.1963
1204.0,0.1702
1205.0,0.2038
1206.0,0.2267
1207.0,0.1974
1208.0,0.1952
1209.0,0.1995
1210.0,0.2085
1211.0,0.1974
1212.0,0.1936
1213.0,0.2185
1214.0,0.1989
1215.0,0.1948
1216.0,0.2179
1217.0,0.2116
1218.0,0.2161
1219.0,0.2131
1220.0,0.2164
1221.0,0.2188
1222.0,0.2129
1223.0,0.2107
1224.0,0.2089
1225.0,0.2174
1226.0,0.2192
1227.0,0.2008
1228.0,0.2207
1229.0,0.2193
1230.0,0.2153
1231.0,0.2223
1232.0,0.221
1233.0,0.2122
1234.0,0.2224
1235.0,0.2208
1236.0,0.2226
1237.0,0.2189
1238.0,0.2218
1239.0,0.219
1240.0,0.2198
1241.0,0.2185
1242.0,0.2183
1243.0,0.2165
1244.0,0.218
1245.0,0.219
1246.0,0.2177
1247.0,0.2168
1248.0,0.2165
1249.0,0.2173
1250.0,0.2159
1251.0,0.2129
1252.0,0.2132
1253.0,0.2111
1254.0,0.2086
1255.0,0.2129
1256.0,0.2061
1257.0,0.2048
1258.0,0.2093
1259.0,0.2005
1260.0,0.2017
1261.0,0.1888
1262.0,0.1824
1263.0,0.1827
1264.0,0.1668
1265.0,0.1815
1266.0,0.1736
1267.0,0.1774
1268.0,0.167
1269.0,0.09597
1270.0,0.1764
1271.0,0.1884
1272.0,0.1892
1273.0,0.187
1274.0,0.1878
1275.0,0.1908
1276.0,0.193
1277.0,0.1946
1278.0,0.199
1279.0,0.1971
1280.0,0.1947
1281.0,0.1861
1282.0,0.1797
1283.0,0.1935
1284.0,0.198
1285.0,0.1994
1286.0,0.2024
1287.0,0.1988
1288.0,0.1988
1289.0,0.1916
1290.0,0.1972
1291.0,0.2001
1292.0,0.1862
1293.0,0.1958
1294.0,0.1943
1295.0,0.1928
1296.0,0.183
1297.0,0.1723
1298.0,0.1872
1299.0,0.1962
1300.0,0.1631
1301.0,0.1687
1302.0,0.1866
1303.0,0.1613
1304.0,0.1348
1305.0,0.1826
1306.0,0.1824
1307.0,0.1387
1308.0,0.162
1309.0,0.1807
1310.0,0.1359
1311.0,0.1547
1312.0,0.15
1313.0,0.1466
1314.0,0.1302
1315.0,0.1279
1316.0,0.1517
1317.0,0.1434
1318.0,0.157
1319.0,0.1193
1320.0,0.1163
1321.0,0.1367
1322.0,0.1374
1323.0,0.1006
1324.0,0.1171
1325.0,0.1493
1326.0,0.1263
1327.0,0.12
1328.0,0.1025
1329.0,0.07449
1330.0,0.09825
1331.0,0.05637
1332.0,0.05917
1333.0,0.083
1334.0,0.07191
1335.0,0.1001
1336.0,0.07758
1337.0,0.06788
1338.0,0.0734
1339.0,0.07351
1340.0,0.07233
1341.0,0.06869
1342.0,0.07234
1343.0,0.04533
1344.0,0.02743
1345.0,0.03961
1346.0,0.01752
1347.0,0.01744
1348.0,0.0008716
1349.0,0.003363
1350.0,0.003675
1351.0,0.0007043
1352.0,0.0001445
1353.0,5.67e-06
1354.0,2.348e-05
1355.0,1.07e-07
1356.0,2.728e-06
1357.0,4.174e-06
1358.0,1.298e-07
1359.0,1.054e-08
1360.0,5.079e-08
1361.0,2.298e-11
1362.0,4.414e-14
1363.0,5.866e-08
1364.0,2.433e-08
1365.0,9.481e-15
1366.0,2.878e-07
1367.0,1.305e-07
1368.0,3.043e-17
1369.0,8.949e-09
1370.0,3.666e-09
1371.0,1.686e-10
1372.0,7.233e-08
1373.0,1.948e-06
1374.0,1.107e-05
1375.0,1.965e-05
1376.0,2.139e-05
1377.0,9.401e-06
1378.0,9.898e-05
1379.0,3.945e-06
1380.0,4.977e-06
1381.0,1.172e-07
1382.0,6.179e-08
1383.0,8.026e-10
1384.0,9.353e-09
1385.0,7.268e-08
1386.0,4.814e-08
1387.0,9.995e-06
1388.0,2.04e-07
1389.0,4.298e-05
1390.0,3.66e-05
1391.0,2.361e-05
1392.0,1.461e-06
1393.0,8.612e-06
1394.0,3.16e-06
1395.0,1.89e-08
1396.0,3.747e-11
1397.0,3.17e-06
1398.0,0.0001082
1399.0,6.937e-05
1400.0,1.267e-11
1401.0,7.357e-11
1402.0,0.0002601
1403.0,0.0003084
1404.0,9.152e-05
1405.0,7.846e-09
1406.0,0.0002155
1407.0,2.09e-05
1408.0,0.0001797
1409.0,5.107e-05
1410.0,4.635e-05
1411.0,0.0002745
1412.0,0.0004012
1413.0,0.005179
1414.0,3.743e-05
1415.0,1.667e-05
1416.0,0.009943
1417.0,0.002574
1418.0,0.002819
1419.0,0.0004213
1420.0,0.001712
1421.0,0.001885
1422.0,0.01306
1423.0,0.002426
1424.0,0.00468
1425.0,0.006641
1426.0,0.008101
1427.0,0.01615
1428.0,0.0007985
1429.0,0.01142
1430.0,0.02118
1431.0,0.02371
1432.0,0.0006212
1433.0,0.01449
1434.0,0.007086
1435.0,0.00613
1436.0,0.01327
1437.0,0.01022
1438.0,0.003922
1439.0,0.01868
