interpolation:linear
wavelength,value
280.0,6.816e-21
280.5,2.078e-19
281.0,1.087e-18
281.5,5.102e-19
282.0,1.438e-18
282.5,3.741e-18
283.0,1.197e-17
283.5,1.95e-17
284.0,3.086e-16
284.5,8.803e-16
285.0,1.791e-15
285.5,9.219e-15
286.0,3.736e-14
286.5,1.671e-13
287.0,4.755e-13
287.5,1.803e-12
288.0,4.694e-12
288.5,1.644e-11
289.0,4.876e-11
289.5,1.604e-10
290.0,4.71e-10
290.5,1.001e-09
291.0,2.243e-09
291.5,6.897e-09
292.0,1.681e-08
292.5,2.622e-08
293.0,6.456e-08
293.5,1.91e-07
294.0,3.45e-07
294.5,4.543e-07
295.0,8.896e-07
295.5,2.431e-06
296.0,4.844e-06
296.5,7.006e-06
297.0,9.759e-06
297.5,2.736e-05
298.0,4.487e-05
298.5,4.66e-05
299.0,0.0001061
299.5,0.0001866
300.0,0.0002125
300.5,0.0003198
301.0,0.0006188
301.5,0.00106
302.0,0.000947
302.5,0.001842
303.0,0.003285
303.5,0.004116
304.0,0.003851
304.5,0.005679
305.0,0.008459
305.5,0.009576
306.0,0.009228
306.5,0.0114
307.0,0.01662
307.5,0.02172
308.0,0.02288
308.5,0.02678
309.0,0.0262
309.5,0.0296
310.0,0.02956
310.5,0.04774
311.0,0.05963
311.5,0.05745
312.0,0.05681
312.5,0.06861
313.0,0.07413
313.5,0.07226
314.0,0.08952
314.5,0.0784
315.0,0.1028
315.5,0.08654
316.0,0.07482
316.5,0.1065
317.0,0.1322
317.5,0.138
318.0,0.107
318.5,0.1313
319.0,0.1548
319.5,0.1275
320.0,0.1543
320.5,0.1907
321.0,0.1679
321.5,0.1608
322.0,0.1735
322.5,0.1509
323.0,0.1491
323.5,0.1819
324.0,0.212
324.5,0.216
325.0,0.1874
325.5,0.2394
326.0,0.2922
326.5,0.2914
327.0,0.2909
327.5,0.2816
328.0,0.2523
328.5,0.2633
329.0,0.3134
329.5,0.3551
330.0,0.3588
330.5,0.2885
331.0,0.2944
331.5,0.2983
332.0,0.3207
332.5,0.3165
333.0,0.316
333.5,0.2871
334.0,0.2944
334.5,0.3383
335.0,0.3171
335.5,0.3704
336.0,0.2563
336.5,0.3006
337.0,0.2471
337.5,0.3075
338.0,0.2993
338.5,0.3454
339.0,0.3419
339.5,0.3289
340.0,0.3867
340.5,0.3485
341.0,0.3399
341.5,0.3121
342.0,0.373
342.5,0.349
343.0,0.3839
343.5,0.3615
344.0,0.2672
344.5,0.27
345.0,0.3572
345.5,0.3648
346.0,0.31
346.5,0.3511
347.0,0.377
347.5,0.3049
348.0,0.3476
348.5,0.3474
349.0,0.3224
349.5,0.3192
350.0,0.3949
350.5,0.4166
351.0,0.3722
351.5,0.3618
352.0,0.3887
352.5,0.3033
353.0,0.3821
353.5,0.4087
354.0,0.4243
354.5,0.4303
355.0,0.429
355.5,0.3876
356.0,0.4056
356.5,0.3464
357.0,0.2862
357.5,0.3504
358.0,0.2778
358.5,0.2374
359.0,0.3321
359.5,0.4233
360.0,0.4488
360.5,0.3587
361.0,0.3271
361.5,0.3767
362.0,0.3258
362.5,0.451
363.0,0.4051
363.5,0.3733
364.0,0.4566
364.5,0.3903
365.0,0.3976
365.5,0.4991
366.0,0.5289
366.5,0.497
367.0,0.4841
367.5,0.5025
368.0,0.4398
368.5,0.4439
369.0,0.4794
369.5,0.5111
370.0,0.5449
370.5,0.423
371.0,0.4521
371.5,0.5657
372.0,0.3755
372.5,0.4503
373.0,0.4582
373.5,0.2982
374.0,0.4333
374.5,0.3589
375.0,0.349
375.5,0.5211
376.0,0.432
376.5,0.4478
377.0,0.4742
377.5,0.5548
378.0,0.6015
378.5,0.5686
379.0,0.4693
379.5,0.4288
380.0,0.4458
380.5,0.5401
381.0,0.5414
381.5,0.4292
382.0,0.3813
382.5,0.3251
383.0,0.301
383.5,0.29
384.0,0.32
384.5,0.4707
385.0,0.4669
385.5,0.4349
386.0,0.3725
386.5,0.4894
387.0,0.4068
387.5,0.4569
388.0,0.422
388.5,0.4172
389.0,0.4504
389.5,0.5456
390.0,0.5477
390.5,0.5041
391.0,0.5935
391.5,0.6054
392.0,0.51
392.5,0.4567
393.0,0.2542
393.5,0.1848
394.0,0.3761
394.5,0.4782
395.0,0.5836
395.5,0.5929
396.0,0.5142
396.5,0.3006
397.0,0.2257
397.5,0.459
398.0,0.6428
398.5,0.6645
399.0,0.7197
399.5,0.7175
400.0,0.7451
401.0,0.756
402.0,0.7978
403.0,0.7581
404.0,0.7466
405.0,0.7467
406.0,0.7348
407.0,0.7231
408.0,0.7515
409.0,0.8045
410.0,0.7032
411.0,0.7618
412.0,0.8184
413.0,0.7983
414.0,0.8082
415.0,0.8106
416.0,0.8249
417.0,0.8048
418.0,0.7901
419.0,0.8006
420.0,0.7972
421.0,0.8342
422.0,0.793
423.0,0.7748
424.0,0.8196
425.0,0.8182
426.0,0.7972
427.0,0.7824
428.0,0.7623
429.0,0.7221
430.0,0.6321
431.0,0.6266
432.0,0.8091
433.0,0.8137
434.0,0.7557
435.0,0.7893
436.0,0.8894
437.0,0.8776
438.0,0.7993
439.0,0.8267
440.0,0.8531
441.0,0.8841
442.0,0.9483
443.0,0.9238
444.0,0.9439
445.0,0.9235
446.0,0.8815
447.0,0.953
448.0,0.968
449.0,0.9719
450.0,0.9992
451.0,1.036
452.0,0.9985
453.0,0.9392
454.0,0.9806
455.0,0.9867
456.0,1.01
457.0,1.027
458.0,0.9921
459.0,0.987
460.0,0.9897
461.0,1.013
462.0,1.02
463.0,1.013
464.0,0.9967
465.0,0.9841
466.0,0.9937
467.0,0.9756
468.0,0.9871
469.0,0.9923
470.0,0.9607
471.0,0.9595
472.0,1.011
473.0,0.9979
474.0,0.9994
475.0,1.008
476.0,0.9779
477.0,0.9807
478.0,1.008
479.0,1.002
480.0,1.004
481.0,1.022
482.0,1.028
483.0,1.015
484.0,0.9945
485.0,0.9476
486.0,0.8283
487.0,0.8681
488.0,0.9524
489.0,0.9554
490.0,1.005
491.0,0.9878
492.0,0.9329
493.0,0.9634
494.0,0.9731
495.0,0.9814
496.0,0.9874
497.0,1.003
498.0,0.9559
499.0,0.9681
500.0,0.9399
501.0,0.9227
502.0,0.9098
503.0,0.9469
504.0,0.9229
505.0,0.9559
506.0,0.9868
507.0,0.939
508.0,0.9097
509.0,0.9352
510.0,0.9302
511.0,0.9552
512.0,0.9655
513.0,0.9139
514.0,0.9076
515.0,0.8986
516.0,0.8964
517.0,0.7965
518.0,0.8374
519.0,0.8783
520.0,0.9103
521.0,0.9189
522.0,0.9197
523.0,0.9032
524.0,0.9355
525.0,0.9466
526.0,0.9042
527.0,0.8521
528.0,0.9012
529.0,0.9499
530.0,0.9363
531.0,0.9502
532.0,0.9175
533.0,0.8907
534.0,0.917
535.0,0.937
536.0,0.9456
537.0,0.9083
538.0,0.9243
539.0,0.9166
540.0,0.8788
541.0,0.8846
542.0,0.9123
543.0,0.9027
544.0,0.9184
545.0,0.9155
546.0,0.9196
547.0,0.9191
548.0,0.9082
549.0,0.9109
550.0,0.9217
551.0,0.9105
552.0,0.9169
553.0,0.9005
554.0,0.922
555.0,0.9239
556.0,0.9119
557.0,0.8835
558.0,0.8769
559.0,0.8605
560.0,0.8712
561.0,0.8825
562.0,0.8761
563.0,0.9001
564.0,0.8756
565.0,0.868
566.0,0.8553
567.0,0.8715
568.0,0.8637
569.0,0.8431
570.0,0.8429
571.0,0.8378
572.0,0.858
573.0,0.8671
574.0,0.8644
575.0,0.8482
576.0,0.8405
577.0,0.8496
578.0,0.8369
579.0,0.8402
580.0,0.8562
581.0,0.8606
582.0,0.8769
583.0,0.8791
584.0,0.8867
585.0,0.8651
586.0,0.8473
587.0,0.8659
588.0,0.8448
589.0,0.7484
590.0,0.7826
591.0,0.8282
592.0,0.8177
593.0,0.8299
594.0,0.8241
595.0,0.8037
596.0,0.8355
597.0,0.8264
598.0,0.8243
599.0,0.825
600.0,0.8263
601.0,0.8195
602.0,0.814
603.0,0.8274
604.0,0.8411
605.0,0.8368
606.0,0.8334
607.0,0.8416
608.0,0.8323
609.0,0.8338
610.0,0.8278
611.0,0.8322
612.0,0.8297
613.0,0.8193
614.0,0.8081
615.0,0.8257
616.0,0.7985
617.0,0.7969
618.0,0.8276
619.0,0.8192
620.0,0.8244
621.0,0.8252
622.0,0.8155
623.0,0.8031
624.0,0.7893
625.0,0.7876
626.0,0.7992
627.0,0.8081
628.0,0.7544
629.0,0.7889
630.0,0.7707
631.0,0.7882
632.0,0.7788
633.0,0.8025
634.0,0.7948
635.0,0.8072
636.0,0.7965
637.0,0.8096
638.0,0.8174
639.0,0.8082
640.0,0.8004
641.0,0.7999
642.0,0.7963
643.0,0.807
644.0,0.8044
645.0,0.8057
646.0,0.7868
647.0,0.7774
648.0,0.7781
649.0,0.7631
650.0,0.7669
651.0,0.8001
652.0,0.7667
653.0,0.7895
654.0,0.7807
655.0,0.7516
656.0,0.6662
657.0,0.6841
658.0,0.7667
659.0,0.7722
660.0,0.7755
661.0,0.7809
662.0,0.7825
663.0,0.767
664.0,0.7761
665.0,0.7768
666.0,0.7774
667.0,0.7767
668.0,0.777
669.0,0.7891
670.0,0.7857
671.0,0.7855
672.0,0.7788
673.0,0.7905
674.0,0.7876
675.0,0.7804
676.0,0.7857
677.0,0.778
678.0,0.7802
679.0,0.7676
680.0,0.7737
681.0,0.7686
682.0,0.7676
683.0,0.7662
684.0,0.7624
685.0,0.7689
686.0,0.7643
687.0,0.506
688.0,0.5937
689.0,0.5959
690.0,0.6252
691.0,0.6583
692.0,0.6825
693.0,0.6769
694.0,0.6712
695.0,0.6992
696.0,0.7002
697.0,0.7433
698.0,0.7317
699.0,0.7141
700.0,0.7054
701.0,0.6982
702.0,0.7031
703.0,0.7044
704.0,0.7271
705.0,0.7281
706.0,0.7275
707.0,0.7281
708.0,0.7297
709.0,0.7308
710.0,0.7307
711.0,0.7297
712.0,0.7276
713.0,0.7202
714.0,0.7229
715.0,0.7001
716.0,0.7004
717.0,0.607
718.0,0.5574
719.0,0.5105
720.0,0.5347
721.0,0.5907
722.0,0.6761
723.0,0.6292
724.0,0.5667
725.0,0.5575
726.0,0.5837
727.0,0.5921
728.0,0.5561
729.0,0.5771
730.0,0.6107
731.0,0.5842
732.0,0.6251
733.0,0.6619
734.0,0.6777
735.0,0.6636
736.0,0.6628
737.0,0.6654
738.0,0.6758
739.0,0.6625
740.0,0.6798
741.0,0.673
742.0,0.6737
743.0,0.6909
744.0,0.6889
745.0,0.6891
746.0,0.6922
747.0,0.6937
748.0,0.6923
749.0,0.6844
750.0,0.684
751.0,0.6771
752.0,0.68
753.0,0.6834
754.0,0.685
755.0,0.6811
756.0,0.6808
757.0,0.6818
758.0,0.6733
759.0,0.6595
760.0,0.1073
761.0,0.05574
762.0,0.3344
763.0,0.1651
764.0,0.25
765.0,0.3344
766.0,0.4122
767.0,0.5217
768.0,0.6035
769.0,0.6164
770.0,0.6378
771.0,0.6431
772.0,0.6445
773.0,0.649
774.0,0.6459
775.0,0.641
776.0,0.6488
777.0,0.6402
778.0,0.6363
779.0,0.6369
780.0,0.6333
781.0,0.634
782.0,0.6379
783.0,0.6268
784.0,0.6298
785.0,0.6251
786.0,0.632
787.0,0.6209
788.0,0.6131
789.0,0.6128
790.0,0.5964
791.0,0.6017
792.0,0.5973
793.0,0.5876
794.0,0.5978
795.0,0.6079
796.0,0.589
797.0,0.5897
798.0,0.6071
799.0,0.6032
800.0,0.5927
801.0,0.5908
802.0,0.5891
803.0,0.5846
804.0,0.5854
805.0,0.5836
806.0,0.6001
807.0,0.5929
808.0,0.5934
809.0,0.5822
810.0,0.5774
811.0,0.5779
812.0,0.5612
813.0,0.5495
814.0,0.4828
815.0,0.4799
816.0,0.4466
817.0,0.4548
818.0,0.4377
819.0,0.4898
820.0,0.4611
821.0,0.5397
822.0,0.5241
823.0,0.3553
824.0,0.5086
825.0,0.5303
826.0,0.51
827.0,0.5384
828.0,0.4558
829.0,0.5069
830.0,0.5002
831.0,0.502
832.0,0.4864
833.0,0.5179
834.0,0.4993
835.0,0.5491
836.0,0.5252
837.0,0.5507
838.0,0.5333
839.0,0.5424
840.0,0.5544
841.0,0.5464
842.0,0.5477
843.0,0.5476
844.0,0.5399
845.0,0.5582
846.0,0.5558
847.0,0.5455
848.0,0.5421
849.0,0.5266
850.0,0.5046
851.0,0.5341
852.0,0.5304
853.0,0.5106
854.0,0.4408
855.0,0.4844
856.0,0.5293
857.0,0.5412
858.0,0.5372
859.0,0.5377
860.0,0.5387
861.0,0.5357
862.0,0.5442
863.0,0.557
864.0,0.5292
865.0,0.5246
866.0,0.4717
867.0,0.4922
868.0,0.5356
869.0,0.5245
870.0,0.5395
871.0,0.5321
872.0,0.5303
873.0,0.5292
874.0,0.5229
875.0,0.5123
876.0,0.5176
877.0,0.5229
878.0,0.5285
879.0,0.5204
880.0,0.5092
881.0,0.5015
882.0,0.5124
883.0,0.514
884.0,0.5117
885.0,0.5155
886.0,0.4911
887.0,0.4965
888.0,0.5037
889.0,0.5096
890.0,0.5051
891.0,0.5044
892.0,0.4895
893.0,0.4739
894.0,0.4565
895.0,0.4305
896.0,0.4053
897.0,0.347
898.0,0.3793
899.0,0.2872
900.0,0.389
901.0,0.301
902.0,0.355
903.0,0.358
904.0,0.4531
905.0,0.4372
906.0,0.4088
907.0,0.3304
908.0,0.3372
909.0,0.3661
910.0,0.3223
911.0,0.3445
912.0,0.3604
913.0,0.327
914.0,0.3245
915.0,0.3518
916.0,0.2974
917.0,0.3791
918.0,0.3049
919.0,0.3864
920.0,0.3913
921.0,0.4071
922.0,0.3628
923.0,0.3933
924.0,0.3716
925.0,0.3636
926.0,0.3674
927.0,0.4125
928.0,0.2992
929.0,0.2722
930.0,0.2123
931.0,0.2014
932.0,0.1433
933.0,0.1155
934.0,0.06142
935.0,0.119
936.0,0.07306
937.0,0.07391
938.0,0.09138
939.0,0.1951
940.0,0.2359
941.0,0.1763
942.0,0.2053
943.0,0.1336
944.0,0.142
945.0,0.1822
946.0,0.09084
947.0,0.1825
948.0,0.1338
949.0,0.2461
950.0,0.06553
951.0,0.2427
952.0,0.1279
953.0,0.1668
954.0,0.2064
955.0,0.169
956.0,0.1652
957.0,0.1279
958.0,0.2365
959.0,0.1858
960.0,0.2083
961.0,0.2354
962.0,0.2226
963.0,0.258
964.0,0.2359
965.0,0.2572
966.0,0.2569
967.0,0.2556
968.0,0.3479
969.0,0.3629
970.0,0.3326
971.0,0.383
972.0,0.3659
973.0,0.3163
974.0,0.2999
975.0,0.3122
976.0,0.2952
977.0,0.3384
978.0,0.3204
979.0,0.3363
980.0,0.3158
981.0,0.3808
982.0,0.3633
983.0,0.3483
984.0,0.3933
985.0,0.3619
986.0,0.4008
987.0,0.3923
988.0,0.3916
989.0,0.4
990.0,0.3893
991.0,0.4011
992.0,0.4035
993.0,0.3938
994.0,0.4034
995.0,0.403
996.0,0.4011
997.0,0.4018
998.0,0.3998
999.0,0.3984
1000.0,0.3954
1001.0,0.4006
1002.0,0.3889
1003.0,0.3934
1004.0,0.3836
1005.0,0.3698
1006.0,0.3841
1007.0,0.3923
1008.0,0.3901
1009.0,0.3879
1010.0,0.3862
1011.0,0.3904
1012.0,0.3869
1013.0,0.3895
1014.0,0.3867
1015.0,0.3842
1016.0,0.3824
1017.0,0.3834
1018.0,0.382
1019.0,0.3736
1020.0,0.3799
1021.0,0.3795
1022.0,0.3764
1023.0,0.3804
1024.0,0.3752
1025.0,0.3802
1026.0,0.3785
1027.0,0.3777
1028.0,0.3769
1029.0,0.3724
1030.0,0.375
1031.0,0.3735
1032.0,0.3724
1033.0,0.3668
1034.0,0.3668
1035.0,0.368
1036.0,0.3699
1037.0,0.3639
1038.0,0.3655
1039.0,0.3652
1040.0,0.3638
1041.0,0.3652
1042.0,0.3626
1043.0,0.3615
1044.0,0.3627
1045.0,0.3578
1046.0,0.3538
1047.0,0.357
1048.0,0.3589
1049.0,0.3576
1050.0,0.3559
1051.0,0.3554
1052.0,0.3539
1053.0,0.3511
1054.0,0.3518
1055.0,0.352
1056.0,0.3507
1057.0,0.3496
1058.0,0.341
1059.0,0.3413
1060.0,0.3407
1061.0,0.3403
1062.0,0.3421
1063.0,0.3386
1064.0,0.3427
1065.0,0.3401
1066.0,0.3335
1067.0,0.3377
1068.0,0.3303
1069.0,0.3201
1070.0,0.3309
1071.0,0.3363
1072.0,0.3323
1073.0,0.3275
1074.0,0.3362
1075.0,0.3187
1076.0,0.3359
1077.0,0.3295
1078.0,0.3231
1079.0,0.3307
1080.0,0.3244
1081.0,0.3137
1082.0,0.3193
1083.0,0.3205
1084.0,0.3128
1085.0,0.3252
1086.0,0.2958
1087.0,0.306
1088.0,0.32
1089.0,0.3095
1090.0,0.3023
1091.0,0.3188
1092.0,0.3181
1093.0,0.2678
1094.0,0.2908
1095.0,0.2793
1096.0,0.2668
1097.0,0.3108
1098.0,0.2624
1099.0,0.2741
1100.0,0.2539
1101.0,0.2574
1102.0,0.2453
1103.0,0.2425
1104.0,0.2429
1105.0,0.2676
1106.0,0.2015
1107.0,0.2536
1108.0,0.213
1109.0,0.2138
1110.0,0.2511
1111.0,0.1677
1112.0,0.2123
1113.0,0.1325
1114.0,0.1483
1115.0,0.1229
1116.0,0.09649
1117.0,0.03373
1118.0,0.1055
1119.0,0.05095
1120.0,0.06403
1121.0,0.08584
1122.0,0.0349
1123.0,0.05792
1124.0,0.04887
1125.0,0.0641
1126.0,0.0211
1127.0,0.07242
1128.0,0.04199
1129.0,0.04474
1130.0,0.02895
1131.0,0.1406
1132.0,0.1097
1133.0,0.06775
1134.0,0.01634
1135.0,0.006179
1136.0,0.05589
1137.0,0.1375
1138.0,0.09653
1139.0,0.1474
1140.0,0.1218
1141.0,0.09176
1142.0,0.1063
1143.0,0.1523
1144.0,0.05155
1145.0,0.06538
1146.0,0.07049
1147.0,0.02354
1148.0,0.1317
1149.0,0.1042
1150.0,0.05562
1151.0,0.09576
1152.0,0.1191
1153.0,0.117
1154.0,0.0632
1155.0,0.1537
1156.0,0.1377
1157.0,0.1556
1158.0,0.1539
1159.0,0.1668
1160.0,0.1417
1161.0,0.1763
1162.0,0.1771
1163.0,0.2418
1164.0,0.2065
1165.0,0.1939
1166.0,0.1932
1167.0,0.2109
1168.0,0.213
1169.0,0.2184
1170.0,0.238
1171.0,0.232
1172.0,0.2366
1173.0,0.2375
1174.0,0.168
1175.0,0.2323
1176.0,0.2562
1177.0,0.2454
1178.0,0.1832
1179.0,0.2583
1180.0,0.2297
1181.0,0.2371
1182.0,0.1624
1183.0,0.2337
1184.0,0.2186
1185.0,0.2106
1186.0,0.2508
1187.0,0.2385
1188.0,0.165
1189.0,0.2222
1190.0,0.2451
1191.0,0.2322
1192.0,0.2486
1193.0,0.238
1194.0,0.2455
1195.0,0.2318
1196.0,0.223
1197.0,0.2458
1198.0,0.2246
1199.0,0.1902
1200.0,0.235
1201.0,0.2264
1202.0,0.2253
1203.0,0.2233
1204.0,0.1949
1205.0,0.2308
1206.0,0.2553
1207.0,0.2246
1208.0,0.2213
1209.0,0.2259
1210.0,0.2355
1211.0,0.224
1212.0,0.221
1213.0,0.2467
1214.0,0.2264
1215.0,0.2221
1216.0,0.246
1217.0,0.2393
1218.0,0.244
1219.0,0.2409
1220.0,0.2442
1221.0,0.2467
1222.0,0.2403
1223.0,0.238
1224.0,0.2364
1225.0,0.2451
1226.0,0.2469
1227.0,0.2274
1228.0,0.2482
1229.0,0.2469
1230.0,0.2426
1231.0,0.2497
1232.0,0.2482
1233.0,0.2394
1234.0,0.2496
1235.0,0.248
1236.0,0.2498
1237.0,0.2462
1238.0,0.249
1239.0,0.2458
1240.0,0.2467
1241.0,0.2455
1242.0,0.245
1243.0,0.243
1244.0,0.2447
1245.0,0.2458
1246.0,0.2443
1247.0,0.2434
1248.0,0.2432
1249.0,0.244
1250.0,0.2425
1251.0,0.2393
1252.0,0.2394
1253.0,0.2374
1254.0,0.2349
1255.0,0.2391
1256.0,0.2323
1257.0,0.2309
1258.0,0.2354
1259.0,0.2266
1260.0,0.2278
1261.0,0.2147
1262.0,0.2081
1263.0,0.2084
1264.0,0.192
1265.0,0.2071
1266.0,0.199
1267.0,0.2027
1268.0,0.192
1269.0,0.1172
1270.0,0.2019
1271.0,0.214
1272.0,0.2147
1273.0,0.2124
1274.0,0.2132
1275.0,0.2163
1276.0,0.2185
1277.0,0.22
1278.0,0.2244
1279.0,0.2224
1280.0,0.2196
1281.0,0.2096
1282.0,0.202
1283.0,0.2176
1284.0,0.2227
1285.0,0.2242
1286.0,0.2273
1287.0,0.2237
1288.0,0.2237
1289.0,0.2164
1290.0,0.2217
1291.0,0.2249
1292.0,0.2109
1293.0,0.2204
1294.0,0.2188
1295.0,0.2176
1296.0,0.2075
1297.0,0.1961
1298.0,0.2115
1299.0,0.2207
1300.0,0.1861
1301.0,0.192
1302.0,0.2108
1303.0,0.1837
1304.0,0.156
1305.0,0.2064
1306.0,0.2064
1307.0,0.1596
1308.0,0.1841
1309.0,0.2047
1310.0,0.1565
1311.0,0.1764
1312.0,0.1715
1313.0,0.168
1314.0,0.1501
1315.0,0.148
1316.0,0.1734
1317.0,0.1642
1318.0,0.1788
1319.0,0.1388
1320.0,0.1347
1321.0,0.1572
1322.0,0.1586
1323.0,0.1185
1324.0,0.1362
1325.0,0.1709
1326.0,0.1461
1327.0,0.1392
1328.0,0.1198
1329.0,0.08912
1330.0,0.1164
1331.0,0.06924
1332.0,0.07185
1333.0,0.1003
1334.0,0.08545
1335.0,0.118
1336.0,0.09278
1337.0,0.08174
1338.0,0.08846
1339.0,0.08823
1340.0,0.08611
1341.0,0.08339
1342.0,0.08766
1343.0,0.05795
1344.0,0.03479
1345.0,0.05024
1346.0,0.02406
1347.0,0.0243
1348.0,0.001455
1349.0,0.005349
1350.0,0.005648
1351.0,0.001277
1352.0,0.0003187
1353.0,1.501e-05
1354.0,5.46e-05
1355.0,3.722e-07
1356.0,7.295e-06
1357.0,1.114e-05
1358.0,4.439e-07
1359.0,4.93e-08
1360.0,1.942e-07
1361.0,1.661e-10
1362.0,4.07e-13
1363.0,2.526e-07
1364.0,1.042e-07
1365.0,1.234e-13
1366.0,1.143e-06
1367.0,4.798e-07
1368.0,7.172e-16
1369.0,3.87e-08
1370.0,1.81e-08
1371.0,9.641e-10
1372.0,2.643e-07
1373.0,5.822e-06
1374.0,2.873e-05
1375.0,5.204e-05
1376.0,4.93e-05
1377.0,2.23e-05
1378.0,0.0002241
1379.0,9.356e-06
1380.0,1.299e-05
1381.0,3.28e-07
1382.0,2.348e-07
1383.0,3.36e-09
1384.0,4.283e-08
1385.0,2.363e-07
1386.0,2.015e-07
1387.0,2.874e-05
1388.0,5.682e-07
1389.0,0.0001044
1390.0,8.966e-05
1391.0,5.911e-05
1392.0,3.773e-06
1393.0,2.069e-05
1394.0,9.702e-06
1395.0,6.674e-08
1396.0,2.484e-10
1397.0,8.05e-06
1398.0,0.00025
1399.0,0.0001589
1400.0,9.994e-11
1401.0,4.589e-10
1402.0,0.0004827
1403.0,0.0005968
1404.0,0.0001805
1405.0,3.103e-08
1406.0,0.0004567
1407.0,4.124e-05
1408.0,0.0003755
1409.0,0.0001198
1410.0,9.933e-05
1411.0,0.0005265
1412.0,0.0007284
1413.0,0.008108
1414.0,7.89e-05
1415.0,3.698e-05
1416.0,0.01407
1417.0,0.003998
1418.0,0.004504
1419.0,0.0006881
1420.0,0.002747
1421.0,0.002979
1422.0,0.01842
1423.0,0.003502
1424.0,0.006639
1425.0,0.009642
1426.0,0.01126
1427.0,0.02144
1428.0,0.001356
1429.0,0.01566
1430.0,0.02765
1431.0,0.03062
1432.0,0.001063
1433.0,0.01914
1434.0,0.009563
1435.0,0.008983
1436.0,0.01823
1437.0,0.01399
1438.0,0.00566
1439.0,0.02518
1440.0,0.01885
