interpolation:linear
wavelength,value
280.0,5.412e-23
280.5,1.819e-21
281.0,9.848e-21
281.5,3.199e-19
282.0,4.988e-19
282.5,1.165e-18
283.0,3.6e-18
283.5,5.844e-18
284.0,9.572e-17
284.5,2.808e-16
285.0,6.761e-16
285.5,2.91e-15
286.0,1.144e-14
286.5,4.978e-14
287.0,1.411e-13
287.5,5.392e-13
288.0,1.756e-12
288.5,5.015e-12
289.0,1.295e-11
289.5,3.839e-11
290.0,1.059e-10
290.5,2.158e-10
291.0,4.636e-10
291.5,1.334e-09
292.0,2.733e-09
292.5,3.802e-09
293.0,8.073e-09
293.5,1.941e-08
294.0,3.026e-08
294.5,3.752e-08
295.0,6.309e-08
295.5,1.071e-07
296.0,2.01e-07
296.5,2.729e-07
297.0,3.598e-07
297.5,9.258e-07
298.0,1.403e-06
298.5,1.367e-06
299.0,2.914e-06
299.5,4.544e-06
300.0,4.811e-06
300.5,6.689e-06
301.0,1.129e-05
301.5,1.681e-05
302.0,1.387e-05
302.5,2.655e-05
303.0,4.637e-05
303.5,5.789e-05
304.0,5.531e-05
304.5,8.664e-05
305.0,0.0001417
305.5,0.0001708
306.0,0.0001687
306.5,0.0002176
307.0,0.0003503
307.5,0.0005061
308.0,0.0005416
308.5,0.0006673
309.0,0.0007479
309.5,0.001042
310.0,0.001146
310.5,0.001941
311.0,0.002624
311.5,0.002615
312.0,0.003074
312.5,0.004164
313.0,0.004778
313.5,0.0044
314.0,0.00626
314.5,0.006594
315.0,0.008932
315.5,0.006868
316.0,0.006899
316.5,0.01118
317.0,0.01384
317.5,0.01391
318.0,0.01179
318.5,0.01715
319.0,0.02206
319.5,0.01579
320.0,0.0187
320.5,0.02754
321.0,0.0284
321.5,0.02763
322.0,0.02513
322.5,0.02204
323.0,0.02432
323.5,0.03465
324.0,0.0412
324.5,0.03985
325.0,0.03112
325.5,0.04351
326.0,0.05755
326.5,0.06121
327.0,0.05965
327.5,0.05598
328.0,0.04592
328.5,0.05326
329.0,0.06884
329.5,0.07997
330.0,0.07916
330.5,0.05971
331.0,0.0596
331.5,0.06331
332.0,0.07286
332.5,0.07416
333.0,0.07272
333.5,0.06281
334.0,0.06385
334.5,0.07769
335.0,0.07527
335.5,0.08918
336.0,0.06171
336.5,0.07017
337.0,0.05631
337.5,0.06947
338.0,0.07085
338.5,0.08342
339.0,0.08282
339.5,0.07954
340.0,0.09175
340.5,0.08307
341.0,0.08233
341.5,0.07601
342.0,0.091
342.5,0.08529
343.0,0.0935
343.5,0.08785
344.0,0.06389
344.5,0.06535
345.0,0.08705
345.5,0.08916
346.0,0.07595
346.5,0.08613
347.0,0.09222
347.5,0.07452
348.0,0.08529
348.5,0.08546
349.0,0.07939
349.5,0.07862
350.0,0.09732
350.5,0.1027
351.0,0.09159
351.5,0.08865
352.0,0.09553
352.5,0.07476
353.0,0.09436
353.5,0.101
354.0,0.105
354.5,0.1065
355.0,0.1061
355.5,0.096
356.0,0.1005
356.5,0.08589
357.0,0.07097
357.5,0.08694
358.0,0.06895
358.5,0.05895
359.0,0.08245
359.5,0.105
360.0,0.1114
360.5,0.08911
361.0,0.08133
361.5,0.09378
362.0,0.08121
362.5,0.1125
363.0,0.1012
363.5,0.09328
364.0,0.1142
364.5,0.09765
365.0,0.0995
365.5,0.125
366.0,0.1326
366.5,0.1247
367.0,0.1215
367.5,0.1262
368.0,0.1105
368.5,0.1116
369.0,0.1206
369.5,0.1286
370.0,0.1372
370.5,0.1066
371.0,0.114
371.5,0.1427
372.0,0.09479
372.5,0.1138
373.0,0.1158
373.5,0.07542
374.0,0.1097
374.5,0.09092
375.0,0.08844
375.5,0.1321
376.0,0.1096
376.5,0.1136
377.0,0.1204
377.5,0.141
378.0,0.1529
378.5,0.1446
379.0,0.1194
379.5,0.1091
380.0,0.1135
380.5,0.1376
381.0,0.1381
381.5,0.1096
382.0,0.09746
382.5,0.08319
383.0,0.07711
383.5,0.07434
384.0,0.08208
384.5,0.1208
385.0,0.12
385.5,0.1118
386.0,0.09587
386.5,0.1261
387.0,0.1048
387.5,0.1179
388.0,0.1089
388.5,0.1078
389.0,0.1164
389.5,0.1411
390.0,0.1418
390.5,0.1306
391.0,0.1539
391.5,0.1571
392.0,0.1324
392.5,0.1187
393.0,0.06612
393.5,0.04812
394.0,0.09799
394.5,0.1247
395.0,0.1523
395.5,0.1548
396.0,0.1344
396.5,0.07865
397.0,0.05909
397.5,0.1203
398.0,0.1685
398.5,0.1743
399.0,0.1891
399.5,0.1886
400.0,0.1959
401.0,0.1962
402.0,0.2075
403.0,0.1976
404.0,0.1949
405.0,0.1952
406.0,0.1925
407.0,0.1898
408.0,0.1973
409.0,0.2116
410.0,0.1853
411.0,0.2011
412.0,0.2165
413.0,0.2114
414.0,0.2145
415.0,0.2155
416.0,0.2198
417.0,0.2147
418.0,0.2111
419.0,0.2143
420.0,0.2136
421.0,0.2239
422.0,0.2131
423.0,0.2085
424.0,0.2207
425.0,0.2207
426.0,0.2157
427.0,0.212
428.0,0.2068
429.0,0.1965
430.0,0.1723
431.0,0.1708
432.0,0.221
433.0,0.2226
434.0,0.2069
435.0,0.2163
436.0,0.2444
437.0,0.2418
438.0,0.2205
439.0,0.2277
440.0,0.2354
441.0,0.2444
442.0,0.2624
443.0,0.2554
444.0,0.2616
445.0,0.2561
446.0,0.2453
447.0,0.266
448.0,0.2699
449.0,0.2719
450.0,0.28
451.0,0.2907
452.0,0.2805
453.0,0.2643
454.0,0.2766
455.0,0.2784
456.0,0.2853
457.0,0.2902
458.0,0.2799
459.0,0.2787
460.0,0.2792
461.0,0.2859
462.0,0.2887
463.0,0.2869
464.0,0.2832
465.0,0.2806
466.0,0.284
467.0,0.2787
468.0,0.282
469.0,0.2835
470.0,0.2744
471.0,0.2744
472.0,0.2892
473.0,0.2855
474.0,0.2854
475.0,0.2872
476.0,0.2777
477.0,0.2778
478.0,0.2857
479.0,0.2845
480.0,0.2855
481.0,0.2915
482.0,0.2939
483.0,0.2913
484.0,0.286
485.0,0.2732
486.0,0.2396
487.0,0.2517
488.0,0.2762
489.0,0.2768
490.0,0.2917
491.0,0.2871
492.0,0.2713
493.0,0.2804
494.0,0.2834
495.0,0.2861
496.0,0.2879
497.0,0.2923
498.0,0.2785
499.0,0.2817
500.0,0.2729
501.0,0.2673
502.0,0.2623
503.0,0.2719
504.0,0.2617
505.0,0.2737
506.0,0.2826
507.0,0.2692
508.0,0.2619
509.0,0.2701
510.0,0.2694
511.0,0.2774
512.0,0.2808
513.0,0.2659
514.0,0.2643
515.0,0.2617
516.0,0.2609
517.0,0.232
518.0,0.2438
519.0,0.2556
520.0,0.2648
521.0,0.2672
522.0,0.2671
523.0,0.262
524.0,0.2706
525.0,0.2728
526.0,0.2603
527.0,0.2445
528.0,0.258
529.0,0.2714
530.0,0.2671
531.0,0.2707
532.0,0.2612
533.0,0.2536
534.0,0.2614
535.0,0.2675
536.0,0.2704
537.0,0.2601
538.0,0.2649
539.0,0.2626
540.0,0.2516
541.0,0.2521
542.0,0.2595
543.0,0.2575
544.0,0.261
545.0,0.2604
546.0,0.2608
547.0,0.2614
548.0,0.2587
549.0,0.2597
550.0,0.2628
551.0,0.2598
552.0,0.2616
553.0,0.2568
554.0,0.2628
555.0,0.2631
556.0,0.2595
557.0,0.2511
558.0,0.2486
559.0,0.2433
560.0,0.246
561.0,0.2486
562.0,0.2461
563.0,0.252
564.0,0.2444
565.0,0.2418
566.0,0.2377
567.0,0.2414
568.0,0.2374
569.0,0.2283
570.0,0.2287
571.0,0.2281
572.0,0.2312
573.0,0.2332
574.0,0.2319
575.0,0.2267
576.0,0.2247
577.0,0.2275
578.0,0.2251
579.0,0.2277
580.0,0.2347
581.0,0.2379
582.0,0.2442
583.0,0.2462
584.0,0.2494
585.0,0.2439
586.0,0.239
587.0,0.2431
588.0,0.2329
589.0,0.1982
590.0,0.2078
591.0,0.2249
592.0,0.2191
593.0,0.2262
594.0,0.2231
595.0,0.2142
596.0,0.2297
597.0,0.2252
598.0,0.2268
599.0,0.2279
600.0,0.2299
601.0,0.2294
602.0,0.2281
603.0,0.2326
604.0,0.2368
605.0,0.2361
606.0,0.2358
607.0,0.239
608.0,0.2372
609.0,0.2383
610.0,0.2373
611.0,0.2392
612.0,0.239
613.0,0.2364
614.0,0.2339
615.0,0.2397
616.0,0.2324
617.0,0.2323
618.0,0.2417
619.0,0.2395
620.0,0.2411
621.0,0.2408
622.0,0.2376
623.0,0.2337
624.0,0.2301
625.0,0.2294
626.0,0.2326
627.0,0.2334
628.0,0.1976
629.0,0.2206
630.0,0.2147
631.0,0.2266
632.0,0.2253
633.0,0.235
634.0,0.2351
635.0,0.24
636.0,0.2381
637.0,0.2431
638.0,0.2472
639.0,0.2453
640.0,0.244
641.0,0.2446
642.0,0.2445
643.0,0.2479
644.0,0.248
645.0,0.2479
646.0,0.2396
647.0,0.2308
648.0,0.2319
649.0,0.2262
650.0,0.235
651.0,0.2464
652.0,0.2292
653.0,0.2438
654.0,0.2415
655.0,0.229
656.0,0.2055
657.0,0.2116
658.0,0.2396
659.0,0.2423
660.0,0.244
661.0,0.2463
662.0,0.2457
663.0,0.2412
664.0,0.246
665.0,0.2478
666.0,0.2486
667.0,0.2491
668.0,0.2502
669.0,0.2546
670.0,0.2539
671.0,0.2543
672.0,0.2524
673.0,0.2566
674.0,0.2561
675.0,0.2541
676.0,0.2562
677.0,0.254
678.0,0.2551
679.0,0.2512
680.0,0.2535
681.0,0.2519
682.0,0.2517
683.0,0.2513
684.0,0.25
685.0,0.2525
686.0,0.2506
687.0,0.08814
688.0,0.1325
689.0,0.1341
690.0,0.1527
691.0,0.176
692.0,0.1958
693.0,0.1939
694.0,0.1956
695.0,0.2147
696.0,0.2159
697.0,0.2412
698.0,0.2372
699.0,0.2229
700.0,0.2197
701.0,0.2136
702.0,0.2185
703.0,0.2204
704.0,0.2326
705.0,0.2327
706.0,0.2344
707.0,0.2355
708.0,0.2357
709.0,0.2399
710.0,0.2377
711.0,0.2388
712.0,0.24
713.0,0.2357
714.0,0.2373
715.0,0.226
716.0,0.2253
717.0,0.1652
718.0,0.1502
719.0,0.1353
720.0,0.1384
721.0,0.1689
722.0,0.2113
723.0,0.1881
724.0,0.1583
725.0,0.1528
726.0,0.1606
727.0,0.1703
728.0,0.1512
729.0,0.1669
730.0,0.1733
731.0,0.1645
732.0,0.1872
733.0,0.2076
734.0,0.2162
735.0,0.2097
736.0,0.2086
737.0,0.2098
738.0,0.2219
739.0,0.2179
740.0,0.2261
741.0,0.2254
742.0,0.2274
743.0,0.2337
744.0,0.2341
745.0,0.2351
746.0,0.2361
747.0,0.2369
748.0,0.2365
749.0,0.2339
750.0,0.2339
751.0,0.2316
752.0,0.2327
753.0,0.234
754.0,0.2345
755.0,0.2331
756.0,0.2332
757.0,0.2335
758.0,0.2304
759.0,0.2194
760.0,0.00401
761.0,0.001604
762.0,0.04098
763.0,0.008541
764.0,0.02045
765.0,0.04078
766.0,0.07237
767.0,0.1249
768.0,0.1807
769.0,0.194
770.0,0.212
771.0,0.219
772.0,0.2211
773.0,0.2231
774.0,0.2224
775.0,0.221
776.0,0.2238
777.0,0.2209
778.0,0.2195
779.0,0.2197
780.0,0.2186
781.0,0.2189
782.0,0.2204
783.0,0.2167
784.0,0.218
785.0,0.2159
786.0,0.2179
787.0,0.2094
788.0,0.2048
789.0,0.2048
790.0,0.1938
791.0,0.2012
792.0,0.2007
793.0,0.1969
794.0,0.206
795.0,0.2078
796.0,0.1931
797.0,0.1924
798.0,0.2065
799.0,0.2038
800.0,0.1983
801.0,0.1955
802.0,0.1946
803.0,0.192
804.0,0.1933
805.0,0.1953
806.0,0.2052
807.0,0.2018
808.0,0.2022
809.0,0.195
810.0,0.1917
811.0,0.1888
812.0,0.1763
813.0,0.1714
814.0,0.1376
815.0,0.1381
816.0,0.1263
817.0,0.1288
818.0,0.1211
819.0,0.1462
820.0,0.1343
821.0,0.1749
822.0,0.1669
823.0,0.08829
824.0,0.1549
825.0,0.1724
826.0,0.1594
827.0,0.1746
828.0,0.1304
829.0,0.1599
830.0,0.1568
831.0,0.1571
832.0,0.1491
833.0,0.1663
834.0,0.1557
835.0,0.1846
836.0,0.1666
837.0,0.1849
838.0,0.1744
839.0,0.1819
840.0,0.1871
841.0,0.1824
842.0,0.186
843.0,0.1895
844.0,0.1851
845.0,0.1937
846.0,0.1935
847.0,0.1909
848.0,0.1882
849.0,0.1828
850.0,0.1753
851.0,0.1839
852.0,0.1835
853.0,0.1779
854.0,0.1525
855.0,0.1691
856.0,0.1841
857.0,0.1893
858.0,0.1874
859.0,0.1883
860.0,0.1891
861.0,0.188
862.0,0.1912
863.0,0.1957
864.0,0.186
865.0,0.1845
866.0,0.1659
867.0,0.1732
868.0,0.1885
869.0,0.1847
870.0,0.19
871.0,0.1874
872.0,0.1868
873.0,0.1865
874.0,0.1843
875.0,0.1805
876.0,0.1823
877.0,0.1842
878.0,0.1859
879.0,0.1832
880.0,0.1793
881.0,0.1758
882.0,0.1793
883.0,0.1807
884.0,0.1795
885.0,0.1808
886.0,0.1697
887.0,0.1736
888.0,0.1751
889.0,0.1792
890.0,0.1749
891.0,0.176
892.0,0.1673
893.0,0.1591
894.0,0.146
895.0,0.1293
896.0,0.1197
897.0,0.09388
898.0,0.1062
899.0,0.07131
900.0,0.1147
901.0,0.07479
902.0,0.09958
903.0,0.09599
904.0,0.1443
905.0,0.1367
906.0,0.1251
907.0,0.08599
908.0,0.09146
909.0,0.1039
910.0,0.08185
911.0,0.09638
912.0,0.09985
913.0,0.08253
914.0,0.08417
915.0,0.08967
916.0,0.07496
917.0,0.105
918.0,0.07576
919.0,0.1107
920.0,0.1214
921.0,0.1247
922.0,0.1039
923.0,0.1217
924.0,0.1034
925.0,0.1019
926.0,0.1011
927.0,0.1204
928.0,0.06706
929.0,0.05619
930.0,0.03584
931.0,0.03325
932.0,0.01749
933.0,0.01201
934.0,0.003132
935.0,0.01379
936.0,0.005955
937.0,0.006055
938.0,0.008248
939.0,0.03197
940.0,0.04416
941.0,0.02668
942.0,0.0337
943.0,0.01761
944.0,0.02335
945.0,0.02901
946.0,0.00914
947.0,0.02749
948.0,0.01975
949.0,0.04365
950.0,0.00517
951.0,0.04304
952.0,0.01614
953.0,0.02536
954.0,0.03663
955.0,0.02642
956.0,0.03367
957.0,0.01605
958.0,0.05277
959.0,0.0336
960.0,0.03788
961.0,0.04918
962.0,0.04653
963.0,0.05999
964.0,0.05329
965.0,0.05878
966.0,0.05897
967.0,0.05746
968.0,0.1055
969.0,0.1047
970.0,0.09442
971.0,0.1211
972.0,0.1124
973.0,0.08505
974.0,0.08041
975.0,0.08662
976.0,0.0749
977.0,0.1017
978.0,0.08967
979.0,0.09703
980.0,0.08992
981.0,0.1206
982.0,0.1106
983.0,0.1037
984.0,0.1309
985.0,0.1096
986.0,0.1377
987.0,0.1312
988.0,0.1315
989.0,0.1403
990.0,0.1303
991.0,0.1402
992.0,0.1415
993.0,0.1342
994.0,0.142
995.0,0.1427
996.0,0.1412
997.0,0.1418
998.0,0.1408
999.0,0.1405
1000.0,0.1383
1001.0,0.1414
1002.0,0.1323
1003.0,0.1386
1004.0,0.1338
1005.0,0.1308
1006.0,0.1351
1007.0,0.1383
1008.0,0.1367
1009.0,0.135
1010.0,0.1339
1011.0,0.1378
1012.0,0.1357
1013.0,0.1378
1014.0,0.1368
1015.0,0.1357
1016.0,0.135
1017.0,0.1351
1018.0,0.1353
1019.0,0.1304
1020.0,0.1343
1021.0,0.1344
1022.0,0.1326
1023.0,0.134
1024.0,0.1302
1025.0,0.1345
1026.0,0.1334
1027.0,0.1332
1028.0,0.1328
1029.0,0.131
1030.0,0.1326
1031.0,0.1318
1032.0,0.1317
1033.0,0.1296
1034.0,0.1297
1035.0,0.1301
1036.0,0.1305
1037.0,0.1285
1038.0,0.129
1039.0,0.1288
1040.0,0.1282
1041.0,0.1285
1042.0,0.1276
1043.0,0.1271
1044.0,0.1274
1045.0,0.1256
1046.0,0.124
1047.0,0.125
1048.0,0.1255
1049.0,0.1249
1050.0,0.1241
1051.0,0.1237
1052.0,0.123
1053.0,0.1218
1054.0,0.1218
1055.0,0.1215
1056.0,0.1207
1057.0,0.1201
1058.0,0.1168
1059.0,0.1166
1060.0,0.1163
1061.0,0.1159
1062.0,0.1162
1063.0,0.1148
1064.0,0.1163
1065.0,0.1146
1066.0,0.113
1067.0,0.1142
1068.0,0.1112
1069.0,0.1083
1070.0,0.1115
1071.0,0.1149
1072.0,0.1123
1073.0,0.1109
1074.0,0.1158
1075.0,0.1058
1076.0,0.1155
1077.0,0.1111
1078.0,0.1076
1079.0,0.1146
1080.0,0.1092
1081.0,0.1034
1082.0,0.1089
1083.0,0.1105
1084.0,0.1023
1085.0,0.1098
1086.0,0.09447
1087.0,0.1012
1088.0,0.1097
1089.0,0.1014
1090.0,0.09741
1091.0,0.1081
1092.0,0.1085
1093.0,0.08094
1094.0,0.09786
1095.0,0.08425
1096.0,0.07794
1097.0,0.1061
1098.0,0.07481
1099.0,0.07942
1100.0,0.07011
1101.0,0.07273
1102.0,0.0664
1103.0,0.06364
1104.0,0.06417
1105.0,0.07649
1106.0,0.04361
1107.0,0.07016
1108.0,0.05047
1109.0,0.05135
1110.0,0.06679
1111.0,0.03329
1112.0,0.05142
1113.0,0.02246
1114.0,0.02514
1115.0,0.01977
1116.0,0.01158
1117.0,0.001787
1118.0,0.01321
1119.0,0.003855
1120.0,0.004404
1121.0,0.006875
1122.0,0.001379
1123.0,0.004032
1124.0,0.003372
1125.0,0.005042
1126.0,0.0005252
1127.0,0.00581
1128.0,0.001828
1129.0,0.00203
1130.0,0.001279
1131.0,0.01768
1132.0,0.01231
1133.0,0.004593
1134.0,0.0003963
1135.0,0.0001918
1136.0,0.002975
1137.0,0.01609
1138.0,0.01036
1139.0,0.02515
1140.0,0.0171
1141.0,0.01001
1142.0,0.01298
1143.0,0.02312
1144.0,0.004424
1145.0,0.004324
1146.0,0.004645
1147.0,0.0005647
1148.0,0.01894
1149.0,0.01264
1150.0,0.005725
1151.0,0.01035
1152.0,0.01563
1153.0,0.01783
1154.0,0.004757
1155.0,0.02621
1156.0,0.02143
1157.0,0.02966
1158.0,0.02917
1159.0,0.03323
1160.0,0.02758
1161.0,0.04073
1162.0,0.04002
1163.0,0.06847
1164.0,0.0537
1165.0,0.04582
1166.0,0.04987
1167.0,0.05666
1168.0,0.05657
1169.0,0.05894
1170.0,0.06873
1171.0,0.06701
1172.0,0.07173
1173.0,0.06867
1174.0,0.03949
1175.0,0.07051
1176.0,0.08451
1177.0,0.07623
1178.0,0.04955
1179.0,0.08499
1180.0,0.0684
1181.0,0.07076
1182.0,0.03965
1183.0,0.07109
1184.0,0.06331
1185.0,0.05815
1186.0,0.07905
1187.0,0.07188
1188.0,0.03836
1189.0,0.06656
1190.0,0.07828
1191.0,0.06731
1192.0,0.08009
1193.0,0.07427
1194.0,0.07822
1195.0,0.06922
1196.0,0.06426
1197.0,0.07984
1198.0,0.07158
1199.0,0.05151
1200.0,0.07352
1201.0,0.06714
1202.0,0.07037
1203.0,0.06717
1204.0,0.05536
1205.0,0.07432
1206.0,0.08662
1207.0,0.06859
1208.0,0.07041
1209.0,0.07202
1210.0,0.07737
1211.0,0.07061
1212.0,0.0638
1213.0,0.08074
1214.0,0.06727
1215.0,0.06573
1216.0,0.0814
1217.0,0.07747
1218.0,0.08053
1219.0,0.07823
1220.0,0.08082
1221.0,0.08315
1222.0,0.08011
1223.0,0.07845
1224.0,0.07562
1225.0,0.08197
1226.0,0.08429
1227.0,0.07222
1228.0,0.08567
1229.0,0.08436
1230.0,0.08188
1231.0,0.08753
1232.0,0.08688
1233.0,0.07944
1234.0,0.08859
1235.0,0.08723
1236.0,0.08849
1237.0,0.08561
1238.0,0.08822
1239.0,0.08704
1240.0,0.08764
1241.0,0.08592
1242.0,0.08689
1243.0,0.08627
1244.0,0.08645
1245.0,0.08707
1246.0,0.08662
1247.0,0.0859
1248.0,0.08516
1249.0,0.08603
1250.0,0.0851
1251.0,0.08315
1252.0,0.08425
1253.0,0.08163
1254.0,0.07942
1255.0,0.08366
1256.0,0.07779
1257.0,0.07665
1258.0,0.08087
1259.0,0.07265
1260.0,0.07367
1261.0,0.06336
1262.0,0.05841
1263.0,0.05837
1264.0,0.04747
1265.0,0.0581
1266.0,0.05201
1267.0,0.05562
1268.0,0.04855
1269.0,0.01265
1270.0,0.05434
1271.0,0.06407
1272.0,0.06477
1273.0,0.0634
1274.0,0.06457
1275.0,0.06657
1276.0,0.06848
1277.0,0.07068
1278.0,0.07442
1279.0,0.07384
1280.0,0.07291
1281.0,0.07079
1282.0,0.07021
1283.0,0.07519
1284.0,0.07666
1285.0,0.07753
1286.0,0.07964
1287.0,0.07641
1288.0,0.07711
1289.0,0.0707
1290.0,0.07655
1291.0,0.07837
1292.0,0.06686
1293.0,0.07534
1294.0,0.07456
1295.0,0.07161
1296.0,0.06456
1297.0,0.05849
1298.0,0.06886
1299.0,0.07596
1300.0,0.05484
1301.0,0.05781
1302.0,0.06903
1303.0,0.05478
1304.0,0.03894
1305.0,0.06709
1306.0,0.0658
1307.0,0.0425
1308.0,0.05621
1309.0,0.06352
1310.0,0.04072
1311.0,0.05193
1312.0,0.04986
1313.0,0.04622
1314.0,0.03827
1315.0,0.03637
1316.0,0.04955
1317.0,0.0455
1318.0,0.05307
1319.0,0.03225
1320.0,0.03261
1321.0,0.04154
1322.0,0.04007
1323.0,0.02319
1324.0,0.03212
1325.0,0.04722
1326.0,0.03623
1327.0,0.03314
1328.0,0.02589
1329.0,0.01403
1330.0,0.02146
1331.0,0.008092
1332.0,0.009332
1333.0,0.0139
1334.0,0.01554
1335.0,0.02211
1336.0,0.01436
1337.0,0.01245
1338.0,0.01302
1339.0,0.0134
1340.0,0.01451
1341.0,0.01058
1342.0,0.0117
1343.0,0.004081
1344.0,0.002766
1345.0,0.003457
1346.0,0.0006188
1347.0,0.0004977
1348.0,7.733e-06
1349.0,3.311e-05
1350.0,3.829e-05
1351.0,4.385e-06
1352.0,9.652e-07
1353.0,4.882e-08
1354.0,1.692e-07
1355.0,1.349e-09
1356.0,2.365e-08
1357.0,3.592e-08
1358.0,1.584e-09
1359.0,1.995e-10
1360.0,7.209e-10
1361.0,8.064e-13
1362.0,2.206e-15
1363.0,9.693e-10
1364.0,4.002e-10
1365.0,7.702e-16
1366.0,4.201e-09
1367.0,1.715e-09
1368.0,5.947e-18
1369.0,1.475e-10
1370.0,7.262e-11
1371.0,4.117e-12
1372.0,9.3e-10
1373.0,1.874e-08
1374.0,8.705e-08
1375.0,1.577e-07
1376.0,1.431e-07
1377.0,6.524e-08
1378.0,6.354e-07
1379.0,2.735e-08
1380.0,3.886e-08
1381.0,1.012e-09
1382.0,8.151e-10
1383.0,1.219e-11
1384.0,1.598e-10
1385.0,7.642e-10
1386.0,7.186e-10
1387.0,8.693e-08
1388.0,1.713e-09
1389.0,2.945e-07
1390.0,2.524e-07
1391.0,1.679e-07
1392.0,1.091e-08
1393.0,5.803e-08
1394.0,2.965e-08
1395.0,2.173e-10
1396.0,1.05e-12
1397.0,2.276e-08
1398.0,6.725e-07
1399.0,4.26e-07
1400.0,4.489e-13
1401.0,1.863e-12
1402.0,1.477e-06
1403.0,1.633e-06
1404.0,4.735e-07
1405.0,1.029e-10
1406.0,1.172e-06
1407.0,1.211e-07
1408.0,9.594e-07
1409.0,3.141e-07
1410.0,2.602e-07
1411.0,1.44e-06
