interpolation:linear
wavelength,value
280.0,6.074e-22
280.5,1.974e-20
281.0,1.054e-19
281.5,4.977e-19
282.0,8.257e-19
282.5,2.042e-18
283.0,6.434e-18
283.5,1.045e-17
284.0,1.703e-16
284.5,4.942e-16
285.0,8.862e-16
285.5,4.348e-15
286.0,1.745e-14
286.5,7.788e-14
287.0,2.222e-13
287.5,8.509e-13
288.0,2.779e-12
288.5,8.522e-12
289.0,2.288e-11
289.5,6.942e-11
290.0,1.932e-10
290.5,3.944e-10
291.0,8.474e-10
291.5,2.434e-09
292.0,5.604e-09
292.5,7.812e-09
293.0,1.662e-08
293.5,4.007e-08
294.0,6.23e-08
294.5,8.3e-08
295.0,1.399e-07
295.5,2.653e-07
296.0,5.111e-07
296.5,7.319e-07
297.0,1.012e-06
297.5,2.826e-06
298.0,4.638e-06
298.5,4.834e-06
299.0,1.108e-05
299.5,1.993e-05
300.0,2.306e-05
300.5,3.538e-05
301.0,7.106e-05
301.5,0.0001263
302.0,0.000115
302.5,0.0002322
303.0,0.0004365
303.5,0.0005685
304.0,0.0005496
304.5,0.0008838
305.0,0.001489
305.5,0.001824
306.0,0.001812
306.5,0.002358
307.0,0.003853
307.5,0.005625
308.0,0.006033
308.5,0.007465
309.0,0.007611
309.5,0.009259
310.0,0.009568
310.5,0.01572
311.0,0.02018
311.5,0.01968
312.0,0.02068
312.5,0.02599
313.0,0.02868
313.5,0.02742
314.0,0.03564
314.5,0.03326
315.0,0.04411
315.5,0.03601
316.0,0.03278
316.5,0.04877
317.0,0.06052
317.5,0.06237
318.0,0.04984
318.5,0.06479
319.0,0.07868
319.5,0.06183
320.0,0.07432
320.5,0.09743
321.0,0.09043
321.5,0.08709
322.0,0.08882
322.5,0.07746
323.0,0.07942
323.5,0.1002
324.0,0.1175
324.5,0.1179
325.0,0.1005
325.5,0.1323
326.0,0.1628
326.5,0.1655
327.0,0.1641
327.5,0.1574
328.0,0.1375
328.5,0.148
329.0,0.1806
329.5,0.2063
330.0,0.2072
330.5,0.1635
331.0,0.1658
331.5,0.1704
332.0,0.1871
332.5,0.1864
333.0,0.1852
333.5,0.1657
334.0,0.1695
334.5,0.1983
335.0,0.1878
335.5,0.2197
336.0,0.152
336.5,0.1773
337.0,0.1447
337.5,0.1797
338.0,0.1774
338.5,0.2053
339.0,0.2034
339.5,0.1957
340.0,0.2296
340.5,0.2073
341.0,0.2025
341.5,0.1862
342.0,0.2227
342.5,0.2085
343.0,0.2292
343.5,0.2158
344.0,0.1594
344.5,0.1611
345.0,0.2136
345.5,0.2184
346.0,0.1858
346.5,0.2105
347.0,0.226
347.5,0.1828
348.0,0.2086
348.5,0.2087
349.0,0.1938
349.5,0.192
350.0,0.2376
350.5,0.2507
351.0,0.224
351.5,0.2176
352.0,0.234
352.5,0.1828
353.0,0.2304
353.5,0.2466
354.0,0.2561
354.5,0.2598
355.0,0.2591
355.5,0.2342
356.0,0.2452
356.5,0.2095
357.0,0.1731
357.5,0.212
358.0,0.1681
358.5,0.1437
359.0,0.2011
359.5,0.2563
360.0,0.2718
360.5,0.2174
361.0,0.1983
361.5,0.2286
362.0,0.1979
362.5,0.2741
363.0,0.2464
363.5,0.2271
364.0,0.278
364.5,0.2377
365.0,0.2422
365.5,0.3042
366.0,0.3226
366.5,0.3033
367.0,0.2955
367.5,0.3068
368.0,0.2687
368.5,0.2713
369.0,0.2931
369.5,0.3126
370.0,0.3335
370.5,0.259
371.0,0.2769
371.5,0.3466
372.0,0.2301
372.5,0.2761
373.0,0.2811
373.5,0.183
374.0,0.266
374.5,0.2205
375.0,0.2144
375.5,0.3203
376.0,0.2656
376.5,0.2754
377.0,0.2917
377.5,0.3415
378.0,0.3703
378.5,0.3501
379.0,0.2891
379.5,0.2641
380.0,0.2747
380.5,0.333
381.0,0.3339
381.5,0.2649
382.0,0.2355
382.5,0.2009
383.0,0.1861
383.5,0.1794
384.0,0.198
384.5,0.2914
385.0,0.2891
385.5,0.2694
386.0,0.2309
386.5,0.3035
387.0,0.2523
387.5,0.2835
388.0,0.2619
388.5,0.2591
389.0,0.2798
389.5,0.3391
390.0,0.3405
390.5,0.3135
391.0,0.3693
391.5,0.3768
392.0,0.3175
392.5,0.2845
393.0,0.1584
393.5,0.1152
394.0,0.2346
394.5,0.2984
395.0,0.3643
395.5,0.3702
396.0,0.3211
396.5,0.1879
397.0,0.1411
397.5,0.287
398.0,0.4021
398.5,0.4158
399.0,0.4506
399.5,0.4494
400.0,0.4667
401.0,0.4717
402.0,0.4983
403.0,0.4739
404.0,0.467
405.0,0.4674
406.0,0.4603
407.0,0.4534
408.0,0.4714
409.0,0.5049
410.0,0.4417
411.0,0.4789
412.0,0.515
413.0,0.5025
414.0,0.5091
415.0,0.511
416.0,0.5206
417.0,0.5081
418.0,0.4991
419.0,0.5061
420.0,0.5042
421.0,0.5279
422.0,0.5021
423.0,0.4909
424.0,0.5194
425.0,0.5189
426.0,0.5061
427.0,0.497
428.0,0.4844
429.0,0.4594
430.0,0.4024
431.0,0.3989
432.0,0.5156
433.0,0.5188
434.0,0.4819
435.0,0.5035
436.0,0.5679
437.0,0.5609
438.0,0.5112
439.0,0.5284
440.0,0.5456
441.0,0.5659
442.0,0.6072
443.0,0.5914
444.0,0.6047
445.0,0.5917
446.0,0.5655
447.0,0.612
448.0,0.6213
449.0,0.6246
450.0,0.6425
451.0,0.6667
452.0,0.6427
453.0,0.6048
454.0,0.632
455.0,0.636
456.0,0.6514
457.0,0.6624
458.0,0.6396
459.0,0.6365
460.0,0.6381
461.0,0.653
462.0,0.6586
463.0,0.6541
464.0,0.6441
465.0,0.6367
466.0,0.6434
467.0,0.6315
468.0,0.639
469.0,0.6424
470.0,0.6219
471.0,0.6213
472.0,0.6547
473.0,0.6463
474.0,0.6468
475.0,0.6519
476.0,0.6318
477.0,0.6332
478.0,0.651
479.0,0.6474
480.0,0.6491
481.0,0.6618
482.0,0.6659
483.0,0.6586
484.0,0.6455
485.0,0.6154
486.0,0.5385
487.0,0.5647
488.0,0.6196
489.0,0.6213
490.0,0.654
491.0,0.643
492.0,0.6073
493.0,0.6273
494.0,0.6337
495.0,0.6392
496.0,0.6432
497.0,0.6531
498.0,0.6225
499.0,0.6303
500.0,0.6116
501.0,0.6
502.0,0.5908
503.0,0.614
504.0,0.596
505.0,0.6193
506.0,0.6393
507.0,0.6084
508.0,0.5903
509.0,0.6074
510.0,0.6047
511.0,0.6214
512.0,0.6284
513.0,0.5949
514.0,0.591
515.0,0.5852
516.0,0.5837
517.0,0.5188
518.0,0.5453
519.0,0.572
520.0,0.5927
521.0,0.5982
522.0,0.5986
523.0,0.5876
524.0,0.6083
525.0,0.6148
526.0,0.5871
527.0,0.5528
528.0,0.5842
529.0,0.6155
530.0,0.6064
531.0,0.6152
532.0,0.5939
533.0,0.5766
534.0,0.5938
535.0,0.6071
536.0,0.6129
537.0,0.589
538.0,0.5995
539.0,0.5945
540.0,0.5698
541.0,0.5729
542.0,0.5905
543.0,0.5848
544.0,0.5944
545.0,0.5927
546.0,0.5947
547.0,0.5949
548.0,0.5881
549.0,0.5901
550.0,0.5971
551.0,0.59
552.0,0.5941
553.0,0.5834
554.0,0.5972
555.0,0.5983
556.0,0.5904
557.0,0.5718
558.0,0.5671
559.0,0.5561
560.0,0.5628
561.0,0.5698
562.0,0.5652
563.0,0.5801
564.0,0.5639
565.0,0.5587
566.0,0.5501
567.0,0.56
568.0,0.5538
569.0,0.5382
570.0,0.5384
571.0,0.5358
572.0,0.547
573.0,0.5526
574.0,0.5505
575.0,0.5396
576.0,0.5347
577.0,0.5408
578.0,0.5334
579.0,0.5366
580.0,0.5486
581.0,0.5528
582.0,0.5644
583.0,0.5668
584.0,0.5724
585.0,0.5588
586.0,0.5473
587.0,0.5586
588.0,0.5419
589.0,0.4743
590.0,0.4964
591.0,0.5289
592.0,0.5201
593.0,0.5305
594.0,0.5257
595.0,0.5105
596.0,0.5355
597.0,0.5285
598.0,0.5286
599.0,0.5297
600.0,0.5317
601.0,0.5283
602.0,0.5249
603.0,0.534
604.0,0.5431
605.0,0.5406
606.0,0.5389
607.0,0.5448
608.0,0.5393
609.0,0.5407
610.0,0.5374
611.0,0.5405
612.0,0.5392
613.0,0.5327
614.0,0.5259
615.0,0.5378
616.0,0.5204
617.0,0.5197
618.0,0.5399
619.0,0.5346
620.0,0.538
621.0,0.5381
622.0,0.5314
623.0,0.523
624.0,0.5144
625.0,0.5132
626.0,0.5207
627.0,0.5254
628.0,0.4772
629.0,0.5083
630.0,0.4961
631.0,0.5119
632.0,0.5066
633.0,0.524
634.0,0.5204
635.0,0.5292
636.0,0.5231
637.0,0.5323
638.0,0.5385
639.0,0.533
640.0,0.5285
641.0,0.5286
642.0,0.5268
643.0,0.534
644.0,0.5328
645.0,0.5333
646.0,0.5193
647.0,0.5094
648.0,0.5098
649.0,0.4996
650.0,0.5068
651.0,0.5296
652.0,0.5027
653.0,0.5228
654.0,0.5175
655.0,0.4957
656.0,0.4411
657.0,0.4532
658.0,0.5094
659.0,0.5137
660.0,0.5162
661.0,0.5199
662.0,0.5201
663.0,0.5102
664.0,0.5176
665.0,0.519
666.0,0.5199
667.0,0.5199
668.0,0.5207
669.0,0.5291
670.0,0.5271
671.0,0.5272
672.0,0.5229
673.0,0.531
674.0,0.5293
675.0,0.5247
676.0,0.5285
677.0,0.5234
678.0,0.5251
679.0,0.5168
680.0,0.521
681.0,0.5177
682.0,0.517
683.0,0.5161
684.0,0.5135
685.0,0.5181
686.0,0.5148
687.0,0.2853
688.0,0.3595
689.0,0.3617
690.0,0.3884
691.0,0.4193
692.0,0.4432
693.0,0.4389
694.0,0.4361
695.0,0.4613
696.0,0.4623
697.0,0.499
698.0,0.491
699.0,0.4736
700.0,0.4676
701.0,0.4608
702.0,0.4662
703.0,0.4674
704.0,0.4858
705.0,0.4865
706.0,0.4874
707.0,0.4883
708.0,0.4892
709.0,0.4922
710.0,0.491
711.0,0.4912
712.0,0.4908
713.0,0.4848
714.0,0.4869
715.0,0.4692
716.0,0.4689
717.0,0.386
718.0,0.3523
719.0,0.3211
720.0,0.3343
721.0,0.3811
722.0,0.449
723.0,0.4114
724.0,0.3628
725.0,0.3544
726.0,0.3717
727.0,0.3823
728.0,0.3525
729.0,0.373
730.0,0.3935
731.0,0.3749
732.0,0.4087
733.0,0.4397
734.0,0.4524
735.0,0.4419
736.0,0.4411
737.0,0.4428
738.0,0.4551
739.0,0.4461
740.0,0.4594
741.0,0.4558
742.0,0.4572
743.0,0.4692
744.0,0.4685
745.0,0.4691
746.0,0.4712
747.0,0.4724
748.0,0.4715
749.0,0.4661
750.0,0.4659
751.0,0.4612
752.0,0.4633
753.0,0.4657
754.0,0.4667
755.0,0.464
756.0,0.4639
757.0,0.4646
758.0,0.4587
759.0,0.446
760.0,0.03389
761.0,0.01355
762.0,0.1709
763.0,0.06227
764.0,0.1123
765.0,0.1707
766.0,0.2339
767.0,0.3228
768.0,0.3967
769.0,0.4107
770.0,0.4311
771.0,0.4375
772.0,0.4394
773.0,0.4427
774.0,0.4407
775.0,0.4375
776.0,0.4429
777.0,0.4371
778.0,0.4344
779.0,0.4348
780.0,0.4324
781.0,0.4329
782.0,0.4357
783.0,0.4282
784.0,0.4304
785.0,0.4269
786.0,0.4314
787.0,0.4213
788.0,0.4148
789.0,0.4145
790.0,0.3999
791.0,0.4069
792.0,0.4044
793.0,0.3975
794.0,0.408
795.0,0.4139
796.0,0.3962
797.0,0.3963
798.0,0.4128
799.0,0.4092
800.0,0.4009
801.0,0.3985
802.0,0.3973
803.0,0.3937
804.0,0.3948
805.0,0.395
806.0,0.4086
807.0,0.4031
808.0,0.4037
809.0,0.3942
810.0,0.3898
811.0,0.3876
812.0,0.3732
813.0,0.3638
814.0,0.3101
815.0,0.3088
816.0,0.2862
817.0,0.2922
818.0,0.279
819.0,0.3205
820.0,0.2987
821.0,0.3615
822.0,0.3492
823.0,0.2187
824.0,0.3344
825.0,0.3552
826.0,0.3377
827.0,0.3605
828.0,0.2939
829.0,0.3365
830.0,0.331
831.0,0.3324
832.0,0.32
833.0,0.346
834.0,0.33
835.0,0.3711
836.0,0.3496
837.0,0.3724
838.0,0.3579
839.0,0.3674
840.0,0.3761
841.0,0.3696
842.0,0.3723
843.0,0.374
844.0,0.3678
845.0,0.3816
846.0,0.3803
847.0,0.3738
848.0,0.3706
849.0,0.3601
850.0,0.3451
851.0,0.3644
852.0,0.3623
853.0,0.3495
854.0,0.3011
855.0,0.3317
856.0,0.3621
857.0,0.3708
858.0,0.3678
859.0,0.3685
860.0,0.3694
861.0,0.3673
862.0,0.3733
863.0,0.3821
864.0,0.363
865.0,0.3599
866.0,0.3236
867.0,0.3378
868.0,0.3676
869.0,0.36
870.0,0.3703
871.0,0.3652
872.0,0.364
873.0,0.3633
874.0,0.359
875.0,0.3517
876.0,0.3553
877.0,0.3589
878.0,0.3627
879.0,0.3571
880.0,0.3495
881.0,0.3438
882.0,0.351
883.0,0.3526
884.0,0.3508
885.0,0.3534
886.0,0.3352
887.0,0.3401
888.0,0.3444
889.0,0.3496
890.0,0.345
891.0,0.3453
892.0,0.3331
893.0,0.3204
894.0,0.3043
895.0,0.2816
896.0,0.2636
897.0,0.2193
898.0,0.2429
899.0,0.1768
900.0,0.2533
901.0,0.1853
902.0,0.2282
903.0,0.2267
904.0,0.302
905.0,0.2894
906.0,0.2689
907.0,0.2072
908.0,0.2134
909.0,0.2357
910.0,0.1997
911.0,0.2191
912.0,0.23
913.0,0.2022
914.0,0.2023
915.0,0.2188
916.0,0.1838
917.0,0.242
918.0,0.1878
919.0,0.2493
920.0,0.2579
921.0,0.2682
922.0,0.2333
923.0,0.2597
924.0,0.2376
925.0,0.2328
926.0,0.2345
927.0,0.2689
928.0,0.179
929.0,0.1585
930.0,0.1171
931.0,0.1114
932.0,0.07268
933.0,0.05573
934.0,0.02388
935.0,0.0597
936.0,0.03283
937.0,0.033
938.0,0.04219
939.0,0.1078
940.0,0.1352
941.0,0.0949
942.0,0.1138
943.0,0.06939
944.0,0.07849
945.0,0.09939
946.0,0.04339
947.0,0.09787
948.0,0.07114
949.0,0.1382
950.0,0.02848
951.0,0.1372
952.0,0.06459
953.0,0.08945
954.0,0.1166
955.0,0.0912
956.0,0.09462
957.0,0.06408
958.0,0.1423
959.0,0.1047
960.0,0.1173
961.0,0.1383
962.0,0.1304
963.0,0.1562
964.0,0.1414
965.0,0.1557
966.0,0.1547
967.0,0.1533
968.0,0.2281
969.0,0.2352
970.0,0.2137
971.0,0.2546
972.0,0.2415
973.0,0.2002
974.0,0.189
975.0,0.1997
976.0,0.184
977.0,0.2209
978.0,0.205
979.0,0.2176
980.0,0.2031
981.0,0.2535
982.0,0.2386
983.0,0.227
984.0,0.2657
985.0,0.2376
986.0,0.2732
987.0,0.2645
988.0,0.2643
989.0,0.2742
990.0,0.2625
991.0,0.2746
992.0,0.2765
993.0,0.2671
994.0,0.2768
995.0,0.2769
996.0,0.2752
997.0,0.2759
998.0,0.2744
999.0,0.2735
1000.0,0.2708
1001.0,0.2751
1002.0,0.2643
1003.0,0.27
1004.0,0.2626
1005.0,0.2541
1006.0,0.2635
1007.0,0.2693
1008.0,0.2673
1009.0,0.2653
1010.0,0.2638
1011.0,0.268
1012.0,0.2651
1013.0,0.2676
1014.0,0.2657
1015.0,0.2638
1016.0,0.2626
1017.0,0.2631
1018.0,0.2625
1019.0,0.2557
1020.0,0.261
1021.0,0.2608
1022.0,0.2583
1023.0,0.261
1024.0,0.2564
1025.0,0.2612
1026.0,0.2598
1027.0,0.2593
1028.0,0.2586
1029.0,0.2555
1030.0,0.2576
1031.0,0.2564
1032.0,0.2558
1033.0,0.252
1034.0,0.252
1035.0,0.2528
1036.0,0.254
1037.0,0.2499
1038.0,0.2509
1039.0,0.2507
1040.0,0.2497
1041.0,0.2506
1042.0,0.2488
1043.0,0.248
1044.0,0.2487
1045.0,0.2453
1046.0,0.2425
1047.0,0.2446
1048.0,0.2459
1049.0,0.2449
1050.0,0.2436
1051.0,0.2432
1052.0,0.2421
1053.0,0.24
1054.0,0.2403
1055.0,0.2403
1056.0,0.2392
1057.0,0.2383
1058.0,0.2323
1059.0,0.2324
1060.0,0.2319
1061.0,0.2315
1062.0,0.2325
1063.0,0.2301
1064.0,0.2329
1065.0,0.2307
1066.0,0.2265
1067.0,0.2293
1068.0,0.224
1069.0,0.2174
1070.0,0.2244
1071.0,0.229
1072.0,0.2255
1073.0,0.2224
1074.0,0.2294
1075.0,0.2147
1076.0,0.229
1077.0,0.2232
1078.0,0.2181
1079.0,0.2259
1080.0,0.2198
1081.0,0.2111
1082.0,0.2172
1083.0,0.2186
1084.0,0.2099
1085.0,0.2205
1086.0,0.1969
1087.0,0.2062
1088.0,0.2179
1089.0,0.2081
1090.0,0.2019
1091.0,0.2164
1092.0,0.2164
1093.0,0.1752
1094.0,0.1969
1095.0,0.1832
1096.0,0.1731
1097.0,0.2115
1098.0,0.1692
1099.0,0.1778
1100.0,0.162
1101.0,0.1651
1102.0,0.1555
1103.0,0.1524
1104.0,0.1528
1105.0,0.173
1106.0,0.1192
1107.0,0.1618
1108.0,0.1294
1109.0,0.1311
1110.0,0.1589
1111.0,0.09757
1112.0,0.1306
1113.0,0.07315
1114.0,0.08234
1115.0,0.06761
1116.0,0.04861
1117.0,0.01302
1118.0,0.05432
1119.0,0.0226
1120.0,0.02789
1121.0,0.03936
1122.0,0.01314
1123.0,0.02539
1124.0,0.02137
1125.0,0.02896
1126.0,0.006893
1127.0,0.03298
1128.0,0.01604
1129.0,0.01741
1130.0,0.0106
1131.0,0.07262
1132.0,0.05499
1133.0,0.02944
1134.0,0.005205
1135.0,0.002104
1136.0,0.02276
1137.0,0.06924
1138.0,0.04781
1139.0,0.08312
1140.0,0.0649
1141.0,0.04557
1142.0,0.05459
1143.0,0.08265
1144.0,0.02368
1145.0,0.02842
1146.0,0.03059
1147.0,0.007617
1148.0,0.07096
1149.0,0.05334
1150.0,0.02643
1151.0,0.04742
1152.0,0.06236
1153.0,0.06395
1154.0,0.02762
1155.0,0.08653
1156.0,0.0755
1157.0,0.0894
1158.0,0.08827
1159.0,0.09793
1160.0,0.08124
1161.0,0.1068
1162.0,0.1067
1163.0,0.1562
1164.0,0.1296
1165.0,0.1179
1166.0,0.1206
1167.0,0.1334
1168.0,0.1339
1169.0,0.1383
1170.0,0.1541
1171.0,0.15
1172.0,0.1552
1173.0,0.1538
1174.0,0.1013
1175.0,0.1523
1176.0,0.1724
1177.0,0.1621
1178.0,0.1153
1179.0,0.1739
1180.0,0.1499
1181.0,0.1549
1182.0,0.0997
1183.0,0.1536
1184.0,0.1415
1185.0,0.1344
1186.0,0.1667
1187.0,0.1564
1188.0,0.1002
1189.0,0.1454
1190.0,0.1634
1191.0,0.1505
1192.0,0.1661
1193.0,0.1576
1194.0,0.1635
1195.0,0.1515
1196.0,0.1441
1197.0,0.1649
1198.0,0.1493
1199.0,0.1205
1200.0,0.1555
1201.0,0.1476
1202.0,0.1486
1203.0,0.1464
1204.0,0.1251
1205.0,0.1539
1206.0,0.1733
1207.0,0.1473
1208.0,0.147
1209.0,0.1504
1210.0,0.1582
1211.0,0.1483
1212.0,0.1431
1213.0,0.1659
1214.0,0.1478
1215.0,0.1446
1216.0,0.1657
1217.0,0.1601
1218.0,0.1642
1219.0,0.1615
1220.0,0.1645
1221.0,0.1669
1222.0,0.162
1223.0,0.1599
1224.0,0.1577
1225.0,0.1657
1226.0,0.1677
1227.0,0.1514
1228.0,0.1693
1229.0,0.1677
1230.0,0.1643
1231.0,0.1711
1232.0,0.17
1233.0,0.1613
1234.0,0.1716
1235.0,0.1701
1236.0,0.1717
1237.0,0.168
1238.0,0.1711
1239.0,0.1689
1240.0,0.1697
1241.0,0.1681
1242.0,0.1684
1243.0,0.1671
1244.0,0.1681
1245.0,0.1689
1246.0,0.168
1247.0,0.1671
1248.0,0.1666
1249.0,0.1675
1250.0,0.1662
1251.0,0.1636
1252.0,0.1642
1253.0,0.1619
1254.0,0.1595
1255.0,0.1638
1256.0,0.1573
1257.0,0.1561
1258.0,0.1605
1259.0,0.1517
1260.0,0.1529
1261.0,0.1407
1262.0,0.1346
1263.0,0.1348
1264.0,0.1202
1265.0,0.134
1266.0,0.1264
1267.0,0.1304
1268.0,0.1209
1269.0,0.05904
1270.0,0.1292
1271.0,0.1407
1272.0,0.1415
1273.0,0.1396
1274.0,0.1406
1275.0,0.1433
1276.0,0.1454
1277.0,0.1473
1278.0,0.1516
1279.0,0.1501
1280.0,0.1483
1281.0,0.1422
1282.0,0.1381
1283.0,0.1485
1284.0,0.1519
1285.0,0.1531
1286.0,0.1558
1287.0,0.1522
1288.0,0.1525
1289.0,0.1454
1290.0,0.1513
1291.0,0.1538
1292.0,0.1404
1293.0,0.1499
1294.0,0.1486
1295.0,0.1466
1296.0,0.1374
1297.0,0.1282
1298.0,0.1419
1299.0,0.1504
1300.0,0.1208
1301.0,0.1257
1302.0,0.1416
1303.0,0.1199
1304.0,0.0963
1305.0,0.1383
1306.0,0.1377
1307.0,0.1006
1308.0,0.1211
1309.0,0.1358
1310.0,0.09819
1311.0,0.1147
1312.0,0.1107
1313.0,0.1073
1314.0,0.0939
1315.0,0.09132
1316.0,0.1118
1317.0,0.1051
1318.0,0.1168
1319.0,0.08415
1320.0,0.08299
1321.0,0.09914
1322.0,0.09882
1323.0,0.06866
1324.0,0.0828
1325.0,0.1095
1326.0,0.0904
1327.0,0.08522
1328.0,0.07152
1329.0,0.0488
1330.0,0.06606
1331.0,0.03459
1332.0,0.03731
1333.0,0.05295
1334.0,0.04817
1335.0,0.06802
1336.0,0.05076
1337.0,0.0439
1338.0,0.04722
1339.0,0.04777
1340.0,0.04802
1341.0,0.04321
1342.0,0.04583
1343.0,0.02501
1344.0,0.01554
1345.0,0.02216
1346.0,0.00796
1347.0,0.007588
1348.0,0.0002466
1349.0,0.001051
1350.0,0.001232
1351.0,0.0001579
1352.0,1.897e-05
1353.0,5.148e-07
1354.0,2.89e-06
1355.0,5.737e-09
1356.0,2.461e-07
1357.0,3.743e-07
1358.0,7.141e-09
1359.0,3.905e-10
1360.0,2.326e-09
1361.0,9.51e-13
1362.0,2.387e-15
1363.0,2.173e-09
1364.0,9.607e-10
1365.0,7.958e-16
1366.0,1.152e-08
1367.0,6.221e-09
1368.0,6.074e-18
1369.0,3.539e-10
1370.0,1.312e-10
1371.0,6.039e-12
1372.0,3.521e-09
1373.0,1.337e-07
1374.0,1.032e-06
1375.0,1.65e-06
1376.0,2.693e-06
1377.0,1.12e-06
1378.0,1.226e-05
1379.0,4.795e-07
1380.0,4.674e-07
1381.0,1.003e-08
1382.0,2.793e-09
1383.0,3.383e-11
1384.0,3.416e-10
1385.0,4.441e-09
1386.0,1.879e-09
1387.0,6.937e-07
1388.0,1.744e-08
1389.0,4.567e-06
1390.0,3.701e-06
1391.0,2.354e-06
1392.0,1.449e-07
1393.0,9.901e-07
1394.0,1.983e-07
1395.0,9.938e-10
1396.0,1.344e-12
1397.0,3.226e-07
1398.0,1.254e-05
1399.0,8.326e-06
1400.0,5.132e-13
1401.0,2.534e-12
1402.0,5.601e-05
1403.0,5.853e-05
1404.0,1.627e-05
1405.0,3.398e-10
1406.0,3.101e-05
1407.0,4.003e-06
1408.0,2.705e-05
1409.0,5.708e-06
1410.0,6.964e-06
1411.0,5.357e-05
1412.0,9.073e-05
1413.0,0.001641
1414.0,5.917e-06
1415.0,2.334e-06
1416.0,0.004197
1417.0,0.0008825
1418.0,0.0008523
1419.0,0.0001216
1420.0,0.0005139
1421.0,0.0006215
1422.0,0.005504
1423.0,0.0009877
1424.0,0.002009
1425.0,0.002645
1426.0,0.00364
1427.0,0.008001
1428.0,0.0002142
1429.0,0.005197
1430.0,0.01101
1431.0,0.01265
1432.0,0.0001646
