interpolation:linear
wavelength,value
280.0,8.414999999999999e-22
280.5,1.8070000000000002e-20
281.0,8.386000000000001e-20
281.5,1.837e-18
282.0,1.184e-17
282.5,3.935e-17
283.0,1.491e-16
283.5,2.587e-16
284.0,4.797e-15
284.5,1.42e-14
285.0,3.871e-14
285.5,2.558e-13
286.0,1.114e-12
286.5,5.623e-12
287.0,1.713e-11
287.5,6.958e-11
288.0,2.36e-10
288.5,8.662e-10
289.0,2.681e-09
289.5,9.19e-09
290.0,2.784e-08
290.5,6.066e-08
291.0,1.399e-07
291.5,4.374e-07
292.0,9.763e-07
292.5,1.399e-06
293.0,3.071e-06
293.5,7.701e-06
294.0,1.231e-05
294.5,2.397e-05
295.0,4.192e-05
295.5,8.649e-05
296.0,0.0001521
296.5,0.0001943
297.0,0.0002442
297.5,0.0005869
298.0,0.0008432
298.5,0.0007901
299.0,0.001626
299.5,0.002393
300.0,0.002465
300.5,0.003336
301.0,0.005415
301.5,0.007831
302.0,0.006378
302.5,0.01161
303.0,0.01904
303.5,0.02267
304.0,0.02054
304.5,0.02792
305.0,0.03724
305.5,0.03941
306.0,0.03699
306.5,0.04381
307.0,0.05835
307.5,0.07011
308.0,0.07283
308.5,0.0819
309.0,0.07717
309.5,0.08232
310.0,0.08002
310.5,0.1275
311.0,0.1557
311.5,0.1484
312.0,0.1399
312.5,0.1636
313.0,0.1738
313.5,0.1719
314.0,0.205
314.5,0.1707
315.0,0.2218
315.5,0.1911
316.0,0.1586
316.5,0.218
317.0,0.2708
317.5,0.2852
318.0,0.2159
318.5,0.2532
319.0,0.292
319.5,0.249
320.0,0.3028
320.5,0.3577
321.0,0.3025
321.5,0.2884
322.0,0.3246
322.5,0.2815
323.0,0.2703
323.5,0.3208
324.0,0.3721
324.5,0.3832
325.0,0.3376
325.5,0.4216
326.0,0.5101
326.5,0.5009
327.0,0.5026
327.5,0.4896
328.0,0.4471
328.5,0.4554
329.0,0.532
329.5,0.5993
330.0,0.6078
330.5,0.4954
331.0,0.5078
331.5,0.5087
332.0,0.5385
332.5,0.5277
333.0,0.5287
333.5,0.4855
334.0,0.4984
334.5,0.5653
335.0,0.526
335.5,0.6139
336.0,0.4246
336.5,0.4995
337.0,0.4125
337.5,0.5141
338.0,0.4951
338.5,0.5709
339.0,0.5647
339.5,0.543
340.0,0.6382
340.5,0.5743
341.0,0.5602
341.5,0.514
342.0,0.614
342.5,0.5741
343.0,0.6313
343.5,0.5944
344.0,0.4389
344.5,0.4434
345.0,0.5863
345.5,0.5981
346.0,0.508
346.5,0.5749
347.0,0.6172
347.5,0.4988
348.0,0.5683
348.5,0.5678
349.0,0.5264
349.5,0.521
350.0,0.6441
350.5,0.6792
351.0,0.6067
351.5,0.5897
352.0,0.633
352.5,0.4937
353.0,0.6214
353.5,0.6642
354.0,0.6894
354.5,0.699
355.0,0.6965
355.5,0.6289
356.0,0.6578
356.5,0.5615
357.0,0.4639
357.5,0.5679
358.0,0.4499
358.5,0.3844
359.0,0.5376
359.5,0.6851
360.0,0.7261
360.5,0.5802
361.0,0.5287
361.5,0.6083
362.0,0.5257
362.5,0.7271
363.0,0.6527
363.5,0.6009
364.0,0.7346
364.5,0.6278
365.0,0.6392
365.5,0.802
366.0,0.8494
366.5,0.7977
367.0,0.7767
367.5,0.8058
368.0,0.705
368.5,0.7112
369.0,0.7678
369.5,0.8182
370.0,0.8719
370.5,0.6765
371.0,0.7227
371.5,0.904
372.0,0.5999
372.5,0.7191
373.0,0.7312
373.5,0.4756
374.0,0.691
374.5,0.572
375.0,0.556
375.5,0.83
376.0,0.6879
376.5,0.7128
377.0,0.7545
377.5,0.8825
378.0,0.9565
378.5,0.9041
379.0,0.7461
379.5,0.6815
380.0,0.7085
380.5,0.8578
381.0,0.8593
381.5,0.6809
382.0,0.6045
382.5,0.5151
383.0,0.4767
383.5,0.4591
384.0,0.5063
384.5,0.7445
385.0,0.7381
385.5,0.6872
386.0,0.5885
386.5,0.7728
387.0,0.6421
387.5,0.7211
388.0,0.6656
388.5,0.6578
389.0,0.71
389.5,0.8598
390.0,0.8627
390.5,0.7938
391.0,0.9342
391.5,0.9527
392.0,0.8023
392.5,0.7181
393.0,0.3995
393.5,0.2903
394.0,0.5907
394.5,0.7508
395.0,0.9161
395.5,0.9305
396.0,0.8066
396.5,0.4714
397.0,0.3537
397.5,0.7192
398.0,1.007
398.5,1.041
399.0,1.127
399.5,1.123
400.0,1.166
401.0,1.186
402.0,1.251
403.0,1.188
404.0,1.169
405.0,1.169
406.0,1.149
407.0,1.13
408.0,1.174
409.0,1.256
410.0,1.097
411.0,1.188
412.0,1.275
413.0,1.243
414.0,1.258
415.0,1.261
416.0,1.282
417.0,1.25
418.0,1.227
419.0,1.242
420.0,1.237
421.0,1.293
422.0,1.229
423.0,1.2
424.0,1.269
425.0,1.266
426.0,1.232
427.0,1.209
428.0,1.178
429.0,1.115
430.0,0.975
431.0,0.9665
432.0,1.247
433.0,1.254
434.0,1.164
435.0,1.216
436.0,1.369
437.0,1.349
438.0,1.228
439.0,1.271
440.0,1.311
441.0,1.358
442.0,1.456
443.0,1.418
444.0,1.448
445.0,1.417
446.0,1.351
447.0,1.46
448.0,1.483
449.0,1.488
450.0,1.529
451.0,1.585
452.0,1.527
453.0,1.435
454.0,1.498
455.0,1.507
456.0,1.542
457.0,1.568
458.0,1.515
459.0,1.506
460.0,1.511
461.0,1.545
462.0,1.556
463.0,1.546
464.0,1.519
465.0,1.499
466.0,1.512
467.0,1.485
468.0,1.502
469.0,1.51
470.0,1.462
471.0,1.46
472.0,1.538
473.0,1.518
474.0,1.521
475.0,1.535
476.0,1.491
477.0,1.496
478.0,1.537
479.0,1.526
480.0,1.529
481.0,1.556
482.0,1.563
483.0,1.543
484.0,1.51
485.0,1.438
486.0,1.257
487.0,1.316
488.0,1.444
489.0,1.449
490.0,1.524
491.0,1.497
492.0,1.413
493.0,1.459
494.0,1.474
495.0,1.486
496.0,1.495
497.0,1.519
498.0,1.448
499.0,1.466
500.0,1.424
501.0,1.399
502.0,1.38
503.0,1.438
504.0,1.406
505.0,1.453
506.0,1.5
507.0,1.427
508.0,1.381
509.0,1.419
510.0,1.41
511.0,1.447
512.0,1.462
513.0,1.384
514.0,1.374
515.0,1.36
516.0,1.357
517.0,1.206
518.0,1.268
519.0,1.33
520.0,1.378
521.0,1.391
522.0,1.393
523.0,1.368
524.0,1.418
525.0,1.435
526.0,1.372
527.0,1.293
528.0,1.369
529.0,1.443
530.0,1.423
531.0,1.444
532.0,1.395
533.0,1.354
534.0,1.393
535.0,1.423
536.0,1.436
537.0,1.379
538.0,1.403
539.0,1.391
540.0,1.334
541.0,1.344
542.0,1.387
543.0,1.371
544.0,1.396
545.0,1.392
546.0,1.399
547.0,1.397
548.0,1.38
549.0,1.384
550.0,1.4
551.0,1.383
552.0,1.392
553.0,1.368
554.0,1.401
555.0,1.404
556.0,1.386
557.0,1.343
558.0,1.333
559.0,1.309
560.0,1.326
561.0,1.344
562.0,1.335
563.0,1.372
564.0,1.336
565.0,1.325
566.0,1.306
567.0,1.331
568.0,1.322
569.0,1.295
570.0,1.294
571.0,1.285
572.0,1.318
573.0,1.333
574.0,1.329
575.0,1.306
576.0,1.294
577.0,1.307
578.0,1.286
579.0,1.29
580.0,1.311
581.0,1.316
582.0,1.338
583.0,1.34
584.0,1.35
585.0,1.317
586.0,1.29
587.0,1.319
588.0,1.293
589.0,1.156
590.0,1.208
591.0,1.272
592.0,1.26
593.0,1.274
594.0,1.267
595.0,1.239
596.0,1.279
597.0,1.267
598.0,1.262
599.0,1.262
600.0,1.261
601.0,1.249
602.0,1.241
603.0,1.26
604.0,1.281
605.0,1.274
606.0,1.268
607.0,1.279
608.0,1.264
609.0,1.266
610.0,1.256
611.0,1.262
612.0,1.258
613.0,1.241
614.0,1.224
615.0,1.25
616.0,1.208
617.0,1.205
618.0,1.251
619.0,1.238
620.0,1.246
621.0,1.248
622.0,1.234
623.0,1.216
624.0,1.194
625.0,1.192
626.0,1.209
627.0,1.225
628.0,1.167
629.0,1.204
630.0,1.177
631.0,1.196
632.0,1.18
633.0,1.213
634.0,1.198
635.0,1.216
636.0,1.198
637.0,1.217
638.0,1.227
639.0,1.212
640.0,1.2
641.0,1.198
642.0,1.192
643.0,1.208
644.0,1.203
645.0,1.205
646.0,1.18
647.0,1.172
648.0,1.174
649.0,1.152
650.0,1.149
651.0,1.197
652.0,1.157
653.0,1.181
654.0,1.167
655.0,1.128
656.0,0.9969
657.0,1.023
658.0,1.145
659.0,1.152
660.0,1.156
661.0,1.164
662.0,1.168
663.0,1.144
664.0,1.155
665.0,1.155
666.0,1.155
667.0,1.153
668.0,1.153
669.0,1.17
670.0,1.164
671.0,1.164
672.0,1.154
673.0,1.171
674.0,1.166
675.0,1.155
676.0,1.163
677.0,1.151
678.0,1.154
679.0,1.135
680.0,1.144
681.0,1.136
682.0,1.135
683.0,1.132
684.0,1.127
685.0,1.136
686.0,1.13
687.0,0.8507
688.0,0.9475
689.0,0.9493
690.0,0.9796
691.0,1.013
692.0,1.036
693.0,1.029
694.0,1.021
695.0,1.051
696.0,1.053
697.0,1.102
698.0,1.085
699.0,1.069
700.0,1.056
701.0,1.048
702.0,1.052
703.0,1.054
704.0,1.082
705.0,1.083
706.0,1.08
707.0,1.08
708.0,1.082
709.0,1.08
710.0,1.082
711.0,1.079
712.0,1.075
713.0,1.065
714.0,1.069
715.0,1.039
716.0,1.041
717.0,0.9395
718.0,0.8703
719.0,0.8017
720.0,0.842
721.0,0.9058
722.0,1.011
723.0,0.9544
724.0,0.8751
725.0,0.8664
726.0,0.9035
727.0,0.9081
728.0,0.8656
729.0,0.8845
730.0,0.9349
731.0,0.8992
732.0,0.9476
733.0,0.9893
734.0,1.009
735.0,0.9901
736.0,0.9886
737.0,0.993
738.0,0.9996
739.0,0.9801
740.0,1.003
741.0,0.9913
742.0,0.9907
743.0,1.015
744.0,1.012
745.0,1.011
746.0,1.016
747.0,1.018
748.0,1.015
749.0,1.004
750.0,1.003
751.0,0.9929
752.0,0.9971
753.0,1.002
754.0,1.004
755.0,0.9986
756.0,0.9981
757.0,0.9996
758.0,0.9873
759.0,0.9723
760.0,0.2762
761.0,0.1753
762.0,0.6031
763.0,0.3719
764.0,0.4949
765.0,0.6036
766.0,0.6889
767.0,0.8196
768.0,0.9078
769.0,0.9185
770.0,0.9404
771.0,0.9439
772.0,0.9446
773.0,0.9509
774.0,0.946
775.0,0.9386
776.0,0.95
777.0,0.9374
778.0,0.9318
779.0,0.9325
780.0,0.9272
781.0,0.9281
782.0,0.9338
783.0,0.9175
784.0,0.9217
785.0,0.9152
786.0,0.9256
787.0,0.9133
788.0,0.9038
789.0,0.904
790.0,0.8857
791.0,0.8878
792.0,0.8806
793.0,0.867
794.0,0.8758
795.0,0.8921
796.0,0.8725
797.0,0.8737
798.0,0.8918
799.0,0.8877
800.0,0.8741
801.0,0.873
802.0,0.8704
803.0,0.8647
804.0,0.865
805.0,0.8601
806.0,0.8806
807.0,0.8709
808.0,0.8712
809.0,0.8576
810.0,0.8527
811.0,0.8573
812.0,0.8383
813.0,0.8245
814.0,0.7444
815.0,0.7394
816.0,0.6912
817.0,0.7013
818.0,0.6793
819.0,0.7425
820.0,0.706
821.0,0.8025
822.0,0.7834
823.0,0.57
824.0,0.7682
825.0,0.7899
826.0,0.7667
827.0,0.8017
828.0,0.7003
829.0,0.7606
830.0,0.7529
831.0,0.7547
832.0,0.7353
833.0,0.7714
834.0,0.751
835.0,0.8105
836.0,0.7847
837.0,0.8122
838.0,0.7907
839.0,0.7991
840.0,0.8156
841.0,0.8057
842.0,0.8048
843.0,0.8017
844.0,0.7921
845.0,0.8168
846.0,0.8128
847.0,0.7968
848.0,0.7931
849.0,0.7706
850.0,0.7381
851.0,0.7827
852.0,0.7766
853.0,0.7466
854.0,0.6455
855.0,0.708
856.0,0.7742
857.0,0.7906
858.0,0.7852
859.0,0.7853
860.0,0.7864
861.0,0.7822
862.0,0.7943
863.0,0.8131
864.0,0.7724
865.0,0.7655
866.0,0.6883
867.0,0.7183
868.0,0.7816
869.0,0.7653
870.0,0.7871
871.0,0.7764
872.0,0.7736
873.0,0.772
874.0,0.7628
875.0,0.7474
876.0,0.7553
877.0,0.7628
878.0,0.7713
879.0,0.7594
880.0,0.7431
881.0,0.7325
882.0,0.7485
883.0,0.7504
884.0,0.7471
885.0,0.7528
886.0,0.7194
887.0,0.7255
888.0,0.7373
889.0,0.7438
890.0,0.7397
891.0,0.7374
892.0,0.7187
893.0,0.6998
894.0,0.6817
895.0,0.6525
896.0,0.6189
897.0,0.5435
898.0,0.586
899.0,0.4607
900.0,0.593
901.0,0.4821
902.0,0.5463
903.0,0.5578
904.0,0.6765
905.0,0.6571
906.0,0.6181
907.0,0.5197
908.0,0.5277
909.0,0.5629
910.0,0.513
911.0,0.5379
912.0,0.5585
913.0,0.5213
914.0,0.5143
915.0,0.5555
916.0,0.4755
917.0,0.5859
918.0,0.4878
919.0,0.5929
920.0,0.5917
921.0,0.6132
922.0,0.5591
923.0,0.5918
924.0,0.5734
925.0,0.5614
926.0,0.5673
927.0,0.6246
928.0,0.4881
929.0,0.4537
930.0,0.37
931.0,0.3481
932.0,0.2642
933.0,0.2226
934.0,0.1387
935.0,0.2213
936.0,0.1484
937.0,0.1521
938.0,0.1828
939.0,0.3373
940.0,0.3965
941.0,0.3121
942.0,0.3528
943.0,0.2423
944.0,0.2463
945.0,0.3196
946.0,0.1767
947.0,0.3245
948.0,0.241
949.0,0.4203
950.0,0.1396
951.0,0.4115
952.0,0.2399
953.0,0.2975
954.0,0.3513
955.0,0.2993
956.0,0.2852
957.0,0.2422
958.0,0.3842
959.0,0.3194
960.0,0.3574
961.0,0.3905
962.0,0.3711
963.0,0.4183
964.0,0.3865
965.0,0.4155
966.0,0.418
967.0,0.417
968.0,0.5276
969.0,0.553
970.0,0.5125
971.0,0.573
972.0,0.5507
973.0,0.4932
974.0,0.4704
975.0,0.4826
976.0,0.4654
977.0,0.5156
978.0,0.4957
979.0,0.5146
980.0,0.4869
981.0,0.569
982.0,0.5489
983.0,0.53
984.0,0.5809
985.0,0.5467
986.0,0.5879
987.0,0.5798
988.0,0.5788
989.0,0.5842
990.0,0.5749
991.0,0.5863
992.0,0.5894
993.0,0.5796
994.0,0.5888
995.0,0.5876
996.0,0.5855
997.0,0.5861
998.0,0.5836
999.0,0.5813
1000.0,0.578
1001.0,0.5843
1002.0,0.5715
1003.0,0.5742
1004.0,0.561
1005.0,0.5393
1006.0,0.5609
1007.0,0.5725
1008.0,0.57
1009.0,0.5676
1010.0,0.5656
1011.0,0.5695
1012.0,0.5652
1013.0,0.568
1014.0,0.564
1015.0,0.5604
1016.0,0.5579
1017.0,0.5594
1018.0,0.5569
1019.0,0.5463
1020.0,0.5542
1021.0,0.5532
1022.0,0.5494
1023.0,0.5553
1024.0,0.5493
1025.0,0.5545
1026.0,0.5524
1027.0,0.5511
1028.0,0.55
1029.0,0.5436
1030.0,0.5469
1031.0,0.5449
1032.0,0.5432
1033.0,0.535
1034.0,0.535
1035.0,0.5367
1036.0,0.5396
1037.0,0.5308
1038.0,0.5332
1039.0,0.5329
1040.0,0.5308
1041.0,0.533
1042.0,0.5293
1043.0,0.5277
1044.0,0.5296
1045.0,0.5225
1046.0,0.5168
1047.0,0.5216
1048.0,0.5245
1049.0,0.5227
1050.0,0.5204
1051.0,0.5198
1052.0,0.5178
1053.0,0.5139
1054.0,0.5151
1055.0,0.5156
1056.0,0.514
1057.0,0.5126
1058.0,0.5001
1059.0,0.5009
1060.0,0.5002
1061.0,0.4997
1062.0,0.5025
1063.0,0.4977
1064.0,0.5036
1065.0,0.5004
1066.0,0.4902
1067.0,0.4966
1068.0,0.4861
1069.0,0.4708
1070.0,0.4872
1071.0,0.4936
1072.0,0.4888
1073.0,0.4816
1074.0,0.4927
1075.0,0.4716
1076.0,0.4925
1077.0,0.4857
1078.0,0.4772
1079.0,0.4841
1080.0,0.4783
1081.0,0.4646
1082.0,0.4691
1083.0,0.4698
1084.0,0.4644
1085.0,0.479
1086.0,0.4429
1087.0,0.4527
1088.0,0.4699
1089.0,0.4588
1090.0,0.4512
1091.0,0.4693
1092.0,0.4674
1093.0,0.4067
1094.0,0.4289
1095.0,0.422
1096.0,0.4073
1097.0,0.4564
1098.0,0.402
1099.0,0.4176
1100.0,0.3931
1101.0,0.3966
1102.0,0.3816
1103.0,0.38
1104.0,0.3802
1105.0,0.4091
1106.0,0.3312
1107.0,0.3921
1108.0,0.3434
1109.0,0.3419
1110.0,0.3899
1111.0,0.2796
1112.0,0.3384
1113.0,0.2315
1114.0,0.2566
1115.0,0.2132
1116.0,0.1804
1117.0,0.07829
1118.0,0.1922
1119.0,0.1046
1120.0,0.1317
1121.0,0.1688
1122.0,0.07922
1123.0,0.1188
1124.0,0.1004
1125.0,0.1287
1126.0,0.05309
1127.0,0.1445
1128.0,0.09524
1129.0,0.09956
1130.0,0.06982
1131.0,0.2537
1132.0,0.2029
1133.0,0.1393
1134.0,0.04286
1135.0,0.01577
1136.0,0.12
1137.0,0.252
1138.0,0.1802
1139.0,0.2492
1140.0,0.2157
1141.0,0.1712
1142.0,0.1927
1143.0,0.2655
1144.0,0.1032
1145.0,0.1339
1146.0,0.1446
1147.0,0.05969
1148.0,0.23
1149.0,0.1899
1150.0,0.1107
1151.0,0.179
1152.0,0.2131
1153.0,0.2023
1154.0,0.132
1155.0,0.2602
1156.0,0.2381
1157.0,0.2619
1158.0,0.2587
1159.0,0.274
1160.0,0.2405
1161.0,0.285
1162.0,0.2872
1163.0,0.3693
1164.0,0.3237
1165.0,0.3116
1166.0,0.3052
1167.0,0.3289
1168.0,0.3338
1169.0,0.3392
1170.0,0.3634
1171.0,0.3553
1172.0,0.3587
1173.0,0.3626
1174.0,0.2741
1175.0,0.3521
1176.0,0.38
1177.0,0.3693
1178.0,0.2889
1179.0,0.3828
1180.0,0.3495
1181.0,0.3598
1182.0,0.2608
1183.0,0.3525
1184.0,0.3345
1185.0,0.3263
1186.0,0.375
1187.0,0.3608
1188.0,0.2661
1189.0,0.337
1190.0,0.3664
1191.0,0.354
1192.0,0.3708
1193.0,0.3576
1194.0,0.367
1195.0,0.3514
1196.0,0.3413
1197.0,0.3648
1198.0,0.3373
1199.0,0.2969
1200.0,0.3535
1201.0,0.3443
1202.0,0.3404
1203.0,0.3376
1204.0,0.301
1205.0,0.3454
1206.0,0.3758
1207.0,0.3404
1208.0,0.3321
1209.0,0.3382
1210.0,0.3501
1211.0,0.3372
1212.0,0.3373
1213.0,0.3655
1214.0,0.3432
1215.0,0.3378
1216.0,0.3642
1217.0,0.3565
1218.0,0.3614
1219.0,0.3578
1220.0,0.3615
1221.0,0.3641
1222.0,0.3558
1223.0,0.3532
1224.0,0.3524
1225.0,0.3618
1226.0,0.3631
1227.0,0.3398
1228.0,0.3639
1229.0,0.3631
1230.0,0.3578
1231.0,0.3649
1232.0,0.3629
1233.0,0.3542
1234.0,0.3638
1235.0,0.3621
1236.0,0.3642
1237.0,0.3607
1238.0,0.363
1239.0,0.3584
1240.0,0.3596
1241.0,0.3588
1242.0,0.3572
1243.0,0.3542
1244.0,0.357
1245.0,0.3584
1246.0,0.3562
1247.0,0.3551
1248.0,0.3554
1249.0,0.356
1250.0,0.3542
1251.0,0.3502
1252.0,0.3495
1253.0,0.348
1254.0,0.3456
1255.0,0.3495
1256.0,0.3421
1257.0,0.3408
1258.0,0.3452
1259.0,0.3365
1260.0,0.3378
1261.0,0.3237
1262.0,0.3165
1263.0,0.3173
1264.0,0.2989
1265.0,0.3151
1266.0,0.3068
1267.0,0.3097
1268.0,0.2976
1269.0,0.2125
1270.0,0.3095
1271.0,0.322
1272.0,0.3224
1273.0,0.3196
1274.0,0.3199
1275.0,0.3236
1276.0,0.3258
1277.0,0.3269
1278.0,0.3311
1279.0,0.3283
1280.0,0.3241
1281.0,0.3083
1282.0,0.2956
1283.0,0.3187
1284.0,0.3266
1285.0,0.3285
1286.0,0.3321
1287.0,0.3286
1288.0,0.3281
1289.0,0.3207
1290.0,0.325
1291.0,0.329
1292.0,0.3147
1293.0,0.324
1294.0,0.322
1295.0,0.3218
1296.0,0.3109
1297.0,0.2971
1298.0,0.3139
1299.0,0.3238
1300.0,0.2844
1301.0,0.291
1302.0,0.3127
1303.0,0.2796
1304.0,0.2483
1305.0,0.3071
1306.0,0.3076
1307.0,0.2502
1308.0,0.2785
1309.0,0.306
1310.0,0.2459
1311.0,0.2692
1312.0,0.2635
1313.0,0.2599
1314.0,0.2362
1315.0,0.2353
1316.0,0.2665
1317.0,0.2536
1318.0,0.2716
1319.0,0.2241
1320.0,0.2145
1321.0,0.2458
1322.0,0.2499
1323.0,0.198
1324.0,0.2197
1325.0,0.2632
1326.0,0.2322
1327.0,0.223
1328.0,0.1955
1329.0,0.1553
1330.0,0.1977
1331.0,0.1301
1332.0,0.1306
1333.0,0.1787
1334.0,0.1473
1335.0,0.197
1336.0,0.161
1337.0,0.1458
1338.0,0.1572
1339.0,0.1552
1340.0,0.1483
1341.0,0.1507
1342.0,0.1579
1343.0,0.1204
1344.0,0.07197
1345.0,0.1018
1346.0,0.06025
1347.0,0.06285
1348.0,0.006423
1349.0,0.02006
1350.0,0.0189
1351.0,0.00685
1352.0,0.00274
1353.0,0.0002303
1354.0,0.0005898
1355.0,1.246e-05
1356.0,0.0001178
1357.0,0.0001759
1358.0,1.42e-05
1359.0,3.563e-06
1360.0,8.315e-06
1361.0,4.243e-08
1362.0,2.374e-10
1363.0,1.296e-05
1364.0,5.938e-06
1365.0,1.803e-10
1366.0,4.675e-05
1367.0,1.805e-05
1368.0,6.691e-12
1369.0,2.354e-06
1370.0,1.546e-06
1371.0,1.31e-07
1372.0,1.005e-05
1373.0,0.0001225
1374.0,0.0004085
1375.0,0.000724
1376.0,0.000523
1377.0,0.0002606
1378.0,0.0021
1379.0,0.0001126
1380.0,0.0001936
1381.0,6.513e-06
1382.0,9.808e-06
1383.0,2.056e-07
1384.0,2.956e-06
1385.0,6.831e-06
1386.0,1.056e-05
1387.0,0.0004944
1388.0,1.098e-05
1389.0,0.001201
1390.0,0.001022
1391.0,0.0007488
1392.0,5.734e-05
1393.0,0.0002498
1394.0,0.0002106
1395.0,2.453e-06
1396.0,5.037e-08
1397.0,0.0001144
1398.0,0.002408
1399.0,0.001538
1400.0,3.17e-08
1401.0,7.845e-08
1402.0,0.002831
1403.0,0.003816
1404.0,0.001207
1405.0,1.535e-06
1406.0,0.003515
1407.0,0.0003028
1408.0,0.00283
1409.0,0.001207
1410.0,0.000864
1411.0,0.003317
1412.0,0.003993
1413.0,0.02814
1414.0,0.0006659
1415.0,0.0003617
1416.0,0.03849
1417.0,0.01466
1418.0,0.01669
1419.0,0.002764
1420.0,0.01036
1421.0,0.01154
1422.0,0.04921
1423.0,0.01043
1424.0,0.01882
1425.0,0.02851
1426.0,0.0299
1427.0,0.04909
1428.0,0.006219
1429.0,0.03918
1430.0,0.06077
1431.0,0.06524
1432.0,0.004998
1433.0,0.04373
1434.0,0.02339
1435.0,0.02721
1436.0,0.04624
1437.0,0.03557
1438.0,0.0168
1439.0,0.06008
1440.0,0.04547
1441.0,0.03751
1442.0,0.0408
1443.0,0.04691
1444.0,0.06336
1445.0,0.0529
1446.0,0.02486
1447.0,0.03922
1448.0,0.1076
1449.0,0.09689
1450.0,0.02902
1451.0,0.01262
1452.0,0.06151
1453.0,0.07867
1454.0,0.1235
1455.0,0.06259
1456.0,0.08592
1457.0,0.1082
1458.0,0.1211
1459.0,0.1442
1460.0,0.07873
1461.0,0.08494
1462.0,0.119
