interpolation:linear
wavelength,value
280.0,2.322e-21
280.5,7.326e-20
281.0,3.874e-19
281.5,3.818e-19
282.0,1.025e-18
282.5,2.667e-18
283.0,8.588e-18
283.5,1.404e-17
284.0,2.286e-16
284.5,6.604e-16
285.0,1.465e-15
285.5,7.057e-15
286.0,2.817e-14
286.5,1.241e-13
287.0,3.51e-13
287.5,1.328e-12
288.0,3.636e-12
288.5,1.191e-11
289.0,3.347e-11
289.5,1.051e-10
290.0,2.986e-10
290.5,6.185e-10
291.0,1.347e-09
291.5,3.919e-09
292.0,8.197e-09
292.5,1.223e-08
293.0,2.833e-08
293.5,7.644e-08
294.0,1.285e-07
294.5,1.665e-07
295.0,3.024e-07
295.5,7.631e-07
296.0,1.528e-06
296.5,2.228e-06
297.0,3.132e-06
297.5,8.952e-06
298.0,1.499e-05
298.5,1.586e-05
299.0,3.688e-05
299.5,6.765e-05
300.0,7.915e-05
300.5,0.0001228
301.0,0.0002515
301.5,0.0004592
302.0,0.000427
302.5,0.0008468
303.0,0.001551
303.5,0.001978
304.0,0.001876
304.5,0.002866
305.0,0.004484
305.5,0.005235
306.0,0.005105
306.5,0.006434
307.0,0.009791
307.5,0.01333
308.0,0.01413
308.5,0.01688
309.0,0.01669
309.5,0.01935
310.0,0.01955
310.5,0.03177
311.0,0.04007
311.5,0.03877
312.0,0.03917
312.5,0.04799
313.0,0.05224
313.5,0.05058
314.0,0.06374
314.5,0.0571
315.0,0.07518
315.5,0.06261
316.0,0.05513
316.5,0.0797
317.0,0.09896
317.5,0.1028
318.0,0.08059
318.5,0.1009
319.0,0.1203
319.5,0.09742
320.0,0.1176
320.5,0.1485
321.0,0.1332
321.5,0.1278
322.0,0.1352
322.5,0.1177
323.0,0.1178
323.5,0.1454
324.0,0.1699
324.5,0.1722
325.0,0.1485
325.5,0.1917
326.0,0.2347
326.5,0.2356
327.0,0.2347
327.5,0.2265
328.0,0.2011
328.5,0.2122
329.0,0.2548
329.5,0.2895
330.0,0.2919
330.5,0.2332
331.0,0.2375
331.5,0.2418
332.0,0.2619
332.5,0.2593
333.0,0.2585
333.5,0.2336
334.0,0.2394
334.5,0.2768
335.0,0.2604
335.5,0.3042
336.0,0.2106
336.5,0.2465
337.0,0.2021
337.5,0.2514
338.0,0.2459
338.5,0.284
339.0,0.2812
339.5,0.2705
340.0,0.318
340.5,0.2867
341.0,0.2797
341.5,0.2569
342.0,0.3072
342.5,0.2875
343.0,0.3162
343.5,0.2978
344.0,0.2201
344.5,0.2224
345.0,0.2944
345.5,0.3008
346.0,0.2557
346.5,0.2897
347.0,0.311
347.5,0.2515
348.0,0.2869
348.5,0.2869
349.0,0.2662
349.5,0.2637
350.0,0.3263
350.5,0.3443
351.0,0.3076
351.5,0.299
352.0,0.3212
352.5,0.2508
353.0,0.316
353.5,0.3381
354.0,0.351
354.5,0.3561
355.0,0.355
355.5,0.3208
356.0,0.3358
356.5,0.2868
357.0,0.237
357.5,0.2902
358.0,0.2301
358.5,0.1967
359.0,0.2751
359.5,0.3507
360.0,0.3718
360.5,0.2973
361.0,0.2711
361.5,0.3123
362.0,0.2702
362.5,0.3742
363.0,0.3362
363.5,0.3099
364.0,0.3791
364.5,0.3241
365.0,0.3302
365.5,0.4146
366.0,0.4395
366.5,0.4131
367.0,0.4024
367.5,0.4177
368.0,0.3657
368.5,0.3691
369.0,0.3988
369.5,0.4252
370.0,0.4534
370.5,0.3521
371.0,0.3763
371.5,0.4709
372.0,0.3126
372.5,0.375
373.0,0.3816
373.5,0.2484
374.0,0.361
374.5,0.2991
375.0,0.2908
375.5,0.4343
376.0,0.3601
376.5,0.3733
377.0,0.3954
377.5,0.4627
378.0,0.5017
378.5,0.4743
379.0,0.3915
379.5,0.3577
380.0,0.372
380.5,0.4507
381.0,0.4519
381.5,0.3584
382.0,0.3184
382.5,0.2715
383.0,0.2515
383.5,0.2423
384.0,0.2674
384.5,0.3934
385.0,0.3903
385.5,0.3636
386.0,0.3115
386.5,0.4094
387.0,0.3403
387.5,0.3823
388.0,0.3531
388.5,0.3491
389.0,0.377
389.5,0.4567
390.0,0.4585
390.5,0.4221
391.0,0.4971
391.5,0.5071
392.0,0.4272
392.5,0.3826
393.0,0.213
393.5,0.1549
394.0,0.3152
394.5,0.4009
395.0,0.4894
395.5,0.4972
396.0,0.4312
396.5,0.2522
397.0,0.1893
397.5,0.3851
398.0,0.5394
398.5,0.5577
399.0,0.6042
399.5,0.6024
400.0,0.6256
401.0,0.6339
402.0,0.6692
403.0,0.6361
404.0,0.6266
405.0,0.6268
406.0,0.617
407.0,0.6074
408.0,0.6314
409.0,0.6761
410.0,0.591
411.0,0.6405
412.0,0.6884
413.0,0.6715
414.0,0.6801
415.0,0.6823
416.0,0.6946
417.0,0.6778
418.0,0.6655
419.0,0.6745
420.0,0.6718
421.0,0.7031
422.0,0.6685
423.0,0.6533
424.0,0.6912
425.0,0.6902
426.0,0.6727
427.0,0.6604
428.0,0.6435
429.0,0.6098
430.0,0.5339
431.0,0.5293
432.0,0.6837
433.0,0.6877
434.0,0.6387
435.0,0.6672
436.0,0.7521
437.0,0.7424
438.0,0.6763
439.0,0.6993
440.0,0.7219
441.0,0.7483
442.0,0.8028
443.0,0.7819
444.0,0.7992
445.0,0.7819
446.0,0.7466
447.0,0.8075
448.0,0.8201
449.0,0.8238
450.0,0.8471
451.0,0.8787
452.0,0.8468
453.0,0.7966
454.0,0.8319
455.0,0.8372
456.0,0.8572
457.0,0.8716
458.0,0.8418
459.0,0.8376
460.0,0.8399
461.0,0.8593
462.0,0.8662
463.0,0.8603
464.0,0.8464
465.0,0.8361
466.0,0.8445
467.0,0.829
468.0,0.8388
469.0,0.8433
470.0,0.8164
471.0,0.8155
472.0,0.8592
473.0,0.8481
474.0,0.8492
475.0,0.8563
476.0,0.8304
477.0,0.8326
478.0,0.8558
479.0,0.8508
480.0,0.8526
481.0,0.8688
482.0,0.8737
483.0,0.8634
484.0,0.8459
485.0,0.8061
486.0,0.7049
487.0,0.739
488.0,0.8107
489.0,0.8132
490.0,0.8557
491.0,0.8411
492.0,0.7943
493.0,0.8204
494.0,0.8287
495.0,0.8358
496.0,0.8409
497.0,0.854
498.0,0.814
499.0,0.8244
500.0,0.8002
501.0,0.7854
502.0,0.774
503.0,0.8052
504.0,0.7836
505.0,0.8126
506.0,0.8388
507.0,0.7983
508.0,0.7737
509.0,0.7957
510.0,0.7917
511.0,0.8132
512.0,0.8221
513.0,0.7782
514.0,0.7729
515.0,0.7653
516.0,0.7634
517.0,0.6784
518.0,0.7132
519.0,0.748
520.0,0.7752
521.0,0.7825
522.0,0.7831
523.0,0.769
524.0,0.7963
525.0,0.8054
526.0,0.7693
527.0,0.7247
528.0,0.7663
529.0,0.8076
530.0,0.7959
531.0,0.8076
532.0,0.7798
533.0,0.757
534.0,0.7795
535.0,0.7966
536.0,0.8041
537.0,0.7725
538.0,0.7862
539.0,0.7795
540.0,0.7473
541.0,0.752
542.0,0.7754
543.0,0.7675
544.0,0.7805
545.0,0.7782
546.0,0.7813
547.0,0.7812
548.0,0.772
549.0,0.7744
550.0,0.7836
551.0,0.7742
552.0,0.7795
553.0,0.7656
554.0,0.7838
555.0,0.7853
556.0,0.7751
557.0,0.7509
558.0,0.7451
559.0,0.731
560.0,0.74
561.0,0.7494
562.0,0.7438
563.0,0.7639
564.0,0.7429
565.0,0.7363
566.0,0.7254
567.0,0.7389
568.0,0.7317
569.0,0.7132
570.0,0.7131
571.0,0.7092
572.0,0.7254
573.0,0.733
574.0,0.7306
575.0,0.7166
576.0,0.7101
577.0,0.718
578.0,0.7075
579.0,0.7108
580.0,0.7252
581.0,0.7295
582.0,0.7439
583.0,0.7462
584.0,0.7529
585.0,0.7347
586.0,0.7196
587.0,0.7351
588.0,0.7158
589.0,0.6314
590.0,0.6605
591.0,0.7006
592.0,0.6908
593.0,0.7022
594.0,0.6968
595.0,0.6787
596.0,0.7077
597.0,0.6995
598.0,0.6983
599.0,0.6993
600.0,0.7009
601.0,0.6956
602.0,0.6909
603.0,0.7026
604.0,0.7143
605.0,0.7108
606.0,0.7081
607.0,0.7154
608.0,0.7077
609.0,0.7091
610.0,0.7043
611.0,0.7081
612.0,0.7062
613.0,0.6974
614.0,0.6881
615.0,0.7033
616.0,0.6803
617.0,0.679
618.0,0.7053
619.0,0.6982
620.0,0.7026
621.0,0.7031
622.0,0.6947
623.0,0.684
624.0,0.6724
625.0,0.6709
626.0,0.6808
627.0,0.6879
628.0,0.6361
629.0,0.6694
630.0,0.6538
631.0,0.6707
632.0,0.663
633.0,0.6841
634.0,0.6781
635.0,0.689
636.0,0.6803
637.0,0.6918
638.0,0.6989
639.0,0.6913
640.0,0.6849
641.0,0.6847
642.0,0.6818
643.0,0.691
644.0,0.6891
645.0,0.69
646.0,0.6732
647.0,0.6635
648.0,0.664
649.0,0.651
650.0,0.6564
651.0,0.6852
652.0,0.6544
653.0,0.6762
654.0,0.6689
655.0,0.6428
656.0,0.5706
657.0,0.586
658.0,0.6574
659.0,0.6625
660.0,0.6654
661.0,0.6701
662.0,0.671
663.0,0.6579
664.0,0.6664
665.0,0.6674
666.0,0.6681
667.0,0.6677
668.0,0.6683
669.0,0.6788
670.0,0.6759
671.0,0.6759
672.0,0.6702
673.0,0.6804
674.0,0.678
675.0,0.6719
676.0,0.6766
677.0,0.67
678.0,0.672
679.0,0.6612
680.0,0.6665
681.0,0.6622
682.0,0.6613
683.0,0.6601
684.0,0.6568
685.0,0.6625
686.0,0.6585
687.0,0.4101
688.0,0.4932
689.0,0.4954
690.0,0.5239
691.0,0.5564
692.0,0.5807
693.0,0.5755
694.0,0.5709
695.0,0.5979
696.0,0.5988
697.0,0.6396
698.0,0.6296
699.0,0.6118
700.0,0.6043
701.0,0.5972
702.0,0.6024
703.0,0.6036
704.0,0.6246
705.0,0.6255
706.0,0.6256
707.0,0.6263
708.0,0.6276
709.0,0.6295
710.0,0.629
711.0,0.6285
712.0,0.6271
713.0,0.6203
714.0,0.6228
715.0,0.6021
716.0,0.6021
717.0,0.5124
718.0,0.4693
719.0,0.429
720.0,0.4485
721.0,0.501
722.0,0.5796
723.0,0.5363
724.0,0.4793
725.0,0.4703
726.0,0.4928
727.0,0.5023
728.0,0.4687
729.0,0.4898
730.0,0.5179
731.0,0.4946
732.0,0.5328
733.0,0.5675
734.0,0.582
735.0,0.5694
736.0,0.5686
737.0,0.5708
738.0,0.5821
739.0,0.5706
740.0,0.5863
741.0,0.5809
742.0,0.5819
743.0,0.5968
744.0,0.5954
745.0,0.5958
746.0,0.5985
747.0,0.5999
748.0,0.5987
749.0,0.5918
750.0,0.5915
751.0,0.5855
752.0,0.5881
753.0,0.5911
754.0,0.5924
755.0,0.589
756.0,0.5888
757.0,0.5897
758.0,0.5823
759.0,0.5689
760.0,0.07112
761.0,0.03364
762.0,0.2621
763.0,0.1165
764.0,0.1874
765.0,0.262
766.0,0.3349
767.0,0.4366
768.0,0.5156
769.0,0.5291
770.0,0.5501
771.0,0.5559
772.0,0.5575
773.0,0.5615
774.0,0.5589
775.0,0.5547
776.0,0.5615
777.0,0.5541
778.0,0.5507
779.0,0.5512
780.0,0.5481
781.0,0.5487
782.0,0.5522
783.0,0.5426
784.0,0.5453
785.0,0.5411
786.0,0.547
787.0,0.5362
788.0,0.529
789.0,0.5286
790.0,0.5129
791.0,0.519
792.0,0.5154
793.0,0.5069
794.0,0.5173
795.0,0.5256
796.0,0.5071
797.0,0.5076
798.0,0.5247
799.0,0.5209
800.0,0.5113
801.0,0.5092
802.0,0.5077
803.0,0.5035
804.0,0.5045
805.0,0.5036
806.0,0.5189
807.0,0.5124
808.0,0.513
809.0,0.5024
810.0,0.4977
811.0,0.4971
812.0,0.4813
813.0,0.4704
814.0,0.4088
815.0,0.4065
816.0,0.3777
817.0,0.3852
818.0,0.3696
819.0,0.4176
820.0,0.3916
821.0,0.464
822.0,0.4497
823.0,0.2961
824.0,0.4343
825.0,0.4558
826.0,0.4365
827.0,0.4627
828.0,0.3865
829.0,0.4343
830.0,0.428
831.0,0.4297
832.0,0.4154
833.0,0.4448
834.0,0.4272
835.0,0.4735
836.0,0.4505
837.0,0.475
838.0,0.4589
839.0,0.4681
840.0,0.4787
841.0,0.4714
842.0,0.4733
843.0,0.474
844.0,0.4669
845.0,0.4833
846.0,0.4814
847.0,0.4727
848.0,0.4693
849.0,0.456
850.0,0.4369
851.0,0.4622
852.0,0.4591
853.0,0.4423
854.0,0.3816
855.0,0.4197
856.0,0.4584
857.0,0.4689
858.0,0.4653
859.0,0.466
860.0,0.4669
861.0,0.4643
862.0,0.4717
863.0,0.4828
864.0,0.4587
865.0,0.4548
866.0,0.4089
867.0,0.4267
868.0,0.4644
869.0,0.4548
870.0,0.4677
871.0,0.4614
872.0,0.4598
873.0,0.4588
874.0,0.4534
875.0,0.4442
876.0,0.4488
877.0,0.4533
878.0,0.4582
879.0,0.4512
880.0,0.4415
881.0,0.4347
882.0,0.444
883.0,0.4456
884.0,0.4435
885.0,0.4468
886.0,0.425
887.0,0.4302
888.0,0.4361
889.0,0.4418
890.0,0.4372
891.0,0.4369
892.0,0.4232
893.0,0.4087
894.0,0.3918
895.0,0.367
896.0,0.3446
897.0,0.292
898.0,0.3208
899.0,0.2394
900.0,0.331
901.0,0.2509
902.0,0.3008
903.0,0.3016
904.0,0.3888
905.0,0.3742
906.0,0.3491
907.0,0.2774
908.0,0.2839
909.0,0.3103
910.0,0.2693
911.0,0.2904
912.0,0.3045
913.0,0.273
914.0,0.2717
915.0,0.2946
916.0,0.2482
917.0,0.3203
918.0,0.2542
919.0,0.3277
920.0,0.3343
921.0,0.3479
922.0,0.3072
923.0,0.3363
924.0,0.3143
925.0,0.3075
926.0,0.3105
927.0,0.3514
928.0,0.247
929.0,0.2226
930.0,0.1703
931.0,0.1619
932.0,0.1118
933.0,0.08852
934.0,0.04369
935.0,0.0925
936.0,0.05462
937.0,0.05508
938.0,0.06892
939.0,0.1568
940.0,0.192
941.0,0.1404
942.0,0.1652
943.0,0.1051
944.0,0.1141
945.0,0.1457
946.0,0.06935
947.0,0.145
948.0,0.106
949.0,0.1989
950.0,0.04828
951.0,0.1967
952.0,0.09945
953.0,0.1326
954.0,0.1672
955.0,0.1346
956.0,0.1339
957.0,0.0991
958.0,0.1958
959.0,0.1502
960.0,0.1683
961.0,0.1932
962.0,0.1823
963.0,0.2139
964.0,0.1948
965.0,0.2133
966.0,0.2125
967.0,0.2112
968.0,0.2967
969.0,0.3084
970.0,0.2817
971.0,0.3283
972.0,0.3129
973.0,0.2664
974.0,0.2521
975.0,0.264
976.0,0.2474
977.0,0.2881
978.0,0.2709
979.0,0.2856
980.0,0.2674
981.0,0.3266
982.0,0.3101
983.0,0.2965
984.0,0.3391
985.0,0.3089
986.0,0.3467
987.0,0.338
988.0,0.3375
989.0,0.3466
990.0,0.3354
991.0,0.3474
992.0,0.3496
993.0,0.3401
994.0,0.3497
995.0,0.3495
996.0,0.3477
997.0,0.3484
998.0,0.3466
999.0,0.3454
1000.0,0.3426
1001.0,0.3473
1002.0,0.336
1003.0,0.3411
1004.0,0.3323
1005.0,0.3207
1006.0,0.333
1007.0,0.3402
1008.0,0.338
1009.0,0.3359
1010.0,0.3343
1011.0,0.3385
1012.0,0.3352
1013.0,0.3378
1014.0,0.3354
1015.0,0.3331
1016.0,0.3316
1017.0,0.3324
1018.0,0.3313
1019.0,0.3236
1020.0,0.3295
1021.0,0.3291
1022.0,0.3263
1023.0,0.3298
1024.0,0.3248
1025.0,0.3298
1026.0,0.3282
1027.0,0.3275
1028.0,0.3267
1029.0,0.3228
1030.0,0.3252
1031.0,0.3238
1032.0,0.323
1033.0,0.3181
1034.0,0.3181
1035.0,0.3191
1036.0,0.3207
1037.0,0.3155
1038.0,0.3169
1039.0,0.3167
1040.0,0.3154
1041.0,0.3166
1042.0,0.3144
1043.0,0.3133
1044.0,0.3144
1045.0,0.3101
1046.0,0.3066
1047.0,0.3093
1048.0,0.311
1049.0,0.3098
1050.0,0.3083
1051.0,0.3078
1052.0,0.3065
1053.0,0.304
1054.0,0.3045
1055.0,0.3046
1056.0,0.3034
1057.0,0.3024
1058.0,0.2949
1059.0,0.2951
1060.0,0.2946
1061.0,0.2942
1062.0,0.2956
1063.0,0.2926
1064.0,0.2961
1065.0,0.2937
1066.0,0.2881
1067.0,0.2917
1068.0,0.2852
1069.0,0.2765
1070.0,0.2857
1071.0,0.2908
1072.0,0.287
1073.0,0.2829
1074.0,0.2909
1075.0,0.2745
1076.0,0.2906
1077.0,0.2844
1078.0,0.2785
1079.0,0.2862
1080.0,0.28
1081.0,0.2701
1082.0,0.276
1083.0,0.2773
1084.0,0.269
1085.0,0.2808
1086.0,0.2536
1087.0,0.2636
1088.0,0.2767
1089.0,0.2664
1090.0,0.2595
1091.0,0.2753
1092.0,0.275
1093.0,0.2282
1094.0,0.251
1095.0,0.2383
1096.0,0.2268
1097.0,0.2686
1098.0,0.2226
1099.0,0.233
1100.0,0.2145
1101.0,0.2179
1102.0,0.2068
1103.0,0.2038
1104.0,0.2042
1105.0,0.2272
1106.0,0.1658
1107.0,0.2142
1108.0,0.1768
1109.0,0.1781
1110.0,0.2116
1111.0,0.1372
1112.0,0.1771
1113.0,0.1063
1114.0,0.1193
1115.0,0.0986
1116.0,0.07503
1117.0,0.02385
1118.0,0.08279
1119.0,0.03793
1120.0,0.04743
1121.0,0.06479
1122.0,0.02462
1123.0,0.043
1124.0,0.03625
1125.0,0.04807
1126.0,0.01418
1127.0,0.05447
1128.0,0.02974
1129.0,0.03191
1130.0,0.0201
1131.0,0.1105
1132.0,0.08531
1133.0,0.05016
1134.0,0.01085
1135.0,0.004191
1136.0,0.04049
1137.0,0.1071
1138.0,0.07477
1139.0,0.1194
1140.0,0.09675
1141.0,0.07113
1142.0,0.08336
1143.0,0.1217
1144.0,0.03884
1145.0,0.04844
1146.0,0.0522
1147.0,0.01577
1148.0,0.1051
1149.0,0.0816
1150.0,0.04228
1151.0,0.07416
1152.0,0.09404
1153.0,0.09377
1154.0,0.04674
1155.0,0.1244
1156.0,0.1105
1157.0,0.1267
1158.0,0.1253
1159.0,0.137
1160.0,0.1152
1161.0,0.1462
1162.0,0.1466
1163.0,0.2053
1164.0,0.1734
1165.0,0.161
1166.0,0.1619
1167.0,0.1776
1168.0,0.179
1169.0,0.1841
1170.0,0.2022
1171.0,0.1969
1172.0,0.2018
1173.0,0.2018
1174.0,0.139
1175.0,0.1982
1176.0,0.2206
1177.0,0.2099
1178.0,0.1539
1179.0,0.2224
1180.0,0.1956
1181.0,0.202
1182.0,0.1353
1183.0,0.1996
1184.0,0.1856
1185.0,0.1779
1186.0,0.215
1187.0,0.2035
1188.0,0.137
1189.0,0.1894
1190.0,0.2103
1191.0,0.1973
1192.0,0.2135
1193.0,0.2038
1194.0,0.2106
1195.0,0.1975
1196.0,0.1893
1197.0,0.2115
1198.0,0.1925
1199.0,0.1603
1200.0,0.2011
1201.0,0.1927
1202.0,0.1925
1203.0,0.1905
1204.0,0.1649
1205.0,0.198
1206.0,0.2205
1207.0,0.1916
1208.0,0.1896
1209.0,0.1937
1210.0,0.2026
1211.0,0.1917
1212.0,0.1877
1213.0,0.2124
1214.0,0.1929
1215.0,0.189
1216.0,0.2119
1217.0,0.2056
1218.0,0.2101
1219.0,0.2071
1220.0,0.2104
1221.0,0.2128
1222.0,0.207
1223.0,0.2048
1224.0,0.2029
1225.0,0.2114
1226.0,0.2133
1227.0,0.195
1228.0,0.2147
1229.0,0.2133
1230.0,0.2094
1231.0,0.2164
1232.0,0.2151
1233.0,0.2062
1234.0,0.2165
1235.0,0.2149
1236.0,0.2167
1237.0,0.213
1238.0,0.2159
1239.0,0.2132
1240.0,0.214
1241.0,0.2127
1242.0,0.2125
1243.0,0.2108
1244.0,0.2122
1245.0,0.2132
1246.0,0.2119
1247.0,0.211
1248.0,0.2107
1249.0,0.2115
1250.0,0.2101
1251.0,0.2072
1252.0,0.2075
1253.0,0.2054
1254.0,0.2029
1255.0,0.2072
1256.0,0.2005
1257.0,0.1992
1258.0,0.2036
1259.0,0.1948
1260.0,0.196
1261.0,0.1832
1262.0,0.1768
1263.0,0.1771
1264.0,0.1613
1265.0,0.176
1266.0,0.1681
1267.0,0.1719
1268.0,0.1616
1269.0,0.09149
1270.0,0.1709
1271.0,0.1828
1272.0,0.1836
1273.0,0.1815
1274.0,0.1823
1275.0,0.1853
1276.0,0.1875
1277.0,0.1891
1278.0,0.1935
1279.0,0.1917
1280.0,0.1893
1281.0,0.181
1282.0,0.1749
1283.0,0.1883
1284.0,0.1927
1285.0,0.194
1286.0,0.197
1287.0,0.1934
1288.0,0.1935
1289.0,0.1863
1290.0,0.1918
1291.0,0.1947
1292.0,0.1809
1293.0,0.1904
1294.0,0.189
1295.0,0.1875
1296.0,0.1777
1297.0,0.1671
1298.0,0.1819
1299.0,0.1909
1300.0,0.1581
1301.0,0.1637
1302.0,0.1814
1303.0,0.1564
1304.0,0.1302
1305.0,0.1775
1306.0,0.1772
1307.0,0.1342
1308.0,0.1572
1309.0,0.1754
1310.0,0.1314
1311.0,0.15
1312.0,0.1454
1313.0,0.142
1314.0,0.126
1315.0,0.1236
1316.0,0.147
1317.0,0.1389
1318.0,0.1523
1319.0,0.1151
1320.0,0.1124
1321.0,0.1323
1322.0,0.1329
1323.0,0.09678
1324.0,0.1131
1325.0,0.1446
1326.0,0.1221
1327.0,0.1159
1328.0,0.09887
1329.0,0.0714
1330.0,0.09439
1331.0,0.05368
1332.0,0.05651
1333.0,0.07935
1334.0,0.06905
1335.0,0.09629
1336.0,0.07435
1337.0,0.06496
1338.0,0.07023
1339.0,0.0704
1340.0,0.06941
1341.0,0.06559
1342.0,0.06911
1343.0,0.04274
1344.0,0.02592
1345.0,0.03741
1346.0,0.01622
1347.0,0.01609
1348.0,0.0007704
1349.0,0.003005
1350.0,0.00331
1351.0,0.0006095
1352.0,0.000119
1353.0,4.477e-06
1354.0,1.914e-05
1355.0,7.92e-08
1356.0,2.15e-06
1357.0,3.29e-06
1358.0,9.64e-08
1359.0,7.26e-09
1360.0,3.673e-08
1361.0,1.438e-11
1362.0,2.638e-14
1363.0,4.108e-08
1364.0,1.712e-08
1365.0,5.339e-15
1366.0,2.054e-07
1367.0,9.521e-08
1368.0,1.671e-17
1369.0,6.286e-09
1370.0,2.495e-09
1371.0,1.111e-10
1372.0,5.288e-08
1373.0,1.493e-06
1374.0,8.78e-06
1375.0,1.547e-05
1376.0,1.747e-05
1377.0,7.629e-06
1378.0,8.102e-05
1379.0,3.204e-06
1380.0,3.944e-06
1381.0,9.158e-08
1382.0,4.473e-08
1383.0,5.695e-10
1384.0,6.476e-09
1385.0,5.471e-08
1386.0,3.402e-08
1387.0,7.711e-06
1388.0,1.595e-07
1389.0,3.461e-05
1390.0,2.937e-05
1391.0,1.887e-05
1392.0,1.162e-06
1393.0,6.965e-06
1394.0,2.403e-06
1395.0,1.395e-08
1396.0,2.388e-11
1397.0,2.531e-06
1398.0,8.812e-05
1399.0,5.662e-05
1400.0,7.767e-12
1401.0,4.751e-11
1402.0,0.000224
1403.0,0.0002627
1404.0,7.755e-05
1405.0,5.634e-09
1406.0,0.0001792
1407.0,1.775e-05
1408.0,0.00015
1409.0,4.143e-05
1410.0,3.854e-05
1411.0,0.0002343
1412.0,0.0003473
1413.0,0.004641
1414.0,3.126e-05
1415.0,1.375e-05
1416.0,0.009144
1417.0,0.002317
1418.0,0.002514
1419.0,0.000374
1420.0,0.001526
1421.0,0.001689
1422.0,0.01201
1423.0,0.002222
1424.0,0.004304
1425.0,0.00607
1426.0,0.007487
1427.0,0.01508
1428.0,0.0007025
1429.0,0.01058
1430.0,0.01987
1431.0,0.02229
1432.0,0.0005457
1433.0,0.01356
1434.0,0.006594
1435.0,0.00559
1436.0,0.0123
1437.0,0.009478
