interpolation:linear
wavelength,value
280.0,1.7099999999999998e-22
280.5,5.658e-21
281.0,3.042e-20
281.5,3.89e-19
282.0,5.861e-19
282.5,1.447e-18
283.0,4.574e-18
283.5,7.452e-18
284.0,1.232e-16
284.5,3.602e-16
285.0,5.955e-16
285.5,2.96e-15
286.0,1.194e-14
286.5,5.383e-14
287.0,1.547e-13
287.5,5.979e-13
288.0,2.12e-12
288.5,6.291e-12
289.0,1.656e-11
289.5,4.966e-11
290.0,1.374e-10
290.5,2.797e-10
291.0,5.999e-10
291.5,1.722e-09
292.0,3.454e-09
292.5,4.843e-09
293.0,1.038e-08
293.5,2.523e-08
294.0,3.946e-08
294.5,5.363e-08
295.0,9.083e-08
295.5,1.504e-07
296.0,2.901e-07
296.5,4.057e-07
297.0,5.488e-07
297.5,1.472e-06
298.0,2.319e-06
298.5,2.331e-06
299.0,5.135e-06
299.5,8.51e-06
300.0,9.341e-06
300.5,1.349e-05
301.0,2.429e-05
301.5,3.843e-05
302.0,3.27e-05
302.5,6.52e-05
303.0,0.0001206
303.5,0.000156
304.0,0.0001516
304.5,0.0002478
305.0,0.000429
305.5,0.0005354
306.0,0.0005359
306.5,0.0007062
307.0,0.00119
307.5,0.001792
308.0,0.001931
308.5,0.002428
309.0,0.002661
309.5,0.003468
310.0,0.003697
310.5,0.006167
311.0,0.008122
311.5,0.008006
312.0,0.00888
312.5,0.01157
313.0,0.013
313.5,0.01221
314.0,0.01657
314.5,0.01636
315.0,0.02192
315.5,0.0174
316.0,0.01658
316.5,0.02566
317.0,0.03181
317.5,0.03241
318.0,0.0266
318.5,0.0364
319.0,0.04537
319.5,0.03418
320.0,0.04081
320.5,0.0564
321.0,0.05489
321.5,0.0531
322.0,0.05145
322.5,0.04498
323.0,0.04767
323.5,0.06238
324.0,0.07356
324.5,0.07278
325.0,0.06065
325.5,0.08202
326.0,0.1023
326.5,0.1059
327.0,0.1043
327.5,0.09918
328.0,0.08451
328.5,0.09371
329.0,0.1171
329.5,0.1347
330.0,0.1345
330.5,0.1042
331.0,0.105
331.5,0.1094
332.0,0.1224
332.5,0.1231
333.0,0.1216
333.5,0.1073
334.0,0.1095
334.5,0.1302
335.0,0.1245
335.5,0.1461
336.0,0.1012
336.5,0.1169
337.0,0.09477
337.5,0.1174
338.0,0.1175
338.5,0.1367
339.0,0.1356
339.5,0.1304
340.0,0.1522
340.5,0.1375
341.0,0.1349
341.5,0.1243
342.0,0.1487
342.5,0.1393
343.0,0.153
343.5,0.144
344.0,0.1059
344.5,0.1074
345.0,0.1426
345.5,0.1459
346.0,0.1242
346.5,0.1408
347.0,0.151
347.5,0.1221
348.0,0.1396
348.5,0.1397
349.0,0.1298
349.5,0.1286
350.0,0.1592
350.5,0.168
351.0,0.15
351.5,0.1455
352.0,0.1566
352.5,0.1224
353.0,0.1545
353.5,0.1654
354.0,0.1718
354.5,0.1743
355.0,0.1738
355.5,0.1571
356.0,0.1646
356.5,0.1406
357.0,0.1162
357.5,0.1423
358.0,0.1129
358.5,0.09652
359.0,0.135
359.5,0.172
360.0,0.1825
360.5,0.146
361.0,0.1332
361.5,0.1536
362.0,0.133
362.5,0.1843
363.0,0.1658
363.5,0.1528
364.0,0.1871
364.5,0.16
365.0,0.1631
365.5,0.2048
366.0,0.2173
366.5,0.2043
367.0,0.1991
367.5,0.2068
368.0,0.1811
368.5,0.1829
369.0,0.1977
369.5,0.2109
370.0,0.225
370.5,0.1748
371.0,0.1869
371.5,0.234
372.0,0.1554
372.5,0.1865
373.0,0.1899
373.5,0.1236
374.0,0.1798
374.5,0.149
375.0,0.145
375.5,0.2165
376.0,0.1796
376.5,0.1862
377.0,0.1974
377.5,0.2311
378.0,0.2506
378.5,0.237
379.0,0.1957
379.5,0.1788
380.0,0.186
380.5,0.2255
381.0,0.2262
381.5,0.1796
382.0,0.1596
382.5,0.1363
383.0,0.1263
383.5,0.1217
384.0,0.1344
384.5,0.1978
385.0,0.1964
385.5,0.183
386.0,0.1569
386.5,0.2063
387.0,0.1716
387.5,0.1928
388.0,0.1782
388.5,0.1763
389.0,0.1904
389.5,0.2308
390.0,0.2319
390.5,0.2135
391.0,0.2516
391.5,0.2568
392.0,0.2164
392.5,0.1939
393.0,0.108
393.5,0.07859
394.0,0.16
394.5,0.2037
395.0,0.2487
395.5,0.2527
396.0,0.2193
396.5,0.1284
397.0,0.09641
397.5,0.1962
398.0,0.2749
398.5,0.2843
399.0,0.3083
399.5,0.3075
400.0,0.3194
401.0,0.3216
402.0,0.3399
403.0,0.3235
404.0,0.319
405.0,0.3193
406.0,0.3147
407.0,0.3102
408.0,0.3226
409.0,0.3457
410.0,0.3025
411.0,0.3282
412.0,0.3533
413.0,0.3448
414.0,0.3496
415.0,0.3511
416.0,0.3579
417.0,0.3494
418.0,0.3434
419.0,0.3484
420.0,0.3473
421.0,0.3638
422.0,0.3461
423.0,0.3385
424.0,0.3583
425.0,0.3582
426.0,0.3496
427.0,0.3435
428.0,0.3349
429.0,0.3179
430.0,0.2786
431.0,0.2762
432.0,0.3572
433.0,0.3596
434.0,0.3341
435.0,0.3492
436.0,0.3942
437.0,0.3896
438.0,0.3552
439.0,0.367
440.0,0.3792
441.0,0.3935
442.0,0.4224
443.0,0.4113
444.0,0.4209
445.0,0.4119
446.0,0.394
447.0,0.4268
448.0,0.4332
449.0,0.4359
450.0,0.4486
451.0,0.4656
452.0,0.4491
453.0,0.4228
454.0,0.4421
455.0,0.445
456.0,0.4559
457.0,0.4637
458.0,0.4475
459.0,0.4455
460.0,0.4465
461.0,0.4571
462.0,0.4613
463.0,0.4582
464.0,0.4516
465.0,0.4469
466.0,0.4519
467.0,0.4435
468.0,0.4488
469.0,0.4512
470.0,0.4368
471.0,0.4365
472.0,0.46
473.0,0.4541
474.0,0.4542
475.0,0.4575
476.0,0.443
477.0,0.4436
478.0,0.4562
479.0,0.4539
480.0,0.4553
481.0,0.4646
482.0,0.4679
483.0,0.4632
484.0,0.4543
485.0,0.4335
486.0,0.3796
487.0,0.3984
488.0,0.4371
489.0,0.4383
490.0,0.4616
491.0,0.4541
492.0,0.429
493.0,0.4432
494.0,0.4478
495.0,0.4517
496.0,0.4545
497.0,0.4615
498.0,0.4398
499.0,0.4451
500.0,0.4316
501.0,0.4231
502.0,0.416
503.0,0.4318
504.0,0.4176
505.0,0.4352
506.0,0.4492
507.0,0.4276
508.0,0.4153
509.0,0.4278
510.0,0.4262
511.0,0.4384
512.0,0.4435
513.0,0.4199
514.0,0.4173
515.0,0.4132
516.0,0.412
517.0,0.3663
518.0,0.385
519.0,0.4038
520.0,0.4184
521.0,0.4222
522.0,0.4223
523.0,0.4144
524.0,0.4287
525.0,0.4329
526.0,0.4132
527.0,0.3887
528.0,0.4105
529.0,0.4322
530.0,0.4257
531.0,0.4317
532.0,0.4167
533.0,0.4045
534.0,0.4167
535.0,0.4262
536.0,0.4305
537.0,0.4139
538.0,0.4214
539.0,0.4178
540.0,0.4004
541.0,0.402
542.0,0.4141
543.0,0.4106
544.0,0.4168
545.0,0.4157
546.0,0.4168
547.0,0.4173
548.0,0.4127
549.0,0.4142
550.0,0.4191
551.0,0.4142
552.0,0.4171
553.0,0.4095
554.0,0.4192
555.0,0.4198
556.0,0.4142
557.0,0.401
558.0,0.3974
559.0,0.3894
560.0,0.3939
561.0,0.3985
562.0,0.395
563.0,0.4051
564.0,0.3934
565.0,0.3895
566.0,0.3833
567.0,0.3899
568.0,0.3847
569.0,0.3723
570.0,0.3726
571.0,0.3712
572.0,0.3779
573.0,0.3815
574.0,0.3798
575.0,0.3719
576.0,0.3686
577.0,0.3729
578.0,0.3683
579.0,0.3713
580.0,0.3808
581.0,0.3846
582.0,0.3935
583.0,0.3959
584.0,0.4002
585.0,0.391
586.0,0.383
587.0,0.3904
588.0,0.3768
589.0,0.3259
590.0,0.3414
591.0,0.3661
592.0,0.3587
593.0,0.3676
594.0,0.3636
595.0,0.3515
596.0,0.372
597.0,0.3662
598.0,0.3673
599.0,0.3685
600.0,0.3707
601.0,0.3689
602.0,0.3666
603.0,0.3734
604.0,0.3799
605.0,0.3783
606.0,0.3775
607.0,0.382
608.0,0.3785
609.0,0.3798
610.0,0.3779
611.0,0.3803
612.0,0.3796
613.0,0.3752
614.0,0.3708
615.0,0.3795
616.0,0.3675
617.0,0.3671
618.0,0.3816
619.0,0.378
620.0,0.3804
621.0,0.3802
622.0,0.3753
623.0,0.3692
624.0,0.3633
625.0,0.3625
626.0,0.3676
627.0,0.3702
628.0,0.3271
629.0,0.3549
630.0,0.346
631.0,0.3602
632.0,0.3571
633.0,0.3707
634.0,0.3692
635.0,0.376
636.0,0.3722
637.0,0.3793
638.0,0.3844
639.0,0.3809
640.0,0.3781
641.0,0.3786
642.0,0.3777
643.0,0.3829
644.0,0.3825
645.0,0.3826
646.0,0.3714
647.0,0.3618
648.0,0.3624
649.0,0.3546
650.0,0.3631
651.0,0.38
652.0,0.3576
653.0,0.3754
654.0,0.3718
655.0,0.3546
656.0,0.3166
657.0,0.3256
658.0,0.367
659.0,0.3705
660.0,0.3726
661.0,0.3755
662.0,0.375
663.0,0.3681
664.0,0.3743
665.0,0.3761
666.0,0.377
667.0,0.3774
668.0,0.3783
669.0,0.3847
670.0,0.3834
671.0,0.3837
672.0,0.3807
673.0,0.3867
674.0,0.3856
675.0,0.3824
676.0,0.3854
677.0,0.3818
678.0,0.3832
679.0,0.3772
680.0,0.3804
681.0,0.378
682.0,0.3776
683.0,0.3769
684.0,0.375
685.0,0.3786
686.0,0.376
687.0,0.1741
688.0,0.2356
689.0,0.2376
690.0,0.2612
691.0,0.2892
692.0,0.3118
693.0,0.3086
694.0,0.308
695.0,0.3307
696.0,0.3318
697.0,0.3633
698.0,0.3575
699.0,0.3411
700.0,0.3366
701.0,0.33
702.0,0.3354
703.0,0.3368
704.0,0.3523
705.0,0.3528
706.0,0.3542
707.0,0.3553
708.0,0.3558
709.0,0.3596
710.0,0.3578
711.0,0.3585
712.0,0.359
713.0,0.3539
714.0,0.3557
715.0,0.3412
716.0,0.3406
717.0,0.2674
718.0,0.2434
719.0,0.2208
720.0,0.2284
721.0,0.2678
722.0,0.3235
723.0,0.2928
724.0,0.2533
725.0,0.246
726.0,0.2583
727.0,0.269
728.0,0.2441
729.0,0.2629
730.0,0.2758
731.0,0.2622
732.0,0.2908
733.0,0.3171
734.0,0.3278
735.0,0.3194
736.0,0.3185
737.0,0.3199
738.0,0.3325
739.0,0.3261
740.0,0.3369
741.0,0.3349
742.0,0.3367
743.0,0.3457
744.0,0.3456
745.0,0.3464
746.0,0.348
747.0,0.349
748.0,0.3483
749.0,0.3444
750.0,0.3443
751.0,0.3408
752.0,0.3424
753.0,0.3443
754.0,0.345
755.0,0.343
756.0,0.343
757.0,0.3435
758.0,0.339
759.0,0.3271
760.0,0.01222
761.0,0.00414
762.0,0.09428
763.0,0.02589
764.0,0.05475
765.0,0.09404
766.0,0.1434
767.0,0.216
768.0,0.2825
769.0,0.2966
770.0,0.3161
771.0,0.3229
772.0,0.325
773.0,0.3276
774.0,0.3263
775.0,0.3241
776.0,0.3281
777.0,0.3238
778.0,0.3218
779.0,0.3221
780.0,0.3204
781.0,0.3208
782.0,0.3229
783.0,0.3174
784.0,0.3191
785.0,0.3164
786.0,0.3195
787.0,0.3101
788.0,0.3045
789.0,0.3043
790.0,0.2912
791.0,0.2988
792.0,0.2974
793.0,0.292
794.0,0.3021
795.0,0.3058
796.0,0.2893
797.0,0.289
798.0,0.3046
799.0,0.3014
800.0,0.2945
801.0,0.2918
802.0,0.2908
803.0,0.2877
804.0,0.2889
805.0,0.2901
806.0,0.3019
807.0,0.2975
808.0,0.298
809.0,0.2897
810.0,0.2857
811.0,0.2825
812.0,0.2693
813.0,0.2619
814.0,0.2176
815.0,0.2173
816.0,0.2005
817.0,0.2049
818.0,0.1943
819.0,0.228
820.0,0.211
821.0,0.2632
822.0,0.253
823.0,0.1478
824.0,0.2392
825.0,0.2587
826.0,0.2434
827.0,0.2624
828.0,0.2066
829.0,0.2431
830.0,0.2387
831.0,0.2396
832.0,0.2293
833.0,0.2512
834.0,0.2375
835.0,0.2727
836.0,0.2529
837.0,0.2736
838.0,0.2609
839.0,0.27
840.0,0.2769
841.0,0.2713
842.0,0.2746
843.0,0.2773
844.0,0.272
845.0,0.2832
846.0,0.2824
847.0,0.278
848.0,0.275
849.0,0.2672
850.0,0.2561
851.0,0.2698
852.0,0.2686
853.0,0.2596
854.0,0.2232
855.0,0.2465
856.0,0.2689
857.0,0.2757
858.0,0.2733
859.0,0.2741
860.0,0.275
861.0,0.2734
862.0,0.2779
863.0,0.2845
864.0,0.2703
865.0,0.2681
866.0,0.2411
867.0,0.2516
868.0,0.2738
869.0,0.2682
870.0,0.2759
871.0,0.2721
872.0,0.2712
873.0,0.2707
874.0,0.2675
875.0,0.262
876.0,0.2647
877.0,0.2675
878.0,0.2701
879.0,0.266
880.0,0.2604
881.0,0.2558
882.0,0.2611
883.0,0.2626
884.0,0.2611
885.0,0.263
886.0,0.2484
887.0,0.2529
888.0,0.2556
889.0,0.2604
890.0,0.2558
891.0,0.2566
892.0,0.246
893.0,0.2355
894.0,0.2207
895.0,0.2005
896.0,0.187
897.0,0.1518
898.0,0.1697
899.0,0.1195
900.0,0.1796
901.0,0.1251
902.0,0.1596
903.0,0.1565
904.0,0.2188
905.0,0.2085
906.0,0.1926
907.0,0.1418
908.0,0.1477
909.0,0.1654
910.0,0.1357
911.0,0.153
912.0,0.1602
913.0,0.1372
914.0,0.1383
915.0,0.1488
916.0,0.1247
917.0,0.1684
918.0,0.1269
919.0,0.1753
920.0,0.1855
921.0,0.1921
922.0,0.164
923.0,0.1866
924.0,0.1656
925.0,0.1627
926.0,0.1629
927.0,0.19
928.0,0.1174
929.0,0.1016
930.0,0.07104
931.0,0.06722
932.0,0.04024
933.0,0.02948
934.0,0.01021
935.0,0.03262
936.0,0.01618
937.0,0.01629
938.0,0.02143
939.0,0.06489
940.0,0.08452
941.0,0.05586
942.0,0.06856
943.0,0.03929
944.0,0.04734
945.0,0.05937
946.0,0.02275
947.0,0.05754
948.0,0.0416
949.0,0.08492
950.0,0.01389
951.0,0.08443
952.0,0.03607
953.0,0.0527
954.0,0.07178
955.0,0.05411
956.0,0.06052
957.0,0.03571
958.0,0.09344
959.0,0.06475
960.0,0.07263
961.0,0.0891
962.0,0.08401
963.0,0.1036
964.0,0.09305
965.0,0.1029
966.0,0.1023
967.0,0.1007
968.0,0.163
969.0,0.1657
970.0,0.1499
971.0,0.1841
972.0,0.1732
973.0,0.1383
974.0,0.1304
975.0,0.1392
976.0,0.1251
977.0,0.1574
978.0,0.1432
979.0,0.1534
980.0,0.1426
981.0,0.1833
982.0,0.1706
983.0,0.1613
984.0,0.1949
985.0,0.1696
986.0,0.2021
987.0,0.1941
988.0,0.194
989.0,0.204
990.0,0.1927
991.0,0.2042
992.0,0.2058
993.0,0.197
994.0,0.2062
995.0,0.2066
996.0,0.205
997.0,0.2056
998.0,0.2044
999.0,0.2039
1000.0,0.2014
1001.0,0.2051
1002.0,0.195
1003.0,0.2012
1004.0,0.1951
1005.0,0.1895
1006.0,0.1962
1007.0,0.2007
1008.0,0.1989
1009.0,0.197
1010.0,0.1957
1011.0,0.1998
1012.0,0.1973
1013.0,0.1996
1014.0,0.1982
1015.0,0.1968
1016.0,0.1958
1017.0,0.1961
1018.0,0.1959
1019.0,0.19
1020.0,0.1946
1021.0,0.1946
1022.0,0.1925
1023.0,0.1945
1024.0,0.1902
1025.0,0.1949
1026.0,0.1936
1027.0,0.1933
1028.0,0.1927
1029.0,0.1903
1030.0,0.1922
1031.0,0.1912
1032.0,0.1908
1033.0,0.1879
1034.0,0.188
1035.0,0.1886
1036.0,0.1893
1037.0,0.1863
1038.0,0.1871
1039.0,0.1869
1040.0,0.1861
1041.0,0.1867
1042.0,0.1853
1043.0,0.1847
1044.0,0.1852
1045.0,0.1826
1046.0,0.1805
1047.0,0.182
1048.0,0.1828
1049.0,0.182
1050.0,0.181
1051.0,0.1806
1052.0,0.1797
1053.0,0.1781
1054.0,0.1782
1055.0,0.1781
1056.0,0.1771
1057.0,0.1764
1058.0,0.1718
1059.0,0.1717
1060.0,0.1713
1061.0,0.1709
1062.0,0.1715
1063.0,0.1696
1064.0,0.1717
1065.0,0.1698
1066.0,0.167
1067.0,0.169
1068.0,0.1648
1069.0,0.1601
1070.0,0.1651
1071.0,0.1692
1072.0,0.1661
1073.0,0.1639
1074.0,0.1699
1075.0,0.1572
1076.0,0.1695
1077.0,0.1642
1078.0,0.1599
1079.0,0.1676
1080.0,0.1617
1081.0,0.1543
1082.0,0.1604
1083.0,0.1619
1084.0,0.1532
1085.0,0.1624
1086.0,0.1427
1087.0,0.1509
1088.0,0.1611
1089.0,0.1519
1090.0,0.1467
1091.0,0.1595
1092.0,0.1598
1093.0,0.125
1094.0,0.1449
1095.0,0.1307
1096.0,0.1223
1097.0,0.1562
1098.0,0.1187
1099.0,0.1254
1100.0,0.1127
1101.0,0.1156
1102.0,0.1075
1103.0,0.1045
1104.0,0.105
1105.0,0.1216
1106.0,0.0774
1107.0,0.1126
1108.0,0.08621
1109.0,0.08777
1110.0,0.1095
1111.0,0.062
1112.0,0.08767
1113.0,0.04446
1114.0,0.05005
1115.0,0.04053
1116.0,0.02687
1117.0,0.005667
1118.0,0.03038
1119.0,0.01096
1120.0,0.01317
1121.0,0.01943
1122.0,0.005293
1123.0,0.01205
1124.0,0.01011
1125.0,0.01421
1126.0,0.002409
1127.0,0.01629
1128.0,0.006638
1129.0,0.007294
1130.0,0.004377
1131.0,0.04065
1132.0,0.02984
1133.0,0.01384
1134.0,0.001806
1135.0,0.0007898
1136.0,0.009985
1137.0,0.03787
1138.0,0.02563
1139.0,0.05071
1140.0,0.03749
1141.0,0.02453
1142.0,0.03033
1143.0,0.04875
1144.0,0.0119
1145.0,0.01329
1146.0,0.01429
1147.0,0.002637
1148.0,0.04127
1149.0,0.02959
1150.0,0.01398
1151.0,0.02545
1152.0,0.03535
1153.0,0.03779
1154.0,0.01335
1155.0,0.05275
1156.0,0.04485
1157.0,0.05616
1158.0,0.05532
1159.0,0.06232
1160.0,0.0513
1161.0,0.07074
1162.0,0.07023
1163.0,0.1095
1164.0,0.08875
1165.0,0.07853
1166.0,0.0824
1167.0,0.09219
1168.0,0.0921
1169.0,0.09559
1170.0,0.1085
1171.0,0.1057
1172.0,0.1109
1173.0,0.1084
1174.0,0.06739
1175.0,0.1088
1176.0,0.1261
1177.0,0.1166
1178.0,0.0798
1179.0,0.1271
1180.0,0.1065
1181.0,0.1101
1182.0,0.06709
1183.0,0.1098
1184.0,0.09986
1185.0,0.09352
1186.0,0.1204
1187.0,0.1116
1188.0,0.06649
1189.0,0.1035
1190.0,0.1184
1191.0,0.1061
1192.0,0.1207
1193.0,0.1135
1194.0,0.1184
1195.0,0.1077
1196.0,0.1015
1197.0,0.1202
1198.0,0.1082
1199.0,0.08341
1200.0,0.112
1201.0,0.1048
1202.0,0.1071
1203.0,0.1043
1204.0,0.0878
1205.0,0.1119
1206.0,0.1278
1207.0,0.1054
1208.0,0.1064
1209.0,0.109
1210.0,0.1156
1211.0,0.1071
1212.0,0.1008
1213.0,0.1211
1214.0,0.105
1215.0,0.1026
1216.0,0.1213
1217.0,0.1165
1218.0,0.1201
1219.0,0.1176
1220.0,0.1205
1221.0,0.1227
1222.0,0.1189
1223.0,0.117
1224.0,0.1144
1225.0,0.1216
1226.0,0.1238
1227.0,0.1095
1228.0,0.1254
1229.0,0.1238
1230.0,0.1209
1231.0,0.1273
1232.0,0.1265
1233.0,0.1181
1234.0,0.1281
1235.0,0.1267
1236.0,0.1281
1237.0,0.1247
1238.0,0.1277
1239.0,0.126
1240.0,0.1267
1241.0,0.1251
1242.0,0.1257
1243.0,0.1248
1244.0,0.1253
1245.0,0.126
1246.0,0.1254
1247.0,0.1246
1248.0,0.1239
1249.0,0.1248
1250.0,0.1237
1251.0,0.1215
1252.0,0.1223
1253.0,0.1198
1254.0,0.1175
1255.0,0.1218
1256.0,0.1156
1257.0,0.1144
1258.0,0.1188
1259.0,0.1102
1260.0,0.1113
1261.0,0.09985
1262.0,0.09422
1263.0,0.09426
1264.0,0.08122
1265.0,0.09376
1266.0,0.08674
1267.0,0.09068
1268.0,0.0822
1269.0,0.03173
1270.0,0.0894
1271.0,0.1002
1272.0,0.1011
1273.0,0.0994
1274.0,0.1005
1275.0,0.1029
1276.0,0.1049
1277.0,0.107
1278.0,0.1111
1279.0,0.11
1280.0,0.1087
1281.0,0.1047
1282.0,0.1025
1283.0,0.1101
1284.0,0.1124
1285.0,0.1135
1286.0,0.1159
1287.0,0.1124
1288.0,0.113
1289.0,0.1061
1290.0,0.1121
1291.0,0.1143
1292.0,0.1015
1293.0,0.1107
1294.0,0.1097
1295.0,0.1071
1296.0,0.09885
1297.0,0.09111
1298.0,0.1035
1299.0,0.1114
1300.0,0.08558
1301.0,0.08963
1302.0,0.1033
1303.0,0.08526
1304.0,0.06513
1305.0,0.1008
1306.0,0.09982
1307.0,0.06932
1308.0,0.08674
1309.0,0.09763
1310.0,0.06724
1311.0,0.08132
1312.0,0.07816
1313.0,0.07462
1314.0,0.06399
1315.0,0.06155
1316.0,0.07854
1317.0,0.07324
1318.0,0.08295
1319.0,0.05583
1320.0,0.05575
1321.0,0.0682
1322.0,0.06713
1323.0,0.04346
1324.0,0.05516
1325.0,0.0763
1326.0,0.06109
1327.0,0.05695
1328.0,0.04657
1329.0,0.0291
1330.0,0.04109
1331.0,0.01896
1332.0,0.02111
1333.0,0.03045
1334.0,0.02989
1335.0,0.04257
1336.0,0.03013
1337.0,0.02592
1338.0,0.02759
1339.0,0.0282
1340.0,0.0292
1341.0,0.02428
1342.0,0.0261
1343.0,0.01185
1344.0,0.007663
1345.0,0.01051
1346.0,0.002837
1347.0,0.002529
1348.0,5.011e-05
1349.0,0.0002309
1350.0,0.000284
1351.0,2.374e-05
1352.0,1.936e-06
1353.0,6.543e-08
1354.0,3.214e-07
1355.0,1.428e-09
1356.0,3.177e-08
1357.0,4.791e-08
1358.0,1.687e-09
1359.0,2.031e-10
1360.0,7.462e-10
1361.0,8.182e-13
1362.0,2.238e-15
1363.0,9.88e-10
1364.0,4.092e-10
1365.0,7.813e-16
1366.0,4.3e-09
1367.0,1.785e-09
1368.0,6.033e-18
1369.0,1.508e-10
1370.0,7.387e-11
1371.0,4.18e-12
1372.0,9.722e-10
1373.0,2.143e-08
1374.0,1.212e-07
1375.0,1.988e-07
1376.0,2.923e-07
1377.0,1.237e-07
1378.0,1.222e-06
1379.0,5.412e-08
1380.0,5.525e-08
1381.0,1.351e-09
1382.0,8.452e-10
1383.0,1.255e-11
1384.0,1.629e-10
1385.0,8.46e-10
1386.0,7.357e-10
1387.0,9.952e-08
1388.0,2.296e-09
1389.0,4.738e-07
1390.0,3.79e-07
1391.0,2.533e-07
1392.0,1.683e-08
1393.0,1.07e-07
1394.0,3.296e-08
1395.0,2.318e-10
1396.0,1.065e-12
1397.0,3.62e-08
1398.0,1.204e-06
1399.0,8.068e-07
1400.0,4.554e-13
1401.0,1.89e-12
1402.0,8.236e-06
1403.0,7.356e-06
1404.0,1.859e-06
1405.0,1.065e-10
1406.0,3.019e-06
1407.0,5.598e-07
1408.0,2.71e-06
1409.0,5.438e-07
1410.0,7.677e-07
1411.0,6.958e-06
1412.0,1.386e-05
1413.0,0.0003463
1414.0,6.8e-07
1415.0,2.544e-07
1416.0,0.00135
1417.0,0.0002296
1418.0,0.0001705
1419.0,2.322e-05
1420.0,0.0001023
1421.0,0.0001558
1422.0,0.001753
1423.0,0.0003094
1424.0,0.0006973
1425.0,0.0008063
1426.0,0.001326
1427.0,0.003184
1428.0,3.989e-05
