interpolation:linear
wavelength,value
280.0,1.094e-22
280.5,3.642e-21
281.0,1.963e-20
281.5,4.512e-19
282.0,5.4e-19
282.5,1.315e-18
283.0,4.133e-18
283.5,6.729e-18
284.0,1.111e-16
284.5,3.254e-16
285.0,5.75e-16
285.5,2.789e-15
286.0,1.12e-14
286.5,5.021e-14
287.0,1.44e-13
287.5,5.561e-13
288.0,1.969e-12
288.5,5.752e-12
289.0,1.502e-11
289.5,4.48e-11
290.0,1.237e-10
290.5,2.518e-10
291.0,5.4e-10
291.5,1.551e-09
292.0,3.133e-09
292.5,4.377e-09
293.0,9.343e-09
293.5,2.261e-08
294.0,3.529e-08
294.5,4.678e-08
295.0,7.901e-08
295.5,1.328e-07
296.0,2.535e-07
296.5,3.506e-07
297.0,4.694e-07
297.5,1.238e-06
298.0,1.92e-06
298.5,1.904e-06
299.0,4.135e-06
299.5,6.667e-06
300.0,7.197e-06
300.5,1.021e-05
301.0,1.781e-05
301.5,2.734e-05
302.0,2.289e-05
302.5,4.475e-05
303.0,8.089e-05
303.5,0.0001032
304.0,9.966e-05
304.5,0.0001606
305.0,0.0002724
305.5,0.0003357
306.0,0.0003343
306.5,0.000437
307.0,0.0007235
307.5,0.001071
308.0,0.001151
308.5,0.001435
309.0,0.001686
309.5,0.002259
310.0,0.002439
310.5,0.004093
311.0,0.005448
311.5,0.005393
312.0,0.00612
312.5,0.008095
313.0,0.00917
313.5,0.008549
314.0,0.01181
314.5,0.01195
315.0,0.01608
315.5,0.01261
316.0,0.01226
316.5,0.01929
317.0,0.02391
317.5,0.02423
318.0,0.02013
318.5,0.02817
319.0,0.03551
319.5,0.02626
320.0,0.03126
320.5,0.04421
321.0,0.04395
321.5,0.0426
322.0,0.04034
322.5,0.0353
323.0,0.03797
323.5,0.05086
324.0,0.06014
324.5,0.05907
325.0,0.04841
325.5,0.06626
326.0,0.08375
326.5,0.08749
327.0,0.08585
327.5,0.08129
328.0,0.06842
328.5,0.07699
329.0,0.09728
329.5,0.1123
330.0,0.1118
330.5,0.08582
331.0,0.08623
331.5,0.0904
332.0,0.1021
332.5,0.1031
333.0,0.1016
333.5,0.08902
334.0,0.09072
334.5,0.1087
335.0,0.1044
335.5,0.1229
336.0,0.08508
336.5,0.09784
337.0,0.07904
337.5,0.09777
338.0,0.09847
338.5,0.115
339.0,0.1141
339.5,0.1096
340.0,0.1275
340.5,0.1154
341.0,0.1135
341.5,0.1046
342.0,0.1252
342.5,0.1173
343.0,0.1288
343.5,0.1211
344.0,0.08878
344.5,0.09026
345.0,0.12
345.5,0.1228
346.0,0.1046
346.5,0.1186
347.0,0.1271
347.5,0.1028
348.0,0.1175
348.5,0.1177
349.0,0.1093
349.5,0.1083
350.0,0.134
350.5,0.1415
351.0,0.1263
351.5,0.1224
352.0,0.1318
352.5,0.1031
353.0,0.1301
353.5,0.1393
354.0,0.1447
354.5,0.1468
355.0,0.1463
355.5,0.1324
356.0,0.1386
356.5,0.1184
357.0,0.09786
357.5,0.1199
358.0,0.09508
358.5,0.0813
359.0,0.1137
359.5,0.1449
360.0,0.1537
360.5,0.123
361.0,0.1122
361.5,0.1294
362.0,0.1121
362.5,0.1553
363.0,0.1396
363.5,0.1288
364.0,0.1576
364.5,0.1348
365.0,0.1374
365.5,0.1726
366.0,0.183
366.5,0.1722
367.0,0.1678
367.5,0.1743
368.0,0.1526
368.5,0.1541
369.0,0.1666
369.5,0.1777
370.0,0.1896
370.5,0.1473
371.0,0.1575
371.5,0.1972
372.0,0.131
372.5,0.1572
373.0,0.16
373.5,0.1042
374.0,0.1516
374.5,0.1256
375.0,0.1222
375.5,0.1826
376.0,0.1514
376.5,0.157
377.0,0.1664
377.5,0.1949
378.0,0.2113
378.5,0.1999
379.0,0.165
379.5,0.1508
380.0,0.1569
380.5,0.1902
381.0,0.1908
381.5,0.1515
382.0,0.1347
382.5,0.115
383.0,0.1065
383.5,0.1027
384.0,0.1134
384.5,0.167
385.0,0.1657
385.5,0.1545
386.0,0.1324
386.5,0.1742
387.0,0.1448
387.5,0.1628
388.0,0.1504
388.5,0.1489
389.0,0.1608
389.5,0.1949
390.0,0.1958
390.5,0.1804
391.0,0.2125
391.5,0.2169
392.0,0.1828
392.5,0.1639
393.0,0.09128
393.5,0.06641
394.0,0.1353
394.5,0.1721
395.0,0.2102
395.5,0.2136
396.0,0.1854
396.5,0.1085
397.0,0.08152
397.5,0.1659
398.0,0.2324
398.5,0.2404
399.0,0.2608
399.5,0.2601
400.0,0.2702
401.0,0.2716
402.0,0.2871
403.0,0.2733
404.0,0.2695
405.0,0.2699
406.0,0.266
407.0,0.2623
408.0,0.2727
409.0,0.2923
410.0,0.2559
411.0,0.2777
412.0,0.2989
413.0,0.2918
414.0,0.2959
415.0,0.2972
416.0,0.3031
417.0,0.296
418.0,0.2909
419.0,0.2952
420.0,0.2943
421.0,0.3084
422.0,0.2935
423.0,0.287
424.0,0.3038
425.0,0.3038
426.0,0.2966
427.0,0.2915
428.0,0.2842
429.0,0.2699
430.0,0.2366
431.0,0.2346
432.0,0.3034
433.0,0.3055
434.0,0.2839
435.0,0.2967
436.0,0.3351
437.0,0.3313
438.0,0.3021
439.0,0.3121
440.0,0.3225
441.0,0.3348
442.0,0.3594
443.0,0.3499
444.0,0.3582
445.0,0.3506
446.0,0.3355
447.0,0.3636
448.0,0.3689
449.0,0.3714
450.0,0.3823
451.0,0.3969
452.0,0.3828
453.0,0.3606
454.0,0.3771
455.0,0.3796
456.0,0.389
457.0,0.3956
458.0,0.3817
459.0,0.38
460.0,0.3809
461.0,0.3899
462.0,0.3936
463.0,0.391
464.0,0.3856
465.0,0.3817
466.0,0.3861
467.0,0.3789
468.0,0.3835
469.0,0.3855
470.0,0.3732
471.0,0.373
472.0,0.3931
473.0,0.388
474.0,0.3881
475.0,0.3908
476.0,0.3782
477.0,0.3786
478.0,0.3894
479.0,0.3875
480.0,0.3888
481.0,0.3968
482.0,0.3997
483.0,0.3959
484.0,0.3884
485.0,0.3708
486.0,0.3248
487.0,0.3411
488.0,0.3742
489.0,0.3752
490.0,0.3952
491.0,0.3888
492.0,0.3674
493.0,0.3796
494.0,0.3836
495.0,0.3871
496.0,0.3895
497.0,0.3955
498.0,0.3769
499.0,0.3813
500.0,0.3697
501.0,0.3622
502.0,0.356
503.0,0.3692
504.0,0.3565
505.0,0.372
506.0,0.3839
507.0,0.3655
508.0,0.3552
509.0,0.366
510.0,0.3648
511.0,0.3754
512.0,0.3798
513.0,0.3596
514.0,0.3574
515.0,0.3539
516.0,0.3529
517.0,0.3138
518.0,0.3298
519.0,0.3458
520.0,0.3583
521.0,0.3616
522.0,0.3615
523.0,0.3548
524.0,0.3668
525.0,0.3702
526.0,0.3533
527.0,0.3322
528.0,0.3507
529.0,0.3692
530.0,0.3635
531.0,0.3686
532.0,0.3557
533.0,0.3453
534.0,0.3558
535.0,0.3641
536.0,0.3678
537.0,0.3537
538.0,0.3601
539.0,0.357
540.0,0.3421
541.0,0.3433
542.0,0.3535
543.0,0.3506
544.0,0.3558
545.0,0.3549
546.0,0.3556
547.0,0.3562
548.0,0.3523
549.0,0.3537
550.0,0.3579
551.0,0.3537
552.0,0.3562
553.0,0.3497
554.0,0.3579
555.0,0.3584
556.0,0.3536
557.0,0.3422
558.0,0.3391
559.0,0.3322
560.0,0.3359
561.0,0.3397
562.0,0.3366
563.0,0.345
564.0,0.335
565.0,0.3315
566.0,0.3262
567.0,0.3316
568.0,0.3268
569.0,0.3156
570.0,0.316
571.0,0.3149
572.0,0.3201
573.0,0.3231
574.0,0.3215
575.0,0.3147
576.0,0.3119
577.0,0.3156
578.0,0.3119
579.0,0.3148
580.0,0.3234
581.0,0.327
582.0,0.3349
583.0,0.3372
584.0,0.3411
585.0,0.3333
586.0,0.3266
587.0,0.3326
588.0,0.3203
589.0,0.2755
590.0,0.2887
591.0,0.3105
592.0,0.3037
593.0,0.312
594.0,0.3083
595.0,0.2974
596.0,0.3161
597.0,0.3108
598.0,0.3121
599.0,0.3133
600.0,0.3154
601.0,0.3142
602.0,0.3123
603.0,0.3182
604.0,0.3238
605.0,0.3226
606.0,0.322
607.0,0.326
608.0,0.3232
609.0,0.3244
610.0,0.3229
611.0,0.3251
612.0,0.3246
613.0,0.321
614.0,0.3173
615.0,0.3248
616.0,0.3147
617.0,0.3145
618.0,0.327
619.0,0.3239
620.0,0.326
621.0,0.3257
622.0,0.3215
623.0,0.3162
624.0,0.3112
625.0,0.3105
626.0,0.3148
627.0,0.3167
628.0,0.276
629.0,0.3022
630.0,0.2945
631.0,0.3079
632.0,0.3056
633.0,0.3177
634.0,0.3169
635.0,0.323
636.0,0.32
637.0,0.3263
638.0,0.331
639.0,0.3281
640.0,0.3259
641.0,0.3265
642.0,0.3259
643.0,0.3304
644.0,0.3302
645.0,0.3302
646.0,0.3201
647.0,0.3107
648.0,0.3115
649.0,0.3045
650.0,0.3133
651.0,0.3281
652.0,0.3075
653.0,0.3242
654.0,0.3211
655.0,0.3056
656.0,0.2734
657.0,0.2812
658.0,0.3175
659.0,0.3207
660.0,0.3226
661.0,0.3253
662.0,0.3247
663.0,0.3187
664.0,0.3245
665.0,0.3263
666.0,0.3272
667.0,0.3277
668.0,0.3287
669.0,0.3343
670.0,0.3332
671.0,0.3335
672.0,0.331
673.0,0.3363
674.0,0.3354
675.0,0.3328
676.0,0.3354
677.0,0.3323
678.0,0.3336
679.0,0.3285
680.0,0.3313
681.0,0.3292
682.0,0.3289
683.0,0.3283
684.0,0.3266
685.0,0.3298
686.0,0.3274
687.0,0.1387
688.0,0.1944
689.0,0.1962
690.0,0.2182
691.0,0.2447
692.0,0.2665
693.0,0.2638
694.0,0.264
695.0,0.2855
696.0,0.2866
697.0,0.316
698.0,0.3108
699.0,0.2951
700.0,0.2911
701.0,0.2846
702.0,0.29
703.0,0.2915
704.0,0.3059
705.0,0.3062
706.0,0.3078
707.0,0.3089
708.0,0.3093
709.0,0.3133
710.0,0.3113
711.0,0.3122
712.0,0.313
713.0,0.3082
714.0,0.3099
715.0,0.2966
716.0,0.2959
717.0,0.2271
718.0,0.2066
719.0,0.187
720.0,0.1928
721.0,0.229
722.0,0.2799
723.0,0.2519
724.0,0.216
725.0,0.2093
726.0,0.2198
727.0,0.2303
728.0,0.2075
729.0,0.2253
730.0,0.2355
731.0,0.2238
732.0,0.2503
733.0,0.2746
734.0,0.2845
735.0,0.2768
736.0,0.2758
737.0,0.2771
738.0,0.2896
739.0,0.2842
740.0,0.294
741.0,0.2926
742.0,0.2944
743.0,0.3024
744.0,0.3025
745.0,0.3034
746.0,0.3048
747.0,0.3057
748.0,0.3051
749.0,0.3018
750.0,0.3017
751.0,0.2986
752.0,0.3001
753.0,0.3017
754.0,0.3024
755.0,0.3006
756.0,0.3006
757.0,0.301
758.0,0.2971
759.0,0.2855
760.0,0.007912
761.0,0.002678
762.0,0.07143
763.0,0.01742
764.0,0.0392
765.0,0.0712
766.0,0.1143
767.0,0.1799
768.0,0.2429
769.0,0.2568
770.0,0.2759
771.0,0.2828
772.0,0.2849
773.0,0.2873
774.0,0.2862
775.0,0.2843
776.0,0.2879
777.0,0.2841
778.0,0.2823
779.0,0.2826
780.0,0.2811
781.0,0.2815
782.0,0.2833
783.0,0.2785
784.0,0.2801
785.0,0.2776
786.0,0.2803
787.0,0.2712
788.0,0.266
789.0,0.2658
790.0,0.2534
791.0,0.261
792.0,0.26
793.0,0.2552
794.0,0.265
795.0,0.268
796.0,0.2521
797.0,0.2516
798.0,0.2667
799.0,0.2636
800.0,0.2573
801.0,0.2545
802.0,0.2536
803.0,0.2506
804.0,0.2519
805.0,0.2535
806.0,0.2646
807.0,0.2605
808.0,0.261
809.0,0.2531
810.0,0.2493
811.0,0.2461
812.0,0.2332
813.0,0.2266
814.0,0.1862
815.0,0.1862
816.0,0.1713
817.0,0.175
818.0,0.1655
819.0,0.1961
820.0,0.181
821.0,0.2289
822.0,0.2196
823.0,0.1241
824.0,0.2063
825.0,0.2252
826.0,0.2107
827.0,0.2283
828.0,0.1768
829.0,0.2107
830.0,0.2069
831.0,0.2075
832.0,0.1981
833.0,0.2182
834.0,0.2056
835.0,0.2385
836.0,0.2193
837.0,0.2392
838.0,0.2273
839.0,0.2359
840.0,0.2422
841.0,0.2369
842.0,0.2404
843.0,0.2434
844.0,0.2384
845.0,0.2486
846.0,0.2481
847.0,0.2444
848.0,0.2415
849.0,0.2346
850.0,0.2249
851.0,0.2367
852.0,0.2358
853.0,0.228
854.0,0.1959
855.0,0.2167
856.0,0.2362
857.0,0.2424
858.0,0.2402
859.0,0.241
860.0,0.2419
861.0,0.2404
862.0,0.2444
863.0,0.2502
864.0,0.2378
865.0,0.2358
866.0,0.2121
867.0,0.2214
868.0,0.2409
869.0,0.236
870.0,0.2428
871.0,0.2394
872.0,0.2387
873.0,0.2382
874.0,0.2354
875.0,0.2306
876.0,0.2329
877.0,0.2354
878.0,0.2377
879.0,0.2341
880.0,0.2291
881.0,0.225
882.0,0.2295
883.0,0.231
884.0,0.2296
885.0,0.2313
886.0,0.218
887.0,0.2223
888.0,0.2245
889.0,0.2291
890.0,0.2246
891.0,0.2255
892.0,0.2156
893.0,0.2059
894.0,0.1916
895.0,0.1727
896.0,0.1607
897.0,0.1289
898.0,0.1448
899.0,0.1003
900.0,0.1542
901.0,0.1051
902.0,0.1361
903.0,0.1327
904.0,0.1898
905.0,0.1806
906.0,0.1663
907.0,0.1198
908.0,0.1256
909.0,0.1413
910.0,0.1144
911.0,0.1307
912.0,0.1365
913.0,0.1155
914.0,0.1168
915.0,0.1253
916.0,0.1049
917.0,0.1435
918.0,0.1066
919.0,0.15
920.0,0.1605
921.0,0.1659
922.0,0.1404
923.0,0.1613
924.0,0.1411
925.0,0.1388
926.0,0.1386
927.0,0.1628
928.0,0.09719
929.0,0.08318
930.0,0.05655
931.0,0.05324
932.0,0.03055
933.0,0.0219
934.0,0.006862
935.0,0.02457
936.0,0.01162
937.0,0.01172
938.0,0.01562
939.0,0.05134
940.0,0.06813
941.0,0.04374
942.0,0.05422
943.0,0.03015
944.0,0.03748
945.0,0.04683
946.0,0.01683
947.0,0.04504
948.0,0.03249
949.0,0.06801
950.0,0.009977
951.0,0.06753
952.0,0.0276
953.0,0.04133
954.0,0.05743
955.0,0.04261
956.0,0.04964
957.0,0.02733
958.0,0.07721
959.0,0.05203
960.0,0.05842
961.0,0.07302
962.0,0.06891
963.0,0.08622
964.0,0.07714
965.0,0.08528
966.0,0.08494
967.0,0.08338
968.0,0.1406
969.0,0.1419
970.0,0.1281
971.0,0.1596
972.0,0.1495
973.0,0.1173
974.0,0.1107
975.0,0.1186
976.0,0.1052
977.0,0.1356
978.0,0.1222
979.0,0.1313
980.0,0.1219
981.0,0.159
982.0,0.1472
983.0,0.1388
984.0,0.1701
985.0,0.1462
986.0,0.1772
987.0,0.1697
988.0,0.1697
989.0,0.1794
990.0,0.1685
991.0,0.1795
992.0,0.181
993.0,0.1727
994.0,0.1815
995.0,0.1819
996.0,0.1804
997.0,0.181
998.0,0.1799
999.0,0.1794
1000.0,0.177
1001.0,0.1805
1002.0,0.1708
1003.0,0.1771
1004.0,0.1714
1005.0,0.1669
1006.0,0.1726
1007.0,0.1767
1008.0,0.1749
1009.0,0.173
1010.0,0.1718
1011.0,0.1759
1012.0,0.1735
1013.0,0.1757
1014.0,0.1745
1015.0,0.1732
1016.0,0.1723
1017.0,0.1726
1018.0,0.1725
1019.0,0.167
1020.0,0.1713
1021.0,0.1714
1022.0,0.1694
1023.0,0.1711
1024.0,0.167
1025.0,0.1716
1026.0,0.1704
1027.0,0.1701
1028.0,0.1696
1029.0,0.1674
1030.0,0.1692
1031.0,0.1683
1032.0,0.168
1033.0,0.1654
1034.0,0.1655
1035.0,0.166
1036.0,0.1667
1037.0,0.164
1038.0,0.1647
1039.0,0.1645
1040.0,0.1638
1041.0,0.1642
1042.0,0.1631
1043.0,0.1625
1044.0,0.1629
1045.0,0.1606
1046.0,0.1587
1047.0,0.16
1048.0,0.1607
1049.0,0.16
1050.0,0.1591
1051.0,0.1587
1052.0,0.1578
1053.0,0.1563
1054.0,0.1564
1055.0,0.1562
1056.0,0.1554
1057.0,0.1546
1058.0,0.1506
1059.0,0.1504
1060.0,0.15
1061.0,0.1497
1062.0,0.1502
1063.0,0.1485
1064.0,0.1503
1065.0,0.1485
1066.0,0.1461
1067.0,0.1478
1068.0,0.1441
1069.0,0.1401
1070.0,0.1444
1071.0,0.1482
1072.0,0.1453
1073.0,0.1435
1074.0,0.149
1075.0,0.1373
1076.0,0.1486
1077.0,0.1436
1078.0,0.1396
1079.0,0.1471
1080.0,0.1414
1081.0,0.1346
1082.0,0.1405
1083.0,0.1421
1084.0,0.1334
1085.0,0.1421
1086.0,0.124
1087.0,0.1316
1088.0,0.1412
1089.0,0.1324
1090.0,0.1276
1091.0,0.1396
1092.0,0.14
1093.0,0.1078
1094.0,0.1267
1095.0,0.1126
1096.0,0.105
1097.0,0.1368
1098.0,0.1015
1099.0,0.1074
1100.0,0.09599
1101.0,0.09876
1102.0,0.09132
1103.0,0.08836
1104.0,0.08884
1105.0,0.104
1106.0,0.06377
1107.0,0.09593
1108.0,0.07193
1109.0,0.07331
1110.0,0.0927
1111.0,0.05041
1112.0,0.07329
1113.0,0.03542
1114.0,0.03983
1115.0,0.03198
1116.0,0.02038
1117.0,0.003855
1118.0,0.02313
1119.0,0.007786
1120.0,0.009207
1121.0,0.01386
1122.0,0.00341
1123.0,0.008437
1124.0,0.007071
1125.0,0.01013
1126.0,0.001451
1127.0,0.01164
1128.0,0.004349
1129.0,0.004802
1130.0,0.002901
1131.0,0.03095
1132.0,0.02235
1133.0,0.009658
1134.0,0.001089
1135.0,0.0004948
1136.0,0.006725
1137.0,0.02857
1138.0,0.01908
1139.0,0.04027
1140.0,0.02899
1141.0,0.01831
1142.0,0.02299
1143.0,0.03814
1144.0,0.008607
1145.0,0.009229
1146.0,0.009918
1147.0,0.001581
1148.0,0.03199
1149.0,0.02242
1150.0,0.01041
1151.0,0.01897
1152.0,0.02707
1153.0,0.02954
1154.0,0.009501
1155.0,0.04191
1156.0,0.03518
1157.0,0.04542
1158.0,0.0447
1159.0,0.05061
1160.0,0.04168
1161.0,0.05878
1162.0,0.05816
1163.0,0.09343
1164.0,0.07492
1165.0,0.06547
1166.0,0.06954
1167.0,0.07821
1168.0,0.07805
1169.0,0.08112
1170.0,0.09293
1171.0,0.09058
1172.0,0.09559
1173.0,0.09284
1174.0,0.05623
1175.0,0.09388
1176.0,0.11
1177.0,0.1008
1178.0,0.06786
1179.0,0.1108
1180.0,0.09164
1181.0,0.09477
1182.0,0.0562
1183.0,0.09473
1184.0,0.08556
1185.0,0.07963
1186.0,0.1043
1187.0,0.09611
1188.0,0.05528
1189.0,0.08912
1190.0,0.1028
1191.0,0.09094
1192.0,0.1049
1193.0,0.09827
1194.0,0.1028
1195.0,0.09269
1196.0,0.0869
1197.0,0.1045
1198.0,0.09393
1199.0,0.07085
1200.0,0.09704
1201.0,0.0901
1202.0,0.09276
1203.0,0.08983
1204.0,0.07507
1205.0,0.09728
1206.0,0.1119
1207.0,0.09105
1208.0,0.09241
1209.0,0.09465
1210.0,0.1008
1211.0,0.09288
1212.0,0.0863
1213.0,0.1055
1214.0,0.09026
1215.0,0.08817
1216.0,0.1058
1217.0,0.1013
1218.0,0.1048
1219.0,0.1023
1220.0,0.1051
1221.0,0.1074
1222.0,0.1038
1223.0,0.102
1224.0,0.09933
1225.0,0.1062
1226.0,0.1085
1227.0,0.09504
1228.0,0.1101
1229.0,0.1085
1230.0,0.1057
1231.0,0.112
1232.0,0.1112
1233.0,0.1031
1234.0,0.1129
1235.0,0.1115
1236.0,0.1128
1237.0,0.1096
1238.0,0.1125
1239.0,0.111
1240.0,0.1116
1241.0,0.11
1242.0,0.1107
1243.0,0.1099
1244.0,0.1103
1245.0,0.111
1246.0,0.1104
1247.0,0.1097
1248.0,0.109
1249.0,0.1099
1250.0,0.1088
1251.0,0.1067
1252.0,0.1076
1253.0,0.1051
1254.0,0.1028
1255.0,0.1071
1256.0,0.101
1257.0,0.0998
1258.0,0.1041
1259.0,0.09565
1260.0,0.09672
1261.0,0.08566
1262.0,0.08025
1263.0,0.08026
1264.0,0.06794
1265.0,0.07985
1266.0,0.07313
1267.0,0.07698
1268.0,0.06898
1269.0,0.02356
1270.0,0.07569
1271.0,0.08615
1272.0,0.08697
1273.0,0.08541
1274.0,0.08656
1275.0,0.08881
1276.0,0.09081
1277.0,0.09294
1278.0,0.09692
1279.0,0.09598
1280.0,0.09488
1281.0,0.09162
1282.0,0.09007
1283.0,0.09663
1284.0,0.09862
1285.0,0.09959
1286.0,0.1019
1287.0,0.09852
1288.0,0.0991
1289.0,0.09238
1290.0,0.09838
1291.0,0.1004
1292.0,0.08805
1293.0,0.09704
1294.0,0.09611
1295.0,0.09338
1296.0,0.08549
1297.0,0.07837
1298.0,0.09004
1299.0,0.09769
1300.0,0.07354
1301.0,0.07722
1302.0,0.08999
1303.0,0.07335
1304.0,0.05472
1305.0,0.08772
1306.0,0.08663
1307.0,0.05875
1308.0,0.07486
1309.0,0.08437
1310.0,0.05678
1311.0,0.06984
1312.0,0.06706
1313.0,0.06348
1314.0,0.05385
1315.0,0.05157
1316.0,0.06719
1317.0,0.06236
1318.0,0.0713
1319.0,0.04643
1320.0,0.04659
1321.0,0.05771
1322.0,0.05644
1323.0,0.03527
1324.0,0.04598
1325.0,0.06492
1326.0,0.05125
1327.0,0.0475
1328.0,0.03831
1329.0,0.02289
1330.0,0.03309
1331.0,0.01433
1332.0,0.01616
1333.0,0.02353
1334.0,0.02404
1335.0,0.0343
1336.0,0.02362
1337.0,0.02034
1338.0,0.02152
1339.0,0.02208
1340.0,0.02319
1341.0,0.01851
1342.0,0.02006
1343.0,0.008345
1344.0,0.005493
1345.0,0.007337
1346.0,0.001724
1347.0,0.001484
1348.0,2.461e-05
1349.0,0.0001142
1350.0,0.0001405
1351.0,1.092e-05
1352.0,1.182e-06
1353.0,5.224e-08
1354.0,2.055e-07
1355.0,1.37e-09
1356.0,2.535e-08
1357.0,3.84e-08
1358.0,1.61e-09
1359.0,2.016e-10
1360.0,7.3e-10
1361.0,8.149e-13
1362.0,2.229e-15
1363.0,9.798e-10
1364.0,4.046e-10
1365.0,7.783e-16
1366.0,4.247e-09
1367.0,1.737e-09
1368.0,6.009e-18
1369.0,1.491e-10
1370.0,7.34e-11
1371.0,4.16e-12
1372.0,9.428e-10
1373.0,1.928e-08
1374.0,9.397e-08
1375.0,1.652e-07
1376.0,1.794e-07
1377.0,7.926e-08
1378.0,7.631e-07
1379.0,3.404e-08
1380.0,4.229e-08
1381.0,1.087e-09
1382.0,8.254e-10
1383.0,1.233e-11
1384.0,1.615e-10
1385.0,7.823e-10
1386.0,7.266e-10
1387.0,8.928e-08
1388.0,1.84e-09
1389.0,3.316e-07
1390.0,2.768e-07
1391.0,1.853e-07
1392.0,1.223e-08
1393.0,6.952e-08
1394.0,3.032e-08
1395.0,2.21e-10
1396.0,1.061e-12
1397.0,2.575e-08
1398.0,7.818e-07
1399.0,5.073e-07
1400.0,4.536e-13
1401.0,1.882e-12
1402.0,3.766e-06
1403.0,3.375e-06
1404.0,8.619e-07
1405.0,1.042e-10
1406.0,1.608e-06
1407.0,2.666e-07
1408.0,1.39e-06
1409.0,3.605e-07
1410.0,3.98e-07
1411.0,3.166e-06
1412.0,6.281e-06
1413.0,0.0001639
1414.0,3.413e-07
1415.0,1.383e-07
1416.0,0.0007777
1417.0,0.000123
1418.0,7.927e-05
1419.0,1.066e-05
1420.0,4.749e-05
1421.0,8.266e-05
1422.0,0.001005
