interpolation:linear
wavelength,value
280.0,9.421999999999999e-23
280.5,3.142e-21
281.0,1.695e-20
281.5,5.061e-19
282.0,5.288e-19
282.5,1.278e-18
283.0,4.006e-18
283.5,6.52e-18
284.0,1.075e-16
284.5,3.15e-16
285.0,5.798e-16
285.5,2.771e-15
286.0,1.11e-14
286.5,4.956e-14
287.0,1.42e-13
287.5,5.475e-13
288.0,1.922e-12
288.5,5.587e-12
289.0,1.455e-11
289.5,4.332e-11
290.0,1.196e-10
290.5,2.434e-10
291.0,5.222e-10
291.5,1.5e-09
292.0,3.04e-09
292.5,4.243e-09
293.0,9.044e-09
293.5,2.185e-08
294.0,3.409e-08
294.5,4.466e-08
295.0,7.535e-08
295.5,1.274e-07
296.0,2.424e-07
296.5,3.339e-07
297.0,4.454e-07
297.5,1.168e-06
298.0,1.802e-06
298.5,1.779e-06
299.0,3.847e-06
299.5,6.151e-06
300.0,6.607e-06
300.5,9.325e-06
301.0,1.612e-05
301.5,2.455e-05
302.0,2.047e-05
302.5,3.973e-05
303.0,7.129e-05
303.5,9.051e-05
304.0,8.726e-05
304.5,0.0001398
305.0,0.0002356
305.5,0.000289
306.0,0.0002873
306.5,0.0003745
307.0,0.0006166
307.5,0.0009081
308.0,0.000975
308.5,0.001212
309.0,0.001432
309.5,0.001936
310.0,0.002099
310.5,0.00353
311.0,0.004715
311.5,0.004675
312.0,0.005346
312.5,0.007108
313.0,0.008074
313.5,0.007507
314.0,0.01044
314.5,0.01065
315.0,0.01435
315.5,0.01121
316.0,0.01097
316.5,0.01737
317.0,0.02153
317.5,0.02178
318.0,0.01816
318.5,0.02563
319.0,0.03244
319.5,0.02383
320.0,0.02834
320.5,0.04041
321.0,0.04047
321.5,0.03925
322.0,0.03687
322.5,0.03228
323.0,0.0349
323.5,0.04722
324.0,0.0559
324.5,0.05475
325.0,0.04453
325.5,0.06121
326.0,0.07789
326.5,0.08163
327.0,0.08
327.5,0.07563
328.0,0.06335
328.5,0.07168
329.0,0.09097
329.5,0.1051
330.0,0.1045
330.5,0.08
331.0,0.08028
331.5,0.08437
332.0,0.09566
332.5,0.09672
333.0,0.09524
333.5,0.08319
334.0,0.08475
334.5,0.1018
335.0,0.09798
335.5,0.1155
336.0,0.07992
336.5,0.09172
337.0,0.074
337.5,0.0915
338.0,0.09237
338.5,0.108
339.0,0.1072
339.5,0.103
340.0,0.1196
340.5,0.1082
341.0,0.1066
341.5,0.09832
342.0,0.1177
342.5,0.1103
343.0,0.121
343.5,0.1138
344.0,0.08329
344.5,0.08477
345.0,0.1127
345.5,0.1154
346.0,0.09828
346.5,0.1114
347.0,0.1194
347.5,0.09654
348.0,0.1104
348.5,0.1106
349.0,0.1027
349.5,0.1017
350.0,0.126
350.5,0.1329
351.0,0.1186
351.5,0.115
352.0,0.1238
352.5,0.09685
353.0,0.1222
353.5,0.1309
354.0,0.136
354.5,0.138
355.0,0.1375
355.5,0.1244
356.0,0.1302
356.5,0.1113
357.0,0.09195
357.5,0.1126
358.0,0.08934
358.5,0.07639
359.0,0.1069
359.5,0.1361
360.0,0.1444
360.5,0.1155
361.0,0.1054
361.5,0.1216
362.0,0.1053
362.5,0.1459
363.0,0.1312
363.5,0.121
364.0,0.1481
364.5,0.1267
365.0,0.1291
365.5,0.1621
366.0,0.172
366.5,0.1618
367.0,0.1577
367.5,0.1637
368.0,0.1434
368.5,0.1448
369.0,0.1565
369.5,0.1669
370.0,0.1781
370.5,0.1384
371.0,0.148
371.5,0.1853
372.0,0.1231
372.5,0.1477
373.0,0.1504
373.5,0.09792
374.0,0.1424
374.5,0.118
375.0,0.1148
375.5,0.1715
376.0,0.1423
376.5,0.1475
377.0,0.1564
377.5,0.1831
378.0,0.1986
378.5,0.1878
379.0,0.1551
379.5,0.1417
380.0,0.1474
380.5,0.1787
381.0,0.1793
381.5,0.1423
382.0,0.1266
382.5,0.108
383.0,0.1001
383.5,0.09653
384.0,0.1066
384.5,0.1569
385.0,0.1557
385.5,0.1452
386.0,0.1245
386.5,0.1637
387.0,0.1361
387.5,0.153
388.0,0.1414
388.5,0.1399
389.0,0.1511
389.5,0.1832
390.0,0.1841
390.5,0.1695
391.0,0.1998
391.5,0.2039
392.0,0.1719
392.5,0.154
393.0,0.08581
393.5,0.06244
394.0,0.1272
394.5,0.1618
395.0,0.1976
395.5,0.2009
396.0,0.1743
396.5,0.102
397.0,0.07665
397.5,0.156
398.0,0.2186
398.5,0.2261
399.0,0.2452
399.5,0.2446
400.0,0.2541
401.0,0.2552
402.0,0.2698
403.0,0.2569
404.0,0.2533
405.0,0.2537
406.0,0.2501
407.0,0.2466
408.0,0.2564
409.0,0.2748
410.0,0.2406
411.0,0.2611
412.0,0.2811
413.0,0.2744
414.0,0.2783
415.0,0.2796
416.0,0.2851
417.0,0.2784
418.0,0.2737
419.0,0.2778
420.0,0.2769
421.0,0.2901
422.0,0.2761
423.0,0.2701
424.0,0.2859
425.0,0.2859
426.0,0.2792
427.0,0.2743
428.0,0.2676
429.0,0.2541
430.0,0.2227
431.0,0.2208
432.0,0.2857
433.0,0.2877
434.0,0.2674
435.0,0.2794
436.0,0.3156
437.0,0.3121
438.0,0.2846
439.0,0.294
440.0,0.3038
441.0,0.3154
442.0,0.3386
443.0,0.3296
444.0,0.3375
445.0,0.3303
446.0,0.3162
447.0,0.3426
448.0,0.3477
449.0,0.3501
450.0,0.3604
451.0,0.3741
452.0,0.3609
453.0,0.3399
454.0,0.3556
455.0,0.3579
456.0,0.3668
457.0,0.373
458.0,0.3599
459.0,0.3583
460.0,0.3591
461.0,0.3676
462.0,0.3711
463.0,0.3687
464.0,0.3637
465.0,0.3601
466.0,0.3643
467.0,0.3575
468.0,0.3618
469.0,0.3638
470.0,0.3521
471.0,0.3519
472.0,0.3709
473.0,0.3661
474.0,0.3662
475.0,0.3686
476.0,0.3567
477.0,0.3571
478.0,0.3672
479.0,0.3655
480.0,0.3667
481.0,0.3743
482.0,0.3771
483.0,0.3736
484.0,0.3666
485.0,0.35
486.0,0.3067
487.0,0.322
488.0,0.3533
489.0,0.3542
490.0,0.3731
491.0,0.3672
492.0,0.3469
493.0,0.3585
494.0,0.3623
495.0,0.3656
496.0,0.3679
497.0,0.3735
498.0,0.356
499.0,0.3602
500.0,0.3491
501.0,0.3421
502.0,0.336
503.0,0.3485
504.0,0.3363
505.0,0.351
506.0,0.3623
507.0,0.3449
508.0,0.3353
509.0,0.3456
510.0,0.3445
511.0,0.3544
512.0,0.3587
513.0,0.3396
514.0,0.3376
515.0,0.3342
516.0,0.3333
517.0,0.2963
518.0,0.3114
519.0,0.3266
520.0,0.3383
521.0,0.3414
522.0,0.3414
523.0,0.335
524.0,0.3463
525.0,0.3494
526.0,0.3335
527.0,0.3135
528.0,0.3309
529.0,0.3483
530.0,0.3429
531.0,0.3477
532.0,0.3355
533.0,0.3257
534.0,0.3357
535.0,0.3434
536.0,0.347
537.0,0.3337
538.0,0.3398
539.0,0.3369
540.0,0.3228
541.0,0.3238
542.0,0.3334
543.0,0.3307
544.0,0.3356
545.0,0.3347
546.0,0.3353
547.0,0.3359
548.0,0.3323
549.0,0.3336
550.0,0.3376
551.0,0.3336
552.0,0.336
553.0,0.3298
554.0,0.3376
555.0,0.338
556.0,0.3335
557.0,0.3227
558.0,0.3198
559.0,0.3132
560.0,0.3167
561.0,0.3202
562.0,0.3172
563.0,0.3251
564.0,0.3156
565.0,0.3123
566.0,0.3072
567.0,0.3123
568.0,0.3076
569.0,0.2969
570.0,0.2972
571.0,0.2963
572.0,0.301
573.0,0.3038
574.0,0.3023
575.0,0.2958
576.0,0.2932
577.0,0.2967
578.0,0.2933
579.0,0.2961
580.0,0.3044
581.0,0.3079
582.0,0.3155
583.0,0.3177
584.0,0.3215
585.0,0.3142
586.0,0.3078
587.0,0.3135
588.0,0.3016
589.0,0.2589
590.0,0.2713
591.0,0.2922
592.0,0.2855
593.0,0.2936
594.0,0.29
595.0,0.2795
596.0,0.2976
597.0,0.2924
598.0,0.2938
599.0,0.295
600.0,0.2971
601.0,0.2961
602.0,0.2943
603.0,0.2999
604.0,0.3052
605.0,0.3041
606.0,0.3036
607.0,0.3074
608.0,0.3048
609.0,0.306
610.0,0.3046
611.0,0.3068
612.0,0.3064
613.0,0.3029
614.0,0.2995
615.0,0.3067
616.0,0.2971
617.0,0.297
618.0,0.3088
619.0,0.3059
620.0,0.3079
621.0,0.3076
622.0,0.3036
623.0,0.2986
624.0,0.2939
625.0,0.2932
626.0,0.2973
627.0,0.2989
628.0,0.2591
629.0,0.2848
630.0,0.2774
631.0,0.2906
632.0,0.2885
633.0,0.3001
634.0,0.2995
635.0,0.3053
636.0,0.3026
637.0,0.3086
638.0,0.3132
639.0,0.3105
640.0,0.3086
641.0,0.3091
642.0,0.3086
643.0,0.3129
644.0,0.3128
645.0,0.3128
646.0,0.3031
647.0,0.2937
648.0,0.2946
649.0,0.2878
650.0,0.2966
651.0,0.3107
652.0,0.2908
653.0,0.3072
654.0,0.3043
655.0,0.2894
656.0,0.259
657.0,0.2665
658.0,0.301
659.0,0.3041
660.0,0.306
661.0,0.3085
662.0,0.3079
663.0,0.3023
664.0,0.3079
665.0,0.3097
666.0,0.3105
667.0,0.311
668.0,0.3121
669.0,0.3174
670.0,0.3164
671.0,0.3168
672.0,0.3144
673.0,0.3195
674.0,0.3187
675.0,0.3161
676.0,0.3186
677.0,0.3158
678.0,0.317
679.0,0.3121
680.0,0.3148
681.0,0.3129
682.0,0.3125
683.0,0.312
684.0,0.3104
685.0,0.3135
686.0,0.3112
687.0,0.1274
688.0,0.1809
689.0,0.1827
690.0,0.204
691.0,0.23
692.0,0.2515
693.0,0.2489
694.0,0.2494
695.0,0.2704
696.0,0.2716
697.0,0.3002
698.0,0.2953
699.0,0.2798
700.0,0.276
701.0,0.2696
702.0,0.2748
703.0,0.2764
704.0,0.2904
705.0,0.2906
706.0,0.2922
707.0,0.2934
708.0,0.2937
709.0,0.2978
710.0,0.2958
711.0,0.2967
712.0,0.2976
713.0,0.2928
714.0,0.2945
715.0,0.2816
716.0,0.281
717.0,0.2138
718.0,0.1945
719.0,0.1759
720.0,0.181
721.0,0.2162
722.0,0.2654
723.0,0.2384
724.0,0.2037
725.0,0.1972
726.0,0.2071
727.0,0.2175
728.0,0.1954
729.0,0.2128
730.0,0.2222
731.0,0.2111
732.0,0.2368
733.0,0.2604
734.0,0.27
735.0,0.2626
736.0,0.2615
737.0,0.2628
738.0,0.2753
739.0,0.2702
740.0,0.2797
741.0,0.2784
742.0,0.2803
743.0,0.2879
744.0,0.2881
745.0,0.289
746.0,0.2903
747.0,0.2912
748.0,0.2907
749.0,0.2875
750.0,0.2874
751.0,0.2845
752.0,0.2859
753.0,0.2874
754.0,0.2881
755.0,0.2864
756.0,0.2864
757.0,0.2868
758.0,0.283
759.0,0.2715
760.0,0.006812
761.0,0.002345
762.0,0.06437
763.0,0.01508
764.0,0.03462
765.0,0.06414
766.0,0.1049
767.0,0.168
768.0,0.2297
769.0,0.2435
770.0,0.2624
771.0,0.2693
772.0,0.2714
773.0,0.2737
774.0,0.2727
775.0,0.2709
776.0,0.2744
777.0,0.2708
778.0,0.2691
779.0,0.2693
780.0,0.2679
781.0,0.2683
782.0,0.2701
783.0,0.2655
784.0,0.267
785.0,0.2646
786.0,0.2672
787.0,0.2582
788.0,0.2531
789.0,0.2529
790.0,0.2408
791.0,0.2484
792.0,0.2475
793.0,0.2429
794.0,0.2526
795.0,0.2553
796.0,0.2396
797.0,0.2391
798.0,0.254
799.0,0.251
800.0,0.2448
801.0,0.2421
802.0,0.2412
803.0,0.2383
804.0,0.2396
805.0,0.2412
806.0,0.252
807.0,0.2482
808.0,0.2486
809.0,0.2408
810.0,0.2371
811.0,0.234
812.0,0.2212
813.0,0.2149
814.0,0.1758
815.0,0.1759
816.0,0.1617
817.0,0.1652
818.0,0.156
819.0,0.1855
820.0,0.171
821.0,0.2175
822.0,0.2084
823.0,0.1164
824.0,0.1954
825.0,0.2141
826.0,0.1999
827.0,0.217
828.0,0.1669
829.0,0.1999
830.0,0.1962
831.0,0.1968
832.0,0.1876
833.0,0.2072
834.0,0.195
835.0,0.2271
836.0,0.2081
837.0,0.2277
838.0,0.216
839.0,0.2245
840.0,0.2306
841.0,0.2254
842.0,0.2289
843.0,0.2321
844.0,0.2272
845.0,0.237
846.0,0.2366
847.0,0.2331
848.0,0.2303
849.0,0.2237
850.0,0.2145
851.0,0.2256
852.0,0.2247
853.0,0.2175
854.0,0.1868
855.0,0.2066
856.0,0.2252
857.0,0.2312
858.0,0.229
859.0,0.2299
860.0,0.2308
861.0,0.2294
862.0,0.2332
863.0,0.2387
864.0,0.2269
865.0,0.225
866.0,0.2024
867.0,0.2112
868.0,0.2299
869.0,0.2252
870.0,0.2317
871.0,0.2285
872.0,0.2278
873.0,0.2273
874.0,0.2247
875.0,0.22
876.0,0.2222
877.0,0.2246
878.0,0.2268
879.0,0.2233
880.0,0.2186
881.0,0.2146
882.0,0.2189
883.0,0.2204
884.0,0.2191
885.0,0.2207
886.0,0.2078
887.0,0.212
888.0,0.2141
889.0,0.2186
890.0,0.2141
891.0,0.2151
892.0,0.2054
893.0,0.196
894.0,0.182
895.0,0.1634
896.0,0.152
897.0,0.1214
898.0,0.1365
899.0,0.09407
900.0,0.1458
901.0,0.09857
902.0,0.1283
903.0,0.1248
904.0,0.1802
905.0,0.1713
906.0,0.1575
907.0,0.1125
908.0,0.1182
909.0,0.1333
910.0,0.1073
911.0,0.1233
912.0,0.1286
913.0,0.1084
914.0,0.1098
915.0,0.1176
916.0,0.09847
917.0,0.1352
918.0,0.09991
919.0,0.1416
920.0,0.1522
921.0,0.1571
922.0,0.1326
923.0,0.1529
924.0,0.1331
925.0,0.1309
926.0,0.1306
927.0,0.1538
928.0,0.09062
929.0,0.07725
930.0,0.05193
931.0,0.04878
932.0,0.02754
933.0,0.01958
934.0,0.005914
935.0,0.02208
936.0,0.01025
937.0,0.01036
938.0,0.01387
939.0,0.04701
940.0,0.06284
941.0,0.0399
942.0,0.04964
943.0,0.02729
944.0,0.03433
945.0,0.04284
946.0,0.01502
947.0,0.04109
948.0,0.02961
949.0,0.0626
950.0,0.008817
951.0,0.0621
952.0,0.02496
953.0,0.03773
954.0,0.05282
955.0,0.03897
956.0,0.04613
957.0,0.02474
958.0,0.0719
959.0,0.04795
960.0,0.05387
961.0,0.06781
962.0,0.06401
963.0,0.08053
964.0,0.07195
965.0,0.07954
966.0,0.0793
967.0,0.07774
968.0,0.1331
969.0,0.1339
970.0,0.1209
971.0,0.1514
972.0,0.1417
973.0,0.1104
974.0,0.1042
975.0,0.1118
976.0,0.0987
977.0,0.1284
978.0,0.1152
979.0,0.124
980.0,0.1151
981.0,0.1508
982.0,0.1394
983.0,0.1313
984.0,0.1619
985.0,0.1384
986.0,0.1689
987.0,0.1615
988.0,0.1616
989.0,0.1712
990.0,0.1605
991.0,0.1712
992.0,0.1727
993.0,0.1645
994.0,0.1732
995.0,0.1737
996.0,0.1721
997.0,0.1728
998.0,0.1716
999.0,0.1712
1000.0,0.1689
1001.0,0.1723
1002.0,0.1627
1003.0,0.169
1004.0,0.1635
1005.0,0.1593
1006.0,0.1647
1007.0,0.1686
1008.0,0.1668
1009.0,0.165
1010.0,0.1638
1011.0,0.1679
1012.0,0.1655
1013.0,0.1677
1014.0,0.1666
1015.0,0.1653
1016.0,0.1645
1017.0,0.1647
1018.0,0.1647
1019.0,0.1593
1020.0,0.1635
1021.0,0.1636
1022.0,0.1617
1023.0,0.1633
1024.0,0.1593
1025.0,0.1638
1026.0,0.1626
1027.0,0.1623
1028.0,0.1618
1029.0,0.1597
1030.0,0.1615
1031.0,0.1606
1032.0,0.1603
1033.0,0.1579
1034.0,0.158
1035.0,0.1585
1036.0,0.159
1037.0,0.1566
1038.0,0.1572
1039.0,0.1569
1040.0,0.1563
1041.0,0.1567
1042.0,0.1556
1043.0,0.155
1044.0,0.1554
1045.0,0.1532
1046.0,0.1514
1047.0,0.1526
1048.0,0.1533
1049.0,0.1526
1050.0,0.1517
1051.0,0.1513
1052.0,0.1505
1053.0,0.1491
1054.0,0.1491
1055.0,0.1489
1056.0,0.1481
1057.0,0.1473
1058.0,0.1435
1059.0,0.1433
1060.0,0.1429
1061.0,0.1426
1062.0,0.143
1063.0,0.1414
1064.0,0.1431
1065.0,0.1414
1066.0,0.1391
1067.0,0.1408
1068.0,0.1372
1069.0,0.1334
1070.0,0.1375
1071.0,0.1412
1072.0,0.1384
1073.0,0.1366
1074.0,0.142
1075.0,0.1306
1076.0,0.1416
1077.0,0.1367
1078.0,0.1329
1079.0,0.1403
1080.0,0.1346
1081.0,0.128
1082.0,0.1339
1083.0,0.1354
1084.0,0.1268
1085.0,0.1352
1086.0,0.1177
1087.0,0.1252
1088.0,0.1346
1089.0,0.1258
1090.0,0.1212
1091.0,0.133
1092.0,0.1334
1093.0,0.1021
1094.0,0.1206
1095.0,0.1065
1096.0,0.09919
1097.0,0.1303
1098.0,0.0958
1099.0,0.1014
1100.0,0.09045
1101.0,0.09319
1102.0,0.08597
1103.0,0.08305
1104.0,0.08353
1105.0,0.09811
1106.0,0.05936
1107.0,0.09041
1108.0,0.06727
1109.0,0.06857
1110.0,0.08714
1111.0,0.04666
1112.0,0.06857
1113.0,0.03254
1114.0,0.03656
1115.0,0.02926
1116.0,0.01836
1117.0,0.003337
1118.0,0.02086
1119.0,0.006839
1120.0,0.008038
1121.0,0.01219
1122.0,0.002885
1123.0,0.007368
1124.0,0.006171
1125.0,0.00891
1126.0,0.001198
1127.0,0.01025
1128.0,0.003704
1129.0,0.004096
1130.0,0.002487
1131.0,0.02792
1132.0,0.02003
1133.0,0.008423
1134.0,0.0008993
1135.0,0.0004145
1136.0,0.005786
1137.0,0.02569
1138.0,0.01706
1139.0,0.03692
1140.0,0.0263
1141.0,0.01638
1142.0,0.02069
1143.0,0.03477
1144.0,0.007613
1145.0,0.008031
1146.0,0.00863
1147.0,0.001302
1148.0,0.02905
1149.0,0.02018
1150.0,0.009319
1151.0,0.01697
1152.0,0.02446
1153.0,0.02691
1154.0,0.008357
1155.0,0.03843
1156.0,0.0321
1157.0,0.04195
1158.0,0.04127
1159.0,0.04681
1160.0,0.03857
1161.0,0.05486
1162.0,0.05422
1163.0,0.08811
1164.0,0.07037
1165.0,0.0612
1166.0,0.06531
1167.0,0.07359
1168.0,0.07342
1169.0,0.07635
1170.0,0.08776
1171.0,0.08555
1172.0,0.09052
1173.0,0.08768
1174.0,0.05259
1175.0,0.08891
1176.0,0.1046
1177.0,0.09562
1178.0,0.06393
1179.0,0.1054
1180.0,0.0867
1181.0,0.08966
1182.0,0.05263
1183.0,0.08971
1184.0,0.08082
1185.0,0.07503
1186.0,0.09898
1187.0,0.09096
1188.0,0.05162
1189.0,0.08432
1190.0,0.09764
1191.0,0.0859
1192.0,0.09966
1193.0,0.09318
1194.0,0.0976
1195.0,0.08769
1196.0,0.08206
1197.0,0.09932
1198.0,0.08919
1199.0,0.0667
1200.0,0.09205
1201.0,0.08522
1202.0,0.08801
1203.0,0.08501
1204.0,0.07086
1205.0,0.09242
1206.0,0.1065
1207.0,0.08627
1208.0,0.08774
1209.0,0.08986
1210.0,0.09582
1211.0,0.08815
1212.0,0.08149
1213.0,0.1002
1214.0,0.08536
1215.0,0.08338
1216.0,0.1007
1217.0,0.09627
1218.0,0.09966
1219.0,0.09723
1220.0,0.09997
1221.0,0.1022
1222.0,0.09883
1223.0,0.09703
1224.0,0.09431
1225.0,0.1011
1226.0,0.1034
1227.0,0.0902
1228.0,0.1049
1229.0,0.1034
1230.0,0.1007
1231.0,0.1068
1232.0,0.1061
1233.0,0.09805
1234.0,0.1078
1235.0,0.1064
1236.0,0.1077
1237.0,0.1045
1238.0,0.1074
1239.0,0.1059
1240.0,0.1066
1241.0,0.1049
1242.0,0.1057
1243.0,0.1049
1244.0,0.1053
1245.0,0.106
1246.0,0.1054
1247.0,0.1046
1248.0,0.104
1249.0,0.1048
1250.0,0.1038
1251.0,0.1017
1252.0,0.1027
1253.0,0.1001
1254.0,0.09786
1255.0,0.1022
1256.0,0.09609
1257.0,0.09492
1258.0,0.09923
1259.0,0.09079
1260.0,0.09185
1261.0,0.08093
1262.0,0.07561
1263.0,0.07561
1264.0,0.06355
1265.0,0.07522
1266.0,0.06861
1267.0,0.07243
1268.0,0.0646
1269.0,0.02103
1270.0,0.07113
1271.0,0.08146
1272.0,0.08227
1273.0,0.08074
1274.0,0.0819
1275.0,0.08411
1276.0,0.08609
1277.0,0.08824
1278.0,0.09217
1279.0,0.09131
1280.0,0.09024
1281.0,0.08722
1282.0,0.08588
1283.0,0.09211
1284.0,0.09399
1285.0,0.09494
1286.0,0.09721
1287.0,0.09386
1288.0,0.09447
1289.0,0.0878
1290.0,0.09378
1291.0,0.09578
1292.0,0.08356
1293.0,0.09246
1294.0,0.09156
1295.0,0.08877
1296.0,0.08104
1297.0,0.07413
1298.0,0.08556
1299.0,0.09311
1300.0,0.06955
1301.0,0.07309
1302.0,0.08555
1303.0,0.0694
1304.0,0.05131
1305.0,0.08336
1306.0,0.08222
1307.0,0.05526
1308.0,0.0709
1309.0,0.07995
1310.0,0.05333
1311.0,0.06603
1312.0,0.06339
1313.0,0.05979
1314.0,0.05051
1315.0,0.04829
1316.0,0.06342
1317.0,0.05876
1318.0,0.06742
1319.0,0.04336
1320.0,0.04357
1321.0,0.05424
1322.0,0.05292
1323.0,0.03262
1324.0,0.04298
1325.0,0.06114
1326.0,0.04801
1327.0,0.0444
1328.0,0.03561
1329.0,0.02091
1330.0,0.03052
1331.0,0.01289
1332.0,0.01461
1333.0,0.02135
1334.0,0.02216
1335.0,0.03162
1336.0,0.02155
1337.0,0.01857
1338.0,0.01961
1339.0,0.02013
1340.0,0.02127
1341.0,0.0167
1342.0,0.01817
1343.0,0.00731
1344.0,0.004842
1345.0,0.006397
1346.0,0.001427
1347.0,0.001212
1348.0,1.914e-05
1349.0,8.837e-05
1350.0,0.0001082
1351.0,8.541e-06
1352.0,1.085e-06
1353.0,5.073e-08
1354.0,1.898e-07
1355.0,1.364e-09
1356.0,2.46e-08
1357.0,3.731e-08
1358.0,1.602e-09
1359.0,2.013e-10
1360.0,7.279e-10
1361.0,8.135e-13
1362.0,2.225e-15
1363.0,9.78e-10
1364.0,4.038e-10
1365.0,7.77e-16
1366.0,4.239e-09
1367.0,1.732e-09
1368.0,5.999e-18
1369.0,1.488e-10
1370.0,7.327e-11
1371.0,4.153e-12
1372.0,9.395e-10
1373.0,1.907e-08
1374.0,9.087e-08
1375.0,1.618e-07
1376.0,1.639e-07
1377.0,7.324e-08
1378.0,7.054e-07
1379.0,3.122e-08
1380.0,4.076e-08
1381.0,1.055e-09
1382.0,8.229e-10
1383.0,1.23e-11
1384.0,1.612e-10
1385.0,7.756e-10
1386.0,7.251e-10
1387.0,8.832e-08
1388.0,1.785e-09
1389.0,3.147e-07
1390.0,2.654e-07
1391.0,1.774e-07
1392.0,1.165e-08
1393.0,6.454e-08
1394.0,3.007e-08
1395.0,2.198e-10
1396.0,1.059e-12
1397.0,2.443e-08
1398.0,7.314e-07
1399.0,4.703e-07
1400.0,4.528e-13
1401.0,1.879e-12
1402.0,2.937e-06
1403.0,2.701e-06
1404.0,7.042e-07
1405.0,1.038e-10
1406.0,1.416e-06
1407.0,2.135e-07
1408.0,1.204e-06
1409.0,3.39e-07
1410.0,3.416e-07
1411.0,2.509e-06
1412.0,4.846e-06
1413.0,0.0001242
1414.0,2.875e-07
1415.0,1.21e-07
1416.0,0.00063
1417.0,9.761e-05
1418.0,5.987e-05
