interpolation:linear
wavelength,value
280.0,1.14e-21
280.5,3.6600000000000005e-20
281.0,1.946e-19
281.5,5.183e-19
282.0,9.618e-19
282.5,2.397e-18
283.0,7.561e-18
283.5,1.228e-17
284.0,1.987e-16
284.5,5.747e-16
285.0,1.145e-15
285.5,5.514e-15
286.0,2.202e-14
286.5,9.74e-14
287.0,2.764e-13
287.5,1.051e-12
288.0,3.209e-12
288.5,1.006e-11
289.0,2.741e-11
289.5,8.402e-11
290.0,2.352e-10
290.5,4.821e-10
291.0,1.039e-09
291.5,2.993e-09
292.0,6.15e-09
292.5,8.893e-09
293.0,1.977e-08
293.5,5.036e-08
294.0,8.116e-08
294.5,1.067e-07
295.0,1.854e-07
295.5,4.294e-07
296.0,7.759e-07
296.5,1.123e-06
297.0,1.569e-06
297.5,4.455e-06
298.0,7.43e-06
298.5,7.852e-06
299.0,1.826e-05
299.5,3.367e-05
300.0,3.956e-05
300.5,6.174e-05
301.0,0.000128
301.5,0.0002366
302.0,0.0002213
302.5,0.000444
303.0,0.0008266
303.5,0.001067
304.0,0.001023
304.5,0.001606
305.0,0.002612
305.5,0.003127
306.0,0.003079
306.5,0.003944
307.0,0.006224
307.5,0.008777
308.0,0.009361
308.5,0.01138
309.0,0.01141
309.5,0.01352
310.0,0.01381
310.5,0.02256
311.0,0.0287
311.5,0.02788
312.0,0.02869
312.5,0.03559
313.0,0.03899
313.5,0.03753
314.0,0.048
314.5,0.04385
315.0,0.05794
315.5,0.0478
316.0,0.04276
316.5,0.06268
317.0,0.0778
317.5,0.08052
318.0,0.06371
318.5,0.08122
319.0,0.09768
319.5,0.07798
320.0,0.09395
320.5,0.1208
321.0,0.1101
321.5,0.1058
322.0,0.11
322.5,0.09587
323.0,0.09708
323.5,0.1211
324.0,0.1417
324.5,0.143
325.0,0.1226
325.5,0.1598
326.0,0.196
326.5,0.198
327.0,0.1968
327.5,0.1894
328.0,0.1669
328.5,0.1777
329.0,0.2151
329.5,0.245
330.0,0.2466
330.5,0.1959
331.0,0.1991
331.5,0.2036
332.0,0.2219
332.5,0.2204
333.0,0.2193
333.5,0.1973
334.0,0.202
334.5,0.2349
335.0,0.2217
335.5,0.2591
336.0,0.1793
336.5,0.2096
337.0,0.1715
337.5,0.2131
338.0,0.2094
338.5,0.242
339.0,0.2397
339.5,0.2306
340.0,0.2709
340.5,0.2444
341.0,0.2385
341.5,0.2192
342.0,0.2621
342.5,0.2454
343.0,0.2698
343.5,0.2541
344.0,0.1878
344.5,0.1898
345.0,0.2514
345.5,0.2569
346.0,0.2185
346.5,0.2475
347.0,0.2657
347.5,0.2149
348.0,0.2452
348.5,0.2453
349.0,0.2277
349.5,0.2255
350.0,0.2791
350.5,0.2945
351.0,0.2631
351.5,0.2557
352.0,0.2748
352.5,0.2146
353.0,0.2705
353.5,0.2894
354.0,0.3006
354.5,0.3049
355.0,0.304
355.5,0.2748
356.0,0.2877
356.5,0.2457
357.0,0.2031
357.5,0.2487
358.0,0.1972
358.5,0.1685
359.0,0.2358
359.5,0.3005
360.0,0.3187
360.5,0.2549
361.0,0.2325
361.5,0.2679
362.0,0.2318
362.5,0.3211
363.0,0.2886
363.5,0.266
364.0,0.3255
364.5,0.2783
365.0,0.2836
365.5,0.3561
366.0,0.3775
366.5,0.3549
367.0,0.3458
367.5,0.359
368.0,0.3143
368.5,0.3173
369.0,0.3428
369.5,0.3656
370.0,0.3899
370.5,0.3028
371.0,0.3237
371.5,0.4051
372.0,0.269
372.5,0.3227
373.0,0.3284
373.5,0.2138
374.0,0.3108
374.5,0.2575
375.0,0.2504
375.5,0.374
376.0,0.3101
376.5,0.3215
377.0,0.3406
377.5,0.3986
378.0,0.4322
378.5,0.4087
379.0,0.3373
379.5,0.3082
380.0,0.3205
380.5,0.3885
381.0,0.3895
381.5,0.309
382.0,0.2746
382.5,0.2342
383.0,0.217
383.5,0.2091
384.0,0.2307
384.5,0.3395
385.0,0.3368
385.5,0.3139
386.0,0.269
386.5,0.3535
387.0,0.2938
387.5,0.3302
388.0,0.305
388.5,0.3016
389.0,0.3257
389.5,0.3947
390.0,0.3963
390.5,0.3648
391.0,0.4296
391.5,0.4384
392.0,0.3694
392.5,0.3308
393.0,0.1842
393.5,0.134
394.0,0.2727
394.5,0.3469
395.0,0.4234
395.5,0.4302
396.0,0.3732
396.5,0.2183
397.0,0.1639
397.5,0.3334
398.0,0.467
398.5,0.4829
399.0,0.5232
399.5,0.5217
400.0,0.5418
401.0,0.5484
402.0,0.5791
403.0,0.5506
404.0,0.5425
405.0,0.5428
406.0,0.5345
407.0,0.5263
408.0,0.5471
409.0,0.5859
410.0,0.5124
411.0,0.5554
412.0,0.5971
413.0,0.5825
414.0,0.5901
415.0,0.5921
416.0,0.603
417.0,0.5885
418.0,0.5779
419.0,0.5859
420.0,0.5836
421.0,0.611
422.0,0.581
423.0,0.5679
424.0,0.6008
425.0,0.6001
426.0,0.5851
427.0,0.5745
428.0,0.5598
429.0,0.5308
430.0,0.4648
431.0,0.4607
432.0,0.5953
433.0,0.5989
434.0,0.5563
435.0,0.5811
436.0,0.6553
437.0,0.647
438.0,0.5895
439.0,0.6095
440.0,0.6293
441.0,0.6525
442.0,0.7001
443.0,0.6818
444.0,0.697
445.0,0.682
446.0,0.6515
447.0,0.7049
448.0,0.7157
449.0,0.7192
450.0,0.7397
451.0,0.7674
452.0,0.7396
453.0,0.6959
454.0,0.727
455.0,0.7316
456.0,0.7492
457.0,0.7618
458.0,0.7356
459.0,0.7321
460.0,0.734
461.0,0.7511
462.0,0.7573
463.0,0.7521
464.0,0.7402
465.0,0.7315
466.0,0.7389
467.0,0.7254
468.0,0.734
469.0,0.7379
470.0,0.7144
471.0,0.7136
472.0,0.7519
473.0,0.7422
474.0,0.743
475.0,0.749
476.0,0.7262
477.0,0.7279
478.0,0.7483
479.0,0.7441
480.0,0.7458
481.0,0.7602
482.0,0.7647
483.0,0.756
484.0,0.7408
485.0,0.7061
486.0,0.6176
487.0,0.6476
488.0,0.7105
489.0,0.7125
490.0,0.7499
491.0,0.7372
492.0,0.6962
493.0,0.7191
494.0,0.7264
495.0,0.7327
496.0,0.7372
497.0,0.7487
498.0,0.7136
499.0,0.7226
500.0,0.7013
501.0,0.6881
502.0,0.6779
503.0,0.7049
504.0,0.6852
505.0,0.7112
506.0,0.7342
507.0,0.6987
508.0,0.6775
509.0,0.6969
510.0,0.6936
511.0,0.7126
512.0,0.7206
513.0,0.6821
514.0,0.6776
515.0,0.6709
516.0,0.6692
517.0,0.5947
518.0,0.6252
519.0,0.6557
520.0,0.6795
521.0,0.6859
522.0,0.6864
523.0,0.6739
524.0,0.6977
525.0,0.7055
526.0,0.6738
527.0,0.6346
528.0,0.6708
529.0,0.7068
530.0,0.6965
531.0,0.7067
532.0,0.6824
533.0,0.6624
534.0,0.6821
535.0,0.6972
536.0,0.7038
537.0,0.6763
538.0,0.6883
539.0,0.6825
540.0,0.6543
541.0,0.6581
542.0,0.6784
543.0,0.6717
544.0,0.6829
545.0,0.6809
546.0,0.6834
547.0,0.6835
548.0,0.6755
549.0,0.6777
550.0,0.6858
551.0,0.6776
552.0,0.6823
553.0,0.67
554.0,0.686
555.0,0.6872
556.0,0.6782
557.0,0.657
558.0,0.6518
559.0,0.6393
560.0,0.6471
561.0,0.6552
562.0,0.6501
563.0,0.6675
564.0,0.649
565.0,0.6431
566.0,0.6334
567.0,0.6451
568.0,0.6384
569.0,0.6213
570.0,0.6214
571.0,0.6182
572.0,0.6318
573.0,0.6383
574.0,0.636
575.0,0.6237
576.0,0.618
577.0,0.625
578.0,0.6161
579.0,0.6194
580.0,0.6325
581.0,0.6368
582.0,0.6497
583.0,0.6521
584.0,0.6582
585.0,0.6425
586.0,0.6293
587.0,0.6425
588.0,0.6246
589.0,0.5488
590.0,0.5743
591.0,0.6104
592.0,0.6012
593.0,0.6121
594.0,0.607
595.0,0.5904
596.0,0.6173
597.0,0.6097
598.0,0.6093
599.0,0.6103
600.0,0.6122
601.0,0.6079
602.0,0.6038
603.0,0.6142
604.0,0.6245
605.0,0.6215
606.0,0.6194
607.0,0.6259
608.0,0.6194
609.0,0.6208
610.0,0.6168
611.0,0.6202
612.0,0.6187
613.0,0.6111
614.0,0.6031
615.0,0.6165
616.0,0.5965
617.0,0.5955
618.0,0.6186
619.0,0.6125
620.0,0.6163
621.0,0.6166
622.0,0.6091
623.0,0.5996
624.0,0.5896
625.0,0.5883
626.0,0.5969
627.0,0.6027
628.0,0.5526
629.0,0.5849
630.0,0.5711
631.0,0.5874
632.0,0.581
633.0,0.6002
634.0,0.5955
635.0,0.6053
636.0,0.598
637.0,0.6082
638.0,0.6149
639.0,0.6084
640.0,0.603
641.0,0.603
642.0,0.6006
643.0,0.6088
644.0,0.6072
645.0,0.608
646.0,0.5926
647.0,0.5827
648.0,0.5832
649.0,0.5716
650.0,0.578
651.0,0.6037
652.0,0.5748
653.0,0.5959
654.0,0.5896
655.0,0.5657
656.0,0.5027
657.0,0.5165
658.0,0.5799
659.0,0.5846
660.0,0.5873
661.0,0.5915
662.0,0.592
663.0,0.5805
664.0,0.5885
665.0,0.5897
666.0,0.5905
667.0,0.5904
668.0,0.5911
669.0,0.6004
670.0,0.598
671.0,0.5981
672.0,0.5931
673.0,0.6022
674.0,0.6001
675.0,0.5948
676.0,0.5991
677.0,0.5933
678.0,0.5951
679.0,0.5856
680.0,0.5904
681.0,0.5865
682.0,0.5858
683.0,0.5847
684.0,0.5818
685.0,0.587
686.0,0.5833
687.0,0.3438
688.0,0.4227
689.0,0.425
690.0,0.4526
691.0,0.4844
692.0,0.5086
693.0,0.5039
694.0,0.5001
695.0,0.5263
696.0,0.5272
697.0,0.566
698.0,0.557
699.0,0.5394
700.0,0.5327
701.0,0.5257
702.0,0.531
703.0,0.5323
704.0,0.5519
705.0,0.5527
706.0,0.5533
707.0,0.5541
708.0,0.5552
709.0,0.5577
710.0,0.5568
711.0,0.5566
712.0,0.5557
713.0,0.5494
714.0,0.5517
715.0,0.5325
716.0,0.5324
717.0,0.4459
718.0,0.4076
719.0,0.372
720.0,0.3883
721.0,0.438
722.0,0.5112
723.0,0.4707
724.0,0.418
725.0,0.4092
726.0,0.4291
727.0,0.4392
728.0,0.4075
729.0,0.4283
730.0,0.4526
731.0,0.4316
732.0,0.4676
733.0,0.5005
734.0,0.5141
735.0,0.5026
736.0,0.5018
737.0,0.5038
738.0,0.5156
739.0,0.5054
740.0,0.5199
741.0,0.5154
742.0,0.5167
743.0,0.53
744.0,0.529
745.0,0.5295
746.0,0.5319
747.0,0.5332
748.0,0.5321
749.0,0.5261
750.0,0.5258
751.0,0.5205
752.0,0.5228
753.0,0.5255
754.0,0.5267
755.0,0.5236
756.0,0.5235
757.0,0.5242
758.0,0.5176
759.0,0.5046
760.0,0.04982
761.0,0.02172
762.0,0.2132
763.0,0.08624
764.0,0.1465
765.0,0.213
766.0,0.2814
767.0,0.3768
768.0,0.4533
769.0,0.4671
770.0,0.4878
771.0,0.494
772.0,0.4957
773.0,0.4993
774.0,0.4971
775.0,0.4934
776.0,0.4995
777.0,0.4929
778.0,0.4899
779.0,0.4903
780.0,0.4876
781.0,0.4881
782.0,0.4912
783.0,0.4827
784.0,0.4851
785.0,0.4814
786.0,0.4865
787.0,0.4761
788.0,0.4692
789.0,0.4689
790.0,0.4537
791.0,0.4603
792.0,0.4573
793.0,0.4496
794.0,0.4601
795.0,0.4671
796.0,0.449
797.0,0.4493
798.0,0.4661
799.0,0.4624
800.0,0.4535
801.0,0.4512
802.0,0.4499
803.0,0.446
804.0,0.4471
805.0,0.4468
806.0,0.4612
807.0,0.4552
808.0,0.4558
809.0,0.4458
810.0,0.4412
811.0,0.4397
812.0,0.4247
813.0,0.4145
814.0,0.3568
815.0,0.355
816.0,0.3295
817.0,0.3363
818.0,0.3219
819.0,0.3666
820.0,0.3427
821.0,0.4103
822.0,0.397
823.0,0.2551
824.0,0.3819
825.0,0.403
826.0,0.3847
827.0,0.4091
828.0,0.3378
829.0,0.383
830.0,0.3771
831.0,0.3786
832.0,0.3653
833.0,0.3931
834.0,0.3762
835.0,0.4199
836.0,0.3976
837.0,0.4213
838.0,0.406
839.0,0.4154
840.0,0.425
841.0,0.4181
842.0,0.4204
843.0,0.4217
844.0,0.415
845.0,0.4301
846.0,0.4285
847.0,0.421
848.0,0.4177
849.0,0.4058
850.0,0.3889
851.0,0.411
852.0,0.4085
853.0,0.3937
854.0,0.3395
855.0,0.3736
856.0,0.408
857.0,0.4176
858.0,0.4143
859.0,0.415
860.0,0.4159
861.0,0.4136
862.0,0.4202
863.0,0.4301
864.0,0.4087
865.0,0.4051
866.0,0.3643
867.0,0.3802
868.0,0.4137
869.0,0.4052
870.0,0.4167
871.0,0.4111
872.0,0.4097
873.0,0.4088
874.0,0.404
875.0,0.3958
876.0,0.3999
877.0,0.4039
878.0,0.4082
879.0,0.402
880.0,0.3934
881.0,0.3871
882.0,0.3953
883.0,0.3969
884.0,0.395
885.0,0.398
886.0,0.378
887.0,0.383
888.0,0.3881
889.0,0.3936
890.0,0.389
891.0,0.389
892.0,0.376
893.0,0.3624
894.0,0.3459
895.0,0.3221
896.0,0.302
897.0,0.2537
898.0,0.2798
899.0,0.2063
900.0,0.2902
901.0,0.2162
902.0,0.2626
903.0,0.2622
904.0,0.3433
905.0,0.3297
906.0,0.307
907.0,0.2404
908.0,0.2467
909.0,0.2711
910.0,0.2325
911.0,0.2528
912.0,0.2653
913.0,0.2356
914.0,0.235
915.0,0.2546
916.0,0.2141
917.0,0.2791
918.0,0.2191
919.0,0.2865
920.0,0.2941
921.0,0.306
922.0,0.2683
923.0,0.2961
924.0,0.2739
925.0,0.2682
926.0,0.2705
927.0,0.3081
928.0,0.2109
929.0,0.1885
930.0,0.1419
931.0,0.135
932.0,0.09073
933.0,0.07074
934.0,0.03266
935.0,0.07483
936.0,0.04271
937.0,0.04298
938.0,0.05434
939.0,0.1306
940.0,0.1619
941.0,0.116
942.0,0.1378
943.0,0.08593
944.0,0.09511
945.0,0.1209
946.0,0.05526
947.0,0.1198
948.0,0.08727
949.0,0.1665
950.0,0.03737
951.0,0.165
952.0,0.08061
953.0,0.1094
954.0,0.1402
955.0,0.1113
956.0,0.1129
957.0,0.08014
958.0,0.1675
959.0,0.1259
960.0,0.1411
961.0,0.1641
962.0,0.1547
963.0,0.1833
964.0,0.1664
965.0,0.1828
966.0,0.1819
967.0,0.1805
968.0,0.2607
969.0,0.27
970.0,0.2459
971.0,0.2897
972.0,0.2754
973.0,0.2315
974.0,0.2188
975.0,0.2302
976.0,0.2139
977.0,0.2527
978.0,0.2362
979.0,0.2499
980.0,0.2336
981.0,0.2883
982.0,0.2726
983.0,0.26
984.0,0.3007
985.0,0.2715
986.0,0.3082
987.0,0.2995
988.0,0.2991
989.0,0.3087
990.0,0.2972
991.0,0.3093
992.0,0.3114
993.0,0.3019
994.0,0.3116
995.0,0.3116
996.0,0.3098
997.0,0.3104
998.0,0.3088
999.0,0.3078
1000.0,0.305
1001.0,0.3095
1002.0,0.2985
1003.0,0.3039
1004.0,0.2958
1005.0,0.2859
1006.0,0.2966
1007.0,0.3031
1008.0,0.301
1009.0,0.2989
1010.0,0.2974
1011.0,0.3016
1012.0,0.2985
1013.0,0.301
1014.0,0.2989
1015.0,0.2969
1016.0,0.2955
1017.0,0.2961
1018.0,0.2953
1019.0,0.2881
1020.0,0.2936
1021.0,0.2934
1022.0,0.2908
1023.0,0.2938
1024.0,0.289
1025.0,0.2939
1026.0,0.2924
1027.0,0.2918
1028.0,0.2911
1029.0,0.2876
1030.0,0.2899
1031.0,0.2886
1032.0,0.2878
1033.0,0.2835
1034.0,0.2835
1035.0,0.2844
1036.0,0.2858
1037.0,0.2812
1038.0,0.2824
1039.0,0.2822
1040.0,0.281
1041.0,0.282
1042.0,0.2801
1043.0,0.2791
1044.0,0.28
1045.0,0.2762
1046.0,0.2731
1047.0,0.2755
1048.0,0.2769
1049.0,0.2758
1050.0,0.2745
1051.0,0.274
1052.0,0.2728
1053.0,0.2705
1054.0,0.2709
1055.0,0.271
1056.0,0.2698
1057.0,0.2689
1058.0,0.2621
1059.0,0.2623
1060.0,0.2618
1061.0,0.2614
1062.0,0.2626
1063.0,0.2599
1064.0,0.263
1065.0,0.2608
1066.0,0.2559
1067.0,0.2591
1068.0,0.2532
1069.0,0.2456
1070.0,0.2536
1071.0,0.2584
1072.0,0.2548
1073.0,0.2513
1074.0,0.2587
1075.0,0.2432
1076.0,0.2584
1077.0,0.2523
1078.0,0.2469
1079.0,0.2547
1080.0,0.2485
1081.0,0.2392
1082.0,0.2453
1083.0,0.2466
1084.0,0.2381
1085.0,0.2493
1086.0,0.2239
1087.0,0.2335
1088.0,0.2459
1089.0,0.2359
1090.0,0.2293
1091.0,0.2444
1092.0,0.2443
1093.0,0.2004
1094.0,0.2227
1095.0,0.2094
1096.0,0.1986
1097.0,0.2387
1098.0,0.1945
1099.0,0.204
1100.0,0.1869
1101.0,0.1901
1102.0,0.1797
1103.0,0.1767
1104.0,0.1771
1105.0,0.1987
1106.0,0.1411
1107.0,0.1866
1108.0,0.1517
1109.0,0.1532
1110.0,0.1839
1111.0,0.1162
1112.0,0.1525
1113.0,0.08857
1114.0,0.09959
1115.0,0.08207
1116.0,0.06077
1117.0,0.01779
1118.0,0.0675
1119.0,0.02954
1120.0,0.03673
1121.0,0.05096
1122.0,0.01823
1123.0,0.03337
1124.0,0.02811
1125.0,0.03765
1126.0,0.01005
1127.0,0.04276
1128.0,0.02211
1129.0,0.02386
1130.0,0.01476
1131.0,0.09018
1132.0,0.06899
1133.0,0.03881
1134.0,0.007632
1135.0,0.003009
1136.0,0.03071
1137.0,0.08675
1138.0,0.06024
1139.0,0.1001
1140.0,0.07972
1141.0,0.05735
1142.0,0.06793
1143.0,0.1009
1144.0,0.03057
1145.0,0.03748
1146.0,0.04037
1147.0,0.01114
1148.0,0.08689
1149.0,0.06643
1150.0,0.03364
1151.0,0.05974
1152.0,0.07707
1153.0,0.07788
1154.0,0.03624
1155.0,0.1043
1156.0,0.09185
1157.0,0.1069
1158.0,0.1056
1159.0,0.1163
1160.0,0.0971
1161.0,0.1254
1162.0,0.1255
1163.0,0.1795
1164.0,0.1503
1165.0,0.1382
1166.0,0.1401
1167.0,0.1543
1168.0,0.1552
1169.0,0.16
1170.0,0.1769
1171.0,0.1723
1172.0,0.1773
1173.0,0.1766
1174.0,0.119
1175.0,0.1741
1176.0,0.1953
1177.0,0.1848
1178.0,0.1335
1179.0,0.197
1180.0,0.1716
1181.0,0.1773
1182.0,0.1164
1183.0,0.1755
1184.0,0.1625
1185.0,0.155
1186.0,0.1897
1187.0,0.1788
1188.0,0.1175
1189.0,0.1663
1190.0,0.1857
1191.0,0.1727
1192.0,0.1886
1193.0,0.1796
1194.0,0.1859
1195.0,0.1733
1196.0,0.1655
1197.0,0.1871
1198.0,0.1698
1199.0,0.1393
1200.0,0.1772
1201.0,0.169
1202.0,0.1695
1203.0,0.1673
1204.0,0.144
1205.0,0.1749
1206.0,0.1958
1207.0,0.1683
1208.0,0.1672
1209.0,0.171
1210.0,0.1793
1211.0,0.1689
1212.0,0.1642
1213.0,0.1881
1214.0,0.1693
1215.0,0.1657
1216.0,0.1877
1217.0,0.1818
1218.0,0.1861
1219.0,0.1832
1220.0,0.1864
1221.0,0.1888
1222.0,0.1834
1223.0,0.1813
1224.0,0.1792
1225.0,0.1875
1226.0,0.1894
1227.0,0.1721
1228.0,0.1909
1229.0,0.1894
1230.0,0.1857
1231.0,0.1927
1232.0,0.1915
1233.0,0.1827
1234.0,0.193
1235.0,0.1915
1236.0,0.1931
1237.0,0.1895
1238.0,0.1925
1239.0,0.19
1240.0,0.1908
1241.0,0.1894
1242.0,0.1894
1243.0,0.1879
1244.0,0.1891
1245.0,0.19
1246.0,0.1889
1247.0,0.188
1248.0,0.1876
1249.0,0.1885
1250.0,0.1872
1251.0,0.1844
1252.0,0.1849
1253.0,0.1826
1254.0,0.1802
1255.0,0.1845
1256.0,0.1779
1257.0,0.1766
1258.0,0.1811
1259.0,0.1723
1260.0,0.1734
1261.0,0.161
1262.0,0.1547
1263.0,0.1549
1264.0,0.1397
1265.0,0.154
1266.0,0.1462
1267.0,0.1501
1268.0,0.1402
1269.0,0.07409
1270.0,0.1491
1271.0,0.1607
1272.0,0.1616
1273.0,0.1596
1274.0,0.1605
1275.0,0.1633
1276.0,0.1655
1277.0,0.1672
1278.0,0.1716
1279.0,0.1699
1280.0,0.1679
1281.0,0.1607
1282.0,0.1557
1283.0,0.1675
1284.0,0.1713
1285.0,0.1726
1286.0,0.1754
1287.0,0.1718
1288.0,0.172
1289.0,0.1649
1290.0,0.1706
1291.0,0.1733
1292.0,0.1597
1293.0,0.1692
1294.0,0.1679
1295.0,0.1661
1296.0,0.1566
1297.0,0.1467
1298.0,0.161
1299.0,0.1697
1300.0,0.1385
1301.0,0.1437
1302.0,0.1605
1303.0,0.1372
1304.0,0.1123
1305.0,0.1569
1306.0,0.1565
1307.0,0.1165
1308.0,0.1383
1309.0,0.1547
1310.0,0.1139
1311.0,0.1315
1312.0,0.1272
1313.0,0.1237
1314.0,0.1091
1315.0,0.1065
1316.0,0.1285
1317.0,0.1211
1318.0,0.1336
1319.0,0.09874
1320.0,0.09688
1321.0,0.1148
1322.0,0.1149
1323.0,0.08184
1324.0,0.09704
1325.0,0.1262
1326.0,0.1054
1327.0,0.09969
1328.0,0.08439
1329.0,0.05933
1330.0,0.0793
1331.0,0.04337
1332.0,0.0462
1333.0,0.06521
1334.0,0.0579
1335.0,0.08129
1336.0,0.06177
1337.0,0.05367
1338.0,0.0579
1339.0,0.0583
1340.0,0.05801
1341.0,0.05358
1342.0,0.05662
1343.0,0.033
1344.0,0.02023
1345.0,0.02908
1346.0,0.01154
1347.0,0.01124
1348.0,0.0004457
1349.0,0.001819
1350.0,0.002069
1351.0,0.0003197
1352.0,4.965e-05
1353.0,1.568e-06
1354.0,7.699e-06
1355.0,2.115e-08
1356.0,7.493e-07
1357.0,1.145e-06
1358.0,2.615e-08
1359.0,1.469e-09
1360.0,8.922e-09
1361.0,2.311e-12
1362.0,4.299e-15
1363.0,8.657e-09
1364.0,3.731e-09
1365.0,1.034e-15
1366.0,4.649e-08
1367.0,2.387e-08
1368.0,6.33e-18
1369.0,1.368e-09
1370.0,4.843e-10
1371.0,1.972e-11
1372.0,1.34e-08
1373.0,4.581e-07
1374.0,3.122e-06
1375.0,5.279e-06
1376.0,7.1e-06
1377.0,3.02e-06
1378.0,3.294e-05
1379.0,1.277e-06
1380.0,1.404e-06
1381.0,3.096e-08
1382.0,1.088e-08
1383.0,1.298e-10
1384.0,1.329e-09
1385.0,1.572e-08
1386.0,7.496e-09
1387.0,2.407e-06
1388.0,5.398e-08
1389.0,1.311e-05
1390.0,1.092e-05
1391.0,6.937e-06
1392.0,4.227e-07
1393.0,2.716e-06
1394.0,7.099e-07
1395.0,3.697e-09
1396.0,3.861e-12
1397.0,9.331e-07
1398.0,3.484e-05
1399.0,2.271e-05
1400.0,1.182e-12
1401.0,7.89e-12
1402.0,0.0001152
1403.0,0.0001282
1404.0,3.688e-05
1405.0,1.333e-09
1406.0,7.795e-05
1407.0,8.643e-06
1408.0,6.648e-05
1409.0,1.612e-05
1410.0,1.695e-05
1411.0,0.0001157
1412.0,0.0001826
1413.0,0.002835
1414.0,1.404e-05
1415.0,5.851e-06
1416.0,0.006301
1417.0,0.001455
1418.0,0.001505
1419.0,0.0002191
1420.0,0.00091
1421.0,0.001042
1422.0,0.008277
1423.0,0.001505
1424.0,0.002979
1425.0,0.004075
1426.0,0.005288
1427.0,0.01113
1428.0,0.0003976
1429.0,0.007532
1430.0,0.01496
1431.0,0.01698
1432.0,0.000307
1433.0,0.0101
1434.0,0.0048
1435.0,0.003714
