interpolation:linear
wavelength,value
280.0,4.1369999999999995e-22
280.5,1.3530000000000002e-20
281.0,7.238000000000001e-20
281.5,4.464e-19
282.0,7.389e-19
282.5,1.831e-18
283.0,5.782e-18
283.5,9.403e-18
284.0,1.541e-16
284.5,4.484e-16
285.0,7.631e-16
285.5,3.786e-15
286.0,1.524e-14
286.5,6.84e-14
287.0,1.958e-13
287.5,7.528e-13
288.0,2.536e-12
288.5,7.707e-12
289.0,2.058e-11
289.5,6.222e-11
290.0,1.728e-10
290.5,3.524e-10
291.0,7.566e-10
291.5,2.172e-09
292.0,4.522e-09
292.5,6.356e-09
293.0,1.366e-08
293.5,3.333e-08
294.0,5.218e-08
294.5,7.099e-08
295.0,1.204e-07
295.5,2.115e-07
296.0,4.144e-07
296.5,5.897e-07
297.0,8.108e-07
297.5,2.238e-06
298.0,3.63e-06
298.5,3.745e-06
299.0,8.489e-06
299.5,1.491e-05
300.0,1.7e-05
300.5,2.563e-05
301.0,4.988e-05
301.5,8.558e-05
302.0,7.626e-05
302.5,0.0001541
303.0,0.0002904
303.5,0.0003792
304.0,0.0003682
304.5,0.0005996
305.0,0.001029
305.5,0.001277
306.0,0.001275
306.5,0.001673
307.0,0.002789
307.5,0.004156
308.0,0.004473
308.5,0.005592
309.0,0.005737
309.5,0.007109
310.0,0.007408
310.5,0.01222
311.0,0.0158
311.5,0.01545
312.0,0.01647
312.5,0.0209
313.0,0.02318
313.5,0.02206
314.0,0.029
314.5,0.02747
315.0,0.03653
315.5,0.02961
316.0,0.02728
316.5,0.04101
317.0,0.05088
317.5,0.05227
318.0,0.04208
318.5,0.05545
319.0,0.0678
319.5,0.05269
320.0,0.06322
320.5,0.08405
321.0,0.07901
321.5,0.07618
322.0,0.07664
322.5,0.06689
323.0,0.06919
323.5,0.08799
324.0,0.1034
324.5,0.1034
325.0,0.08769
325.5,0.1163
326.0,0.1433
326.5,0.1464
327.0,0.1449
327.5,0.1387
328.0,0.1204
328.5,0.1306
329.0,0.1604
329.5,0.1835
330.0,0.184
330.5,0.1445
331.0,0.1464
331.5,0.1509
332.0,0.1665
332.5,0.1663
333.0,0.165
333.5,0.1471
334.0,0.1504
334.5,0.1767
335.0,0.1677
335.5,0.1963
336.0,0.1359
336.5,0.1582
337.0,0.1289
337.5,0.1599
338.0,0.1584
338.5,0.1836
339.0,0.1819
339.5,0.175
340.0,0.2051
340.5,0.1853
341.0,0.1811
341.5,0.1666
342.0,0.1993
342.5,0.1866
343.0,0.2051
343.5,0.1931
344.0,0.1425
344.5,0.1442
345.0,0.1912
345.5,0.1955
346.0,0.1663
346.5,0.1885
347.0,0.2023
347.5,0.1636
348.0,0.1868
348.5,0.1869
349.0,0.1736
349.5,0.172
350.0,0.2129
350.5,0.2247
351.0,0.2007
351.5,0.1949
352.0,0.2096
352.5,0.1638
353.0,0.2065
353.5,0.221
354.0,0.2296
354.5,0.2329
355.0,0.2322
355.5,0.21
356.0,0.2199
356.5,0.1878
357.0,0.1552
357.5,0.1901
358.0,0.1508
358.5,0.1289
359.0,0.1803
359.5,0.2298
360.0,0.2438
360.5,0.195
361.0,0.1779
361.5,0.2051
362.0,0.1775
362.5,0.246
363.0,0.2211
363.5,0.2039
364.0,0.2495
364.5,0.2134
365.0,0.2175
365.5,0.2731
366.0,0.2896
366.5,0.2723
367.0,0.2654
367.5,0.2756
368.0,0.2413
368.5,0.2436
369.0,0.2633
369.5,0.2808
370.0,0.2996
370.5,0.2327
371.0,0.2488
371.5,0.3114
372.0,0.2068
372.5,0.2481
373.0,0.2526
373.5,0.1645
374.0,0.2391
374.5,0.1982
375.0,0.1928
375.5,0.2879
376.0,0.2388
376.5,0.2476
377.0,0.2623
377.5,0.3071
378.0,0.333
378.5,0.3149
379.0,0.26
379.5,0.2375
380.0,0.2471
380.5,0.2995
381.0,0.3004
381.5,0.2384
382.0,0.2119
382.5,0.1808
383.0,0.1675
383.5,0.1615
384.0,0.1782
384.5,0.2623
385.0,0.2603
385.5,0.2426
386.0,0.2079
386.5,0.2734
387.0,0.2273
387.5,0.2554
388.0,0.2359
388.5,0.2334
389.0,0.2521
389.5,0.3055
390.0,0.3068
390.5,0.2825
391.0,0.3328
391.5,0.3396
392.0,0.2862
392.5,0.2564
393.0,0.1428
393.5,0.1039
394.0,0.2115
394.5,0.2691
395.0,0.3285
395.5,0.3338
396.0,0.2896
396.5,0.1694
397.0,0.1273
397.5,0.2589
398.0,0.3627
398.5,0.3751
399.0,0.4066
399.5,0.4055
400.0,0.4211
401.0,0.4253
402.0,0.4493
403.0,0.4274
404.0,0.4213
405.0,0.4216
406.0,0.4153
407.0,0.4092
408.0,0.4254
409.0,0.4558
410.0,0.3987
411.0,0.4324
412.0,0.4651
413.0,0.4538
414.0,0.4599
415.0,0.4617
416.0,0.4704
417.0,0.4592
418.0,0.4511
419.0,0.4575
420.0,0.4559
421.0,0.4774
422.0,0.4541
423.0,0.444
424.0,0.4699
425.0,0.4695
426.0,0.458
427.0,0.4498
428.0,0.4384
429.0,0.4159
430.0,0.3644
431.0,0.3612
432.0,0.4669
433.0,0.4699
434.0,0.4365
435.0,0.4561
436.0,0.5146
437.0,0.5083
438.0,0.4633
439.0,0.4789
440.0,0.4946
441.0,0.513
442.0,0.5506
443.0,0.5362
444.0,0.5484
445.0,0.5366
446.0,0.5129
447.0,0.5553
448.0,0.5637
449.0,0.5668
450.0,0.5832
451.0,0.6051
452.0,0.5834
453.0,0.5491
454.0,0.5739
455.0,0.5775
456.0,0.5916
457.0,0.6016
458.0,0.5808
459.0,0.5781
460.0,0.5795
461.0,0.5931
462.0,0.5982
463.0,0.5942
464.0,0.5852
465.0,0.5786
466.0,0.5848
467.0,0.574
468.0,0.5809
469.0,0.584
470.0,0.5653
471.0,0.5649
472.0,0.5952
473.0,0.5875
474.0,0.5879
475.0,0.5925
476.0,0.5741
477.0,0.5752
478.0,0.5914
479.0,0.5883
480.0,0.5898
481.0,0.6015
482.0,0.6054
483.0,0.5989
484.0,0.5871
485.0,0.5599
486.0,0.49
487.0,0.514
488.0,0.5639
489.0,0.5654
490.0,0.5952
491.0,0.5853
492.0,0.5528
493.0,0.5711
494.0,0.5769
495.0,0.5819
496.0,0.5856
497.0,0.5946
498.0,0.5667
499.0,0.5737
500.0,0.5566
501.0,0.5459
502.0,0.5374
503.0,0.5583
504.0,0.5414
505.0,0.563
506.0,0.5812
507.0,0.5532
508.0,0.5368
509.0,0.5525
510.0,0.5502
511.0,0.5655
512.0,0.572
513.0,0.5415
514.0,0.538
515.0,0.5327
516.0,0.5313
517.0,0.4722
518.0,0.4964
519.0,0.5206
520.0,0.5395
521.0,0.5445
522.0,0.5447
523.0,0.5348
524.0,0.5534
525.0,0.5592
526.0,0.534
527.0,0.5026
528.0,0.5311
529.0,0.5595
530.0,0.5512
531.0,0.5591
532.0,0.5398
533.0,0.524
534.0,0.5397
535.0,0.5518
536.0,0.5572
537.0,0.5355
538.0,0.5451
539.0,0.5405
540.0,0.5181
541.0,0.5207
542.0,0.5366
543.0,0.5316
544.0,0.5401
545.0,0.5386
546.0,0.5403
547.0,0.5407
548.0,0.5345
549.0,0.5363
550.0,0.5428
551.0,0.5363
552.0,0.54
553.0,0.5302
554.0,0.5429
555.0,0.5438
556.0,0.5366
557.0,0.5196
558.0,0.5153
559.0,0.5052
560.0,0.5112
561.0,0.5174
562.0,0.5132
563.0,0.5266
564.0,0.5118
565.0,0.507
566.0,0.4991
567.0,0.508
568.0,0.5021
569.0,0.4874
570.0,0.4876
571.0,0.4854
572.0,0.4952
573.0,0.5002
574.0,0.4982
575.0,0.4882
576.0,0.4838
577.0,0.4894
578.0,0.4828
579.0,0.486
580.0,0.4972
581.0,0.5013
582.0,0.5122
583.0,0.5145
584.0,0.5198
585.0,0.5075
586.0,0.4971
587.0,0.5072
588.0,0.4914
589.0,0.4287
590.0,0.4489
591.0,0.479
592.0,0.4706
593.0,0.4806
594.0,0.476
595.0,0.4618
596.0,0.4855
597.0,0.4788
598.0,0.4793
599.0,0.4804
600.0,0.4825
601.0,0.4796
602.0,0.4765
603.0,0.4849
604.0,0.4932
605.0,0.491
606.0,0.4896
607.0,0.4951
608.0,0.4902
609.0,0.4916
610.0,0.4887
611.0,0.4916
612.0,0.4905
613.0,0.4847
614.0,0.4786
615.0,0.4895
616.0,0.4738
617.0,0.4731
618.0,0.4916
619.0,0.4868
620.0,0.4899
621.0,0.4899
622.0,0.4838
623.0,0.476
624.0,0.4683
625.0,0.4672
626.0,0.474
627.0,0.478
628.0,0.4312
629.0,0.4614
630.0,0.4502
631.0,0.4656
632.0,0.461
633.0,0.4772
634.0,0.4743
635.0,0.4825
636.0,0.4772
637.0,0.4857
638.0,0.4916
639.0,0.4867
640.0,0.4827
641.0,0.483
642.0,0.4814
643.0,0.488
644.0,0.4871
645.0,0.4875
646.0,0.4743
647.0,0.4644
648.0,0.4649
649.0,0.4554
650.0,0.463
651.0,0.4841
652.0,0.4584
653.0,0.478
654.0,0.4731
655.0,0.4527
656.0,0.4032
657.0,0.4144
658.0,0.4661
659.0,0.4702
660.0,0.4725
661.0,0.476
662.0,0.4759
663.0,0.4669
664.0,0.474
665.0,0.4756
666.0,0.4765
667.0,0.4766
668.0,0.4775
669.0,0.4852
670.0,0.4834
671.0,0.4836
672.0,0.4797
673.0,0.4872
674.0,0.4856
675.0,0.4815
676.0,0.485
677.0,0.4804
678.0,0.482
679.0,0.4744
680.0,0.4783
681.0,0.4753
682.0,0.4747
683.0,0.4738
684.0,0.4715
685.0,0.4758
686.0,0.4726
687.0,0.2503
688.0,0.3212
689.0,0.3234
690.0,0.3493
691.0,0.3795
692.0,0.4031
693.0,0.3991
694.0,0.3969
695.0,0.4214
696.0,0.4224
697.0,0.4578
698.0,0.4504
699.0,0.4332
700.0,0.4277
701.0,0.4209
702.0,0.4264
703.0,0.4276
704.0,0.4452
705.0,0.4458
706.0,0.4469
707.0,0.4479
708.0,0.4487
709.0,0.4519
710.0,0.4506
711.0,0.4509
712.0,0.4508
713.0,0.445
714.0,0.4471
715.0,0.4303
716.0,0.4299
717.0,0.3495
718.0,0.3188
719.0,0.2901
720.0,0.3016
721.0,0.3464
722.0,0.4108
723.0,0.3752
724.0,0.3292
725.0,0.321
726.0,0.3368
727.0,0.3476
728.0,0.3191
729.0,0.3392
730.0,0.3574
731.0,0.3403
732.0,0.3726
733.0,0.4024
734.0,0.4145
735.0,0.4046
736.0,0.4038
737.0,0.4054
738.0,0.4178
739.0,0.4096
740.0,0.4222
741.0,0.4191
742.0,0.4206
743.0,0.4317
744.0,0.4312
745.0,0.4319
746.0,0.4338
747.0,0.4349
748.0,0.4341
749.0,0.4292
750.0,0.429
751.0,0.4247
752.0,0.4266
753.0,0.4289
754.0,0.4298
755.0,0.4273
756.0,0.4273
757.0,0.4278
758.0,0.4224
759.0,0.4099
760.0,0.02579
761.0,0.009746
762.0,0.1461
763.0,0.04941
764.0,0.09303
765.0,0.1459
766.0,0.2055
767.0,0.29
768.0,0.3619
769.0,0.376
770.0,0.3962
771.0,0.4028
772.0,0.4047
773.0,0.4078
774.0,0.406
775.0,0.4031
776.0,0.4081
777.0,0.4028
778.0,0.4003
779.0,0.4006
780.0,0.3985
781.0,0.3989
782.0,0.4015
783.0,0.3946
784.0,0.3966
785.0,0.3934
786.0,0.3975
787.0,0.3875
788.0,0.3813
789.0,0.381
790.0,0.3668
791.0,0.374
792.0,0.3719
793.0,0.3654
794.0,0.3759
795.0,0.3811
796.0,0.3637
797.0,0.3637
798.0,0.38
799.0,0.3765
800.0,0.3686
801.0,0.3661
802.0,0.365
803.0,0.3615
804.0,0.3627
805.0,0.3632
806.0,0.3762
807.0,0.3711
808.0,0.3717
809.0,0.3625
810.0,0.3582
811.0,0.3556
812.0,0.3416
813.0,0.3327
814.0,0.2817
815.0,0.2807
816.0,0.2599
817.0,0.2654
818.0,0.2529
819.0,0.2922
820.0,0.2718
821.0,0.3316
822.0,0.3199
823.0,0.1967
824.0,0.3053
825.0,0.3258
826.0,0.3089
827.0,0.3306
828.0,0.2671
829.0,0.308
830.0,0.3029
831.0,0.304
832.0,0.2923
833.0,0.3172
834.0,0.3018
835.0,0.3412
836.0,0.3201
837.0,0.3424
838.0,0.3284
839.0,0.3378
840.0,0.346
841.0,0.3397
842.0,0.3426
843.0,0.3447
844.0,0.3387
845.0,0.3518
846.0,0.3506
847.0,0.3447
848.0,0.3416
849.0,0.3319
850.0,0.3181
851.0,0.3357
852.0,0.3339
853.0,0.3222
854.0,0.2775
855.0,0.3059
856.0,0.3338
857.0,0.342
858.0,0.3391
859.0,0.3399
860.0,0.3408
861.0,0.3389
862.0,0.3443
863.0,0.3525
864.0,0.3349
865.0,0.3321
866.0,0.2986
867.0,0.3116
868.0,0.3392
869.0,0.3322
870.0,0.3417
871.0,0.337
872.0,0.3359
873.0,0.3352
874.0,0.3312
875.0,0.3245
876.0,0.3278
877.0,0.3312
878.0,0.3346
879.0,0.3295
880.0,0.3225
881.0,0.3171
882.0,0.3238
883.0,0.3253
884.0,0.3236
885.0,0.326
886.0,0.3089
887.0,0.3136
888.0,0.3174
889.0,0.3226
890.0,0.3179
891.0,0.3184
892.0,0.3067
893.0,0.2946
894.0,0.2788
895.0,0.2568
896.0,0.2401
897.0,0.1985
898.0,0.2205
899.0,0.159
900.0,0.2308
901.0,0.1666
902.0,0.2072
903.0,0.2051
904.0,0.2766
905.0,0.2647
906.0,0.2456
907.0,0.187
908.0,0.1931
909.0,0.2142
910.0,0.1799
911.0,0.1987
912.0,0.2086
913.0,0.1821
914.0,0.1825
915.0,0.1971
916.0,0.1655
917.0,0.2194
918.0,0.1689
919.0,0.2266
920.0,0.2358
921.0,0.245
922.0,0.212
923.0,0.2374
924.0,0.2155
925.0,0.2113
926.0,0.2125
927.0,0.2448
928.0,0.1598
929.0,0.1406
930.0,0.1025
931.0,0.09743
932.0,0.06219
933.0,0.04712
934.0,0.01912
935.0,0.05092
936.0,0.02726
937.0,0.0274
938.0,0.0353
939.0,0.0942
940.0,0.1193
941.0,0.08246
942.0,0.0995
943.0,0.05972
944.0,0.06864
945.0,0.08667
946.0,0.0366
947.0,0.08499
948.0,0.06169
949.0,0.1213
950.0,0.02355
951.0,0.1206
952.0,0.05533
953.0,0.07771
954.0,0.1025
955.0,0.07936
956.0,0.08383
957.0,0.05484
958.0,0.1272
959.0,0.09205
960.0,0.1032
961.0,0.1229
962.0,0.1159
963.0,0.1398
964.0,0.1263
965.0,0.1393
966.0,0.1384
967.0,0.1369
968.0,0.2082
969.0,0.214
970.0,0.1942
971.0,0.2331
972.0,0.2207
973.0,0.1811
974.0,0.1709
975.0,0.1812
976.0,0.1658
977.0,0.2014
978.0,0.186
979.0,0.198
980.0,0.1845
981.0,0.2321
982.0,0.2178
983.0,0.2069
984.0,0.2442
985.0,0.2168
986.0,0.2516
987.0,0.243
988.0,0.2429
989.0,0.2529
990.0,0.2412
991.0,0.2533
992.0,0.2551
993.0,0.2458
994.0,0.2554
995.0,0.2556
996.0,0.2539
997.0,0.2546
998.0,0.2531
999.0,0.2524
1000.0,0.2498
1001.0,0.2538
1002.0,0.2433
1003.0,0.2491
1004.0,0.2421
1005.0,0.2345
1006.0,0.243
1007.0,0.2485
1008.0,0.2466
1009.0,0.2445
1010.0,0.2431
1011.0,0.2473
1012.0,0.2445
1013.0,0.247
1014.0,0.2452
1015.0,0.2435
1016.0,0.2423
1017.0,0.2428
1018.0,0.2423
1019.0,0.2358
1020.0,0.2408
1021.0,0.2407
1022.0,0.2384
1023.0,0.2408
1024.0,0.2363
1025.0,0.2411
1026.0,0.2397
1027.0,0.2393
1028.0,0.2386
1029.0,0.2357
1030.0,0.2378
1031.0,0.2366
1032.0,0.2361
1033.0,0.2325
1034.0,0.2326
1035.0,0.2333
1036.0,0.2344
1037.0,0.2306
1038.0,0.2316
1039.0,0.2314
1040.0,0.2304
1041.0,0.2312
1042.0,0.2296
1043.0,0.2288
1044.0,0.2295
1045.0,0.2263
1046.0,0.2237
1047.0,0.2256
1048.0,0.2267
1049.0,0.2258
1050.0,0.2246
1051.0,0.2242
1052.0,0.2231
1053.0,0.2212
1054.0,0.2215
1055.0,0.2214
1056.0,0.2204
1057.0,0.2195
1058.0,0.2139
1059.0,0.214
1060.0,0.2135
1061.0,0.2131
1062.0,0.214
1063.0,0.2117
1064.0,0.2143
1065.0,0.2123
1066.0,0.2085
1067.0,0.211
1068.0,0.206
1069.0,0.2
1070.0,0.2064
1071.0,0.2108
1072.0,0.2075
1073.0,0.2047
1074.0,0.2114
1075.0,0.1972
1076.0,0.211
1077.0,0.2052
1078.0,0.2004
1079.0,0.2082
1080.0,0.2021
1081.0,0.1938
1082.0,0.2
1083.0,0.2014
1084.0,0.1927
1085.0,0.2029
1086.0,0.1804
1087.0,0.1894
1088.0,0.2006
1089.0,0.191
1090.0,0.1851
1091.0,0.1991
1092.0,0.1992
1093.0,0.1599
1094.0,0.1811
1095.0,0.1671
1096.0,0.1575
1097.0,0.1947
1098.0,0.1537
1099.0,0.1617
1100.0,0.1469
1101.0,0.1499
1102.0,0.1407
1103.0,0.1376
1104.0,0.138
1105.0,0.1573
1106.0,0.1061
1107.0,0.1467
1108.0,0.116
1109.0,0.1177
1110.0,0.1438
1111.0,0.08645
1112.0,0.1173
1113.0,0.06405
1114.0,0.07212
1115.0,0.05904
1116.0,0.04157
1117.0,0.01045
1118.0,0.04662
1119.0,0.0187
1120.0,0.02293
1121.0,0.03275
1122.0,0.01039
1123.0,0.02091
1124.0,0.01759
1125.0,0.02404
1126.0,0.005257
1127.0,0.02743
1128.0,0.01276
1129.0,0.0139
1130.0,0.008399
1131.0,0.06235
1132.0,0.04685
1133.0,0.02419
1134.0,0.003957
1135.0,0.001631
1136.0,0.01838
1137.0,0.05907
1138.0,0.04061
1139.0,0.07295
1140.0,0.05616
1141.0,0.03874
1142.0,0.04679
1143.0,0.07188
1144.0,0.01977
1145.0,0.02333
1146.0,0.0251
1147.0,0.005795
1148.0,0.06154
1149.0,0.0457
1150.0,0.02232
1151.0,0.04029
1152.0,0.05371
1153.0,0.05567
1154.0,0.02281
1155.0,0.07592
1156.0,0.0658
1157.0,0.07896
1158.0,0.07792
1159.0,0.08684
1160.0,0.07181
1161.0,0.0956
1162.0,0.09535
1163.0,0.1419
1164.0,0.117
1165.0,0.1057
1166.0,0.1088
1167.0,0.1208
1168.0,0.121
1169.0,0.1252
1170.0,0.1401
1171.0,0.1365
1172.0,0.1416
1173.0,0.1399
1174.0,0.09074
1175.0,0.139
1176.0,0.1583
1177.0,0.1482
1178.0,0.1043
1179.0,0.1597
1180.0,0.1366
1181.0,0.1412
1182.0,0.0896
1183.0,0.1403
1184.0,0.1288
1185.0,0.1218
1186.0,0.1526
1187.0,0.1427
1188.0,0.08973
1189.0,0.1326
1190.0,0.1497
1191.0,0.1369
1192.0,0.1523
1193.0,0.1442
1194.0,0.1498
1195.0,0.1381
1196.0,0.131
1197.0,0.1513
1198.0,0.1367
1199.0,0.1091
1200.0,0.1422
1201.0,0.1345
1202.0,0.1359
1203.0,0.1335
1204.0,0.1137
1205.0,0.1411
1206.0,0.1595
1207.0,0.1345
1208.0,0.1346
1209.0,0.1378
1210.0,0.1452
1211.0,0.1357
1212.0,0.1301
1213.0,0.1523
1214.0,0.1348
1215.0,0.1317
1216.0,0.1522
1217.0,0.1468
1218.0,0.1508
1219.0,0.1481
1220.0,0.1511
1221.0,0.1535
1222.0,0.1489
1223.0,0.1469
1224.0,0.1445
1225.0,0.1523
1226.0,0.1544
1227.0,0.1386
1228.0,0.156
1229.0,0.1544
1230.0,0.1511
1231.0,0.1578
1232.0,0.1568
1233.0,0.1481
1234.0,0.1584
1235.0,0.1569
1236.0,0.1585
1237.0,0.1549
1238.0,0.1579
1239.0,0.1559
1240.0,0.1566
1241.0,0.1551
1242.0,0.1555
1243.0,0.1543
1244.0,0.1551
1245.0,0.1559
1246.0,0.155
1247.0,0.1542
1248.0,0.1537
1249.0,0.1545
1250.0,0.1533
1251.0,0.1509
1252.0,0.1515
1253.0,0.1491
1254.0,0.1467
1255.0,0.1511
1256.0,0.1446
1257.0,0.1434
1258.0,0.1478
1259.0,0.1391
1260.0,0.1403
1261.0,0.1283
1262.0,0.1223
1263.0,0.1224
1264.0,0.1082
1265.0,0.1217
1266.0,0.1143
1267.0,0.1182
1268.0,0.109
1269.0,0.05023
1270.0,0.117
1271.0,0.1283
1272.0,0.1292
1273.0,0.1274
1274.0,0.1284
1275.0,0.131
1276.0,0.1331
1277.0,0.1351
1278.0,0.1393
1279.0,0.1379
1280.0,0.1363
1281.0,0.1308
1282.0,0.1273
1283.0,0.1369
1284.0,0.1399
1285.0,0.1411
1286.0,0.1437
1287.0,0.1401
1288.0,0.1405
1289.0,0.1335
1290.0,0.1394
1291.0,0.1418
1292.0,0.1286
1293.0,0.138
1294.0,0.1368
1295.0,0.1346
1296.0,0.1257
1297.0,0.1168
1298.0,0.1302
1299.0,0.1386
1300.0,0.11
1301.0,0.1147
1302.0,0.1299
1303.0,0.1093
1304.0,0.08664
1305.0,0.1269
1306.0,0.1262
1307.0,0.09096
1308.0,0.1106
1309.0,0.1242
1310.0,0.08866
1311.0,0.1045
1312.0,0.1007
1313.0,0.09725
1314.0,0.08469
1315.0,0.08211
1316.0,0.1016
1317.0,0.09532
1318.0,0.1064
1319.0,0.07536
1320.0,0.07458
1321.0,0.08962
1322.0,0.08905
1323.0,0.06077
1324.0,0.07422
1325.0,0.09934
1326.0,0.08134
1327.0,0.07647
1328.0,0.06377
1329.0,0.04256
1330.0,0.05819
1331.0,0.02951
1332.0,0.03211
1333.0,0.04575
1334.0,0.0424
1335.0,0.06006
1336.0,0.04423
1337.0,0.03816
1338.0,0.04095
1339.0,0.04155
1340.0,0.04209
1341.0,0.03713
1342.0,0.0395
1343.0,0.02056
1344.0,0.01291
1345.0,0.01826
1346.0,0.006098
1347.0,0.005719
1348.0,0.0001619
1349.0,0.0007088
1350.0,0.0008455
1351.0,9.54e-05
1352.0,9.622e-06
1353.0,2.468e-07
1354.0,1.472e-06
1355.0,2.833e-09
1356.0,1.184e-07
1357.0,1.792e-07
1358.0,3.491e-09
1359.0,2.496e-10
1360.0,1.219e-09
1361.0,8.434e-13
1362.0,2.268e-15
1363.0,1.285e-09
1364.0,5.572e-10
1365.0,7.86e-16
1366.0,6.243e-09
1367.0,3.144e-09
1368.0,6.062e-18
1369.0,2.058e-10
1370.0,8.759e-11
1371.0,4.587e-12
1372.0,1.766e-09
1373.0,6.214e-08
1374.0,4.917e-07
1375.0,7.597e-07
1376.0,1.377e-06
1377.0,5.669e-07
1378.0,6.125e-06
1379.0,2.454e-07
1380.0,2.242e-07
1381.0,4.839e-09
1382.0,1.429e-09
1383.0,1.872e-11
1384.0,2.083e-10
1385.0,2.108e-09
1386.0,1.046e-09
1387.0,3.129e-07
1388.0,8.378e-09
1389.0,2.208e-06
1390.0,1.754e-06
1391.0,1.126e-06
1392.0,7.075e-08
1393.0,4.957e-07
1394.0,9.059e-08
1395.0,4.828e-10
1396.0,1.12e-12
1397.0,1.575e-07
1398.0,6.119e-06
1399.0,4.113e-06
1400.0,4.659e-13
1401.0,2.022e-12
1402.0,3.355e-05
1403.0,3.345e-05
1404.0,9.046e-06
1405.0,1.759e-10
1406.0,1.604e-05
1407.0,2.335e-06
1408.0,1.422e-05
1409.0,2.757e-06
1410.0,3.728e-06
1411.0,3.094e-05
1412.0,5.511e-05
1413.0,0.001102
1414.0,3.225e-06
1415.0,1.23e-06
1416.0,0.003134
1417.0,0.0006195
1418.0,0.0005641
1419.0,7.937e-05
1420.0,0.0003395
1421.0,0.0004314
1422.0,0.004101
1423.0,0.0007312
1424.0,0.001521
1425.0,0.001942
1426.0,0.002794
1427.0,0.006311
1428.0,0.0001378
1429.0,0.003979
