interpolation:linear
wavelength,value
280.0,6.868999999999999e-22
280.5,2.2280000000000002e-20
281.0,1.189e-19
281.5,5.113e-19
282.0,8.542e-19
282.5,2.113e-18
283.0,6.653e-18
283.5,1.081e-17
284.0,1.757e-16
284.5,5.096e-16
285.0,9.318e-16
285.5,4.553e-15
286.0,1.825e-14
286.5,8.132e-14
287.0,2.318e-13
287.5,8.863e-13
288.0,2.863e-12
288.5,8.808e-12
289.0,2.369e-11
289.5,7.2e-11
290.0,2.005e-10
290.5,4.095e-10
291.0,8.803e-10
291.5,2.529e-09
292.0,5.857e-09
292.5,8.183e-09
293.0,1.746e-08
293.5,4.222e-08
294.0,6.577e-08
294.5,8.717e-08
295.0,1.471e-07
295.5,2.917e-07
296.0,5.502e-07
296.5,7.894e-07
297.0,1.094e-06
297.5,3.065e-06
298.0,5.047e-06
298.5,5.278e-06
299.0,1.214e-05
299.5,2.197e-05
300.0,2.553e-05
300.5,3.934e-05
301.0,7.971e-05
301.5,0.0001431
302.0,0.0001312
302.5,0.0002645
303.0,0.0004967
303.5,0.000646
304.0,0.0006235
304.5,0.0009982
305.0,0.001671
305.5,0.002038
306.0,0.002021
306.5,0.002621
307.0,0.004255
307.5,0.00617
308.0,0.00661
308.5,0.008151
309.0,0.008283
309.5,0.01002
310.0,0.01033
310.5,0.01695
311.0,0.02172
311.5,0.02116
312.0,0.02214
312.5,0.02775
313.0,0.03057
313.5,0.02927
314.0,0.03792
314.5,0.03523
315.0,0.04668
315.5,0.0382
316.0,0.03464
316.5,0.05137
317.0,0.06376
317.5,0.06577
318.0,0.05245
318.5,0.0679
319.0,0.08229
319.5,0.06488
320.0,0.07802
320.5,0.1019
321.0,0.0942
321.5,0.09068
322.0,0.09285
322.5,0.08097
323.0,0.0828
323.5,0.1042
324.0,0.1221
324.5,0.1227
325.0,0.1047
325.5,0.1376
326.0,0.1691
326.5,0.1717
327.0,0.1703
327.5,0.1636
328.0,0.1431
328.5,0.1537
329.0,0.1873
329.5,0.2137
330.0,0.2148
330.5,0.1697
331.0,0.1722
331.5,0.1768
332.0,0.1938
332.5,0.193
333.0,0.1918
333.5,0.1718
334.0,0.1758
334.5,0.2053
335.0,0.1943
335.5,0.2273
336.0,0.1573
336.5,0.1835
337.0,0.1499
337.5,0.1862
338.0,0.1836
338.5,0.2124
339.0,0.2104
339.5,0.2024
340.0,0.2376
340.5,0.2145
341.0,0.2094
341.5,0.1926
342.0,0.2303
342.5,0.2156
343.0,0.2371
343.5,0.2232
344.0,0.1649
344.5,0.1667
345.0,0.2209
345.5,0.2258
346.0,0.1921
346.5,0.2177
347.0,0.2337
347.5,0.189
348.0,0.2157
348.5,0.2158
349.0,0.2003
349.5,0.1985
350.0,0.2456
350.5,0.2592
351.0,0.2316
351.5,0.225
352.0,0.2419
352.5,0.1889
353.0,0.2382
353.5,0.2549
354.0,0.2647
354.5,0.2686
355.0,0.2678
355.5,0.2421
356.0,0.2535
356.5,0.2165
357.0,0.1789
357.5,0.2191
358.0,0.1738
358.5,0.1485
359.0,0.2078
359.5,0.2649
360.0,0.2809
360.5,0.2246
361.0,0.2049
361.5,0.2362
362.0,0.2045
362.5,0.2832
363.0,0.2546
363.5,0.2347
364.0,0.2872
364.5,0.2456
365.0,0.2503
365.5,0.3143
366.0,0.3332
366.5,0.3133
367.0,0.3053
367.5,0.317
368.0,0.2775
368.5,0.2802
369.0,0.3028
369.5,0.3229
370.0,0.3444
370.5,0.2675
371.0,0.286
371.5,0.358
372.0,0.2377
372.5,0.2852
373.0,0.2903
373.5,0.189
374.0,0.2747
374.5,0.2277
375.0,0.2214
375.5,0.3307
376.0,0.2743
376.5,0.2843
377.0,0.3012
377.5,0.3526
378.0,0.3824
378.5,0.3615
379.0,0.2985
379.5,0.2727
380.0,0.2836
380.5,0.3438
381.0,0.3447
381.5,0.2735
382.0,0.2431
382.5,0.2074
383.0,0.1921
383.5,0.1852
384.0,0.2044
384.5,0.3008
385.0,0.2984
385.5,0.2781
386.0,0.2383
386.5,0.3133
387.0,0.2604
387.5,0.2926
388.0,0.2703
388.5,0.2674
389.0,0.2888
389.5,0.3499
390.0,0.3514
390.5,0.3235
391.0,0.3811
391.5,0.3888
392.0,0.3277
392.5,0.2935
393.0,0.1634
393.5,0.1189
394.0,0.242
394.5,0.3079
395.0,0.3758
395.5,0.3819
396.0,0.3313
396.5,0.1938
397.0,0.1455
397.5,0.2961
398.0,0.4147
398.5,0.4289
399.0,0.4648
399.5,0.4635
400.0,0.4814
401.0,0.4867
402.0,0.5141
403.0,0.4889
404.0,0.4818
405.0,0.4821
406.0,0.4748
407.0,0.4677
408.0,0.4861
409.0,0.5207
410.0,0.4555
411.0,0.4938
412.0,0.531
413.0,0.5181
414.0,0.525
415.0,0.5269
416.0,0.5367
417.0,0.5238
418.0,0.5145
419.0,0.5217
420.0,0.5197
421.0,0.5442
422.0,0.5176
423.0,0.5059
424.0,0.5354
425.0,0.5348
426.0,0.5216
427.0,0.5122
428.0,0.4992
429.0,0.4734
430.0,0.4146
431.0,0.411
432.0,0.5312
433.0,0.5345
434.0,0.4965
435.0,0.5187
436.0,0.585
437.0,0.5778
438.0,0.5265
439.0,0.5443
440.0,0.562
441.0,0.5829
442.0,0.6254
443.0,0.6091
444.0,0.6228
445.0,0.6094
446.0,0.5823
447.0,0.6302
448.0,0.6398
449.0,0.6431
450.0,0.6616
451.0,0.6864
452.0,0.6617
453.0,0.6227
454.0,0.6506
455.0,0.6547
456.0,0.6706
457.0,0.6819
458.0,0.6584
459.0,0.6552
460.0,0.6569
461.0,0.6723
462.0,0.6779
463.0,0.6733
464.0,0.6629
465.0,0.6552
466.0,0.6621
467.0,0.6499
468.0,0.6576
469.0,0.6612
470.0,0.64
471.0,0.6394
472.0,0.6738
473.0,0.6651
474.0,0.6657
475.0,0.6709
476.0,0.6503
477.0,0.6517
478.0,0.67
479.0,0.6664
480.0,0.668
481.0,0.6811
482.0,0.6852
483.0,0.6777
484.0,0.6642
485.0,0.6332
486.0,0.554
487.0,0.581
488.0,0.6374
489.0,0.6392
490.0,0.6728
491.0,0.6615
492.0,0.6248
493.0,0.6453
494.0,0.6519
495.0,0.6576
496.0,0.6616
497.0,0.6719
498.0,0.6404
499.0,0.6484
500.0,0.6292
501.0,0.6173
502.0,0.6079
503.0,0.6318
504.0,0.6135
505.0,0.6373
506.0,0.6579
507.0,0.6262
508.0,0.6074
509.0,0.625
510.0,0.6221
511.0,0.6393
512.0,0.6465
513.0,0.612
514.0,0.608
515.0,0.602
516.0,0.6004
517.0,0.5337
518.0,0.561
519.0,0.5884
520.0,0.6097
521.0,0.6155
522.0,0.6158
523.0,0.6046
524.0,0.6258
525.0,0.6326
526.0,0.6041
527.0,0.5688
528.0,0.6012
529.0,0.6334
530.0,0.6241
531.0,0.6331
532.0,0.6113
533.0,0.5934
534.0,0.6111
535.0,0.6248
536.0,0.6307
537.0,0.6061
538.0,0.617
539.0,0.6118
540.0,0.5864
541.0,0.5896
542.0,0.6077
543.0,0.6019
544.0,0.6117
545.0,0.61
546.0,0.6121
547.0,0.6123
548.0,0.6052
549.0,0.6073
550.0,0.6145
551.0,0.6072
552.0,0.6114
553.0,0.6004
554.0,0.6147
555.0,0.6157
556.0,0.6076
557.0,0.5885
558.0,0.5837
559.0,0.5725
560.0,0.5794
561.0,0.5865
562.0,0.5819
563.0,0.5973
564.0,0.5806
565.0,0.5752
566.0,0.5665
567.0,0.5767
568.0,0.5704
569.0,0.5545
570.0,0.5547
571.0,0.5519
572.0,0.5636
573.0,0.5694
574.0,0.5672
575.0,0.5561
576.0,0.5511
577.0,0.5573
578.0,0.5496
579.0,0.5528
580.0,0.5651
581.0,0.5692
582.0,0.5812
583.0,0.5835
584.0,0.5892
585.0,0.5752
586.0,0.5634
587.0,0.575
588.0,0.5581
589.0,0.4889
590.0,0.5117
591.0,0.5449
592.0,0.536
593.0,0.5465
594.0,0.5416
595.0,0.5262
596.0,0.5516
597.0,0.5444
598.0,0.5444
599.0,0.5455
600.0,0.5475
601.0,0.5439
602.0,0.5404
603.0,0.5497
604.0,0.5591
605.0,0.5565
606.0,0.5547
607.0,0.5607
608.0,0.555
609.0,0.5564
610.0,0.553
611.0,0.5561
612.0,0.5548
613.0,0.5481
614.0,0.541
615.0,0.5532
616.0,0.5354
617.0,0.5345
618.0,0.5554
619.0,0.5499
620.0,0.5534
621.0,0.5535
622.0,0.5467
623.0,0.538
624.0,0.5291
625.0,0.528
626.0,0.5357
627.0,0.5406
628.0,0.492
629.0,0.5233
630.0,0.5108
631.0,0.5267
632.0,0.5212
633.0,0.5389
634.0,0.5351
635.0,0.5442
636.0,0.5378
637.0,0.5472
638.0,0.5535
639.0,0.5478
640.0,0.5431
641.0,0.5432
642.0,0.5413
643.0,0.5487
644.0,0.5474
645.0,0.548
646.0,0.5337
647.0,0.5238
648.0,0.5242
649.0,0.5137
650.0,0.5208
651.0,0.5442
652.0,0.5168
653.0,0.5372
654.0,0.5316
655.0,0.5094
656.0,0.4532
657.0,0.4656
658.0,0.5233
659.0,0.5276
660.0,0.5301
661.0,0.534
662.0,0.5342
663.0,0.524
664.0,0.5315
665.0,0.5329
666.0,0.5338
667.0,0.5338
668.0,0.5346
669.0,0.5431
670.0,0.541
671.0,0.5412
672.0,0.5367
673.0,0.545
674.0,0.5432
675.0,0.5385
676.0,0.5423
677.0,0.5371
678.0,0.5388
679.0,0.5303
680.0,0.5347
681.0,0.5312
682.0,0.5306
683.0,0.5296
684.0,0.5269
685.0,0.5317
686.0,0.5283
687.0,0.2966
688.0,0.3719
689.0,0.3741
690.0,0.401
691.0,0.4321
692.0,0.456
693.0,0.4517
694.0,0.4486
695.0,0.474
696.0,0.475
697.0,0.5121
698.0,0.504
699.0,0.4865
700.0,0.4804
701.0,0.4735
702.0,0.4789
703.0,0.4802
704.0,0.4988
705.0,0.4995
706.0,0.5004
707.0,0.5013
708.0,0.5022
709.0,0.5051
710.0,0.5039
711.0,0.504
712.0,0.5035
713.0,0.4975
714.0,0.4996
715.0,0.4817
716.0,0.4814
717.0,0.3977
718.0,0.3631
719.0,0.331
720.0,0.3448
721.0,0.3922
722.0,0.4612
723.0,0.4231
724.0,0.3736
725.0,0.3651
726.0,0.383
727.0,0.3934
728.0,0.3632
729.0,0.3838
730.0,0.4051
731.0,0.386
732.0,0.4202
733.0,0.4517
734.0,0.4645
735.0,0.4538
736.0,0.453
737.0,0.4548
738.0,0.467
739.0,0.4578
740.0,0.4713
741.0,0.4675
742.0,0.4689
743.0,0.4811
744.0,0.4804
745.0,0.481
746.0,0.4831
747.0,0.4843
748.0,0.4834
749.0,0.4779
750.0,0.4777
751.0,0.4729
752.0,0.475
753.0,0.4774
754.0,0.4785
755.0,0.4758
756.0,0.4756
757.0,0.4763
758.0,0.4703
759.0,0.4575
760.0,0.03675
761.0,0.01496
762.0,0.179
763.0,0.06669
764.0,0.1188
765.0,0.1788
766.0,0.2432
767.0,0.3334
768.0,0.4078
769.0,0.4218
770.0,0.4423
771.0,0.4486
772.0,0.4504
773.0,0.4538
774.0,0.4518
775.0,0.4485
776.0,0.454
777.0,0.4481
778.0,0.4453
779.0,0.4457
780.0,0.4433
781.0,0.4438
782.0,0.4466
783.0,0.4389
784.0,0.4411
785.0,0.4376
786.0,0.4422
787.0,0.432
788.0,0.4255
789.0,0.4252
790.0,0.4104
791.0,0.4174
792.0,0.4148
793.0,0.4077
794.0,0.4182
795.0,0.4243
796.0,0.4065
797.0,0.4067
798.0,0.4233
799.0,0.4197
800.0,0.4113
801.0,0.4089
802.0,0.4077
803.0,0.404
804.0,0.4051
805.0,0.4052
806.0,0.419
807.0,0.4134
808.0,0.414
809.0,0.4044
810.0,0.3999
811.0,0.3978
812.0,0.3833
813.0,0.3737
814.0,0.3192
815.0,0.3178
816.0,0.2947
817.0,0.3009
818.0,0.2874
819.0,0.3295
820.0,0.3073
821.0,0.3711
822.0,0.3586
823.0,0.2258
824.0,0.3437
825.0,0.3646
826.0,0.3469
827.0,0.37
828.0,0.3025
829.0,0.3456
830.0,0.3401
831.0,0.3414
832.0,0.3289
833.0,0.3553
834.0,0.3391
835.0,0.3807
836.0,0.359
837.0,0.382
838.0,0.3674
839.0,0.3768
840.0,0.3857
841.0,0.3791
842.0,0.3817
843.0,0.3834
844.0,0.3771
845.0,0.3912
846.0,0.3898
847.0,0.3831
848.0,0.3799
849.0,0.3691
850.0,0.3537
851.0,0.3736
852.0,0.3714
853.0,0.3582
854.0,0.3086
855.0,0.34
856.0,0.3711
857.0,0.38
858.0,0.3769
859.0,0.3777
860.0,0.3786
861.0,0.3764
862.0,0.3825
863.0,0.3915
864.0,0.372
865.0,0.3688
866.0,0.3316
867.0,0.3461
868.0,0.3767
869.0,0.3689
870.0,0.3794
871.0,0.3742
872.0,0.373
873.0,0.3722
874.0,0.3678
875.0,0.3603
876.0,0.364
877.0,0.3678
878.0,0.3716
879.0,0.3659
880.0,0.3581
881.0,0.3523
882.0,0.3598
883.0,0.3613
884.0,0.3595
885.0,0.3622
886.0,0.3436
887.0,0.3485
888.0,0.353
889.0,0.3583
890.0,0.3537
891.0,0.3539
892.0,0.3415
893.0,0.3287
894.0,0.3125
895.0,0.2895
896.0,0.2711
897.0,0.226
898.0,0.2501
899.0,0.1825
900.0,0.2605
901.0,0.1913
902.0,0.235
903.0,0.2336
904.0,0.3101
905.0,0.2973
906.0,0.2764
907.0,0.2137
908.0,0.2199
909.0,0.2427
910.0,0.2061
911.0,0.2257
912.0,0.2369
913.0,0.2087
914.0,0.2087
915.0,0.2258
916.0,0.1897
917.0,0.2492
918.0,0.1939
919.0,0.2566
920.0,0.265
921.0,0.2756
922.0,0.2401
923.0,0.2668
924.0,0.2447
925.0,0.2397
926.0,0.2415
927.0,0.2766
928.0,0.1852
929.0,0.1643
930.0,0.1219
931.0,0.116
932.0,0.07614
933.0,0.05858
934.0,0.0255
935.0,0.06259
936.0,0.03469
937.0,0.03488
938.0,0.04448
939.0,0.1122
940.0,0.1404
941.0,0.09897
942.0,0.1184
943.0,0.07256
944.0,0.0817
945.0,0.1035
946.0,0.04565
947.0,0.1021
948.0,0.07424
949.0,0.1436
950.0,0.03015
951.0,0.1426
952.0,0.06765
953.0,0.09329
954.0,0.1211
955.0,0.09507
956.0,0.09814
957.0,0.06714
958.0,0.1472
959.0,0.1088
960.0,0.1219
961.0,0.1433
962.0,0.1351
963.0,0.1615
964.0,0.1462
965.0,0.161
966.0,0.16
967.0,0.1586
968.0,0.2345
969.0,0.242
970.0,0.22
971.0,0.2615
972.0,0.2481
973.0,0.2063
974.0,0.1948
975.0,0.2057
976.0,0.1898
977.0,0.2271
978.0,0.2111
979.0,0.224
980.0,0.209
981.0,0.2603
982.0,0.2453
983.0,0.2335
984.0,0.2726
985.0,0.2442
986.0,0.2801
987.0,0.2714
988.0,0.2711
989.0,0.281
990.0,0.2693
991.0,0.2815
992.0,0.2834
993.0,0.274
994.0,0.2836
995.0,0.2837
996.0,0.282
997.0,0.2827
998.0,0.2811
999.0,0.2802
1000.0,0.2775
1001.0,0.2818
1002.0,0.271
1003.0,0.2767
1004.0,0.2691
1005.0,0.2603
1006.0,0.27
1007.0,0.276
1008.0,0.2739
1009.0,0.2719
1010.0,0.2704
1011.0,0.2746
1012.0,0.2717
1013.0,0.2742
1014.0,0.2722
1015.0,0.2703
1016.0,0.2691
1017.0,0.2696
1018.0,0.269
1019.0,0.2621
1020.0,0.2674
1021.0,0.2672
1022.0,0.2647
1023.0,0.2675
1024.0,0.2628
1025.0,0.2677
1026.0,0.2662
1027.0,0.2657
1028.0,0.265
1029.0,0.2618
1030.0,0.264
1031.0,0.2628
1032.0,0.2621
1033.0,0.2582
1034.0,0.2582
1035.0,0.259
1036.0,0.2602
1037.0,0.256
1038.0,0.2571
1039.0,0.2569
1040.0,0.2558
1041.0,0.2568
1042.0,0.2549
1043.0,0.2541
1044.0,0.2549
1045.0,0.2514
1046.0,0.2485
1047.0,0.2507
1048.0,0.252
1049.0,0.251
1050.0,0.2497
1051.0,0.2492
1052.0,0.2481
1053.0,0.246
1054.0,0.2464
1055.0,0.2463
1056.0,0.2453
1057.0,0.2443
1058.0,0.2382
1059.0,0.2382
1060.0,0.2378
1061.0,0.2374
1062.0,0.2384
1063.0,0.2359
1064.0,0.2388
1065.0,0.2366
1066.0,0.2323
1067.0,0.2352
1068.0,0.2297
1069.0,0.2229
1070.0,0.2302
1071.0,0.2348
1072.0,0.2313
1073.0,0.2281
1074.0,0.2352
1075.0,0.2203
1076.0,0.2348
1077.0,0.2289
1078.0,0.2238
1079.0,0.2316
1080.0,0.2254
1081.0,0.2166
1082.0,0.2227
1083.0,0.2241
1084.0,0.2155
1085.0,0.2262
1086.0,0.2022
1087.0,0.2116
1088.0,0.2234
1089.0,0.2136
1090.0,0.2073
1091.0,0.2219
1092.0,0.2219
1093.0,0.1802
1094.0,0.202
1095.0,0.1883
1096.0,0.1781
1097.0,0.2168
1098.0,0.1742
1099.0,0.1829
1100.0,0.1669
1101.0,0.17
1102.0,0.1602
1103.0,0.1571
1104.0,0.1575
1105.0,0.178
1106.0,0.1235
1107.0,0.1667
1108.0,0.1337
1109.0,0.1354
1110.0,0.1638
1111.0,0.1012
1112.0,0.1349
1113.0,0.07612
1114.0,0.08567
1115.0,0.0704
1116.0,0.05094
1117.0,0.0139
1118.0,0.05685
1119.0,0.02391
1120.0,0.02955
1121.0,0.04156
1122.0,0.01408
1123.0,0.02689
1124.0,0.02264
1125.0,0.0306
1126.0,0.007466
1127.0,0.03483
1128.0,0.01717
1129.0,0.01861
1130.0,0.01136
1131.0,0.07599
1132.0,0.05767
1133.0,0.03121
1134.0,0.005643
1135.0,0.002269
1136.0,0.02424
1137.0,0.07259
1138.0,0.05019
1139.0,0.08642
1140.0,0.06775
1141.0,0.04782
1142.0,0.05715
1143.0,0.08616
1144.0,0.02499
1145.0,0.03012
1146.0,0.03243
1147.0,0.008255
1148.0,0.07404
1149.0,0.05585
1150.0,0.02779
1151.0,0.04978
1152.0,0.06519
1153.0,0.06664
1154.0,0.02924
1155.0,0.08998
1156.0,0.07866
1157.0,0.09278
1158.0,0.09163
1159.0,0.1015
1160.0,0.08431
1161.0,0.1104
1162.0,0.1103
1163.0,0.1607
1164.0,0.1337
1165.0,0.1219
1166.0,0.1244
1167.0,0.1375
1168.0,0.1381
1169.0,0.1426
1170.0,0.1585
1171.0,0.1544
1172.0,0.1595
1173.0,0.1583
1174.0,0.1048
1175.0,0.1566
1176.0,0.1769
1177.0,0.1666
1178.0,0.1189
1179.0,0.1784
1180.0,0.1541
1181.0,0.1593
1182.0,0.103
1183.0,0.1579
1184.0,0.1456
1185.0,0.1384
1186.0,0.1712
1187.0,0.1608
1188.0,0.1036
1189.0,0.1495
1190.0,0.1677
1191.0,0.1548
1192.0,0.1705
1193.0,0.1619
1194.0,0.1679
1195.0,0.1558
1196.0,0.1483
1197.0,0.1693
1198.0,0.1533
1199.0,0.1242
1200.0,0.1597
1201.0,0.1518
1202.0,0.1527
1203.0,0.1505
1204.0,0.1288
1205.0,0.158
1206.0,0.1777
1207.0,0.1514
1208.0,0.151
1209.0,0.1545
1210.0,0.1623
1211.0,0.1523
1212.0,0.1472
1213.0,0.1703
1214.0,0.152
1215.0,0.1487
1216.0,0.17
1217.0,0.1643
1218.0,0.1685
1219.0,0.1658
1220.0,0.1688
1221.0,0.1712
1222.0,0.1662
1223.0,0.1641
1224.0,0.162
1225.0,0.1699
1226.0,0.172
1227.0,0.1554
1228.0,0.1736
1229.0,0.172
1230.0,0.1685
1231.0,0.1754
1232.0,0.1743
1233.0,0.1655
1234.0,0.1758
1235.0,0.1743
1236.0,0.1759
1237.0,0.1723
1238.0,0.1753
1239.0,0.173
1240.0,0.1738
1241.0,0.1723
1242.0,0.1726
1243.0,0.1712
1244.0,0.1722
1245.0,0.1731
1246.0,0.1721
1247.0,0.1712
1248.0,0.1707
1249.0,0.1716
1250.0,0.1703
1251.0,0.1677
1252.0,0.1683
1253.0,0.166
1254.0,0.1636
1255.0,0.1679
1256.0,0.1613
1257.0,0.1601
1258.0,0.1645
1259.0,0.1558
1260.0,0.1569
1261.0,0.1447
1262.0,0.1385
1263.0,0.1387
1264.0,0.124
1265.0,0.1379
1266.0,0.1303
1267.0,0.1342
1268.0,0.1247
1269.0,0.06193
1270.0,0.1331
1271.0,0.1446
1272.0,0.1455
1273.0,0.1435
1274.0,0.1445
1275.0,0.1473
1276.0,0.1494
1277.0,0.1512
1278.0,0.1555
1279.0,0.154
1280.0,0.1522
1281.0,0.1458
1282.0,0.1416
1283.0,0.1523
1284.0,0.1557
1285.0,0.1569
1286.0,0.1596
1287.0,0.1561
1288.0,0.1564
1289.0,0.1493
1290.0,0.1551
1291.0,0.1577
1292.0,0.1442
1293.0,0.1537
1294.0,0.1524
1295.0,0.1504
1296.0,0.1412
1297.0,0.1318
1298.0,0.1457
1299.0,0.1542
1300.0,0.1243
1301.0,0.1292
1302.0,0.1453
1303.0,0.1233
1304.0,0.09942
1305.0,0.142
1306.0,0.1414
1307.0,0.1037
1308.0,0.1245
1309.0,0.1395
1310.0,0.1013
1311.0,0.118
1312.0,0.1139
1313.0,0.1105
1314.0,0.09686
1315.0,0.09429
1316.0,0.115
1317.0,0.1082
1318.0,0.1201
1319.0,0.08699
1320.0,0.0857
1321.0,0.1022
1322.0,0.102
1323.0,0.07122
1324.0,0.08557
1325.0,0.1128
1326.0,0.09332
1327.0,0.08804
1328.0,0.07403
1329.0,0.05083
1330.0,0.06863
1331.0,0.03626
1332.0,0.03902
1333.0,0.05531
1334.0,0.05005
1335.0,0.07059
1336.0,0.05289
1337.0,0.04578
1338.0,0.04928
1339.0,0.0498
1340.0,0.04996
1341.0,0.0452
1342.0,0.0479
1343.0,0.02651
1344.0,0.01642
1345.0,0.02347
1346.0,0.00861
1347.0,0.008247
1348.0,0.0002793
1349.0,0.00118
1350.0,0.001375
1351.0,0.0001833
1352.0,2.324e-05
1353.0,6.477e-07
1354.0,3.547e-06
1355.0,7.387e-09
1356.0,3.095e-07
1357.0,4.713e-07
1358.0,9.2e-09
1359.0,4.845e-10
1360.0,2.989e-09
1361.0,1.039e-12
1362.0,2.493e-15
1363.0,2.756e-09
1364.0,1.218e-09
1365.0,8.058e-16
1366.0,1.484e-08
1367.0,8.033e-09
1368.0,6.081e-18
1369.0,4.48e-10
1370.0,1.61e-10
1371.0,7.095e-12
1372.0,4.545e-09
1373.0,1.716e-07
1374.0,1.299e-06
1375.0,2.101e-06
1376.0,3.298e-06
1377.0,1.377e-06
1378.0,1.51e-05
1379.0,5.878e-07
1380.0,5.869e-07
1381.0,1.262e-08
1382.0,3.608e-09
1383.0,4.311e-11
1384.0,4.293e-10
1385.0,5.711e-09
1386.0,2.407e-09
1387.0,8.956e-07
1388.0,2.198e-08
1389.0,5.694e-06
1390.0,4.643e-06
1391.0,2.949e-06
1392.0,1.808e-07
1393.0,1.222e-06
1394.0,2.567e-07
1395.0,1.284e-09
1396.0,1.518e-12
1397.0,4.022e-07
1398.0,1.556e-05
1399.0,1.029e-05
1400.0,5.537e-13
1401.0,2.922e-12
1402.0,6.521e-05
1403.0,6.907e-05
1404.0,1.935e-05
1405.0,4.384e-10
1406.0,3.77e-05
1407.0,4.703e-06
1408.0,3.272e-05
1409.0,7.103e-06
1410.0,8.394e-06
1411.0,6.303e-05
1412.0,0.0001052
1413.0,0.001844
1414.0,7.093e-06
1415.0,2.829e-06
1416.0,0.004574
1417.0,0.0009802
1418.0,0.0009618
1419.0,0.0001378
1420.0,0.0005803
1421.0,0.0006927
1422.0,0.006001
1423.0,0.001079
1424.0,0.002182
1425.0,0.002897
1426.0,0.003937
1427.0,0.008579
1428.0,0.0002441
1429.0,0.005622
1430.0,0.01175
1431.0,0.01346
1432.0,0.0001877
