interpolation:linear
wavelength,value
280.0,5.081e-22
280.5,1.656e-20
281.0,8.851000000000001e-20
281.5,4.744e-19
282.0,7.845e-19
282.5,1.942e-18
283.0,6.123e-18
283.5,9.953e-18
284.0,1.626e-16
284.5,4.725e-16
285.0,8.252e-16
285.5,4.072e-15
286.0,1.636e-14
286.5,7.323e-14
287.0,2.093e-13
287.5,8.03e-13
288.0,2.662e-12
288.5,8.128e-12
289.0,2.176e-11
289.5,6.591e-11
290.0,1.832e-10
290.5,3.739e-10
291.0,8.03e-10
291.5,2.306e-09
292.0,4.993e-09
292.5,6.999e-09
293.0,1.5e-08
293.5,3.644e-08
294.0,5.693e-08
294.5,7.675e-08
295.0,1.299e-07
295.5,2.351e-07
296.0,4.618e-07
296.5,6.594e-07
297.0,9.095e-07
297.5,2.526e-06
298.0,4.123e-06
298.5,4.278e-06
299.0,9.757e-06
299.5,1.737e-05
300.0,1.996e-05
300.5,3.039e-05
301.0,6.019e-05
301.5,0.0001053
302.0,9.496e-05
302.5,0.0001918
303.0,0.0003612
303.5,0.0004711
304.0,0.0004564
304.5,0.0007385
305.0,0.001256
305.5,0.001548
306.0,0.001542
306.5,0.002014
307.0,0.003322
307.5,0.004898
308.0,0.005262
308.5,0.006543
309.0,0.006698
309.5,0.008216
310.0,0.008522
310.5,0.01402
311.0,0.01807
311.5,0.01764
312.0,0.01865
312.5,0.02355
313.0,0.02604
313.5,0.02485
314.0,0.03246
314.5,0.0305
315.0,0.0405
315.5,0.03295
316.0,0.03016
316.5,0.04508
317.0,0.05594
317.5,0.05757
318.0,0.04616
318.5,0.06037
319.0,0.07354
319.5,0.05751
320.0,0.06906
320.5,0.09111
321.0,0.08506
321.5,0.08195
322.0,0.08307
322.5,0.07247
323.0,0.0746
323.5,0.09444
324.0,0.1108
324.5,0.1111
325.0,0.09449
325.5,0.1248
326.0,0.1536
326.5,0.1565
327.0,0.1551
327.5,0.1486
328.0,0.1295
328.5,0.1398
329.0,0.1711
329.5,0.1956
330.0,0.1963
330.5,0.1546
331.0,0.1567
331.5,0.1613
332.0,0.1774
332.5,0.177
333.0,0.1757
333.5,0.157
334.0,0.1606
334.5,0.1881
335.0,0.1784
335.5,0.2087
336.0,0.1445
336.5,0.1683
337.0,0.1373
337.5,0.1704
338.0,0.1685
338.5,0.1951
339.0,0.1933
339.5,0.186
340.0,0.2182
340.5,0.197
341.0,0.1925
341.5,0.177
342.0,0.2117
342.5,0.1983
343.0,0.2179
343.5,0.2052
344.0,0.1515
344.5,0.1532
345.0,0.2031
345.5,0.2077
346.0,0.1767
346.5,0.2002
347.0,0.2149
347.5,0.1738
348.0,0.1984
348.5,0.1985
349.0,0.1843
349.5,0.1826
350.0,0.226
350.5,0.2385
351.0,0.2131
351.5,0.207
352.0,0.2226
352.5,0.1739
353.0,0.2193
353.5,0.2346
354.0,0.2437
354.5,0.2473
355.0,0.2465
355.5,0.2229
356.0,0.2334
356.5,0.1993
357.0,0.1647
357.5,0.2018
358.0,0.16
358.5,0.1368
359.0,0.1914
359.5,0.2439
360.0,0.2587
360.5,0.2069
361.0,0.1888
361.5,0.2176
362.0,0.1884
362.5,0.2609
363.0,0.2346
363.5,0.2162
364.0,0.2647
364.5,0.2263
365.0,0.2306
365.5,0.2897
366.0,0.3071
366.5,0.2888
367.0,0.2814
367.5,0.2922
368.0,0.2559
368.5,0.2584
369.0,0.2792
369.5,0.2978
370.0,0.3176
370.5,0.2467
371.0,0.2638
371.5,0.3302
372.0,0.2192
372.5,0.263
373.0,0.2678
373.5,0.1743
374.0,0.2535
374.5,0.2101
375.0,0.2043
375.5,0.3052
376.0,0.2531
376.5,0.2624
377.0,0.278
377.5,0.3254
378.0,0.3529
378.5,0.3337
379.0,0.2755
379.5,0.2517
380.0,0.2618
380.5,0.3173
381.0,0.3183
381.5,0.2525
382.0,0.2244
382.5,0.1915
383.0,0.1774
383.5,0.171
384.0,0.1888
384.5,0.2778
385.0,0.2757
385.5,0.2569
386.0,0.2202
386.5,0.2894
387.0,0.2406
387.5,0.2704
388.0,0.2498
388.5,0.2471
389.0,0.2669
389.5,0.3234
390.0,0.3248
390.5,0.2991
391.0,0.3523
391.5,0.3595
392.0,0.3029
392.5,0.2714
393.0,0.1511
393.5,0.1099
394.0,0.2238
394.5,0.2847
395.0,0.3476
395.5,0.3532
396.0,0.3064
396.5,0.1793
397.0,0.1346
397.5,0.2739
398.0,0.3837
398.5,0.3968
399.0,0.4301
399.5,0.4289
400.0,0.4454
401.0,0.4501
402.0,0.4755
403.0,0.4522
404.0,0.4457
405.0,0.446
406.0,0.4394
407.0,0.4328
408.0,0.4499
409.0,0.482
410.0,0.4216
411.0,0.4572
412.0,0.4917
413.0,0.4798
414.0,0.4862
415.0,0.488
416.0,0.4972
417.0,0.4853
418.0,0.4767
419.0,0.4835
420.0,0.4817
421.0,0.5044
422.0,0.4798
423.0,0.469
424.0,0.4963
425.0,0.4959
426.0,0.4837
427.0,0.475
428.0,0.463
429.0,0.4392
430.0,0.3847
431.0,0.3813
432.0,0.4929
433.0,0.496
434.0,0.4608
435.0,0.4814
436.0,0.5431
437.0,0.5364
438.0,0.4889
439.0,0.5053
440.0,0.5219
441.0,0.5413
442.0,0.5809
443.0,0.5657
444.0,0.5785
445.0,0.5661
446.0,0.541
447.0,0.5856
448.0,0.5945
449.0,0.5977
450.0,0.6149
451.0,0.638
452.0,0.6151
453.0,0.5789
454.0,0.6049
455.0,0.6088
456.0,0.6236
457.0,0.6341
458.0,0.6122
459.0,0.6093
460.0,0.6109
461.0,0.6251
462.0,0.6305
463.0,0.6262
464.0,0.6167
465.0,0.6097
466.0,0.6161
467.0,0.6047
468.0,0.6119
469.0,0.6152
470.0,0.5956
471.0,0.5951
472.0,0.627
473.0,0.6189
474.0,0.6194
475.0,0.6242
476.0,0.6049
477.0,0.6062
478.0,0.6232
479.0,0.6199
480.0,0.6215
481.0,0.6337
482.0,0.6377
483.0,0.6308
484.0,0.6183
485.0,0.5896
486.0,0.5159
487.0,0.5411
488.0,0.5937
489.0,0.5953
490.0,0.6266
491.0,0.6162
492.0,0.582
493.0,0.6011
494.0,0.6073
495.0,0.6126
496.0,0.6164
497.0,0.6259
498.0,0.5966
499.0,0.604
500.0,0.586
501.0,0.5748
502.0,0.5659
503.0,0.5881
504.0,0.5706
505.0,0.5931
506.0,0.6122
507.0,0.5827
508.0,0.5654
509.0,0.5819
510.0,0.5793
511.0,0.5954
512.0,0.6022
513.0,0.57
514.0,0.5664
515.0,0.5608
516.0,0.5593
517.0,0.4971
518.0,0.5226
519.0,0.5481
520.0,0.5679
521.0,0.5732
522.0,0.5735
523.0,0.563
524.0,0.5828
525.0,0.589
526.0,0.5624
527.0,0.5294
528.0,0.5595
529.0,0.5894
530.0,0.5807
531.0,0.5891
532.0,0.5687
533.0,0.5521
534.0,0.5686
535.0,0.5814
536.0,0.587
537.0,0.5641
538.0,0.5742
539.0,0.5694
540.0,0.5458
541.0,0.5486
542.0,0.5654
543.0,0.5601
544.0,0.5691
545.0,0.5675
546.0,0.5694
547.0,0.5697
548.0,0.5632
549.0,0.5651
550.0,0.5718
551.0,0.565
552.0,0.5689
553.0,0.5586
554.0,0.5719
555.0,0.5729
556.0,0.5653
557.0,0.5475
558.0,0.543
559.0,0.5324
560.0,0.5388
561.0,0.5454
562.0,0.541
563.0,0.5552
564.0,0.5396
565.0,0.5346
566.0,0.5264
567.0,0.5358
568.0,0.5297
569.0,0.5146
570.0,0.5148
571.0,0.5123
572.0,0.5229
573.0,0.5282
574.0,0.5261
575.0,0.5157
576.0,0.511
577.0,0.5168
578.0,0.5098
579.0,0.5131
580.0,0.5247
581.0,0.5288
582.0,0.5401
583.0,0.5425
584.0,0.5479
585.0,0.5349
586.0,0.524
587.0,0.5346
588.0,0.5184
589.0,0.4531
590.0,0.4743
591.0,0.5057
592.0,0.4971
593.0,0.5073
594.0,0.5026
595.0,0.4878
596.0,0.5122
597.0,0.5054
598.0,0.5056
599.0,0.5068
600.0,0.5088
601.0,0.5056
602.0,0.5024
603.0,0.5112
604.0,0.5199
605.0,0.5175
606.0,0.516
607.0,0.5217
608.0,0.5165
609.0,0.5179
610.0,0.5147
611.0,0.5177
612.0,0.5166
613.0,0.5104
614.0,0.5039
615.0,0.5153
616.0,0.4987
617.0,0.498
618.0,0.5175
619.0,0.5124
620.0,0.5156
621.0,0.5157
622.0,0.5093
623.0,0.5011
624.0,0.4929
625.0,0.4918
626.0,0.499
627.0,0.5034
628.0,0.4558
629.0,0.4865
630.0,0.4748
631.0,0.4904
632.0,0.4854
633.0,0.5022
634.0,0.4989
635.0,0.5075
636.0,0.5017
637.0,0.5106
638.0,0.5167
639.0,0.5115
640.0,0.5072
641.0,0.5074
642.0,0.5057
643.0,0.5126
644.0,0.5115
645.0,0.512
646.0,0.4984
647.0,0.4885
648.0,0.4889
649.0,0.479
650.0,0.4864
651.0,0.5085
652.0,0.4821
653.0,0.502
654.0,0.4968
655.0,0.4757
656.0,0.4235
657.0,0.4352
658.0,0.4893
659.0,0.4935
660.0,0.4959
661.0,0.4995
662.0,0.4996
663.0,0.4901
664.0,0.4973
665.0,0.4988
666.0,0.4997
667.0,0.4998
668.0,0.5006
669.0,0.5087
670.0,0.5068
671.0,0.507
672.0,0.5028
673.0,0.5106
674.0,0.509
675.0,0.5046
676.0,0.5083
677.0,0.5034
678.0,0.5051
679.0,0.4971
680.0,0.5012
681.0,0.498
682.0,0.4974
683.0,0.4965
684.0,0.494
685.0,0.4984
686.0,0.4952
687.0,0.2689
688.0,0.3417
689.0,0.3438
690.0,0.3702
691.0,0.4008
692.0,0.4246
693.0,0.4204
694.0,0.4178
695.0,0.4427
696.0,0.4437
697.0,0.4798
698.0,0.4722
699.0,0.4548
700.0,0.449
701.0,0.4422
702.0,0.4477
703.0,0.4489
704.0,0.467
705.0,0.4676
706.0,0.4686
707.0,0.4695
708.0,0.4704
709.0,0.4735
710.0,0.4722
711.0,0.4724
712.0,0.4722
713.0,0.4663
714.0,0.4684
715.0,0.4512
716.0,0.4508
717.0,0.369
718.0,0.3367
719.0,0.3066
720.0,0.3191
721.0,0.3649
722.0,0.4312
723.0,0.3946
724.0,0.3472
725.0,0.3388
726.0,0.3555
727.0,0.3661
728.0,0.3369
729.0,0.3573
730.0,0.3767
731.0,0.3588
732.0,0.3919
733.0,0.4224
734.0,0.4348
735.0,0.4245
736.0,0.4238
737.0,0.4254
738.0,0.4377
739.0,0.4292
740.0,0.4421
741.0,0.4387
742.0,0.4402
743.0,0.4518
744.0,0.4511
745.0,0.4518
746.0,0.4538
747.0,0.455
748.0,0.4541
749.0,0.449
750.0,0.4488
751.0,0.4442
752.0,0.4462
753.0,0.4486
754.0,0.4496
755.0,0.447
756.0,0.4469
757.0,0.4475
758.0,0.4418
759.0,0.4292
760.0,0.02996
761.0,0.01167
762.0,0.1592
763.0,0.0561
764.0,0.1032
765.0,0.159
766.0,0.2207
767.0,0.3075
768.0,0.3805
769.0,0.3946
770.0,0.4149
771.0,0.4214
772.0,0.4232
773.0,0.4265
774.0,0.4246
775.0,0.4215
776.0,0.4267
777.0,0.4211
778.0,0.4186
779.0,0.4189
780.0,0.4166
781.0,0.4171
782.0,0.4198
783.0,0.4126
784.0,0.4147
785.0,0.4113
786.0,0.4156
787.0,0.4056
788.0,0.3992
789.0,0.3989
790.0,0.3845
791.0,0.3916
792.0,0.3893
793.0,0.3826
794.0,0.393
795.0,0.3986
796.0,0.3811
797.0,0.3811
798.0,0.3975
799.0,0.394
800.0,0.3859
801.0,0.3834
802.0,0.3823
803.0,0.3787
804.0,0.3799
805.0,0.3802
806.0,0.3936
807.0,0.3882
808.0,0.3888
809.0,0.3795
810.0,0.3751
811.0,0.3727
812.0,0.3585
813.0,0.3493
814.0,0.2968
815.0,0.2957
816.0,0.2739
817.0,0.2798
818.0,0.2669
819.0,0.3073
820.0,0.2862
821.0,0.3476
822.0,0.3356
823.0,0.2084
824.0,0.3209
825.0,0.3415
826.0,0.3243
827.0,0.3466
828.0,0.2814
829.0,0.3232
830.0,0.3179
831.0,0.3192
832.0,0.3071
833.0,0.3326
834.0,0.3169
835.0,0.3572
836.0,0.3359
837.0,0.3584
838.0,0.3442
839.0,0.3536
840.0,0.3621
841.0,0.3557
842.0,0.3585
843.0,0.3604
844.0,0.3543
845.0,0.3678
846.0,0.3665
847.0,0.3603
848.0,0.3571
849.0,0.347
850.0,0.3325
851.0,0.3511
852.0,0.3491
853.0,0.3368
854.0,0.2901
855.0,0.3197
856.0,0.349
857.0,0.3574
858.0,0.3545
859.0,0.3552
860.0,0.3561
861.0,0.3541
862.0,0.3598
863.0,0.3683
864.0,0.35
865.0,0.347
866.0,0.312
867.0,0.3256
868.0,0.3544
869.0,0.3471
870.0,0.357
871.0,0.3521
872.0,0.3509
873.0,0.3502
874.0,0.3461
875.0,0.339
876.0,0.3425
877.0,0.346
878.0,0.3496
879.0,0.3443
880.0,0.3369
881.0,0.3314
882.0,0.3384
883.0,0.3399
884.0,0.3382
885.0,0.3407
886.0,0.323
887.0,0.3278
888.0,0.3318
889.0,0.3371
890.0,0.3324
891.0,0.3328
892.0,0.3208
893.0,0.3084
894.0,0.2925
895.0,0.2701
896.0,0.2526
897.0,0.2096
898.0,0.2325
899.0,0.1685
900.0,0.2428
901.0,0.1766
902.0,0.2184
903.0,0.2166
904.0,0.2902
905.0,0.2779
906.0,0.258
907.0,0.1978
908.0,0.2039
909.0,0.2257
910.0,0.1904
911.0,0.2096
912.0,0.22
913.0,0.1928
914.0,0.193
915.0,0.2087
916.0,0.1752
917.0,0.2314
918.0,0.179
919.0,0.2387
920.0,0.2476
921.0,0.2574
922.0,0.2233
923.0,0.2493
924.0,0.2273
925.0,0.2228
926.0,0.2242
927.0,0.2577
928.0,0.17
929.0,0.1502
930.0,0.1102
931.0,0.1049
932.0,0.06774
933.0,0.05166
934.0,0.0216
935.0,0.05557
936.0,0.03019
937.0,0.03034
938.0,0.03892
939.0,0.1014
940.0,0.1278
941.0,0.08906
942.0,0.1071
943.0,0.06484
944.0,0.07388
945.0,0.09342
946.0,0.04019
947.0,0.09182
948.0,0.0667
949.0,0.1303
950.0,0.02614
951.0,0.1294
952.0,0.06023
953.0,0.08394
954.0,0.11
955.0,0.08564
956.0,0.08956
957.0,0.05972
958.0,0.1352
959.0,0.09875
960.0,0.1107
961.0,0.1311
962.0,0.1236
963.0,0.1486
964.0,0.1343
965.0,0.148
966.0,0.1471
967.0,0.1456
968.0,0.2189
969.0,0.2253
970.0,0.2046
971.0,0.2446
972.0,0.2318
973.0,0.1913
974.0,0.1806
975.0,0.1911
976.0,0.1755
977.0,0.2118
978.0,0.1962
979.0,0.2085
980.0,0.1944
981.0,0.2435
982.0,0.2289
983.0,0.2177
984.0,0.2557
985.0,0.2279
986.0,0.2631
987.0,0.2545
988.0,0.2543
989.0,0.2643
990.0,0.2526
991.0,0.2647
992.0,0.2666
993.0,0.2572
994.0,0.2669
995.0,0.267
996.0,0.2653
997.0,0.266
998.0,0.2645
999.0,0.2637
1000.0,0.261
1001.0,0.2652
1002.0,0.2546
1003.0,0.2603
1004.0,0.2531
1005.0,0.245
1006.0,0.254
1007.0,0.2597
1008.0,0.2577
1009.0,0.2556
1010.0,0.2542
1011.0,0.2584
1012.0,0.2556
1013.0,0.258
1014.0,0.2562
1015.0,0.2544
1016.0,0.2532
1017.0,0.2537
1018.0,0.2531
1019.0,0.2465
1020.0,0.2516
1021.0,0.2515
1022.0,0.2491
1023.0,0.2516
1024.0,0.2471
1025.0,0.2519
1026.0,0.2505
1027.0,0.25
1028.0,0.2493
1029.0,0.2463
1030.0,0.2484
1031.0,0.2472
1032.0,0.2467
1033.0,0.2429
1034.0,0.243
1035.0,0.2437
1036.0,0.2449
1037.0,0.2409
1038.0,0.2419
1039.0,0.2417
1040.0,0.2407
1041.0,0.2416
1042.0,0.2399
1043.0,0.239
1044.0,0.2398
1045.0,0.2365
1046.0,0.2338
1047.0,0.2358
1048.0,0.237
1049.0,0.236
1050.0,0.2348
1051.0,0.2344
1052.0,0.2333
1053.0,0.2313
1054.0,0.2316
1055.0,0.2315
1056.0,0.2305
1057.0,0.2296
1058.0,0.2238
1059.0,0.2238
1060.0,0.2234
1061.0,0.223
1062.0,0.2239
1063.0,0.2216
1064.0,0.2243
1065.0,0.2221
1066.0,0.2181
1067.0,0.2208
1068.0,0.2157
1069.0,0.2093
1070.0,0.2161
1071.0,0.2206
1072.0,0.2171
1073.0,0.2142
1074.0,0.221
1075.0,0.2066
1076.0,0.2206
1077.0,0.2148
1078.0,0.2099
1079.0,0.2177
1080.0,0.2116
1081.0,0.2031
1082.0,0.2092
1083.0,0.2106
1084.0,0.2019
1085.0,0.2123
1086.0,0.1892
1087.0,0.1984
1088.0,0.2099
1089.0,0.2002
1090.0,0.1941
1091.0,0.2083
1092.0,0.2084
1093.0,0.1681
1094.0,0.1896
1095.0,0.1757
1096.0,0.1658
1097.0,0.2037
1098.0,0.162
1099.0,0.1703
1100.0,0.1549
1101.0,0.158
1102.0,0.1486
1103.0,0.1455
1104.0,0.1459
1105.0,0.1657
1106.0,0.1131
1107.0,0.1548
1108.0,0.1231
1109.0,0.1248
1110.0,0.1519
1111.0,0.09237
1112.0,0.1244
1113.0,0.06888
1114.0,0.07755
1115.0,0.06359
1116.0,0.0453
1117.0,0.01179
1118.0,0.0507
1119.0,0.02075
1120.0,0.02554
1121.0,0.03623
1122.0,0.01182
1123.0,0.02327
1124.0,0.01957
1125.0,0.02663
1126.0,0.006103
1127.0,0.03036
1128.0,0.01447
1129.0,0.01573
1130.0,0.009545
1131.0,0.06779
1132.0,0.05115
1133.0,0.02695
1134.0,0.004601
1135.0,0.001877
1136.0,0.02067
1137.0,0.06445
1138.0,0.04442
1139.0,0.07836
1140.0,0.0608
1141.0,0.04235
1142.0,0.05092
1143.0,0.0776
1144.0,0.02183
1145.0,0.026
1146.0,0.02798
1147.0,0.006737
1148.0,0.06654
1149.0,0.04975
1150.0,0.02449
1151.0,0.04406
1152.0,0.0583
1153.0,0.06007
1154.0,0.02534
1155.0,0.08157
1156.0,0.07096
1157.0,0.08451
1158.0,0.08342
1159.0,0.09275
1160.0,0.07682
1161.0,0.1016
1162.0,0.1014
1163.0,0.1495
1164.0,0.1238
1165.0,0.1122
1166.0,0.1151
1167.0,0.1275
1168.0,0.1279
1169.0,0.1322
1170.0,0.1476
1171.0,0.1437
1172.0,0.1489
1173.0,0.1473
1174.0,0.09638
1175.0,0.1461
1176.0,0.1659
1177.0,0.1556
1178.0,0.1102
1179.0,0.1673
1180.0,0.1437
1181.0,0.1485
1182.0,0.09499
1183.0,0.1474
1184.0,0.1356
1185.0,0.1285
1186.0,0.1602
1187.0,0.1501
1188.0,0.09531
1189.0,0.1394
1190.0,0.157
1191.0,0.1442
1192.0,0.1597
1193.0,0.1514
1194.0,0.1571
1195.0,0.1452
1196.0,0.138
1197.0,0.1586
1198.0,0.1434
1199.0,0.1152
1200.0,0.1493
1201.0,0.1415
1202.0,0.1427
1203.0,0.1404
1204.0,0.1198
1205.0,0.148
1206.0,0.1669
1207.0,0.1414
1208.0,0.1412
1209.0,0.1446
1210.0,0.1522
1211.0,0.1424
1212.0,0.137
1213.0,0.1596
1214.0,0.1418
1215.0,0.1386
1216.0,0.1594
1217.0,0.1539
1218.0,0.158
1219.0,0.1553
1220.0,0.1583
1221.0,0.1607
1222.0,0.1559
1223.0,0.1539
1224.0,0.1516
1225.0,0.1594
1226.0,0.1615
1227.0,0.1454
1228.0,0.1631
1229.0,0.1615
1230.0,0.1581
1231.0,0.165
1232.0,0.1639
1233.0,0.1552
1234.0,0.1655
1235.0,0.164
1236.0,0.1655
1237.0,0.1619
1238.0,0.165
1239.0,0.1628
1240.0,0.1636
1241.0,0.1621
1242.0,0.1624
1243.0,0.1611
1244.0,0.162
1245.0,0.1629
1246.0,0.1619
1247.0,0.1611
1248.0,0.1606
1249.0,0.1615
1250.0,0.1602
1251.0,0.1577
1252.0,0.1583
1253.0,0.156
1254.0,0.1536
1255.0,0.1579
1256.0,0.1514
1257.0,0.1502
1258.0,0.1546
1259.0,0.1459
1260.0,0.147
1261.0,0.1349
1262.0,0.1289
1263.0,0.129
1264.0,0.1146
1265.0,0.1283
1266.0,0.1207
1267.0,0.1247
1268.0,0.1154
1269.0,0.05489
1270.0,0.1235
1271.0,0.1349
1272.0,0.1358
1273.0,0.1339
1274.0,0.135
1275.0,0.1376
1276.0,0.1397
1277.0,0.1416
1278.0,0.1459
1279.0,0.1444
1280.0,0.1427
1281.0,0.1369
1282.0,0.1331
1283.0,0.1431
1284.0,0.1463
1285.0,0.1475
1286.0,0.1501
1287.0,0.1466
1288.0,0.1469
1289.0,0.1399
1290.0,0.1458
1291.0,0.1483
1292.0,0.1349
1293.0,0.1443
1294.0,0.1431
1295.0,0.141
1296.0,0.132
1297.0,0.1229
1298.0,0.1365
1299.0,0.1449
1300.0,0.1158
1301.0,0.1206
1302.0,0.1361
1303.0,0.115
1304.0,0.09179
1305.0,0.133
1306.0,0.1324
1307.0,0.0961
1308.0,0.1162
1309.0,0.1304
1310.0,0.09375
1311.0,0.11
1312.0,0.1061
1313.0,0.1026
1314.0,0.08961
1315.0,0.08703
1316.0,0.107
1317.0,0.1005
1318.0,0.1119
1319.0,0.08004
1320.0,0.07907
1321.0,0.0947
1322.0,0.09427
1323.0,0.06497
1324.0,0.0788
1325.0,0.1048
1326.0,0.08617
1327.0,0.08113
1328.0,0.0679
1329.0,0.04587
1330.0,0.06238
1331.0,0.0322
1332.0,0.03487
1333.0,0.04957
1334.0,0.04547
1335.0,0.0643
1336.0,0.0477
1337.0,0.0412
1338.0,0.04428
1339.0,0.04485
1340.0,0.04524
1341.0,0.04035
1342.0,0.04285
1343.0,0.0229
1344.0,0.01429
1345.0,0.02031
1346.0,0.007062
1347.0,0.006683
1348.0,0.000204
1349.0,0.0008804
1350.0,0.001041
1351.0,0.0001259
1352.0,1.395e-05
1353.0,3.662e-07
1354.0,2.125e-06
1355.0,4.044e-09
1356.0,1.753e-07
1357.0,2.661e-07
1358.0,5.02e-09
1359.0,3.035e-10
1360.0,1.668e-09
1361.0,8.801e-13
1362.0,2.306e-15
1363.0,1.628e-09
1364.0,7.157e-10
1365.0,7.89e-16
1366.0,8.324e-09
1367.0,4.403e-09
1368.0,6.067e-18
1369.0,2.64e-10
1370.0,1.041e-10
1371.0,5.117e-12
1372.0,2.488e-09
1373.0,9.3e-08
1374.0,7.333e-07
1375.0,1.153e-06
1376.0,1.984e-06
1377.0,8.207e-07
1378.0,8.95e-06
1379.0,3.531e-07
1380.0,3.331e-07
1381.0,7.143e-09
1382.0,1.984e-09
1383.0,2.478e-11
1384.0,2.597e-10
1385.0,3.102e-09
1386.0,1.374e-09
1387.0,4.772e-07
1388.0,1.24e-08
1389.0,3.277e-06
1390.0,2.631e-06
1391.0,1.679e-06
1392.0,1.042e-07
1393.0,7.219e-07
1394.0,1.366e-07
1395.0,6.963e-10
1396.0,1.198e-12
1397.0,2.322e-07
1398.0,9.055e-06
1399.0,6.046e-06
1400.0,4.816e-13
1401.0,2.204e-12
1402.0,4.446e-05
1403.0,4.548e-05
1404.0,1.249e-05
1405.0,2.423e-10
1406.0,2.303e-05
1407.0,3.136e-06
1408.0,2.024e-05
1409.0,4.1e-06
1410.0,5.248e-06
1411.0,4.183e-05
1412.0,7.248e-05
1413.0,0.001373
1414.0,4.496e-06
1415.0,1.745e-06
1416.0,0.003681
1417.0,0.0007524
1418.0,0.0007084
1419.0,0.0001004
1420.0,0.0004267
1421.0,0.0005271
1422.0,0.004823
1423.0,0.0008627
1424.0,0.001772
1425.0,0.002302
1426.0,0.003231
1427.0,0.007192
1428.0,0.0001756
1429.0,0.00461
1430.0,0.00998
1431.0,0.0115
1432.0,0.0001347
