interpolation:linear
wavelength,value
280.0,1.276e-21
280.5,4.0890000000000004e-20
281.0,2.172e-19
281.5,5.059e-19
282.0,9.809e-19
282.5,2.454e-18
283.0,7.754e-18
283.5,1.26e-17
284.0,2.039e-16
284.5,5.892e-16
285.0,1.196e-15
285.5,5.75e-15
286.0,2.295e-14
286.5,1.014e-13
287.0,2.875e-13
287.5,1.092e-12
288.0,3.282e-12
288.5,1.035e-11
289.0,2.831e-11
289.5,8.702e-11
290.0,2.44e-10
290.5,5.008e-10
291.0,1.081e-09
291.5,3.116e-09
292.0,6.348e-09
292.5,9.232e-09
293.0,2.068e-08
293.5,5.318e-08
294.0,8.628e-08
294.5,1.131e-07
295.0,1.979e-07
295.5,4.68e-07
296.0,8.533e-07
296.5,1.237e-06
297.0,1.731e-06
297.5,4.926e-06
298.0,8.23e-06
298.5,8.709e-06
299.0,2.027e-05
299.5,3.743e-05
300.0,4.402e-05
300.5,6.873e-05
301.0,0.0001427
301.5,0.0002641
302.0,0.0002474
302.5,0.0004955
303.0,0.0009204
303.5,0.001186
304.0,0.001135
304.5,0.001774
305.0,0.002867
305.5,0.003418
306.0,0.00336
306.5,0.004293
307.0,0.006732
307.5,0.009437
308.0,0.01005
308.5,0.01219
309.0,0.01218
309.5,0.01439
310.0,0.01467
310.5,0.02393
311.0,0.0304
311.5,0.02951
312.0,0.03027
312.5,0.03746
313.0,0.041
313.5,0.0395
314.0,0.0504
314.5,0.04588
315.0,0.06059
315.5,0.05006
316.0,0.04466
316.5,0.06531
317.0,0.08108
317.5,0.08397
318.0,0.06633
318.5,0.08429
319.0,0.1012
319.5,0.08101
320.0,0.09764
320.5,0.1251
321.0,0.1137
321.5,0.1093
322.0,0.114
322.5,0.0993
323.0,0.1003
323.5,0.1249
324.0,0.1462
324.5,0.1476
325.0,0.1267
325.5,0.1649
326.0,0.2022
326.5,0.2039
327.0,0.2028
327.5,0.1953
328.0,0.1723
328.5,0.1832
329.0,0.2214
329.5,0.252
330.0,0.2538
330.5,0.2018
331.0,0.2052
331.5,0.2097
332.0,0.2283
332.5,0.2266
333.0,0.2256
333.5,0.2031
334.0,0.208
334.5,0.2415
335.0,0.2278
335.5,0.2663
336.0,0.1843
336.5,0.2155
337.0,0.1764
337.5,0.2192
338.0,0.2152
338.5,0.2487
339.0,0.2463
339.5,0.237
340.0,0.2784
340.5,0.2512
341.0,0.2451
341.5,0.2252
342.0,0.2693
342.5,0.2521
343.0,0.2772
343.5,0.2611
344.0,0.193
344.5,0.195
345.0,0.2583
345.5,0.2639
346.0,0.2244
346.5,0.2543
347.0,0.273
347.5,0.2208
348.0,0.2519
348.5,0.2519
349.0,0.2338
349.5,0.2316
350.0,0.2866
350.5,0.3025
351.0,0.2702
351.5,0.2626
352.0,0.2823
352.5,0.2204
353.0,0.2778
353.5,0.2972
354.0,0.3087
354.5,0.3131
355.0,0.3122
355.5,0.2822
356.0,0.2954
356.5,0.2523
357.0,0.2085
357.5,0.2553
358.0,0.2024
358.5,0.173
359.0,0.2421
359.5,0.3086
360.0,0.3272
360.5,0.2617
361.0,0.2387
361.5,0.275
362.0,0.238
362.5,0.3296
363.0,0.2962
363.5,0.273
364.0,0.3341
364.5,0.2857
365.0,0.2911
365.5,0.3655
366.0,0.3874
366.5,0.3642
367.0,0.3549
367.5,0.3684
368.0,0.3225
368.5,0.3256
369.0,0.3518
369.5,0.3751
370.0,0.4001
370.5,0.3107
371.0,0.3321
371.5,0.4157
372.0,0.276
372.5,0.3311
373.0,0.3369
373.5,0.2193
374.0,0.3188
374.5,0.2642
375.0,0.2569
375.5,0.3837
376.0,0.3182
376.5,0.3298
377.0,0.3494
377.5,0.4089
378.0,0.4434
378.5,0.4192
379.0,0.346
379.5,0.3161
380.0,0.3288
380.5,0.3985
381.0,0.3995
381.5,0.3169
382.0,0.2816
382.5,0.2402
383.0,0.2225
383.5,0.2144
384.0,0.2366
384.5,0.3482
385.0,0.3454
385.5,0.3219
386.0,0.2758
386.5,0.3625
387.0,0.3013
387.5,0.3385
388.0,0.3127
388.5,0.3092
389.0,0.3339
389.5,0.4046
390.0,0.4063
390.5,0.374
391.0,0.4405
391.5,0.4494
392.0,0.3787
392.5,0.3392
393.0,0.1888
393.5,0.1373
394.0,0.2795
394.5,0.3556
395.0,0.434
395.5,0.441
396.0,0.3825
396.5,0.2237
397.0,0.168
397.5,0.3417
398.0,0.4787
398.5,0.4949
399.0,0.5363
399.5,0.5347
400.0,0.5553
401.0,0.5622
402.0,0.5936
403.0,0.5644
404.0,0.5561
405.0,0.5563
406.0,0.5478
407.0,0.5394
408.0,0.5606
409.0,0.6004
410.0,0.525
411.0,0.5691
412.0,0.6118
413.0,0.5969
414.0,0.6046
415.0,0.6066
416.0,0.6178
417.0,0.6029
418.0,0.592
419.0,0.6002
420.0,0.5978
421.0,0.6258
422.0,0.5951
423.0,0.5816
424.0,0.6154
425.0,0.6147
426.0,0.5993
427.0,0.5883
428.0,0.5733
429.0,0.5435
430.0,0.4759
431.0,0.4718
432.0,0.6096
433.0,0.6133
434.0,0.5696
435.0,0.595
436.0,0.6709
437.0,0.6624
438.0,0.6035
439.0,0.624
440.0,0.6442
441.0,0.668
442.0,0.7166
443.0,0.698
444.0,0.7135
445.0,0.6982
446.0,0.6669
447.0,0.7214
448.0,0.7325
449.0,0.7361
450.0,0.757
451.0,0.7853
452.0,0.7569
453.0,0.7122
454.0,0.7439
455.0,0.7486
456.0,0.7667
457.0,0.7795
458.0,0.7528
459.0,0.7491
460.0,0.7511
461.0,0.7685
462.0,0.7749
463.0,0.7696
464.0,0.7574
465.0,0.7484
466.0,0.756
467.0,0.7421
468.0,0.7509
469.0,0.7549
470.0,0.7308
471.0,0.7301
472.0,0.7693
473.0,0.7593
474.0,0.7602
475.0,0.7664
476.0,0.743
477.0,0.7448
478.0,0.7657
479.0,0.7613
480.0,0.7631
481.0,0.7777
482.0,0.7823
483.0,0.7733
484.0,0.7578
485.0,0.7223
486.0,0.6317
487.0,0.6624
488.0,0.7267
489.0,0.7288
490.0,0.767
491.0,0.754
492.0,0.7121
493.0,0.7355
494.0,0.743
495.0,0.7494
496.0,0.754
497.0,0.7657
498.0,0.7299
499.0,0.7391
500.0,0.7173
501.0,0.7039
502.0,0.6934
503.0,0.7211
504.0,0.7011
505.0,0.7276
506.0,0.7511
507.0,0.7148
508.0,0.6931
509.0,0.7129
510.0,0.7095
511.0,0.7289
512.0,0.737
513.0,0.6976
514.0,0.693
515.0,0.6861
516.0,0.6844
517.0,0.6082
518.0,0.6394
519.0,0.6706
520.0,0.695
521.0,0.7015
522.0,0.702
523.0,0.6893
524.0,0.7137
525.0,0.7216
526.0,0.6892
527.0,0.6491
528.0,0.6863
529.0,0.7231
530.0,0.7126
531.0,0.723
532.0,0.6981
533.0,0.6777
534.0,0.6979
535.0,0.7133
536.0,0.72
537.0,0.6918
538.0,0.7041
539.0,0.6982
540.0,0.6693
541.0,0.6732
542.0,0.6941
543.0,0.6872
544.0,0.6987
545.0,0.6966
546.0,0.6993
547.0,0.6993
548.0,0.6911
549.0,0.6934
550.0,0.7016
551.0,0.6932
552.0,0.698
553.0,0.6855
554.0,0.7018
555.0,0.7031
556.0,0.6939
557.0,0.6722
558.0,0.6669
559.0,0.6541
560.0,0.6621
561.0,0.6704
562.0,0.6653
563.0,0.6831
564.0,0.6642
565.0,0.6582
566.0,0.6483
567.0,0.6602
568.0,0.6534
569.0,0.6362
570.0,0.6362
571.0,0.6329
572.0,0.6469
573.0,0.6536
574.0,0.6513
575.0,0.6387
576.0,0.6329
577.0,0.64
578.0,0.6309
579.0,0.6342
580.0,0.6475
581.0,0.6518
582.0,0.665
583.0,0.6673
584.0,0.6735
585.0,0.6574
586.0,0.6439
587.0,0.6575
588.0,0.6393
589.0,0.5622
590.0,0.5882
591.0,0.625
592.0,0.6156
593.0,0.6267
594.0,0.6215
595.0,0.6046
596.0,0.6319
597.0,0.6242
598.0,0.6237
599.0,0.6247
600.0,0.6265
601.0,0.622
602.0,0.6179
603.0,0.6285
604.0,0.639
605.0,0.6359
606.0,0.6337
607.0,0.6404
608.0,0.6337
609.0,0.6351
610.0,0.6309
611.0,0.6345
612.0,0.6328
613.0,0.625
614.0,0.6168
615.0,0.6306
616.0,0.6101
617.0,0.609
618.0,0.6326
619.0,0.6263
620.0,0.6303
621.0,0.6306
622.0,0.623
623.0,0.6132
624.0,0.603
625.0,0.6016
626.0,0.6104
627.0,0.6165
628.0,0.5661
629.0,0.5986
630.0,0.5844
631.0,0.6009
632.0,0.5943
633.0,0.6137
634.0,0.6088
635.0,0.6189
636.0,0.6113
637.0,0.6218
638.0,0.6285
639.0,0.6218
640.0,0.6162
641.0,0.6162
642.0,0.6138
643.0,0.6221
644.0,0.6205
645.0,0.6213
646.0,0.6056
647.0,0.5958
648.0,0.5962
649.0,0.5844
650.0,0.5907
651.0,0.6169
652.0,0.5877
653.0,0.6089
654.0,0.6024
655.0,0.5782
656.0,0.5137
657.0,0.5277
658.0,0.5925
659.0,0.5972
660.0,0.5999
661.0,0.6042
662.0,0.6048
663.0,0.5931
664.0,0.6011
665.0,0.6023
666.0,0.6031
667.0,0.6029
668.0,0.6036
669.0,0.6131
670.0,0.6106
671.0,0.6107
672.0,0.6056
673.0,0.6149
674.0,0.6127
675.0,0.6073
676.0,0.6116
677.0,0.6057
678.0,0.6075
679.0,0.5979
680.0,0.6027
681.0,0.5988
682.0,0.598
683.0,0.5969
684.0,0.5939
685.0,0.5992
686.0,0.5955
687.0,0.3544
688.0,0.4341
689.0,0.4363
690.0,0.4641
691.0,0.4961
692.0,0.5202
693.0,0.5155
694.0,0.5116
695.0,0.5379
696.0,0.5388
697.0,0.5779
698.0,0.5688
699.0,0.5511
700.0,0.5443
701.0,0.5373
702.0,0.5426
703.0,0.5438
704.0,0.5637
705.0,0.5645
706.0,0.565
707.0,0.5658
708.0,0.5669
709.0,0.5693
710.0,0.5685
711.0,0.5683
712.0,0.5673
713.0,0.5609
714.0,0.5632
715.0,0.5438
716.0,0.5437
717.0,0.4566
718.0,0.4176
719.0,0.3812
720.0,0.3979
721.0,0.4481
722.0,0.5222
723.0,0.4813
724.0,0.4279
725.0,0.4191
726.0,0.4394
727.0,0.4494
728.0,0.4173
729.0,0.4382
730.0,0.4631
731.0,0.4418
732.0,0.4781
733.0,0.5114
734.0,0.5251
735.0,0.5134
736.0,0.5126
737.0,0.5146
738.0,0.5264
739.0,0.516
740.0,0.5306
741.0,0.526
742.0,0.5272
743.0,0.5409
744.0,0.5398
745.0,0.5402
746.0,0.5427
747.0,0.544
748.0,0.5429
749.0,0.5367
750.0,0.5364
751.0,0.531
752.0,0.5334
753.0,0.5361
754.0,0.5373
755.0,0.5342
756.0,0.5341
757.0,0.5348
758.0,0.5281
759.0,0.515
760.0,0.05301
761.0,0.02343
762.0,0.2209
763.0,0.09087
764.0,0.1529
765.0,0.2208
766.0,0.29
767.0,0.3864
768.0,0.4634
769.0,0.4771
770.0,0.4979
771.0,0.504
772.0,0.5057
773.0,0.5094
774.0,0.5071
775.0,0.5033
776.0,0.5095
777.0,0.5028
778.0,0.4997
779.0,0.5002
780.0,0.4974
781.0,0.4979
782.0,0.5011
783.0,0.4924
784.0,0.4949
785.0,0.491
786.0,0.4963
787.0,0.4858
788.0,0.4789
789.0,0.4786
790.0,0.4632
791.0,0.4698
792.0,0.4667
793.0,0.4589
794.0,0.4694
795.0,0.4766
796.0,0.4584
797.0,0.4587
798.0,0.4756
799.0,0.4719
800.0,0.4629
801.0,0.4606
802.0,0.4593
803.0,0.4553
804.0,0.4564
805.0,0.456
806.0,0.4705
807.0,0.4645
808.0,0.465
809.0,0.455
810.0,0.4504
811.0,0.449
812.0,0.4338
813.0,0.4235
814.0,0.3652
815.0,0.3633
816.0,0.3373
817.0,0.3441
818.0,0.3296
819.0,0.3748
820.0,0.3506
821.0,0.419
822.0,0.4055
823.0,0.2617
824.0,0.3904
825.0,0.4115
826.0,0.3931
827.0,0.4178
828.0,0.3456
829.0,0.3913
830.0,0.3853
831.0,0.3868
832.0,0.3734
833.0,0.4015
834.0,0.3844
835.0,0.4286
836.0,0.4061
837.0,0.43
838.0,0.4146
839.0,0.4239
840.0,0.4337
841.0,0.4267
842.0,0.429
843.0,0.4302
844.0,0.4234
845.0,0.4387
846.0,0.4371
847.0,0.4293
848.0,0.4261
849.0,0.4139
850.0,0.3967
851.0,0.4193
852.0,0.4167
853.0,0.4016
854.0,0.3463
855.0,0.3811
856.0,0.4162
857.0,0.4259
858.0,0.4226
859.0,0.4232
860.0,0.4242
861.0,0.4218
862.0,0.4285
863.0,0.4387
864.0,0.4168
865.0,0.4132
866.0,0.3715
867.0,0.3877
868.0,0.4219
869.0,0.4132
870.0,0.425
871.0,0.4192
872.0,0.4178
873.0,0.4169
874.0,0.412
875.0,0.4036
876.0,0.4078
877.0,0.4119
878.0,0.4163
879.0,0.4099
880.0,0.4012
881.0,0.3948
882.0,0.4032
883.0,0.4048
884.0,0.4028
885.0,0.4059
886.0,0.3856
887.0,0.3907
888.0,0.3959
889.0,0.4014
890.0,0.3968
891.0,0.3967
892.0,0.3837
893.0,0.3699
894.0,0.3533
895.0,0.3294
896.0,0.3089
897.0,0.2599
898.0,0.2864
899.0,0.2116
900.0,0.2968
901.0,0.2218
902.0,0.2688
903.0,0.2685
904.0,0.3507
905.0,0.3369
906.0,0.3138
907.0,0.2463
908.0,0.2527
909.0,0.2774
910.0,0.2384
911.0,0.2588
912.0,0.2716
913.0,0.2416
914.0,0.2409
915.0,0.261
916.0,0.2196
917.0,0.2857
918.0,0.2247
919.0,0.2931
920.0,0.3006
921.0,0.3128
922.0,0.2746
923.0,0.3026
924.0,0.2804
925.0,0.2745
926.0,0.277
927.0,0.3151
928.0,0.2167
929.0,0.194
930.0,0.1464
931.0,0.1393
932.0,0.09406
933.0,0.07353
934.0,0.03435
935.0,0.07762
936.0,0.04456
937.0,0.04486
938.0,0.05662
939.0,0.1348
940.0,0.1667
941.0,0.1199
942.0,0.1422
943.0,0.08896
944.0,0.09813
945.0,0.1249
946.0,0.05747
947.0,0.1238
948.0,0.09023
949.0,0.1717
950.0,0.03906
951.0,0.1701
952.0,0.08358
953.0,0.1131
954.0,0.1445
955.0,0.115
956.0,0.1162
957.0,0.08312
958.0,0.172
959.0,0.1297
960.0,0.1454
961.0,0.1687
962.0,0.1591
963.0,0.1882
964.0,0.171
965.0,0.1877
966.0,0.1868
967.0,0.1854
968.0,0.2665
969.0,0.2762
970.0,0.2517
971.0,0.2959
972.0,0.2815
973.0,0.2371
974.0,0.2242
975.0,0.2356
976.0,0.2193
977.0,0.2584
978.0,0.2418
979.0,0.2556
980.0,0.239
981.0,0.2945
982.0,0.2786
983.0,0.2659
984.0,0.3069
985.0,0.2775
986.0,0.3144
987.0,0.3057
988.0,0.3054
989.0,0.3148
990.0,0.3034
991.0,0.3155
992.0,0.3176
993.0,0.3081
994.0,0.3177
995.0,0.3177
996.0,0.3159
997.0,0.3166
998.0,0.3149
999.0,0.3139
1000.0,0.3111
1001.0,0.3156
1002.0,0.3046
1003.0,0.3099
1004.0,0.3017
1005.0,0.2915
1006.0,0.3025
1007.0,0.3091
1008.0,0.307
1009.0,0.3049
1010.0,0.3034
1011.0,0.3076
1012.0,0.3045
1013.0,0.307
1014.0,0.3048
1015.0,0.3027
1016.0,0.3013
1017.0,0.302
1018.0,0.3012
1019.0,0.2938
1020.0,0.2994
1021.0,0.2992
1022.0,0.2965
1023.0,0.2996
1024.0,0.2948
1025.0,0.2997
1026.0,0.2982
1027.0,0.2976
1028.0,0.2969
1029.0,0.2933
1030.0,0.2956
1031.0,0.2943
1032.0,0.2935
1033.0,0.2891
1034.0,0.2891
1035.0,0.29
1036.0,0.2914
1037.0,0.2867
1038.0,0.288
1039.0,0.2878
1040.0,0.2866
1041.0,0.2876
1042.0,0.2856
1043.0,0.2847
1044.0,0.2856
1045.0,0.2817
1046.0,0.2785
1047.0,0.2809
1048.0,0.2824
1049.0,0.2813
1050.0,0.28
1051.0,0.2795
1052.0,0.2782
1053.0,0.2759
1054.0,0.2764
1055.0,0.2764
1056.0,0.2753
1057.0,0.2743
1058.0,0.2674
1059.0,0.2676
1060.0,0.2671
1061.0,0.2667
1062.0,0.2679
1063.0,0.2652
1064.0,0.2684
1065.0,0.2661
1066.0,0.2611
1067.0,0.2644
1068.0,0.2584
1069.0,0.2506
1070.0,0.2588
1071.0,0.2637
1072.0,0.26
1073.0,0.2564
1074.0,0.2639
1075.0,0.2482
1076.0,0.2636
1077.0,0.2575
1078.0,0.252
1079.0,0.2598
1080.0,0.2536
1081.0,0.2442
1082.0,0.2502
1083.0,0.2515
1084.0,0.2431
1085.0,0.2544
1086.0,0.2287
1087.0,0.2384
1088.0,0.2509
1089.0,0.2408
1090.0,0.2342
1091.0,0.2494
1092.0,0.2493
1093.0,0.2049
1094.0,0.2273
1095.0,0.214
1096.0,0.2031
1097.0,0.2435
1098.0,0.1991
1099.0,0.2087
1100.0,0.1913
1101.0,0.1946
1102.0,0.1841
1103.0,0.181
1104.0,0.1814
1105.0,0.2033
1106.0,0.145
1107.0,0.1911
1108.0,0.1557
1109.0,0.1572
1110.0,0.1884
1111.0,0.1195
1112.0,0.1565
1113.0,0.09139
1114.0,0.1027
1115.0,0.0847
1116.0,0.06302
1117.0,0.01872
1118.0,0.06992
1119.0,0.03084
1120.0,0.03839
1121.0,0.05313
1122.0,0.01921
1123.0,0.03487
1124.0,0.02937
1125.0,0.03928
1126.0,0.01067
1127.0,0.04459
1128.0,0.02328
1129.0,0.0251
1130.0,0.01557
1131.0,0.0934
1132.0,0.07157
1133.0,0.04058
1134.0,0.008115
1135.0,0.003187
1136.0,0.03222
1137.0,0.08997
1138.0,0.06253
1139.0,0.1032
1140.0,0.08242
1141.0,0.05953
1142.0,0.07037
1143.0,0.1042
1144.0,0.03187
1145.0,0.03919
1146.0,0.04221
1147.0,0.01184
1148.0,0.08979
1149.0,0.06883
1150.0,0.03499
1151.0,0.06202
1152.0,0.07977
1153.0,0.08042
1154.0,0.03787
1155.0,0.1075
1156.0,0.09482
1157.0,0.11
1158.0,0.1088
1159.0,0.1197
1160.0,0.09999
1161.0,0.1287
1162.0,0.1289
1163.0,0.1837
1164.0,0.1541
1165.0,0.1419
1166.0,0.1436
1167.0,0.1581
1168.0,0.159
1169.0,0.1639
1170.0,0.181
1171.0,0.1763
1172.0,0.1813
1173.0,0.1806
1174.0,0.1222
1175.0,0.178
1176.0,0.1994
1177.0,0.1889
1178.0,0.1368
1179.0,0.2011
1180.0,0.1754
1181.0,0.1813
1182.0,0.1195
1183.0,0.1794
1184.0,0.1662
1185.0,0.1587
1186.0,0.1938
1187.0,0.1828
1188.0,0.1206
1189.0,0.17
1190.0,0.1897
1191.0,0.1767
1192.0,0.1927
1193.0,0.1835
1194.0,0.1899
1195.0,0.1772
1196.0,0.1694
1197.0,0.191
1198.0,0.1735
1199.0,0.1427
1200.0,0.181
1201.0,0.1729
1202.0,0.1732
1203.0,0.1711
1204.0,0.1474
1205.0,0.1786
1206.0,0.1998
1207.0,0.1721
1208.0,0.1708
1209.0,0.1747
1210.0,0.1831
1211.0,0.1726
1212.0,0.168
1213.0,0.192
1214.0,0.1731
1215.0,0.1694
1216.0,0.1916
1217.0,0.1856
1218.0,0.19
1219.0,0.1871
1220.0,0.1902
1221.0,0.1927
1222.0,0.1872
1223.0,0.1851
1224.0,0.1831
1225.0,0.1913
1226.0,0.1933
1227.0,0.1758
1228.0,0.1948
1229.0,0.1933
1230.0,0.1896
1231.0,0.1965
1232.0,0.1953
1233.0,0.1865
1234.0,0.1968
1235.0,0.1953
1236.0,0.1969
1237.0,0.1933
1238.0,0.1963
1239.0,0.1937
1240.0,0.1946
1241.0,0.1931
1242.0,0.1932
1243.0,0.1916
1244.0,0.1928
1245.0,0.1938
1246.0,0.1927
1247.0,0.1918
1248.0,0.1914
1249.0,0.1922
1250.0,0.1909
1251.0,0.1881
1252.0,0.1885
1253.0,0.1863
1254.0,0.1839
1255.0,0.1882
1256.0,0.1815
1257.0,0.1803
1258.0,0.1847
1259.0,0.1759
1260.0,0.1771
1261.0,0.1646
1262.0,0.1583
1263.0,0.1585
1264.0,0.1432
1265.0,0.1575
1266.0,0.1497
1267.0,0.1536
1268.0,0.1437
1269.0,0.07685
1270.0,0.1526
1271.0,0.1643
1272.0,0.1652
1273.0,0.1631
1274.0,0.164
1275.0,0.1669
1276.0,0.169
1277.0,0.1708
1278.0,0.1751
1279.0,0.1734
1280.0,0.1713
1281.0,0.164
1282.0,0.1588
1283.0,0.1709
1284.0,0.1748
1285.0,0.1761
1286.0,0.1789
1287.0,0.1753
1288.0,0.1755
1289.0,0.1683
1290.0,0.1741
1291.0,0.1768
1292.0,0.1631
1293.0,0.1726
1294.0,0.1713
1295.0,0.1695
1296.0,0.16
1297.0,0.15
1298.0,0.1644
1299.0,0.1731
1300.0,0.1417
1301.0,0.1469
1302.0,0.1639
1303.0,0.1403
1304.0,0.1152
1305.0,0.1603
1306.0,0.1599
1307.0,0.1193
1308.0,0.1413
1309.0,0.158
1310.0,0.1167
1311.0,0.1345
1312.0,0.1301
1313.0,0.1267
1314.0,0.1118
1315.0,0.1093
1316.0,0.1315
1317.0,0.124
1318.0,0.1366
1319.0,0.1014
1320.0,0.09938
1321.0,0.1176
1322.0,0.1178
1323.0,0.08423
1324.0,0.09961
1325.0,0.1292
1326.0,0.1081
1327.0,0.1023
1328.0,0.08671
1329.0,0.06125
1330.0,0.08171
1331.0,0.04499
1332.0,0.04783
1333.0,0.06746
1334.0,0.05968
1335.0,0.08369
1336.0,0.06378
1337.0,0.05546
1338.0,0.05986
1339.0,0.06022
1340.0,0.05983
1341.0,0.05549
1342.0,0.0586
1343.0,0.03451
1344.0,0.02111
1345.0,0.03038
1346.0,0.01225
1347.0,0.01197
1348.0,0.0004902
1349.0,0.001986
1350.0,0.002247
1351.0,0.0003579
1352.0,5.789e-05
1353.0,1.881e-06
1354.0,9.022e-06
1355.0,2.651e-08
1356.0,8.995e-07
1357.0,1.375e-06
1358.0,3.27e-08
1359.0,1.915e-09
1360.0,1.135e-08
1361.0,3.016e-12
1362.0,5.404e-15
1363.0,1.126e-08
1364.0,4.822e-09
1365.0,1.2e-15
1366.0,5.992e-08
1367.0,3.024e-08
1368.0,6.565e-18
1369.0,1.767e-09
1370.0,6.345e-10
1371.0,2.597e-11
1372.0,1.695e-08
1373.0,5.622e-07
1374.0,3.738e-06
1375.0,6.372e-06
1376.0,8.305e-06
1377.0,3.548e-06
1378.0,3.857e-05
1379.0,1.498e-06
1380.0,1.68e-06
1381.0,3.732e-08
1382.0,1.384e-08
1383.0,1.664e-10
1384.0,1.732e-09
1385.0,1.947e-08
1386.0,9.685e-09
1387.0,2.95e-06
1388.0,6.507e-08
1389.0,1.553e-05
1390.0,1.299e-05
1391.0,8.261e-06
1392.0,5.036e-07
1393.0,3.199e-06
1394.0,8.773e-07
1395.0,4.64e-09
1396.0,5.105e-12
1397.0,1.109e-06
1398.0,4.101e-05
1399.0,2.666e-05
1400.0,1.545e-12
1401.0,1.045e-11
1402.0,0.0001294
1403.0,0.0001454
1404.0,4.201e-05
1405.0,1.702e-09
1406.0,9.024e-05
1407.0,9.791e-06
1408.0,7.669e-05
1409.0,1.903e-05
1410.0,1.956e-05
1411.0,0.0001309
1412.0,0.0002043
1413.0,0.003092
1414.0,1.614e-05
1415.0,6.788e-06
1416.0,0.006723
1417.0,0.001577
1418.0,0.001647
1419.0,0.0002407
1420.0,0.0009964
1421.0,0.001133
1422.0,0.008833
1423.0,0.00161
1424.0,0.003175
1425.0,0.004367
1426.0,0.005617
1427.0,0.01174
1428.0,0.0004391
1429.0,0.007992
1430.0,0.01572
1431.0,0.0178
1432.0,0.0003394
1433.0,0.01063
1434.0,0.005072
