interpolation:linear
wavelength,value
280.0,6.2240000000000005e-21
280.5,1.903e-19
281.0,9.965e-19
281.5,5.169e-19
282.0,1.415e-18
282.5,3.666e-18
283.0,1.17e-17
283.5,1.907e-17
284.0,3.019e-16
284.5,8.617e-16
285.0,1.773e-15
285.5,9.058e-15
286.0,3.664e-14
286.5,1.635e-13
287.0,4.649e-13
287.5,1.761e-12
288.0,4.574e-12
288.5,1.592e-11
289.0,4.695e-11
289.5,1.537e-10
290.0,4.495e-10
290.5,9.523e-10
291.0,2.126e-09
291.5,6.462e-09
292.0,1.576e-08
292.5,2.45e-08
293.0,6.001e-08
293.5,1.762e-07
294.0,3.163e-07
294.5,4.152e-07
295.0,8.08e-07
295.5,2.208e-06
296.0,4.404e-06
296.5,6.38e-06
297.0,8.9e-06
297.5,2.502e-05
298.0,4.113e-05
298.5,4.281e-05
299.0,9.769e-05
299.5,0.0001725
300.0,0.000197
300.5,0.0002972
301.0,0.0005782
301.5,0.000996
302.0,0.000893
302.5,0.00174
303.0,0.00311
303.5,0.003902
304.0,0.003654
304.5,0.005403
305.0,0.008077
305.5,0.009164
306.0,0.008838
306.5,0.01094
307.0,0.01599
307.5,0.02095
308.0,0.02208
308.5,0.02589
309.0,0.02535
309.5,0.02869
310.0,0.02868
310.5,0.04633
311.0,0.05791
311.5,0.05581
312.0,0.05527
312.5,0.06683
313.0,0.07224
313.5,0.07039
314.0,0.08731
314.5,0.07659
315.0,0.1005
315.5,0.0845
316.0,0.07315
316.5,0.1042
317.0,0.1294
317.5,0.135
318.0,0.1048
318.5,0.1287
319.0,0.152
319.5,0.125
320.0,0.1512
320.5,0.1872
321.0,0.165
321.5,0.1581
322.0,0.1704
322.5,0.1481
323.0,0.1465
323.5,0.1789
324.0,0.2086
324.5,0.2124
325.0,0.1842
325.5,0.2355
326.0,0.2875
326.5,0.2868
327.0,0.2863
327.5,0.2771
328.0,0.2481
328.5,0.2591
329.0,0.3086
329.5,0.3497
330.0,0.3533
330.5,0.284
331.0,0.2898
331.5,0.2936
332.0,0.3159
332.5,0.3118
333.0,0.3113
333.5,0.2827
334.0,0.2899
334.5,0.3332
335.0,0.3125
335.5,0.365
336.0,0.2526
336.5,0.2962
337.0,0.2434
337.5,0.303
338.0,0.2949
338.5,0.3404
339.0,0.3369
339.5,0.3242
340.0,0.3811
340.5,0.3434
341.0,0.335
341.5,0.3076
342.0,0.3676
342.5,0.344
343.0,0.3784
343.5,0.3564
344.0,0.2634
344.5,0.2661
345.0,0.3521
345.5,0.3596
346.0,0.3056
346.5,0.3461
347.0,0.3716
347.5,0.3005
348.0,0.3426
348.5,0.3425
349.0,0.3178
349.5,0.3147
350.0,0.3893
350.5,0.4107
351.0,0.367
351.5,0.3567
352.0,0.3832
352.5,0.2991
353.0,0.3768
353.5,0.4029
354.0,0.4183
354.5,0.4243
355.0,0.423
355.5,0.3822
356.0,0.3999
356.5,0.3415
357.0,0.2822
357.5,0.3455
358.0,0.2739
358.5,0.2341
359.0,0.3275
359.5,0.4174
360.0,0.4425
360.5,0.3537
361.0,0.3225
361.5,0.3715
362.0,0.3213
362.5,0.4448
363.0,0.3996
363.5,0.3681
364.0,0.4503
364.5,0.385
365.0,0.3921
365.5,0.4923
366.0,0.5216
366.5,0.4902
367.0,0.4775
367.5,0.4956
368.0,0.4338
368.5,0.4378
369.0,0.4729
369.5,0.5041
370.0,0.5375
370.5,0.4173
371.0,0.446
371.5,0.558
372.0,0.3704
372.5,0.4442
373.0,0.452
373.5,0.2941
374.0,0.4275
374.5,0.3541
375.0,0.3443
375.5,0.5141
376.0,0.4262
376.5,0.4417
377.0,0.4678
377.5,0.5474
378.0,0.5934
378.5,0.561
379.0,0.463
379.5,0.423
380.0,0.4399
380.5,0.5329
381.0,0.5341
381.5,0.4235
382.0,0.3762
382.5,0.3208
383.0,0.297
383.5,0.2861
384.0,0.3157
384.5,0.4644
385.0,0.4607
385.5,0.4291
386.0,0.3676
386.5,0.483
387.0,0.4014
387.5,0.4509
388.0,0.4164
388.5,0.4117
389.0,0.4445
389.5,0.5384
390.0,0.5405
390.5,0.4975
391.0,0.5857
391.5,0.5975
392.0,0.5033
392.5,0.4507
393.0,0.2508
393.5,0.1824
394.0,0.3712
394.5,0.472
395.0,0.576
395.5,0.5852
396.0,0.5075
396.5,0.2967
397.0,0.2227
397.5,0.453
398.0,0.6345
398.5,0.6559
399.0,0.7104
399.5,0.7082
400.0,0.7355
401.0,0.7461
402.0,0.7875
403.0,0.7483
404.0,0.737
405.0,0.737
406.0,0.7253
407.0,0.7138
408.0,0.7418
409.0,0.7942
410.0,0.6941
411.0,0.752
412.0,0.808
413.0,0.7881
414.0,0.7979
415.0,0.8002
416.0,0.8144
417.0,0.7946
418.0,0.78
419.0,0.7905
420.0,0.7871
421.0,0.8236
422.0,0.783
423.0,0.765
424.0,0.8092
425.0,0.8079
426.0,0.7872
427.0,0.7726
428.0,0.7527
429.0,0.7131
430.0,0.6242
431.0,0.6187
432.0,0.799
433.0,0.8036
434.0,0.7463
435.0,0.7794
436.0,0.8784
437.0,0.8667
438.0,0.7894
439.0,0.8165
440.0,0.8426
441.0,0.8732
442.0,0.9366
443.0,0.9124
444.0,0.9323
445.0,0.9122
446.0,0.8706
447.0,0.9413
448.0,0.9561
449.0,0.96
450.0,0.9869
451.0,1.024
452.0,0.9863
453.0,0.9278
454.0,0.9686
455.0,0.9747
456.0,0.9979
457.0,1.015
458.0,0.98
459.0,0.975
460.0,0.9776
461.0,1.0
462.0,1.008
463.0,1.001
464.0,0.9846
465.0,0.9722
466.0,0.9817
467.0,0.9638
468.0,0.9752
469.0,0.9803
470.0,0.9491
471.0,0.9479
472.0,0.9988
473.0,0.9859
474.0,0.9873
475.0,0.9958
476.0,0.966
477.0,0.9688
478.0,0.9957
479.0,0.9896
480.0,0.9916
481.0,1.01
482.0,1.015
483.0,1.003
484.0,0.9826
485.0,0.9362
486.0,0.8184
487.0,0.8578
488.0,0.9411
489.0,0.944
490.0,0.9932
491.0,0.9761
492.0,0.9217
493.0,0.9519
494.0,0.9615
495.0,0.9697
496.0,0.9757
497.0,0.9908
498.0,0.9445
499.0,0.9566
500.0,0.9287
501.0,0.9117
502.0,0.8989
503.0,0.9355
504.0,0.9117
505.0,0.9444
506.0,0.9749
507.0,0.9277
508.0,0.8988
509.0,0.924
510.0,0.9191
511.0,0.9438
512.0,0.954
513.0,0.903
514.0,0.8968
515.0,0.8879
516.0,0.8857
517.0,0.787
518.0,0.8274
519.0,0.8679
520.0,0.8994
521.0,0.908
522.0,0.9088
523.0,0.8924
524.0,0.9244
525.0,0.9352
526.0,0.8934
527.0,0.8419
528.0,0.8904
529.0,0.9385
530.0,0.925
531.0,0.9387
532.0,0.9065
533.0,0.8799
534.0,0.906
535.0,0.9257
536.0,0.9342
537.0,0.8974
538.0,0.9132
539.0,0.9056
540.0,0.8682
541.0,0.874
542.0,0.9013
543.0,0.8918
544.0,0.9073
545.0,0.9045
546.0,0.9085
547.0,0.9081
548.0,0.8972
549.0,0.8999
550.0,0.9106
551.0,0.8996
552.0,0.9058
553.0,0.8896
554.0,0.9109
555.0,0.9127
556.0,0.9009
557.0,0.8729
558.0,0.8663
559.0,0.8501
560.0,0.8607
561.0,0.8718
562.0,0.8655
563.0,0.8892
564.0,0.8649
565.0,0.8574
566.0,0.8448
567.0,0.8608
568.0,0.8531
569.0,0.8327
570.0,0.8325
571.0,0.8275
572.0,0.8473
573.0,0.8564
574.0,0.8536
575.0,0.8376
576.0,0.83
577.0,0.839
578.0,0.8265
579.0,0.8298
580.0,0.8457
581.0,0.8501
582.0,0.8662
583.0,0.8684
584.0,0.876
585.0,0.8546
586.0,0.837
587.0,0.8554
588.0,0.8344
589.0,0.739
590.0,0.7728
591.0,0.818
592.0,0.8075
593.0,0.8196
594.0,0.8139
595.0,0.7937
596.0,0.8252
597.0,0.8162
598.0,0.8142
599.0,0.8149
600.0,0.8162
601.0,0.8096
602.0,0.8041
603.0,0.8174
604.0,0.831
605.0,0.8267
606.0,0.8233
607.0,0.8315
608.0,0.8223
609.0,0.8238
610.0,0.8179
611.0,0.8222
612.0,0.8198
613.0,0.8095
614.0,0.7985
615.0,0.8159
616.0,0.789
617.0,0.7875
618.0,0.8178
619.0,0.8095
620.0,0.8146
621.0,0.8154
622.0,0.8058
623.0,0.7935
624.0,0.7799
625.0,0.7782
626.0,0.7897
627.0,0.7985
628.0,0.7449
629.0,0.7793
630.0,0.7613
631.0,0.7788
632.0,0.7695
633.0,0.793
634.0,0.7854
635.0,0.7977
636.0,0.7872
637.0,0.8001
638.0,0.8079
639.0,0.7988
640.0,0.7911
641.0,0.7906
642.0,0.7871
643.0,0.7977
644.0,0.7951
645.0,0.7964
646.0,0.7777
647.0,0.7683
648.0,0.769
649.0,0.7541
650.0,0.758
651.0,0.7909
652.0,0.7577
653.0,0.7804
654.0,0.7718
655.0,0.7429
656.0,0.6585
657.0,0.6763
658.0,0.758
659.0,0.7634
660.0,0.7666
661.0,0.772
662.0,0.7735
663.0,0.7583
664.0,0.7673
665.0,0.768
666.0,0.7686
667.0,0.7679
668.0,0.7683
669.0,0.7802
670.0,0.7769
671.0,0.7767
672.0,0.7701
673.0,0.7817
674.0,0.7788
675.0,0.7717
676.0,0.777
677.0,0.7693
678.0,0.7715
679.0,0.7591
680.0,0.7651
681.0,0.7601
682.0,0.7591
683.0,0.7577
684.0,0.7539
685.0,0.7604
686.0,0.7558
687.0,0.4982
688.0,0.5856
689.0,0.5878
690.0,0.6171
691.0,0.6501
692.0,0.6743
693.0,0.6687
694.0,0.6632
695.0,0.6911
696.0,0.692
697.0,0.735
698.0,0.7235
699.0,0.7059
700.0,0.6973
701.0,0.6901
702.0,0.695
703.0,0.6963
704.0,0.7188
705.0,0.7199
706.0,0.7194
707.0,0.7199
708.0,0.7215
709.0,0.7227
710.0,0.7226
711.0,0.7216
712.0,0.7195
713.0,0.7122
714.0,0.7149
715.0,0.6922
716.0,0.6926
717.0,0.5994
718.0,0.5503
719.0,0.5039
720.0,0.5278
721.0,0.5834
722.0,0.6684
723.0,0.6218
724.0,0.5596
725.0,0.5505
726.0,0.5763
727.0,0.5849
728.0,0.549
729.0,0.5701
730.0,0.6032
731.0,0.577
732.0,0.6177
733.0,0.6543
734.0,0.67
735.0,0.6561
736.0,0.6552
737.0,0.6578
738.0,0.6683
739.0,0.6551
740.0,0.6723
741.0,0.6657
742.0,0.6664
743.0,0.6833
744.0,0.6814
745.0,0.6816
746.0,0.6847
747.0,0.6862
748.0,0.6848
749.0,0.677
750.0,0.6766
751.0,0.6697
752.0,0.6726
753.0,0.676
754.0,0.6775
755.0,0.6737
756.0,0.6734
757.0,0.6744
758.0,0.666
759.0,0.6522
760.0,0.1042
761.0,0.05374
762.0,0.3285
763.0,0.161
764.0,0.2448
765.0,0.3285
766.0,0.4059
767.0,0.5149
768.0,0.5964
769.0,0.6094
770.0,0.6307
771.0,0.6361
772.0,0.6375
773.0,0.642
774.0,0.6389
775.0,0.634
776.0,0.6418
777.0,0.6333
778.0,0.6295
779.0,0.63
780.0,0.6265
781.0,0.6271
782.0,0.631
783.0,0.6201
784.0,0.6231
785.0,0.6184
786.0,0.6252
787.0,0.6141
788.0,0.6063
789.0,0.6061
790.0,0.5897
791.0,0.595
792.0,0.5907
793.0,0.5811
794.0,0.5914
795.0,0.6013
796.0,0.5824
797.0,0.5831
798.0,0.6005
799.0,0.5966
800.0,0.5861
801.0,0.5842
802.0,0.5825
803.0,0.5781
804.0,0.5789
805.0,0.5772
806.0,0.5936
807.0,0.5864
808.0,0.587
809.0,0.5758
810.0,0.571
811.0,0.5715
812.0,0.5548
813.0,0.5431
814.0,0.4769
815.0,0.474
816.0,0.441
817.0,0.4492
818.0,0.4322
819.0,0.484
820.0,0.4555
821.0,0.5336
822.0,0.5182
823.0,0.3505
824.0,0.5027
825.0,0.5243
826.0,0.5041
827.0,0.5323
828.0,0.4502
829.0,0.5011
830.0,0.4944
831.0,0.4962
832.0,0.4807
833.0,0.5121
834.0,0.4935
835.0,0.5431
836.0,0.5192
837.0,0.5446
838.0,0.5274
839.0,0.5365
840.0,0.5483
841.0,0.5404
842.0,0.5418
843.0,0.5417
844.0,0.534
845.0,0.5522
846.0,0.5498
847.0,0.5397
848.0,0.5362
849.0,0.521
850.0,0.4992
851.0,0.5284
852.0,0.5247
853.0,0.5052
854.0,0.4361
855.0,0.4792
856.0,0.5237
857.0,0.5354
858.0,0.5314
859.0,0.532
860.0,0.5329
861.0,0.53
862.0,0.5384
863.0,0.5511
864.0,0.5235
865.0,0.519
866.0,0.4666
867.0,0.487
868.0,0.5299
869.0,0.5189
870.0,0.5337
871.0,0.5265
872.0,0.5246
873.0,0.5236
874.0,0.5173
875.0,0.5068
876.0,0.5121
877.0,0.5173
878.0,0.5229
879.0,0.5148
880.0,0.5038
881.0,0.4962
882.0,0.5069
883.0,0.5086
884.0,0.5062
885.0,0.51
886.0,0.4858
887.0,0.4912
888.0,0.4983
889.0,0.5042
890.0,0.4997
891.0,0.499
892.0,0.4842
893.0,0.4686
894.0,0.4513
895.0,0.4254
896.0,0.4004
897.0,0.3426
898.0,0.3746
899.0,0.2833
900.0,0.3844
901.0,0.2969
902.0,0.3507
903.0,0.3534
904.0,0.4479
905.0,0.4321
906.0,0.404
907.0,0.3261
908.0,0.3329
909.0,0.3616
910.0,0.318
911.0,0.3401
912.0,0.3559
913.0,0.3226
914.0,0.3202
915.0,0.3472
916.0,0.2934
917.0,0.3744
918.0,0.3008
919.0,0.3817
920.0,0.3867
921.0,0.4023
922.0,0.3583
923.0,0.3887
924.0,0.367
925.0,0.3591
926.0,0.3629
927.0,0.4076
928.0,0.295
929.0,0.2682
930.0,0.2088
931.0,0.1981
932.0,0.1407
933.0,0.1133
934.0,0.05991
935.0,0.1168
936.0,0.07152
937.0,0.07232
938.0,0.0895
939.0,0.1919
940.0,0.2323
941.0,0.1734
942.0,0.202
943.0,0.1313
944.0,0.1397
945.0,0.1792
946.0,0.08905
947.0,0.1794
948.0,0.1315
949.0,0.2423
950.0,0.06407
951.0,0.239
952.0,0.1255
953.0,0.164
954.0,0.2032
955.0,0.1661
956.0,0.1626
957.0,0.1255
958.0,0.2332
959.0,0.1829
960.0,0.205
961.0,0.232
962.0,0.2193
963.0,0.2544
964.0,0.2326
965.0,0.2536
966.0,0.2533
967.0,0.252
968.0,0.3437
969.0,0.3585
970.0,0.3285
971.0,0.3786
972.0,0.3616
973.0,0.3123
974.0,0.296
975.0,0.3083
976.0,0.2913
977.0,0.3343
978.0,0.3164
979.0,0.3323
980.0,0.3119
981.0,0.3765
982.0,0.359
983.0,0.3441
984.0,0.389
985.0,0.3577
986.0,0.3965
987.0,0.388
988.0,0.3873
989.0,0.3957
990.0,0.385
991.0,0.3968
992.0,0.3992
993.0,0.3895
994.0,0.3991
995.0,0.3987
996.0,0.3968
997.0,0.3975
998.0,0.3956
999.0,0.3941
1000.0,0.3912
1001.0,0.3963
1002.0,0.3846
1003.0,0.3892
1004.0,0.3795
1005.0,0.3659
1006.0,0.38
1007.0,0.3882
1008.0,0.3859
1009.0,0.3837
1010.0,0.382
1011.0,0.3862
1012.0,0.3827
1013.0,0.3853
1014.0,0.3826
1015.0,0.3801
1016.0,0.3783
1017.0,0.3793
1018.0,0.3779
1019.0,0.3696
1020.0,0.3759
1021.0,0.3754
1022.0,0.3724
1023.0,0.3763
1024.0,0.3712
1025.0,0.3762
1026.0,0.3745
1027.0,0.3736
1028.0,0.3728
1029.0,0.3684
1030.0,0.371
1031.0,0.3695
1032.0,0.3685
1033.0,0.3629
1034.0,0.3629
1035.0,0.3641
1036.0,0.3659
1037.0,0.36
1038.0,0.3616
1039.0,0.3613
1040.0,0.3599
1041.0,0.3613
1042.0,0.3588
1043.0,0.3576
1044.0,0.3588
1045.0,0.354
1046.0,0.35
1047.0,0.3532
1048.0,0.3551
1049.0,0.3538
1050.0,0.3521
1051.0,0.3516
1052.0,0.3501
1053.0,0.3473
1054.0,0.348
1055.0,0.3482
1056.0,0.3469
1057.0,0.3458
1058.0,0.3373
1059.0,0.3376
1060.0,0.337
1061.0,0.3366
1062.0,0.3383
1063.0,0.335
1064.0,0.3389
1065.0,0.3364
1066.0,0.3298
1067.0,0.334
1068.0,0.3267
1069.0,0.3166
1070.0,0.3273
1071.0,0.3327
1072.0,0.3286
1073.0,0.3239
1074.0,0.3326
1075.0,0.3151
1076.0,0.3323
1077.0,0.3259
1078.0,0.3195
1079.0,0.3271
1080.0,0.3209
1081.0,0.3102
1082.0,0.3159
1083.0,0.317
1084.0,0.3092
1085.0,0.3217
1086.0,0.2924
1087.0,0.3026
1088.0,0.3165
1089.0,0.3061
1090.0,0.2989
1091.0,0.3153
1092.0,0.3147
1093.0,0.2646
1094.0,0.2876
1095.0,0.276
1096.0,0.2636
1097.0,0.3074
1098.0,0.2592
1099.0,0.2708
1100.0,0.2508
1101.0,0.2542
1102.0,0.2422
1103.0,0.2394
1104.0,0.2398
1105.0,0.2644
1106.0,0.1986
1107.0,0.2504
1108.0,0.2101
1109.0,0.2109
1110.0,0.2479
1111.0,0.1653
1112.0,0.2094
1113.0,0.1303
1114.0,0.146
1115.0,0.1209
1116.0,0.09471
1117.0,0.03288
1118.0,0.1037
1119.0,0.04986
1120.0,0.06264
1121.0,0.08409
1122.0,0.03402
1123.0,0.05667
1124.0,0.04781
1125.0,0.06276
1126.0,0.0205
1127.0,0.07093
1128.0,0.04095
1129.0,0.04366
1130.0,0.02819
1131.0,0.1381
1132.0,0.1077
1133.0,0.06628
1134.0,0.01586
1135.0,0.006006
1136.0,0.05459
1137.0,0.135
1138.0,0.09474
1139.0,0.1451
1140.0,0.1198
1141.0,0.09006
1142.0,0.1044
1143.0,0.1498
1144.0,0.05049
1145.0,0.06396
1146.0,0.06896
1147.0,0.02286
1148.0,0.1296
1149.0,0.1023
1150.0,0.05451
1151.0,0.09398
1152.0,0.117
1153.0,0.1151
1154.0,0.06181
1155.0,0.1513
1156.0,0.1355
1157.0,0.1533
1158.0,0.1516
1159.0,0.1644
1160.0,0.1396
1161.0,0.1739
1162.0,0.1746
1163.0,0.2389
1164.0,0.2038
1165.0,0.1912
1166.0,0.1907
1167.0,0.2082
1168.0,0.2103
1169.0,0.2156
1170.0,0.2351
1171.0,0.2292
1172.0,0.2338
1173.0,0.2347
1174.0,0.1656
1175.0,0.2296
1176.0,0.2533
1177.0,0.2426
1178.0,0.1808
1179.0,0.2554
1180.0,0.227
1181.0,0.2343
1182.0,0.1602
1183.0,0.2309
1184.0,0.2159
1185.0,0.2079
1186.0,0.2479
1187.0,0.2357
1188.0,0.1627
1189.0,0.2195
1190.0,0.2423
1191.0,0.2293
1192.0,0.2458
1193.0,0.2353
1194.0,0.2427
1195.0,0.229
1196.0,0.2203
1197.0,0.2431
1198.0,0.222
1199.0,0.1878
1200.0,0.2323
1201.0,0.2237
1202.0,0.2226
1203.0,0.2206
1204.0,0.1925
1205.0,0.2281
1206.0,0.2525
1207.0,0.2219
1208.0,0.2187
1209.0,0.2233
1210.0,0.2329
1211.0,0.2214
1212.0,0.2183
1213.0,0.244
1214.0,0.2237
1215.0,0.2194
1216.0,0.2432
1217.0,0.2366
1218.0,0.2413
1219.0,0.2382
1220.0,0.2415
1221.0,0.244
1222.0,0.2376
1223.0,0.2353
1224.0,0.2337
1225.0,0.2424
1226.0,0.2442
1227.0,0.2248
1228.0,0.2455
1229.0,0.2442
1230.0,0.24
1231.0,0.2471
1232.0,0.2456
1233.0,0.2368
1234.0,0.2469
1235.0,0.2453
1236.0,0.2471
1237.0,0.2435
1238.0,0.2463
1239.0,0.2431
1240.0,0.2441
1241.0,0.2428
1242.0,0.2424
1243.0,0.2404
1244.0,0.2421
1245.0,0.2432
1246.0,0.2417
1247.0,0.2408
1248.0,0.2406
1249.0,0.2414
1250.0,0.2399
1251.0,0.2368
1252.0,0.2369
1253.0,0.2348
1254.0,0.2324
1255.0,0.2366
1256.0,0.2297
1257.0,0.2284
1258.0,0.2329
1259.0,0.2241
1260.0,0.2253
1261.0,0.2122
1262.0,0.2055
1263.0,0.2059
1264.0,0.1895
1265.0,0.2046
1266.0,0.1965
1267.0,0.2002
1268.0,0.1895
1269.0,0.1151
1270.0,0.1994
1271.0,0.2115
1272.0,0.2123
1273.0,0.2099
1274.0,0.2107
1275.0,0.2138
1276.0,0.216
1277.0,0.2175
1278.0,0.2219
1279.0,0.2199
1280.0,0.2171
1281.0,0.2073
1282.0,0.1998
1283.0,0.2152
1284.0,0.2203
1285.0,0.2218
1286.0,0.2249
1287.0,0.2213
1288.0,0.2212
1289.0,0.214
1290.0,0.2193
1291.0,0.2224
1292.0,0.2084
1293.0,0.218
1294.0,0.2164
1295.0,0.2152
1296.0,0.2051
1297.0,0.1938
1298.0,0.2091
1299.0,0.2183
1300.0,0.1838
1301.0,0.1897
1302.0,0.2085
1303.0,0.1815
1304.0,0.1539
1305.0,0.2041
1306.0,0.2041
1307.0,0.1576
1308.0,0.182
1309.0,0.2024
1310.0,0.1545
1311.0,0.1743
1312.0,0.1694
1313.0,0.1659
1314.0,0.1482
1315.0,0.146
1316.0,0.1713
1317.0,0.1622
1318.0,0.1766
1319.0,0.1368
1320.0,0.1329
1321.0,0.1552
1322.0,0.1565
1323.0,0.1167
1324.0,0.1343
1325.0,0.1688
1326.0,0.1442
1327.0,0.1373
1328.0,0.1181
1329.0,0.08767
1330.0,0.1146
1331.0,0.06795
1332.0,0.07059
1333.0,0.09855
1334.0,0.08411
1335.0,0.1163
1336.0,0.09127
1337.0,0.08037
1338.0,0.08697
1339.0,0.08677
1340.0,0.08475
1341.0,0.08193
1342.0,0.08613
1343.0,0.05667
1344.0,0.03405
1345.0,0.04917
1346.0,0.02338
1347.0,0.02359
1348.0,0.001389
1349.0,0.00513
1350.0,0.005435
1351.0,0.001211
1352.0,0.000297
1353.0,1.375e-05
1354.0,5.062e-05
1355.0,3.328e-07
1356.0,6.678e-06
1357.0,1.02e-05
1358.0,3.975e-07
1359.0,4.293e-08
1360.0,1.722e-07
1361.0,1.39e-10
1362.0,3.325e-13
1363.0,2.218e-07
1364.0,9.142e-08
1365.0,9.76e-14
1366.0,1.011e-06
1367.0,4.27e-07
1368.0,5.329e-16
1369.0,3.393e-08
1370.0,1.568e-08
1371.0,8.24e-10
1372.0,2.353e-07
1373.0,5.278e-06
1374.0,2.638e-05
1375.0,4.772e-05
1376.0,4.574e-05
1377.0,2.063e-05
1378.0,0.0002083
1379.0,8.655e-06
1380.0,1.192e-05
1381.0,2.989e-07
1382.0,2.083e-07
1383.0,2.952e-09
1384.0,3.737e-08
1385.0,2.125e-07
1386.0,1.773e-07
1387.0,2.616e-05
1388.0,5.18e-07
1389.0,9.641e-05
1390.0,8.279e-05
1391.0,5.445e-05
1392.0,3.464e-06
1393.0,1.913e-05
1394.0,8.778e-06
1395.0,5.957e-08
1396.0,2.095e-10
1397.0,7.402e-06
1398.0,0.0002321
1399.0,0.0001476
1400.0,8.297e-11
1401.0,3.891e-10
1402.0,0.0004566
1403.0,0.0005625
1404.0,0.0001699
1405.0,2.742e-08
1406.0,0.0004272
1407.0,3.878e-05
1408.0,0.0003516
1409.0,0.0001111
1410.0,9.275e-05
1411.0,0.0004966
1412.0,0.0006904
1413.0,0.00779
1414.0,7.378e-05
1415.0,3.442e-05
1416.0,0.01363
1417.0,0.003842
1418.0,0.004319
1419.0,0.0006585
1420.0,0.002633
1421.0,0.002858
1422.0,0.01786
1423.0,0.003388
1424.0,0.006431
1425.0,0.009323
1426.0,0.01093
1427.0,0.02089
1428.0,0.001293
1429.0,0.01522
1430.0,0.02699
1431.0,0.02992
1432.0,0.001012
1433.0,0.01866
1434.0,0.009307
1435.0,0.008678
1436.0,0.01771
1437.0,0.01359
1438.0,0.005475
1439.0,0.02451
1440.0,0.01835
