interpolation:linear
wavelength,value
280.0,2.869e-21
280.5,9e-20
281.0,4.75e-19
281.5,3.313e-19
282.0,1.013e-18
282.5,2.692e-18
283.0,8.765e-18
283.5,1.438e-17
284.0,2.357e-16
284.5,6.814e-16
285.0,1.55e-15
285.5,7.519e-15
286.0,3.006e-14
286.5,1.325e-13
287.0,3.749e-13
287.5,1.418e-12
288.0,3.774e-12
288.5,1.254e-11
289.0,3.562e-11
289.5,1.128e-10
290.0,3.224e-10
290.5,6.706e-10
291.0,1.467e-09
291.5,4.287e-09
292.0,9.282e-09
292.5,1.397e-08
293.0,3.273e-08
293.5,8.984e-08
294.0,1.531e-07
294.5,1.981e-07
295.0,3.65e-07
295.5,9.551e-07
296.0,1.914e-06
296.5,2.792e-06
297.0,3.925e-06
297.5,1.12e-05
298.0,1.872e-05
298.5,1.977e-05
299.0,4.583e-05
299.5,8.355e-05
300.0,9.734e-05
300.5,0.0001502
301.0,0.0003049
301.5,0.0005507
302.0,0.0005087
302.5,0.001005
303.0,0.001831
303.5,0.002327
304.0,0.002201
304.5,0.003336
305.0,0.005164
305.5,0.005988
306.0,0.005824
306.5,0.007307
307.0,0.01101
307.5,0.01485
308.0,0.01573
308.5,0.0187
309.0,0.01844
309.5,0.02125
310.0,0.02142
310.5,0.03476
311.0,0.04374
311.5,0.04228
312.0,0.04251
312.5,0.05192
313.0,0.05642
313.5,0.05471
314.0,0.06868
314.5,0.06122
315.0,0.08053
315.5,0.06723
316.0,0.05895
316.5,0.08493
317.0,0.1055
317.5,0.1097
318.0,0.08576
318.5,0.1069
319.0,0.1271
319.5,0.1033
320.0,0.1248
320.5,0.1568
321.0,0.1401
321.5,0.1344
322.0,0.1428
322.5,0.1243
323.0,0.124
323.5,0.1527
324.0,0.1783
324.5,0.181
325.0,0.1562
325.5,0.2013
326.0,0.2462
326.5,0.2468
327.0,0.2459
327.5,0.2375
328.0,0.2113
328.5,0.2224
329.0,0.2665
329.5,0.3027
330.0,0.3053
330.5,0.2443
331.0,0.2489
331.5,0.2532
332.0,0.2737
332.5,0.2708
333.0,0.2701
333.5,0.2444
334.0,0.2504
334.5,0.2891
335.0,0.2718
335.5,0.3175
336.0,0.2198
336.5,0.2574
337.0,0.2112
337.5,0.2627
338.0,0.2567
338.5,0.2963
339.0,0.2934
339.5,0.2823
340.0,0.3318
340.5,0.2992
341.0,0.2918
341.5,0.268
342.0,0.3204
342.5,0.2999
343.0,0.3298
343.5,0.3106
344.0,0.2296
344.5,0.232
345.0,0.3071
345.5,0.3137
346.0,0.2667
346.5,0.3021
347.0,0.3243
347.5,0.2623
348.0,0.2992
348.5,0.2991
349.0,0.2776
349.5,0.2749
350.0,0.3401
350.5,0.3589
351.0,0.3206
351.5,0.3117
352.0,0.3349
352.5,0.2614
353.0,0.3294
353.5,0.3523
354.0,0.3659
354.5,0.3711
355.0,0.3699
355.5,0.3343
356.0,0.3499
356.5,0.2988
357.0,0.247
357.5,0.3024
358.0,0.2397
358.5,0.2049
359.0,0.2867
359.5,0.3654
360.0,0.3874
360.5,0.3097
361.0,0.2824
361.5,0.3254
362.0,0.2815
362.5,0.3898
363.0,0.3502
363.5,0.3227
364.0,0.3948
364.5,0.3376
365.0,0.3439
365.5,0.4317
366.0,0.4576
366.5,0.4301
367.0,0.419
367.5,0.4349
368.0,0.3807
368.5,0.3843
369.0,0.4151
369.5,0.4426
370.0,0.472
370.5,0.3664
371.0,0.3917
371.5,0.4902
372.0,0.3254
372.5,0.3903
373.0,0.3971
373.5,0.2585
374.0,0.3757
374.5,0.3112
375.0,0.3026
375.5,0.4519
376.0,0.3747
376.5,0.3884
377.0,0.4114
377.5,0.4814
378.0,0.522
378.5,0.4935
379.0,0.4073
379.5,0.3721
380.0,0.387
380.5,0.4689
381.0,0.4701
381.5,0.3728
382.0,0.3312
382.5,0.2824
383.0,0.2616
383.5,0.252
384.0,0.2781
384.5,0.4091
385.0,0.4059
385.5,0.3781
386.0,0.3239
386.5,0.4257
387.0,0.3538
387.5,0.3975
388.0,0.3671
388.5,0.363
389.0,0.3919
389.5,0.4748
390.0,0.4767
390.5,0.4388
391.0,0.5167
391.5,0.5271
392.0,0.4441
392.5,0.3977
393.0,0.2214
393.5,0.161
394.0,0.3276
394.5,0.4167
395.0,0.5086
395.5,0.5167
396.0,0.4481
396.5,0.2621
397.0,0.1967
397.5,0.4002
398.0,0.5605
398.5,0.5795
399.0,0.6277
399.5,0.6258
400.0,0.6499
401.0,0.6588
402.0,0.6954
403.0,0.661
404.0,0.6511
405.0,0.6512
406.0,0.641
407.0,0.631
408.0,0.6558
409.0,0.7022
410.0,0.6139
411.0,0.6652
412.0,0.7149
413.0,0.6974
414.0,0.7062
415.0,0.7084
416.0,0.7212
417.0,0.7037
418.0,0.6909
419.0,0.7003
420.0,0.6974
421.0,0.7299
422.0,0.6939
423.0,0.6781
424.0,0.7174
425.0,0.7163
426.0,0.6981
427.0,0.6853
428.0,0.6677
429.0,0.6328
430.0,0.554
431.0,0.5491
432.0,0.7093
433.0,0.7134
434.0,0.6626
435.0,0.6921
436.0,0.7802
437.0,0.77
438.0,0.7014
439.0,0.7253
440.0,0.7487
441.0,0.7761
442.0,0.8325
443.0,0.8109
444.0,0.8287
445.0,0.8109
446.0,0.7742
447.0,0.8373
448.0,0.8503
449.0,0.854
450.0,0.8781
451.0,0.9109
452.0,0.8778
453.0,0.8258
454.0,0.8623
455.0,0.8677
456.0,0.8885
457.0,0.9034
458.0,0.8725
459.0,0.8681
460.0,0.8705
461.0,0.8906
462.0,0.8977
463.0,0.8916
464.0,0.8771
465.0,0.8664
466.0,0.875
467.0,0.859
468.0,0.8691
469.0,0.8737
470.0,0.8459
471.0,0.8449
472.0,0.8903
473.0,0.8788
474.0,0.8799
475.0,0.8873
476.0,0.8606
477.0,0.8628
478.0,0.8869
479.0,0.8817
480.0,0.8835
481.0,0.9002
482.0,0.9052
483.0,0.8945
484.0,0.8763
485.0,0.8351
486.0,0.7302
487.0,0.7654
488.0,0.8397
489.0,0.8423
490.0,0.8862
491.0,0.8711
492.0,0.8227
493.0,0.8496
494.0,0.8582
495.0,0.8655
496.0,0.8709
497.0,0.8844
498.0,0.843
499.0,0.8538
500.0,0.8288
501.0,0.8135
502.0,0.8018
503.0,0.8341
504.0,0.8121
505.0,0.8419
506.0,0.8691
507.0,0.827
508.0,0.8015
509.0,0.8242
510.0,0.82
511.0,0.8422
512.0,0.8515
513.0,0.8059
514.0,0.8005
515.0,0.7925
516.0,0.7906
517.0,0.7025
518.0,0.7386
519.0,0.7747
520.0,0.8028
521.0,0.8104
522.0,0.8111
523.0,0.7964
524.0,0.8248
525.0,0.8343
526.0,0.7969
527.0,0.7508
528.0,0.7939
529.0,0.8367
530.0,0.8246
531.0,0.8368
532.0,0.808
533.0,0.7843
534.0,0.8076
535.0,0.8253
536.0,0.833
537.0,0.8002
538.0,0.8144
539.0,0.8076
540.0,0.7742
541.0,0.7791
542.0,0.8034
543.0,0.7951
544.0,0.8087
545.0,0.8063
546.0,0.8096
547.0,0.8094
548.0,0.7998
549.0,0.8023
550.0,0.8119
551.0,0.8021
552.0,0.8076
553.0,0.7931
554.0,0.8121
555.0,0.8137
556.0,0.8031
557.0,0.778
558.0,0.772
559.0,0.7575
560.0,0.7668
561.0,0.7767
562.0,0.7709
563.0,0.7917
564.0,0.77
565.0,0.7633
566.0,0.7519
567.0,0.766
568.0,0.7587
569.0,0.7397
570.0,0.7397
571.0,0.7355
572.0,0.7525
573.0,0.7604
574.0,0.7579
575.0,0.7435
576.0,0.7368
577.0,0.7449
578.0,0.734
579.0,0.7373
580.0,0.752
581.0,0.7563
582.0,0.7711
583.0,0.7733
584.0,0.7803
585.0,0.7614
586.0,0.7457
587.0,0.7618
588.0,0.7421
589.0,0.6553
590.0,0.6854
591.0,0.7267
592.0,0.7167
593.0,0.7283
594.0,0.7228
595.0,0.7042
596.0,0.7338
597.0,0.7254
598.0,0.7241
599.0,0.725
600.0,0.7265
601.0,0.7209
602.0,0.7161
603.0,0.7281
604.0,0.7403
605.0,0.7365
606.0,0.7337
607.0,0.7412
608.0,0.7332
609.0,0.7346
610.0,0.7296
611.0,0.7335
612.0,0.7315
613.0,0.7224
614.0,0.7127
615.0,0.7283
616.0,0.7045
617.0,0.7032
618.0,0.7303
619.0,0.723
620.0,0.7275
621.0,0.7281
622.0,0.7194
623.0,0.7083
624.0,0.6963
625.0,0.6948
626.0,0.705
627.0,0.7125
628.0,0.6603
629.0,0.6939
630.0,0.6777
631.0,0.6947
632.0,0.6867
633.0,0.7083
634.0,0.702
635.0,0.7132
636.0,0.7041
637.0,0.7159
638.0,0.7231
639.0,0.7152
640.0,0.7085
641.0,0.7083
642.0,0.7053
643.0,0.7148
644.0,0.7127
645.0,0.7137
646.0,0.6964
647.0,0.6868
648.0,0.6873
649.0,0.6739
650.0,0.679
651.0,0.7088
652.0,0.6773
653.0,0.6994
654.0,0.6918
655.0,0.6651
656.0,0.5901
657.0,0.6061
658.0,0.6798
659.0,0.6849
660.0,0.6879
661.0,0.6928
662.0,0.6938
663.0,0.6803
664.0,0.6888
665.0,0.6898
666.0,0.6905
667.0,0.69
668.0,0.6906
669.0,0.7014
670.0,0.6984
671.0,0.6984
672.0,0.6924
673.0,0.703
674.0,0.7004
675.0,0.6941
676.0,0.699
677.0,0.6921
678.0,0.6941
679.0,0.683
680.0,0.6885
681.0,0.684
682.0,0.6831
683.0,0.6818
684.0,0.6784
685.0,0.6843
686.0,0.6801
687.0,0.4295
688.0,0.5137
689.0,0.5159
690.0,0.5446
691.0,0.5772
692.0,0.6015
693.0,0.5963
694.0,0.5914
695.0,0.6186
696.0,0.6196
697.0,0.6608
698.0,0.6505
699.0,0.6327
700.0,0.625
701.0,0.6179
702.0,0.623
703.0,0.6243
704.0,0.6456
705.0,0.6465
706.0,0.6465
707.0,0.6472
708.0,0.6485
709.0,0.6503
710.0,0.6498
711.0,0.6492
712.0,0.6477
713.0,0.6408
714.0,0.6433
715.0,0.6221
716.0,0.6222
717.0,0.5316
718.0,0.4872
719.0,0.4455
720.0,0.466
721.0,0.5193
722.0,0.5993
723.0,0.5553
724.0,0.4971
725.0,0.488
726.0,0.5113
727.0,0.5206
728.0,0.4865
729.0,0.5076
730.0,0.5369
731.0,0.5129
732.0,0.5516
733.0,0.5868
734.0,0.6015
735.0,0.5887
736.0,0.5879
737.0,0.5902
738.0,0.6013
739.0,0.5894
740.0,0.6054
741.0,0.5998
742.0,0.6007
743.0,0.6161
744.0,0.6146
745.0,0.6149
746.0,0.6177
747.0,0.6191
748.0,0.6178
749.0,0.6108
750.0,0.6104
751.0,0.6043
752.0,0.6069
753.0,0.61
754.0,0.6114
755.0,0.6079
756.0,0.6077
757.0,0.6085
758.0,0.6009
759.0,0.5875
760.0,0.07797
761.0,0.03766
762.0,0.2766
763.0,0.1259
764.0,0.1998
765.0,0.2765
766.0,0.3506
767.0,0.454
768.0,0.5336
769.0,0.547
770.0,0.5681
771.0,0.5737
772.0,0.5753
773.0,0.5794
774.0,0.5767
775.0,0.5724
776.0,0.5794
777.0,0.5717
778.0,0.5683
779.0,0.5687
780.0,0.5656
781.0,0.5662
782.0,0.5697
783.0,0.5598
784.0,0.5626
785.0,0.5583
786.0,0.5644
787.0,0.5535
788.0,0.5462
789.0,0.5459
790.0,0.5299
791.0,0.5359
792.0,0.5322
793.0,0.5234
794.0,0.5338
795.0,0.5425
796.0,0.5238
797.0,0.5244
798.0,0.5416
799.0,0.5377
800.0,0.5279
801.0,0.5259
802.0,0.5244
803.0,0.5201
804.0,0.5211
805.0,0.52
806.0,0.5355
807.0,0.5288
808.0,0.5294
809.0,0.5188
810.0,0.514
811.0,0.5136
812.0,0.4977
813.0,0.4866
814.0,0.4239
815.0,0.4214
816.0,0.3918
817.0,0.3994
818.0,0.3834
819.0,0.4323
820.0,0.4058
821.0,0.4795
822.0,0.4649
823.0,0.3081
824.0,0.4495
825.0,0.471
826.0,0.4515
827.0,0.4782
828.0,0.4006
829.0,0.4491
830.0,0.4428
831.0,0.4444
832.0,0.4299
833.0,0.4598
834.0,0.4419
835.0,0.489
836.0,0.4658
837.0,0.4905
838.0,0.4741
839.0,0.4833
840.0,0.4942
841.0,0.4867
842.0,0.4885
843.0,0.4891
844.0,0.4818
845.0,0.4987
846.0,0.4966
847.0,0.4876
848.0,0.4842
849.0,0.4705
850.0,0.4508
851.0,0.4769
852.0,0.4737
853.0,0.4563
854.0,0.3937
855.0,0.4329
856.0,0.4729
857.0,0.4837
858.0,0.4801
859.0,0.4807
860.0,0.4816
861.0,0.479
862.0,0.4865
863.0,0.498
864.0,0.4732
865.0,0.469
866.0,0.4218
867.0,0.4401
868.0,0.479
869.0,0.469
870.0,0.4824
871.0,0.4759
872.0,0.4742
873.0,0.4733
874.0,0.4676
875.0,0.4581
876.0,0.4629
877.0,0.4676
878.0,0.4726
879.0,0.4653
880.0,0.4554
881.0,0.4484
882.0,0.458
883.0,0.4596
884.0,0.4574
885.0,0.4609
886.0,0.4386
887.0,0.4437
888.0,0.4499
889.0,0.4557
890.0,0.4511
891.0,0.4507
892.0,0.4368
893.0,0.422
894.0,0.405
895.0,0.38
896.0,0.357
897.0,0.3032
898.0,0.3327
899.0,0.249
900.0,0.3429
901.0,0.2611
902.0,0.3119
903.0,0.3131
904.0,0.402
905.0,0.387
906.0,0.3613
907.0,0.2882
908.0,0.2947
909.0,0.3217
910.0,0.28
911.0,0.3014
912.0,0.3159
913.0,0.284
914.0,0.2824
915.0,0.3062
916.0,0.2582
917.0,0.3323
918.0,0.2645
919.0,0.3397
920.0,0.3459
921.0,0.36
922.0,0.3185
923.0,0.348
924.0,0.326
925.0,0.3189
926.0,0.3221
927.0,0.3639
928.0,0.2576
929.0,0.2326
930.0,0.1787
931.0,0.1698
932.0,0.1181
933.0,0.09387
934.0,0.04712
935.0,0.09778
936.0,0.05825
937.0,0.05877
938.0,0.07335
939.0,0.1645
940.0,0.2009
941.0,0.1476
942.0,0.1733
943.0,0.1108
944.0,0.1197
945.0,0.153
946.0,0.07361
947.0,0.1526
948.0,0.1115
949.0,0.2084
950.0,0.05164
951.0,0.206
952.0,0.1051
953.0,0.1394
954.0,0.1751
955.0,0.1414
956.0,0.1402
957.0,0.1048
958.0,0.204
959.0,0.1573
960.0,0.1764
961.0,0.2017
962.0,0.1904
963.0,0.2228
964.0,0.2031
965.0,0.2222
966.0,0.2215
967.0,0.2202
968.0,0.3071
969.0,0.3195
970.0,0.292
971.0,0.3395
972.0,0.3237
973.0,0.2766
974.0,0.2618
975.0,0.2738
976.0,0.2571
977.0,0.2983
978.0,0.281
979.0,0.2959
980.0,0.2773
981.0,0.3377
982.0,0.321
983.0,0.307
984.0,0.3502
985.0,0.3198
986.0,0.3577
987.0,0.3491
988.0,0.3486
989.0,0.3575
990.0,0.3465
991.0,0.3584
992.0,0.3607
993.0,0.3511
994.0,0.3607
995.0,0.3605
996.0,0.3587
997.0,0.3593
998.0,0.3575
999.0,0.3563
1000.0,0.3534
1001.0,0.3582
1002.0,0.3468
1003.0,0.3518
1004.0,0.3428
1005.0,0.3308
1006.0,0.3434
1007.0,0.3509
1008.0,0.3487
1009.0,0.3465
1010.0,0.3449
1011.0,0.3491
1012.0,0.3458
1013.0,0.3484
1014.0,0.3459
1015.0,0.3436
1016.0,0.342
1017.0,0.3428
1018.0,0.3417
1019.0,0.3338
1020.0,0.3398
1021.0,0.3395
1022.0,0.3366
1023.0,0.3401
1024.0,0.3351
1025.0,0.3401
1026.0,0.3385
1027.0,0.3377
1028.0,0.337
1029.0,0.3329
1030.0,0.3354
1031.0,0.334
1032.0,0.3331
1033.0,0.3281
1034.0,0.3281
1035.0,0.3291
1036.0,0.3308
1037.0,0.3254
1038.0,0.3268
1039.0,0.3266
1040.0,0.3253
1041.0,0.3265
1042.0,0.3242
1043.0,0.3232
1044.0,0.3243
1045.0,0.3199
1046.0,0.3163
1047.0,0.3191
1048.0,0.3208
1049.0,0.3196
1050.0,0.3181
1051.0,0.3176
1052.0,0.3162
1053.0,0.3136
1054.0,0.3142
1055.0,0.3143
1056.0,0.3131
1057.0,0.3121
1058.0,0.3043
1059.0,0.3045
1060.0,0.304
1061.0,0.3036
1062.0,0.3051
1063.0,0.302
1064.0,0.3056
1065.0,0.3032
1066.0,0.2974
1067.0,0.3012
1068.0,0.2944
1069.0,0.2855
1070.0,0.295
1071.0,0.3001
1072.0,0.2962
1073.0,0.2921
1074.0,0.3002
1075.0,0.2836
1076.0,0.2999
1077.0,0.2936
1078.0,0.2877
1079.0,0.2953
1080.0,0.2891
1081.0,0.2791
1082.0,0.2849
1083.0,0.2861
1084.0,0.278
1085.0,0.2899
1086.0,0.2622
1087.0,0.2723
1088.0,0.2855
1089.0,0.2753
1090.0,0.2683
1091.0,0.2842
1092.0,0.2838
1093.0,0.2363
1094.0,0.2591
1095.0,0.2467
1096.0,0.2349
1097.0,0.2773
1098.0,0.2307
1099.0,0.2414
1100.0,0.2225
1101.0,0.2259
1102.0,0.2146
1103.0,0.2117
1104.0,0.212
1105.0,0.2355
1106.0,0.173
1107.0,0.2223
1108.0,0.1842
1109.0,0.1853
1110.0,0.2196
1111.0,0.1434
1112.0,0.1842
1113.0,0.1116
1114.0,0.1252
1115.0,0.1035
1116.0,0.0793
1117.0,0.02575
1118.0,0.08734
1119.0,0.04048
1120.0,0.05069
1121.0,0.06896
1122.0,0.02661
1123.0,0.04594
1124.0,0.03873
1125.0,0.05123
1126.0,0.0155
1127.0,0.05801
1128.0,0.03211
1129.0,0.0344
1130.0,0.02179
1131.0,0.1165
1132.0,0.09018
1133.0,0.05362
1134.0,0.01189
1135.0,0.004568
1136.0,0.0435
1137.0,0.1132
1138.0,0.07911
1139.0,0.1251
1140.0,0.1018
1141.0,0.07524
1142.0,0.08795
1143.0,0.1279
1144.0,0.04134
1145.0,0.05177
1146.0,0.0558
1147.0,0.01724
1148.0,0.1105
1149.0,0.08612
1150.0,0.04491
1151.0,0.07846
1152.0,0.09906
1153.0,0.09845
1154.0,0.04996
1155.0,0.1304
1156.0,0.116
1157.0,0.1325
1158.0,0.1311
1159.0,0.1431
1160.0,0.1205
1161.0,0.1523
1162.0,0.1528
1163.0,0.2127
1164.0,0.1802
1165.0,0.1677
1166.0,0.1683
1167.0,0.1844
1168.0,0.1859
1169.0,0.191
1170.0,0.2095
1171.0,0.2041
1172.0,0.2089
1173.0,0.2091
1174.0,0.1448
1175.0,0.2051
1176.0,0.2279
1177.0,0.2172
1178.0,0.1598
1179.0,0.2298
1180.0,0.2025
1181.0,0.2092
1182.0,0.1408
1183.0,0.2065
1184.0,0.1924
1185.0,0.1845
1186.0,0.2223
1187.0,0.2107
1188.0,0.1426
1189.0,0.1961
1190.0,0.2174
1191.0,0.2044
1192.0,0.2207
1193.0,0.2108
1194.0,0.2177
1195.0,0.2045
1196.0,0.1961
1197.0,0.2185
1198.0,0.199
1199.0,0.1664
1200.0,0.208
1201.0,0.1996
1202.0,0.1992
1203.0,0.1972
1204.0,0.171
1205.0,0.2047
1206.0,0.2276
1207.0,0.1983
1208.0,0.1961
1209.0,0.2003
1210.0,0.2093
1211.0,0.1983
1212.0,0.1945
1213.0,0.2194
1214.0,0.1997
1215.0,0.1957
1216.0,0.2188
1217.0,0.2125
1218.0,0.217
1219.0,0.2141
1220.0,0.2173
1221.0,0.2198
1222.0,0.2138
1223.0,0.2116
1224.0,0.2098
1225.0,0.2183
1226.0,0.2201
1227.0,0.2017
1228.0,0.2216
1229.0,0.2202
1230.0,0.2162
1231.0,0.2232
1232.0,0.2219
1233.0,0.213
1234.0,0.2233
1235.0,0.2217
1236.0,0.2234
1237.0,0.2198
1238.0,0.2227
1239.0,0.2198
1240.0,0.2207
1241.0,0.2194
1242.0,0.2192
1243.0,0.2174
1244.0,0.2189
1245.0,0.2199
1246.0,0.2186
1247.0,0.2177
1248.0,0.2174
1249.0,0.2182
1250.0,0.2168
1251.0,0.2138
1252.0,0.2141
1253.0,0.2119
1254.0,0.2095
1255.0,0.2137
1256.0,0.207
1257.0,0.2057
1258.0,0.2101
1259.0,0.2013
1260.0,0.2025
1261.0,0.1897
1262.0,0.1832
1263.0,0.1835
1264.0,0.1676
1265.0,0.1824
1266.0,0.1744
1267.0,0.1782
1268.0,0.1678
1269.0,0.09665
1270.0,0.1773
1271.0,0.1892
1272.0,0.19
1273.0,0.1878
1274.0,0.1886
1275.0,0.1917
1276.0,0.1938
1277.0,0.1955
1278.0,0.1998
1279.0,0.198
1280.0,0.1955
1281.0,0.1868
1282.0,0.1805
1283.0,0.1943
1284.0,0.1988
1285.0,0.2002
1286.0,0.2032
1287.0,0.1996
1288.0,0.1997
1289.0,0.1924
1290.0,0.198
1291.0,0.2009
1292.0,0.187
1293.0,0.1966
1294.0,0.1951
1295.0,0.1937
1296.0,0.1838
1297.0,0.173
1298.0,0.188
1299.0,0.197
1300.0,0.1638
1301.0,0.1694
1302.0,0.1874
1303.0,0.162
1304.0,0.1354
1305.0,0.1834
1306.0,0.1832
1307.0,0.1394
1308.0,0.1627
1309.0,0.1814
1310.0,0.1365
1311.0,0.1554
1312.0,0.1507
1313.0,0.1473
1314.0,0.1309
1315.0,0.1285
1316.0,0.1524
1317.0,0.144
1318.0,0.1577
1319.0,0.1199
1320.0,0.1169
1321.0,0.1373
1322.0,0.1381
1323.0,0.1012
1324.0,0.1177
1325.0,0.15
1326.0,0.127
1327.0,0.1206
1328.0,0.1031
1329.0,0.07496
1330.0,0.09883
1331.0,0.05677
1332.0,0.05958
1333.0,0.08355
1334.0,0.07234
1335.0,0.1007
1336.0,0.07806
1337.0,0.06832
1338.0,0.07388
1339.0,0.07398
1340.0,0.07277
1341.0,0.06915
1342.0,0.07282
1343.0,0.04572
1344.0,0.02766
1345.0,0.03994
1346.0,0.01771
1347.0,0.01764
1348.0,0.0008875
1349.0,0.003418
1350.0,0.003732
1351.0,0.0007194
1352.0,0.0001487
1353.0,5.87e-06
1354.0,2.42e-05
1355.0,1.119e-07
1356.0,2.825e-06
1357.0,4.322e-06
1358.0,1.356e-07
1359.0,1.113e-08
1360.0,5.327e-08
1361.0,2.463e-11
1362.0,4.766e-14
1363.0,6.181e-08
1364.0,2.562e-08
1365.0,1.034e-14
1366.0,3.024e-07
1367.0,1.367e-07
1368.0,3.357e-17
1369.0,9.425e-09
1370.0,3.88e-09
1371.0,1.793e-10
1372.0,7.574e-08
1373.0,2.025e-06
1374.0,1.146e-05
1375.0,2.035e-05
1376.0,2.203e-05
1377.0,9.693e-06
1378.0,0.0001019
1379.0,4.068e-06
1380.0,5.15e-06
1381.0,1.216e-07
1382.0,6.479e-08
1383.0,8.441e-10
1384.0,9.872e-09
1385.0,7.578e-08
1386.0,5.066e-08
1387.0,1.038e-05
1388.0,2.115e-07
1389.0,4.437e-05
1390.0,3.779e-05
1391.0,2.439e-05
1392.0,1.511e-06
1393.0,8.884e-06
1394.0,3.289e-06
1395.0,1.976e-08
1396.0,4.005e-11
1397.0,3.277e-06
1398.0,0.0001115
1399.0,7.147e-05
1400.0,1.362e-11
1401.0,7.847e-11
1402.0,0.0002659
1403.0,0.0003158
1404.0,9.376e-05
1405.0,8.238e-09
1406.0,0.0002214
1407.0,2.14e-05
1408.0,0.0001845
1409.0,5.266e-05
1410.0,4.762e-05
1411.0,0.0002809
1412.0,0.0004098
1413.0,0.005262
1414.0,3.844e-05
1415.0,1.714e-05
1416.0,0.01007
1417.0,0.002615
1418.0,0.002867
1419.0,0.0004288
1420.0,0.001741
1421.0,0.001915
1422.0,0.01322
1423.0,0.002458
1424.0,0.004738
1425.0,0.006729
1426.0,0.008196
1427.0,0.01631
1428.0,0.0008136
1429.0,0.01155
1430.0,0.02138
1431.0,0.02392
1432.0,0.0006331
1433.0,0.01464
1434.0,0.007161
1435.0,0.006213
1436.0,0.01342
1437.0,0.01033
