interpolation:linear
wavelength,value
280.0,1.122e-22
280.5,3.733e-21
281.0,2.011e-20
281.5,4.444e-19
282.0,5.421e-19
282.5,1.321e-18
283.0,4.155e-18
283.5,6.766e-18
284.0,1.117e-16
284.5,3.272e-16
285.0,5.748e-16
285.5,2.794e-15
286.0,1.123e-14
286.5,5.034e-14
287.0,1.445e-13
287.5,5.578e-13
288.0,1.976e-12
288.5,5.78e-12
289.0,1.51e-11
289.5,4.505e-11
290.0,1.244e-10
290.5,2.532e-10
291.0,5.431e-10
291.5,1.56e-09
292.0,3.149e-09
292.5,4.401e-09
293.0,9.395e-09
293.5,2.274e-08
294.0,3.55e-08
294.5,4.714e-08
295.0,7.963e-08
295.5,1.337e-07
296.0,2.554e-07
296.5,3.534e-07
297.0,4.735e-07
297.5,1.25e-06
298.0,1.94e-06
298.5,1.925e-06
299.0,4.184e-06
299.5,6.757e-06
300.0,7.3e-06
300.5,1.037e-05
301.0,1.811e-05
301.5,2.784e-05
302.0,2.333e-05
302.5,4.567e-05
303.0,8.265e-05
303.5,0.0001055
304.0,0.0001019
304.5,0.0001644
305.0,0.0002792
305.5,0.0003444
306.0,0.000343
306.5,0.0004486
307.0,0.0007434
307.5,0.001102
308.0,0.001184
308.5,0.001476
309.0,0.001732
309.5,0.002317
310.0,0.0025
310.5,0.004194
311.0,0.005578
311.5,0.005521
312.0,0.006257
312.5,0.008268
313.0,0.009363
313.5,0.008732
314.0,0.01205
314.5,0.01218
315.0,0.01638
315.5,0.01285
316.0,0.01248
316.5,0.01963
317.0,0.02432
317.5,0.02466
318.0,0.02046
318.5,0.02861
319.0,0.03604
319.5,0.02668
320.0,0.03176
320.5,0.04486
321.0,0.04454
321.5,0.04316
322.0,0.04093
322.5,0.03582
323.0,0.03849
323.5,0.05148
324.0,0.06087
324.5,0.05981
325.0,0.04907
325.5,0.06712
326.0,0.08475
326.5,0.08848
327.0,0.08685
327.5,0.08226
328.0,0.06928
328.5,0.07789
329.0,0.09836
329.5,0.1135
330.0,0.113
330.5,0.08682
331.0,0.08724
331.5,0.09143
332.0,0.1032
332.5,0.1042
333.0,0.1027
333.5,0.09001
334.0,0.09174
334.5,0.1099
335.0,0.1055
335.5,0.1242
336.0,0.08595
336.5,0.09888
337.0,0.07989
337.5,0.09883
338.0,0.09951
338.5,0.1162
339.0,0.1152
339.5,0.1108
340.0,0.1289
340.5,0.1166
341.0,0.1147
341.5,0.1057
342.0,0.1265
342.5,0.1185
343.0,0.1301
343.5,0.1224
344.0,0.08971
344.5,0.09119
345.0,0.1212
345.5,0.1241
346.0,0.1057
346.5,0.1198
347.0,0.1284
347.5,0.1038
348.0,0.1187
348.5,0.1189
349.0,0.1104
349.5,0.1094
350.0,0.1354
350.5,0.1429
351.0,0.1276
351.5,0.1237
352.0,0.1332
352.5,0.1041
353.0,0.1314
353.5,0.1407
354.0,0.1462
354.5,0.1483
355.0,0.1478
355.5,0.1337
356.0,0.14
356.5,0.1196
357.0,0.09887
357.5,0.1211
358.0,0.09605
358.5,0.08213
359.0,0.1149
359.5,0.1463
360.0,0.1553
360.5,0.1242
361.0,0.1134
361.5,0.1307
362.0,0.1132
362.5,0.1569
363.0,0.1411
363.5,0.1301
364.0,0.1592
364.5,0.1362
365.0,0.1388
365.5,0.1743
366.0,0.1849
366.5,0.1739
367.0,0.1695
367.5,0.176
368.0,0.1542
368.5,0.1557
369.0,0.1683
369.5,0.1795
370.0,0.1915
370.5,0.1488
371.0,0.1591
371.5,0.1992
372.0,0.1323
372.5,0.1588
373.0,0.1617
373.5,0.1053
374.0,0.1531
374.5,0.1269
375.0,0.1235
375.5,0.1844
376.0,0.153
376.5,0.1586
377.0,0.1681
377.5,0.1969
378.0,0.2135
378.5,0.2019
379.0,0.1667
379.5,0.1523
380.0,0.1585
380.5,0.1921
381.0,0.1928
381.5,0.153
382.0,0.136
382.5,0.1161
383.0,0.1076
383.5,0.1038
384.0,0.1146
384.5,0.1687
385.0,0.1674
385.5,0.1561
386.0,0.1338
386.5,0.1759
387.0,0.1463
387.5,0.1644
388.0,0.152
388.5,0.1504
389.0,0.1624
389.5,0.1969
390.0,0.1978
390.5,0.1822
391.0,0.2147
391.5,0.2191
392.0,0.1847
392.5,0.1655
393.0,0.0922
393.5,0.06709
394.0,0.1366
394.5,0.1739
395.0,0.2123
395.5,0.2158
396.0,0.1873
396.5,0.1096
397.0,0.08234
397.5,0.1676
398.0,0.2348
398.5,0.2429
399.0,0.2634
399.5,0.2627
400.0,0.2729
401.0,0.2743
402.0,0.29
403.0,0.2761
404.0,0.2722
405.0,0.2726
406.0,0.2687
407.0,0.2649
408.0,0.2755
409.0,0.2953
410.0,0.2585
411.0,0.2805
412.0,0.3019
413.0,0.2947
414.0,0.2989
415.0,0.3002
416.0,0.3061
417.0,0.2989
418.0,0.2938
419.0,0.2982
420.0,0.2972
421.0,0.3114
422.0,0.2964
423.0,0.2899
424.0,0.3069
425.0,0.3068
426.0,0.2996
427.0,0.2944
428.0,0.287
429.0,0.2726
430.0,0.2389
431.0,0.2369
432.0,0.3064
433.0,0.3085
434.0,0.2867
435.0,0.2996
436.0,0.3384
437.0,0.3346
438.0,0.3051
439.0,0.3151
440.0,0.3257
441.0,0.338
442.0,0.3629
443.0,0.3533
444.0,0.3617
445.0,0.354
446.0,0.3388
447.0,0.3671
448.0,0.3725
449.0,0.375
450.0,0.386
451.0,0.4007
452.0,0.3865
453.0,0.364
454.0,0.3807
455.0,0.3832
456.0,0.3927
457.0,0.3994
458.0,0.3854
459.0,0.3837
460.0,0.3845
461.0,0.3936
462.0,0.3973
463.0,0.3947
464.0,0.3892
465.0,0.3853
466.0,0.3898
467.0,0.3825
468.0,0.3871
469.0,0.3892
470.0,0.3767
471.0,0.3765
472.0,0.3968
473.0,0.3917
474.0,0.3918
475.0,0.3945
476.0,0.3818
477.0,0.3822
478.0,0.3931
479.0,0.3912
480.0,0.3925
481.0,0.4006
482.0,0.4035
483.0,0.3997
484.0,0.3921
485.0,0.3743
486.0,0.3279
487.0,0.3443
488.0,0.3777
489.0,0.3787
490.0,0.3989
491.0,0.3925
492.0,0.3708
493.0,0.3831
494.0,0.3872
495.0,0.3907
496.0,0.3932
497.0,0.3992
498.0,0.3804
499.0,0.3849
500.0,0.3731
501.0,0.3656
502.0,0.3593
503.0,0.3727
504.0,0.3599
505.0,0.3755
506.0,0.3875
507.0,0.369
508.0,0.3586
509.0,0.3695
510.0,0.3683
511.0,0.3789
512.0,0.3834
513.0,0.363
514.0,0.3608
515.0,0.3572
516.0,0.3562
517.0,0.3167
518.0,0.3329
519.0,0.3491
520.0,0.3616
521.0,0.3649
522.0,0.3649
523.0,0.3581
524.0,0.3703
525.0,0.3737
526.0,0.3567
527.0,0.3354
528.0,0.3541
529.0,0.3727
530.0,0.367
531.0,0.3721
532.0,0.3591
533.0,0.3486
534.0,0.3592
535.0,0.3675
536.0,0.3713
537.0,0.357
538.0,0.3635
539.0,0.3604
540.0,0.3454
541.0,0.3466
542.0,0.3569
543.0,0.3539
544.0,0.3592
545.0,0.3583
546.0,0.359
547.0,0.3596
548.0,0.3557
549.0,0.357
550.0,0.3613
551.0,0.3571
552.0,0.3596
553.0,0.353
554.0,0.3613
555.0,0.3618
556.0,0.3569
557.0,0.3455
558.0,0.3423
559.0,0.3354
560.0,0.3392
561.0,0.343
562.0,0.3399
563.0,0.3483
564.0,0.3382
565.0,0.3348
566.0,0.3293
567.0,0.3348
568.0,0.33
569.0,0.3188
570.0,0.3191
571.0,0.318
572.0,0.3233
573.0,0.3263
574.0,0.3248
575.0,0.3179
576.0,0.315
577.0,0.3188
578.0,0.315
579.0,0.3179
580.0,0.3266
581.0,0.3302
582.0,0.3382
583.0,0.3404
584.0,0.3444
585.0,0.3365
586.0,0.3297
587.0,0.3359
588.0,0.3234
589.0,0.2783
590.0,0.2916
591.0,0.3136
592.0,0.3067
593.0,0.3151
594.0,0.3114
595.0,0.3004
596.0,0.3192
597.0,0.3139
598.0,0.3152
599.0,0.3163
600.0,0.3185
601.0,0.3172
602.0,0.3153
603.0,0.3212
604.0,0.3269
605.0,0.3257
606.0,0.3251
607.0,0.3291
608.0,0.3263
609.0,0.3275
610.0,0.326
611.0,0.3282
612.0,0.3277
613.0,0.324
614.0,0.3202
615.0,0.3279
616.0,0.3176
617.0,0.3174
618.0,0.33
619.0,0.3269
620.0,0.329
621.0,0.3288
622.0,0.3245
623.0,0.3191
624.0,0.3141
625.0,0.3134
626.0,0.3178
627.0,0.3197
628.0,0.2788
629.0,0.3051
630.0,0.2974
631.0,0.3109
632.0,0.3085
633.0,0.3206
634.0,0.3198
635.0,0.3259
636.0,0.3229
637.0,0.3292
638.0,0.334
639.0,0.3311
640.0,0.3289
641.0,0.3294
642.0,0.3288
643.0,0.3333
644.0,0.3331
645.0,0.3332
646.0,0.323
647.0,0.3136
648.0,0.3143
649.0,0.3073
650.0,0.316
651.0,0.331
652.0,0.3103
653.0,0.3271
654.0,0.324
655.0,0.3084
656.0,0.2758
657.0,0.2837
658.0,0.3203
659.0,0.3235
660.0,0.3254
661.0,0.3281
662.0,0.3275
663.0,0.3215
664.0,0.3273
665.0,0.3291
666.0,0.33
667.0,0.3304
668.0,0.3314
669.0,0.3371
670.0,0.336
671.0,0.3364
672.0,0.3338
673.0,0.3392
674.0,0.3383
675.0,0.3355
676.0,0.3382
677.0,0.3351
678.0,0.3364
679.0,0.3312
680.0,0.334
681.0,0.3319
682.0,0.3316
683.0,0.331
684.0,0.3293
685.0,0.3325
686.0,0.3302
687.0,0.1406
688.0,0.1966
689.0,0.1985
690.0,0.2206
691.0,0.2472
692.0,0.269
693.0,0.2663
694.0,0.2665
695.0,0.288
696.0,0.2892
697.0,0.3187
698.0,0.3135
699.0,0.2977
700.0,0.2937
701.0,0.2872
702.0,0.2925
703.0,0.2941
704.0,0.3085
705.0,0.3088
706.0,0.3104
707.0,0.3115
708.0,0.3119
709.0,0.3159
710.0,0.3139
711.0,0.3148
712.0,0.3156
713.0,0.3107
714.0,0.3124
715.0,0.2991
716.0,0.2984
717.0,0.2293
718.0,0.2087
719.0,0.1889
720.0,0.1947
721.0,0.2312
722.0,0.2824
723.0,0.2542
724.0,0.2181
725.0,0.2113
726.0,0.2219
727.0,0.2325
728.0,0.2095
729.0,0.2274
730.0,0.2378
731.0,0.226
732.0,0.2526
733.0,0.277
734.0,0.2869
735.0,0.2792
736.0,0.2782
737.0,0.2795
738.0,0.292
739.0,0.2865
740.0,0.2964
741.0,0.2949
742.0,0.2968
743.0,0.3048
744.0,0.3049
745.0,0.3058
746.0,0.3072
747.0,0.3081
748.0,0.3076
749.0,0.3041
750.0,0.304
751.0,0.301
752.0,0.3024
753.0,0.3041
754.0,0.3048
755.0,0.303
756.0,0.303
757.0,0.3034
758.0,0.2994
759.0,0.2878
760.0,0.008112
761.0,0.002741
762.0,0.07265
763.0,0.01783
764.0,0.04
765.0,0.07242
766.0,0.1159
767.0,0.1819
768.0,0.2451
769.0,0.259
770.0,0.2781
771.0,0.285
772.0,0.2871
773.0,0.2895
774.0,0.2884
775.0,0.2865
776.0,0.2901
777.0,0.2863
778.0,0.2846
779.0,0.2848
780.0,0.2833
781.0,0.2837
782.0,0.2856
783.0,0.2807
784.0,0.2822
785.0,0.2798
786.0,0.2825
787.0,0.2734
788.0,0.2681
789.0,0.268
790.0,0.2555
791.0,0.2632
792.0,0.2621
793.0,0.2573
794.0,0.2671
795.0,0.2701
796.0,0.2541
797.0,0.2537
798.0,0.2688
799.0,0.2658
800.0,0.2594
801.0,0.2566
802.0,0.2557
803.0,0.2527
804.0,0.254
805.0,0.2555
806.0,0.2667
807.0,0.2626
808.0,0.2631
809.0,0.2551
810.0,0.2513
811.0,0.2482
812.0,0.2352
813.0,0.2286
814.0,0.1879
815.0,0.1879
816.0,0.173
817.0,0.1767
818.0,0.1671
819.0,0.1979
820.0,0.1826
821.0,0.2309
822.0,0.2214
823.0,0.1254
824.0,0.2082
825.0,0.2271
826.0,0.2126
827.0,0.2302
828.0,0.1784
829.0,0.2125
830.0,0.2086
831.0,0.2092
832.0,0.1998
833.0,0.2201
834.0,0.2074
835.0,0.2404
836.0,0.2212
837.0,0.2412
838.0,0.2291
839.0,0.2378
840.0,0.2442
841.0,0.2388
842.0,0.2423
843.0,0.2453
844.0,0.2403
845.0,0.2506
846.0,0.25
847.0,0.2463
848.0,0.2434
849.0,0.2365
850.0,0.2267
851.0,0.2385
852.0,0.2376
853.0,0.2298
854.0,0.1975
855.0,0.2183
856.0,0.238
857.0,0.2443
858.0,0.242
859.0,0.2429
860.0,0.2438
861.0,0.2423
862.0,0.2463
863.0,0.2521
864.0,0.2396
865.0,0.2377
866.0,0.2137
867.0,0.2231
868.0,0.2428
869.0,0.2378
870.0,0.2446
871.0,0.2413
872.0,0.2405
873.0,0.2401
874.0,0.2372
875.0,0.2324
876.0,0.2347
877.0,0.2372
878.0,0.2395
879.0,0.2359
880.0,0.2308
881.0,0.2267
882.0,0.2313
883.0,0.2328
884.0,0.2314
885.0,0.2331
886.0,0.2197
887.0,0.224
888.0,0.2263
889.0,0.2308
890.0,0.2263
891.0,0.2272
892.0,0.2173
893.0,0.2075
894.0,0.1933
895.0,0.1742
896.0,0.1621
897.0,0.1302
898.0,0.1462
899.0,0.1014
900.0,0.1557
901.0,0.1062
902.0,0.1374
903.0,0.134
904.0,0.1915
905.0,0.1821
906.0,0.1678
907.0,0.121
908.0,0.1268
909.0,0.1427
910.0,0.1155
911.0,0.1319
912.0,0.1378
913.0,0.1167
914.0,0.118
915.0,0.1266
916.0,0.106
917.0,0.1448
918.0,0.1077
919.0,0.1514
920.0,0.1619
921.0,0.1673
922.0,0.1417
923.0,0.1627
924.0,0.1425
925.0,0.1401
926.0,0.14
927.0,0.1643
928.0,0.0983
929.0,0.08419
930.0,0.05734
931.0,0.054
932.0,0.03107
933.0,0.0223
934.0,0.00703
935.0,0.025
936.0,0.01185
937.0,0.01196
938.0,0.01592
939.0,0.05207
940.0,0.06903
941.0,0.04439
942.0,0.055
943.0,0.03064
944.0,0.03801
945.0,0.04751
946.0,0.01714
947.0,0.04572
948.0,0.03298
949.0,0.06893
950.0,0.01018
951.0,0.06845
952.0,0.02805
953.0,0.04194
954.0,0.05821
955.0,0.04323
956.0,0.05024
957.0,0.02778
958.0,0.0781
959.0,0.05272
960.0,0.0592
961.0,0.07391
962.0,0.06973
963.0,0.08718
964.0,0.07802
965.0,0.08625
966.0,0.0859
967.0,0.08434
968.0,0.1419
969.0,0.1432
970.0,0.1294
971.0,0.161
972.0,0.1509
973.0,0.1185
974.0,0.1118
975.0,0.1197
976.0,0.1063
977.0,0.1368
978.0,0.1234
979.0,0.1326
980.0,0.1231
981.0,0.1603
982.0,0.1485
983.0,0.1401
984.0,0.1715
985.0,0.1475
986.0,0.1786
987.0,0.171
988.0,0.1711
989.0,0.1808
990.0,0.1699
991.0,0.1808
992.0,0.1824
993.0,0.174
994.0,0.1828
995.0,0.1833
996.0,0.1818
997.0,0.1824
998.0,0.1813
999.0,0.1808
1000.0,0.1784
1001.0,0.1819
1002.0,0.1721
1003.0,0.1784
1004.0,0.1728
1005.0,0.1682
1006.0,0.1739
1007.0,0.178
1008.0,0.1762
1009.0,0.1744
1010.0,0.1732
1011.0,0.1772
1012.0,0.1748
1013.0,0.1771
1014.0,0.1758
1015.0,0.1745
1016.0,0.1736
1017.0,0.1739
1018.0,0.1738
1019.0,0.1683
1020.0,0.1726
1021.0,0.1727
1022.0,0.1707
1023.0,0.1724
1024.0,0.1683
1025.0,0.1729
1026.0,0.1717
1027.0,0.1714
1028.0,0.1709
1029.0,0.1687
1030.0,0.1705
1031.0,0.1696
1032.0,0.1693
1033.0,0.1667
1034.0,0.1668
1035.0,0.1673
1036.0,0.1679
1037.0,0.1653
1038.0,0.1659
1039.0,0.1657
1040.0,0.165
1041.0,0.1655
1042.0,0.1643
1043.0,0.1637
1044.0,0.1642
1045.0,0.1618
1046.0,0.1599
1047.0,0.1612
1048.0,0.162
1049.0,0.1612
1050.0,0.1603
1051.0,0.1599
1052.0,0.1591
1053.0,0.1576
1054.0,0.1577
1055.0,0.1575
1056.0,0.1566
1057.0,0.1558
1058.0,0.1518
1059.0,0.1516
1060.0,0.1512
1061.0,0.1509
1062.0,0.1514
1063.0,0.1496
1064.0,0.1515
1065.0,0.1497
1066.0,0.1473
1067.0,0.149
1068.0,0.1453
1069.0,0.1412
1070.0,0.1456
1071.0,0.1494
1072.0,0.1465
1073.0,0.1446
1074.0,0.1502
1075.0,0.1384
1076.0,0.1498
1077.0,0.1448
1078.0,0.1408
1079.0,0.1483
1080.0,0.1425
1081.0,0.1357
1082.0,0.1417
1083.0,0.1432
1084.0,0.1345
1085.0,0.1432
1086.0,0.125
1087.0,0.1327
1088.0,0.1424
1089.0,0.1335
1090.0,0.1286
1091.0,0.1408
1092.0,0.1411
1093.0,0.1088
1094.0,0.1277
1095.0,0.1136
1096.0,0.1059
1097.0,0.1379
1098.0,0.1025
1099.0,0.1084
1100.0,0.09692
1101.0,0.0997
1102.0,0.09222
1103.0,0.08926
1104.0,0.08973
1105.0,0.105
1106.0,0.06452
1107.0,0.09686
1108.0,0.07272
1109.0,0.07411
1110.0,0.09363
1111.0,0.05105
1112.0,0.07408
1113.0,0.03591
1114.0,0.04039
1115.0,0.03245
1116.0,0.02072
1117.0,0.003946
1118.0,0.02351
1119.0,0.007951
1120.0,0.009411
1121.0,0.01415
1122.0,0.003504
1123.0,0.008623
1124.0,0.007227
1125.0,0.01034
1126.0,0.001497
1127.0,0.01188
1128.0,0.004463
1129.0,0.004927
1130.0,0.002975
1131.0,0.03147
1132.0,0.02275
1133.0,0.009873
1134.0,0.001123
1135.0,0.0005091
1136.0,0.00689
1137.0,0.02907
1138.0,0.01943
1139.0,0.04084
1140.0,0.02945
1141.0,0.01864
1142.0,0.02338
1143.0,0.03871
1144.0,0.008779
1145.0,0.009438
1146.0,0.01014
1147.0,0.001631
1148.0,0.03249
1149.0,0.0228
1150.0,0.0106
1151.0,0.01931
1152.0,0.02751
1153.0,0.02999
1154.0,0.0097
1155.0,0.0425
1156.0,0.0357
1157.0,0.04601
1158.0,0.04528
1159.0,0.05125
1160.0,0.0422
1161.0,0.05944
1162.0,0.05882
1163.0,0.09433
1164.0,0.07569
1165.0,0.06619
1166.0,0.07025
1167.0,0.07898
1168.0,0.07882
1169.0,0.08192
1170.0,0.09379
1171.0,0.09142
1172.0,0.09645
1173.0,0.09371
1174.0,0.05684
1175.0,0.09472
1176.0,0.1109
1177.0,0.1017
1178.0,0.06852
1179.0,0.1117
1180.0,0.09247
1181.0,0.09562
1182.0,0.05681
1183.0,0.09558
1184.0,0.08636
1185.0,0.0804
1186.0,0.1052
1187.0,0.09697
1188.0,0.0559
1189.0,0.08993
1190.0,0.1037
1191.0,0.09179
1192.0,0.1058
1193.0,0.09912
1194.0,0.1037
1195.0,0.09352
1196.0,0.08771
1197.0,0.1054
1198.0,0.09473
1199.0,0.07155
1200.0,0.09788
1201.0,0.09092
1202.0,0.09356
1203.0,0.09064
1204.0,0.07578
1205.0,0.09809
1206.0,0.1127
1207.0,0.09185
1208.0,0.09319
1209.0,0.09545
1210.0,0.1016
1211.0,0.09367
1212.0,0.0871
1213.0,0.1063
1214.0,0.09108
1215.0,0.08897
1216.0,0.1067
1217.0,0.1022
1218.0,0.1056
1219.0,0.1032
1220.0,0.106
1221.0,0.1082
1222.0,0.1047
1223.0,0.1029
1224.0,0.1002
1225.0,0.1071
1226.0,0.1094
1227.0,0.09585
1228.0,0.1109
1229.0,0.1094
1230.0,0.1066
1231.0,0.1128
1232.0,0.112
1233.0,0.1039
1234.0,0.1137
1235.0,0.1123
1236.0,0.1137
1237.0,0.1104
1238.0,0.1133
1239.0,0.1118
1240.0,0.1125
1241.0,0.1108
1242.0,0.1116
1243.0,0.1107
1244.0,0.1112
1245.0,0.1119
1246.0,0.1113
1247.0,0.1105
1248.0,0.1098
1249.0,0.1107
1250.0,0.1097
1251.0,0.1075
1252.0,0.1085
1253.0,0.1059
1254.0,0.1036
1255.0,0.1079
1256.0,0.1018
1257.0,0.1006
1258.0,0.1049
1259.0,0.09646
1260.0,0.09754
1261.0,0.08646
1262.0,0.08103
1263.0,0.08104
1264.0,0.06868
1265.0,0.08063
1266.0,0.07389
1267.0,0.07775
1268.0,0.06971
1269.0,0.02399
1270.0,0.07645
1271.0,0.08693
1272.0,0.08776
1273.0,0.08619
1274.0,0.08734
1275.0,0.0896
1276.0,0.0916
1277.0,0.09373
1278.0,0.09772
1279.0,0.09677
1280.0,0.09566
1281.0,0.09235
1282.0,0.09077
1283.0,0.09738
1284.0,0.0994
1285.0,0.1004
1286.0,0.1027
1287.0,0.0993
1288.0,0.09988
1289.0,0.09315
1290.0,0.09915
1291.0,0.1012
1292.0,0.08881
1293.0,0.09781
1294.0,0.09688
1295.0,0.09415
1296.0,0.08623
1297.0,0.07908
1298.0,0.0908
1299.0,0.09846
1300.0,0.07421
1301.0,0.07791
1302.0,0.09074
1303.0,0.07402
1304.0,0.0553
1305.0,0.08845
1306.0,0.08737
1307.0,0.05934
1308.0,0.07552
1309.0,0.08511
1310.0,0.05736
1311.0,0.07048
1312.0,0.06768
1313.0,0.0641
1314.0,0.05442
1315.0,0.05212
1316.0,0.06782
1317.0,0.06296
1318.0,0.07195
1319.0,0.04695
1320.0,0.04709
1321.0,0.05829
1322.0,0.05703
1323.0,0.03572
1324.0,0.04649
1325.0,0.06555
1326.0,0.05179
1327.0,0.04802
1328.0,0.03876
1329.0,0.02323
1330.0,0.03353
1331.0,0.01458
1332.0,0.01643
1333.0,0.0239
1334.0,0.02436
1335.0,0.03475
1336.0,0.02397
1337.0,0.02064
1338.0,0.02185
1339.0,0.02241
1340.0,0.02352
1341.0,0.01882
1342.0,0.02039
1343.0,0.008526
1344.0,0.005606
1345.0,0.007501
1346.0,0.001778
1347.0,0.001534
1348.0,2.566e-05
1349.0,0.0001191
1350.0,0.0001466
1351.0,1.139e-05
1352.0,1.204e-06
1353.0,5.258e-08
1354.0,2.089e-07
1355.0,1.371e-09
1356.0,2.552e-08
1357.0,3.864e-08
1358.0,1.612e-09
1359.0,2.017e-10
1360.0,7.304e-10
1361.0,8.151e-13
1362.0,2.23e-15
1363.0,9.801e-10
1364.0,4.048e-10
1365.0,7.785e-16
1366.0,4.249e-09
1367.0,1.738e-09
1368.0,6.011e-18
1369.0,1.492e-10
1370.0,7.342e-11
1371.0,4.161e-12
1372.0,9.435e-10
1373.0,1.933e-08
1374.0,9.467e-08
1375.0,1.66e-07
1376.0,1.828e-07
1377.0,8.056e-08
1378.0,7.759e-07
1379.0,3.464e-08
1380.0,4.263e-08
1381.0,1.094e-09
1382.0,8.259e-10
1383.0,1.234e-11
1384.0,1.615e-10
1385.0,7.838e-10
1386.0,7.269e-10
1387.0,8.95e-08
1388.0,1.852e-09
1389.0,3.354e-07
1390.0,2.794e-07
1391.0,1.871e-07
1392.0,1.236e-08
1393.0,7.06e-08
1394.0,3.038e-08
1395.0,2.212e-10
1396.0,1.061e-12
1397.0,2.604e-08
1398.0,7.931e-07
1399.0,5.155e-07
1400.0,4.537e-13
1401.0,1.882e-12
1402.0,3.931e-06
1403.0,3.513e-06
1404.0,8.949e-07
1405.0,1.042e-10
1406.0,1.65e-06
1407.0,2.773e-07
1408.0,1.43e-06
1409.0,3.653e-07
1410.0,4.098e-07
1411.0,3.3e-06
1412.0,6.566e-06
1413.0,0.0001715
1414.0,3.524e-07
1415.0,1.42e-07
1416.0,0.0008045
1417.0,0.0001278
1418.0,8.3e-05
1419.0,1.117e-05
1420.0,4.973e-05
1421.0,8.587e-05
1422.0,0.00104
