interpolation:linear
wavelength,value
280.0,1.9580000000000002e-20
280.5,5.719e-19
281.0,2.95e-18
281.5,4.142e-19
282.0,1.625e-18
282.5,4.495e-18
283.0,1.482e-17
283.5,2.439e-17
284.0,3.877e-16
284.5,1.1e-15
285.0,1.951e-15
285.5,1.095e-14
286.0,4.539e-14
286.5,2.093e-13
287.0,6.047e-13
287.5,2.323e-12
288.0,6.633e-12
288.5,2.533e-11
289.0,8.169e-11
289.5,2.933e-10
290.0,9.235e-10
290.5,2.081e-09
291.0,4.993e-09
291.5,1.637e-08
292.0,4.452e-08
292.5,7.061e-08
293.0,1.774e-07
293.5,5.402e-07
294.0,9.998e-07
294.5,1.329e-06
295.0,2.653e-06
295.5,6.849e-06
296.0,1.333e-05
296.5,1.881e-05
297.0,2.563e-05
297.5,6.939e-05
298.0,0.0001102
298.5,0.0001115
299.0,0.0002473
299.5,0.0004141
300.0,0.0004582
300.5,0.0006678
301.0,0.001222
301.5,0.001972
302.0,0.001701
302.5,0.00325
303.0,0.005667
303.5,0.006997
304.0,0.006481
304.5,0.009311
305.0,0.01338
305.5,0.01482
306.0,0.01416
306.5,0.01726
307.0,0.02442
307.5,0.03102
308.0,0.03253
308.5,0.03758
309.0,0.03646
309.5,0.04046
310.0,0.04007
310.5,0.06443
311.0,0.07991
311.5,0.07674
312.0,0.07474
312.5,0.08936
313.0,0.09603
313.5,0.09405
314.0,0.1151
314.5,0.09922
315.0,0.1297
315.5,0.11
316.0,0.09388
316.5,0.1321
317.0,0.1641
317.5,0.1718
318.0,0.1322
318.5,0.1598
319.0,0.1871
319.5,0.1558
320.0,0.1889
320.5,0.2301
321.0,0.2
321.5,0.1913
322.0,0.2093
322.5,0.1818
323.0,0.178
323.5,0.2152
324.0,0.2505
324.5,0.2561
325.0,0.2233
325.5,0.2831
326.0,0.3448
326.5,0.3421
327.0,0.3421
327.5,0.3318
328.0,0.2991
328.5,0.3097
329.0,0.3665
329.5,0.4145
330.0,0.4193
330.5,0.3387
331.0,0.3461
331.5,0.3494
332.0,0.3737
332.5,0.368
333.0,0.3679
333.5,0.3354
334.0,0.344
334.5,0.3937
335.0,0.3682
335.5,0.43
336.0,0.2975
336.5,0.3492
337.0,0.2875
337.5,0.358
338.0,0.3472
338.5,0.4007
339.0,0.3965
339.5,0.3814
340.0,0.4483
340.5,0.4039
341.0,0.3939
341.5,0.3616
342.0,0.4321
342.5,0.4042
343.0,0.4446
343.5,0.4187
344.0,0.3094
344.5,0.3126
345.0,0.4135
345.5,0.4221
346.0,0.3587
346.5,0.4061
347.0,0.4361
347.5,0.3526
348.0,0.4019
348.5,0.4017
349.0,0.3726
349.5,0.3689
350.0,0.4563
350.5,0.4813
351.0,0.43
351.5,0.418
352.0,0.4489
352.5,0.3503
353.0,0.4411
353.5,0.4717
354.0,0.4897
354.5,0.4966
355.0,0.495
355.5,0.4472
356.0,0.4678
356.5,0.3995
357.0,0.3301
357.5,0.4041
358.0,0.3203
358.5,0.2737
359.0,0.3829
359.5,0.488
360.0,0.5173
360.5,0.4135
361.0,0.3769
361.5,0.4339
362.0,0.3752
362.5,0.5193
363.0,0.4664
363.5,0.4296
364.0,0.5254
364.5,0.4491
365.0,0.4574
365.5,0.5742
366.0,0.6083
366.5,0.5716
367.0,0.5567
367.5,0.5777
368.0,0.5056
368.5,0.5102
369.0,0.551
369.5,0.5873
370.0,0.6261
370.5,0.4859
371.0,0.5193
371.5,0.6497
372.0,0.4312
372.5,0.5171
373.0,0.526
373.5,0.3423
374.0,0.4973
374.5,0.4119
375.0,0.4004
375.5,0.5979
376.0,0.4956
376.5,0.5137
377.0,0.5439
377.5,0.6363
378.0,0.6898
378.5,0.6521
379.0,0.5382
379.5,0.4916
380.0,0.5112
380.5,0.6192
381.0,0.6205
381.5,0.4919
382.0,0.4369
382.5,0.3724
383.0,0.3448
383.5,0.3321
384.0,0.3664
384.5,0.5389
385.0,0.5345
385.5,0.4978
386.0,0.4263
386.5,0.5601
387.0,0.4654
387.5,0.5228
388.0,0.4827
388.5,0.4772
389.0,0.5151
389.5,0.624
390.0,0.6263
390.5,0.5764
391.0,0.6785
391.5,0.6921
392.0,0.583
392.5,0.5219
393.0,0.2904
393.5,0.2111
394.0,0.4296
394.5,0.5463
395.0,0.6666
395.5,0.6772
396.0,0.5872
396.5,0.3433
397.0,0.2576
397.5,0.524
398.0,0.7338
398.5,0.7586
399.0,0.8214
399.5,0.8188
400.0,0.8503
401.0,0.8635
402.0,0.911
403.0,0.8655
404.0,0.8522
405.0,0.8522
406.0,0.8383
407.0,0.8248
408.0,0.8572
409.0,0.9175
410.0,0.8017
411.0,0.8684
412.0,0.9327
413.0,0.9096
414.0,0.9208
415.0,0.9232
416.0,0.9393
417.0,0.9163
418.0,0.8994
419.0,0.9112
420.0,0.9073
421.0,0.9492
422.0,0.9022
423.0,0.8813
424.0,0.9322
425.0,0.9305
426.0,0.9063
427.0,0.8894
428.0,0.8664
429.0,0.8205
430.0,0.7181
431.0,0.7118
432.0,0.919
433.0,0.9241
434.0,0.8581
435.0,0.8962
436.0,1.01
437.0,0.996
438.0,0.9069
439.0,0.9383
440.0,0.9681
441.0,1.003
442.0,1.076
443.0,1.048
444.0,1.071
445.0,1.047
446.0,0.9995
447.0,1.08
448.0,1.097
449.0,1.101
450.0,1.132
451.0,1.174
452.0,1.131
453.0,1.064
454.0,1.11
455.0,1.117
456.0,1.144
457.0,1.163
458.0,1.123
459.0,1.118
460.0,1.121
461.0,1.146
462.0,1.155
463.0,1.147
464.0,1.128
465.0,1.113
466.0,1.124
467.0,1.104
468.0,1.117
469.0,1.122
470.0,1.087
471.0,1.085
472.0,1.144
473.0,1.129
474.0,1.131
475.0,1.141
476.0,1.107
477.0,1.11
478.0,1.141
479.0,1.134
480.0,1.136
481.0,1.157
482.0,1.162
483.0,1.148
484.0,1.124
485.0,1.071
486.0,0.9361
487.0,0.9809
488.0,1.076
489.0,1.08
490.0,1.136
491.0,1.116
492.0,1.054
493.0,1.088
494.0,1.099
495.0,1.108
496.0,1.115
497.0,1.133
498.0,1.08
499.0,1.094
500.0,1.062
501.0,1.043
502.0,1.028
503.0,1.071
504.0,1.044
505.0,1.081
506.0,1.116
507.0,1.062
508.0,1.028
509.0,1.057
510.0,1.051
511.0,1.079
512.0,1.091
513.0,1.032
514.0,1.025
515.0,1.015
516.0,1.012
517.0,0.8995
518.0,0.9457
519.0,0.992
520.0,1.028
521.0,1.038
522.0,1.039
523.0,1.02
524.0,1.057
525.0,1.07
526.0,1.022
527.0,0.9632
528.0,1.019
529.0,1.074
530.0,1.059
531.0,1.075
532.0,1.038
533.0,1.007
534.0,1.037
535.0,1.059
536.0,1.069
537.0,1.027
538.0,1.045
539.0,1.036
540.0,0.9934
541.0,1.0
542.0,1.032
543.0,1.021
544.0,1.039
545.0,1.035
546.0,1.04
547.0,1.04
548.0,1.027
549.0,1.03
550.0,1.042
551.0,1.03
552.0,1.037
553.0,1.018
554.0,1.043
555.0,1.045
556.0,1.031
557.0,0.9992
558.0,0.9918
559.0,0.9735
560.0,0.9858
561.0,0.9987
562.0,0.9916
563.0,1.019
564.0,0.9914
565.0,0.983
566.0,0.9687
567.0,0.9872
568.0,0.9789
569.0,0.9567
570.0,0.9563
571.0,0.9503
572.0,0.9738
573.0,0.9843
574.0,0.9813
575.0,0.9632
576.0,0.9544
577.0,0.9647
578.0,0.9499
579.0,0.9532
580.0,0.9706
581.0,0.9751
582.0,0.9931
583.0,0.9951
584.0,1.003
585.0,0.9788
586.0,0.9587
587.0,0.98
588.0,0.9575
589.0,0.8508
590.0,0.8895
591.0,0.9398
592.0,0.9288
593.0,0.9414
594.0,0.9354
595.0,0.9131
596.0,0.9471
597.0,0.9373
598.0,0.9343
599.0,0.9349
600.0,0.9358
601.0,0.9277
602.0,0.9214
603.0,0.9364
604.0,0.9518
605.0,0.9468
606.0,0.9427
607.0,0.9518
608.0,0.9411
609.0,0.9425
610.0,0.9356
611.0,0.9404
612.0,0.9375
613.0,0.9256
614.0,0.9128
615.0,0.9325
616.0,0.9016
617.0,0.8997
618.0,0.9342
619.0,0.9247
620.0,0.9306
621.0,0.9316
622.0,0.9209
623.0,0.907
624.0,0.8913
625.0,0.8893
626.0,0.9025
627.0,0.913
628.0,0.858
629.0,0.8933
630.0,0.8729
631.0,0.8908
632.0,0.8798
633.0,0.9058
634.0,0.8964
635.0,0.9101
636.0,0.8977
637.0,0.9122
638.0,0.9206
639.0,0.9101
640.0,0.901
641.0,0.9002
642.0,0.896
643.0,0.908
644.0,0.9048
645.0,0.9064
646.0,0.8859
647.0,0.8768
648.0,0.8778
649.0,0.8609
650.0,0.8632
651.0,0.9002
652.0,0.8648
653.0,0.8882
654.0,0.8782
655.0,0.8465
656.0,0.7495
657.0,0.7696
658.0,0.8619
659.0,0.8678
660.0,0.8714
661.0,0.8774
662.0,0.8796
663.0,0.862
664.0,0.8717
665.0,0.8721
666.0,0.8725
667.0,0.8715
668.0,0.8717
669.0,0.8851
670.0,0.8812
671.0,0.8809
672.0,0.8733
673.0,0.8863
674.0,0.883
675.0,0.8748
676.0,0.8808
677.0,0.872
678.0,0.8744
679.0,0.8602
680.0,0.867
681.0,0.8613
682.0,0.8602
683.0,0.8585
684.0,0.8543
685.0,0.8615
686.0,0.8564
687.0,0.5913
688.0,0.6821
689.0,0.6842
690.0,0.714
691.0,0.7474
692.0,0.7714
693.0,0.7654
694.0,0.759
695.0,0.7877
696.0,0.7888
697.0,0.8336
698.0,0.8207
699.0,0.8033
700.0,0.7937
701.0,0.7864
702.0,0.7909
703.0,0.7924
704.0,0.8164
705.0,0.8176
706.0,0.8164
707.0,0.8168
708.0,0.8186
709.0,0.8189
710.0,0.8193
711.0,0.8179
712.0,0.8151
713.0,0.8072
714.0,0.8102
715.0,0.7854
716.0,0.7861
717.0,0.6901
718.0,0.6352
719.0,0.5827
720.0,0.611
721.0,0.6694
722.0,0.7603
723.0,0.7107
724.0,0.6436
725.0,0.6344
726.0,0.6635
727.0,0.671
728.0,0.6332
729.0,0.6539
730.0,0.6919
731.0,0.6629
732.0,0.706
733.0,0.7443
734.0,0.7611
735.0,0.7458
736.0,0.7448
737.0,0.7479
738.0,0.7574
739.0,0.7425
740.0,0.7612
741.0,0.7533
742.0,0.7536
743.0,0.7727
744.0,0.7703
745.0,0.7703
746.0,0.7738
747.0,0.7754
748.0,0.7738
749.0,0.7649
750.0,0.7645
751.0,0.7567
752.0,0.7599
753.0,0.7638
754.0,0.7655
755.0,0.7612
756.0,0.7608
757.0,0.7619
758.0,0.7525
759.0,0.7384
760.0,0.144
761.0,0.07987
762.0,0.3999
763.0,0.2123
764.0,0.3081
765.0,0.4
766.0,0.4807
767.0,0.5964
768.0,0.6801
769.0,0.6926
770.0,0.7141
771.0,0.7189
772.0,0.7202
773.0,0.7251
774.0,0.7216
775.0,0.716
776.0,0.7247
777.0,0.7152
778.0,0.7108
779.0,0.7114
780.0,0.7074
781.0,0.7081
782.0,0.7125
783.0,0.7001
784.0,0.7034
785.0,0.6983
786.0,0.7061
787.0,0.6946
788.0,0.6864
789.0,0.6862
790.0,0.6692
791.0,0.6738
792.0,0.6686
793.0,0.658
794.0,0.6679
795.0,0.6795
796.0,0.6604
797.0,0.6612
798.0,0.6789
799.0,0.6749
800.0,0.6636
801.0,0.6619
802.0,0.66
803.0,0.6551
804.0,0.6558
805.0,0.6533
806.0,0.6708
807.0,0.6629
808.0,0.6635
809.0,0.6516
810.0,0.6467
811.0,0.6484
812.0,0.631
813.0,0.6186
814.0,0.5481
815.0,0.5446
816.0,0.5074
817.0,0.5162
818.0,0.4978
819.0,0.5531
820.0,0.5222
821.0,0.6058
822.0,0.5892
823.0,0.408
824.0,0.5737
825.0,0.5955
826.0,0.5743
827.0,0.6046
828.0,0.5167
829.0,0.5705
830.0,0.5635
831.0,0.5653
832.0,0.5487
833.0,0.5817
834.0,0.5625
835.0,0.615
836.0,0.5905
837.0,0.6166
838.0,0.5982
839.0,0.6071
840.0,0.6202
841.0,0.6117
842.0,0.6125
843.0,0.6117
844.0,0.6034
845.0,0.6234
846.0,0.6206
847.0,0.6089
848.0,0.6053
849.0,0.5881
850.0,0.5635
851.0,0.5968
852.0,0.5925
853.0,0.5701
854.0,0.4924
855.0,0.5408
856.0,0.5911
857.0,0.6041
858.0,0.5997
859.0,0.6001
860.0,0.6011
861.0,0.5979
862.0,0.6072
863.0,0.6216
864.0,0.5905
865.0,0.5853
866.0,0.5263
867.0,0.5492
868.0,0.5976
869.0,0.5852
870.0,0.6019
871.0,0.5937
872.0,0.5916
873.0,0.5904
874.0,0.5834
875.0,0.5716
876.0,0.5775
877.0,0.5834
878.0,0.5897
879.0,0.5807
880.0,0.5682
881.0,0.5598
882.0,0.5719
883.0,0.5736
884.0,0.571
885.0,0.5753
886.0,0.5487
887.0,0.5542
888.0,0.5626
889.0,0.5687
890.0,0.5643
891.0,0.5631
892.0,0.5473
893.0,0.5307
894.0,0.5131
895.0,0.4862
896.0,0.4586
897.0,0.3957
898.0,0.4308
899.0,0.3298
900.0,0.44
901.0,0.3456
902.0,0.4027
903.0,0.4077
904.0,0.5093
905.0,0.4923
906.0,0.4612
907.0,0.3773
908.0,0.3844
909.0,0.4152
910.0,0.3694
911.0,0.3923
912.0,0.4097
913.0,0.375
914.0,0.3714
915.0,0.4024
916.0,0.3412
917.0,0.4308
918.0,0.3499
919.0,0.438
920.0,0.4413
921.0,0.4588
922.0,0.4117
923.0,0.4431
924.0,0.4221
925.0,0.4129
926.0,0.4174
927.0,0.4659
928.0,0.3458
929.0,0.3167
930.0,0.2504
931.0,0.237
932.0,0.1722
933.0,0.1407
934.0,0.07874
935.0,0.1433
936.0,0.09049
937.0,0.09183
938.0,0.1126
939.0,0.2296
940.0,0.2752
941.0,0.2091
942.0,0.2412
943.0,0.1597
944.0,0.1672
945.0,0.2153
946.0,0.1109
947.0,0.2166
948.0,0.1593
949.0,0.2887
950.0,0.0822
951.0,0.284
952.0,0.1543
953.0,0.1982
954.0,0.2417
955.0,0.2003
956.0,0.1938
957.0,0.1547
958.0,0.2729
959.0,0.2181
960.0,0.2445
961.0,0.2733
962.0,0.2587
963.0,0.2974
964.0,0.2727
965.0,0.2962
966.0,0.2964
967.0,0.2953
968.0,0.3928
969.0,0.4106
970.0,0.3774
971.0,0.4307
972.0,0.4122
973.0,0.3603
974.0,0.3421
975.0,0.3546
976.0,0.3375
977.0,0.3826
978.0,0.3641
979.0,0.3809
980.0,0.3584
981.0,0.4281
982.0,0.4099
983.0,0.3938
984.0,0.4406
985.0,0.4083
986.0,0.448
987.0,0.4396
988.0,0.4388
989.0,0.4464
990.0,0.4361
991.0,0.4478
992.0,0.4503
993.0,0.4407
994.0,0.4502
995.0,0.4496
996.0,0.4476
997.0,0.4482
998.0,0.4462
999.0,0.4445
1000.0,0.4415
1001.0,0.4469
1002.0,0.4349
1003.0,0.439
1004.0,0.4283
1005.0,0.4125
1006.0,0.4287
1007.0,0.4378
1008.0,0.4355
1009.0,0.4332
1010.0,0.4314
1011.0,0.4355
1012.0,0.4318
1013.0,0.4345
1014.0,0.4314
1015.0,0.4286
1016.0,0.4267
1017.0,0.4277
1018.0,0.4261
1019.0,0.4171
1020.0,0.4239
1021.0,0.4233
1022.0,0.42
1023.0,0.4245
1024.0,0.4191
1025.0,0.4242
1026.0,0.4224
1027.0,0.4214
1028.0,0.4205
1029.0,0.4156
1030.0,0.4184
1031.0,0.4167
1032.0,0.4155
1033.0,0.4092
1034.0,0.4092
1035.0,0.4105
1036.0,0.4127
1037.0,0.4059
1038.0,0.4077
1039.0,0.4075
1040.0,0.4059
1041.0,0.4075
1042.0,0.4047
1043.0,0.4034
1044.0,0.4048
1045.0,0.3993
1046.0,0.3949
1047.0,0.3985
1048.0,0.4007
1049.0,0.3992
1050.0,0.3974
1051.0,0.3969
1052.0,0.3953
1053.0,0.3921
1054.0,0.393
1055.0,0.3932
1056.0,0.3919
1057.0,0.3907
1058.0,0.3811
1059.0,0.3815
1060.0,0.3809
1061.0,0.3805
1062.0,0.3825
1063.0,0.3787
1064.0,0.3832
1065.0,0.3805
1066.0,0.373
1067.0,0.3778
1068.0,0.3696
1069.0,0.3581
1070.0,0.3703
1071.0,0.376
1072.0,0.3717
1073.0,0.3663
1074.0,0.3757
1075.0,0.3572
1076.0,0.3754
1077.0,0.3689
1078.0,0.362
1079.0,0.3693
1080.0,0.3632
1081.0,0.3517
1082.0,0.3571
1083.0,0.3581
1084.0,0.3509
1085.0,0.364
1086.0,0.3326
1087.0,0.343
1088.0,0.3578
1089.0,0.3471
1090.0,0.3397
1091.0,0.3567
1092.0,0.3557
1093.0,0.3026
1094.0,0.3256
1095.0,0.3151
1096.0,0.302
1097.0,0.3475
1098.0,0.2974
1099.0,0.3101
1100.0,0.2886
1101.0,0.2921
1102.0,0.2793
1103.0,0.2767
1104.0,0.2771
1105.0,0.303
1106.0,0.2334
1107.0,0.2881
1108.0,0.2452
1109.0,0.2455
1110.0,0.2857
1111.0,0.1951
1112.0,0.2435
1113.0,0.1563
1114.0,0.1746
1115.0,0.1448
1116.0,0.1163
1117.0,0.04353
1118.0,0.1263
1119.0,0.06331
1120.0,0.07973
1121.0,0.1054
1122.0,0.0449
1123.0,0.07202
1124.0,0.0608
1125.0,0.07917
1126.0,0.02807
1127.0,0.08926
1128.0,0.05395
1129.0,0.05717
1130.0,0.03783
1131.0,0.168
1132.0,0.132
1133.0,0.08436
1134.0,0.02196
1135.0,0.008208
1136.0,0.07062
1137.0,0.1652
1138.0,0.1165
1139.0,0.1724
1140.0,0.1446
1141.0,0.1107
1142.0,0.1271
1143.0,0.1799
1144.0,0.06352
1145.0,0.08135
1146.0,0.08775
1147.0,0.03139
1148.0,0.1557
1149.0,0.1248
1150.0,0.06826
1151.0,0.1156
1152.0,0.1418
1153.0,0.1378
1154.0,0.07893
1155.0,0.1798
1156.0,0.1622
1157.0,0.1816
1158.0,0.1796
1159.0,0.1933
1160.0,0.1657
1161.0,0.2031
1162.0,0.2042
1163.0,0.2738
1164.0,0.2356
1165.0,0.223
1166.0,0.2209
1167.0,0.2402
1168.0,0.243
1169.0,0.2485
1170.0,0.2694
1171.0,0.2628
1172.0,0.2671
1173.0,0.2689
1174.0,0.194
1175.0,0.2623
1176.0,0.2873
1177.0,0.2765
1178.0,0.2092
1179.0,0.2896
1180.0,0.2597
1181.0,0.2679
1182.0,0.1866
1183.0,0.2635
1184.0,0.2475
1185.0,0.2394
1186.0,0.282
1187.0,0.2692
1188.0,0.1899
1189.0,0.2509
1190.0,0.2756
1191.0,0.2627
1192.0,0.2793
1193.0,0.268
1194.0,0.276
1195.0,0.2618
1196.0,0.2526
1197.0,0.2758
1198.0,0.2528
1199.0,0.2167
1200.0,0.2647
1201.0,0.2559
1202.0,0.254
1203.0,0.252
1204.0,0.2212
1205.0,0.2595
1206.0,0.2857
1207.0,0.2536
1208.0,0.2491
1209.0,0.2541
1210.0,0.2643
1211.0,0.2523
1212.0,0.2501
1213.0,0.2766
1214.0,0.2557
1215.0,0.251
1216.0,0.2757
1217.0,0.2688
1218.0,0.2735
1219.0,0.2703
1220.0,0.2737
1221.0,0.2763
1222.0,0.2693
1223.0,0.2669
1224.0,0.2656
1225.0,0.2745
1226.0,0.2761
1227.0,0.2557
1228.0,0.2773
1229.0,0.2762
1230.0,0.2716
1231.0,0.2788
1232.0,0.2771
1233.0,0.2684
1234.0,0.2784
1235.0,0.2767
1236.0,0.2786
1237.0,0.2751
1238.0,0.2777
1239.0,0.2741
1240.0,0.2752
1241.0,0.274
1242.0,0.2733
1243.0,0.271
1244.0,0.273
1245.0,0.2742
1246.0,0.2726
1247.0,0.2716
1248.0,0.2715
1249.0,0.2722
1250.0,0.2706
1251.0,0.2673
1252.0,0.2672
1253.0,0.2653
1254.0,0.2628
1255.0,0.267
1256.0,0.26
1257.0,0.2586
1258.0,0.2631
1259.0,0.2543
1260.0,0.2555
1261.0,0.2421
1262.0,0.2353
1263.0,0.2358
1264.0,0.2188
1265.0,0.2343
1266.0,0.2261
1267.0,0.2296
1268.0,0.2185
1269.0,0.1404
1270.0,0.229
1271.0,0.2412
1272.0,0.2419
1273.0,0.2394
1274.0,0.24
1275.0,0.2433
1276.0,0.2455
1277.0,0.2469
1278.0,0.2513
1279.0,0.2491
1280.0,0.2459
1281.0,0.2344
1282.0,0.2256
1283.0,0.243
1284.0,0.2489
1285.0,0.2505
1286.0,0.2537
1287.0,0.2501
1288.0,0.25
1289.0,0.2426
1290.0,0.2477
1291.0,0.2511
1292.0,0.237
1293.0,0.2465
1294.0,0.2448
1295.0,0.2439
1296.0,0.2335
1297.0,0.2214
1298.0,0.2373
1299.0,0.2467
1300.0,0.2106
1301.0,0.2168
1302.0,0.2365
1303.0,0.2077
1304.0,0.1788
1305.0,0.2317
1306.0,0.2319
1307.0,0.1821
1308.0,0.2077
1309.0,0.2302
1310.0,0.1787
1311.0,0.1995
1312.0,0.1944
1313.0,0.1909
1314.0,0.1715
1315.0,0.1696
1316.0,0.1967
1317.0,0.1865
1318.0,0.202
1319.0,0.1598
1320.0,0.1544
1321.0,0.1792
1322.0,0.1813
1323.0,0.1379
1324.0,0.1567
1325.0,0.1939
1326.0,0.1674
1327.0,0.1599
1328.0,0.1384
1329.0,0.1051
1330.0,0.1363
1331.0,0.08363
1332.0,0.0859
1333.0,0.1192
1334.0,0.1003
1335.0,0.1374
1336.0,0.1094
1337.0,0.09708
1338.0,0.105
1339.0,0.1044
1340.0,0.1012
1341.0,0.09961
1342.0,0.1046
1343.0,0.0724
1344.0,0.04327
1345.0,0.0623
1346.0,0.03195
1347.0,0.03265
1348.0,0.002302
1349.0,0.008077
1350.0,0.008249
1351.0,0.002162
1352.0,0.0006339
1353.0,3.546e-05
1354.0,0.0001152
1355.0,1.122e-06
1356.0,1.744e-05
1357.0,2.651e-05
1358.0,1.319e-06
1359.0,1.918e-07
1360.0,6.352e-07
1361.0,9.611e-10
1362.0,3.001e-12
1363.0,8.97e-07
1364.0,3.75e-07
1365.0,1.243e-12
1366.0,3.777e-06
1367.0,1.511e-06
1368.0,1.332e-14
1369.0,1.414e-07
1370.0,7.406e-08
1371.0,4.534e-09
1372.0,8.316e-07
1373.0,1.526e-05
1374.0,6.648e-05
1375.0,0.0001211
1376.0,0.0001033
1377.0,4.804e-05
1378.0,0.0004569
1379.0,2.025e-05
1380.0,3.035e-05
1381.0,8.262e-07
1382.0,7.629e-07
1383.0,1.209e-08
1384.0,1.638e-07
1385.0,6.752e-07
1386.0,7.088e-07
1387.0,7.172e-05
1388.0,1.422e-06
1389.0,0.0002268
1390.0,0.0001953
1391.0,0.0001322
1392.0,8.798e-06
1393.0,4.508e-05
1394.0,2.586e-05
1395.0,2.055e-07
1396.0,1.33e-09
1397.0,1.844e-05
1398.0,0.0005168
1399.0,0.0003274
1400.0,6.222e-10
1401.0,2.326e-09
1402.0,0.000837
1403.0,0.001069
1404.0,0.0003281
1405.0,1.054e-07
1406.0,0.0008769
1407.0,7.61e-05
1408.0,0.0007141
1409.0,0.0002511
1410.0,0.0001953
1411.0,0.0009371
1412.0,0.001238
1413.0,0.01201
1414.0,0.0001533
1415.0,7.52e-05
1416.0,0.01919
1417.0,0.005951
1418.0,0.0068
1419.0,0.001062
1420.0,0.004166
1421.0,0.004507
1422.0,0.02501
1423.0,0.004881
1424.0,0.009116
1425.0,0.01347
1426.0,0.01517
1427.0,0.02764
1428.0,0.002176
1429.0,0.02078
1430.0,0.03517
1431.0,0.03857
1432.0,0.001717
1433.0,0.0246
1434.0,0.01255
1435.0,0.01265
1436.0,0.02425
1437.0,0.01858
1438.0,0.007888
1439.0,0.03292
1440.0,0.02466
1441.0,0.01885
1442.0,0.0209
1443.0,0.02617
1444.0,0.03624
1445.0,0.0284
1446.0,0.01278
