interpolation:linear
wavelength,value
280.0,1.198e-22
280.5,3.984e-21
281.0,2.146e-20
281.5,4.29e-19
282.0,5.478e-19
282.5,1.339e-18
283.0,4.215e-18
283.5,6.864e-18
284.0,1.134e-16
284.5,3.32e-16
285.0,5.752e-16
285.5,2.81e-15
286.0,1.13e-14
286.5,5.074e-14
287.0,1.457e-13
287.5,5.626e-13
288.0,1.998e-12
288.5,5.855e-12
289.0,1.531e-11
289.5,4.573e-11
290.0,1.263e-10
290.5,2.571e-10
291.0,5.514e-10
291.5,1.583e-09
292.0,3.193e-09
292.5,4.464e-09
293.0,9.536e-09
293.5,2.31e-08
294.0,3.606e-08
294.5,4.811e-08
295.0,8.131e-08
295.5,1.361e-07
296.0,2.604e-07
296.5,3.609e-07
297.0,4.842e-07
297.5,1.282e-06
298.0,1.993e-06
298.5,1.982e-06
299.0,4.317e-06
299.5,6.999e-06
300.0,7.579e-06
300.5,1.079e-05
301.0,1.893e-05
301.5,2.921e-05
302.0,2.452e-05
302.5,4.82e-05
303.0,8.751e-05
303.5,0.0001119
304.0,0.0001083
304.5,0.000175
305.0,0.0002981
305.5,0.0003684
306.0,0.0003672
306.5,0.0004807
307.0,0.0007987
307.5,0.001187
308.0,0.001276
308.5,0.001592
309.0,0.001858
309.5,0.002474
310.0,0.002665
310.5,0.004467
311.0,0.005932
311.5,0.005867
312.0,0.006627
312.5,0.008738
313.0,0.009882
313.5,0.009227
314.0,0.0127
314.5,0.01278
315.0,0.01718
315.5,0.01351
316.0,0.01308
316.5,0.02051
317.0,0.02542
317.5,0.02579
318.0,0.02137
318.5,0.02977
319.0,0.03744
319.5,0.02779
320.0,0.03311
320.5,0.04659
321.0,0.04611
321.5,0.04467
322.0,0.04251
322.5,0.0372
323.0,0.03988
323.5,0.05313
324.0,0.06279
324.5,0.06176
325.0,0.05082
325.5,0.06939
326.0,0.0874
326.5,0.09112
327.0,0.08949
327.5,0.08482
328.0,0.07158
328.5,0.08028
329.0,0.1012
329.5,0.1167
330.0,0.1163
330.5,0.08945
331.0,0.08993
331.5,0.09415
332.0,0.1062
332.5,0.1071
333.0,0.1056
333.5,0.09263
334.0,0.09443
334.5,0.113
335.0,0.1084
335.5,0.1275
336.0,0.08827
336.5,0.1016
337.0,0.08216
337.5,0.1017
338.0,0.1022
338.5,0.1193
339.0,0.1183
339.5,0.1138
340.0,0.1324
340.5,0.1198
341.0,0.1178
341.5,0.1085
342.0,0.1299
342.5,0.1217
343.0,0.1336
343.5,0.1257
344.0,0.09217
344.5,0.09366
345.0,0.1245
345.5,0.1274
346.0,0.1085
346.5,0.123
347.0,0.1319
347.5,0.1066
348.0,0.1219
348.5,0.1221
349.0,0.1134
349.5,0.1123
350.0,0.139
350.5,0.1467
351.0,0.131
351.5,0.127
352.0,0.1367
352.5,0.1069
353.0,0.1349
353.5,0.1445
354.0,0.1501
354.5,0.1523
355.0,0.1518
355.5,0.1373
356.0,0.1438
356.5,0.1228
357.0,0.1015
357.5,0.1244
358.0,0.09863
358.5,0.08433
359.0,0.118
359.5,0.1503
360.0,0.1594
360.5,0.1275
361.0,0.1164
361.5,0.1342
362.0,0.1162
362.5,0.1611
363.0,0.1448
363.5,0.1336
364.0,0.1635
364.5,0.1398
365.0,0.1425
365.5,0.179
366.0,0.1899
366.5,0.1786
367.0,0.1741
367.5,0.1808
368.0,0.1583
368.5,0.1599
369.0,0.1728
369.5,0.1843
370.0,0.1967
370.5,0.1528
371.0,0.1634
371.5,0.2046
372.0,0.1359
372.5,0.163
373.0,0.166
373.5,0.1081
374.0,0.1572
374.5,0.1303
375.0,0.1268
375.5,0.1894
376.0,0.1571
376.5,0.1629
377.0,0.1726
377.5,0.2021
378.0,0.2192
378.5,0.2073
379.0,0.1711
379.5,0.1564
380.0,0.1627
380.5,0.1973
381.0,0.1979
381.5,0.1571
382.0,0.1397
382.5,0.1192
383.0,0.1105
383.5,0.1065
384.0,0.1176
384.5,0.1731
385.0,0.1719
385.5,0.1602
386.0,0.1374
386.5,0.1806
387.0,0.1502
387.5,0.1688
388.0,0.156
388.5,0.1544
389.0,0.1667
389.5,0.2021
390.0,0.203
390.5,0.187
391.0,0.2203
391.5,0.2249
392.0,0.1896
392.5,0.1699
393.0,0.09464
393.5,0.06886
394.0,0.1402
394.5,0.1785
395.0,0.2179
395.5,0.2215
396.0,0.1922
396.5,0.1125
397.0,0.08451
397.5,0.172
398.0,0.241
398.5,0.2492
399.0,0.2703
399.5,0.2696
400.0,0.2801
401.0,0.2816
402.0,0.2977
403.0,0.2834
404.0,0.2794
405.0,0.2798
406.0,0.2758
407.0,0.2719
408.0,0.2827
409.0,0.3031
410.0,0.2653
411.0,0.2878
412.0,0.3099
413.0,0.3025
414.0,0.3067
415.0,0.3081
416.0,0.3141
417.0,0.3067
418.0,0.3015
419.0,0.3059
420.0,0.305
421.0,0.3195
422.0,0.3041
423.0,0.2974
424.0,0.3148
425.0,0.3147
426.0,0.3073
427.0,0.302
428.0,0.2945
429.0,0.2796
430.0,0.2451
431.0,0.243
432.0,0.3143
433.0,0.3164
434.0,0.2941
435.0,0.3073
436.0,0.347
437.0,0.3431
438.0,0.3129
439.0,0.3232
440.0,0.334
441.0,0.3466
442.0,0.3721
443.0,0.3623
444.0,0.3709
445.0,0.3629
446.0,0.3473
447.0,0.3763
448.0,0.3819
449.0,0.3845
450.0,0.3957
451.0,0.4108
452.0,0.3962
453.0,0.3732
454.0,0.3903
455.0,0.3928
456.0,0.4025
457.0,0.4094
458.0,0.395
459.0,0.3933
460.0,0.3942
461.0,0.4035
462.0,0.4073
463.0,0.4046
464.0,0.3989
465.0,0.3949
466.0,0.3994
467.0,0.392
468.0,0.3967
469.0,0.3988
470.0,0.3861
471.0,0.3859
472.0,0.4066
473.0,0.4014
474.0,0.4015
475.0,0.4043
476.0,0.3913
477.0,0.3918
478.0,0.4029
479.0,0.401
480.0,0.4022
481.0,0.4105
482.0,0.4135
483.0,0.4095
484.0,0.4018
485.0,0.3835
486.0,0.3359
487.0,0.3527
488.0,0.387
489.0,0.3879
490.0,0.4087
491.0,0.4021
492.0,0.3799
493.0,0.3925
494.0,0.3966
495.0,0.4002
496.0,0.4027
497.0,0.4089
498.0,0.3897
499.0,0.3942
500.0,0.3822
501.0,0.3746
502.0,0.3681
503.0,0.3819
504.0,0.3689
505.0,0.3848
506.0,0.3971
507.0,0.3781
508.0,0.3674
509.0,0.3785
510.0,0.3773
511.0,0.3881
512.0,0.3927
513.0,0.3718
514.0,0.3696
515.0,0.3659
516.0,0.3649
517.0,0.3244
518.0,0.341
519.0,0.3576
520.0,0.3705
521.0,0.3739
522.0,0.3738
523.0,0.3669
524.0,0.3794
525.0,0.3829
526.0,0.3655
527.0,0.3436
528.0,0.3628
529.0,0.3819
530.0,0.3761
531.0,0.3814
532.0,0.3681
533.0,0.3573
534.0,0.3682
535.0,0.3767
536.0,0.3805
537.0,0.3659
538.0,0.3725
539.0,0.3694
540.0,0.3539
541.0,0.3552
542.0,0.3658
543.0,0.3627
544.0,0.3682
545.0,0.3672
546.0,0.368
547.0,0.3686
548.0,0.3645
549.0,0.3659
550.0,0.3703
551.0,0.366
552.0,0.3685
553.0,0.3618
554.0,0.3703
555.0,0.3708
556.0,0.3658
557.0,0.3541
558.0,0.3509
559.0,0.3438
560.0,0.3477
561.0,0.3516
562.0,0.3484
563.0,0.3572
564.0,0.3468
565.0,0.3433
566.0,0.3377
567.0,0.3434
568.0,0.3385
569.0,0.3271
570.0,0.3274
571.0,0.3263
572.0,0.3318
573.0,0.3349
574.0,0.3333
575.0,0.3263
576.0,0.3233
577.0,0.3272
578.0,0.3233
579.0,0.3262
580.0,0.335
581.0,0.3386
582.0,0.3468
583.0,0.3491
584.0,0.353
585.0,0.345
586.0,0.338
587.0,0.3443
588.0,0.3317
589.0,0.2857
590.0,0.2994
591.0,0.3218
592.0,0.3148
593.0,0.3232
594.0,0.3195
595.0,0.3083
596.0,0.3274
597.0,0.322
598.0,0.3233
599.0,0.3244
600.0,0.3266
601.0,0.3253
602.0,0.3233
603.0,0.3293
604.0,0.3352
605.0,0.3339
606.0,0.3332
607.0,0.3374
608.0,0.3344
609.0,0.3357
610.0,0.334
611.0,0.3363
612.0,0.3358
613.0,0.332
614.0,0.3281
615.0,0.3359
616.0,0.3254
617.0,0.3251
618.0,0.338
619.0,0.3349
620.0,0.337
621.0,0.3368
622.0,0.3324
623.0,0.3269
624.0,0.3218
625.0,0.321
626.0,0.3255
627.0,0.3275
628.0,0.2863
629.0,0.3129
630.0,0.3049
631.0,0.3185
632.0,0.316
633.0,0.3284
634.0,0.3275
635.0,0.3337
636.0,0.3306
637.0,0.337
638.0,0.3418
639.0,0.3388
640.0,0.3365
641.0,0.3371
642.0,0.3364
643.0,0.341
644.0,0.3408
645.0,0.3409
646.0,0.3306
647.0,0.3211
648.0,0.3218
649.0,0.3147
650.0,0.3234
651.0,0.3386
652.0,0.3177
653.0,0.3346
654.0,0.3314
655.0,0.3156
656.0,0.2822
657.0,0.2902
658.0,0.3276
659.0,0.3308
660.0,0.3328
661.0,0.3355
662.0,0.3349
663.0,0.3288
664.0,0.3346
665.0,0.3364
666.0,0.3373
667.0,0.3378
668.0,0.3388
669.0,0.3445
670.0,0.3434
671.0,0.3437
672.0,0.3411
673.0,0.3466
674.0,0.3457
675.0,0.3429
676.0,0.3455
677.0,0.3424
678.0,0.3437
679.0,0.3384
680.0,0.3413
681.0,0.3391
682.0,0.3388
683.0,0.3382
684.0,0.3365
685.0,0.3397
686.0,0.3373
687.0,0.1457
688.0,0.2027
689.0,0.2046
690.0,0.2268
691.0,0.2537
692.0,0.2757
693.0,0.2729
694.0,0.2729
695.0,0.2947
696.0,0.2958
697.0,0.3256
698.0,0.3203
699.0,0.3045
700.0,0.3003
701.0,0.2938
702.0,0.2992
703.0,0.3007
704.0,0.3153
705.0,0.3157
706.0,0.3172
707.0,0.3183
708.0,0.3187
709.0,0.3227
710.0,0.3208
711.0,0.3216
712.0,0.3223
713.0,0.3175
714.0,0.3192
715.0,0.3056
716.0,0.305
717.0,0.2352
718.0,0.2141
719.0,0.1939
720.0,0.1999
721.0,0.2369
722.0,0.2888
723.0,0.2602
724.0,0.2235
725.0,0.2167
726.0,0.2275
727.0,0.2382
728.0,0.2149
729.0,0.2329
730.0,0.2437
731.0,0.2316
732.0,0.2585
733.0,0.2832
734.0,0.2933
735.0,0.2854
736.0,0.2845
737.0,0.2858
738.0,0.2984
739.0,0.2927
740.0,0.3028
741.0,0.3012
742.0,0.303
743.0,0.3112
744.0,0.3113
745.0,0.3122
746.0,0.3136
747.0,0.3145
748.0,0.3139
749.0,0.3104
750.0,0.3103
751.0,0.3072
752.0,0.3087
753.0,0.3104
754.0,0.3111
755.0,0.3093
756.0,0.3093
757.0,0.3097
758.0,0.3056
759.0,0.2939
760.0,0.008662
761.0,0.002916
762.0,0.07588
763.0,0.01896
764.0,0.04215
765.0,0.07565
766.0,0.12
767.0,0.1872
768.0,0.251
769.0,0.2649
770.0,0.2841
771.0,0.291
772.0,0.2931
773.0,0.2955
774.0,0.2944
775.0,0.2924
776.0,0.2961
777.0,0.2922
778.0,0.2904
779.0,0.2906
780.0,0.2891
781.0,0.2895
782.0,0.2914
783.0,0.2864
784.0,0.288
785.0,0.2855
786.0,0.2883
787.0,0.2791
788.0,0.2738
789.0,0.2737
790.0,0.2611
791.0,0.2687
792.0,0.2676
793.0,0.2627
794.0,0.2726
795.0,0.2757
796.0,0.2596
797.0,0.2592
798.0,0.2744
799.0,0.2713
800.0,0.2648
801.0,0.2621
802.0,0.2612
803.0,0.2582
804.0,0.2595
805.0,0.2609
806.0,0.2722
807.0,0.2681
808.0,0.2686
809.0,0.2605
810.0,0.2567
811.0,0.2535
812.0,0.2405
813.0,0.2338
814.0,0.1925
815.0,0.1925
816.0,0.1772
817.0,0.1811
818.0,0.1713
819.0,0.2026
820.0,0.187
821.0,0.2359
822.0,0.2264
823.0,0.1289
824.0,0.213
825.0,0.2321
826.0,0.2174
827.0,0.2353
828.0,0.1828
829.0,0.2173
830.0,0.2133
831.0,0.214
832.0,0.2044
833.0,0.2249
834.0,0.2121
835.0,0.2455
836.0,0.2261
837.0,0.2462
838.0,0.2341
839.0,0.2429
840.0,0.2493
841.0,0.2439
842.0,0.2473
843.0,0.2503
844.0,0.2452
845.0,0.2557
846.0,0.2551
847.0,0.2512
848.0,0.2483
849.0,0.2413
850.0,0.2313
851.0,0.2434
852.0,0.2424
853.0,0.2345
854.0,0.2015
855.0,0.2227
856.0,0.2428
857.0,0.2492
858.0,0.2469
859.0,0.2478
860.0,0.2486
861.0,0.2472
862.0,0.2513
863.0,0.2572
864.0,0.2444
865.0,0.2424
866.0,0.218
867.0,0.2275
868.0,0.2476
869.0,0.2426
870.0,0.2495
871.0,0.2461
872.0,0.2453
873.0,0.2449
874.0,0.242
875.0,0.237
876.0,0.2394
877.0,0.2419
878.0,0.2443
879.0,0.2406
880.0,0.2355
881.0,0.2312
882.0,0.2359
883.0,0.2374
884.0,0.236
885.0,0.2378
886.0,0.2242
887.0,0.2285
888.0,0.2309
889.0,0.2355
890.0,0.2309
891.0,0.2318
892.0,0.2218
893.0,0.2119
894.0,0.1975
895.0,0.1783
896.0,0.166
897.0,0.1335
898.0,0.1498
899.0,0.1042
900.0,0.1594
901.0,0.1092
902.0,0.1409
903.0,0.1375
904.0,0.1957
905.0,0.1862
906.0,0.1716
907.0,0.1242
908.0,0.13
909.0,0.1462
910.0,0.1187
911.0,0.1352
912.0,0.1413
913.0,0.1199
914.0,0.1212
915.0,0.13
916.0,0.1089
917.0,0.1485
918.0,0.1107
919.0,0.1551
920.0,0.1655
921.0,0.1712
922.0,0.1451
923.0,0.1664
924.0,0.1461
925.0,0.1436
926.0,0.1435
927.0,0.1683
928.0,0.1012
929.0,0.08685
930.0,0.05942
931.0,0.05601
932.0,0.03244
933.0,0.02337
934.0,0.007482
935.0,0.02614
936.0,0.01249
937.0,0.01259
938.0,0.01674
939.0,0.05402
940.0,0.0714
941.0,0.04613
942.0,0.05706
943.0,0.03194
944.0,0.03943
945.0,0.04931
946.0,0.01797
947.0,0.04751
948.0,0.03428
949.0,0.07136
950.0,0.01072
951.0,0.07089
952.0,0.02925
953.0,0.04357
954.0,0.06028
955.0,0.04488
956.0,0.05181
957.0,0.02897
958.0,0.08047
959.0,0.05456
960.0,0.06124
961.0,0.07624
962.0,0.07193
963.0,0.08971
964.0,0.08033
965.0,0.08881
966.0,0.08842
967.0,0.08686
968.0,0.1452
969.0,0.1467
970.0,0.1325
971.0,0.1646
972.0,0.1544
973.0,0.1215
974.0,0.1147
975.0,0.1228
976.0,0.1092
977.0,0.14
978.0,0.1265
979.0,0.1358
980.0,0.1261
981.0,0.1639
982.0,0.1519
983.0,0.1434
984.0,0.1752
985.0,0.151
986.0,0.1823
987.0,0.1746
988.0,0.1747
989.0,0.1844
990.0,0.1734
991.0,0.1845
992.0,0.186
993.0,0.1776
994.0,0.1865
995.0,0.187
996.0,0.1854
997.0,0.186
998.0,0.1849
999.0,0.1844
1000.0,0.182
1001.0,0.1855
1002.0,0.1757
1003.0,0.182
1004.0,0.1763
1005.0,0.1715
1006.0,0.1774
1007.0,0.1816
1008.0,0.1798
1009.0,0.1779
1010.0,0.1767
1011.0,0.1808
1012.0,0.1783
1013.0,0.1806
1014.0,0.1793
1015.0,0.178
1016.0,0.1771
1017.0,0.1774
1018.0,0.1773
1019.0,0.1717
1020.0,0.1761
1021.0,0.1762
1022.0,0.1741
1023.0,0.1759
1024.0,0.1718
1025.0,0.1764
1026.0,0.1751
1027.0,0.1748
1028.0,0.1743
1029.0,0.1721
1030.0,0.1739
1031.0,0.1729
1032.0,0.1726
1033.0,0.17
1034.0,0.1701
1035.0,0.1706
1036.0,0.1713
1037.0,0.1686
1038.0,0.1692
1039.0,0.169
1040.0,0.1683
1041.0,0.1688
1042.0,0.1676
1043.0,0.167
1044.0,0.1674
1045.0,0.1651
1046.0,0.1631
1047.0,0.1645
1048.0,0.1652
1049.0,0.1645
1050.0,0.1636
1051.0,0.1631
1052.0,0.1623
1053.0,0.1608
1054.0,0.1609
1055.0,0.1607
1056.0,0.1598
1057.0,0.1591
1058.0,0.1549
1059.0,0.1548
1060.0,0.1544
1061.0,0.154
1062.0,0.1545
1063.0,0.1528
1064.0,0.1547
1065.0,0.1529
1066.0,0.1504
1067.0,0.1521
1068.0,0.1483
1069.0,0.1442
1070.0,0.1486
1071.0,0.1525
1072.0,0.1496
1073.0,0.1476
1074.0,0.1533
1075.0,0.1413
1076.0,0.1529
1077.0,0.1478
1078.0,0.1437
1079.0,0.1513
1080.0,0.1455
1081.0,0.1386
1082.0,0.1446
1083.0,0.1461
1084.0,0.1375
1085.0,0.1462
1086.0,0.1278
1087.0,0.1355
1088.0,0.1453
1089.0,0.1363
1090.0,0.1315
1091.0,0.1437
1092.0,0.144
1093.0,0.1113
1094.0,0.1304
1095.0,0.1162
1096.0,0.1085
1097.0,0.1408
1098.0,0.105
1099.0,0.111
1100.0,0.09938
1101.0,0.1022
1102.0,0.09459
1103.0,0.09162
1104.0,0.09209
1105.0,0.1075
1106.0,0.0665
1107.0,0.09931
1108.0,0.0748
1109.0,0.07622
1110.0,0.09609
1111.0,0.05273
1112.0,0.07618
1113.0,0.03721
1114.0,0.04186
1115.0,0.03368
1116.0,0.02164
1117.0,0.004191
1118.0,0.02455
1119.0,0.008391
1120.0,0.009957
1121.0,0.01492
1122.0,0.003756
1123.0,0.009123
1124.0,0.007647
1125.0,0.01091
1126.0,0.001622
1127.0,0.01253
1128.0,0.004771
1129.0,0.005263
1130.0,0.003173
1131.0,0.03285
1132.0,0.02381
1133.0,0.01045
1134.0,0.001216
1135.0,0.0005481
1136.0,0.007334
1137.0,0.03038
1138.0,0.02035
1139.0,0.04235
1140.0,0.03066
1141.0,0.01952
1142.0,0.02442
1143.0,0.04024
1144.0,0.00924
1145.0,0.009998
1146.0,0.01075
1147.0,0.001768
1148.0,0.03382
1149.0,0.02382
1150.0,0.0111
1151.0,0.02023
1152.0,0.02869
1153.0,0.03117
1154.0,0.01023
1155.0,0.04407
1156.0,0.03709
1157.0,0.04756
1158.0,0.04681
1159.0,0.05295
1160.0,0.04359
1161.0,0.06118
1162.0,0.06058
1163.0,0.09668
1164.0,0.07771
1165.0,0.06809
1166.0,0.07213
1167.0,0.08103
1168.0,0.08088
1169.0,0.08404
1170.0,0.09608
1171.0,0.09365
1172.0,0.09869
1173.0,0.09599
1174.0,0.05847
1175.0,0.09691
1176.0,0.1133
1177.0,0.104
1178.0,0.07027
1179.0,0.1141
1180.0,0.09466
1181.0,0.09788
1182.0,0.0584
1183.0,0.0978
1184.0,0.08846
1185.0,0.08244
1186.0,0.1076
1187.0,0.09925
1188.0,0.05754
1189.0,0.09205
1190.0,0.106
1191.0,0.09402
1192.0,0.1081
1193.0,0.1014
1194.0,0.106
1195.0,0.09573
1196.0,0.08985
1197.0,0.1077
1198.0,0.09682
1199.0,0.07338
1200.0,0.1001
1201.0,0.09309
1202.0,0.09567
1203.0,0.09277
1204.0,0.07765
1205.0,0.1002
1206.0,0.1151
1207.0,0.09397
1208.0,0.09525
1209.0,0.09757
1210.0,0.1038
1211.0,0.09576
1212.0,0.08923
1213.0,0.1087
1214.0,0.09325
1215.0,0.09109
1216.0,0.109
1217.0,0.1044
1218.0,0.1079
1219.0,0.1054
1220.0,0.1082
1221.0,0.1105
1222.0,0.1069
1223.0,0.1051
1224.0,0.1024
1225.0,0.1094
1226.0,0.1116
1227.0,0.09798
1228.0,0.1132
1229.0,0.1116
1230.0,0.1088
1231.0,0.1151
1232.0,0.1143
1233.0,0.1061
1234.0,0.116
1235.0,0.1146
1236.0,0.1159
1237.0,0.1127
1238.0,0.1156
1239.0,0.114
1240.0,0.1147
1241.0,0.113
1242.0,0.1138
1243.0,0.1129
1244.0,0.1134
1245.0,0.1141
1246.0,0.1135
1247.0,0.1127
1248.0,0.112
1249.0,0.1129
1250.0,0.1119
1251.0,0.1097
1252.0,0.1106
1253.0,0.1081
1254.0,0.1058
1255.0,0.1101
1256.0,0.104
1257.0,0.1028
1258.0,0.1071
1259.0,0.09861
1260.0,0.09968
1261.0,0.08855
1262.0,0.08309
1263.0,0.0831
1264.0,0.07062
1265.0,0.08267
1266.0,0.07588
1267.0,0.07976
1268.0,0.07165
1269.0,0.02515
1270.0,0.07846
1271.0,0.089
1272.0,0.08983
1273.0,0.08825
1274.0,0.0894
1275.0,0.09168
1276.0,0.09369
1277.0,0.0958
1278.0,0.09981
1279.0,0.09883
1280.0,0.0977
1281.0,0.09429
1282.0,0.09261
1283.0,0.09937
1284.0,0.1014
1285.0,0.1024
1286.0,0.1047
1287.0,0.1014
1288.0,0.1019
1289.0,0.09517
1290.0,0.1012
1291.0,0.1032
1292.0,0.09079
1293.0,0.09983
1294.0,0.09888
1295.0,0.09618
1296.0,0.0882
1297.0,0.08095
1298.0,0.09277
1299.0,0.1005
1300.0,0.07598
1301.0,0.07974
1302.0,0.09269
1303.0,0.07577
1304.0,0.05682
1305.0,0.09038
1306.0,0.08931
1307.0,0.06088
1308.0,0.07727
1309.0,0.08706
1310.0,0.05889
1311.0,0.07217
1312.0,0.06931
1313.0,0.06573
1314.0,0.0559
1315.0,0.05358
1316.0,0.06949
1317.0,0.06456
1318.0,0.07366
1319.0,0.04832
1320.0,0.04843
1321.0,0.05983
1322.0,0.0586
1323.0,0.03691
1324.0,0.04783
1325.0,0.06722
1326.0,0.05323
1327.0,0.0494
1328.0,0.03997
1329.0,0.02412
1330.0,0.03468
1331.0,0.01523
1332.0,0.01713
1333.0,0.02489
1334.0,0.02521
1335.0,0.03595
1336.0,0.02491
1337.0,0.02144
1338.0,0.02272
1339.0,0.02329
1340.0,0.02439
1341.0,0.01964
1342.0,0.02125
1343.0,0.009009
1344.0,0.005908
1345.0,0.00794
1346.0,0.001923
1347.0,0.001668
1348.0,2.861e-05
1349.0,0.0001328
1350.0,0.0001637
1351.0,1.276e-05
1352.0,1.269e-06
1353.0,5.362e-08
1354.0,2.191e-07
1355.0,1.376e-09
1356.0,2.603e-08
1357.0,3.94e-08
1358.0,1.617e-09
1359.0,2.018e-10
1360.0,7.316e-10
1361.0,8.156e-13
1362.0,2.231e-15
1363.0,9.809e-10
1364.0,4.052e-10
1365.0,7.79e-16
1366.0,4.254e-09
1367.0,1.742e-09
1368.0,6.015e-18
1369.0,1.493e-10
1370.0,7.347e-11
1371.0,4.164e-12
1372.0,9.456e-10
1373.0,1.949e-08
1374.0,9.684e-08
1375.0,1.684e-07
1376.0,1.928e-07
1377.0,8.449e-08
1378.0,8.149e-07
1379.0,3.646e-08
1380.0,4.368e-08
1381.0,1.115e-09
1382.0,8.273e-10
1383.0,1.235e-11
1384.0,1.617e-10
1385.0,7.884e-10
1386.0,7.277e-10
1387.0,9.02e-08
1388.0,1.889e-09
1389.0,3.47e-07
1390.0,2.874e-07
1391.0,1.926e-07
1392.0,1.275e-08
1393.0,7.388e-08
1394.0,3.056e-08
1395.0,2.22e-10
1396.0,1.062e-12
1397.0,2.692e-08
1398.0,8.277e-07
1399.0,5.406e-07
1400.0,4.54e-13
1401.0,1.884e-12
1402.0,4.407e-06
1403.0,3.915e-06
1404.0,9.919e-07
1405.0,1.044e-10
1406.0,1.776e-06
1407.0,3.08e-07
1408.0,1.55e-06
1409.0,3.802e-07
1410.0,4.449e-07
1411.0,3.688e-06
1412.0,7.382e-06
1413.0,0.0001927
1414.0,3.853e-07
1415.0,1.528e-07
1416.0,0.000878
1417.0,0.0001408
1418.0,9.351e-05
1419.0,1.26e-05
1420.0,5.604e-05
1421.0,9.478e-05
1422.0,0.001136
