interpolation:linear
wavelength,value
280.0,8.947e-21
280.5,2.699e-19
281.0,1.407e-18
281.5,4.749e-19
282.0,1.485e-18
282.5,3.929e-18
283.0,1.267e-17
283.5,2.069e-17
284.0,3.278e-16
284.5,9.339e-16
285.0,1.837e-15
285.5,9.68e-15
286.0,3.945e-14
286.5,1.778e-13
287.0,5.075e-13
287.5,1.928e-12
288.0,5.08e-12
288.5,1.817e-11
289.0,5.491e-11
289.5,1.84e-10
290.0,5.479e-10
290.5,1.178e-09
291.0,2.676e-09
291.5,8.388e-09
292.0,2.037e-08
292.5,3.21e-08
293.0,8.013e-08
293.5,2.421e-07
294.0,4.448e-07
294.5,5.925e-07
295.0,1.18e-06
295.5,3.227e-06
296.0,6.398e-06
296.5,9.204e-06
297.0,1.276e-05
297.5,3.547e-05
298.0,5.771e-05
298.5,5.955e-05
299.0,0.0001347
299.5,0.0002338
300.0,0.0002643
300.5,0.0003942
301.0,0.0007513
301.5,0.001265
302.0,0.001119
302.5,0.002166
303.0,0.00384
303.5,0.004792
304.0,0.004471
304.5,0.006543
305.0,0.009647
305.5,0.01085
306.0,0.01043
306.5,0.01284
307.0,0.01855
307.5,0.02404
308.0,0.02529
308.5,0.02949
309.0,0.02879
309.5,0.03236
310.0,0.03224
310.5,0.052
311.0,0.06482
311.5,0.06239
312.0,0.06142
312.5,0.07397
313.0,0.07979
313.5,0.07789
314.0,0.09616
314.5,0.08383
315.0,0.1098
315.5,0.09265
316.0,0.0798
316.5,0.1132
317.0,0.1406
317.5,0.1468
318.0,0.1136
318.5,0.1388
319.0,0.1634
319.5,0.135
320.0,0.1634
320.5,0.2011
321.0,0.1764
321.5,0.1689
322.0,0.183
322.5,0.1591
323.0,0.1567
323.5,0.1907
324.0,0.2223
324.5,0.2266
325.0,0.1969
325.5,0.251
326.0,0.3062
326.5,0.3049
327.0,0.3045
327.5,0.295
328.0,0.2647
328.5,0.2756
329.0,0.3275
329.5,0.371
330.0,0.3749
330.5,0.3019
331.0,0.3082
331.5,0.3119
332.0,0.3348
332.5,0.3303
333.0,0.3299
333.5,0.3
334.0,0.3076
334.5,0.3531
335.0,0.3308
335.5,0.3863
336.0,0.2673
336.5,0.3136
337.0,0.2579
337.5,0.321
338.0,0.3121
338.5,0.3602
339.0,0.3565
339.5,0.343
340.0,0.4032
340.5,0.3633
341.0,0.3543
341.5,0.3253
342.0,0.3888
342.5,0.3638
343.0,0.4001
343.5,0.3769
344.0,0.2785
344.5,0.2814
345.0,0.3723
345.5,0.3801
346.0,0.3231
346.5,0.3658
347.0,0.3928
347.5,0.3177
348.0,0.3621
348.5,0.362
349.0,0.3358
349.5,0.3325
350.0,0.4113
350.5,0.4339
351.0,0.3877
351.5,0.3769
352.0,0.4048
352.5,0.3159
353.0,0.3979
353.5,0.4256
354.0,0.4418
354.5,0.4481
355.0,0.4467
355.5,0.4036
356.0,0.4223
356.5,0.3606
357.0,0.298
357.5,0.3648
358.0,0.2892
358.5,0.2471
359.0,0.3457
359.5,0.4406
360.0,0.4671
360.5,0.3734
361.0,0.3404
361.5,0.392
362.0,0.3391
362.5,0.4693
363.0,0.4216
363.5,0.3884
364.0,0.4751
364.5,0.4061
365.0,0.4137
365.5,0.5192
366.0,0.5502
366.5,0.5171
367.0,0.5036
367.5,0.5227
368.0,0.4575
368.5,0.4617
369.0,0.4986
369.5,0.5316
370.0,0.5667
370.5,0.4399
371.0,0.4701
371.5,0.5883
372.0,0.3905
372.5,0.4683
373.0,0.4764
373.5,0.31
374.0,0.4505
374.5,0.3732
375.0,0.3628
375.5,0.5417
376.0,0.4491
376.5,0.4655
377.0,0.4929
377.5,0.5767
378.0,0.6253
378.5,0.5911
379.0,0.4878
379.5,0.4457
380.0,0.4634
380.5,0.5614
381.0,0.5626
381.5,0.4461
382.0,0.3962
382.5,0.3378
383.0,0.3128
383.5,0.3013
384.0,0.3324
384.5,0.489
385.0,0.485
385.5,0.4518
386.0,0.387
386.5,0.5084
387.0,0.4225
387.5,0.4747
388.0,0.4383
388.5,0.4333
389.0,0.4678
389.5,0.5667
390.0,0.5688
390.5,0.5235
391.0,0.6164
391.5,0.6287
392.0,0.5296
392.5,0.4742
393.0,0.2639
393.5,0.1919
394.0,0.3905
394.5,0.4965
395.0,0.606
395.5,0.6156
396.0,0.5338
396.5,0.3121
397.0,0.2343
397.5,0.4765
398.0,0.6673
398.5,0.6898
399.0,0.7471
399.5,0.7448
400.0,0.7734
401.0,0.7849
402.0,0.8283
403.0,0.787
404.0,0.7751
405.0,0.7751
406.0,0.7627
407.0,0.7505
408.0,0.78
409.0,0.8349
410.0,0.7297
411.0,0.7905
412.0,0.8492
413.0,0.8283
414.0,0.8386
415.0,0.8409
416.0,0.8558
417.0,0.8348
418.0,0.8195
419.0,0.8304
420.0,0.8269
421.0,0.8652
422.0,0.8224
423.0,0.8035
424.0,0.8499
425.0,0.8485
426.0,0.8266
427.0,0.8112
428.0,0.7903
429.0,0.7487
430.0,0.6553
431.0,0.6496
432.0,0.8387
433.0,0.8434
434.0,0.7833
435.0,0.8181
436.0,0.9219
437.0,0.9095
438.0,0.8283
439.0,0.8568
440.0,0.8841
441.0,0.9162
442.0,0.9827
443.0,0.9572
444.0,0.9781
445.0,0.957
446.0,0.9133
447.0,0.9874
448.0,1.003
449.0,1.007
450.0,1.035
451.0,1.073
452.0,1.034
453.0,0.9728
454.0,1.016
455.0,1.022
456.0,1.046
457.0,1.064
458.0,1.027
459.0,1.022
460.0,1.025
461.0,1.049
462.0,1.057
463.0,1.049
464.0,1.032
465.0,1.019
466.0,1.029
467.0,1.01
468.0,1.022
469.0,1.027
470.0,0.9947
471.0,0.9934
472.0,1.047
473.0,1.033
474.0,1.035
475.0,1.044
476.0,1.013
477.0,1.016
478.0,1.044
479.0,1.037
480.0,1.039
481.0,1.059
482.0,1.064
483.0,1.051
484.0,1.03
485.0,0.9809
486.0,0.8574
487.0,0.8986
488.0,0.9858
489.0,0.9889
490.0,1.04
491.0,1.022
492.0,0.9655
493.0,0.9971
494.0,1.007
495.0,1.016
496.0,1.022
497.0,1.038
498.0,0.9893
499.0,1.002
500.0,0.9729
501.0,0.9551
502.0,0.9418
503.0,0.9802
504.0,0.9557
505.0,0.9896
506.0,1.022
507.0,0.9721
508.0,0.9417
509.0,0.968
510.0,0.9629
511.0,0.9886
512.0,0.9993
513.0,0.9458
514.0,0.9393
515.0,0.93
516.0,0.9277
517.0,0.8243
518.0,0.8666
519.0,0.909
520.0,0.9421
521.0,0.951
522.0,0.9519
523.0,0.9348
524.0,0.9683
525.0,0.9798
526.0,0.936
527.0,0.8821
528.0,0.933
529.0,0.9834
530.0,0.9693
531.0,0.9837
532.0,0.95
533.0,0.9221
534.0,0.9494
535.0,0.97
536.0,0.9789
537.0,0.9403
538.0,0.9569
539.0,0.9488
540.0,0.9097
541.0,0.9158
542.0,0.9446
543.0,0.9345
544.0,0.9508
545.0,0.9479
546.0,0.9521
547.0,0.9516
548.0,0.9402
549.0,0.943
550.0,0.9542
551.0,0.9426
552.0,0.9492
553.0,0.9322
554.0,0.9545
555.0,0.9565
556.0,0.9441
557.0,0.9147
558.0,0.9079
559.0,0.891
560.0,0.9021
561.0,0.9139
562.0,0.9073
563.0,0.9322
564.0,0.9068
565.0,0.899
566.0,0.8859
567.0,0.9027
568.0,0.8948
569.0,0.8738
570.0,0.8735
571.0,0.8682
572.0,0.8892
573.0,0.8987
574.0,0.8959
575.0,0.8792
576.0,0.8712
577.0,0.8807
578.0,0.8674
579.0,0.8707
580.0,0.8871
581.0,0.8915
582.0,0.9083
583.0,0.9104
584.0,0.9182
585.0,0.8958
586.0,0.8774
587.0,0.8967
588.0,0.8752
589.0,0.776
590.0,0.8115
591.0,0.8583
592.0,0.8477
593.0,0.8599
594.0,0.8541
595.0,0.8332
596.0,0.8656
597.0,0.8563
598.0,0.854
599.0,0.8547
600.0,0.8558
601.0,0.8487
602.0,0.843
603.0,0.8568
604.0,0.871
605.0,0.8665
606.0,0.8629
607.0,0.8714
608.0,0.8617
609.0,0.8631
610.0,0.8569
611.0,0.8614
612.0,0.8588
613.0,0.848
614.0,0.8364
615.0,0.8545
616.0,0.8264
617.0,0.8247
618.0,0.8564
619.0,0.8477
620.0,0.853
621.0,0.8539
622.0,0.844
623.0,0.8312
624.0,0.8169
625.0,0.815
626.0,0.8271
627.0,0.8364
628.0,0.7823
629.0,0.8171
630.0,0.7983
631.0,0.8159
632.0,0.8061
633.0,0.8304
634.0,0.8222
635.0,0.835
636.0,0.8238
637.0,0.8373
638.0,0.8452
639.0,0.8357
640.0,0.8275
641.0,0.827
642.0,0.8232
643.0,0.8342
644.0,0.8315
645.0,0.8329
646.0,0.8136
647.0,0.8042
648.0,0.805
649.0,0.7895
650.0,0.7929
651.0,0.8272
652.0,0.7932
653.0,0.8162
654.0,0.8071
655.0,0.7772
656.0,0.6887
657.0,0.7072
658.0,0.7924
659.0,0.798
660.0,0.8013
661.0,0.807
662.0,0.8087
663.0,0.7927
664.0,0.8019
665.0,0.8025
666.0,0.8031
667.0,0.8023
668.0,0.8026
669.0,0.815
670.0,0.8114
671.0,0.8112
672.0,0.8043
673.0,0.8164
674.0,0.8133
675.0,0.8059
676.0,0.8114
677.0,0.8033
678.0,0.8056
679.0,0.7926
680.0,0.7989
681.0,0.7937
682.0,0.7926
683.0,0.7911
684.0,0.7872
685.0,0.7939
686.0,0.7892
687.0,0.5289
688.0,0.6175
689.0,0.6196
690.0,0.6491
691.0,0.6823
692.0,0.7065
693.0,0.7008
694.0,0.6949
695.0,0.7231
696.0,0.7241
697.0,0.7677
698.0,0.7558
699.0,0.7382
700.0,0.7293
701.0,0.722
702.0,0.7268
703.0,0.7282
704.0,0.7512
705.0,0.7523
706.0,0.7515
707.0,0.752
708.0,0.7537
709.0,0.7546
710.0,0.7546
711.0,0.7535
712.0,0.7512
713.0,0.7437
714.0,0.7465
715.0,0.7231
716.0,0.7236
717.0,0.6294
718.0,0.5783
719.0,0.5299
720.0,0.5552
721.0,0.6119
722.0,0.6988
723.0,0.6512
724.0,0.5874
725.0,0.5782
726.0,0.6051
727.0,0.6134
728.0,0.5768
729.0,0.5978
730.0,0.6326
731.0,0.6054
732.0,0.6469
733.0,0.6841
734.0,0.7002
735.0,0.6858
736.0,0.6849
737.0,0.6877
738.0,0.6978
739.0,0.6841
740.0,0.7018
741.0,0.6947
742.0,0.6953
743.0,0.713
744.0,0.7109
745.0,0.711
746.0,0.7142
747.0,0.7158
748.0,0.7143
749.0,0.7061
750.0,0.7057
751.0,0.6986
752.0,0.7016
753.0,0.7051
754.0,0.7067
755.0,0.7027
756.0,0.7024
757.0,0.7034
758.0,0.6947
759.0,0.6808
760.0,0.1168
761.0,0.06181
762.0,0.3519
763.0,0.1774
764.0,0.2654
765.0,0.3519
766.0,0.4306
767.0,0.5418
768.0,0.6241
769.0,0.637
770.0,0.6584
771.0,0.6636
772.0,0.6649
773.0,0.6696
774.0,0.6663
775.0,0.6612
776.0,0.6693
777.0,0.6604
778.0,0.6565
779.0,0.657
780.0,0.6533
781.0,0.654
782.0,0.6581
783.0,0.6466
784.0,0.6497
785.0,0.6449
786.0,0.652
787.0,0.6408
788.0,0.6329
789.0,0.6326
790.0,0.616
791.0,0.6211
792.0,0.6165
793.0,0.6066
794.0,0.6168
795.0,0.6272
796.0,0.6082
797.0,0.609
798.0,0.6265
799.0,0.6226
800.0,0.6118
801.0,0.61
802.0,0.6082
803.0,0.6036
804.0,0.6044
805.0,0.6024
806.0,0.6192
807.0,0.6118
808.0,0.6123
809.0,0.6009
810.0,0.5961
811.0,0.597
812.0,0.5801
813.0,0.5681
814.0,0.5004
815.0,0.4973
816.0,0.4629
817.0,0.4714
818.0,0.4538
819.0,0.5069
820.0,0.4776
821.0,0.5575
822.0,0.5417
823.0,0.3694
824.0,0.5262
825.0,0.5479
826.0,0.5273
827.0,0.5563
828.0,0.4722
829.0,0.5241
830.0,0.5173
831.0,0.5191
832.0,0.5032
833.0,0.5351
834.0,0.5164
835.0,0.5669
836.0,0.5428
837.0,0.5685
838.0,0.5509
839.0,0.5599
840.0,0.5721
841.0,0.564
842.0,0.5652
843.0,0.5649
844.0,0.557
845.0,0.5758
846.0,0.5733
847.0,0.5626
848.0,0.5591
849.0,0.5432
850.0,0.5205
851.0,0.5511
852.0,0.5472
853.0,0.5267
854.0,0.4548
855.0,0.4996
856.0,0.546
857.0,0.5582
858.0,0.5541
859.0,0.5546
860.0,0.5555
861.0,0.5525
862.0,0.5612
863.0,0.5745
864.0,0.5457
865.0,0.541
866.0,0.4864
867.0,0.5076
868.0,0.5524
869.0,0.5409
870.0,0.5563
871.0,0.5488
872.0,0.5468
873.0,0.5457
874.0,0.5392
875.0,0.5283
876.0,0.5338
877.0,0.5392
878.0,0.545
879.0,0.5367
880.0,0.5252
881.0,0.5173
882.0,0.5284
883.0,0.5301
884.0,0.5277
885.0,0.5317
886.0,0.5067
887.0,0.5121
888.0,0.5196
889.0,0.5256
890.0,0.5211
891.0,0.5202
892.0,0.5051
893.0,0.4892
894.0,0.4718
895.0,0.4455
896.0,0.4196
897.0,0.3601
898.0,0.3931
899.0,0.2986
900.0,0.4028
901.0,0.313
902.0,0.3679
903.0,0.3713
904.0,0.4682
905.0,0.452
906.0,0.4229
907.0,0.343
908.0,0.3499
909.0,0.3793
910.0,0.3349
911.0,0.3573
912.0,0.3737
913.0,0.3399
914.0,0.3371
915.0,0.3654
916.0,0.3092
917.0,0.393
918.0,0.3169
919.0,0.4003
920.0,0.4047
921.0,0.421
922.0,0.3759
923.0,0.4067
924.0,0.3852
925.0,0.3768
926.0,0.3809
927.0,0.4269
928.0,0.3117
929.0,0.2841
930.0,0.2224
931.0,0.2109
932.0,0.1509
933.0,0.1222
934.0,0.06593
935.0,0.1254
936.0,0.07765
937.0,0.07861
938.0,0.09696
939.0,0.2043
940.0,0.2464
941.0,0.1851
942.0,0.2149
943.0,0.1405
944.0,0.1487
945.0,0.191
946.0,0.09614
947.0,0.1916
948.0,0.1406
949.0,0.2575
950.0,0.06989
951.0,0.2538
952.0,0.1349
953.0,0.1752
954.0,0.2159
955.0,0.1773
956.0,0.1728
957.0,0.135
958.0,0.2463
959.0,0.1944
960.0,0.218
961.0,0.2456
962.0,0.2322
963.0,0.2686
964.0,0.2458
965.0,0.2677
966.0,0.2675
967.0,0.2663
968.0,0.36
969.0,0.3757
970.0,0.3447
971.0,0.3958
972.0,0.3784
973.0,0.3281
974.0,0.3112
975.0,0.3236
976.0,0.3066
977.0,0.3503
978.0,0.3322
979.0,0.3483
980.0,0.3272
981.0,0.3936
982.0,0.3758
983.0,0.3605
984.0,0.4061
985.0,0.3744
986.0,0.4135
987.0,0.4051
988.0,0.4044
989.0,0.4125
990.0,0.4019
991.0,0.4137
992.0,0.4161
993.0,0.4065
994.0,0.416
995.0,0.4156
996.0,0.4137
997.0,0.4143
998.0,0.4123
999.0,0.4108
1000.0,0.4079
1001.0,0.4131
1002.0,0.4013
1003.0,0.4057
1004.0,0.3957
1005.0,0.3814
1006.0,0.3962
1007.0,0.4046
1008.0,0.4023
1009.0,0.4001
1010.0,0.3984
1011.0,0.4026
1012.0,0.399
1013.0,0.4016
1014.0,0.3988
1015.0,0.3962
1016.0,0.3944
1017.0,0.3953
1018.0,0.3939
1019.0,0.3854
1020.0,0.3918
1021.0,0.3913
1022.0,0.3882
1023.0,0.3923
1024.0,0.387
1025.0,0.3921
1026.0,0.3904
1027.0,0.3895
1028.0,0.3886
1029.0,0.384
1030.0,0.3867
1031.0,0.3852
1032.0,0.3841
1033.0,0.3783
1034.0,0.3783
1035.0,0.3795
1036.0,0.3814
1037.0,0.3752
1038.0,0.3769
1039.0,0.3767
1040.0,0.3751
1041.0,0.3766
1042.0,0.374
1043.0,0.3728
1044.0,0.3741
1045.0,0.369
1046.0,0.3649
1047.0,0.3682
1048.0,0.3702
1049.0,0.3688
1050.0,0.3671
1051.0,0.3666
1052.0,0.3651
1053.0,0.3622
1054.0,0.3629
1055.0,0.3631
1056.0,0.3618
1057.0,0.3607
1058.0,0.3518
1059.0,0.3521
1060.0,0.3516
1061.0,0.3512
1062.0,0.353
1063.0,0.3495
1064.0,0.3536
1065.0,0.351
1066.0,0.3441
1067.0,0.3485
1068.0,0.3409
1069.0,0.3304
1070.0,0.3416
1071.0,0.347
1072.0,0.3429
1073.0,0.338
1074.0,0.3469
1075.0,0.3291
1076.0,0.3466
1077.0,0.3401
1078.0,0.3336
1079.0,0.3411
1080.0,0.3349
1081.0,0.324
1082.0,0.3295
1083.0,0.3306
1084.0,0.323
1085.0,0.3357
1086.0,0.3057
1087.0,0.316
1088.0,0.3302
1089.0,0.3197
1090.0,0.3124
1091.0,0.329
1092.0,0.3283
1093.0,0.2772
1094.0,0.3002
1095.0,0.2889
1096.0,0.2763
1097.0,0.3207
1098.0,0.2718
1099.0,0.2838
1100.0,0.2633
1101.0,0.2667
1102.0,0.2545
1103.0,0.2517
1104.0,0.2521
1105.0,0.2772
1106.0,0.2101
1107.0,0.2629
1108.0,0.2217
1109.0,0.2223
1110.0,0.2604
1111.0,0.1751
1112.0,0.2207
1113.0,0.1388
1114.0,0.1553
1115.0,0.1287
1116.0,0.1017
1117.0,0.03627
1118.0,0.1111
1119.0,0.0542
1120.0,0.06816
1121.0,0.09103
1122.0,0.03751
1123.0,0.06163
1124.0,0.05201
1125.0,0.06808
1126.0,0.0229
1127.0,0.07687
1128.0,0.04511
1129.0,0.04799
1130.0,0.03125
1131.0,0.1479
1132.0,0.1156
1133.0,0.07212
1134.0,0.01778
1135.0,0.0067
1136.0,0.05976
1137.0,0.1449
1138.0,0.1018
1139.0,0.1541
1140.0,0.1279
1141.0,0.0968
1142.0,0.1118
1143.0,0.1597
1144.0,0.0547
1145.0,0.06959
1146.0,0.07504
1147.0,0.02556
1148.0,0.1381
1149.0,0.1096
1150.0,0.05895
1151.0,0.101
1152.0,0.1252
1153.0,0.1226
1154.0,0.06732
1155.0,0.1607
1156.0,0.1443
1157.0,0.1626
1158.0,0.1608
1159.0,0.1739
1160.0,0.1481
1161.0,0.1835
1162.0,0.1844
1163.0,0.2504
1164.0,0.2143
1165.0,0.2017
1166.0,0.2006
1167.0,0.2188
1168.0,0.2211
1169.0,0.2265
1170.0,0.2465
1171.0,0.2403
1172.0,0.2448
1173.0,0.246
1174.0,0.1749
1175.0,0.2404
1176.0,0.2646
1177.0,0.2538
1178.0,0.1902
1179.0,0.2668
1180.0,0.2378
1181.0,0.2454
1182.0,0.1689
1183.0,0.2417
1184.0,0.2264
1185.0,0.2183
1186.0,0.2592
1187.0,0.2468
1188.0,0.1717
1189.0,0.2299
1190.0,0.2533
1191.0,0.2404
1192.0,0.2569
1193.0,0.2461
1194.0,0.2537
1195.0,0.2399
1196.0,0.231
1197.0,0.2539
1198.0,0.2322
1199.0,0.1974
1200.0,0.243
1201.0,0.2343
1202.0,0.233
1203.0,0.231
1204.0,0.202
1205.0,0.2385
1206.0,0.2635
1207.0,0.2324
1208.0,0.2288
1209.0,0.2335
1210.0,0.2433
1211.0,0.2316
1212.0,0.2288
1213.0,0.2548
1214.0,0.2343
1215.0,0.2299
1216.0,0.254
1217.0,0.2473
1218.0,0.2519
1219.0,0.2488
1220.0,0.2522
1221.0,0.2547
1222.0,0.2481
1223.0,0.2458
1224.0,0.2442
1225.0,0.2531
1226.0,0.2548
1227.0,0.235
1228.0,0.256
1229.0,0.2548
1230.0,0.2505
1231.0,0.2576
1232.0,0.256
1233.0,0.2473
1234.0,0.2574
1235.0,0.2557
1236.0,0.2576
1237.0,0.254
1238.0,0.2567
1239.0,0.2534
1240.0,0.2544
1241.0,0.2532
1242.0,0.2526
1243.0,0.2506
1244.0,0.2524
1245.0,0.2534
1246.0,0.252
1247.0,0.251
1248.0,0.2508
1249.0,0.2516
1250.0,0.2501
1251.0,0.2469
1252.0,0.2469
1253.0,0.2449
1254.0,0.2425
1255.0,0.2467
1256.0,0.2397
1257.0,0.2384
1258.0,0.2429
1259.0,0.2341
1260.0,0.2353
1261.0,0.2221
1262.0,0.2154
1263.0,0.2158
1264.0,0.1992
1265.0,0.2144
1266.0,0.2063
1267.0,0.21
1268.0,0.1991
1269.0,0.1234
1270.0,0.2092
1271.0,0.2213
1272.0,0.2221
1273.0,0.2197
1274.0,0.2204
1275.0,0.2236
1276.0,0.2258
1277.0,0.2273
1278.0,0.2317
1279.0,0.2296
1280.0,0.2267
1281.0,0.2163
1282.0,0.2084
1283.0,0.2244
1284.0,0.2298
1285.0,0.2313
1286.0,0.2344
1287.0,0.2308
1288.0,0.2308
1289.0,0.2235
1290.0,0.2287
1291.0,0.2319
1292.0,0.2179
1293.0,0.2274
1294.0,0.2258
1295.0,0.2247
1296.0,0.2145
1297.0,0.2029
1298.0,0.2184
1299.0,0.2277
1300.0,0.1927
1301.0,0.1986
1302.0,0.2177
1303.0,0.1902
1304.0,0.1621
1305.0,0.2133
1306.0,0.2133
1307.0,0.1657
1308.0,0.1905
1309.0,0.2116
1310.0,0.1625
1311.0,0.1826
1312.0,0.1776
1313.0,0.1742
1314.0,0.1559
1315.0,0.1538
1316.0,0.1797
1317.0,0.1702
1318.0,0.185
1319.0,0.1444
1320.0,0.14
1321.0,0.1631
1322.0,0.1647
1323.0,0.1237
1324.0,0.1417
1325.0,0.1771
1326.0,0.1519
1327.0,0.1448
1328.0,0.1248
1329.0,0.09339
1330.0,0.1217
1331.0,0.07305
1332.0,0.07559
1333.0,0.1053
1334.0,0.08942
1335.0,0.1232
1336.0,0.09721
1337.0,0.08582
1338.0,0.09288
1339.0,0.09254
1340.0,0.09013
1341.0,0.08771
1342.0,0.09216
1343.0,0.06174
1344.0,0.03701
1345.0,0.05342
1346.0,0.02609
1347.0,0.02645
1348.0,0.001659
1349.0,0.006021
1350.0,0.006299
1351.0,0.001486
1352.0,0.0003889
1353.0,1.922e-05
1354.0,6.769e-05
1355.0,5.114e-07
1356.0,9.373e-06
1357.0,1.429e-05
1358.0,6.073e-07
1359.0,7.296e-08
1360.0,2.732e-07
1361.0,2.755e-10
1362.0,7.226e-13
1363.0,3.648e-07
1364.0,1.507e-07
1365.0,2.4e-13
1366.0,1.616e-06
1367.0,6.679e-07
1368.0,1.667e-15
1369.0,5.62e-08
1370.0,2.718e-08
1371.0,1.506e-09
1372.0,3.677e-07
1373.0,7.687e-06
1374.0,3.659e-05
1375.0,6.647e-05
1376.0,6.099e-05
1377.0,2.78e-05
1378.0,0.0002753
1379.0,1.167e-05
1380.0,1.658e-05
1381.0,4.273e-07
1382.0,3.297e-07
1383.0,4.852e-09
1384.0,6.306e-08
1385.0,3.194e-07
1386.0,2.897e-07
1387.0,3.746e-05
1388.0,7.39e-07
1389.0,0.0001306
1390.0,0.0001123
1391.0,7.456e-05
1392.0,4.811e-06
1393.0,2.588e-05
1394.0,1.288e-05
1395.0,9.218e-08
1396.0,4.028e-10
1397.0,1.021e-05
1398.0,0.0003085
1399.0,0.0001959
1400.0,1.694e-10
1401.0,7.324e-10
1402.0,0.0005653
1403.0,0.0007058
1404.0,0.0002144
1405.0,4.41e-08
1406.0,0.0005516
1407.0,4.914e-05
1408.0,0.0004522
1409.0,0.0001484
1410.0,0.0001206
1411.0,0.0006215
1412.0,0.0008482
1413.0,0.009081
1414.0,9.547e-05
1415.0,4.533e-05
1416.0,0.01537
1417.0,0.004479
1418.0,0.005072
1419.0,0.0007796
1420.0,0.003097
1421.0,0.003352
1422.0,0.02011
1423.0,0.00385
1424.0,0.007267
1425.0,0.01061
1426.0,0.01226
1427.0,0.02305
1428.0,0.001553
1429.0,0.01698
1430.0,0.02962
1431.0,0.03271
1432.0,0.001219
1433.0,0.02056
1434.0,0.01033
1435.0,0.009907
1436.0,0.01978
1437.0,0.01517
1438.0,0.006222
1439.0,0.02719
1440.0,0.02035
1441.0,0.01516
