interpolation:linear
wavelength,value
280.0,1.823e-22
280.5,6.029e-21
281.0,3.2400000000000004e-20
281.5,3.873e-19
282.0,5.945e-19
282.5,1.47e-18
283.0,4.647e-18
283.5,7.57e-18
284.0,1.251e-16
284.5,3.657e-16
285.0,6.022e-16
285.5,2.999e-15
286.0,1.21e-14
286.5,5.456e-14
287.0,1.568e-13
287.5,6.059e-13
288.0,2.145e-12
288.5,6.376e-12
289.0,1.681e-11
289.5,5.042e-11
290.0,1.396e-10
290.5,2.841e-10
291.0,6.095e-10
291.5,1.749e-09
292.0,3.508e-09
292.5,4.92e-09
293.0,1.055e-08
293.5,2.567e-08
294.0,4.015e-08
294.5,5.469e-08
295.0,9.266e-08
295.5,1.533e-07
296.0,2.961e-07
296.5,4.147e-07
297.0,5.617e-07
297.5,1.51e-06
298.0,2.384e-06
298.5,2.401e-06
299.0,5.3e-06
299.5,8.821e-06
300.0,9.707e-06
300.5,1.406e-05
301.0,2.544e-05
301.5,4.046e-05
302.0,3.452e-05
302.5,6.899e-05
303.0,0.0001281
303.5,0.000166
304.0,0.0001615
304.5,0.0002645
305.0,0.000459
305.5,0.0005739
306.0,0.0005748
306.5,0.0007584
307.0,0.001281
307.5,0.001935
308.0,0.002087
308.5,0.002627
309.0,0.002831
309.5,0.003675
310.0,0.003911
310.5,0.006517
311.0,0.008571
311.5,0.008443
312.0,0.009335
312.5,0.01214
313.0,0.01363
313.5,0.01281
314.0,0.01734
314.5,0.01706
315.0,0.02284
315.5,0.01817
316.0,0.01726
316.5,0.02665
317.0,0.03305
317.5,0.03369
318.0,0.02761
318.5,0.03767
319.0,0.04687
319.5,0.0354
320.0,0.04229
320.5,0.05825
321.0,0.05654
321.5,0.05468
322.0,0.05314
322.5,0.04645
323.0,0.04913
323.5,0.06412
324.0,0.07559
324.5,0.07485
325.0,0.06249
325.5,0.08438
326.0,0.1051
326.5,0.1087
327.0,0.1071
327.5,0.1019
328.0,0.08694
328.5,0.09623
329.0,0.1201
329.5,0.138
330.0,0.1379
330.5,0.1069
331.0,0.1078
331.5,0.1122
332.0,0.1255
332.5,0.1261
333.0,0.1246
333.5,0.11
334.0,0.1123
334.5,0.1334
335.0,0.1275
335.5,0.1496
336.0,0.1036
336.5,0.1198
337.0,0.09713
337.5,0.1203
338.0,0.1203
338.5,0.1399
339.0,0.1388
339.5,0.1334
340.0,0.1558
340.5,0.1408
341.0,0.1381
341.5,0.1272
342.0,0.1522
342.5,0.1426
343.0,0.1566
343.5,0.1474
344.0,0.1084
344.5,0.1099
345.0,0.146
345.5,0.1494
346.0,0.1271
346.5,0.1441
347.0,0.1546
347.5,0.125
348.0,0.1428
348.5,0.143
349.0,0.1328
349.5,0.1316
350.0,0.1629
350.5,0.1719
351.0,0.1535
351.5,0.1489
352.0,0.1603
352.5,0.1253
353.0,0.1581
353.5,0.1692
354.0,0.1758
354.5,0.1784
355.0,0.1778
355.5,0.1608
356.0,0.1684
356.5,0.1439
357.0,0.1189
357.5,0.1457
358.0,0.1155
358.5,0.09877
359.0,0.1382
359.5,0.1761
360.0,0.1868
360.5,0.1494
361.0,0.1364
361.5,0.1572
362.0,0.1361
362.5,0.1887
363.0,0.1696
363.5,0.1564
364.0,0.1915
364.5,0.1638
365.0,0.1669
365.5,0.2096
366.0,0.2223
366.5,0.2091
367.0,0.2038
367.5,0.2116
368.0,0.1853
368.5,0.1872
369.0,0.2023
369.5,0.2158
370.0,0.2302
370.5,0.1788
371.0,0.1913
371.5,0.2394
372.0,0.159
372.5,0.1908
373.0,0.1943
373.5,0.1265
374.0,0.184
374.5,0.1525
375.0,0.1483
375.5,0.2216
376.0,0.1838
376.5,0.1906
377.0,0.2019
377.5,0.2364
378.0,0.2564
378.5,0.2425
379.0,0.2002
379.5,0.1829
380.0,0.1903
380.5,0.2307
381.0,0.2315
381.5,0.1837
382.0,0.1633
382.5,0.1394
383.0,0.1292
383.5,0.1245
384.0,0.1375
384.5,0.2024
385.0,0.2009
385.5,0.1872
386.0,0.1605
386.5,0.2111
387.0,0.1755
387.5,0.1972
388.0,0.1822
388.5,0.1803
389.0,0.1948
389.5,0.2361
390.0,0.2372
390.5,0.2184
391.0,0.2573
391.5,0.2626
392.0,0.2213
392.5,0.1984
393.0,0.1105
393.5,0.08038
394.0,0.1637
394.5,0.2083
395.0,0.2543
395.5,0.2585
396.0,0.2243
396.5,0.1313
397.0,0.0986
397.5,0.2007
398.0,0.2811
398.5,0.2907
399.0,0.3152
399.5,0.3144
400.0,0.3266
401.0,0.329
402.0,0.3477
403.0,0.3309
404.0,0.3262
405.0,0.3266
406.0,0.3219
407.0,0.3172
408.0,0.3299
409.0,0.3535
410.0,0.3094
411.0,0.3356
412.0,0.3612
413.0,0.3525
414.0,0.3574
415.0,0.3589
416.0,0.3659
417.0,0.3572
418.0,0.3511
419.0,0.3562
420.0,0.355
421.0,0.3719
422.0,0.3538
423.0,0.346
424.0,0.3663
425.0,0.3661
426.0,0.3574
427.0,0.3511
428.0,0.3423
429.0,0.3249
430.0,0.2847
431.0,0.2823
432.0,0.3651
433.0,0.3675
434.0,0.3415
435.0,0.3568
436.0,0.4028
437.0,0.3981
438.0,0.363
439.0,0.375
440.0,0.3875
441.0,0.4021
442.0,0.4316
443.0,0.4202
444.0,0.43
445.0,0.4208
446.0,0.4025
447.0,0.436
448.0,0.4425
449.0,0.4453
450.0,0.4583
451.0,0.4756
452.0,0.4587
453.0,0.4319
454.0,0.4516
455.0,0.4545
456.0,0.4657
457.0,0.4736
458.0,0.4571
459.0,0.455
460.0,0.4561
461.0,0.4668
462.0,0.4711
463.0,0.4679
464.0,0.4612
465.0,0.4563
466.0,0.4615
467.0,0.4528
468.0,0.4583
469.0,0.4608
470.0,0.446
471.0,0.4457
472.0,0.4697
473.0,0.4637
474.0,0.4639
475.0,0.4672
476.0,0.4524
477.0,0.4531
478.0,0.4659
479.0,0.4636
480.0,0.465
481.0,0.4744
482.0,0.4777
483.0,0.4729
484.0,0.4638
485.0,0.4426
486.0,0.3875
487.0,0.4067
488.0,0.4463
489.0,0.4474
490.0,0.4712
491.0,0.4635
492.0,0.4379
493.0,0.4524
494.0,0.4571
495.0,0.4611
496.0,0.464
497.0,0.4711
498.0,0.4489
499.0,0.4543
500.0,0.4406
501.0,0.4319
502.0,0.4248
503.0,0.4409
504.0,0.4265
505.0,0.4444
506.0,0.4587
507.0,0.4367
508.0,0.4241
509.0,0.4368
510.0,0.4351
511.0,0.4475
512.0,0.4527
513.0,0.4286
514.0,0.426
515.0,0.4218
516.0,0.4206
517.0,0.3739
518.0,0.393
519.0,0.4122
520.0,0.4271
521.0,0.431
522.0,0.4311
523.0,0.4231
524.0,0.4377
525.0,0.442
526.0,0.4219
527.0,0.3969
528.0,0.4192
529.0,0.4413
530.0,0.4347
531.0,0.4408
532.0,0.4255
533.0,0.4131
534.0,0.4256
535.0,0.4353
536.0,0.4396
537.0,0.4226
538.0,0.4303
539.0,0.4267
540.0,0.4089
541.0,0.4106
542.0,0.423
543.0,0.4193
544.0,0.4257
545.0,0.4245
546.0,0.4256
547.0,0.4261
548.0,0.4214
549.0,0.423
550.0,0.428
551.0,0.423
552.0,0.4259
553.0,0.4182
554.0,0.4281
555.0,0.4287
556.0,0.423
557.0,0.4095
558.0,0.4059
559.0,0.3978
560.0,0.4024
561.0,0.4071
562.0,0.4035
563.0,0.4138
564.0,0.4019
565.0,0.398
566.0,0.3917
567.0,0.3984
568.0,0.3931
569.0,0.3806
570.0,0.3809
571.0,0.3794
572.0,0.3863
573.0,0.39
574.0,0.3883
575.0,0.3802
576.0,0.3768
577.0,0.3813
578.0,0.3765
579.0,0.3795
580.0,0.3892
581.0,0.393
582.0,0.4021
583.0,0.4044
584.0,0.4088
585.0,0.3994
586.0,0.3912
587.0,0.3988
588.0,0.385
589.0,0.3333
590.0,0.3491
591.0,0.3742
592.0,0.3667
593.0,0.3757
594.0,0.3717
595.0,0.3594
596.0,0.3802
597.0,0.3743
598.0,0.3754
599.0,0.3765
600.0,0.3787
601.0,0.3769
602.0,0.3745
603.0,0.3814
604.0,0.388
605.0,0.3864
606.0,0.3856
607.0,0.3902
608.0,0.3866
609.0,0.3879
610.0,0.3859
611.0,0.3883
612.0,0.3876
613.0,0.3831
614.0,0.3785
615.0,0.3874
616.0,0.3751
617.0,0.3748
618.0,0.3896
619.0,0.3858
620.0,0.3883
621.0,0.3881
622.0,0.3831
623.0,0.3769
624.0,0.3709
625.0,0.37
626.0,0.3753
627.0,0.3779
628.0,0.3345
629.0,0.3625
630.0,0.3535
631.0,0.3678
632.0,0.3646
633.0,0.3783
634.0,0.3768
635.0,0.3837
636.0,0.3798
637.0,0.387
638.0,0.3922
639.0,0.3885
640.0,0.3857
641.0,0.3861
642.0,0.3852
643.0,0.3905
644.0,0.39
645.0,0.3902
646.0,0.3789
647.0,0.3692
648.0,0.3698
649.0,0.3619
650.0,0.3703
651.0,0.3876
652.0,0.3649
653.0,0.3828
654.0,0.3791
655.0,0.3616
656.0,0.3229
657.0,0.332
658.0,0.3742
659.0,0.3777
660.0,0.3798
661.0,0.3827
662.0,0.3823
663.0,0.3752
664.0,0.3815
665.0,0.3833
666.0,0.3842
667.0,0.3846
668.0,0.3855
669.0,0.392
670.0,0.3906
671.0,0.3909
672.0,0.3878
673.0,0.394
674.0,0.3929
675.0,0.3896
676.0,0.3926
677.0,0.389
678.0,0.3903
679.0,0.3843
680.0,0.3875
681.0,0.3851
682.0,0.3846
683.0,0.384
684.0,0.382
685.0,0.3856
686.0,0.383
687.0,0.1794
688.0,0.2417
689.0,0.2437
690.0,0.2675
691.0,0.2957
692.0,0.3184
693.0,0.3151
694.0,0.3144
695.0,0.3372
696.0,0.3383
697.0,0.3702
698.0,0.3642
699.0,0.3477
700.0,0.3431
701.0,0.3365
702.0,0.3419
703.0,0.3434
704.0,0.3591
705.0,0.3595
706.0,0.3609
707.0,0.362
708.0,0.3625
709.0,0.3663
710.0,0.3645
711.0,0.3652
712.0,0.3657
713.0,0.3605
714.0,0.3623
715.0,0.3477
716.0,0.3471
717.0,0.2732
718.0,0.2488
719.0,0.2258
720.0,0.2336
721.0,0.2734
722.0,0.3298
723.0,0.2987
724.0,0.2588
725.0,0.2514
726.0,0.2639
727.0,0.2747
728.0,0.2495
729.0,0.2684
730.0,0.2816
731.0,0.2678
732.0,0.2967
733.0,0.3233
734.0,0.3341
735.0,0.3255
736.0,0.3246
737.0,0.326
738.0,0.3386
739.0,0.3321
740.0,0.3431
741.0,0.341
742.0,0.3427
743.0,0.3519
744.0,0.3518
745.0,0.3526
746.0,0.3542
747.0,0.3552
748.0,0.3545
749.0,0.3506
750.0,0.3504
751.0,0.3469
752.0,0.3485
753.0,0.3504
754.0,0.3512
755.0,0.3492
756.0,0.3491
757.0,0.3496
758.0,0.3451
759.0,0.3331
760.0,0.01297
761.0,0.004416
762.0,0.09777
763.0,0.0273
764.0,0.05721
765.0,0.09754
766.0,0.1477
767.0,0.2213
768.0,0.2883
769.0,0.3023
770.0,0.3219
771.0,0.3287
772.0,0.3308
773.0,0.3334
774.0,0.3321
775.0,0.3298
776.0,0.3339
777.0,0.3296
778.0,0.3275
779.0,0.3278
780.0,0.3261
781.0,0.3265
782.0,0.3286
783.0,0.323
784.0,0.3247
785.0,0.322
786.0,0.3252
787.0,0.3157
788.0,0.3101
789.0,0.3099
790.0,0.2967
791.0,0.3042
792.0,0.3028
793.0,0.2974
794.0,0.3075
795.0,0.3113
796.0,0.2947
797.0,0.2944
798.0,0.3101
799.0,0.3068
800.0,0.2998
801.0,0.2972
802.0,0.2962
803.0,0.293
804.0,0.2943
805.0,0.2954
806.0,0.3073
807.0,0.3029
808.0,0.3034
809.0,0.295
810.0,0.2909
811.0,0.2878
812.0,0.2745
813.0,0.267
814.0,0.2222
815.0,0.2218
816.0,0.2047
817.0,0.2092
818.0,0.1984
819.0,0.2326
820.0,0.2154
821.0,0.2681
822.0,0.2578
823.0,0.1512
824.0,0.244
825.0,0.2636
826.0,0.2481
827.0,0.2673
828.0,0.211
829.0,0.2478
830.0,0.2434
831.0,0.2442
832.0,0.2339
833.0,0.256
834.0,0.2422
835.0,0.2777
836.0,0.2577
837.0,0.2786
838.0,0.2658
839.0,0.2749
840.0,0.282
841.0,0.2762
842.0,0.2795
843.0,0.2822
844.0,0.2768
845.0,0.2881
846.0,0.2874
847.0,0.2829
848.0,0.2799
849.0,0.2719
850.0,0.2606
851.0,0.2746
852.0,0.2733
853.0,0.2641
854.0,0.2272
855.0,0.2508
856.0,0.2736
857.0,0.2806
858.0,0.2781
859.0,0.2789
860.0,0.2798
861.0,0.2782
862.0,0.2827
863.0,0.2894
864.0,0.275
865.0,0.2727
866.0,0.2452
867.0,0.256
868.0,0.2786
869.0,0.2729
870.0,0.2807
871.0,0.2768
872.0,0.2759
873.0,0.2754
874.0,0.2721
875.0,0.2666
876.0,0.2693
877.0,0.2721
878.0,0.2748
879.0,0.2706
880.0,0.2649
881.0,0.2603
882.0,0.2656
883.0,0.2671
884.0,0.2656
885.0,0.2676
886.0,0.2528
887.0,0.2573
888.0,0.2601
889.0,0.2649
890.0,0.2603
891.0,0.2611
892.0,0.2504
893.0,0.2398
894.0,0.2248
895.0,0.2046
896.0,0.1908
897.0,0.1551
898.0,0.1734
899.0,0.1223
900.0,0.1833
901.0,0.1281
902.0,0.1631
903.0,0.16
904.0,0.2229
905.0,0.2126
906.0,0.1964
907.0,0.1451
908.0,0.151
909.0,0.1689
910.0,0.1389
911.0,0.1563
912.0,0.1637
913.0,0.1404
914.0,0.1414
915.0,0.1522
916.0,0.1276
917.0,0.1721
918.0,0.1299
919.0,0.179
920.0,0.1891
921.0,0.1959
922.0,0.1674
923.0,0.1902
924.0,0.1692
925.0,0.1661
926.0,0.1665
927.0,0.194
928.0,0.1204
929.0,0.1043
930.0,0.07321
931.0,0.06931
932.0,0.04172
933.0,0.03065
934.0,0.01076
935.0,0.03385
936.0,0.0169
937.0,0.017
938.0,0.02234
939.0,0.06692
940.0,0.08695
941.0,0.05769
942.0,0.0707
943.0,0.04068
944.0,0.04882
945.0,0.06125
946.0,0.02366
947.0,0.05942
948.0,0.04297
949.0,0.08744
950.0,0.01451
951.0,0.08694
952.0,0.03736
953.0,0.05441
954.0,0.07391
955.0,0.05584
956.0,0.06214
957.0,0.03699
958.0,0.09582
959.0,0.06664
960.0,0.07475
961.0,0.09148
962.0,0.08624
963.0,0.1062
964.0,0.09539
965.0,0.1054
966.0,0.1048
967.0,0.1033
968.0,0.1663
969.0,0.1692
970.0,0.1531
971.0,0.1876
972.0,0.1766
973.0,0.1413
974.0,0.1333
975.0,0.1422
976.0,0.128
977.0,0.1605
978.0,0.1463
979.0,0.1566
980.0,0.1456
981.0,0.1868
982.0,0.174
983.0,0.1646
984.0,0.1984
985.0,0.173
986.0,0.2057
987.0,0.1976
988.0,0.1976
989.0,0.2076
990.0,0.1962
991.0,0.2077
992.0,0.2094
993.0,0.2006
994.0,0.2098
995.0,0.2102
996.0,0.2086
997.0,0.2092
998.0,0.2079
999.0,0.2074
1000.0,0.2049
1001.0,0.2086
1002.0,0.1985
1003.0,0.2047
1004.0,0.1985
1005.0,0.1928
1006.0,0.1996
1007.0,0.2042
1008.0,0.2023
1009.0,0.2004
1010.0,0.1991
1011.0,0.2033
1012.0,0.2007
1013.0,0.203
1014.0,0.2016
1015.0,0.2001
1016.0,0.1992
1017.0,0.1995
1018.0,0.1993
1019.0,0.1934
1020.0,0.198
1021.0,0.198
1022.0,0.1958
1023.0,0.1978
1024.0,0.1936
1025.0,0.1982
1026.0,0.197
1027.0,0.1966
1028.0,0.1961
1029.0,0.1936
1030.0,0.1955
1031.0,0.1945
1032.0,0.1941
1033.0,0.1911
1034.0,0.1912
1035.0,0.1918
1036.0,0.1926
1037.0,0.1895
1038.0,0.1903
1039.0,0.1901
1040.0,0.1893
1041.0,0.1899
1042.0,0.1885
1043.0,0.1879
1044.0,0.1884
1045.0,0.1858
1046.0,0.1836
1047.0,0.1851
1048.0,0.186
1049.0,0.1852
1050.0,0.1842
1051.0,0.1838
1052.0,0.1828
1053.0,0.1812
1054.0,0.1814
1055.0,0.1812
1056.0,0.1803
1057.0,0.1795
1058.0,0.1748
1059.0,0.1747
1060.0,0.1743
1061.0,0.174
1062.0,0.1746
1063.0,0.1727
1064.0,0.1748
1065.0,0.1729
1066.0,0.17
1067.0,0.172
1068.0,0.1678
1069.0,0.163
1070.0,0.1681
1071.0,0.1722
1072.0,0.1691
1073.0,0.1669
1074.0,0.1729
1075.0,0.1601
1076.0,0.1725
1077.0,0.1672
1078.0,0.1628
1079.0,0.1705
1080.0,0.1646
1081.0,0.1572
1082.0,0.1633
1083.0,0.1648
1084.0,0.156
1085.0,0.1653
1086.0,0.1455
1087.0,0.1537
1088.0,0.164
1089.0,0.1548
1090.0,0.1495
1091.0,0.1624
1092.0,0.1627
1093.0,0.1275
1094.0,0.1475
1095.0,0.1333
1096.0,0.1249
1097.0,0.159
1098.0,0.1213
1099.0,0.128
1100.0,0.1152
1101.0,0.1181
1102.0,0.1099
1103.0,0.1069
1104.0,0.1073
1105.0,0.1242
1106.0,0.07941
1107.0,0.1151
1108.0,0.08831
1109.0,0.08989
1110.0,0.112
1111.0,0.06372
1112.0,0.08977
1113.0,0.04581
1114.0,0.05158
1115.0,0.04181
1116.0,0.02786
1117.0,0.005961
1118.0,0.03148
1119.0,0.01146
1120.0,0.01379
1121.0,0.0203
1122.0,0.005603
1123.0,0.01262
1124.0,0.01059
1125.0,0.01485
1126.0,0.002573
1127.0,0.01701
1128.0,0.007012
1129.0,0.007701
1130.0,0.00462
1131.0,0.04212
1132.0,0.03098
1133.0,0.01451
1134.0,0.001929
1135.0,0.0008394
1136.0,0.01051
1137.0,0.0393
1138.0,0.02663
1139.0,0.05226
1140.0,0.03877
1141.0,0.02548
1142.0,0.03145
1143.0,0.05034
1144.0,0.01242
1145.0,0.01393
1146.0,0.01498
1147.0,0.002818
1148.0,0.04266
1149.0,0.03068
1150.0,0.01453
1151.0,0.02645
1152.0,0.0366
1153.0,0.03902
1154.0,0.01396
1155.0,0.05437
1156.0,0.04629
1157.0,0.05775
1158.0,0.05689
1159.0,0.06404
1160.0,0.05273
1161.0,0.0725
1162.0,0.072
1163.0,0.1118
1164.0,0.09077
1165.0,0.08045
1166.0,0.08428
1167.0,0.09423
1168.0,0.09416
1169.0,0.0977
1170.0,0.1108
1171.0,0.1079
1172.0,0.1131
1173.0,0.1107
1174.0,0.06903
1175.0,0.111
1176.0,0.1285
1177.0,0.1188
1178.0,0.08155
1179.0,0.1295
1180.0,0.1087
1181.0,0.1124
1182.0,0.06869
1183.0,0.112
1184.0,0.1019
1185.0,0.09555
1186.0,0.1227
1187.0,0.1138
1188.0,0.06814
1189.0,0.1056
1190.0,0.1207
1191.0,0.1084
1192.0,0.123
1193.0,0.1157
1194.0,0.1207
1195.0,0.1099
1196.0,0.1036
1197.0,0.1224
1198.0,0.1102
1199.0,0.08524
1200.0,0.1142
1201.0,0.1069
1202.0,0.1091
1203.0,0.1064
1204.0,0.08966
1205.0,0.114
1206.0,0.1301
1207.0,0.1075
1208.0,0.1085
1209.0,0.1111
1210.0,0.1177
1211.0,0.1091
1212.0,0.1029
1213.0,0.1234
1214.0,0.1071
1215.0,0.1047
1216.0,0.1235
1217.0,0.1187
1218.0,0.1224
1219.0,0.1198
1220.0,0.1227
1221.0,0.125
1222.0,0.121
1223.0,0.1191
1224.0,0.1166
1225.0,0.1238
1226.0,0.126
1227.0,0.1116
1228.0,0.1276
1229.0,0.126
1230.0,0.1231
1231.0,0.1295
1232.0,0.1287
1233.0,0.1202
1234.0,0.1303
1235.0,0.1289
1236.0,0.1303
1237.0,0.1269
1238.0,0.1299
1239.0,0.1282
1240.0,0.1289
1241.0,0.1272
1242.0,0.1279
1243.0,0.1269
1244.0,0.1275
1245.0,0.1282
1246.0,0.1275
1247.0,0.1267
1248.0,0.1261
1249.0,0.127
1250.0,0.1259
1251.0,0.1236
1252.0,0.1245
1253.0,0.122
1254.0,0.1196
1255.0,0.1239
1256.0,0.1177
1257.0,0.1165
1258.0,0.1209
1259.0,0.1123
1260.0,0.1134
1261.0,0.1019
1262.0,0.09624
1263.0,0.09629
1264.0,0.08316
1265.0,0.09577
1266.0,0.08872
1267.0,0.09266
1268.0,0.08413
1269.0,0.03297
1270.0,0.09139
1271.0,0.1022
1272.0,0.1031
1273.0,0.1014
1274.0,0.1025
1275.0,0.1049
1276.0,0.107
1277.0,0.109
1278.0,0.1131
1279.0,0.112
1280.0,0.1107
1281.0,0.1066
1282.0,0.1043
1283.0,0.112
1284.0,0.1144
1285.0,0.1155
1286.0,0.1179
1287.0,0.1144
1288.0,0.115
1289.0,0.1081
1290.0,0.1141
1291.0,0.1163
1292.0,0.1035
1293.0,0.1127
1294.0,0.1117
1295.0,0.1091
1296.0,0.1008
1297.0,0.09296
1298.0,0.1054
1299.0,0.1133
1300.0,0.08733
1301.0,0.09143
1302.0,0.1052
1303.0,0.08698
1304.0,0.06665
1305.0,0.1027
1306.0,0.1017
1307.0,0.07086
1308.0,0.08846
1309.0,0.09955
1310.0,0.06877
1311.0,0.08299
1312.0,0.07978
1313.0,0.07624
1314.0,0.06547
1315.0,0.06301
1316.0,0.08019
1317.0,0.07482
1318.0,0.08464
1319.0,0.05721
1320.0,0.05709
1321.0,0.06973
1322.0,0.06869
1323.0,0.04467
1324.0,0.05651
1325.0,0.07795
1326.0,0.06253
1327.0,0.05834
1328.0,0.04779
1329.0,0.03003
1330.0,0.04227
1331.0,0.01967
1332.0,0.02186
1333.0,0.03149
1334.0,0.03076
1335.0,0.0438
1336.0,0.0311
1337.0,0.02676
1338.0,0.0285
1339.0,0.02912
1340.0,0.03009
1341.0,0.02515
1342.0,0.02701
1343.0,0.01241
1344.0,0.008003
1345.0,0.01101
1346.0,0.003026
1347.0,0.00271
1348.0,5.516e-05
1349.0,0.0002535
1350.0,0.0003114
1351.0,2.653e-05
1352.0,2.138e-06
1353.0,6.928e-08
1354.0,3.52e-07
1355.0,1.447e-09
1356.0,3.362e-08
1357.0,5.069e-08
1358.0,1.712e-09
1359.0,2.035e-10
1360.0,7.516e-10
1361.0,8.186e-13
1362.0,2.239e-15
1363.0,9.905e-10
1364.0,4.106e-10
1365.0,7.817e-16
1366.0,4.318e-09
1367.0,1.801e-09
1368.0,6.036e-18
1369.0,1.514e-10
1370.0,7.399e-11
1371.0,4.184e-12
1372.0,9.821e-10
1373.0,2.211e-08
1374.0,1.292e-07
1375.0,2.093e-07
1376.0,3.217e-07
1377.0,1.354e-07
1378.0,1.347e-06
1379.0,5.932e-08
1380.0,5.897e-08
1381.0,1.427e-09
1382.0,8.519e-10
1383.0,1.262e-11
1384.0,1.633e-10
1385.0,8.664e-10
1386.0,7.387e-10
1387.0,1.029e-07
1388.0,2.427e-09
1389.0,5.141e-07
1390.0,4.09e-07
1391.0,2.728e-07
1392.0,1.811e-08
1393.0,1.17e-07
1394.0,3.384e-08
1395.0,2.353e-10
1396.0,1.066e-12
1397.0,3.909e-08
1398.0,1.322e-06
1399.0,8.893e-07
1400.0,4.556e-13
1401.0,1.892e-12
1402.0,9.208e-06
1403.0,8.271e-06
1404.0,2.097e-06
1405.0,1.074e-10
1406.0,3.386e-06
1407.0,6.248e-07
1408.0,3.047e-06
1409.0,5.958e-07
1410.0,8.585e-07
1411.0,7.818e-06
1412.0,1.549e-05
1413.0,0.0003819
1414.0,7.612e-07
1415.0,2.833e-07
1416.0,0.00145
1417.0,0.0002493
1418.0,0.0001886
1419.0,2.574e-05
1420.0,0.0001131
1421.0,0.0001695
1422.0,0.001884
1423.0,0.0003327
1424.0,0.0007439
1425.0,0.0008679
1426.0,0.001411
