interpolation:linear
wavelength,value
280.0,1.393e-21
280.5,4.4540000000000005e-20
281.0,2.365e-19
281.5,4.93e-19
282.0,9.937e-19
282.5,2.496e-18
283.0,7.898e-18
283.5,1.284e-17
284.0,2.078e-16
284.5,6.003e-16
285.0,1.237e-15
285.5,5.936e-15
286.0,2.369e-14
286.5,1.045e-13
287.0,2.962e-13
287.5,1.125e-12
288.0,3.336e-12
288.5,1.058e-11
289.0,2.901e-11
289.5,8.942e-11
290.0,2.511e-10
290.5,5.159e-10
291.0,1.115e-09
291.5,3.216e-09
292.0,6.534e-09
292.5,9.542e-09
293.0,2.149e-08
293.5,5.566e-08
294.0,9.078e-08
294.5,1.187e-07
295.0,2.088e-07
295.5,5.003e-07
296.0,9.222e-07
296.5,1.339e-06
297.0,1.875e-06
297.5,5.343e-06
298.0,8.937e-06
298.5,9.463e-06
299.0,2.204e-05
299.5,4.071e-05
300.0,4.788e-05
300.5,7.476e-05
301.0,0.0001552
301.5,0.0002873
302.0,0.0002692
302.5,0.0005385
303.0,0.0009983
303.5,0.001285
304.0,0.001228
304.5,0.001912
305.0,0.003075
305.5,0.003654
306.0,0.003588
306.5,0.004574
307.0,0.007141
307.5,0.009964
308.0,0.01061
308.5,0.01283
309.0,0.0128
309.5,0.01507
310.0,0.01534
310.5,0.02502
311.0,0.03174
311.5,0.0308
312.0,0.03151
312.5,0.03894
313.0,0.04258
313.5,0.04106
314.0,0.05228
314.5,0.04747
315.0,0.06266
315.5,0.05184
316.0,0.04615
316.5,0.06737
317.0,0.08364
317.5,0.08667
318.0,0.06837
318.5,0.08669
319.0,0.104
319.5,0.08337
320.0,0.1005
320.5,0.1285
321.0,0.1166
321.5,0.112
322.0,0.1171
322.5,0.102
323.0,0.1029
323.5,0.1279
324.0,0.1496
324.5,0.1512
325.0,0.1299
325.5,0.1688
326.0,0.2069
326.5,0.2086
327.0,0.2074
327.5,0.1998
328.0,0.1765
328.5,0.1874
329.0,0.2263
329.5,0.2575
330.0,0.2594
330.5,0.2064
331.0,0.2099
331.5,0.2144
332.0,0.2332
332.5,0.2314
333.0,0.2304
333.5,0.2076
334.0,0.2126
334.5,0.2467
335.0,0.2326
335.5,0.2718
336.0,0.1881
336.5,0.22
337.0,0.1801
337.5,0.224
338.0,0.2197
338.5,0.2538
339.0,0.2514
339.5,0.2419
340.0,0.2842
340.5,0.2564
341.0,0.2502
341.5,0.2299
342.0,0.2748
342.5,0.2573
343.0,0.2829
343.5,0.2665
344.0,0.197
344.5,0.199
345.0,0.2636
345.5,0.2693
346.0,0.229
346.5,0.2595
347.0,0.2786
347.5,0.2253
348.0,0.257
348.5,0.257
349.0,0.2386
349.5,0.2363
350.0,0.2925
350.5,0.3086
351.0,0.2757
351.5,0.2679
352.0,0.288
352.5,0.2249
353.0,0.2834
353.5,0.3032
354.0,0.3149
354.5,0.3194
355.0,0.3185
355.5,0.2879
356.0,0.3013
356.5,0.2574
357.0,0.2127
357.5,0.2605
358.0,0.2065
358.5,0.1765
359.0,0.247
359.5,0.3148
360.0,0.3338
360.5,0.2669
361.0,0.2434
361.5,0.2805
362.0,0.2427
362.5,0.3362
363.0,0.3021
363.5,0.2784
364.0,0.3407
364.5,0.2913
365.0,0.2968
365.5,0.3727
366.0,0.3951
366.5,0.3714
367.0,0.3619
367.5,0.3757
368.0,0.3289
368.5,0.332
369.0,0.3587
369.5,0.3825
370.0,0.408
370.5,0.3168
371.0,0.3386
371.5,0.4238
372.0,0.2814
372.5,0.3375
373.0,0.3435
373.5,0.2236
374.0,0.325
374.5,0.2693
375.0,0.2619
375.5,0.3911
376.0,0.3243
376.5,0.3362
377.0,0.3561
377.5,0.4168
378.0,0.452
378.5,0.4273
379.0,0.3527
379.5,0.3223
380.0,0.3352
380.5,0.4062
381.0,0.4073
381.5,0.323
382.0,0.287
382.5,0.2448
383.0,0.2268
383.5,0.2185
384.0,0.2412
384.5,0.3549
385.0,0.3521
385.5,0.328
386.0,0.2811
386.5,0.3694
387.0,0.3071
387.5,0.345
388.0,0.3187
388.5,0.3151
389.0,0.3403
389.5,0.4123
390.0,0.414
390.5,0.3811
391.0,0.4488
391.5,0.458
392.0,0.3858
392.5,0.3456
393.0,0.1924
393.5,0.1399
394.0,0.2848
394.5,0.3623
395.0,0.4422
395.5,0.4493
396.0,0.3897
396.5,0.2279
397.0,0.1711
397.5,0.3482
398.0,0.4876
398.5,0.5042
399.0,0.5463
399.5,0.5447
400.0,0.5657
401.0,0.5728
402.0,0.6048
403.0,0.575
404.0,0.5665
405.0,0.5667
406.0,0.558
407.0,0.5494
408.0,0.5711
409.0,0.6116
410.0,0.5348
411.0,0.5797
412.0,0.6231
413.0,0.6079
414.0,0.6158
415.0,0.6178
416.0,0.6291
417.0,0.6139
418.0,0.6029
419.0,0.6112
420.0,0.6088
421.0,0.6373
422.0,0.606
423.0,0.5923
424.0,0.6266
425.0,0.6258
426.0,0.6101
427.0,0.599
428.0,0.5837
429.0,0.5533
430.0,0.4845
431.0,0.4803
432.0,0.6206
433.0,0.6243
434.0,0.5798
435.0,0.6057
436.0,0.683
437.0,0.6743
438.0,0.6143
439.0,0.6352
440.0,0.6557
441.0,0.6799
442.0,0.7294
443.0,0.7104
444.0,0.7262
445.0,0.7106
446.0,0.6787
447.0,0.7342
448.0,0.7455
449.0,0.7491
450.0,0.7704
451.0,0.7992
452.0,0.7702
453.0,0.7247
454.0,0.757
455.0,0.7618
456.0,0.7801
457.0,0.7932
458.0,0.766
459.0,0.7622
460.0,0.7643
461.0,0.782
462.0,0.7884
463.0,0.783
464.0,0.7706
465.0,0.7614
466.0,0.7691
467.0,0.755
468.0,0.764
469.0,0.768
470.0,0.7435
471.0,0.7427
472.0,0.7826
473.0,0.7725
474.0,0.7734
475.0,0.7797
476.0,0.756
477.0,0.7578
478.0,0.779
479.0,0.7746
480.0,0.7764
481.0,0.7912
482.0,0.7958
483.0,0.7867
484.0,0.7709
485.0,0.7347
486.0,0.6426
487.0,0.6737
488.0,0.7391
489.0,0.7413
490.0,0.7801
491.0,0.7669
492.0,0.7243
493.0,0.7481
494.0,0.7557
495.0,0.7622
496.0,0.7669
497.0,0.7788
498.0,0.7423
499.0,0.7517
500.0,0.7296
501.0,0.716
502.0,0.7054
503.0,0.7336
504.0,0.7133
505.0,0.7402
506.0,0.7641
507.0,0.7272
508.0,0.705
509.0,0.7252
510.0,0.7217
511.0,0.7414
512.0,0.7496
513.0,0.7096
514.0,0.7049
515.0,0.6979
516.0,0.6961
517.0,0.6186
518.0,0.6504
519.0,0.6821
520.0,0.7069
521.0,0.7136
522.0,0.714
523.0,0.7011
524.0,0.7259
525.0,0.7341
526.0,0.7011
527.0,0.6604
528.0,0.6981
529.0,0.7357
530.0,0.725
531.0,0.7356
532.0,0.7102
533.0,0.6894
534.0,0.71
535.0,0.7257
536.0,0.7325
537.0,0.7038
538.0,0.7163
539.0,0.7103
540.0,0.6809
541.0,0.6849
542.0,0.7062
543.0,0.6991
544.0,0.7108
545.0,0.7087
546.0,0.7114
547.0,0.7115
548.0,0.7031
549.0,0.7054
550.0,0.7138
551.0,0.7052
552.0,0.7101
553.0,0.6974
554.0,0.714
555.0,0.7153
556.0,0.7059
557.0,0.6839
558.0,0.6785
559.0,0.6655
560.0,0.6737
561.0,0.6822
562.0,0.6769
563.0,0.6951
564.0,0.6759
565.0,0.6698
566.0,0.6597
567.0,0.6719
568.0,0.6651
569.0,0.6476
570.0,0.6477
571.0,0.6442
572.0,0.6585
573.0,0.6654
574.0,0.663
575.0,0.6503
576.0,0.6444
577.0,0.6515
578.0,0.6422
579.0,0.6455
580.0,0.659
581.0,0.6633
582.0,0.6767
583.0,0.679
584.0,0.6853
585.0,0.6688
586.0,0.6551
587.0,0.669
588.0,0.6506
589.0,0.5724
590.0,0.5989
591.0,0.6362
592.0,0.6268
593.0,0.6379
594.0,0.6327
595.0,0.6156
596.0,0.6432
597.0,0.6354
598.0,0.6347
599.0,0.6357
600.0,0.6375
601.0,0.633
602.0,0.6287
603.0,0.6395
604.0,0.6502
605.0,0.647
606.0,0.6447
607.0,0.6515
608.0,0.6447
609.0,0.6461
610.0,0.6418
611.0,0.6454
612.0,0.6437
613.0,0.6358
614.0,0.6274
615.0,0.6414
616.0,0.6205
617.0,0.6194
618.0,0.6434
619.0,0.637
620.0,0.641
621.0,0.6414
622.0,0.6336
623.0,0.6237
624.0,0.6133
625.0,0.6119
626.0,0.6209
627.0,0.6271
628.0,0.5765
629.0,0.6091
630.0,0.5947
631.0,0.6113
632.0,0.6045
633.0,0.6242
634.0,0.6191
635.0,0.6293
636.0,0.6215
637.0,0.6321
638.0,0.6389
639.0,0.6321
640.0,0.6264
641.0,0.6264
642.0,0.6239
643.0,0.6323
644.0,0.6307
645.0,0.6315
646.0,0.6156
647.0,0.6058
648.0,0.6063
649.0,0.5943
650.0,0.6004
651.0,0.6271
652.0,0.5976
653.0,0.6189
654.0,0.6123
655.0,0.5878
656.0,0.5222
657.0,0.5364
658.0,0.6021
659.0,0.6069
660.0,0.6096
661.0,0.614
662.0,0.6146
663.0,0.6027
664.0,0.6108
665.0,0.612
666.0,0.6127
667.0,0.6125
668.0,0.6132
669.0,0.6229
670.0,0.6203
671.0,0.6204
672.0,0.6152
673.0,0.6246
674.0,0.6224
675.0,0.6169
676.0,0.6213
677.0,0.6152
678.0,0.6171
679.0,0.6073
680.0,0.6122
681.0,0.6082
682.0,0.6075
683.0,0.6063
684.0,0.6033
685.0,0.6086
686.0,0.6048
687.0,0.3626
688.0,0.4428
689.0,0.445
690.0,0.473
691.0,0.505
692.0,0.5292
693.0,0.5244
694.0,0.5204
695.0,0.5468
696.0,0.5477
697.0,0.5871
698.0,0.5778
699.0,0.5601
700.0,0.5532
701.0,0.5462
702.0,0.5515
703.0,0.5527
704.0,0.5727
705.0,0.5736
706.0,0.574
707.0,0.5748
708.0,0.5759
709.0,0.5783
710.0,0.5775
711.0,0.5772
712.0,0.5762
713.0,0.5697
714.0,0.572
715.0,0.5524
716.0,0.5523
717.0,0.4648
718.0,0.4252
719.0,0.3883
720.0,0.4054
721.0,0.456
722.0,0.5307
723.0,0.4895
724.0,0.4355
725.0,0.4266
726.0,0.4473
727.0,0.4572
728.0,0.4249
729.0,0.4459
730.0,0.4712
731.0,0.4496
732.0,0.4862
733.0,0.5197
734.0,0.5335
735.0,0.5217
736.0,0.5209
737.0,0.523
738.0,0.5346
739.0,0.5241
740.0,0.5389
741.0,0.5342
742.0,0.5354
743.0,0.5492
744.0,0.548
745.0,0.5485
746.0,0.551
747.0,0.5523
748.0,0.5512
749.0,0.5449
750.0,0.5446
751.0,0.5391
752.0,0.5415
753.0,0.5443
754.0,0.5455
755.0,0.5424
756.0,0.5422
757.0,0.543
758.0,0.5361
759.0,0.523
760.0,0.05553
761.0,0.02481
762.0,0.2269
763.0,0.0945
764.0,0.1579
765.0,0.2268
766.0,0.2966
767.0,0.3939
768.0,0.4711
769.0,0.4848
770.0,0.5057
771.0,0.5117
772.0,0.5134
773.0,0.5171
774.0,0.5148
775.0,0.511
776.0,0.5172
777.0,0.5104
778.0,0.5073
779.0,0.5077
780.0,0.5049
781.0,0.5055
782.0,0.5087
783.0,0.4999
784.0,0.5024
785.0,0.4985
786.0,0.5038
787.0,0.4933
788.0,0.4863
789.0,0.486
790.0,0.4706
791.0,0.4771
792.0,0.4739
793.0,0.466
794.0,0.4765
795.0,0.4839
796.0,0.4656
797.0,0.466
798.0,0.4829
799.0,0.4792
800.0,0.4701
801.0,0.4678
802.0,0.4665
803.0,0.4625
804.0,0.4635
805.0,0.463
806.0,0.4777
807.0,0.4716
808.0,0.4722
809.0,0.462
810.0,0.4574
811.0,0.4561
812.0,0.4409
813.0,0.4305
814.0,0.3716
815.0,0.3697
816.0,0.3433
817.0,0.3502
818.0,0.3355
819.0,0.3812
820.0,0.3567
821.0,0.4257
822.0,0.4121
823.0,0.2668
824.0,0.3969
825.0,0.4181
826.0,0.3995
827.0,0.4244
828.0,0.3517
829.0,0.3976
830.0,0.3917
831.0,0.3932
832.0,0.3796
833.0,0.4079
834.0,0.3908
835.0,0.4352
836.0,0.4127
837.0,0.4367
838.0,0.4212
839.0,0.4305
840.0,0.4404
841.0,0.4333
842.0,0.4356
843.0,0.4367
844.0,0.4299
845.0,0.4454
846.0,0.4436
847.0,0.4358
848.0,0.4325
849.0,0.4202
850.0,0.4026
851.0,0.4257
852.0,0.423
853.0,0.4076
854.0,0.3515
855.0,0.3868
856.0,0.4225
857.0,0.4323
858.0,0.4289
859.0,0.4296
860.0,0.4305
861.0,0.4281
862.0,0.4349
863.0,0.4452
864.0,0.423
865.0,0.4194
866.0,0.3771
867.0,0.3935
868.0,0.4282
869.0,0.4194
870.0,0.4314
871.0,0.4255
872.0,0.424
873.0,0.4232
874.0,0.4181
875.0,0.4096
876.0,0.4139
877.0,0.4181
878.0,0.4225
879.0,0.4161
880.0,0.4071
881.0,0.4007
882.0,0.4093
883.0,0.4109
884.0,0.4089
885.0,0.4119
886.0,0.3915
887.0,0.3965
888.0,0.4018
889.0,0.4074
890.0,0.4028
891.0,0.4027
892.0,0.3895
893.0,0.3757
894.0,0.359
895.0,0.335
896.0,0.3142
897.0,0.2646
898.0,0.2915
899.0,0.2157
900.0,0.3018
901.0,0.2261
902.0,0.2735
903.0,0.2734
904.0,0.3563
905.0,0.3424
906.0,0.319
907.0,0.2509
908.0,0.2573
909.0,0.2823
910.0,0.243
911.0,0.2635
912.0,0.2765
913.0,0.2462
914.0,0.2455
915.0,0.266
916.0,0.2238
917.0,0.2909
918.0,0.2291
919.0,0.2982
920.0,0.3056
921.0,0.318
922.0,0.2794
923.0,0.3076
924.0,0.2854
925.0,0.2794
926.0,0.2819
927.0,0.3205
928.0,0.2212
929.0,0.1982
930.0,0.1499
931.0,0.1426
932.0,0.09664
933.0,0.0757
934.0,0.03568
935.0,0.07978
936.0,0.04601
937.0,0.04633
938.0,0.05839
939.0,0.138
940.0,0.1704
941.0,0.1229
942.0,0.1456
943.0,0.09132
944.0,0.1005
945.0,0.1279
946.0,0.05919
947.0,0.1269
948.0,0.09252
949.0,0.1757
950.0,0.04038
951.0,0.174
952.0,0.08588
953.0,0.1159
954.0,0.1479
955.0,0.1179
956.0,0.1188
957.0,0.08543
958.0,0.1755
959.0,0.1327
960.0,0.1488
961.0,0.1723
962.0,0.1626
963.0,0.192
964.0,0.1745
965.0,0.1915
966.0,0.1906
967.0,0.1892
968.0,0.271
969.0,0.281
970.0,0.2561
971.0,0.3007
972.0,0.2861
973.0,0.2415
974.0,0.2283
975.0,0.2398
976.0,0.2235
977.0,0.2628
978.0,0.2461
979.0,0.2601
980.0,0.2432
981.0,0.2992
982.0,0.2833
983.0,0.2704
984.0,0.3117
985.0,0.2822
986.0,0.3192
987.0,0.3105
988.0,0.3101
989.0,0.3196
990.0,0.3082
991.0,0.3203
992.0,0.3223
993.0,0.3128
994.0,0.3225
995.0,0.3224
996.0,0.3206
997.0,0.3213
998.0,0.3196
999.0,0.3186
1000.0,0.3158
1001.0,0.3203
1002.0,0.3092
1003.0,0.3146
1004.0,0.3062
1005.0,0.2959
1006.0,0.307
1007.0,0.3137
1008.0,0.3116
1009.0,0.3095
1010.0,0.3079
1011.0,0.3122
1012.0,0.3091
1013.0,0.3116
1014.0,0.3094
1015.0,0.3073
1016.0,0.3058
1017.0,0.3065
1018.0,0.3056
1019.0,0.2983
1020.0,0.3039
1021.0,0.3036
1022.0,0.301
1023.0,0.3041
1024.0,0.2992
1025.0,0.3042
1026.0,0.3027
1027.0,0.302
1028.0,0.3013
1029.0,0.2977
1030.0,0.3
1031.0,0.2987
1032.0,0.2979
1033.0,0.2934
1034.0,0.2935
1035.0,0.2944
1036.0,0.2958
1037.0,0.291
1038.0,0.2923
1039.0,0.292
1040.0,0.2909
1041.0,0.2919
1042.0,0.2899
1043.0,0.2889
1044.0,0.2899
1045.0,0.2859
1046.0,0.2827
1047.0,0.2852
1048.0,0.2867
1049.0,0.2856
1050.0,0.2842
1051.0,0.2837
1052.0,0.2824
1053.0,0.2801
1054.0,0.2806
1055.0,0.2806
1056.0,0.2795
1057.0,0.2785
1058.0,0.2715
1059.0,0.2717
1060.0,0.2712
1061.0,0.2708
1062.0,0.272
1063.0,0.2693
1064.0,0.2725
1065.0,0.2702
1066.0,0.2651
1067.0,0.2684
1068.0,0.2623
1069.0,0.2544
1070.0,0.2628
1071.0,0.2677
1072.0,0.264
1073.0,0.2603
1074.0,0.268
1075.0,0.2521
1076.0,0.2676
1077.0,0.2615
1078.0,0.256
1079.0,0.2637
1080.0,0.2575
1081.0,0.2481
1082.0,0.2541
1083.0,0.2554
1084.0,0.2469
1085.0,0.2583
1086.0,0.2324
1087.0,0.2422
1088.0,0.2547
1089.0,0.2446
1090.0,0.238
1091.0,0.2533
1092.0,0.2531
1093.0,0.2083
1094.0,0.2308
1095.0,0.2176
1096.0,0.2066
1097.0,0.2473
1098.0,0.2025
1099.0,0.2123
1100.0,0.1948
1101.0,0.198
1102.0,0.1874
1103.0,0.1844
1104.0,0.1848
1105.0,0.2069
1106.0,0.1481
1107.0,0.1945
1108.0,0.1588
1109.0,0.1603
1110.0,0.1918
1111.0,0.1221
1112.0,0.1595
1113.0,0.09357
1114.0,0.1052
1115.0,0.08674
1116.0,0.06476
1117.0,0.01944
1118.0,0.0718
1119.0,0.03186
1120.0,0.03969
1121.0,0.05482
1122.0,0.01998
1123.0,0.03604
1124.0,0.03036
1125.0,0.04054
1126.0,0.01116
1127.0,0.04602
1128.0,0.0242
1129.0,0.02607
1130.0,0.01621
1131.0,0.0959
1132.0,0.07357
1133.0,0.04196
1134.0,0.008496
1135.0,0.003328
1136.0,0.0334
1137.0,0.09247
1138.0,0.06431
1139.0,0.1056
1140.0,0.08452
1141.0,0.06121
1142.0,0.07227
1143.0,0.1067
1144.0,0.03287
1145.0,0.04052
1146.0,0.04365
1147.0,0.01239
1148.0,0.09203
1149.0,0.07069
1150.0,0.03604
1151.0,0.06378
1152.0,0.08185
1153.0,0.08238
1154.0,0.03914
1155.0,0.11
1156.0,0.09712
1157.0,0.1125
1158.0,0.1112
1159.0,0.1222
1160.0,0.1022
1161.0,0.1313
1162.0,0.1315
1163.0,0.1869
1164.0,0.1569
1165.0,0.1447
1166.0,0.1463
1167.0,0.161
1168.0,0.162
1169.0,0.1669
1170.0,0.1841
1171.0,0.1793
1172.0,0.1843
1173.0,0.1838
1174.0,0.1247
1175.0,0.181
1176.0,0.2026
1177.0,0.192
1178.0,0.1393
1179.0,0.2043
1180.0,0.1784
1181.0,0.1843
1182.0,0.1218
1183.0,0.1824
1184.0,0.1691
1185.0,0.1615
1186.0,0.1969
1187.0,0.1859
1188.0,0.123
1189.0,0.1729
1190.0,0.1927
1191.0,0.1797
1192.0,0.1958
1193.0,0.1865
1194.0,0.1929
1195.0,0.1803
1196.0,0.1723
1197.0,0.1941
1198.0,0.1763
1199.0,0.1453
1200.0,0.184
1201.0,0.1758
1202.0,0.176
1203.0,0.174
1204.0,0.15
1205.0,0.1815
1206.0,0.2028
1207.0,0.175
1208.0,0.1736
1209.0,0.1775
1210.0,0.186
1211.0,0.1754
1212.0,0.1709
1213.0,0.195
1214.0,0.176
1215.0,0.1723
1216.0,0.1946
1217.0,0.1886
1218.0,0.1929
1219.0,0.1901
1220.0,0.1932
1221.0,0.1957
1222.0,0.1902
1223.0,0.188
1224.0,0.186
1225.0,0.1943
1226.0,0.1962
1227.0,0.1787
1228.0,0.1978
1229.0,0.1963
1230.0,0.1925
1231.0,0.1995
1232.0,0.1983
1233.0,0.1894
1234.0,0.1997
1235.0,0.1982
1236.0,0.1999
1237.0,0.1962
1238.0,0.1992
1239.0,0.1966
1240.0,0.1975
1241.0,0.196
1242.0,0.1961
1243.0,0.1945
1244.0,0.1957
1245.0,0.1966
1246.0,0.1955
1247.0,0.1946
1248.0,0.1942
1249.0,0.1951
1250.0,0.1937
1251.0,0.191
1252.0,0.1914
1253.0,0.1891
1254.0,0.1867
1255.0,0.191
1256.0,0.1843
1257.0,0.1831
1258.0,0.1875
1259.0,0.1787
1260.0,0.1799
1261.0,0.1673
1262.0,0.161
1263.0,0.1612
1264.0,0.1459
1265.0,0.1603
1266.0,0.1525
1267.0,0.1564
1268.0,0.1463
1269.0,0.07899
1270.0,0.1553
1271.0,0.1671
1272.0,0.1679
1273.0,0.1658
1274.0,0.1667
1275.0,0.1696
1276.0,0.1718
1277.0,0.1735
1278.0,0.1778
1279.0,0.1761
1280.0,0.174
1281.0,0.1665
1282.0,0.1612
1283.0,0.1734
1284.0,0.1774
1285.0,0.1787
1286.0,0.1816
1287.0,0.178
1288.0,0.1782
1289.0,0.171
1290.0,0.1767
1291.0,0.1795
1292.0,0.1658
1293.0,0.1753
1294.0,0.1739
1295.0,0.1722
1296.0,0.1626
1297.0,0.1525
1298.0,0.167
1299.0,0.1758
1300.0,0.1441
1301.0,0.1494
1302.0,0.1665
1303.0,0.1427
1304.0,0.1174
1305.0,0.1628
1306.0,0.1625
1307.0,0.1215
1308.0,0.1437
1309.0,0.1606
1310.0,0.1189
1311.0,0.1368
1312.0,0.1324
1313.0,0.1289
1314.0,0.1139
1315.0,0.1114
1316.0,0.1338
1317.0,0.1262
1318.0,0.139
1319.0,0.1034
1320.0,0.1013
1321.0,0.1198
1322.0,0.12
1323.0,0.08608
1324.0,0.1016
1325.0,0.1314
1326.0,0.1101
1327.0,0.1043
1328.0,0.0885
1329.0,0.06274
1330.0,0.08357
1331.0,0.04625
1332.0,0.0491
1333.0,0.06919
1334.0,0.06105
1335.0,0.08555
1336.0,0.06533
1337.0,0.05685
1338.0,0.06137
1339.0,0.06171
1340.0,0.06124
1341.0,0.05696
1342.0,0.06013
1343.0,0.03569
1344.0,0.0218
1345.0,0.03139
1346.0,0.0128
1347.0,0.01254
1348.0,0.0005264
1349.0,0.00212
1350.0,0.002389
1351.0,0.0003894
1352.0,6.493e-05
1353.0,2.157e-06
1354.0,1.016e-05
1355.0,3.145e-08
1356.0,1.032e-06
1357.0,1.578e-06
1358.0,3.872e-08
1359.0,2.348e-09
1360.0,1.362e-08
1361.0,3.754e-12
1362.0,6.605e-15
1363.0,1.377e-08
1364.0,5.864e-09
1365.0,1.392e-15
1366.0,7.262e-08
1367.0,3.616e-08
1368.0,6.874e-18
1369.0,2.149e-09
1370.0,7.815e-10
1371.0,3.224e-11
1372.0,2.024e-08
1373.0,6.556e-07
1374.0,4.278e-06
1375.0,7.336e-06
1376.0,9.341e-06
1377.0,4.003e-06
1378.0,4.34e-05
1379.0,1.688e-06
1380.0,1.922e-06
1381.0,4.296e-08
1382.0,1.662e-08
1383.0,2.012e-10
1384.0,2.121e-09
1385.0,2.289e-08
1386.0,1.177e-08
1387.0,3.435e-06
1388.0,7.49e-08
1389.0,1.764e-05
1390.0,1.479e-05
1391.0,9.416e-06
1392.0,5.744e-07
1393.0,3.617e-06
1394.0,1.029e-06
1395.0,5.509e-09
1396.0,6.384e-12
1397.0,1.263e-06
1398.0,4.633e-05
1399.0,3.005e-05
1400.0,1.93e-12
1401.0,1.306e-11
1402.0,0.0001411
1403.0,0.0001596
1404.0,4.631e-05
1405.0,2.05e-09
1406.0,0.0001007
1407.0,1.075e-05
1408.0,8.533e-05
1409.0,2.153e-05
1410.0,2.177e-05
1411.0,0.0001435
1412.0,0.0002222
1413.0,0.003298
1414.0,1.791e-05
1415.0,7.588e-06
1416.0,0.007058
1417.0,0.001675
1418.0,0.001761
1419.0,0.0002581
1420.0,0.001066
1421.0,0.001207
1422.0,0.009274
1423.0,0.001694
1424.0,0.003331
1425.0,0.0046
1426.0,0.005877
1427.0,0.01221
1428.0,0.000473
1429.0,0.008355
1430.0,0.01631
1431.0,0.01845
1432.0,0.0003658
1433.0,0.01105
1434.0,0.005286
1435.0,0.004207
