interpolation:linear
wavelength,value
280.0,8.89e-23
280.5,2.967e-21
281.0,1.601e-20
281.5,5.166e-19
282.0,5.249e-19
282.5,1.265e-18
283.0,3.96e-18
283.5,6.443e-18
284.0,1.062e-16
284.5,3.111e-16
285.0,5.836e-16
285.5,2.769e-15
286.0,1.108e-14
286.5,4.939e-14
287.0,1.414e-13
287.5,5.449e-13
288.0,1.905e-12
288.5,5.524e-12
289.0,1.437e-11
289.5,4.277e-11
290.0,1.18e-10
290.5,2.403e-10
291.0,5.155e-10
291.5,1.481e-09
292.0,3.005e-09
292.5,4.192e-09
293.0,8.932e-09
293.5,2.157e-08
294.0,3.364e-08
294.5,4.386e-08
295.0,7.397e-08
295.5,1.253e-07
296.0,2.381e-07
296.5,3.274e-07
297.0,4.362e-07
297.5,1.141e-06
298.0,1.757e-06
298.5,1.732e-06
299.0,3.738e-06
299.5,5.96e-06
300.0,6.39e-06
300.5,9.001e-06
301.0,1.551e-05
301.5,2.355e-05
302.0,1.961e-05
302.5,3.798e-05
303.0,6.795e-05
303.5,8.611e-05
304.0,8.295e-05
304.5,0.0001326
305.0,0.0002228
305.5,0.0002729
306.0,0.0002711
306.5,0.000353
307.0,0.0005798
307.5,0.0008523
308.0,0.0009148
308.5,0.001136
309.0,0.001342
309.5,0.00182
310.0,0.001977
310.5,0.003328
311.0,0.00445
311.5,0.004415
312.0,0.005064
312.5,0.006746
313.0,0.007672
313.5,0.007126
314.0,0.009932
314.5,0.01017
315.0,0.01371
315.5,0.01069
316.0,0.01049
316.5,0.01665
317.0,0.02063
317.5,0.02086
318.0,0.01743
318.5,0.02467
319.0,0.03127
319.5,0.02291
320.0,0.02723
320.5,0.03897
321.0,0.03914
321.5,0.03798
322.0,0.03556
322.5,0.03113
323.0,0.03373
323.5,0.04584
324.0,0.05428
324.5,0.0531
325.0,0.04305
325.5,0.05928
326.0,0.07565
326.5,0.07939
327.0,0.07777
327.5,0.07347
328.0,0.06142
328.5,0.06966
329.0,0.08855
329.5,0.1024
330.0,0.1018
330.5,0.07777
331.0,0.078
331.5,0.08206
332.0,0.09317
332.5,0.09427
333.0,0.09279
333.5,0.08097
334.0,0.08246
334.5,0.09921
335.0,0.09551
335.5,0.1126
336.0,0.07794
336.5,0.08938
337.0,0.07207
337.5,0.08909
338.0,0.09003
338.5,0.1053
339.0,0.1045
339.5,0.1005
340.0,0.1166
340.5,0.1055
341.0,0.104
341.5,0.0959
342.0,0.1148
342.5,0.1076
343.0,0.118
343.5,0.111
344.0,0.08118
344.5,0.08266
345.0,0.11
345.5,0.1126
346.0,0.09585
346.5,0.1087
347.0,0.1165
347.5,0.09415
348.0,0.1077
348.5,0.1079
349.0,0.1002
349.5,0.09924
350.0,0.1229
350.5,0.1296
351.0,0.1157
351.5,0.1121
352.0,0.1208
352.5,0.09446
353.0,0.1192
353.5,0.1276
354.0,0.1326
354.5,0.1345
355.0,0.1341
355.5,0.1213
356.0,0.127
356.5,0.1085
357.0,0.08968
357.5,0.1099
358.0,0.08713
358.5,0.0745
359.0,0.1042
359.5,0.1327
360.0,0.1408
360.5,0.1127
361.0,0.1028
361.5,0.1186
362.0,0.1027
362.5,0.1423
363.0,0.1279
363.5,0.118
364.0,0.1444
364.5,0.1235
365.0,0.1259
365.5,0.1581
366.0,0.1677
366.5,0.1578
367.0,0.1537
367.5,0.1597
368.0,0.1398
368.5,0.1412
369.0,0.1526
369.5,0.1628
370.0,0.1737
370.5,0.135
371.0,0.1443
371.5,0.1807
372.0,0.12
372.5,0.144
373.0,0.1466
373.5,0.09549
374.0,0.1389
374.5,0.1151
375.0,0.112
375.5,0.1673
376.0,0.1388
376.5,0.1439
377.0,0.1525
377.5,0.1786
378.0,0.1937
378.5,0.1831
379.0,0.1512
379.5,0.1382
380.0,0.1438
380.5,0.1743
381.0,0.1749
381.5,0.1388
382.0,0.1234
382.5,0.1054
383.0,0.09765
383.5,0.09415
384.0,0.1039
384.5,0.153
385.0,0.1519
385.5,0.1416
386.0,0.1214
386.5,0.1597
387.0,0.1328
387.5,0.1492
388.0,0.1379
388.5,0.1365
389.0,0.1474
389.5,0.1787
390.0,0.1795
390.5,0.1654
391.0,0.1948
391.5,0.1989
392.0,0.1676
392.5,0.1502
393.0,0.0837
393.5,0.0609
394.0,0.124
394.5,0.1579
395.0,0.1928
395.5,0.1959
396.0,0.17
396.5,0.09953
397.0,0.07477
397.5,0.1522
398.0,0.2132
398.5,0.2205
399.0,0.2392
399.5,0.2386
400.0,0.2478
401.0,0.2489
402.0,0.2632
403.0,0.2505
404.0,0.2471
405.0,0.2474
406.0,0.2439
407.0,0.2405
408.0,0.2501
409.0,0.2681
410.0,0.2347
411.0,0.2547
412.0,0.2742
413.0,0.2677
414.0,0.2715
415.0,0.2727
416.0,0.2781
417.0,0.2716
418.0,0.267
419.0,0.271
420.0,0.2702
421.0,0.2831
422.0,0.2694
423.0,0.2635
424.0,0.279
425.0,0.2789
426.0,0.2724
427.0,0.2677
428.0,0.2611
429.0,0.248
430.0,0.2174
431.0,0.2155
432.0,0.2789
433.0,0.2808
434.0,0.261
435.0,0.2727
436.0,0.308
437.0,0.3046
438.0,0.2778
439.0,0.2869
440.0,0.2965
441.0,0.3078
442.0,0.3305
443.0,0.3218
444.0,0.3294
445.0,0.3224
446.0,0.3087
447.0,0.3345
448.0,0.3395
449.0,0.3418
450.0,0.3519
451.0,0.3653
452.0,0.3524
453.0,0.3319
454.0,0.3473
455.0,0.3495
456.0,0.3582
457.0,0.3643
458.0,0.3515
459.0,0.3499
460.0,0.3507
461.0,0.359
462.0,0.3624
463.0,0.3601
464.0,0.3552
465.0,0.3517
466.0,0.3558
467.0,0.3491
468.0,0.3534
469.0,0.3553
470.0,0.3439
471.0,0.3437
472.0,0.3623
473.0,0.3576
474.0,0.3577
475.0,0.3601
476.0,0.3484
477.0,0.3487
478.0,0.3586
479.0,0.3569
480.0,0.3581
481.0,0.3656
482.0,0.3684
483.0,0.3649
484.0,0.3581
485.0,0.3419
486.0,0.2996
487.0,0.3146
488.0,0.3452
489.0,0.346
490.0,0.3646
491.0,0.3587
492.0,0.3389
493.0,0.3502
494.0,0.354
495.0,0.3572
496.0,0.3595
497.0,0.365
498.0,0.3478
499.0,0.3519
500.0,0.3411
501.0,0.3342
502.0,0.3283
503.0,0.3404
504.0,0.3284
505.0,0.3429
506.0,0.3539
507.0,0.3369
508.0,0.3275
509.0,0.3376
510.0,0.3365
511.0,0.3463
512.0,0.3505
513.0,0.3318
514.0,0.3299
515.0,0.3266
516.0,0.3256
517.0,0.2895
518.0,0.3043
519.0,0.3191
520.0,0.3306
521.0,0.3336
522.0,0.3335
523.0,0.3273
524.0,0.3383
525.0,0.3414
526.0,0.3258
527.0,0.3062
528.0,0.3232
529.0,0.3402
530.0,0.3349
531.0,0.3395
532.0,0.3277
533.0,0.3181
534.0,0.3278
535.0,0.3354
536.0,0.3389
537.0,0.3259
538.0,0.3319
539.0,0.329
540.0,0.3153
541.0,0.3162
542.0,0.3256
543.0,0.323
544.0,0.3277
545.0,0.3269
546.0,0.3275
547.0,0.3281
548.0,0.3245
549.0,0.3258
550.0,0.3297
551.0,0.3259
552.0,0.3281
553.0,0.3221
554.0,0.3297
555.0,0.3301
556.0,0.3257
557.0,0.3152
558.0,0.3122
559.0,0.3058
560.0,0.3092
561.0,0.3127
562.0,0.3097
563.0,0.3174
564.0,0.3081
565.0,0.3049
566.0,0.2999
567.0,0.3048
568.0,0.3002
569.0,0.2896
570.0,0.29
571.0,0.2891
572.0,0.2936
573.0,0.2963
574.0,0.2948
575.0,0.2885
576.0,0.2859
577.0,0.2894
578.0,0.2861
579.0,0.2889
580.0,0.297
581.0,0.3005
582.0,0.308
583.0,0.3102
584.0,0.3139
585.0,0.3068
586.0,0.3006
587.0,0.3061
588.0,0.2943
589.0,0.2524
590.0,0.2646
591.0,0.285
592.0,0.2785
593.0,0.2864
594.0,0.2829
595.0,0.2726
596.0,0.2904
597.0,0.2853
598.0,0.2867
599.0,0.2879
600.0,0.29
601.0,0.289
602.0,0.2873
603.0,0.2928
604.0,0.298
605.0,0.2969
606.0,0.2964
607.0,0.3002
608.0,0.2977
609.0,0.2989
610.0,0.2975
611.0,0.2996
612.0,0.2993
613.0,0.2959
614.0,0.2926
615.0,0.2996
616.0,0.2903
617.0,0.2901
618.0,0.3017
619.0,0.2989
620.0,0.3008
621.0,0.3006
622.0,0.2966
623.0,0.2917
624.0,0.2872
625.0,0.2865
626.0,0.2905
627.0,0.292
628.0,0.2526
629.0,0.278
630.0,0.2708
631.0,0.2838
632.0,0.2818
633.0,0.2932
634.0,0.2927
635.0,0.2985
636.0,0.2958
637.0,0.3017
638.0,0.3062
639.0,0.3037
640.0,0.3018
641.0,0.3023
642.0,0.3019
643.0,0.3061
644.0,0.306
645.0,0.306
646.0,0.2964
647.0,0.2871
648.0,0.288
649.0,0.2813
650.0,0.2902
651.0,0.304
652.0,0.2843
653.0,0.3005
654.0,0.2977
655.0,0.283
656.0,0.2534
657.0,0.2607
658.0,0.2946
659.0,0.2976
660.0,0.2995
661.0,0.302
662.0,0.3014
663.0,0.2959
664.0,0.3014
665.0,0.3032
666.0,0.3041
667.0,0.3046
668.0,0.3056
669.0,0.3108
670.0,0.3099
671.0,0.3103
672.0,0.3079
673.0,0.3129
674.0,0.3121
675.0,0.3097
676.0,0.3121
677.0,0.3093
678.0,0.3105
679.0,0.3058
680.0,0.3084
681.0,0.3065
682.0,0.3062
683.0,0.3057
684.0,0.3041
685.0,0.3071
686.0,0.3049
687.0,0.1231
688.0,0.1757
689.0,0.1775
690.0,0.1986
691.0,0.2243
692.0,0.2456
693.0,0.2431
694.0,0.2438
695.0,0.2646
696.0,0.2658
697.0,0.294
698.0,0.2892
699.0,0.2738
700.0,0.2701
701.0,0.2637
702.0,0.2689
703.0,0.2706
704.0,0.2843
705.0,0.2846
706.0,0.2862
707.0,0.2873
708.0,0.2876
709.0,0.2917
710.0,0.2897
711.0,0.2906
712.0,0.2916
713.0,0.2869
714.0,0.2886
715.0,0.2758
716.0,0.2752
717.0,0.2087
718.0,0.1898
719.0,0.1716
720.0,0.1765
721.0,0.2112
722.0,0.2597
723.0,0.2331
724.0,0.1989
725.0,0.1925
726.0,0.2021
727.0,0.2125
728.0,0.1907
729.0,0.208
730.0,0.2171
731.0,0.2062
732.0,0.2316
733.0,0.2549
734.0,0.2644
735.0,0.257
736.0,0.256
737.0,0.2573
738.0,0.2697
739.0,0.2647
740.0,0.2741
741.0,0.2729
742.0,0.2748
743.0,0.2822
744.0,0.2825
745.0,0.2834
746.0,0.2847
747.0,0.2855
748.0,0.285
749.0,0.2819
750.0,0.2818
751.0,0.279
752.0,0.2803
753.0,0.2819
754.0,0.2825
755.0,0.2808
756.0,0.2809
757.0,0.2812
758.0,0.2775
759.0,0.2661
760.0,0.006426
761.0,0.002233
762.0,0.0617
763.0,0.01424
764.0,0.03292
765.0,0.06148
766.0,0.1014
767.0,0.1634
768.0,0.2246
769.0,0.2383
770.0,0.2571
771.0,0.2641
772.0,0.2662
773.0,0.2685
774.0,0.2675
775.0,0.2657
776.0,0.2691
777.0,0.2656
778.0,0.2639
779.0,0.2642
780.0,0.2628
781.0,0.2632
782.0,0.2649
783.0,0.2604
784.0,0.2619
785.0,0.2595
786.0,0.262
787.0,0.2531
788.0,0.248
789.0,0.2479
790.0,0.2359
791.0,0.2435
792.0,0.2426
793.0,0.2381
794.0,0.2477
795.0,0.2503
796.0,0.2347
797.0,0.2342
798.0,0.2491
799.0,0.2461
800.0,0.24
801.0,0.2372
802.0,0.2363
803.0,0.2334
804.0,0.2347
805.0,0.2364
806.0,0.2471
807.0,0.2433
808.0,0.2438
809.0,0.2361
810.0,0.2324
811.0,0.2293
812.0,0.2165
813.0,0.2103
814.0,0.1717
815.0,0.1719
816.0,0.1579
817.0,0.1613
818.0,0.1523
819.0,0.1814
820.0,0.1671
821.0,0.2131
822.0,0.2041
823.0,0.1134
824.0,0.1912
825.0,0.2097
826.0,0.1956
827.0,0.2125
828.0,0.163
829.0,0.1957
830.0,0.1921
831.0,0.1926
832.0,0.1836
833.0,0.2029
834.0,0.1909
835.0,0.2227
836.0,0.2038
837.0,0.2233
838.0,0.2117
839.0,0.2201
840.0,0.2261
841.0,0.2209
842.0,0.2244
843.0,0.2276
844.0,0.2228
845.0,0.2325
846.0,0.2321
847.0,0.2287
848.0,0.2259
849.0,0.2195
850.0,0.2104
851.0,0.2212
852.0,0.2205
853.0,0.2134
854.0,0.1832
855.0,0.2027
856.0,0.2209
857.0,0.2269
858.0,0.2247
859.0,0.2256
860.0,0.2265
861.0,0.2251
862.0,0.2288
863.0,0.2343
864.0,0.2226
865.0,0.2208
866.0,0.1986
867.0,0.2073
868.0,0.2256
869.0,0.221
870.0,0.2273
871.0,0.2242
872.0,0.2235
873.0,0.2231
874.0,0.2205
875.0,0.2159
876.0,0.2181
877.0,0.2204
878.0,0.2225
879.0,0.2192
880.0,0.2145
881.0,0.2106
882.0,0.2148
883.0,0.2163
884.0,0.215
885.0,0.2165
886.0,0.2038
887.0,0.208
888.0,0.2101
889.0,0.2145
890.0,0.21
891.0,0.211
892.0,0.2014
893.0,0.1921
894.0,0.1782
895.0,0.1598
896.0,0.1486
897.0,0.1185
898.0,0.1333
899.0,0.09164
900.0,0.1425
901.0,0.09603
902.0,0.1253
903.0,0.1218
904.0,0.1764
905.0,0.1676
906.0,0.1541
907.0,0.1097
908.0,0.1154
909.0,0.1302
910.0,0.1046
911.0,0.1205
912.0,0.1256
913.0,0.1056
914.0,0.1071
915.0,0.1146
916.0,0.09597
917.0,0.132
918.0,0.09734
919.0,0.1384
920.0,0.1489
921.0,0.1537
922.0,0.1295
923.0,0.1496
924.0,0.1299
925.0,0.1278
926.0,0.1275
927.0,0.1503
928.0,0.08809
929.0,0.07497
930.0,0.05016
931.0,0.04707
932.0,0.0264
933.0,0.01871
934.0,0.005567
935.0,0.02114
936.0,0.009746
937.0,0.009851
938.0,0.01321
939.0,0.04536
940.0,0.06081
941.0,0.03843
942.0,0.04788
943.0,0.0262
944.0,0.03312
945.0,0.04132
946.0,0.01434
947.0,0.03958
948.0,0.02852
949.0,0.06052
950.0,0.008385
951.0,0.06002
952.0,0.02397
953.0,0.03636
954.0,0.05105
955.0,0.03758
956.0,0.04478
957.0,0.02376
958.0,0.06985
959.0,0.04638
960.0,0.05212
961.0,0.0658
962.0,0.06212
963.0,0.07833
964.0,0.06995
965.0,0.07732
966.0,0.07712
967.0,0.07556
968.0,0.1302
969.0,0.1309
970.0,0.1181
971.0,0.1483
972.0,0.1386
973.0,0.1077
974.0,0.1017
975.0,0.1091
976.0,0.09617
977.0,0.1256
978.0,0.1125
979.0,0.1212
980.0,0.1124
981.0,0.1477
982.0,0.1364
983.0,0.1284
984.0,0.1586
985.0,0.1354
986.0,0.1656
987.0,0.1584
988.0,0.1585
989.0,0.168
990.0,0.1573
991.0,0.1679
992.0,0.1694
993.0,0.1614
994.0,0.1699
995.0,0.1704
996.0,0.1689
997.0,0.1695
998.0,0.1684
999.0,0.168
1000.0,0.1657
1001.0,0.1691
1002.0,0.1595
1003.0,0.1658
1004.0,0.1604
1005.0,0.1563
1006.0,0.1616
1007.0,0.1654
1008.0,0.1637
1009.0,0.1619
1010.0,0.1607
1011.0,0.1647
1012.0,0.1624
1013.0,0.1646
1014.0,0.1635
1015.0,0.1622
1016.0,0.1614
1017.0,0.1616
1018.0,0.1616
1019.0,0.1563
1020.0,0.1605
1021.0,0.1606
1022.0,0.1586
1023.0,0.1602
1024.0,0.1562
1025.0,0.1608
1026.0,0.1596
1027.0,0.1593
1028.0,0.1588
1029.0,0.1567
1030.0,0.1585
1031.0,0.1576
1032.0,0.1574
1033.0,0.1549
1034.0,0.155
1035.0,0.1555
1036.0,0.1561
1037.0,0.1536
1038.0,0.1542
1039.0,0.154
1040.0,0.1534
1041.0,0.1538
1042.0,0.1527
1043.0,0.1521
1044.0,0.1525
1045.0,0.1503
1046.0,0.1485
1047.0,0.1497
1048.0,0.1504
1049.0,0.1497
1050.0,0.1488
1051.0,0.1484
1052.0,0.1476
1053.0,0.1462
1054.0,0.1463
1055.0,0.1461
1056.0,0.1452
1057.0,0.1445
1058.0,0.1407
1059.0,0.1405
1060.0,0.1401
1061.0,0.1398
1062.0,0.1402
1063.0,0.1386
1064.0,0.1403
1065.0,0.1386
1066.0,0.1364
1067.0,0.138
1068.0,0.1345
1069.0,0.1308
1070.0,0.1347
1071.0,0.1385
1072.0,0.1356
1073.0,0.1339
1074.0,0.1393
1075.0,0.128
1076.0,0.1389
1077.0,0.1341
1078.0,0.1302
1079.0,0.1376
1080.0,0.132
1081.0,0.1254
1082.0,0.1313
1083.0,0.1328
1084.0,0.1243
1085.0,0.1326
1086.0,0.1153
1087.0,0.1227
1088.0,0.132
1089.0,0.1233
1090.0,0.1187
1091.0,0.1304
1092.0,0.1308
1093.0,0.09987
1094.0,0.1182
1095.0,0.1042
1096.0,0.09695
1097.0,0.1278
1098.0,0.09359
1099.0,0.09911
1100.0,0.0883
1101.0,0.09103
1102.0,0.0839
1103.0,0.08099
1104.0,0.08148
1105.0,0.09584
1106.0,0.05766
1107.0,0.08827
1108.0,0.06547
1109.0,0.06673
1110.0,0.08499
1111.0,0.04521
1112.0,0.06674
1113.0,0.03143
1114.0,0.03531
1115.0,0.02821
1116.0,0.01759
1117.0,0.003147
1118.0,0.02
1119.0,0.006487
1120.0,0.007604
1121.0,0.01156
1122.0,0.002694
1123.0,0.00697
1124.0,0.005837
1125.0,0.008454
1126.0,0.001108
1127.0,0.009725
1128.0,0.003469
1129.0,0.003839
1130.0,0.002336
1131.0,0.02677
1132.0,0.01915
1133.0,0.007965
1134.0,0.0008321
1135.0,0.0003857
1136.0,0.005442
1137.0,0.0246
1138.0,0.01629
1139.0,0.03564
1140.0,0.02528
1141.0,0.01566
1142.0,0.01982
1143.0,0.03348
1144.0,0.007241
1145.0,0.007587
1146.0,0.008153
1147.0,0.001204
1148.0,0.02792
1149.0,0.01933
1150.0,0.008907
1151.0,0.01621
1152.0,0.02348
1153.0,0.02591
1154.0,0.007931
1155.0,0.03709
1156.0,0.03092
1157.0,0.04062
1158.0,0.03996
1159.0,0.04534
1160.0,0.03738
1161.0,0.05335
1162.0,0.05269
1163.0,0.08604
1164.0,0.0686
1165.0,0.05956
1166.0,0.06367
1167.0,0.0718
1168.0,0.07163
1169.0,0.0745
1170.0,0.08575
1171.0,0.0836
1172.0,0.08855
1173.0,0.08568
1174.0,0.05119
1175.0,0.08698
1176.0,0.1025
1177.0,0.09358
1178.0,0.0624
1179.0,0.1032
1180.0,0.08477
1181.0,0.08767
1182.0,0.05125
1183.0,0.08775
1184.0,0.07898
1185.0,0.07325
1186.0,0.0969
1187.0,0.08896
1188.0,0.0502
1189.0,0.08246
1190.0,0.09561
1191.0,0.08394
1192.0,0.09762
1193.0,0.0912
1194.0,0.09557
1195.0,0.08575
1196.0,0.08019
1197.0,0.09729
1198.0,0.08735
1199.0,0.06509
1200.0,0.0901
1201.0,0.08332
1202.0,0.08615
1203.0,0.08314
1204.0,0.06922
1205.0,0.09052
1206.0,0.1045
1207.0,0.08441
1208.0,0.08592
1209.0,0.08799
1210.0,0.0939
1211.0,0.08631
1212.0,0.07963
1213.0,0.09821
1214.0,0.08346
1215.0,0.08152
1216.0,0.09865
1217.0,0.0943
1218.0,0.09766
1219.0,0.09525
1220.0,0.09797
1221.0,0.1002
1222.0,0.09687
1223.0,0.09509
1224.0,0.09235
1225.0,0.0991
1226.0,0.1014
1227.0,0.08832
1228.0,0.1029
1229.0,0.1014
1230.0,0.09873
1231.0,0.1048
1232.0,0.1041
1233.0,0.0961
1234.0,0.1058
1235.0,0.1044
1236.0,0.1057
1237.0,0.1026
1238.0,0.1054
1239.0,0.104
1240.0,0.1046
1241.0,0.1029
1242.0,0.1038
1243.0,0.103
1244.0,0.1033
1245.0,0.104
1246.0,0.1035
1247.0,0.1027
1248.0,0.102
1249.0,0.1029
1250.0,0.1019
1251.0,0.09979
1252.0,0.1008
1253.0,0.09821
1254.0,0.09594
1255.0,0.1002
1256.0,0.09419
1257.0,0.09301
1258.0,0.09731
1259.0,0.0889
1260.0,0.08996
1261.0,0.07909
1262.0,0.0738
1263.0,0.07379
1264.0,0.06184
1265.0,0.07342
1266.0,0.06686
1267.0,0.07066
1268.0,0.0629
1269.0,0.02007
1270.0,0.06936
1271.0,0.07964
1272.0,0.08043
1273.0,0.07893
1274.0,0.08009
1275.0,0.08227
1276.0,0.08425
1277.0,0.0864
1278.0,0.09032
1279.0,0.08948
1280.0,0.08844
1281.0,0.08551
1282.0,0.08425
1283.0,0.09035
1284.0,0.09219
1285.0,0.09312
1286.0,0.09538
1287.0,0.09204
1288.0,0.09266
1289.0,0.08601
1290.0,0.09198
1291.0,0.09396
1292.0,0.08181
1293.0,0.09067
1294.0,0.08979
1295.0,0.08698
1296.0,0.07931
1297.0,0.07249
1298.0,0.08382
1299.0,0.09132
1300.0,0.068
1301.0,0.07149
1302.0,0.08382
1303.0,0.06786
1304.0,0.05
1305.0,0.08166
1306.0,0.0805
1307.0,0.05391
1308.0,0.06936
1309.0,0.07822
1310.0,0.05199
1311.0,0.06455
1312.0,0.06196
1313.0,0.05836
1314.0,0.04921
1315.0,0.04702
1316.0,0.06196
1317.0,0.05736
1318.0,0.06592
1319.0,0.04217
1320.0,0.04241
1321.0,0.0529
1322.0,0.05156
1323.0,0.0316
1324.0,0.04182
1325.0,0.05968
1326.0,0.04676
1327.0,0.0432
1328.0,0.03457
1329.0,0.02016
1330.0,0.02954
1331.0,0.01235
1332.0,0.01402
1333.0,0.02052
1334.0,0.02144
1335.0,0.03059
1336.0,0.02075
1337.0,0.01789
1338.0,0.01888
1339.0,0.01939
1340.0,0.02053
1341.0,0.01601
1342.0,0.01744
1343.0,0.006926
1344.0,0.004599
1345.0,0.006047
1346.0,0.00132
1347.0,0.001115
1348.0,1.734e-05
1349.0,7.978e-05
1350.0,9.738e-05
1351.0,7.801e-06
1352.0,1.059e-06
1353.0,5.033e-08
1354.0,1.855e-07
1355.0,1.362e-09
1356.0,2.44e-08
1357.0,3.702e-08
1358.0,1.599e-09
1359.0,2.011e-10
1360.0,7.272e-10
1361.0,8.129e-13
1362.0,2.224e-15
1363.0,9.773e-10
1364.0,4.035e-10
1365.0,7.764e-16
1366.0,4.235e-09
1367.0,1.73e-09
1368.0,5.995e-18
1369.0,1.487e-10
1370.0,7.321e-11
1371.0,4.15e-12
1372.0,9.384e-10
1373.0,1.901e-08
1374.0,9.005e-08
1375.0,1.61e-07
1376.0,1.595e-07
1377.0,7.156e-08
1378.0,6.898e-07
1379.0,3.042e-08
1380.0,4.036e-08
1381.0,1.046e-09
1382.0,8.221e-10
1383.0,1.229e-11
1384.0,1.611e-10
1385.0,7.738e-10
1386.0,7.245e-10
1387.0,8.808e-08
1388.0,1.77e-09
1389.0,3.102e-07
1390.0,2.625e-07
1391.0,1.753e-07
1392.0,1.15e-08
1393.0,6.316e-08
1394.0,3e-08
1395.0,2.195e-10
1396.0,1.058e-12
1397.0,2.408e-08
1398.0,7.181e-07
1399.0,4.603e-07
1400.0,4.525e-13
1401.0,1.877e-12
1402.0,2.679e-06
1403.0,2.498e-06
1404.0,6.581e-07
1405.0,1.037e-10
1406.0,1.363e-06
1407.0,1.971e-07
1408.0,1.152e-06
1409.0,3.334e-07
1410.0,3.253e-07
1411.0,2.31e-06
1412.0,4.396e-06
1413.0,0.0001112
1414.0,2.717e-07
1415.0,1.16e-07
1416.0,0.000578
1417.0,8.889e-05
1418.0,5.353e-05
