interpolation:linear
wavelength,value
280.0,3.985e-23
280.5,1.3450000000000001e-21
281.0,7.3e-21
281.5,2.382e-19
282.0,4.825e-19
282.5,1.106e-18
283.0,3.392e-18
283.5,5.501e-18
284.0,8.986e-17
284.5,2.639e-16
285.0,8.233e-16
285.5,3.158e-15
286.0,1.218e-14
286.5,5.171e-14
287.0,1.451e-13
287.5,5.494e-13
288.0,1.662e-12
288.5,4.716e-12
289.0,1.214e-11
289.5,3.597e-11
290.0,9.926e-11
290.5,2.024e-10
291.0,4.354e-10
291.5,1.255e-09
292.0,2.576e-09
292.5,3.58e-09
293.0,7.593e-09
293.5,1.823e-08
294.0,2.842e-08
294.5,3.402e-08
295.0,5.715e-08
295.5,9.623e-08
296.0,1.796e-07
296.5,2.425e-07
297.0,3.182e-07
297.5,8.125e-07
298.0,1.223e-06
298.5,1.186e-06
299.0,2.515e-06
299.5,3.886e-06
300.0,4.094e-06
300.5,5.664e-06
301.0,9.482e-06
301.5,1.402e-05
302.0,1.153e-05
302.5,2.193e-05
303.0,3.767e-05
303.5,4.655e-05
304.0,4.419e-05
304.5,6.812e-05
305.0,0.0001092
305.5,0.0001302
306.0,0.000128
306.5,0.000164
307.0,0.0002605
307.5,0.0003721
308.0,0.0003975
308.5,0.0004873
309.0,0.0005086
309.5,0.000717
310.0,0.0007937
310.5,0.001349
311.0,0.001833
311.5,0.001832
312.0,0.00218
312.5,0.002979
313.0,0.003435
313.5,0.003149
314.0,0.00453
314.5,0.004847
315.0,0.006584
315.5,0.005023
316.0,0.005112
316.5,0.008384
317.0,0.01038
317.5,0.01039
318.0,0.008877
318.5,0.01313
319.0,0.01703
319.5,0.01202
320.0,0.01421
320.5,0.02129
321.0,0.02232
321.5,0.02174
322.0,0.01944
322.5,0.01705
323.0,0.01903
323.5,0.02826
324.0,0.03372
324.5,0.03233
325.0,0.0244
325.5,0.03443
326.0,0.04719
326.5,0.0507
327.0,0.04922
327.5,0.04597
328.0,0.03715
328.5,0.04385
329.0,0.05739
329.5,0.06691
330.0,0.06603
330.5,0.04931
331.0,0.04905
331.5,0.05248
332.0,0.06101
332.5,0.06237
333.0,0.061
333.5,0.05229
334.0,0.05308
334.5,0.06512
335.0,0.06339
335.5,0.07542
336.0,0.05218
336.5,0.05894
337.0,0.04712
337.5,0.05805
338.0,0.0596
338.5,0.07053
339.0,0.07006
339.5,0.06725
340.0,0.07717
340.5,0.06992
341.0,0.0696
341.5,0.06432
342.0,0.07701
342.5,0.07219
343.0,0.07908
343.5,0.07427
344.0,0.05376
344.5,0.05519
345.0,0.07359
345.5,0.0754
346.0,0.06424
346.5,0.07286
347.0,0.07796
347.5,0.06298
348.0,0.07212
348.5,0.07228
349.0,0.06715
349.5,0.06648
350.0,0.08229
350.5,0.08682
351.0,0.07741
351.5,0.07485
352.0,0.0807
352.5,0.06317
353.0,0.07974
353.5,0.08539
354.0,0.08875
354.5,0.09002
355.0,0.08967
355.5,0.0811
356.0,0.08494
356.5,0.07256
357.0,0.05995
357.5,0.07343
358.0,0.05824
358.5,0.04979
359.0,0.06963
359.5,0.08862
360.0,0.09402
360.5,0.07523
361.0,0.06866
361.5,0.07917
362.0,0.06855
362.5,0.09497
363.0,0.08538
363.5,0.0787
364.0,0.09633
364.5,0.08237
365.0,0.08393
365.5,0.1054
366.0,0.1118
366.5,0.1051
367.0,0.1025
367.5,0.1064
368.0,0.09315
368.5,0.09404
369.0,0.1016
369.5,0.1084
370.0,0.1157
370.5,0.08985
371.0,0.09608
371.5,0.1203
372.0,0.07987
372.5,0.09584
373.0,0.09757
373.5,0.06354
374.0,0.09239
374.5,0.07658
375.0,0.07449
375.5,0.1113
376.0,0.0923
376.5,0.0957
377.0,0.1014
377.5,0.1187
378.0,0.1288
378.5,0.1218
379.0,0.1005
379.5,0.09186
380.0,0.09557
380.5,0.1159
381.0,0.1162
381.5,0.09226
382.0,0.08203
382.5,0.07002
383.0,0.06489
383.5,0.06256
384.0,0.06907
384.5,0.1017
385.0,0.1009
385.5,0.0941
386.0,0.08067
386.5,0.1061
387.0,0.08821
387.5,0.09915
388.0,0.09162
388.5,0.09066
389.0,0.09794
389.5,0.1187
390.0,0.1193
390.5,0.1099
391.0,0.1295
391.5,0.1321
392.0,0.1114
392.5,0.09983
393.0,0.05561
393.5,0.04047
394.0,0.08242
394.5,0.1049
395.0,0.1281
395.5,0.1302
396.0,0.113
396.5,0.06615
397.0,0.0497
397.5,0.1012
398.0,0.1417
398.5,0.1466
399.0,0.159
399.5,0.1586
400.0,0.1648
401.0,0.1647
402.0,0.1742
403.0,0.1659
404.0,0.1636
405.0,0.1638
406.0,0.1616
407.0,0.1593
408.0,0.1657
409.0,0.1776
410.0,0.1555
411.0,0.1688
412.0,0.1818
413.0,0.1775
414.0,0.1801
415.0,0.181
416.0,0.1846
417.0,0.1803
418.0,0.1773
419.0,0.18
420.0,0.1795
421.0,0.1881
422.0,0.1791
423.0,0.1752
424.0,0.1855
425.0,0.1855
426.0,0.1812
427.0,0.1782
428.0,0.1738
429.0,0.1652
430.0,0.1448
431.0,0.1436
432.0,0.1859
433.0,0.1872
434.0,0.1741
435.0,0.182
436.0,0.2056
437.0,0.2034
438.0,0.1856
439.0,0.1916
440.0,0.198
441.0,0.2056
442.0,0.2208
443.0,0.215
444.0,0.2202
445.0,0.2156
446.0,0.2066
447.0,0.2241
448.0,0.2273
449.0,0.229
450.0,0.2359
451.0,0.2449
452.0,0.2364
453.0,0.2228
454.0,0.2332
455.0,0.2347
456.0,0.2406
457.0,0.2447
458.0,0.236
459.0,0.2349
460.0,0.2354
461.0,0.241
462.0,0.2434
463.0,0.2419
464.0,0.2389
465.0,0.2368
466.0,0.2398
467.0,0.2352
468.0,0.2381
469.0,0.2393
470.0,0.2316
471.0,0.2316
472.0,0.2441
473.0,0.241
474.0,0.2409
475.0,0.2424
476.0,0.2343
477.0,0.2343
478.0,0.2409
479.0,0.2398
480.0,0.2407
481.0,0.2459
482.0,0.2479
483.0,0.2459
484.0,0.2415
485.0,0.2307
486.0,0.2024
487.0,0.2128
488.0,0.2335
489.0,0.234
490.0,0.2467
491.0,0.2428
492.0,0.2295
493.0,0.2372
494.0,0.2397
495.0,0.242
496.0,0.2435
497.0,0.2473
498.0,0.2356
499.0,0.2382
500.0,0.2307
501.0,0.2258
502.0,0.2215
503.0,0.2294
504.0,0.2204
505.0,0.2309
506.0,0.2384
507.0,0.2271
508.0,0.221
509.0,0.2281
510.0,0.2278
511.0,0.2346
512.0,0.2376
513.0,0.2251
514.0,0.2238
515.0,0.2216
516.0,0.2209
517.0,0.1964
518.0,0.2064
519.0,0.2164
520.0,0.2241
521.0,0.2261
522.0,0.226
523.0,0.2217
524.0,0.2289
525.0,0.2306
526.0,0.2199
527.0,0.2065
528.0,0.2178
529.0,0.229
530.0,0.2254
531.0,0.2283
532.0,0.2203
533.0,0.2139
534.0,0.2205
535.0,0.2257
536.0,0.2282
537.0,0.2196
538.0,0.2236
539.0,0.2217
540.0,0.2123
541.0,0.2126
542.0,0.2187
543.0,0.2171
544.0,0.22
545.0,0.2196
546.0,0.2197
547.0,0.2204
548.0,0.2181
549.0,0.219
550.0,0.2216
551.0,0.2191
552.0,0.2206
553.0,0.2165
554.0,0.2216
555.0,0.2218
556.0,0.2187
557.0,0.2116
558.0,0.2094
559.0,0.2049
560.0,0.207
561.0,0.2092
562.0,0.207
563.0,0.2118
564.0,0.2054
565.0,0.203
566.0,0.1995
567.0,0.2026
568.0,0.1989
569.0,0.1909
570.0,0.1912
571.0,0.1908
572.0,0.1931
573.0,0.1947
574.0,0.1936
575.0,0.1891
576.0,0.1874
577.0,0.1898
578.0,0.1879
579.0,0.1903
580.0,0.1965
581.0,0.1995
582.0,0.205
583.0,0.2069
584.0,0.2097
585.0,0.2052
586.0,0.2011
587.0,0.2044
588.0,0.1953
589.0,0.1652
590.0,0.1732
591.0,0.1882
592.0,0.183
593.0,0.1893
594.0,0.1866
595.0,0.1786
596.0,0.1925
597.0,0.1884
598.0,0.1901
599.0,0.1911
600.0,0.193
601.0,0.1927
602.0,0.1917
603.0,0.1956
604.0,0.1992
605.0,0.1986
606.0,0.1985
607.0,0.2013
608.0,0.1999
609.0,0.2009
610.0,0.2002
611.0,0.2018
612.0,0.2018
613.0,0.1997
614.0,0.1977
615.0,0.2026
616.0,0.1965
617.0,0.1965
618.0,0.2045
619.0,0.2027
620.0,0.2041
621.0,0.2038
622.0,0.2012
623.0,0.1979
624.0,0.1949
625.0,0.1942
626.0,0.1968
627.0,0.1972
628.0,0.1641
629.0,0.1853
630.0,0.1802
631.0,0.1912
632.0,0.1903
633.0,0.1989
634.0,0.1994
635.0,0.2036
636.0,0.2023
637.0,0.2067
638.0,0.2104
639.0,0.2089
640.0,0.208
641.0,0.2086
642.0,0.2086
643.0,0.2116
644.0,0.2119
645.0,0.2117
646.0,0.2043
647.0,0.1959
648.0,0.1971
649.0,0.1919
650.0,0.2006
651.0,0.2105
652.0,0.1949
653.0,0.2084
654.0,0.2065
655.0,0.1953
656.0,0.1756
657.0,0.1809
658.0,0.2053
659.0,0.2077
660.0,0.2093
661.0,0.2115
662.0,0.2109
663.0,0.2071
664.0,0.2114
665.0,0.2131
666.0,0.2138
667.0,0.2144
668.0,0.2154
669.0,0.2193
670.0,0.2187
671.0,0.2191
672.0,0.2176
673.0,0.2213
674.0,0.2208
675.0,0.2192
676.0,0.2211
677.0,0.2192
678.0,0.2201
679.0,0.2169
680.0,0.2188
681.0,0.2175
682.0,0.2173
683.0,0.217
684.0,0.2159
685.0,0.2181
686.0,0.2164
687.0,0.06849
688.0,0.1069
689.0,0.1083
690.0,0.125
691.0,0.1464
692.0,0.165
693.0,0.1635
694.0,0.1659
695.0,0.1836
696.0,0.1848
697.0,0.208
698.0,0.2045
699.0,0.191
700.0,0.1883
701.0,0.1823
702.0,0.187
703.0,0.189
704.0,0.2002
705.0,0.2002
706.0,0.2018
707.0,0.203
708.0,0.203
709.0,0.2072
710.0,0.205
711.0,0.2062
712.0,0.2075
713.0,0.2035
714.0,0.205
715.0,0.1947
716.0,0.194
717.0,0.1386
718.0,0.126
719.0,0.1132
720.0,0.1153
721.0,0.1428
722.0,0.181
723.0,0.1602
724.0,0.1334
725.0,0.1285
726.0,0.1351
727.0,0.1442
728.0,0.1271
729.0,0.1416
730.0,0.1463
731.0,0.1388
732.0,0.1596
733.0,0.1781
734.0,0.186
735.0,0.1801
736.0,0.1789
737.0,0.18
738.0,0.1917
739.0,0.1884
740.0,0.1959
741.0,0.1955
742.0,0.1974
743.0,0.203
744.0,0.2035
745.0,0.2045
746.0,0.2054
747.0,0.2061
748.0,0.2058
749.0,0.2036
750.0,0.2035
751.0,0.2015
752.0,0.2026
753.0,0.2037
754.0,0.2042
755.0,0.203
756.0,0.203
757.0,0.2033
758.0,0.2005
759.0,0.19
760.0,0.003167
761.0,0.001424
762.0,0.03015
763.0,0.006233
764.0,0.01459
765.0,0.02997
766.0,0.0559
767.0,0.1017
768.0,0.1533
769.0,0.1662
770.0,0.1835
771.0,0.1904
772.0,0.1926
773.0,0.1944
774.0,0.1938
775.0,0.1926
776.0,0.1951
777.0,0.1926
778.0,0.1914
779.0,0.1916
780.0,0.1906
781.0,0.1909
782.0,0.1922
783.0,0.189
784.0,0.1901
785.0,0.1883
786.0,0.19
787.0,0.1818
788.0,0.1775
789.0,0.1777
790.0,0.1673
791.0,0.1746
792.0,0.1743
793.0,0.1709
794.0,0.1795
795.0,0.1809
796.0,0.1669
797.0,0.1661
798.0,0.1796
799.0,0.1771
800.0,0.172
801.0,0.1693
802.0,0.1684
803.0,0.1659
804.0,0.1672
805.0,0.1693
806.0,0.1786
807.0,0.1756
808.0,0.1759
809.0,0.1691
810.0,0.166
811.0,0.1634
812.0,0.1512
813.0,0.147
814.0,0.1166
815.0,0.1173
816.0,0.1067
817.0,0.1088
818.0,0.1019
819.0,0.1243
820.0,0.114
821.0,0.151
822.0,0.1436
823.0,0.0731
824.0,0.1323
825.0,0.149
826.0,0.1368
827.0,0.1507
828.0,0.1102
829.0,0.1374
830.0,0.1348
831.0,0.1348
832.0,0.1275
833.0,0.1432
834.0,0.1338
835.0,0.1606
836.0,0.1433
837.0,0.1607
838.0,0.151
839.0,0.1578
840.0,0.1625
841.0,0.1581
842.0,0.1617
843.0,0.1654
844.0,0.1612
845.0,0.1691
846.0,0.169
847.0,0.1669
848.0,0.1643
849.0,0.1596
850.0,0.1531
851.0,0.1604
852.0,0.1601
853.0,0.1554
854.0,0.1331
855.0,0.1478
856.0,0.1608
857.0,0.1655
858.0,0.1638
859.0,0.1647
860.0,0.1655
861.0,0.1644
862.0,0.1673
863.0,0.1712
864.0,0.1628
865.0,0.1615
866.0,0.1452
867.0,0.1516
868.0,0.165
869.0,0.1617
870.0,0.1663
871.0,0.1641
872.0,0.1636
873.0,0.1633
874.0,0.1614
875.0,0.158
876.0,0.1596
877.0,0.1613
878.0,0.1628
879.0,0.1603
880.0,0.1569
881.0,0.1538
882.0,0.1567
883.0,0.1581
884.0,0.157
885.0,0.1582
886.0,0.1482
887.0,0.1518
888.0,0.153
889.0,0.1569
890.0,0.1526
891.0,0.1538
892.0,0.1458
893.0,0.1382
894.0,0.1259
895.0,0.1103
896.0,0.1018
897.0,0.0788
898.0,0.08947
899.0,0.059
900.0,0.09731
901.0,0.06195
902.0,0.08366
903.0,0.08018
904.0,0.1241
905.0,0.1173
906.0,0.1069
907.0,0.07152
908.0,0.07679
909.0,0.08768
910.0,0.06803
911.0,0.08158
912.0,0.08402
913.0,0.06854
914.0,0.07024
915.0,0.07454
916.0,0.06223
917.0,0.08838
918.0,0.06271
919.0,0.0936
920.0,0.1041
921.0,0.1067
922.0,0.0881
923.0,0.1042
924.0,0.08712
925.0,0.08585
926.0,0.08499
927.0,0.102
928.0,0.05454
929.0,0.04518
930.0,0.02769
931.0,0.02541
932.0,0.01274
933.0,0.00855
934.0,0.002073
935.0,0.009916
936.0,0.004104
937.0,0.004195
938.0,0.005761
939.0,0.02439
940.0,0.0345
941.0,0.02013
942.0,0.02566
943.0,0.01295
944.0,0.01781
945.0,0.02208
946.0,0.006473
947.0,0.02074
948.0,0.01487
949.0,0.03398
950.0,0.003601
951.0,0.03329
952.0,0.01194
953.0,0.01922
954.0,0.02833
955.0,0.02018
956.0,0.02713
957.0,0.01191
958.0,0.04255
959.0,0.02623
960.0,0.02967
961.0,0.03937
962.0,0.03732
963.0,0.04897
964.0,0.04333
965.0,0.04766
966.0,0.04811
967.0,0.04667
968.0,0.09012
969.0,0.08856
970.0,0.07978
971.0,0.104
972.0,0.09599
973.0,0.07115
974.0,0.06739
975.0,0.07276
976.0,0.06197
977.0,0.0868
978.0,0.07557
979.0,0.08208
980.0,0.07601
981.0,0.1036
982.0,0.09462
983.0,0.08841
984.0,0.1135
985.0,0.09352
986.0,0.12
987.0,0.1141
988.0,0.1145
989.0,0.1227
990.0,0.1132
991.0,0.1225
992.0,0.1238
993.0,0.117
994.0,0.1244
995.0,0.125
996.0,0.1236
997.0,0.1242
998.0,0.1233
999.0,0.1231
1000.0,0.1209
1001.0,0.1239
1002.0,0.115
1003.0,0.1214
1004.0,0.1169
1005.0,0.1146
1006.0,0.1183
1007.0,0.1212
1008.0,0.1196
1009.0,0.1179
1010.0,0.1169
1011.0,0.1207
1012.0,0.1187
1013.0,0.1207
1014.0,0.1199
1015.0,0.1189
1016.0,0.1183
1017.0,0.1183
1018.0,0.1186
1019.0,0.1139
1020.0,0.1176
1021.0,0.1178
1022.0,0.1161
1023.0,0.1173
1024.0,0.1137
1025.0,0.1179
1026.0,0.1168
1027.0,0.1167
1028.0,0.1163
1029.0,0.1147
1030.0,0.1162
1031.0,0.1155
1032.0,0.1154
1033.0,0.1136
1034.0,0.1137
1035.0,0.114
1036.0,0.1143
1037.0,0.1126
1038.0,0.113
1039.0,0.1128
1040.0,0.1123
1041.0,0.1125
1042.0,0.1117
1043.0,0.1113
1044.0,0.1115
1045.0,0.1099
1046.0,0.1085
1047.0,0.1093
1048.0,0.1097
1049.0,0.1092
1050.0,0.1085
1051.0,0.1081
1052.0,0.1074
1053.0,0.1063
1054.0,0.1062
1055.0,0.106
1056.0,0.1052
1057.0,0.1046
1058.0,0.1017
1059.0,0.1015
1060.0,0.1011
1061.0,0.1008
1062.0,0.101
1063.0,0.09975
1064.0,0.101
1065.0,0.09949
1066.0,0.09815
1067.0,0.09922
1068.0,0.09648
1069.0,0.09402
1070.0,0.09676
1071.0,0.1
1072.0,0.09754
1073.0,0.09637
1074.0,0.101
1075.0,0.09182
1076.0,0.1006
1077.0,0.09659
1078.0,0.09339
1079.0,0.09999
1080.0,0.09483
1081.0,0.08962
1082.0,0.09482
1083.0,0.09635
1084.0,0.08843
1085.0,0.0954
1086.0,0.0814
1087.0,0.08773
1088.0,0.09562
1089.0,0.08765
1090.0,0.08405
1091.0,0.09405
1092.0,0.09442
1093.0,0.06917
1094.0,0.08498
1095.0,0.07184
1096.0,0.06617
1097.0,0.0923
1098.0,0.06325
1099.0,0.06724
1100.0,0.05891
1101.0,0.06145
1102.0,0.05569
1103.0,0.05304
1104.0,0.05362
1105.0,0.0645
1106.0,0.03531
1107.0,0.05903
1108.0,0.04146
1109.0,0.04206
1110.0,0.05562
1111.0,0.02628
1112.0,0.04215
1113.0,0.01733
1114.0,0.01934
1115.0,0.015
1116.0,0.008353
1117.0,0.00117
1118.0,0.009539
1119.0,0.002573
1120.0,0.002883
1121.0,0.004573
1122.0,0.0008312
1123.0,0.00263
1124.0,0.002198
1125.0,0.00337
1126.0,0.0003102
1127.0,0.003882
1128.0,0.001125
1129.0,0.00125
1130.0,0.0008171
1131.0,0.01277
1132.0,0.008696
1133.0,0.002995
1134.0,0.0002351
1135.0,0.0001149
1136.0,0.001869
1137.0,0.01156
1138.0,0.00726
1139.0,0.01913
1140.0,0.01258
1141.0,0.007047
1142.0,0.009299
1143.0,0.01731
1144.0,0.003015
1145.0,0.002785
1146.0,0.002993
1147.0,0.0003304
1148.0,0.01395
1149.0,0.009051
1150.0,0.004062
1151.0,0.007271
1152.0,0.01136
1153.0,0.01329
1154.0,0.003207
1155.0,0.01997
1156.0,0.01609
1157.0,0.02327
1158.0,0.0229
1159.0,0.02611
1160.0,0.02186
1161.0,0.03315
1162.0,0.03244
1163.0,0.05759
1164.0,0.04459
1165.0,0.03758
1166.0,0.04145
1167.0,0.04736
1168.0,0.04739
1169.0,0.04943
1170.0,0.05821
1171.0,0.05674
1172.0,0.06124
1173.0,0.05815
1174.0,0.03248
1175.0,0.06025
1176.0,0.07316
1177.0,0.06541
1178.0,0.04167
1179.0,0.07349
1180.0,0.05822
1181.0,0.06026
1182.0,0.03262
1183.0,0.0607
1184.0,0.0536
1185.0,0.04886
1186.0,0.06788
1187.0,0.06122
1188.0,0.03124
1189.0,0.05664
1190.0,0.0674
1191.0,0.05702
1192.0,0.06908
1193.0,0.06368
1194.0,0.06734
1195.0,0.05896
1196.0,0.05441
1197.0,0.06886
1198.0,0.0617
1199.0,0.04317
1200.0,0.06314
1201.0,0.05708
1202.0,0.06051
1203.0,0.05723
1204.0,0.0468
1205.0,0.06416
1206.0,0.07536
1207.0,0.05873
1208.0,0.0607
1209.0,0.062
1210.0,0.06698
1211.0,0.0608
1212.0,0.05401
1213.0,0.06975
1214.0,0.05722
1215.0,0.05594
1216.0,0.07054
1217.0,0.0669
1218.0,0.06976
1219.0,0.06754
1220.0,0.07003
1221.0,0.07242
1222.0,0.06955
1223.0,0.06799
1224.0,0.06514
1225.0,0.07121
1226.0,0.07352
1227.0,0.06214
1228.0,0.07475
1229.0,0.07359
1230.0,0.07129
1231.0,0.07658
1232.0,0.07599
1233.0,0.06896
1234.0,0.07769
1235.0,0.07636
1236.0,0.07758
1237.0,0.07487
1238.0,0.07734
1239.0,0.0763
1240.0,0.07687
1241.0,0.07515
1242.0,0.07619
1243.0,0.07566
1244.0,0.07574
1245.0,0.07633
1246.0,0.07595
1247.0,0.07524
1248.0,0.07449
1249.0,0.07535
1250.0,0.07446
1251.0,0.07261
1252.0,0.07375
1253.0,0.07113
1254.0,0.06897
1255.0,0.07316
1256.0,0.06742
1257.0,0.06631
1258.0,0.07045
1259.0,0.06241
1260.0,0.0634
1261.0,0.05353
1262.0,0.04885
1263.0,0.0488
1264.0,0.0387
1265.0,0.04858
1266.0,0.04288
1267.0,0.04631
1268.0,0.03976
1269.0,0.008764
1270.0,0.04506
1271.0,0.05433
1272.0,0.05496
1273.0,0.05368
1274.0,0.05486
1275.0,0.05672
1276.0,0.05857
1277.0,0.06078
1278.0,0.06437
1279.0,0.06397
1280.0,0.0631
1281.0,0.06148
1282.0,0.06131
1283.0,0.06559
1284.0,0.06683
1285.0,0.06765
1286.0,0.06966
1287.0,0.06652
1288.0,0.06728
1289.0,0.06108
1290.0,0.06678
1291.0,0.0685
1292.0,0.05751
1293.0,0.06566
1294.0,0.06494
1295.0,0.06194
1296.0,0.05537
1297.0,0.0498
1298.0,0.05945
1299.0,0.06623
1300.0,0.04668
1301.0,0.04928
1302.0,0.05975
1303.0,0.04664
1304.0,0.03225
1305.0,0.05793
1306.0,0.05655
1307.0,0.03551
1308.0,0.04799
1309.0,0.05432
1310.0,0.03383
1311.0,0.04409
1312.0,0.04237
1313.0,0.03873
1314.0,0.03157
1315.0,0.0299
1316.0,0.04188
1317.0,0.0382
1318.0,0.04507
1319.0,0.02629
1320.0,0.02667
1321.0,0.03457
1322.0,0.03307
1323.0,0.01826
1324.0,0.02627
1325.0,0.03952
1326.0,0.02984
1327.0,0.02706
1328.0,0.0207
1329.0,0.01057
1330.0,0.01678
1331.0,0.005817
1332.0,0.006772
1333.0,0.01025
1334.0,0.01211
1335.0,0.01717
1336.0,0.01075
1337.0,0.009394
1338.0,0.009762
1339.0,0.01003
1340.0,0.01106
1341.0,0.007628
1342.0,0.008551
1343.0,0.002708
1344.0,0.001855
1345.0,0.002217
1346.0,0.0003492
1347.0,0.0002738
1348.0,5.297e-06
1349.0,2.095e-05
1350.0,2.292e-05
1351.0,3.75e-06
1352.0,9.512e-07
1353.0,4.837e-08
1354.0,1.665e-07
1355.0,1.338e-09
1356.0,2.343e-08
1357.0,3.559e-08
1358.0,1.571e-09
1359.0,1.979e-10
1360.0,7.153e-10
1361.0,8.002e-13
1362.0,2.189e-15
1363.0,9.618e-10
1364.0,3.971e-10
1365.0,7.642e-16
1366.0,4.168e-09
1367.0,1.701e-09
1368.0,5.901e-18
1369.0,1.463e-10
1370.0,7.206e-11
1371.0,4.085e-12
1372.0,9.228e-10
1373.0,1.859e-08
1374.0,8.624e-08
1375.0,1.564e-07
1376.0,1.405e-07
1377.0,6.417e-08
1378.0,6.269e-07
1379.0,2.683e-08
1380.0,3.848e-08
1381.0,1.002e-09
1382.0,8.088e-10
1383.0,1.209e-11
1384.0,1.585e-10
1385.0,7.581e-10
1386.0,7.131e-10
1387.0,8.625e-08
1388.0,1.697e-09
1389.0,2.913e-07
1390.0,2.5e-07
1391.0,1.663e-07
1392.0,1.078e-08
1393.0,5.716e-08
1394.0,2.942e-08
1395.0,2.156e-10
1396.0,1.042e-12
1397.0,2.249e-08
1398.0,6.647e-07
1399.0,4.206e-07
1400.0,4.455e-13
1401.0,1.848e-12
1402.0,1.248e-06
1403.0,1.495e-06
1404.0,4.48e-07
1405.0,1.021e-10
1406.0,1.148e-06
1407.0,1.064e-07
