interpolation:linear
wavelength,value
280.0,1.608e-20
280.5,4.736e-19
281.0,2.45e-18
281.5,4.188e-19
282.0,1.576e-18
282.5,4.322e-18
283.0,1.419e-17
283.5,2.332e-17
284.0,3.707e-16
284.5,1.054e-15
285.0,1.92e-15
285.5,1.062e-14
286.0,4.385e-14
286.5,2.01e-13
287.0,5.787e-13
287.5,2.216e-12
288.0,6.119e-12
288.5,2.302e-11
289.0,7.307e-11
289.5,2.578e-10
290.0,8.003e-10
290.5,1.781e-09
291.0,4.213e-09
291.5,1.357e-08
292.0,3.613e-08
292.5,5.732e-08
293.0,1.442e-07
293.5,4.4e-07
294.0,8.155e-07
294.5,1.088e-06
295.0,2.178e-06
295.5,5.722e-06
296.0,1.12e-05
296.5,1.588e-05
297.0,2.173e-05
297.5,5.924e-05
298.0,9.466e-05
298.5,9.627e-05
299.0,0.0002145
299.5,0.0003624
300.0,0.0004031
300.5,0.0005908
301.0,0.001091
301.5,0.001779
302.0,0.001543
302.5,0.002958
303.0,0.005177
303.5,0.006409
304.0,0.005946
304.5,0.008579
305.0,0.0124
305.5,0.01379
306.0,0.01319
306.5,0.01611
307.0,0.02291
307.5,0.02923
308.0,0.03068
308.5,0.03551
309.0,0.03451
309.5,0.03841
310.0,0.03809
310.5,0.06129
311.0,0.07611
311.5,0.07312
312.0,0.07139
312.5,0.08551
313.0,0.09197
313.5,0.09001
314.0,0.1104
314.5,0.09539
315.0,0.1248
315.5,0.1057
316.0,0.09039
316.5,0.1275
317.0,0.1583
317.5,0.1656
318.0,0.1276
318.5,0.1546
319.0,0.1813
319.5,0.1507
320.0,0.1826
320.5,0.223
321.0,0.1942
321.5,0.1858
322.0,0.2028
322.5,0.1762
323.0,0.1728
323.5,0.2092
324.0,0.2436
324.5,0.2489
325.0,0.2168
325.5,0.2753
326.0,0.3353
326.5,0.333
327.0,0.3329
327.5,0.3228
328.0,0.2907
328.5,0.3014
329.0,0.3569
329.5,0.4038
330.0,0.4085
330.5,0.3297
331.0,0.3368
331.5,0.3402
332.0,0.3642
332.5,0.3588
333.0,0.3586
333.5,0.3268
334.0,0.3351
334.5,0.3838
335.0,0.359
335.5,0.4193
336.0,0.2902
336.5,0.3405
337.0,0.2803
337.5,0.349
338.0,0.3386
338.5,0.3908
339.0,0.3867
339.5,0.372
340.0,0.4373
340.5,0.394
341.0,0.3843
341.5,0.3527
342.0,0.4215
342.5,0.3943
343.0,0.4338
343.5,0.4085
344.0,0.3019
344.5,0.305
345.0,0.4035
345.5,0.4119
346.0,0.35
346.5,0.3963
347.0,0.4255
347.5,0.3441
348.0,0.3922
348.5,0.392
349.0,0.3636
349.5,0.36
350.0,0.4453
350.5,0.4697
351.0,0.4197
351.5,0.408
352.0,0.4381
352.5,0.3419
353.0,0.4306
353.5,0.4604
354.0,0.478
354.5,0.4848
355.0,0.4832
355.5,0.4365
356.0,0.4567
356.5,0.39
357.0,0.3223
357.5,0.3945
358.0,0.3127
358.5,0.2672
359.0,0.3738
359.5,0.4764
360.0,0.5051
360.5,0.4037
361.0,0.368
361.5,0.4237
362.0,0.3664
362.5,0.5071
363.0,0.4555
363.5,0.4196
364.0,0.5132
364.5,0.4387
365.0,0.4468
365.5,0.5608
366.0,0.5942
366.5,0.5583
367.0,0.5437
367.5,0.5643
368.0,0.4939
368.5,0.4984
369.0,0.5382
369.5,0.5737
370.0,0.6116
370.5,0.4747
371.0,0.5073
371.5,0.6347
372.0,0.4213
372.5,0.5052
373.0,0.5139
373.5,0.3344
374.0,0.4859
374.5,0.4025
375.0,0.3913
375.5,0.5842
376.0,0.4843
376.5,0.5019
377.0,0.5315
377.5,0.6218
378.0,0.6741
378.5,0.6372
379.0,0.5259
379.5,0.4804
380.0,0.4996
380.5,0.6051
381.0,0.6064
381.5,0.4807
382.0,0.427
382.5,0.364
383.0,0.337
383.5,0.3246
384.0,0.3581
384.5,0.5268
385.0,0.5224
385.5,0.4866
386.0,0.4168
386.5,0.5475
387.0,0.455
387.5,0.5111
388.0,0.4719
388.5,0.4665
389.0,0.5036
389.5,0.61
390.0,0.6123
390.5,0.5635
391.0,0.6634
391.5,0.6767
392.0,0.57
392.5,0.5103
393.0,0.284
393.5,0.2064
394.0,0.4201
394.5,0.5342
395.0,0.6519
395.5,0.6623
396.0,0.5742
396.5,0.3357
397.0,0.252
397.5,0.5124
398.0,0.7177
398.5,0.7419
399.0,0.8033
399.5,0.8008
400.0,0.8316
401.0,0.8444
402.0,0.8909
403.0,0.8464
404.0,0.8335
405.0,0.8334
406.0,0.8199
407.0,0.8068
408.0,0.8384
409.0,0.8974
410.0,0.7842
411.0,0.8495
412.0,0.9124
413.0,0.8899
414.0,0.9008
415.0,0.9032
416.0,0.919
417.0,0.8965
418.0,0.88
419.0,0.8916
420.0,0.8877
421.0,0.9287
422.0,0.8828
423.0,0.8624
424.0,0.9122
425.0,0.9105
426.0,0.8869
427.0,0.8704
428.0,0.8479
429.0,0.8031
430.0,0.7028
431.0,0.6967
432.0,0.8995
433.0,0.9045
434.0,0.8399
435.0,0.8772
436.0,0.9884
437.0,0.975
438.0,0.8878
439.0,0.9185
440.0,0.9477
441.0,0.9819
442.0,1.053
443.0,1.026
444.0,1.048
445.0,1.026
446.0,0.9785
447.0,1.058
448.0,1.074
449.0,1.078
450.0,1.109
451.0,1.15
452.0,1.108
453.0,1.042
454.0,1.087
455.0,1.094
456.0,1.12
457.0,1.139
458.0,1.1
459.0,1.094
460.0,1.097
461.0,1.123
462.0,1.131
463.0,1.123
464.0,1.105
465.0,1.091
466.0,1.101
467.0,1.081
468.0,1.094
469.0,1.099
470.0,1.064
471.0,1.063
472.0,1.12
473.0,1.106
474.0,1.107
475.0,1.117
476.0,1.084
477.0,1.087
478.0,1.117
479.0,1.11
480.0,1.112
481.0,1.133
482.0,1.138
483.0,1.124
484.0,1.101
485.0,1.049
486.0,0.917
487.0,0.9609
488.0,1.054
489.0,1.058
490.0,1.113
491.0,1.093
492.0,1.032
493.0,1.066
494.0,1.077
495.0,1.086
496.0,1.093
497.0,1.11
498.0,1.058
499.0,1.071
500.0,1.04
501.0,1.021
502.0,1.007
503.0,1.049
504.0,1.023
505.0,1.059
506.0,1.093
507.0,1.04
508.0,1.007
509.0,1.035
510.0,1.03
511.0,1.057
512.0,1.068
513.0,1.011
514.0,1.004
515.0,0.9943
516.0,0.9919
517.0,0.8813
518.0,0.9265
519.0,0.9718
520.0,1.007
521.0,1.017
522.0,1.018
523.0,0.9995
524.0,1.035
525.0,1.048
526.0,1.001
527.0,0.9435
528.0,0.998
529.0,1.052
530.0,1.037
531.0,1.053
532.0,1.016
533.0,0.9866
534.0,1.016
535.0,1.038
536.0,1.047
537.0,1.006
538.0,1.024
539.0,1.015
540.0,0.9731
541.0,0.9798
542.0,1.011
543.0,0.9998
544.0,1.017
545.0,1.014
546.0,1.019
547.0,1.018
548.0,1.006
549.0,1.009
550.0,1.021
551.0,1.008
552.0,1.015
553.0,0.9973
554.0,1.021
555.0,1.023
556.0,1.01
557.0,0.9787
558.0,0.9715
559.0,0.9535
560.0,0.9655
561.0,0.9781
562.0,0.9712
563.0,0.9979
564.0,0.9708
565.0,0.9626
566.0,0.9486
567.0,0.9667
568.0,0.9585
569.0,0.9366
570.0,0.9362
571.0,0.9303
572.0,0.9532
573.0,0.9635
574.0,0.9606
575.0,0.9428
576.0,0.9342
577.0,0.9443
578.0,0.9299
579.0,0.9332
580.0,0.9504
581.0,0.9548
582.0,0.9725
583.0,0.9745
584.0,0.9828
585.0,0.9587
586.0,0.939
587.0,0.9598
588.0,0.9375
589.0,0.8326
590.0,0.8705
591.0,0.92
592.0,0.9091
593.0,0.9216
594.0,0.9156
595.0,0.8937
596.0,0.9273
597.0,0.9177
598.0,0.9148
599.0,0.9154
600.0,0.9163
601.0,0.9085
602.0,0.9023
603.0,0.9171
604.0,0.9322
605.0,0.9273
606.0,0.9233
607.0,0.9323
608.0,0.9218
609.0,0.9233
610.0,0.9165
611.0,0.9212
612.0,0.9184
613.0,0.9068
614.0,0.8942
615.0,0.9136
616.0,0.8834
617.0,0.8815
618.0,0.9153
619.0,0.906
620.0,0.9118
621.0,0.9128
622.0,0.9022
623.0,0.8886
624.0,0.8733
625.0,0.8713
626.0,0.8842
627.0,0.8945
628.0,0.8396
629.0,0.8748
630.0,0.8548
631.0,0.8726
632.0,0.8619
633.0,0.8875
634.0,0.8784
635.0,0.8919
636.0,0.8798
637.0,0.894
638.0,0.9023
639.0,0.892
640.0,0.8832
641.0,0.8825
642.0,0.8783
643.0,0.8901
644.0,0.887
645.0,0.8886
646.0,0.8684
647.0,0.8592
648.0,0.8601
649.0,0.8435
650.0,0.8461
651.0,0.8825
652.0,0.8474
653.0,0.8708
654.0,0.8609
655.0,0.8297
656.0,0.7348
657.0,0.7545
658.0,0.8451
659.0,0.8509
660.0,0.8544
661.0,0.8603
662.0,0.8624
663.0,0.8452
664.0,0.8548
665.0,0.8552
666.0,0.8557
667.0,0.8547
668.0,0.855
669.0,0.8681
670.0,0.8643
671.0,0.864
672.0,0.8565
673.0,0.8694
674.0,0.8661
675.0,0.8581
676.0,0.8639
677.0,0.8553
678.0,0.8577
679.0,0.8438
680.0,0.8505
681.0,0.8449
682.0,0.8438
683.0,0.8422
684.0,0.838
685.0,0.8451
686.0,0.8401
687.0,0.5761
688.0,0.6664
689.0,0.6685
690.0,0.6983
691.0,0.7316
692.0,0.7556
693.0,0.7497
694.0,0.7434
695.0,0.772
696.0,0.773
697.0,0.8176
698.0,0.805
699.0,0.7875
700.0,0.778
701.0,0.7707
702.0,0.7754
703.0,0.7768
704.0,0.8006
705.0,0.8018
706.0,0.8006
707.0,0.8011
708.0,0.8028
709.0,0.8033
710.0,0.8036
711.0,0.8023
712.0,0.7996
713.0,0.7918
714.0,0.7947
715.0,0.7703
716.0,0.7709
717.0,0.6754
718.0,0.6214
719.0,0.5698
720.0,0.5974
721.0,0.6554
722.0,0.7454
723.0,0.6962
724.0,0.6299
725.0,0.6207
726.0,0.6493
727.0,0.657
728.0,0.6195
729.0,0.6402
730.0,0.6775
731.0,0.6489
732.0,0.6916
733.0,0.7297
734.0,0.7463
735.0,0.7313
736.0,0.7303
737.0,0.7333
738.0,0.7429
739.0,0.7283
740.0,0.7468
741.0,0.7391
742.0,0.7395
743.0,0.7582
744.0,0.7559
745.0,0.7559
746.0,0.7593
747.0,0.761
748.0,0.7594
749.0,0.7507
750.0,0.7502
751.0,0.7426
752.0,0.7458
753.0,0.7495
754.0,0.7512
755.0,0.747
756.0,0.7466
757.0,0.7477
758.0,0.7384
759.0,0.7244
760.0,0.1372
761.0,0.07527
762.0,0.3881
763.0,0.2036
764.0,0.2976
765.0,0.3882
766.0,0.4685
767.0,0.5831
768.0,0.6665
769.0,0.6791
770.0,0.7006
771.0,0.7055
772.0,0.7068
773.0,0.7117
774.0,0.7082
775.0,0.7027
776.0,0.7113
777.0,0.7019
778.0,0.6976
779.0,0.6982
780.0,0.6943
781.0,0.695
782.0,0.6993
783.0,0.6871
784.0,0.6904
785.0,0.6854
786.0,0.693
787.0,0.6815
788.0,0.6734
789.0,0.6732
790.0,0.6563
791.0,0.661
792.0,0.656
793.0,0.6455
794.0,0.6555
795.0,0.6669
796.0,0.6477
797.0,0.6486
798.0,0.6662
799.0,0.6622
800.0,0.651
801.0,0.6493
802.0,0.6474
803.0,0.6426
804.0,0.6434
805.0,0.641
806.0,0.6583
807.0,0.6505
808.0,0.651
809.0,0.6393
810.0,0.6344
811.0,0.6359
812.0,0.6186
813.0,0.6063
814.0,0.5365
815.0,0.5331
816.0,0.4966
817.0,0.5053
818.0,0.4871
819.0,0.5419
820.0,0.5114
821.0,0.5941
822.0,0.5777
823.0,0.3986
824.0,0.5622
825.0,0.5839
826.0,0.5629
827.0,0.5928
828.0,0.5059
829.0,0.5592
830.0,0.5522
831.0,0.5541
832.0,0.5377
833.0,0.5704
834.0,0.5513
835.0,0.6033
836.0,0.5789
837.0,0.6049
838.0,0.5867
839.0,0.5956
840.0,0.6085
841.0,0.6002
842.0,0.6011
843.0,0.6003
844.0,0.5922
845.0,0.6119
846.0,0.6091
847.0,0.5977
848.0,0.5941
849.0,0.5773
850.0,0.553
851.0,0.5857
852.0,0.5815
853.0,0.5596
854.0,0.4833
855.0,0.5308
856.0,0.5801
857.0,0.593
858.0,0.5886
859.0,0.5891
860.0,0.5901
861.0,0.5869
862.0,0.5961
863.0,0.6101
864.0,0.5796
865.0,0.5746
866.0,0.5166
867.0,0.5391
868.0,0.5867
869.0,0.5745
870.0,0.5909
871.0,0.5828
872.0,0.5807
873.0,0.5796
874.0,0.5727
875.0,0.5611
876.0,0.5669
877.0,0.5726
878.0,0.5789
879.0,0.57
880.0,0.5578
881.0,0.5495
882.0,0.5614
883.0,0.5631
884.0,0.5605
885.0,0.5648
886.0,0.5385
887.0,0.544
888.0,0.5521
889.0,0.5582
890.0,0.5538
891.0,0.5527
892.0,0.5371
893.0,0.5207
894.0,0.5031
895.0,0.4763
896.0,0.4491
897.0,0.387
898.0,0.4216
899.0,0.3222
900.0,0.4309
901.0,0.3376
902.0,0.3943
903.0,0.3988
904.0,0.4993
905.0,0.4825
906.0,0.4519
907.0,0.369
908.0,0.376
909.0,0.4065
910.0,0.361
911.0,0.3838
912.0,0.4009
913.0,0.3664
914.0,0.363
915.0,0.3934
916.0,0.3334
917.0,0.4216
918.0,0.3419
919.0,0.4288
920.0,0.4324
921.0,0.4496
922.0,0.403
923.0,0.4343
924.0,0.4131
925.0,0.4041
926.0,0.4086
927.0,0.4564
928.0,0.3374
929.0,0.3087
930.0,0.2435
931.0,0.2306
932.0,0.167
933.0,0.1361
934.0,0.07555
935.0,0.1389
936.0,0.08732
937.0,0.08856
938.0,0.1087
939.0,0.2234
940.0,0.2682
941.0,0.2032
942.0,0.2348
943.0,0.155
944.0,0.1627
945.0,0.2094
946.0,0.1073
947.0,0.2105
948.0,0.1547
949.0,0.2811
950.0,0.07914
951.0,0.2766
952.0,0.1495
953.0,0.1925
954.0,0.2354
955.0,0.1947
956.0,0.1886
957.0,0.1498
958.0,0.2664
959.0,0.2123
960.0,0.238
961.0,0.2666
962.0,0.2523
963.0,0.2904
964.0,0.2661
965.0,0.2892
966.0,0.2894
967.0,0.2882
968.0,0.3848
969.0,0.4021
970.0,0.3695
971.0,0.4222
972.0,0.404
973.0,0.3525
974.0,0.3346
975.0,0.3471
976.0,0.3299
977.0,0.3747
978.0,0.3563
979.0,0.373
980.0,0.3508
981.0,0.4197
982.0,0.4016
983.0,0.3857
984.0,0.4322
985.0,0.4001
986.0,0.4396
987.0,0.4312
988.0,0.4304
989.0,0.4382
990.0,0.4278
991.0,0.4395
992.0,0.442
993.0,0.4324
994.0,0.4419
995.0,0.4413
996.0,0.4394
997.0,0.44
998.0,0.4379
999.0,0.4363
1000.0,0.4333
1001.0,0.4387
1002.0,0.4267
1003.0,0.4309
1004.0,0.4204
1005.0,0.405
1006.0,0.4208
1007.0,0.4297
1008.0,0.4274
1009.0,0.4252
1010.0,0.4234
1011.0,0.4275
1012.0,0.4239
1013.0,0.4265
1014.0,0.4235
1015.0,0.4207
1016.0,0.4188
1017.0,0.4199
1018.0,0.4183
1019.0,0.4094
1020.0,0.4161
1021.0,0.4155
1022.0,0.4123
1023.0,0.4167
1024.0,0.4113
1025.0,0.4164
1026.0,0.4146
1027.0,0.4136
1028.0,0.4128
1029.0,0.4079
1030.0,0.4107
1031.0,0.409
1032.0,0.4079
1033.0,0.4017
1034.0,0.4017
1035.0,0.403
1036.0,0.4051
1037.0,0.3985
1038.0,0.4003
1039.0,0.4
1040.0,0.3984
1041.0,0.4
1042.0,0.3972
1043.0,0.396
1044.0,0.3973
1045.0,0.392
1046.0,0.3876
1047.0,0.3911
1048.0,0.3933
1049.0,0.3919
1050.0,0.3901
1051.0,0.3895
1052.0,0.3879
1053.0,0.3849
1054.0,0.3857
1055.0,0.3859
1056.0,0.3846
1057.0,0.3834
1058.0,0.374
1059.0,0.3744
1060.0,0.3738
1061.0,0.3734
1062.0,0.3753
1063.0,0.3716
1064.0,0.376
1065.0,0.3733
1066.0,0.366
1067.0,0.3707
1068.0,0.3626
1069.0,0.3514
1070.0,0.3633
1071.0,0.3689
1072.0,0.3647
1073.0,0.3595
1074.0,0.3687
1075.0,0.3504
1076.0,0.3684
1077.0,0.3619
1078.0,0.3551
1079.0,0.3625
1080.0,0.3563
1081.0,0.345
1082.0,0.3504
1083.0,0.3514
1084.0,0.3441
1085.0,0.3571
1086.0,0.3261
1087.0,0.3364
1088.0,0.3511
1089.0,0.3405
1090.0,0.3331
1091.0,0.35
1092.0,0.3491
1093.0,0.2964
1094.0,0.3194
1095.0,0.3087
1096.0,0.2958
1097.0,0.341
1098.0,0.2912
1099.0,0.3037
1100.0,0.2825
1101.0,0.286
1102.0,0.2732
1103.0,0.2707
1104.0,0.271
1105.0,0.2968
1106.0,0.2277
1107.0,0.282
1108.0,0.2395
1109.0,0.2398
1110.0,0.2796
1111.0,0.1902
1112.0,0.238
1113.0,0.152
1114.0,0.1699
1115.0,0.1408
1116.0,0.1128
1117.0,0.04172
1118.0,0.1226
1119.0,0.06106
1120.0,0.07687
1121.0,0.1019
1122.0,0.04306
1123.0,0.06946
1124.0,0.05863
1125.0,0.07643
1126.0,0.02678
1127.0,0.0862
1128.0,0.05175
1129.0,0.05489
1130.0,0.03618
1131.0,0.1631
1132.0,0.128
1133.0,0.08134
1134.0,0.02091
1135.0,0.007829
1136.0,0.06793
1137.0,0.1602
1138.0,0.1129
1139.0,0.1679
1140.0,0.1405
1141.0,0.1073
1142.0,0.1234
1143.0,0.175
1144.0,0.06134
1145.0,0.07845
1146.0,0.08461
1147.0,0.02993
1148.0,0.1514
1149.0,0.121
1150.0,0.06596
1151.0,0.112
1152.0,0.1377
1153.0,0.1341
1154.0,0.07605
1155.0,0.1752
1156.0,0.1579
1157.0,0.1769
1158.0,0.175
1159.0,0.1886
1160.0,0.1614
1161.0,0.1983
1162.0,0.1994
1163.0,0.2681
1164.0,0.2304
1165.0,0.2178
1166.0,0.216
1167.0,0.235
1168.0,0.2377
1169.0,0.2432
1170.0,0.2639
1171.0,0.2573
1172.0,0.2617
1173.0,0.2633
1174.0,0.1893
1175.0,0.257
1176.0,0.2818
1177.0,0.271
1178.0,0.2046
1179.0,0.2841
1180.0,0.2543
1181.0,0.2624
1182.0,0.1823
1183.0,0.2582
1184.0,0.2424
1185.0,0.2343
1186.0,0.2765
1187.0,0.2638
1188.0,0.1855
1189.0,0.2458
1190.0,0.2702
1191.0,0.2573
1192.0,0.2739
1193.0,0.2627
1194.0,0.2706
1195.0,0.2565
1196.0,0.2473
1197.0,0.2705
1198.0,0.2478
1199.0,0.212
1200.0,0.2594
1201.0,0.2507
1202.0,0.2489
1203.0,0.2469
1204.0,0.2166
1205.0,0.2544
1206.0,0.2803
1207.0,0.2484
1208.0,0.2441
1209.0,0.2491
1210.0,0.2592
1211.0,0.2473
1212.0,0.2449
1213.0,0.2713
1214.0,0.2505
1215.0,0.2459
1216.0,0.2704
1217.0,0.2636
1218.0,0.2683
1219.0,0.2651
1220.0,0.2685
1221.0,0.271
1222.0,0.2642
1223.0,0.2618
1224.0,0.2604
1225.0,0.2693
1226.0,0.271
1227.0,0.2506
1228.0,0.2722
1229.0,0.271
1230.0,0.2665
1231.0,0.2736
1232.0,0.272
1233.0,0.2632
1234.0,0.2733
1235.0,0.2716
1236.0,0.2735
1237.0,0.27
1238.0,0.2726
1239.0,0.2691
1240.0,0.2701
1241.0,0.269
1242.0,0.2683
1243.0,0.2661
1244.0,0.268
1245.0,0.2691
1246.0,0.2676
1247.0,0.2666
1248.0,0.2664
1249.0,0.2672
1250.0,0.2656
1251.0,0.2623
1252.0,0.2623
1253.0,0.2603
1254.0,0.2579
1255.0,0.262
1256.0,0.255
1257.0,0.2537
1258.0,0.2582
1259.0,0.2494
1260.0,0.2506
1261.0,0.2373
1262.0,0.2305
1263.0,0.231
1264.0,0.214
1265.0,0.2295
1266.0,0.2213
1267.0,0.2248
1268.0,0.2138
1269.0,0.1362
1270.0,0.2242
1271.0,0.2364
1272.0,0.2371
1273.0,0.2346
1274.0,0.2353
1275.0,0.2385
1276.0,0.2407
1277.0,0.2422
1278.0,0.2465
1279.0,0.2443
1280.0,0.2412
1281.0,0.23
1282.0,0.2214
1283.0,0.2385
1284.0,0.2443
1285.0,0.2459
1286.0,0.249
1287.0,0.2454
1288.0,0.2453
1289.0,0.238
1290.0,0.2431
1291.0,0.2464
1292.0,0.2324
1293.0,0.2418
1294.0,0.2402
1295.0,0.2392
1296.0,0.2289
1297.0,0.2169
1298.0,0.2327
1299.0,0.2421
1300.0,0.2063
1301.0,0.2123
1302.0,0.2319
1303.0,0.2034
1304.0,0.1748
1305.0,0.2272
1306.0,0.2274
1307.0,0.1781
1308.0,0.2035
1309.0,0.2257
1310.0,0.1747
1311.0,0.1954
1312.0,0.1903
1313.0,0.1868
1314.0,0.1677
1315.0,0.1658
1316.0,0.1925
1317.0,0.1825
1318.0,0.1979
1319.0,0.156
1320.0,0.1509
1321.0,0.1753
1322.0,0.1773
1323.0,0.1345
1324.0,0.1531
1325.0,0.1899
1326.0,0.1636
1327.0,0.1562
1328.0,0.1351
1329.0,0.1023
1330.0,0.1327
1331.0,0.08103
1332.0,0.08337
1333.0,0.1158
1334.0,0.09767
1335.0,0.134
1336.0,0.1064
1337.0,0.09432
1338.0,0.1021
1339.0,0.1015
1340.0,0.09848
1341.0,0.09669
1342.0,0.1015
1343.0,0.06976
1344.0,0.04172
1345.0,0.06011
1346.0,0.03048
1347.0,0.0311
1348.0,0.002134
1349.0,0.007546
1350.0,0.007751
1351.0,0.001982
1352.0,0.0005665
1353.0,3.078e-05
1354.0,0.0001019
1355.0,9.36e-07
1356.0,1.511e-05
1357.0,2.299e-05
1358.0,1.103e-06
1359.0,1.535e-07
1360.0,5.227e-07
1361.0,7.203e-10
1362.0,2.159e-12
1363.0,7.294e-07
1364.0,3.039e-07
1365.0,8.503e-13
1366.0,3.108e-06
1367.0,1.252e-06
1368.0,8.254e-15
1369.0,1.142e-07
1370.0,5.877e-08
1371.0,3.515e-09
1372.0,6.887e-07
1373.0,1.302e-05
1374.0,5.792e-05
1375.0,0.0001055
1376.0,9.147e-05
1377.0,4.233e-05
1378.0,0.0004066
1379.0,1.782e-05
1380.0,2.639e-05
1381.0,7.089e-07
1382.0,6.286e-07
1383.0,9.788e-09
1384.0,1.314e-07
1385.0,5.677e-07
1386.0,5.767e-07
1387.0,6.177e-05
1388.0,1.222e-06
1389.0,0.0001997
1390.0,0.000172
1391.0,0.0001158
1392.0,7.65e-06
1393.0,3.965e-05
1394.0,2.202e-05
1395.0,1.707e-07
1396.0,1.01e-09
1397.0,1.608e-05
1398.0,0.000459
1399.0,0.0002909
1400.0,4.609e-10
1401.0,1.781e-09
1402.0,0.0007642
1403.0,0.000971
1404.0,0.0002974
1405.0,8.613e-08
1406.0,0.0007881
1407.0,6.875e-05
1408.0,0.0006427
1409.0,0.0002225
1410.0,0.0001747
1411.0,0.0008522
1412.0,0.001134
1413.0,0.01126
1414.0,0.0001374
1415.0,6.688e-05
1416.0,0.01822
1417.0,0.005571
1418.0,0.006355
1419.0,0.0009887
1420.0,0.00389
1421.0,0.004207
1422.0,0.02378
1423.0,0.004619
1424.0,0.008648
1425.0,0.01274
1426.0,0.01444
1427.0,0.0265
1428.0,0.002012
1429.0,0.01983
1430.0,0.03379
1431.0,0.03712
1432.0,0.001586
1433.0,0.0236
1434.0,0.01199
1435.0,0.01195
1436.0,0.02313
1437.0,0.01772
1438.0,0.007464
1439.0,0.03149
1440.0,0.02358
1441.0,0.01792
1442.0,0.01989
1443.0,0.02506
1444.0,0.03479
1445.0,0.02712
1446.0,0.01216
1447.0,0.01918
