interpolation:linear
wavelength,value
280.0,1.096e-22
280.5,3.648e-21
281.0,1.966e-20
281.5,4.507e-19
282.0,5.402e-19
282.5,1.315e-18
283.0,4.134e-18
283.5,6.732e-18
284.0,1.111e-16
284.5,3.255e-16
285.0,5.75e-16
285.5,2.789e-15
286.0,1.12e-14
286.5,5.022e-14
287.0,1.441e-13
287.5,5.562e-13
288.0,1.969e-12
288.5,5.754e-12
289.0,1.502e-11
289.5,4.481e-11
290.0,1.238e-10
290.5,2.519e-10
291.0,5.403e-10
291.5,1.551e-09
292.0,3.134e-09
292.5,4.379e-09
293.0,9.347e-09
293.5,2.262e-08
294.0,3.53e-08
294.5,4.681e-08
295.0,7.905e-08
295.5,1.328e-07
296.0,2.537e-07
296.5,3.508e-07
297.0,4.697e-07
297.5,1.239e-06
298.0,1.921e-06
298.5,1.905e-06
299.0,4.138e-06
299.5,6.674e-06
300.0,7.205e-06
300.5,1.022e-05
301.0,1.783e-05
301.5,2.737e-05
302.0,2.292e-05
302.5,4.482e-05
303.0,8.101e-05
303.5,0.0001033
304.0,9.983e-05
304.5,0.0001608
305.0,0.0002729
305.5,0.0003364
306.0,0.000335
306.5,0.0004378
307.0,0.0007249
307.5,0.001073
308.0,0.001154
308.5,0.001438
309.0,0.00169
309.5,0.002263
310.0,0.002443
310.5,0.0041
311.0,0.005457
311.5,0.005402
312.0,0.00613
312.5,0.008107
313.0,0.009184
313.5,0.008562
314.0,0.01183
314.5,0.01197
315.0,0.0161
315.5,0.01263
316.0,0.01227
316.5,0.01932
317.0,0.02394
317.5,0.02426
318.0,0.02015
318.5,0.0282
319.0,0.03555
319.5,0.02629
320.0,0.0313
320.5,0.04426
321.0,0.04399
321.5,0.04264
322.0,0.04038
322.5,0.03534
323.0,0.03801
323.5,0.05091
324.0,0.0602
324.5,0.05912
325.0,0.04846
325.5,0.06632
326.0,0.08382
326.5,0.08756
327.0,0.08592
327.5,0.08136
328.0,0.06848
328.5,0.07705
329.0,0.09736
329.5,0.1124
330.0,0.1119
330.5,0.0859
331.0,0.0863
331.5,0.09048
332.0,0.1022
332.5,0.1032
333.0,0.1017
333.5,0.08909
334.0,0.0908
334.5,0.1088
335.0,0.1045
335.5,0.123
336.0,0.08514
336.5,0.09791
337.0,0.0791
337.5,0.09785
338.0,0.09855
338.5,0.1151
339.0,0.1142
339.5,0.1097
340.0,0.1276
340.5,0.1154
341.0,0.1136
341.5,0.1047
342.0,0.1253
342.5,0.1174
343.0,0.1289
343.5,0.1212
344.0,0.08884
344.5,0.09033
345.0,0.1201
345.5,0.1229
346.0,0.1047
346.5,0.1187
347.0,0.1272
347.5,0.1028
348.0,0.1176
348.5,0.1178
349.0,0.1094
349.5,0.1084
350.0,0.1341
350.5,0.1416
351.0,0.1264
351.5,0.1225
352.0,0.1319
352.5,0.1032
353.0,0.1302
353.5,0.1394
354.0,0.1448
354.5,0.1469
355.0,0.1464
355.5,0.1324
356.0,0.1387
356.5,0.1185
357.0,0.09794
357.5,0.12
358.0,0.09515
358.5,0.08136
359.0,0.1138
359.5,0.145
360.0,0.1538
360.5,0.123
361.0,0.1123
361.5,0.1295
362.0,0.1121
362.5,0.1554
363.0,0.1397
363.5,0.1289
364.0,0.1577
364.5,0.1349
365.0,0.1375
365.5,0.1727
366.0,0.1832
366.5,0.1723
367.0,0.1679
367.5,0.1744
368.0,0.1527
368.5,0.1542
369.0,0.1667
369.5,0.1778
370.0,0.1897
370.5,0.1474
371.0,0.1576
371.5,0.1974
372.0,0.1311
372.5,0.1573
373.0,0.1602
373.5,0.1043
374.0,0.1517
374.5,0.1257
375.0,0.1223
375.5,0.1827
376.0,0.1516
376.5,0.1571
377.0,0.1665
377.5,0.195
378.0,0.2115
378.5,0.2
379.0,0.1651
379.5,0.1509
380.0,0.157
380.5,0.1903
381.0,0.191
381.5,0.1516
382.0,0.1348
382.5,0.115
383.0,0.1066
383.5,0.1028
384.0,0.1135
384.5,0.1671
385.0,0.1658
385.5,0.1546
386.0,0.1325
386.5,0.1743
387.0,0.1449
387.5,0.1629
388.0,0.1505
388.5,0.149
389.0,0.1609
389.5,0.1951
390.0,0.196
390.5,0.1805
391.0,0.2127
391.5,0.2171
392.0,0.183
392.5,0.164
393.0,0.09134
393.5,0.06646
394.0,0.1354
394.5,0.1723
395.0,0.2103
395.5,0.2138
396.0,0.1855
396.5,0.1086
397.0,0.08158
397.5,0.166
398.0,0.2326
398.5,0.2406
399.0,0.2609
399.5,0.2603
400.0,0.2704
401.0,0.2718
402.0,0.2873
403.0,0.2735
404.0,0.2697
405.0,0.2701
406.0,0.2662
407.0,0.2625
408.0,0.2729
409.0,0.2925
410.0,0.2561
411.0,0.2779
412.0,0.2991
413.0,0.292
414.0,0.2961
415.0,0.2975
416.0,0.3033
417.0,0.2962
418.0,0.2911
419.0,0.2954
420.0,0.2945
421.0,0.3086
422.0,0.2937
423.0,0.2872
424.0,0.3041
425.0,0.304
426.0,0.2969
427.0,0.2917
428.0,0.2844
429.0,0.2701
430.0,0.2368
431.0,0.2347
432.0,0.3037
433.0,0.3058
434.0,0.2841
435.0,0.2969
436.0,0.3353
437.0,0.3316
438.0,0.3024
439.0,0.3123
440.0,0.3227
441.0,0.335
442.0,0.3596
443.0,0.3502
444.0,0.3584
445.0,0.3508
446.0,0.3357
447.0,0.3638
448.0,0.3692
449.0,0.3717
450.0,0.3826
451.0,0.3972
452.0,0.3831
453.0,0.3608
454.0,0.3774
455.0,0.3798
456.0,0.3892
457.0,0.3959
458.0,0.382
459.0,0.3803
460.0,0.3811
461.0,0.3902
462.0,0.3938
463.0,0.3913
464.0,0.3858
465.0,0.382
466.0,0.3864
467.0,0.3791
468.0,0.3837
469.0,0.3858
470.0,0.3734
471.0,0.3733
472.0,0.3933
473.0,0.3883
474.0,0.3884
475.0,0.391
476.0,0.3785
477.0,0.3789
478.0,0.3896
479.0,0.3878
480.0,0.389
481.0,0.3971
482.0,0.4
483.0,0.3962
484.0,0.3887
485.0,0.371
486.0,0.3251
487.0,0.3413
488.0,0.3745
489.0,0.3754
490.0,0.3955
491.0,0.3891
492.0,0.3676
493.0,0.3799
494.0,0.3839
495.0,0.3874
496.0,0.3898
497.0,0.3958
498.0,0.3772
499.0,0.3816
500.0,0.3699
501.0,0.3625
502.0,0.3562
503.0,0.3695
504.0,0.3567
505.0,0.3722
506.0,0.3842
507.0,0.3658
508.0,0.3555
509.0,0.3663
510.0,0.3651
511.0,0.3756
512.0,0.3801
513.0,0.3599
514.0,0.3577
515.0,0.3541
516.0,0.3531
517.0,0.314
518.0,0.33
519.0,0.3461
520.0,0.3585
521.0,0.3618
522.0,0.3618
523.0,0.355
524.0,0.3671
525.0,0.3705
526.0,0.3536
527.0,0.3324
528.0,0.351
529.0,0.3694
530.0,0.3638
531.0,0.3688
532.0,0.356
533.0,0.3456
534.0,0.3561
535.0,0.3643
536.0,0.368
537.0,0.3539
538.0,0.3604
539.0,0.3573
540.0,0.3424
541.0,0.3435
542.0,0.3538
543.0,0.3509
544.0,0.3561
545.0,0.3551
546.0,0.3559
547.0,0.3564
548.0,0.3526
549.0,0.3539
550.0,0.3582
551.0,0.354
552.0,0.3564
553.0,0.3499
554.0,0.3582
555.0,0.3586
556.0,0.3538
557.0,0.3425
558.0,0.3393
559.0,0.3324
560.0,0.3362
561.0,0.34
562.0,0.3368
563.0,0.3452
564.0,0.3352
565.0,0.3318
566.0,0.3264
567.0,0.3318
568.0,0.327
569.0,0.3159
570.0,0.3162
571.0,0.3151
572.0,0.3204
573.0,0.3233
574.0,0.3218
575.0,0.3149
576.0,0.3121
577.0,0.3159
578.0,0.3121
579.0,0.315
580.0,0.3236
581.0,0.3272
582.0,0.3352
583.0,0.3374
584.0,0.3413
585.0,0.3336
586.0,0.3268
587.0,0.3329
588.0,0.3205
589.0,0.2757
590.0,0.2889
591.0,0.3108
592.0,0.3039
593.0,0.3122
594.0,0.3085
595.0,0.2976
596.0,0.3163
597.0,0.311
598.0,0.3123
599.0,0.3135
600.0,0.3157
601.0,0.3144
602.0,0.3125
603.0,0.3184
604.0,0.324
605.0,0.3228
606.0,0.3222
607.0,0.3263
608.0,0.3234
609.0,0.3247
610.0,0.3231
611.0,0.3253
612.0,0.3249
613.0,0.3212
614.0,0.3175
615.0,0.3251
616.0,0.3149
617.0,0.3147
618.0,0.3272
619.0,0.3241
620.0,0.3262
621.0,0.3259
622.0,0.3217
623.0,0.3164
624.0,0.3114
625.0,0.3107
626.0,0.315
627.0,0.3169
628.0,0.2762
629.0,0.3024
630.0,0.2947
631.0,0.3082
632.0,0.3058
633.0,0.3179
634.0,0.3171
635.0,0.3232
636.0,0.3202
637.0,0.3265
638.0,0.3312
639.0,0.3283
640.0,0.3262
641.0,0.3267
642.0,0.3261
643.0,0.3306
644.0,0.3304
645.0,0.3305
646.0,0.3204
647.0,0.3109
648.0,0.3117
649.0,0.3047
650.0,0.3135
651.0,0.3283
652.0,0.3077
653.0,0.3244
654.0,0.3214
655.0,0.3058
656.0,0.2736
657.0,0.2814
658.0,0.3177
659.0,0.3209
660.0,0.3228
661.0,0.3255
662.0,0.3249
663.0,0.3189
664.0,0.3247
665.0,0.3265
666.0,0.3274
667.0,0.3279
668.0,0.3289
669.0,0.3345
670.0,0.3334
671.0,0.3338
672.0,0.3312
673.0,0.3366
674.0,0.3357
675.0,0.333
676.0,0.3356
677.0,0.3325
678.0,0.3338
679.0,0.3287
680.0,0.3315
681.0,0.3294
682.0,0.3291
683.0,0.3285
684.0,0.3268
685.0,0.33
686.0,0.3276
687.0,0.1388
688.0,0.1945
689.0,0.1964
690.0,0.2184
691.0,0.2449
692.0,0.2667
693.0,0.264
694.0,0.2642
695.0,0.2857
696.0,0.2868
697.0,0.3162
698.0,0.311
699.0,0.2953
700.0,0.2913
701.0,0.2848
702.0,0.2901
703.0,0.2917
704.0,0.3061
705.0,0.3064
706.0,0.308
707.0,0.3091
708.0,0.3095
709.0,0.3135
710.0,0.3115
711.0,0.3124
712.0,0.3132
713.0,0.3083
714.0,0.3101
715.0,0.2967
716.0,0.2961
717.0,0.2273
718.0,0.2068
719.0,0.1872
720.0,0.1929
721.0,0.2292
722.0,0.2801
723.0,0.2521
724.0,0.2162
725.0,0.2095
726.0,0.2199
727.0,0.2305
728.0,0.2076
729.0,0.2254
730.0,0.2357
731.0,0.224
732.0,0.2505
733.0,0.2748
734.0,0.2847
735.0,0.277
736.0,0.276
737.0,0.2773
738.0,0.2898
739.0,0.2844
740.0,0.2942
741.0,0.2927
742.0,0.2946
743.0,0.3026
744.0,0.3027
745.0,0.3036
746.0,0.305
747.0,0.3059
748.0,0.3053
749.0,0.3019
750.0,0.3018
751.0,0.2988
752.0,0.3002
753.0,0.3019
754.0,0.3025
755.0,0.3008
756.0,0.3008
757.0,0.3012
758.0,0.2973
759.0,0.2856
760.0,0.007927
761.0,0.002683
762.0,0.07152
763.0,0.01745
764.0,0.03926
765.0,0.07129
766.0,0.1144
767.0,0.1801
768.0,0.2431
769.0,0.257
770.0,0.276
771.0,0.2829
772.0,0.285
773.0,0.2874
774.0,0.2864
775.0,0.2844
776.0,0.288
777.0,0.2843
778.0,0.2825
779.0,0.2827
780.0,0.2813
781.0,0.2816
782.0,0.2835
783.0,0.2787
784.0,0.2802
785.0,0.2778
786.0,0.2805
787.0,0.2714
788.0,0.2661
789.0,0.266
790.0,0.2536
791.0,0.2612
792.0,0.2601
793.0,0.2554
794.0,0.2652
795.0,0.2681
796.0,0.2522
797.0,0.2518
798.0,0.2669
799.0,0.2638
800.0,0.2574
801.0,0.2547
802.0,0.2538
803.0,0.2508
804.0,0.2521
805.0,0.2536
806.0,0.2647
807.0,0.2607
808.0,0.2612
809.0,0.2532
810.0,0.2494
811.0,0.2463
812.0,0.2333
813.0,0.2268
814.0,0.1863
815.0,0.1863
816.0,0.1715
817.0,0.1752
818.0,0.1656
819.0,0.1962
820.0,0.1811
821.0,0.2291
822.0,0.2197
823.0,0.1242
824.0,0.2065
825.0,0.2254
826.0,0.2109
827.0,0.2285
828.0,0.1769
829.0,0.2109
830.0,0.207
831.0,0.2076
832.0,0.1982
833.0,0.2184
834.0,0.2058
835.0,0.2387
836.0,0.2195
837.0,0.2394
838.0,0.2274
839.0,0.2361
840.0,0.2424
841.0,0.237
842.0,0.2405
843.0,0.2436
844.0,0.2385
845.0,0.2488
846.0,0.2482
847.0,0.2445
848.0,0.2416
849.0,0.2348
850.0,0.2251
851.0,0.2368
852.0,0.2359
853.0,0.2282
854.0,0.196
855.0,0.2168
856.0,0.2363
857.0,0.2425
858.0,0.2403
859.0,0.2412
860.0,0.242
861.0,0.2406
862.0,0.2446
863.0,0.2504
864.0,0.2379
865.0,0.236
866.0,0.2122
867.0,0.2215
868.0,0.2411
869.0,0.2361
870.0,0.2429
871.0,0.2396
872.0,0.2388
873.0,0.2384
874.0,0.2355
875.0,0.2307
876.0,0.233
877.0,0.2355
878.0,0.2378
879.0,0.2342
880.0,0.2292
881.0,0.2251
882.0,0.2296
883.0,0.2311
884.0,0.2298
885.0,0.2315
886.0,0.2181
887.0,0.2224
888.0,0.2247
889.0,0.2292
890.0,0.2247
891.0,0.2256
892.0,0.2157
893.0,0.206
894.0,0.1918
895.0,0.1728
896.0,0.1608
897.0,0.129
898.0,0.1449
899.0,0.1004
900.0,0.1543
901.0,0.1052
902.0,0.1362
903.0,0.1328
904.0,0.19
905.0,0.1807
906.0,0.1664
907.0,0.1199
908.0,0.1257
909.0,0.1414
910.0,0.1144
911.0,0.1308
912.0,0.1366
913.0,0.1156
914.0,0.1169
915.0,0.1254
916.0,0.105
917.0,0.1436
918.0,0.1067
919.0,0.1501
920.0,0.1606
921.0,0.166
922.0,0.1405
923.0,0.1614
924.0,0.1412
925.0,0.1389
926.0,0.1387
927.0,0.1629
928.0,0.09727
929.0,0.08326
930.0,0.05661
931.0,0.0533
932.0,0.03059
933.0,0.02193
934.0,0.006874
935.0,0.0246
936.0,0.01163
937.0,0.01174
938.0,0.01564
939.0,0.05139
940.0,0.0682
941.0,0.04379
942.0,0.05427
943.0,0.03018
944.0,0.03752
945.0,0.04688
946.0,0.01685
947.0,0.04509
948.0,0.03253
949.0,0.06808
950.0,0.009992
951.0,0.0676
952.0,0.02763
953.0,0.04137
954.0,0.05749
955.0,0.04265
956.0,0.04968
957.0,0.02737
958.0,0.07727
959.0,0.05208
960.0,0.05848
961.0,0.07309
962.0,0.06897
963.0,0.08629
964.0,0.0772
965.0,0.08536
966.0,0.08501
967.0,0.08345
968.0,0.1407
969.0,0.142
970.0,0.1282
971.0,0.1597
972.0,0.1496
973.0,0.1174
974.0,0.1108
975.0,0.1187
976.0,0.1053
977.0,0.1357
978.0,0.1223
979.0,0.1314
980.0,0.122
981.0,0.1591
982.0,0.1473
983.0,0.1389
984.0,0.1702
985.0,0.1463
986.0,0.1773
987.0,0.1698
988.0,0.1698
989.0,0.1795
990.0,0.1686
991.0,0.1796
992.0,0.1811
993.0,0.1728
994.0,0.1816
995.0,0.182
996.0,0.1805
997.0,0.1811
998.0,0.18
999.0,0.1795
1000.0,0.1771
1001.0,0.1806
1002.0,0.1709
1003.0,0.1772
1004.0,0.1715
1005.0,0.167
1006.0,0.1727
1007.0,0.1768
1008.0,0.175
1009.0,0.1731
1010.0,0.1719
1011.0,0.176
1012.0,0.1736
1013.0,0.1758
1014.0,0.1746
1015.0,0.1733
1016.0,0.1724
1017.0,0.1727
1018.0,0.1726
1019.0,0.1671
1020.0,0.1714
1021.0,0.1715
1022.0,0.1695
1023.0,0.1712
1024.0,0.1671
1025.0,0.1717
1026.0,0.1705
1027.0,0.1702
1028.0,0.1697
1029.0,0.1675
1030.0,0.1693
1031.0,0.1684
1032.0,0.1681
1033.0,0.1655
1034.0,0.1656
1035.0,0.1661
1036.0,0.1667
1037.0,0.1641
1038.0,0.1648
1039.0,0.1646
1040.0,0.1638
1041.0,0.1643
1042.0,0.1632
1043.0,0.1625
1044.0,0.163
1045.0,0.1607
1046.0,0.1588
1047.0,0.1601
1048.0,0.1608
1049.0,0.1601
1050.0,0.1592
1051.0,0.1587
1052.0,0.1579
1053.0,0.1564
1054.0,0.1565
1055.0,0.1563
1056.0,0.1554
1057.0,0.1547
1058.0,0.1507
1059.0,0.1505
1060.0,0.1501
1061.0,0.1498
1062.0,0.1503
1063.0,0.1485
1064.0,0.1504
1065.0,0.1486
1066.0,0.1462
1067.0,0.1479
1068.0,0.1442
1069.0,0.1402
1070.0,0.1445
1071.0,0.1483
1072.0,0.1454
1073.0,0.1435
1074.0,0.1491
1075.0,0.1373
1076.0,0.1487
1077.0,0.1437
1078.0,0.1397
1079.0,0.1472
1080.0,0.1415
1081.0,0.1346
1082.0,0.1406
1083.0,0.1422
1084.0,0.1335
1085.0,0.1421
1086.0,0.1241
1087.0,0.1317
1088.0,0.1413
1089.0,0.1324
1090.0,0.1276
1091.0,0.1397
1092.0,0.1401
1093.0,0.1079
1094.0,0.1268
1095.0,0.1126
1096.0,0.105
1097.0,0.1369
1098.0,0.1016
1099.0,0.1075
1100.0,0.09606
1101.0,0.09883
1102.0,0.09139
1103.0,0.08843
1104.0,0.0889
1105.0,0.104
1106.0,0.06383
1107.0,0.096
1108.0,0.07199
1109.0,0.07337
1110.0,0.09276
1111.0,0.05046
1112.0,0.07335
1113.0,0.03546
1114.0,0.03987
1115.0,0.03202
1116.0,0.0204
1117.0,0.003861
1118.0,0.02315
1119.0,0.007798
1120.0,0.009222
1121.0,0.01388
1122.0,0.003417
1123.0,0.008451
1124.0,0.007082
1125.0,0.01015
1126.0,0.001455
1127.0,0.01166
1128.0,0.004357
1129.0,0.004811
1130.0,0.002907
1131.0,0.03099
1132.0,0.02238
1133.0,0.009674
1134.0,0.001091
1135.0,0.0004958
1136.0,0.006737
1137.0,0.02861
1138.0,0.0191
1139.0,0.04032
1140.0,0.02902
1141.0,0.01833
1142.0,0.02301
1143.0,0.03818
1144.0,0.00862
1145.0,0.009244
1146.0,0.009935
1147.0,0.001585
1148.0,0.03202
1149.0,0.02244
1150.0,0.01043
1151.0,0.01899
1152.0,0.0271
1153.0,0.02957
1154.0,0.009515
1155.0,0.04195
1156.0,0.03521
1157.0,0.04546
1158.0,0.04474
1159.0,0.05066
1160.0,0.04172
1161.0,0.05882
1162.0,0.05821
1163.0,0.0935
1164.0,0.07498
1165.0,0.06552
1166.0,0.06959
1167.0,0.07826
1168.0,0.0781
1169.0,0.08118
1170.0,0.09299
1171.0,0.09064
1172.0,0.09566
1173.0,0.0929
1174.0,0.05627
1175.0,0.09394
1176.0,0.1101
1177.0,0.1009
1178.0,0.06791
1179.0,0.1109
1180.0,0.0917
1181.0,0.09483
1182.0,0.05625
1183.0,0.0948
1184.0,0.08562
1185.0,0.07969
1186.0,0.1044
1187.0,0.09617
1188.0,0.05533
1189.0,0.08918
1190.0,0.1029
1191.0,0.091
1192.0,0.105
1193.0,0.09833
1194.0,0.1029
1195.0,0.09275
1196.0,0.08696
1197.0,0.1046
1198.0,0.09399
1199.0,0.0709
1200.0,0.0971
1201.0,0.09016
1202.0,0.09282
1203.0,0.08989
1204.0,0.07513
1205.0,0.09734
1206.0,0.1119
1207.0,0.09111
1208.0,0.09247
1209.0,0.09471
1210.0,0.1008
1211.0,0.09294
1212.0,0.08636
1213.0,0.1055
1214.0,0.09032
1215.0,0.08823
1216.0,0.1059
1217.0,0.1014
1218.0,0.1049
1219.0,0.1024
1220.0,0.1052
1221.0,0.1074
1222.0,0.1039
1223.0,0.1021
1224.0,0.09939
1225.0,0.1063
1226.0,0.1086
1227.0,0.0951
1228.0,0.1101
1229.0,0.1086
1230.0,0.1058
1231.0,0.112
1232.0,0.1112
1233.0,0.1031
1234.0,0.1129
1235.0,0.1115
1236.0,0.1129
1237.0,0.1097
1238.0,0.1125
1239.0,0.111
1240.0,0.1117
1241.0,0.11
1242.0,0.1108
1243.0,0.11
1244.0,0.1104
1245.0,0.1111
1246.0,0.1105
1247.0,0.1097
1248.0,0.109
1249.0,0.1099
1250.0,0.1089
1251.0,0.1067
1252.0,0.1077
1253.0,0.1051
1254.0,0.1028
1255.0,0.1072
1256.0,0.101
1257.0,0.09986
1258.0,0.1042
1259.0,0.09571
1260.0,0.09678
1261.0,0.08572
1262.0,0.08031
1263.0,0.08032
1264.0,0.06799
1265.0,0.07991
1266.0,0.07318
1267.0,0.07704
1268.0,0.06903
1269.0,0.02359
1270.0,0.07574
1271.0,0.0862
1272.0,0.08703
1273.0,0.08547
1274.0,0.08662
1275.0,0.08887
1276.0,0.09087
1277.0,0.093
1278.0,0.09698
1279.0,0.09604
1280.0,0.09494
1281.0,0.09167
1282.0,0.09012
1283.0,0.09668
1284.0,0.09868
1285.0,0.09965
1286.0,0.102
1287.0,0.09858
1288.0,0.09916
1289.0,0.09244
1290.0,0.09844
1291.0,0.1005
1292.0,0.08811
1293.0,0.0971
1294.0,0.09617
1295.0,0.09343
1296.0,0.08554
1297.0,0.07842
1298.0,0.0901
1299.0,0.09775
1300.0,0.07359
1301.0,0.07727
1302.0,0.09005
1303.0,0.0734
1304.0,0.05477
1305.0,0.08777
1306.0,0.08668
1307.0,0.05879
1308.0,0.07491
1309.0,0.08442
1310.0,0.05682
1311.0,0.06989
1312.0,0.06711
1313.0,0.06353
1314.0,0.0539
1315.0,0.05161
1316.0,0.06723
1317.0,0.0624
1318.0,0.07135
1319.0,0.04647
1320.0,0.04662
1321.0,0.05775
1322.0,0.05649
1323.0,0.0353
1324.0,0.04602
1325.0,0.06496
1326.0,0.05129
1327.0,0.04754
1328.0,0.03834
1329.0,0.02292
1330.0,0.03313
1331.0,0.01435
1332.0,0.01618
1333.0,0.02356
1334.0,0.02407
1335.0,0.03433
1336.0,0.02365
1337.0,0.02036
1338.0,0.02155
1339.0,0.0221
1340.0,0.02322
1341.0,0.01853
1342.0,0.02009
1343.0,0.008359
1344.0,0.005501
1345.0,0.007349
1346.0,0.001728
1347.0,0.001488
1348.0,2.469e-05
1349.0,0.0001145
1350.0,0.0001409
1351.0,1.095e-05
1352.0,1.184e-06
1353.0,5.226e-08
1354.0,2.057e-07
1355.0,1.37e-09
1356.0,2.536e-08
1357.0,3.841e-08
1358.0,1.61e-09
1359.0,2.016e-10
1360.0,7.3e-10
1361.0,8.149e-13
1362.0,2.229e-15
1363.0,9.798e-10
1364.0,4.046e-10
1365.0,7.783e-16
1366.0,4.248e-09
1367.0,1.737e-09
1368.0,6.009e-18
1369.0,1.491e-10
1370.0,7.34e-11
1371.0,4.16e-12
1372.0,9.429e-10
1373.0,1.929e-08
1374.0,9.402e-08
1375.0,1.653e-07
1376.0,1.796e-07
1377.0,7.935e-08
1378.0,7.64e-07
1379.0,3.408e-08
1380.0,4.231e-08
1381.0,1.087e-09
1382.0,8.254e-10
1383.0,1.233e-11
1384.0,1.615e-10
1385.0,7.824e-10
1386.0,7.266e-10
1387.0,8.929e-08
1388.0,1.84e-09
1389.0,3.318e-07
1390.0,2.77e-07
1391.0,1.854e-07
1392.0,1.224e-08
1393.0,6.959e-08
1394.0,3.033e-08
1395.0,2.21e-10
1396.0,1.061e-12
1397.0,2.577e-08
1398.0,7.826e-07
1399.0,5.078e-07
1400.0,4.536e-13
1401.0,1.882e-12
1402.0,3.778e-06
1403.0,3.385e-06
1404.0,8.643e-07
1405.0,1.042e-10
1406.0,1.611e-06
1407.0,2.674e-07
1408.0,1.393e-06
1409.0,3.608e-07
1410.0,3.988e-07
1411.0,3.176e-06
1412.0,6.302e-06
1413.0,0.0001644
1414.0,3.42e-07
1415.0,1.386e-07
1416.0,0.0007796
1417.0,0.0001234
1418.0,7.954e-05
1419.0,1.07e-05
1420.0,4.765e-05
1421.0,8.29e-05
1422.0,0.001008
