interpolation:linear
wavelength,value
280.0,6.013e-20
280.5,1.667e-18
281.0,8.447e-18
281.5,4.761e-19
282.0,2.148e-18
282.5,6.138e-18
283.0,2.055e-17
283.5,3.396e-17
284.0,5.351e-16
284.5,1.508e-15
285.0,3.126e-15
285.5,1.967e-14
286.0,8.466e-14
286.5,4.156e-13
287.0,1.25e-12
287.5,5.022e-12
288.0,1.481e-11
288.5,5.91e-11
289.0,1.998e-10
289.5,7.566e-10
290.0,2.493e-09
290.5,5.843e-09
291.0,1.469e-08
291.5,5.095e-08
292.0,1.351e-07
292.5,2.119e-07
293.0,5.232e-07
293.5,1.548e-06
294.0,2.811e-06
294.5,3.651e-06
295.0,7.077e-06
295.5,1.682e-05
296.0,3.178e-05
296.5,4.348e-05
297.0,5.776e-05
297.5,0.0001505
298.0,0.0002312
298.5,0.000228
299.0,0.0004928
299.5,0.0007884
300.0,0.0008497
300.5,0.001205
301.0,0.002103
301.5,0.003244
302.0,0.00273
302.5,0.005133
303.0,0.008769
303.5,0.01069
304.0,0.009824
304.5,0.01383
305.0,0.01933
305.5,0.02105
306.0,0.01998
306.5,0.02409
307.0,0.03332
307.5,0.04145
308.0,0.04331
308.5,0.04953
309.0,0.04765
309.5,0.05212
310.0,0.05127
310.5,0.08217
311.0,0.1013
311.5,0.09707
312.0,0.09341
312.5,0.1108
313.0,0.1186
313.5,0.1165
314.0,0.1413
314.5,0.1203
315.0,0.1569
315.5,0.1338
316.0,0.113
316.5,0.1577
317.0,0.1959
317.5,0.2055
318.0,0.1572
318.5,0.1879
319.0,0.2188
319.5,0.1838
320.0,0.2231
320.5,0.2687
321.0,0.2311
321.5,0.2208
322.0,0.2442
322.5,0.212
323.0,0.206
323.5,0.2474
324.0,0.2876
324.5,0.2949
325.0,0.258
325.5,0.3254
326.0,0.3954
326.5,0.3908
327.0,0.3913
327.5,0.3801
328.0,0.3443
328.5,0.3544
329.0,0.4173
329.5,0.4713
330.0,0.4773
330.5,0.3868
331.0,0.3957
331.5,0.3984
332.0,0.4245
332.5,0.4172
333.0,0.4175
333.5,0.3816
334.0,0.3915
334.5,0.4466
335.0,0.4168
335.5,0.4868
336.0,0.3368
336.5,0.3956
337.0,0.3261
337.5,0.4062
338.0,0.3929
338.5,0.4533
339.0,0.4485
339.5,0.4313
340.0,0.507
340.5,0.4565
341.0,0.4453
341.5,0.4087
342.0,0.4883
342.5,0.4567
343.0,0.5024
343.5,0.4731
344.0,0.3495
344.5,0.3531
345.0,0.467
345.5,0.4766
346.0,0.4049
346.5,0.4584
347.0,0.4922
347.5,0.3979
348.0,0.4534
348.5,0.4531
349.0,0.4202
349.5,0.416
350.0,0.5145
350.5,0.5426
351.0,0.4848
351.5,0.4713
352.0,0.506
352.5,0.3947
353.0,0.497
353.5,0.5314
354.0,0.5516
354.5,0.5594
355.0,0.5575
355.5,0.5036
356.0,0.5268
356.5,0.4498
357.0,0.3716
357.5,0.4549
358.0,0.3605
358.5,0.3081
359.0,0.4309
359.5,0.5492
360.0,0.5821
360.5,0.4652
361.0,0.424
361.5,0.4881
362.0,0.422
362.5,0.5839
363.0,0.5243
363.5,0.4829
364.0,0.5905
364.5,0.5047
365.0,0.514
365.5,0.645
366.0,0.6833
366.5,0.6419
367.0,0.6251
367.5,0.6487
368.0,0.5676
368.5,0.5727
369.0,0.6185
369.5,0.6592
370.0,0.7026
370.5,0.5453
371.0,0.5826
371.5,0.7289
372.0,0.4837
372.5,0.58
373.0,0.5899
373.5,0.3838
374.0,0.5577
374.5,0.4618
375.0,0.4489
375.5,0.6702
376.0,0.5556
376.5,0.5757
377.0,0.6095
377.5,0.7131
378.0,0.773
378.5,0.7306
379.0,0.603
379.5,0.5508
380.0,0.5727
380.5,0.6936
381.0,0.695
381.5,0.5508
382.0,0.4891
382.5,0.4169
383.0,0.386
383.5,0.3717
384.0,0.41
384.5,0.6031
385.0,0.598
385.5,0.5569
386.0,0.4769
386.5,0.6265
387.0,0.5206
387.5,0.5847
388.0,0.5398
388.5,0.5336
389.0,0.576
389.5,0.6976
390.0,0.7001
390.5,0.6443
391.0,0.7583
391.5,0.7735
392.0,0.6515
392.5,0.5832
393.0,0.3245
393.5,0.2359
394.0,0.4799
394.5,0.6102
395.0,0.7446
395.5,0.7564
396.0,0.6558
396.5,0.3833
397.0,0.2876
397.5,0.585
398.0,0.8193
398.5,0.8468
399.0,0.9168
399.5,0.9138
400.0,0.9489
401.0,0.9644
402.0,1.017
403.0,0.9662
404.0,0.9513
405.0,0.9511
406.0,0.9355
407.0,0.9202
408.0,0.9562
409.0,1.023
410.0,0.8941
411.0,0.9683
412.0,1.04
413.0,1.014
414.0,1.026
415.0,1.029
416.0,1.047
417.0,1.021
418.0,1.002
419.0,1.015
420.0,1.01
421.0,1.057
422.0,1.004
423.0,0.981
424.0,1.038
425.0,1.036
426.0,1.008
427.0,0.9895
428.0,0.9638
429.0,0.9126
430.0,0.7986
431.0,0.7916
432.0,1.022
433.0,1.027
434.0,0.9539
435.0,0.9963
436.0,1.122
437.0,1.107
438.0,1.008
439.0,1.043
440.0,1.076
441.0,1.114
442.0,1.195
443.0,1.164
444.0,1.189
445.0,1.163
446.0,1.11
447.0,1.199
448.0,1.218
449.0,1.223
450.0,1.256
451.0,1.303
452.0,1.255
453.0,1.18
454.0,1.232
455.0,1.239
456.0,1.269
457.0,1.29
458.0,1.246
459.0,1.24
460.0,1.243
461.0,1.271
462.0,1.281
463.0,1.272
464.0,1.251
465.0,1.234
466.0,1.246
467.0,1.223
468.0,1.238
469.0,1.244
470.0,1.204
471.0,1.203
472.0,1.267
473.0,1.251
474.0,1.253
475.0,1.264
476.0,1.227
477.0,1.231
478.0,1.265
479.0,1.257
480.0,1.259
481.0,1.282
482.0,1.288
483.0,1.272
484.0,1.245
485.0,1.186
486.0,1.037
487.0,1.086
488.0,1.192
489.0,1.196
490.0,1.257
491.0,1.235
492.0,1.167
493.0,1.205
494.0,1.217
495.0,1.227
496.0,1.235
497.0,1.254
498.0,1.195
499.0,1.211
500.0,1.176
501.0,1.154
502.0,1.139
503.0,1.186
504.0,1.158
505.0,1.198
506.0,1.236
507.0,1.176
508.0,1.139
509.0,1.171
510.0,1.164
511.0,1.195
512.0,1.207
513.0,1.143
514.0,1.135
515.0,1.123
516.0,1.121
517.0,0.9956
518.0,1.047
519.0,1.098
520.0,1.138
521.0,1.149
522.0,1.15
523.0,1.129
524.0,1.17
525.0,1.185
526.0,1.132
527.0,1.067
528.0,1.129
529.0,1.19
530.0,1.173
531.0,1.191
532.0,1.15
533.0,1.116
534.0,1.149
535.0,1.174
536.0,1.184
537.0,1.137
538.0,1.157
539.0,1.148
540.0,1.1
541.0,1.108
542.0,1.143
543.0,1.131
544.0,1.151
545.0,1.147
546.0,1.153
547.0,1.152
548.0,1.138
549.0,1.141
550.0,1.155
551.0,1.14
552.0,1.148
553.0,1.128
554.0,1.155
555.0,1.157
556.0,1.142
557.0,1.107
558.0,1.099
559.0,1.079
560.0,1.093
561.0,1.107
562.0,1.099
563.0,1.13
564.0,1.099
565.0,1.09
566.0,1.074
567.0,1.095
568.0,1.087
569.0,1.063
570.0,1.062
571.0,1.055
572.0,1.082
573.0,1.094
574.0,1.091
575.0,1.071
576.0,1.061
577.0,1.072
578.0,1.055
579.0,1.059
580.0,1.077
581.0,1.082
582.0,1.101
583.0,1.103
584.0,1.112
585.0,1.085
586.0,1.063
587.0,1.087
588.0,1.063
589.0,0.9465
590.0,0.9894
591.0,1.044
592.0,1.033
593.0,1.046
594.0,1.039
595.0,1.015
596.0,1.051
597.0,1.041
598.0,1.037
599.0,1.037
600.0,1.038
601.0,1.029
602.0,1.022
603.0,1.038
604.0,1.055
605.0,1.049
606.0,1.045
607.0,1.055
608.0,1.042
609.0,1.044
610.0,1.036
611.0,1.041
612.0,1.038
613.0,1.025
614.0,1.01
615.0,1.032
616.0,0.9978
617.0,0.9956
618.0,1.034
619.0,1.023
620.0,1.03
621.0,1.031
622.0,1.019
623.0,1.004
624.0,0.9865
625.0,0.9842
626.0,0.9989
627.0,1.011
628.0,0.9547
629.0,0.9907
630.0,0.9682
631.0,0.9865
632.0,0.974
633.0,1.002
634.0,0.9912
635.0,1.006
636.0,0.9921
637.0,1.008
638.0,1.017
639.0,1.005
640.0,0.9948
641.0,0.9938
642.0,0.9889
643.0,1.002
644.0,0.9985
645.0,1.0
646.0,0.9783
647.0,0.9695
648.0,0.9707
649.0,0.9521
650.0,0.953
651.0,0.9936
652.0,0.9563
653.0,0.9803
654.0,0.969
655.0,0.935
656.0,0.8272
657.0,0.8493
658.0,0.9507
659.0,0.957
660.0,0.9607
661.0,0.9674
662.0,0.9701
663.0,0.9506
664.0,0.9608
665.0,0.9608
666.0,0.9612
667.0,0.9599
668.0,0.9599
669.0,0.9745
670.0,0.9702
671.0,0.9697
672.0,0.9613
673.0,0.9756
674.0,0.9718
675.0,0.9628
676.0,0.9693
677.0,0.9595
678.0,0.9621
679.0,0.9465
680.0,0.954
681.0,0.9476
682.0,0.9464
683.0,0.9445
684.0,0.9399
685.0,0.9477
686.0,0.9423
687.0,0.6719
688.0,0.7651
689.0,0.7671
690.0,0.7972
691.0,0.8307
692.0,0.8543
693.0,0.8481
694.0,0.8411
695.0,0.8703
696.0,0.8715
697.0,0.9178
698.0,0.9037
699.0,0.8866
700.0,0.876
701.0,0.8686
702.0,0.8729
703.0,0.8745
704.0,0.8997
705.0,0.901
706.0,0.8991
707.0,0.8994
708.0,0.9015
709.0,0.9011
710.0,0.9018
711.0,0.9001
712.0,0.8966
713.0,0.8883
714.0,0.8914
715.0,0.865
716.0,0.866
717.0,0.7681
718.0,0.7084
719.0,0.6507
720.0,0.6829
721.0,0.7432
722.0,0.8388
723.0,0.7869
724.0,0.7158
725.0,0.7067
726.0,0.7385
727.0,0.7451
728.0,0.7056
729.0,0.7259
730.0,0.768
731.0,0.7367
732.0,0.7816
733.0,0.8212
734.0,0.839
735.0,0.8225
736.0,0.8213
737.0,0.8248
738.0,0.8334
739.0,0.8171
740.0,0.8371
741.0,0.828
742.0,0.8281
743.0,0.849
744.0,0.8461
745.0,0.8459
746.0,0.8497
747.0,0.8515
748.0,0.8497
749.0,0.84
750.0,0.8394
751.0,0.8309
752.0,0.8344
753.0,0.8386
754.0,0.8405
755.0,0.8358
756.0,0.8353
757.0,0.8366
758.0,0.8262
759.0,0.8118
760.0,0.1821
761.0,0.1062
762.0,0.4624
763.0,0.2596
764.0,0.3648
765.0,0.4627
766.0,0.5455
767.0,0.6662
768.0,0.7516
769.0,0.7635
770.0,0.7852
771.0,0.7896
772.0,0.7907
773.0,0.7961
774.0,0.7921
775.0,0.786
776.0,0.7955
777.0,0.785
778.0,0.7802
779.0,0.7809
780.0,0.7765
781.0,0.7772
782.0,0.7821
783.0,0.7684
784.0,0.772
785.0,0.7665
786.0,0.775
787.0,0.7633
788.0,0.7546
789.0,0.7546
790.0,0.7371
791.0,0.741
792.0,0.7352
793.0,0.7236
794.0,0.7332
795.0,0.7463
796.0,0.7269
797.0,0.728
798.0,0.7458
799.0,0.7417
800.0,0.7297
801.0,0.7282
802.0,0.726
803.0,0.7209
804.0,0.7215
805.0,0.7183
806.0,0.7367
807.0,0.7282
808.0,0.7287
809.0,0.7163
810.0,0.7114
811.0,0.714
812.0,0.696
813.0,0.6831
814.0,0.6093
815.0,0.6053
816.0,0.5646
817.0,0.5739
818.0,0.5543
819.0,0.6124
820.0,0.5796
821.0,0.6675
822.0,0.6501
823.0,0.4581
824.0,0.6346
825.0,0.6564
826.0,0.6345
827.0,0.6664
828.0,0.574
829.0,0.63
830.0,0.6227
831.0,0.6246
832.0,0.6071
833.0,0.6412
834.0,0.6215
835.0,0.6764
836.0,0.6514
837.0,0.678
838.0,0.6587
839.0,0.6674
840.0,0.6816
841.0,0.6727
842.0,0.6729
843.0,0.6714
844.0,0.6627
845.0,0.6841
846.0,0.681
847.0,0.6679
848.0,0.6643
849.0,0.6454
850.0,0.6183
851.0,0.6552
852.0,0.6503
853.0,0.6256
854.0,0.5405
855.0,0.5933
856.0,0.6486
857.0,0.6627
858.0,0.658
859.0,0.6583
860.0,0.6593
861.0,0.6558
862.0,0.666
863.0,0.6817
864.0,0.6476
865.0,0.6419
866.0,0.5772
867.0,0.6023
868.0,0.6554
869.0,0.6418
870.0,0.6601
871.0,0.6511
872.0,0.6488
873.0,0.6475
874.0,0.6398
875.0,0.6268
876.0,0.6334
877.0,0.6397
878.0,0.6468
879.0,0.6368
880.0,0.6231
881.0,0.614
882.0,0.6274
883.0,0.6291
884.0,0.6263
885.0,0.6311
886.0,0.6023
887.0,0.608
888.0,0.6174
889.0,0.6237
890.0,0.6194
891.0,0.6179
892.0,0.6012
893.0,0.5838
894.0,0.566
895.0,0.5383
896.0,0.5086
897.0,0.4416
898.0,0.4792
899.0,0.3702
900.0,0.4877
901.0,0.3878
902.0,0.4475
903.0,0.4544
904.0,0.5617
905.0,0.5439
906.0,0.5102
907.0,0.4216
908.0,0.4289
909.0,0.4613
910.0,0.4139
911.0,0.4375
912.0,0.4561
913.0,0.4203
914.0,0.4157
915.0,0.4501
916.0,0.3827
917.0,0.4792
918.0,0.3926
919.0,0.4864
920.0,0.4883
921.0,0.5072
922.0,0.4576
923.0,0.4897
924.0,0.4693
925.0,0.4592
926.0,0.4643
927.0,0.5157
928.0,0.3899
929.0,0.359
930.0,0.287
931.0,0.2711
932.0,0.2001
933.0,0.1653
934.0,0.09627
935.0,0.167
936.0,0.1078
937.0,0.1097
938.0,0.1335
939.0,0.2627
940.0,0.3126
941.0,0.2405
942.0,0.2756
943.0,0.1848
944.0,0.1914
945.0,0.2472
946.0,0.1306
947.0,0.2495
948.0,0.1841
949.0,0.3293
950.0,0.099
951.0,0.3234
952.0,0.1801
953.0,0.2284
954.0,0.2754
955.0,0.2305
956.0,0.2215
957.0,0.181
958.0,0.3073
959.0,0.2491
960.0,0.2791
961.0,0.3094
962.0,0.2933
963.0,0.3348
964.0,0.3078
965.0,0.3331
966.0,0.334
967.0,0.3329
968.0,0.4349
969.0,0.4552
970.0,0.4196
971.0,0.4753
972.0,0.4556
973.0,0.4017
974.0,0.382
975.0,0.3945
976.0,0.3773
977.0,0.4241
978.0,0.4051
979.0,0.4227
980.0,0.3984
981.0,0.4723
982.0,0.4534
983.0,0.4364
984.0,0.4846
985.0,0.4517
986.0,0.4919
987.0,0.4837
988.0,0.4827
989.0,0.4897
990.0,0.4798
991.0,0.4913
992.0,0.494
993.0,0.4843
994.0,0.4937
995.0,0.4929
996.0,0.4909
997.0,0.4916
998.0,0.4893
999.0,0.4875
1000.0,0.4843
1001.0,0.49
1002.0,0.4778
1003.0,0.4815
1004.0,0.47
1005.0,0.4524
1006.0,0.4702
1007.0,0.4801
1008.0,0.4777
1009.0,0.4754
1010.0,0.4735
1011.0,0.4776
1012.0,0.4737
1013.0,0.4764
1014.0,0.4731
1015.0,0.47
1016.0,0.4679
1017.0,0.4691
1018.0,0.4672
1019.0,0.4577
1020.0,0.4648
1021.0,0.4641
1022.0,0.4607
1023.0,0.4656
1024.0,0.46
1025.0,0.4651
1026.0,0.4632
1027.0,0.4621
1028.0,0.4612
1029.0,0.4558
1030.0,0.4587
1031.0,0.457
1032.0,0.4556
1033.0,0.4487
1034.0,0.4487
1035.0,0.4501
1036.0,0.4525
1037.0,0.4452
1038.0,0.4471
1039.0,0.4469
1040.0,0.4451
1041.0,0.4469
1042.0,0.4438
1043.0,0.4424
1044.0,0.444
1045.0,0.438
1046.0,0.4332
1047.0,0.4371
1048.0,0.4396
1049.0,0.438
1050.0,0.436
1051.0,0.4355
1052.0,0.4338
1053.0,0.4304
1054.0,0.4314
1055.0,0.4317
1056.0,0.4302
1057.0,0.429
1058.0,0.4185
1059.0,0.419
1060.0,0.4184
1061.0,0.4179
1062.0,0.4202
1063.0,0.4161
1064.0,0.421
1065.0,0.4182
1066.0,0.4098
1067.0,0.4151
1068.0,0.4062
1069.0,0.3935
1070.0,0.407
1071.0,0.4129
1072.0,0.4085
1073.0,0.4025
1074.0,0.4124
1075.0,0.3931
1076.0,0.4122
1077.0,0.4056
1078.0,0.3982
1079.0,0.4054
1080.0,0.3993
1081.0,0.3871
1082.0,0.3922
1083.0,0.3932
1084.0,0.3865
1085.0,0.4001
1086.0,0.3671
1087.0,0.3774
1088.0,0.393
1089.0,0.3822
1090.0,0.3746
1091.0,0.392
1092.0,0.3908
1093.0,0.3351
1094.0,0.358
1095.0,0.3486
1096.0,0.3349
1097.0,0.3817
1098.0,0.3301
1099.0,0.3437
1100.0,0.3212
1101.0,0.3247
1102.0,0.3112
1103.0,0.3089
1104.0,0.3092
1105.0,0.3362
1106.0,0.2637
1107.0,0.3206
1108.0,0.2757
1109.0,0.2754
1110.0,0.3183
1111.0,0.2212
1112.0,0.273
1113.0,0.1793
1114.0,0.1997
1115.0,0.1658
1116.0,0.1357
1117.0,0.05358
1118.0,0.1464
1119.0,0.07558
1120.0,0.09526
1121.0,0.1246
1122.0,0.05499
1123.0,0.08598
1124.0,0.07261
1125.0,0.09401
1126.0,0.03527
1127.0,0.1058
1128.0,0.06605
1129.0,0.06967
1130.0,0.04701
1131.0,0.1942
1132.0,0.1536
1133.0,0.1008
1134.0,0.02787
1135.0,0.01034
1136.0,0.08531
1137.0,0.1918
1138.0,0.1359
1139.0,0.1961
1140.0,0.1664
1141.0,0.1291
1142.0,0.1472
1143.0,0.2063
1144.0,0.07535
1145.0,0.0971
1146.0,0.1048
1147.0,0.03952
1148.0,0.1786
1149.0,0.1446
1150.0,0.08083
1151.0,0.1349
1152.0,0.1636
1153.0,0.1577
1154.0,0.09463
1155.0,0.2047
1156.0,0.1856
1157.0,0.2063
1158.0,0.204
1159.0,0.2183
1160.0,0.1886
1161.0,0.2285
1162.0,0.2299
1163.0,0.3037
1164.0,0.263
1165.0,0.2505
1166.0,0.2471
1167.0,0.2678
1168.0,0.2713
1169.0,0.2769
1170.0,0.2988
1171.0,0.2917
1172.0,0.2958
1173.0,0.2982
1174.0,0.2187
1175.0,0.2904
1176.0,0.3164
1177.0,0.3056
1178.0,0.2339
1179.0,0.3188
1180.0,0.2877
1181.0,0.2966
1182.0,0.2095
1183.0,0.2914
1184.0,0.2747
1185.0,0.2665
1186.0,0.3112
1187.0,0.2979
1188.0,0.2135
1189.0,0.2778
1190.0,0.304
1191.0,0.2913
1192.0,0.308
1193.0,0.2961
1194.0,0.3045
1195.0,0.2898
1196.0,0.2803
1197.0,0.3037
1198.0,0.2792
1199.0,0.2417
1200.0,0.2925
1201.0,0.2835
1202.0,0.281
1203.0,0.2788
1204.0,0.2461
1205.0,0.2863
1206.0,0.314
1207.0,0.2807
1208.0,0.2751
1209.0,0.2804
1210.0,0.2912
1211.0,0.2789
1212.0,0.2774
1213.0,0.3045
1214.0,0.2831
1215.0,0.2782
1216.0,0.3035
1217.0,0.2963
1218.0,0.3011
1219.0,0.2978
1220.0,0.3013
1221.0,0.3038
1222.0,0.2964
1223.0,0.294
1224.0,0.2928
1225.0,0.3019
1226.0,0.3034
1227.0,0.2821
1228.0,0.3045
1229.0,0.3035
1230.0,0.2987
1231.0,0.3058
1232.0,0.3041
1233.0,0.2953
1234.0,0.3052
1235.0,0.3035
1236.0,0.3055
1237.0,0.302
1238.0,0.3045
1239.0,0.3006
1240.0,0.3017
1241.0,0.3007
1242.0,0.2996
1243.0,0.2972
1244.0,0.2994
1245.0,0.3006
1246.0,0.2988
1247.0,0.2978
1248.0,0.2978
1249.0,0.2985
1250.0,0.2969
1251.0,0.2933
1252.0,0.293
1253.0,0.2913
1254.0,0.2888
1255.0,0.2929
1256.0,0.2858
1257.0,0.2844
1258.0,0.2889
1259.0,0.2801
1260.0,0.2813
1261.0,0.2677
1262.0,0.2608
1263.0,0.2614
1264.0,0.2439
1265.0,0.2596
1266.0,0.2514
1267.0,0.2547
1268.0,0.2433
1269.0,0.1626
1270.0,0.2542
1271.0,0.2665
1272.0,0.2672
1273.0,0.2646
1274.0,0.2651
1275.0,0.2685
1276.0,0.2707
1277.0,0.272
1278.0,0.2764
1279.0,0.274
1280.0,0.2704
1281.0,0.2577
1282.0,0.2476
1283.0,0.2668
1284.0,0.2733
1285.0,0.275
1286.0,0.2784
1287.0,0.2747
1288.0,0.2745
1289.0,0.2671
1290.0,0.272
1291.0,0.2755
1292.0,0.2614
1293.0,0.2708
1294.0,0.269
1295.0,0.2683
1296.0,0.2578
1297.0,0.2452
1298.0,0.2613
1299.0,0.2709
1300.0,0.2337
1301.0,0.24
1302.0,0.2604
1303.0,0.2301
1304.0,0.2004
1305.0,0.2554
1306.0,0.2556
1307.0,0.2033
1308.0,0.2298
1309.0,0.254
1310.0,0.1996
1311.0,0.2213
1312.0,0.2159
1313.0,0.2124
1314.0,0.1916
1315.0,0.19
1316.0,0.2185
1317.0,0.2074
1318.0,0.2237
1319.0,0.1797
1320.0,0.1731
1321.0,0.1999
1322.0,0.2027
1323.0,0.1565
1324.0,0.1762
1325.0,0.2156
1326.0,0.1875
1327.0,0.1795
1328.0,0.156
1329.0,0.1205
1330.0,0.1552
1331.0,0.09766
1332.0,0.09948
1333.0,0.1375
1334.0,0.1147
1335.0,0.1558
1336.0,0.1253
1337.0,0.1119
1338.0,0.121
1339.0,0.1199
1340.0,0.1156
1341.0,0.1152
1342.0,0.1209
1343.0,0.08672
1344.0,0.05174
1345.0,0.07417
1346.0,0.0401
1347.0,0.04133
1348.0,0.003326
1349.0,0.01121
1350.0,0.01114
1351.0,0.003281
1352.0,0.001084
1353.0,6.996e-05
1354.0,0.0002082
1355.0,2.689e-06
1356.0,3.484e-05
1357.0,5.268e-05
1358.0,3.125e-06
1359.0,5.576e-07
1360.0,1.619e-06
1361.0,3.827e-09
1362.0,1.464e-11
1363.0,2.4e-06
1364.0,1.027e-06
1365.0,7.649e-12
1366.0,9.552e-06
1367.0,3.731e-06
1368.0,1.308e-13
1369.0,3.932e-07
1370.0,2.244e-07
1371.0,1.541e-08
1372.0,2.057e-06
1373.0,3.259e-05
1374.0,0.0001287
1375.0,0.0002338
1376.0,0.0001859
1377.0,8.849e-05
1378.0,0.0007981
1379.0,3.753e-05
1380.0,5.943e-05
1381.0,1.733e-06
1382.0,1.933e-06
1383.0,3.36e-08
1384.0,4.705e-07
1385.0,1.558e-06
1386.0,1.902e-06
1387.0,0.000146
1388.0,2.965e-06
1389.0,0.0004169
1390.0,0.0003585
1391.0,0.0002488
1392.0,1.729e-05
1393.0,8.371e-05
1394.0,5.573e-05
1395.0,5.032e-07
1396.0,4.997e-09
1397.0,3.565e-05
1398.0,0.0009097
1399.0,0.0005766
1400.0,2.617e-09
1401.0,8.374e-09
1402.0,0.001298
1403.0,0.001695
1404.0,0.000526
1405.0,2.78e-07
1406.0,0.001459
1407.0,0.0001247
1408.0,0.001181
1409.0,0.0004469
1410.0,0.0003343
1411.0,0.001481
1412.0,0.001888
1413.0,0.01637
1414.0,0.0002603
1415.0,0.0001325
1416.0,0.02461
1417.0,0.008207
1418.0,0.009417
1419.0,0.001499
1420.0,0.005793
1421.0,0.0063
1422.0,0.03191
1423.0,0.006389
1424.0,0.01179
1425.0,0.01762
1426.0,0.01931
1427.0,0.03393
1428.0,0.003175
1429.0,0.02607
1430.0,0.04271
1431.0,0.04649
1432.0,0.00252
1433.0,0.03016
1434.0,0.01564
1435.0,0.01664
1436.0,0.03053
1437.0,0.02339
1438.0,0.01032
1439.0,0.04082
1440.0,0.03065
1441.0,0.02411
1442.0,0.0266
1443.0,0.03227
1444.0,0.04419
1445.0,0.03549
1446.0,0.01624
1447.0,0.02555
1448.0,0.08007
1449.0,0.0704
1450.0,0.01891
1451.0,0.007811
1452.0,0.04321
1453.0,0.05624
1454.0,0.0936
1455.0,0.04523
