interpolation:linear
wavelength,value
280.0,6.1729999999999995e-22
280.5,2.0060000000000003e-20
281.0,1.071e-19
281.5,4.997e-19
282.0,8.294e-19
282.5,2.052e-18
283.0,6.462e-18
283.5,1.05e-17
284.0,1.71e-16
284.5,4.962e-16
285.0,8.92e-16
285.5,4.374e-15
286.0,1.755e-14
286.5,7.832e-14
287.0,2.234e-13
287.5,8.555e-13
288.0,2.79e-12
288.5,8.559e-12
289.0,2.298e-11
289.5,6.975e-11
290.0,1.941e-10
290.5,3.963e-10
291.0,8.515e-10
291.5,2.446e-09
292.0,5.916e-09
292.5,8.185e-09
293.0,1.727e-08
293.5,4.12e-08
294.0,6.368e-08
294.5,8.442e-08
295.0,1.416e-07
295.5,2.686e-07
296.0,5.16e-07
296.5,7.39e-07
297.0,1.023e-06
297.5,2.856e-06
298.0,4.688e-06
298.5,4.889e-06
299.0,1.122e-05
299.5,2.018e-05
300.0,2.337e-05
300.5,3.587e-05
301.0,7.214e-05
301.5,0.0001284
302.0,0.000117
302.5,0.0002362
303.0,0.000444
303.5,0.0005781
304.0,0.0005588
304.5,0.0008981
305.0,0.001512
305.5,0.001851
306.0,0.001839
306.5,0.002391
307.0,0.003903
307.5,0.005694
308.0,0.006107
308.5,0.007552
309.0,0.007697
309.5,0.009356
310.0,0.009665
310.5,0.01587
311.0,0.02038
311.5,0.01987
312.0,0.02086
312.5,0.02622
313.0,0.02892
313.5,0.02766
314.0,0.03593
314.5,0.03351
315.0,0.04444
315.5,0.0363
316.0,0.03302
316.5,0.0491
317.0,0.06094
317.5,0.06281
318.0,0.05018
318.5,0.06519
319.0,0.07915
319.5,0.06223
320.0,0.0748
320.5,0.098
321.0,0.09092
321.5,0.08755
322.0,0.08934
322.5,0.07792
323.0,0.07986
323.5,0.1007
324.0,0.1181
324.5,0.1186
325.0,0.1011
325.5,0.133
326.0,0.1636
326.5,0.1663
327.0,0.1649
327.5,0.1582
328.0,0.1383
328.5,0.1488
329.0,0.1815
329.5,0.2072
330.0,0.2082
330.5,0.1643
331.0,0.1667
331.5,0.1713
332.0,0.1879
332.5,0.1873
333.0,0.186
333.5,0.1665
334.0,0.1704
334.5,0.1992
335.0,0.1886
335.5,0.2206
336.0,0.1527
336.5,0.1781
337.0,0.1454
337.5,0.1805
338.0,0.1782
338.5,0.2062
339.0,0.2043
339.5,0.1966
340.0,0.2307
340.5,0.2082
341.0,0.2034
341.5,0.187
342.0,0.2237
342.5,0.2094
343.0,0.2303
343.5,0.2168
344.0,0.1601
344.5,0.1619
345.0,0.2146
345.5,0.2194
346.0,0.1866
346.5,0.2115
347.0,0.227
347.5,0.1836
348.0,0.2095
348.5,0.2096
349.0,0.1946
349.5,0.1928
350.0,0.2386
350.5,0.2518
351.0,0.225
351.5,0.2185
352.0,0.235
352.5,0.1836
353.0,0.2315
353.5,0.2477
354.0,0.2573
354.5,0.261
355.0,0.2602
355.5,0.2352
356.0,0.2463
356.5,0.2104
357.0,0.1739
357.5,0.213
358.0,0.1689
358.5,0.1444
359.0,0.202
359.5,0.2574
360.0,0.273
360.5,0.2183
361.0,0.1992
361.5,0.2296
362.0,0.1987
362.5,0.2753
363.0,0.2475
363.5,0.2281
364.0,0.2792
364.5,0.2388
365.0,0.2433
365.5,0.3055
366.0,0.3239
366.5,0.3046
367.0,0.2968
367.5,0.3082
368.0,0.2698
368.5,0.2724
369.0,0.2944
369.5,0.314
370.0,0.3349
370.5,0.2601
371.0,0.2781
371.5,0.3481
372.0,0.2311
372.5,0.2773
373.0,0.2823
373.5,0.1838
374.0,0.2672
374.5,0.2214
375.0,0.2153
375.5,0.3216
376.0,0.2667
376.5,0.2765
377.0,0.293
377.5,0.3429
378.0,0.3719
378.5,0.3516
379.0,0.2903
379.5,0.2652
380.0,0.2759
380.5,0.3344
381.0,0.3353
381.5,0.266
382.0,0.2364
382.5,0.2017
383.0,0.1869
383.5,0.1801
384.0,0.1988
384.5,0.2926
385.0,0.2903
385.5,0.2706
386.0,0.2319
386.5,0.3048
387.0,0.2534
387.5,0.2847
388.0,0.263
388.5,0.2602
389.0,0.281
389.5,0.3405
390.0,0.3419
390.5,0.3149
391.0,0.3708
391.5,0.3784
392.0,0.3189
392.5,0.2857
393.0,0.1591
393.5,0.1157
394.0,0.2355
394.5,0.2996
395.0,0.3658
395.5,0.3717
396.0,0.3224
396.5,0.1886
397.0,0.1417
397.5,0.2882
398.0,0.4037
398.5,0.4175
399.0,0.4525
399.5,0.4512
400.0,0.4686
401.0,0.4737
402.0,0.5004
403.0,0.4759
404.0,0.469
405.0,0.4693
406.0,0.4622
407.0,0.4553
408.0,0.4733
409.0,0.507
410.0,0.4435
411.0,0.4808
412.0,0.5171
413.0,0.5045
414.0,0.5112
415.0,0.5131
416.0,0.5227
417.0,0.5101
418.0,0.5011
419.0,0.5081
420.0,0.5062
421.0,0.5301
422.0,0.5041
423.0,0.4928
424.0,0.5215
425.0,0.521
426.0,0.5082
427.0,0.499
428.0,0.4863
429.0,0.4612
430.0,0.404
431.0,0.4005
432.0,0.5176
433.0,0.5208
434.0,0.4838
435.0,0.5054
436.0,0.5702
437.0,0.5631
438.0,0.5132
439.0,0.5305
440.0,0.5478
441.0,0.5681
442.0,0.6096
443.0,0.5937
444.0,0.6071
445.0,0.594
446.0,0.5677
447.0,0.6144
448.0,0.6237
449.0,0.627
450.0,0.645
451.0,0.6692
452.0,0.6452
453.0,0.6072
454.0,0.6344
455.0,0.6384
456.0,0.6539
457.0,0.6649
458.0,0.642
459.0,0.639
460.0,0.6406
461.0,0.6556
462.0,0.6611
463.0,0.6566
464.0,0.6465
465.0,0.6391
466.0,0.6458
467.0,0.6339
468.0,0.6414
469.0,0.6449
470.0,0.6243
471.0,0.6237
472.0,0.6572
473.0,0.6487
474.0,0.6493
475.0,0.6544
476.0,0.6342
477.0,0.6356
478.0,0.6535
479.0,0.6499
480.0,0.6515
481.0,0.6643
482.0,0.6684
483.0,0.6611
484.0,0.6479
485.0,0.6178
486.0,0.5405
487.0,0.5669
488.0,0.6219
489.0,0.6236
490.0,0.6564
491.0,0.6454
492.0,0.6096
493.0,0.6297
494.0,0.6361
495.0,0.6416
496.0,0.6456
497.0,0.6556
498.0,0.6249
499.0,0.6327
500.0,0.6139
501.0,0.6022
502.0,0.593
503.0,0.6163
504.0,0.5983
505.0,0.6217
506.0,0.6417
507.0,0.6108
508.0,0.5925
509.0,0.6097
510.0,0.607
511.0,0.6237
512.0,0.6308
513.0,0.5971
514.0,0.5933
515.0,0.5874
516.0,0.5859
517.0,0.5207
518.0,0.5474
519.0,0.5741
520.0,0.5949
521.0,0.6005
522.0,0.6008
523.0,0.5899
524.0,0.6106
525.0,0.6171
526.0,0.5893
527.0,0.5549
528.0,0.5864
529.0,0.6178
530.0,0.6087
531.0,0.6175
532.0,0.5962
533.0,0.5788
534.0,0.5961
535.0,0.6094
536.0,0.6152
537.0,0.5912
538.0,0.6018
539.0,0.5967
540.0,0.572
541.0,0.5751
542.0,0.5927
543.0,0.5871
544.0,0.5967
545.0,0.5949
546.0,0.597
547.0,0.5972
548.0,0.5903
549.0,0.5923
550.0,0.5994
551.0,0.5922
552.0,0.5963
553.0,0.5856
554.0,0.5995
555.0,0.6006
556.0,0.5926
557.0,0.574
558.0,0.5693
559.0,0.5583
560.0,0.565
561.0,0.572
562.0,0.5674
563.0,0.5824
564.0,0.5661
565.0,0.5608
566.0,0.5523
567.0,0.5622
568.0,0.556
569.0,0.5403
570.0,0.5405
571.0,0.5379
572.0,0.5492
573.0,0.5548
574.0,0.5526
575.0,0.5418
576.0,0.5369
577.0,0.543
578.0,0.5355
579.0,0.5387
580.0,0.5508
581.0,0.5549
582.0,0.5666
583.0,0.569
584.0,0.5746
585.0,0.5609
586.0,0.5494
587.0,0.5607
588.0,0.5441
589.0,0.4762
590.0,0.4984
591.0,0.531
592.0,0.5222
593.0,0.5326
594.0,0.5278
595.0,0.5126
596.0,0.5376
597.0,0.5306
598.0,0.5307
599.0,0.5318
600.0,0.5338
601.0,0.5304
602.0,0.5269
603.0,0.5361
604.0,0.5452
605.0,0.5427
606.0,0.541
607.0,0.5469
608.0,0.5414
609.0,0.5428
610.0,0.5394
611.0,0.5425
612.0,0.5413
613.0,0.5347
614.0,0.5279
615.0,0.5398
616.0,0.5224
617.0,0.5216
618.0,0.5419
619.0,0.5366
620.0,0.54
621.0,0.5401
622.0,0.5334
623.0,0.5249
624.0,0.5163
625.0,0.5152
626.0,0.5227
627.0,0.5274
628.0,0.4791
629.0,0.5103
630.0,0.498
631.0,0.5138
632.0,0.5086
633.0,0.5259
634.0,0.5223
635.0,0.5312
636.0,0.525
637.0,0.5343
638.0,0.5405
639.0,0.5349
640.0,0.5304
641.0,0.5305
642.0,0.5287
643.0,0.5359
644.0,0.5347
645.0,0.5353
646.0,0.5212
647.0,0.5113
648.0,0.5117
649.0,0.5014
650.0,0.5086
651.0,0.5315
652.0,0.5045
653.0,0.5247
654.0,0.5193
655.0,0.4975
656.0,0.4427
657.0,0.4548
658.0,0.5112
659.0,0.5155
660.0,0.518
661.0,0.5218
662.0,0.5219
663.0,0.512
664.0,0.5194
665.0,0.5209
666.0,0.5217
667.0,0.5218
668.0,0.5225
669.0,0.531
670.0,0.5289
671.0,0.529
672.0,0.5247
673.0,0.5328
674.0,0.5311
675.0,0.5265
676.0,0.5303
677.0,0.5252
678.0,0.5269
679.0,0.5185
680.0,0.5228
681.0,0.5194
682.0,0.5188
683.0,0.5179
684.0,0.5153
685.0,0.5199
686.0,0.5166
687.0,0.2867
688.0,0.3612
689.0,0.3633
690.0,0.39
691.0,0.421
692.0,0.4449
693.0,0.4406
694.0,0.4377
695.0,0.4629
696.0,0.4639
697.0,0.5007
698.0,0.4927
699.0,0.4753
700.0,0.4693
701.0,0.4624
702.0,0.4678
703.0,0.4691
704.0,0.4875
705.0,0.4882
706.0,0.4891
707.0,0.49
708.0,0.4909
709.0,0.4939
710.0,0.4927
711.0,0.4928
712.0,0.4924
713.0,0.4864
714.0,0.4886
715.0,0.4709
716.0,0.4706
717.0,0.3875
718.0,0.3538
719.0,0.3224
720.0,0.3357
721.0,0.3825
722.0,0.4506
723.0,0.413
724.0,0.3642
725.0,0.3558
726.0,0.3732
727.0,0.3837
728.0,0.3539
729.0,0.3744
730.0,0.395
731.0,0.3763
732.0,0.4102
733.0,0.4413
734.0,0.454
735.0,0.4434
736.0,0.4427
737.0,0.4444
738.0,0.4566
739.0,0.4476
740.0,0.461
741.0,0.4573
742.0,0.4588
743.0,0.4707
744.0,0.47
745.0,0.4706
746.0,0.4728
747.0,0.4739
748.0,0.473
749.0,0.4677
750.0,0.4674
751.0,0.4627
752.0,0.4648
753.0,0.4672
754.0,0.4683
755.0,0.4656
756.0,0.4655
757.0,0.4661
758.0,0.4602
759.0,0.4475
760.0,0.03425
761.0,0.01373
762.0,0.1719
763.0,0.06284
764.0,0.1132
765.0,0.1717
766.0,0.2351
767.0,0.3242
768.0,0.3981
769.0,0.4121
770.0,0.4326
771.0,0.439
772.0,0.4408
773.0,0.4441
774.0,0.4422
775.0,0.439
776.0,0.4444
777.0,0.4385
778.0,0.4359
779.0,0.4362
780.0,0.4338
781.0,0.4343
782.0,0.4371
783.0,0.4296
784.0,0.4318
785.0,0.4283
786.0,0.4328
787.0,0.4227
788.0,0.4162
789.0,0.4159
790.0,0.4012
791.0,0.4083
792.0,0.4058
793.0,0.3988
794.0,0.4093
795.0,0.4152
796.0,0.3975
797.0,0.3977
798.0,0.4142
799.0,0.4106
800.0,0.4023
801.0,0.3999
802.0,0.3987
803.0,0.395
804.0,0.3962
805.0,0.3964
806.0,0.41
807.0,0.4045
808.0,0.4051
809.0,0.3956
810.0,0.3911
811.0,0.3889
812.0,0.3745
813.0,0.3651
814.0,0.3113
815.0,0.31
816.0,0.2873
817.0,0.2934
818.0,0.2801
819.0,0.3216
820.0,0.2998
821.0,0.3628
822.0,0.3504
823.0,0.2196
824.0,0.3356
825.0,0.3564
826.0,0.3389
827.0,0.3617
828.0,0.295
829.0,0.3377
830.0,0.3322
831.0,0.3335
832.0,0.3212
833.0,0.3473
834.0,0.3312
835.0,0.3724
836.0,0.3508
837.0,0.3737
838.0,0.3592
839.0,0.3686
840.0,0.3774
841.0,0.3708
842.0,0.3735
843.0,0.3753
844.0,0.369
845.0,0.3829
846.0,0.3815
847.0,0.375
848.0,0.3718
849.0,0.3612
850.0,0.3462
851.0,0.3656
852.0,0.3635
853.0,0.3506
854.0,0.3021
855.0,0.3328
856.0,0.3633
857.0,0.372
858.0,0.369
859.0,0.3697
860.0,0.3706
861.0,0.3685
862.0,0.3745
863.0,0.3833
864.0,0.3642
865.0,0.3611
866.0,0.3247
867.0,0.3389
868.0,0.3688
869.0,0.3612
870.0,0.3715
871.0,0.3664
872.0,0.3652
873.0,0.3645
874.0,0.3601
875.0,0.3528
876.0,0.3564
877.0,0.3601
878.0,0.3638
879.0,0.3583
880.0,0.3506
881.0,0.3449
882.0,0.3522
883.0,0.3538
884.0,0.352
885.0,0.3546
886.0,0.3363
887.0,0.3412
888.0,0.3455
889.0,0.3508
890.0,0.3461
891.0,0.3464
892.0,0.3342
893.0,0.3215
894.0,0.3054
895.0,0.2826
896.0,0.2645
897.0,0.2202
898.0,0.2439
899.0,0.1775
900.0,0.2542
901.0,0.186
902.0,0.2291
903.0,0.2276
904.0,0.3031
905.0,0.2904
906.0,0.2699
907.0,0.208
908.0,0.2142
909.0,0.2366
910.0,0.2005
911.0,0.22
912.0,0.2309
913.0,0.2031
914.0,0.2031
915.0,0.2197
916.0,0.1845
917.0,0.2429
918.0,0.1886
919.0,0.2502
920.0,0.2588
921.0,0.2691
922.0,0.2342
923.0,0.2606
924.0,0.2386
925.0,0.2337
926.0,0.2354
927.0,0.2699
928.0,0.1798
929.0,0.1593
930.0,0.1177
931.0,0.112
932.0,0.07313
933.0,0.0561
934.0,0.02409
935.0,0.06008
936.0,0.03307
937.0,0.03324
938.0,0.04248
939.0,0.1083
940.0,0.1359
941.0,0.09543
942.0,0.1144
943.0,0.0698
944.0,0.07891
945.0,0.09993
946.0,0.04369
947.0,0.09841
948.0,0.07154
949.0,0.1389
950.0,0.0287
951.0,0.1379
952.0,0.06499
953.0,0.08995
954.0,0.1172
955.0,0.0917
956.0,0.09508
957.0,0.06448
958.0,0.143
959.0,0.1052
960.0,0.1179
961.0,0.139
962.0,0.131
963.0,0.1569
964.0,0.142
965.0,0.1564
966.0,0.1554
967.0,0.154
968.0,0.2289
969.0,0.2361
970.0,0.2146
971.0,0.2555
972.0,0.2423
973.0,0.201
974.0,0.1898
975.0,0.2005
976.0,0.1848
977.0,0.2217
978.0,0.2058
979.0,0.2185
980.0,0.2038
981.0,0.2543
982.0,0.2395
983.0,0.2279
984.0,0.2666
985.0,0.2385
986.0,0.2741
987.0,0.2654
988.0,0.2652
989.0,0.275
990.0,0.2634
991.0,0.2755
992.0,0.2774
993.0,0.268
994.0,0.2777
995.0,0.2778
996.0,0.2761
997.0,0.2767
998.0,0.2752
999.0,0.2744
1000.0,0.2717
1001.0,0.2759
1002.0,0.2652
1003.0,0.2709
1004.0,0.2634
1005.0,0.2549
1006.0,0.2643
1007.0,0.2702
1008.0,0.2682
1009.0,0.2661
1010.0,0.2647
1011.0,0.2689
1012.0,0.266
1013.0,0.2684
1014.0,0.2665
1015.0,0.2647
1016.0,0.2634
1017.0,0.264
1018.0,0.2634
1019.0,0.2566
1020.0,0.2618
1021.0,0.2617
1022.0,0.2592
1023.0,0.2619
1024.0,0.2572
1025.0,0.2621
1026.0,0.2606
1027.0,0.2601
1028.0,0.2595
1029.0,0.2563
1030.0,0.2585
1031.0,0.2573
1032.0,0.2567
1033.0,0.2528
1034.0,0.2528
1035.0,0.2536
1036.0,0.2548
1037.0,0.2507
1038.0,0.2518
1039.0,0.2515
1040.0,0.2505
1041.0,0.2514
1042.0,0.2496
1043.0,0.2488
1044.0,0.2496
1045.0,0.2461
1046.0,0.2433
1047.0,0.2454
1048.0,0.2467
1049.0,0.2457
1050.0,0.2444
1051.0,0.244
1052.0,0.2428
1053.0,0.2408
1054.0,0.2411
1055.0,0.2411
1056.0,0.24
1057.0,0.2391
1058.0,0.2331
1059.0,0.2331
1060.0,0.2327
1061.0,0.2323
1062.0,0.2333
1063.0,0.2309
1064.0,0.2337
1065.0,0.2315
1066.0,0.2273
1067.0,0.2301
1068.0,0.2247
1069.0,0.2181
1070.0,0.2252
1071.0,0.2297
1072.0,0.2263
1073.0,0.2232
1074.0,0.2302
1075.0,0.2154
1076.0,0.2298
1077.0,0.2239
1078.0,0.2188
1079.0,0.2267
1080.0,0.2205
1081.0,0.2118
1082.0,0.218
1083.0,0.2193
1084.0,0.2107
1085.0,0.2213
1086.0,0.1976
1087.0,0.2069
1088.0,0.2186
1089.0,0.2088
1090.0,0.2026
1091.0,0.2171
1092.0,0.2171
1093.0,0.1759
1094.0,0.1976
1095.0,0.1838
1096.0,0.1737
1097.0,0.2122
1098.0,0.1698
1099.0,0.1784
1100.0,0.1626
1101.0,0.1658
1102.0,0.1561
1103.0,0.153
1104.0,0.1534
1105.0,0.1737
1106.0,0.1198
1107.0,0.1624
1108.0,0.13
1109.0,0.1316
1110.0,0.1596
1111.0,0.09804
1112.0,0.1311
1113.0,0.07354
1114.0,0.08278
1115.0,0.06797
1116.0,0.04892
1117.0,0.01313
1118.0,0.05465
1119.0,0.02277
1120.0,0.0281
1121.0,0.03964
1122.0,0.01326
1123.0,0.02559
1124.0,0.02153
1125.0,0.02917
1126.0,0.006967
1127.0,0.03322
1128.0,0.01619
1129.0,0.01756
1130.0,0.0107
1131.0,0.07306
1132.0,0.05534
1133.0,0.02967
1134.0,0.005261
1135.0,0.002126
1136.0,0.02295
1137.0,0.06967
1138.0,0.04812
1139.0,0.08355
1140.0,0.06527
1141.0,0.04586
1142.0,0.05493
1143.0,0.08311
1144.0,0.02385
1145.0,0.02864
1146.0,0.03083
1147.0,0.007699
1148.0,0.07136
1149.0,0.05367
1150.0,0.0266
1151.0,0.04773
1152.0,0.06273
1153.0,0.0643
1154.0,0.02783
1155.0,0.08698
1156.0,0.07591
1157.0,0.08984
1158.0,0.0887
1159.0,0.09839
1160.0,0.08164
1161.0,0.1073
1162.0,0.1071
1163.0,0.1568
1164.0,0.1302
1165.0,0.1185
1166.0,0.1211
1167.0,0.134
1168.0,0.1345
1169.0,0.1389
1170.0,0.1546
1171.0,0.1506
1172.0,0.1557
1173.0,0.1544
1174.0,0.1018
1175.0,0.1529
1176.0,0.173
1177.0,0.1627
1178.0,0.1158
1179.0,0.1745
1180.0,0.1504
1181.0,0.1555
1182.0,0.1001
1183.0,0.1542
1184.0,0.1421
1185.0,0.1349
1186.0,0.1673
1187.0,0.157
1188.0,0.1006
1189.0,0.1459
1190.0,0.1639
1191.0,0.1511
1192.0,0.1667
1193.0,0.1582
1194.0,0.1641
1195.0,0.152
1196.0,0.1447
1197.0,0.1655
1198.0,0.1498
1199.0,0.121
1200.0,0.156
1201.0,0.1482
1202.0,0.1492
1203.0,0.1469
1204.0,0.1256
1205.0,0.1545
1206.0,0.1739
1207.0,0.1479
1208.0,0.1475
1209.0,0.151
1210.0,0.1587
1211.0,0.1488
1212.0,0.1436
1213.0,0.1665
1214.0,0.1484
1215.0,0.1451
1216.0,0.1663
1217.0,0.1607
1218.0,0.1648
1219.0,0.1621
1220.0,0.1651
1221.0,0.1675
1222.0,0.1626
1223.0,0.1605
1224.0,0.1583
1225.0,0.1662
1226.0,0.1683
1227.0,0.1519
1228.0,0.1699
1229.0,0.1683
1230.0,0.1648
1231.0,0.1717
1232.0,0.1706
1233.0,0.1618
1234.0,0.1722
1235.0,0.1706
1236.0,0.1722
1237.0,0.1686
1238.0,0.1717
1239.0,0.1694
1240.0,0.1702
1241.0,0.1687
1242.0,0.169
1243.0,0.1676
1244.0,0.1686
1245.0,0.1694
1246.0,0.1685
1247.0,0.1676
1248.0,0.1672
1249.0,0.168
1250.0,0.1668
1251.0,0.1642
1252.0,0.1648
1253.0,0.1624
1254.0,0.16
1255.0,0.1643
1256.0,0.1578
1257.0,0.1566
1258.0,0.161
1259.0,0.1523
1260.0,0.1534
1261.0,0.1412
1262.0,0.1351
1263.0,0.1353
1264.0,0.1207
1265.0,0.1345
1266.0,0.1269
1267.0,0.1309
1268.0,0.1214
1269.0,0.05941
1270.0,0.1297
1271.0,0.1412
1272.0,0.1421
1273.0,0.1401
1274.0,0.1411
1275.0,0.1438
1276.0,0.146
1277.0,0.1478
1278.0,0.1521
1279.0,0.1506
1280.0,0.1488
1281.0,0.1427
1282.0,0.1386
1283.0,0.149
1284.0,0.1524
1285.0,0.1536
1286.0,0.1563
1287.0,0.1527
1288.0,0.153
1289.0,0.1459
1290.0,0.1518
1291.0,0.1543
1292.0,0.1409
1293.0,0.1504
1294.0,0.1491
1295.0,0.1471
1296.0,0.1379
1297.0,0.1286
1298.0,0.1424
1299.0,0.1509
1300.0,0.1212
1301.0,0.1261
1302.0,0.1421
1303.0,0.1203
1304.0,0.09671
1305.0,0.1388
1306.0,0.1382
1307.0,0.101
1308.0,0.1216
1309.0,0.1363
1310.0,0.09859
1311.0,0.1152
1312.0,0.1111
1313.0,0.1077
1314.0,0.09429
1315.0,0.09171
1316.0,0.1122
1317.0,0.1055
1318.0,0.1172
1319.0,0.08452
1320.0,0.08335
1321.0,0.09954
1322.0,0.09923
1323.0,0.06899
1324.0,0.08317
1325.0,0.1099
1326.0,0.09078
1327.0,0.08558
1328.0,0.07185
1329.0,0.04906
1330.0,0.0664
1331.0,0.03481
1332.0,0.03753
1333.0,0.05326
1334.0,0.04842
1335.0,0.06835
1336.0,0.05104
1337.0,0.04414
1338.0,0.04749
1339.0,0.04803
1340.0,0.04828
1341.0,0.04347
1342.0,0.0461
1343.0,0.02521
1344.0,0.01566
1345.0,0.02233
1346.0,0.008044
1347.0,0.007673
1348.0,0.0002507
1349.0,0.001067
1350.0,0.00125
1351.0,0.0001611
1352.0,1.949e-05
1353.0,5.306e-07
1354.0,2.97e-06
1355.0,5.927e-09
1356.0,2.537e-07
1357.0,3.858e-07
1358.0,7.379e-09
1359.0,4.009e-10
1360.0,2.402e-09
1361.0,9.602e-13
1362.0,2.398e-15
1363.0,2.238e-09
1364.0,9.896e-10
1365.0,7.968e-16
1366.0,1.189e-08
1367.0,6.428e-09
1368.0,6.075e-18
1369.0,3.644e-10
1370.0,1.345e-10
1371.0,6.154e-12
1372.0,3.638e-09
1373.0,1.381e-07
1374.0,1.064e-06
1375.0,1.704e-06
1376.0,2.766e-06
1377.0,1.151e-06
1378.0,1.261e-05
1379.0,4.926e-07
1380.0,4.817e-07
1381.0,1.034e-08
1382.0,2.886e-09
1383.0,3.488e-11
1384.0,3.513e-10
1385.0,4.589e-09
1386.0,1.939e-09
1387.0,7.174e-07
1388.0,1.798e-08
1389.0,4.702e-06
1390.0,3.814e-06
1391.0,2.425e-06
1392.0,1.492e-07
1393.0,1.018e-06
1394.0,2.051e-07
1395.0,1.027e-09
1396.0,1.362e-12
1397.0,3.322e-07
1398.0,1.291e-05
1399.0,8.563e-06
1400.0,5.174e-13
1401.0,2.575e-12
1402.0,5.716e-05
1403.0,5.983e-05
1404.0,1.665e-05
1405.0,3.51e-10
1406.0,3.182e-05
1407.0,4.089e-06
1408.0,2.774e-05
1409.0,5.876e-06
1410.0,7.138e-06
1411.0,5.474e-05
1412.0,9.253e-05
1413.0,0.001667
1414.0,6.061e-06
1415.0,2.394e-06
1416.0,0.004245
1417.0,0.0008949
1418.0,0.0008661
1419.0,0.0001236
1420.0,0.0005223
1421.0,0.0006305
1422.0,0.005567
1423.0,0.0009994
1424.0,0.002031
1425.0,0.002677
1426.0,0.003678
1427.0,0.008075
1428.0,0.000218
1429.0,0.005252
1430.0,0.01111
1431.0,0.01275
