interpolation:linear
wavelength,value
280.0,8.090999999999999e-23
280.5,2.704e-21
281.0,1.46e-20
281.5,4.716e-19
282.0,5.191e-19
282.5,1.244e-18
283.0,3.886e-18
283.5,6.321e-18
284.0,1.041e-16
284.5,3.05e-16
285.0,5.923e-16
285.5,2.775e-15
286.0,1.108e-14
286.5,4.92e-14
287.0,1.407e-13
287.5,5.415e-13
288.0,1.876e-12
288.5,5.425e-12
289.0,1.409e-11
289.5,4.189e-11
290.0,1.156e-10
290.5,2.353e-10
291.0,5.049e-10
291.5,1.451e-09
292.0,2.95e-09
292.5,4.113e-09
293.0,8.758e-09
293.5,2.113e-08
294.0,3.294e-08
294.5,4.258e-08
295.0,7.178e-08
295.5,1.219e-07
296.0,2.31e-07
296.5,3.169e-07
297.0,4.213e-07
297.5,1.099e-06
298.0,1.685e-06
298.5,1.657e-06
299.0,3.568e-06
299.5,5.661e-06
300.0,6.052e-06
300.5,8.5e-06
301.0,1.458e-05
301.5,2.204e-05
302.0,1.831e-05
302.5,3.534e-05
303.0,6.295e-05
303.5,7.955e-05
304.0,7.652e-05
304.5,0.0001219
305.0,0.0002038
305.5,0.000249
306.0,0.0002471
306.5,0.0003212
307.0,0.0005256
307.5,0.00077
308.0,0.0008259
308.5,0.001024
309.0,0.001206
309.5,0.001645
310.0,0.001791
310.5,0.003018
311.0,0.004045
311.5,0.004017
312.0,0.00463
312.5,0.006189
313.0,0.00705
313.5,0.006537
314.0,0.009148
314.5,0.009418
315.0,0.01271
315.5,0.009882
316.0,0.009741
316.5,0.01553
317.0,0.01923
317.5,0.01942
318.0,0.01627
318.5,0.02315
319.0,0.02942
319.5,0.02146
320.0,0.0255
320.5,0.03668
321.0,0.03702
321.5,0.03594
322.0,0.03347
322.5,0.02931
323.0,0.03187
323.5,0.04363
324.0,0.0517
324.5,0.05048
325.0,0.04069
325.5,0.05619
326.0,0.07208
326.5,0.07582
327.0,0.0742
327.5,0.07002
328.0,0.05835
328.5,0.06643
329.0,0.08469
329.5,0.09798
330.0,0.09733
330.5,0.07421
331.0,0.07438
331.5,0.07838
332.0,0.0892
332.5,0.09034
333.0,0.08886
333.5,0.0774
334.0,0.07881
334.5,0.095
335.0,0.09156
335.5,0.108
336.0,0.07477
336.5,0.08563
337.0,0.06899
337.5,0.08525
338.0,0.08629
338.5,0.1011
339.0,0.1003
339.5,0.09637
340.0,0.1118
340.5,0.1011
341.0,0.09976
341.5,0.09202
342.0,0.1101
342.5,0.1032
343.0,0.1132
343.5,0.1065
344.0,0.07781
344.5,0.07928
345.0,0.1055
345.5,0.108
346.0,0.09197
346.5,0.1043
347.0,0.1117
347.5,0.09032
348.0,0.1033
348.5,0.1035
349.0,0.09614
349.5,0.09522
350.0,0.1179
350.5,0.1244
351.0,0.111
351.5,0.1075
352.0,0.1158
352.5,0.09062
353.0,0.1144
353.5,0.1224
354.0,0.1272
354.5,0.1291
355.0,0.1286
355.5,0.1164
356.0,0.1219
356.5,0.1041
357.0,0.08604
357.5,0.1054
358.0,0.08359
358.5,0.07147
359.0,0.09998
359.5,0.1273
360.0,0.1351
360.5,0.1081
361.0,0.09864
361.5,0.1137
362.0,0.09851
362.5,0.1365
363.0,0.1227
363.5,0.1132
364.0,0.1385
364.5,0.1185
365.0,0.1208
365.5,0.1517
366.0,0.1609
366.5,0.1513
367.0,0.1475
367.5,0.1532
368.0,0.1341
368.5,0.1354
369.0,0.1464
369.5,0.1562
370.0,0.1666
370.5,0.1295
371.0,0.1384
371.5,0.1733
372.0,0.1151
372.5,0.1381
373.0,0.1407
373.5,0.0916
374.0,0.1332
374.5,0.1104
375.0,0.1074
375.5,0.1605
376.0,0.1331
376.5,0.138
377.0,0.1463
377.5,0.1713
378.0,0.1858
378.5,0.1757
379.0,0.145
379.5,0.1325
380.0,0.1379
380.5,0.1672
381.0,0.1678
381.5,0.1332
382.0,0.1184
382.5,0.1011
383.0,0.09367
383.5,0.09031
384.0,0.09971
384.5,0.1468
385.0,0.1457
385.5,0.1359
386.0,0.1165
386.5,0.1532
387.0,0.1274
387.5,0.1432
388.0,0.1323
388.5,0.1309
389.0,0.1414
389.5,0.1715
390.0,0.1722
390.5,0.1587
391.0,0.1869
391.5,0.1908
392.0,0.1608
392.5,0.1442
393.0,0.0803
393.5,0.05843
394.0,0.119
394.5,0.1515
395.0,0.185
395.5,0.188
396.0,0.1631
396.5,0.0955
397.0,0.07175
397.5,0.146
398.0,0.2046
398.5,0.2116
399.0,0.2295
399.5,0.229
400.0,0.2378
401.0,0.2387
402.0,0.2524
403.0,0.2403
404.0,0.237
405.0,0.2373
406.0,0.234
407.0,0.2307
408.0,0.2399
409.0,0.2572
410.0,0.2252
411.0,0.2444
412.0,0.2631
413.0,0.2569
414.0,0.2605
415.0,0.2617
416.0,0.2669
417.0,0.2607
418.0,0.2562
419.0,0.2601
420.0,0.2593
421.0,0.2717
422.0,0.2586
423.0,0.253
424.0,0.2678
425.0,0.2678
426.0,0.2615
427.0,0.257
428.0,0.2507
429.0,0.2381
430.0,0.2087
431.0,0.207
432.0,0.2678
433.0,0.2697
434.0,0.2506
435.0,0.2619
436.0,0.2959
437.0,0.2926
438.0,0.2669
439.0,0.2756
440.0,0.2848
441.0,0.2957
442.0,0.3175
443.0,0.3091
444.0,0.3165
445.0,0.3098
446.0,0.2965
447.0,0.3214
448.0,0.3262
449.0,0.3284
450.0,0.3381
451.0,0.3511
452.0,0.3387
453.0,0.319
454.0,0.3338
455.0,0.3359
456.0,0.3443
457.0,0.3501
458.0,0.3378
459.0,0.3363
460.0,0.3371
461.0,0.345
462.0,0.3484
463.0,0.3461
464.0,0.3414
465.0,0.3381
466.0,0.3421
467.0,0.3357
468.0,0.3398
469.0,0.3416
470.0,0.3307
471.0,0.3305
472.0,0.3483
473.0,0.3439
474.0,0.3439
475.0,0.3462
476.0,0.3349
477.0,0.3352
478.0,0.3447
479.0,0.3431
480.0,0.3443
481.0,0.3515
482.0,0.3542
483.0,0.3509
484.0,0.3444
485.0,0.3288
486.0,0.2882
487.0,0.3026
488.0,0.3321
489.0,0.3329
490.0,0.3507
491.0,0.3451
492.0,0.3261
493.0,0.337
494.0,0.3405
495.0,0.3437
496.0,0.3459
497.0,0.3512
498.0,0.3347
499.0,0.3386
500.0,0.3282
501.0,0.3215
502.0,0.3158
503.0,0.3274
504.0,0.3157
505.0,0.3297
506.0,0.3403
507.0,0.324
508.0,0.315
509.0,0.3247
510.0,0.3238
511.0,0.3332
512.0,0.3372
513.0,0.3193
514.0,0.3174
515.0,0.3142
516.0,0.3133
517.0,0.2786
518.0,0.2928
519.0,0.3071
520.0,0.3181
521.0,0.321
522.0,0.3209
523.0,0.3149
524.0,0.3255
525.0,0.3283
526.0,0.3133
527.0,0.2945
528.0,0.3108
529.0,0.3271
530.0,0.322
531.0,0.3264
532.0,0.315
533.0,0.3058
534.0,0.3151
535.0,0.3225
536.0,0.3258
537.0,0.3134
538.0,0.3191
539.0,0.3164
540.0,0.3031
541.0,0.304
542.0,0.313
543.0,0.3105
544.0,0.315
545.0,0.3142
546.0,0.3147
547.0,0.3154
548.0,0.312
549.0,0.3132
550.0,0.317
551.0,0.3133
552.0,0.3155
553.0,0.3097
554.0,0.317
555.0,0.3173
556.0,0.313
557.0,0.303
558.0,0.3001
559.0,0.2939
560.0,0.2972
561.0,0.3004
562.0,0.2976
563.0,0.3049
564.0,0.2959
565.0,0.2928
566.0,0.288
567.0,0.2927
568.0,0.2882
569.0,0.2779
570.0,0.2782
571.0,0.2774
572.0,0.2817
573.0,0.2843
574.0,0.2828
575.0,0.2767
576.0,0.2742
577.0,0.2776
578.0,0.2744
579.0,0.2772
580.0,0.2851
581.0,0.2886
582.0,0.2958
583.0,0.298
584.0,0.3016
585.0,0.2948
586.0,0.2888
587.0,0.2941
588.0,0.2826
589.0,0.2421
590.0,0.2537
591.0,0.2736
592.0,0.2671
593.0,0.2749
594.0,0.2715
595.0,0.2614
596.0,0.2788
597.0,0.2738
598.0,0.2753
599.0,0.2764
600.0,0.2786
601.0,0.2776
602.0,0.276
603.0,0.2813
604.0,0.2863
605.0,0.2853
606.0,0.2849
607.0,0.2886
608.0,0.2862
609.0,0.2874
610.0,0.2861
611.0,0.2881
612.0,0.2878
613.0,0.2846
614.0,0.2814
615.0,0.2882
616.0,0.2793
617.0,0.2792
618.0,0.2903
619.0,0.2876
620.0,0.2895
621.0,0.2892
622.0,0.2854
623.0,0.2807
624.0,0.2763
625.0,0.2756
626.0,0.2795
627.0,0.2808
628.0,0.242
629.0,0.267
630.0,0.2601
631.0,0.2729
632.0,0.271
633.0,0.2822
634.0,0.2818
635.0,0.2874
636.0,0.2849
637.0,0.2906
638.0,0.295
639.0,0.2926
640.0,0.2908
641.0,0.2914
642.0,0.291
643.0,0.295
644.0,0.295
645.0,0.295
646.0,0.2856
647.0,0.2764
648.0,0.2773
649.0,0.2709
650.0,0.2797
651.0,0.2931
652.0,0.2739
653.0,0.2898
654.0,0.2871
655.0,0.2728
656.0,0.2443
657.0,0.2514
658.0,0.2842
659.0,0.2871
660.0,0.289
661.0,0.2914
662.0,0.2908
663.0,0.2855
664.0,0.2909
665.0,0.2927
666.0,0.2936
667.0,0.2941
668.0,0.2951
669.0,0.3002
670.0,0.2993
671.0,0.2997
672.0,0.2974
673.0,0.3023
674.0,0.3015
675.0,0.2992
676.0,0.3016
677.0,0.2989
678.0,0.3
679.0,0.2955
680.0,0.298
681.0,0.2962
682.0,0.2959
683.0,0.2954
684.0,0.2939
685.0,0.2968
686.0,0.2946
687.0,0.1162
688.0,0.1673
689.0,0.1691
690.0,0.1898
691.0,0.215
692.0,0.2361
693.0,0.2337
694.0,0.2346
695.0,0.2551
696.0,0.2563
697.0,0.284
698.0,0.2794
699.0,0.2642
700.0,0.2605
701.0,0.2542
702.0,0.2594
703.0,0.261
704.0,0.2745
705.0,0.2748
706.0,0.2764
707.0,0.2775
708.0,0.2778
709.0,0.2819
710.0,0.2799
711.0,0.2809
712.0,0.2818
713.0,0.2772
714.0,0.2789
715.0,0.2664
716.0,0.2657
717.0,0.2004
718.0,0.1822
719.0,0.1647
720.0,0.1692
721.0,0.2031
722.0,0.2506
723.0,0.2245
724.0,0.1911
725.0,0.1849
726.0,0.1942
727.0,0.2045
728.0,0.1832
729.0,0.2002
730.0,0.2087
731.0,0.1982
732.0,0.2232
733.0,0.2459
734.0,0.2553
735.0,0.2481
736.0,0.247
737.0,0.2483
738.0,0.2607
739.0,0.2559
740.0,0.2651
741.0,0.2639
742.0,0.2658
743.0,0.2731
744.0,0.2733
745.0,0.2743
746.0,0.2755
747.0,0.2764
748.0,0.2759
749.0,0.2728
750.0,0.2728
751.0,0.27
752.0,0.2713
753.0,0.2728
754.0,0.2735
755.0,0.2719
756.0,0.2719
757.0,0.2722
758.0,0.2686
759.0,0.2573
760.0,0.005851
761.0,0.002071
762.0,0.05748
763.0,0.01296
764.0,0.03028
765.0,0.05726
766.0,0.09566
767.0,0.156
768.0,0.2162
769.0,0.23
770.0,0.2486
771.0,0.2556
772.0,0.2577
773.0,0.2599
774.0,0.259
775.0,0.2573
776.0,0.2606
777.0,0.2572
778.0,0.2556
779.0,0.2558
780.0,0.2545
781.0,0.2548
782.0,0.2565
783.0,0.2522
784.0,0.2536
785.0,0.2513
786.0,0.2537
787.0,0.2449
788.0,0.2399
789.0,0.2398
790.0,0.2279
791.0,0.2355
792.0,0.2347
793.0,0.2303
794.0,0.2398
795.0,0.2423
796.0,0.2269
797.0,0.2263
798.0,0.241
799.0,0.2381
800.0,0.2321
801.0,0.2293
802.0,0.2284
803.0,0.2256
804.0,0.2269
805.0,0.2286
806.0,0.2392
807.0,0.2355
808.0,0.2359
809.0,0.2283
810.0,0.2247
811.0,0.2216
812.0,0.2089
813.0,0.203
814.0,0.1652
815.0,0.1655
816.0,0.1519
817.0,0.1551
818.0,0.1463
819.0,0.1747
820.0,0.1609
821.0,0.2058
822.0,0.1971
823.0,0.1086
824.0,0.1843
825.0,0.2027
826.0,0.1888
827.0,0.2053
828.0,0.1568
829.0,0.1889
830.0,0.1854
831.0,0.1859
832.0,0.177
833.0,0.196
834.0,0.1842
835.0,0.2155
836.0,0.1967
837.0,0.216
838.0,0.2046
839.0,0.2129
840.0,0.2187
841.0,0.2136
842.0,0.2172
843.0,0.2204
844.0,0.2157
845.0,0.2252
846.0,0.2248
847.0,0.2216
848.0,0.2188
849.0,0.2126
850.0,0.2038
851.0,0.2142
852.0,0.2135
853.0,0.2067
854.0,0.1774
855.0,0.1964
856.0,0.214
857.0,0.2198
858.0,0.2177
859.0,0.2186
860.0,0.2194
861.0,0.2181
862.0,0.2218
863.0,0.227
864.0,0.2157
865.0,0.214
866.0,0.1924
867.0,0.2008
868.0,0.2186
869.0,0.2141
870.0,0.2203
871.0,0.2173
872.0,0.2166
873.0,0.2162
874.0,0.2136
875.0,0.2093
876.0,0.2113
877.0,0.2136
878.0,0.2156
879.0,0.2124
880.0,0.2079
881.0,0.204
882.0,0.2081
883.0,0.2096
884.0,0.2083
885.0,0.2098
886.0,0.1974
887.0,0.2015
888.0,0.2035
889.0,0.2078
890.0,0.2034
891.0,0.2044
892.0,0.195
893.0,0.1859
894.0,0.1721
895.0,0.154
896.0,0.1431
897.0,0.1138
898.0,0.1282
899.0,0.08774
900.0,0.1372
901.0,0.09195
902.0,0.1204
903.0,0.1168
904.0,0.1703
905.0,0.1618
906.0,0.1486
907.0,0.1052
908.0,0.1108
909.0,0.1252
910.0,0.1003
911.0,0.1159
912.0,0.1207
913.0,0.1012
914.0,0.1027
915.0,0.1098
916.0,0.09193
917.0,0.1268
918.0,0.09319
919.0,0.1331
920.0,0.1437
921.0,0.1482
922.0,0.1247
923.0,0.1443
924.0,0.1249
925.0,0.1229
926.0,0.1224
927.0,0.1446
928.0,0.08402
929.0,0.07131
930.0,0.04734
931.0,0.04435
932.0,0.0246
933.0,0.01734
934.0,0.005034
935.0,0.01965
936.0,0.008953
937.0,0.009057
938.0,0.01218
939.0,0.04272
940.0,0.05756
941.0,0.0361
942.0,0.04509
943.0,0.02447
944.0,0.0312
945.0,0.03888
946.0,0.01328
947.0,0.03718
948.0,0.02677
949.0,0.05721
950.0,0.007711
951.0,0.05669
952.0,0.02239
953.0,0.03418
954.0,0.04823
955.0,0.03536
956.0,0.04262
957.0,0.0222
958.0,0.06656
959.0,0.04387
960.0,0.04933
961.0,0.06257
962.0,0.0591
963.0,0.0748
964.0,0.06673
965.0,0.07375
966.0,0.07362
967.0,0.07206
968.0,0.1256
969.0,0.1259
970.0,0.1136
971.0,0.1431
972.0,0.1336
973.0,0.1034
974.0,0.0976
975.0,0.1048
976.0,0.09209
977.0,0.121
978.0,0.1082
979.0,0.1166
980.0,0.1081
981.0,0.1425
982.0,0.1315
983.0,0.1237
984.0,0.1534
985.0,0.1305
986.0,0.1604
987.0,0.1532
988.0,0.1533
989.0,0.1627
990.0,0.1522
991.0,0.1627
992.0,0.1641
993.0,0.1562
994.0,0.1647
995.0,0.1652
996.0,0.1637
997.0,0.1643
998.0,0.1632
999.0,0.1629
1000.0,0.1605
1001.0,0.1639
1002.0,0.1544
1003.0,0.1607
1004.0,0.1554
1005.0,0.1515
1006.0,0.1566
1007.0,0.1603
1008.0,0.1586
1009.0,0.1568
1010.0,0.1556
1011.0,0.1596
1012.0,0.1574
1013.0,0.1596
1014.0,0.1584
1015.0,0.1572
1016.0,0.1564
1017.0,0.1566
1018.0,0.1567
1019.0,0.1514
1020.0,0.1555
1021.0,0.1557
1022.0,0.1537
1023.0,0.1553
1024.0,0.1513
1025.0,0.1558
1026.0,0.1546
1027.0,0.1544
1028.0,0.1539
1029.0,0.1519
1030.0,0.1536
1031.0,0.1527
1032.0,0.1525
1033.0,0.1502
1034.0,0.1503
1035.0,0.1507
1036.0,0.1513
1037.0,0.1489
1038.0,0.1495
1039.0,0.1493
1040.0,0.1486
1041.0,0.149
1042.0,0.148
1043.0,0.1474
1044.0,0.1478
1045.0,0.1457
1046.0,0.1439
1047.0,0.1451
1048.0,0.1457
1049.0,0.145
1050.0,0.1442
1051.0,0.1438
1052.0,0.143
1053.0,0.1416
1054.0,0.1417
1055.0,0.1414
1056.0,0.1406
1057.0,0.1399
1058.0,0.1362
1059.0,0.136
1060.0,0.1356
1061.0,0.1353
1062.0,0.1357
1063.0,0.1341
1064.0,0.1358
1065.0,0.1341
1066.0,0.132
1067.0,0.1335
1068.0,0.1301
1069.0,0.1265
1070.0,0.1304
1071.0,0.134
1072.0,0.1312
1073.0,0.1296
1074.0,0.1349
1075.0,0.1238
1076.0,0.1345
1077.0,0.1297
1078.0,0.1259
1079.0,0.1332
1080.0,0.1277
1081.0,0.1212
1082.0,0.1271
1083.0,0.1286
1084.0,0.1201
1085.0,0.1283
1086.0,0.1114
1087.0,0.1186
1088.0,0.1278
1089.0,0.1191
1090.0,0.1147
1091.0,0.1262
1092.0,0.1266
1093.0,0.09627
1094.0,0.1144
1095.0,0.1004
1096.0,0.09333
1097.0,0.1237
1098.0,0.09001
1099.0,0.09537
1100.0,0.08483
1101.0,0.08754
1102.0,0.08055
1103.0,0.07767
1104.0,0.07816
1105.0,0.09216
1106.0,0.05493
1107.0,0.08481
1108.0,0.06258
1109.0,0.06378
1110.0,0.08151
1111.0,0.0429
1112.0,0.0638
1113.0,0.02967
1114.0,0.03331
1115.0,0.02655
1116.0,0.01638
1117.0,0.002853
1118.0,0.01863
1119.0,0.005935
1120.0,0.006928
1121.0,0.01059
1122.0,0.002402
1123.0,0.00635
1124.0,0.005317
1125.0,0.007742
1126.0,0.0009729
1127.0,0.008909
1128.0,0.003108
1129.0,0.003442
1130.0,0.002105
1131.0,0.02494
1132.0,0.01777
1133.0,0.007252
1134.0,0.0007309
1135.0,0.0003418
1136.0,0.004908
1137.0,0.02288
1138.0,0.01509
1139.0,0.03358
1140.0,0.02365
1141.0,0.01451
1142.0,0.01844
1143.0,0.03143
1144.0,0.006657
1145.0,0.006895
1146.0,0.007409
1147.0,0.001055
1148.0,0.02614
1149.0,0.01798
1150.0,0.008258
1151.0,0.01502
1152.0,0.02191
1153.0,0.02431
1154.0,0.007266
1155.0,0.03496
1156.0,0.02904
1157.0,0.03848
1158.0,0.03785
1159.0,0.04299
1160.0,0.03547
1161.0,0.05092
1162.0,0.05025
1163.0,0.0827
1164.0,0.06575
1165.0,0.05691
1166.0,0.06103
1167.0,0.06891
1168.0,0.06874
1169.0,0.07153
1170.0,0.08251
1171.0,0.08044
1172.0,0.08535
1173.0,0.08244
1174.0,0.04893
1175.0,0.08385
1176.0,0.09911
1177.0,0.09029
1178.0,0.05994
1179.0,0.09979
1180.0,0.08166
1181.0,0.08446
1182.0,0.04902
1183.0,0.08459
1184.0,0.076
1185.0,0.07037
1186.0,0.09352
1187.0,0.08572
1188.0,0.04792
1189.0,0.07944
1190.0,0.09233
1191.0,0.08077
1192.0,0.0943
1193.0,0.08799
1194.0,0.09229
1195.0,0.08261
1196.0,0.07716
1197.0,0.09399
1198.0,0.08436
1199.0,0.0625
1200.0,0.08696
1201.0,0.08024
1202.0,0.08316
1203.0,0.08011
1204.0,0.06658
1205.0,0.08746
1206.0,0.1011
1207.0,0.08141
1208.0,0.08299
1209.0,0.08497
1210.0,0.09077
1211.0,0.08333
1212.0,0.07661
1213.0,0.09491
1214.0,0.08038
1215.0,0.07852
1216.0,0.09539
1217.0,0.09112
1218.0,0.09442
1219.0,0.09203
1220.0,0.09473
1221.0,0.09702
1222.0,0.0937
1223.0,0.09194
1224.0,0.08919
1225.0,0.09586
1226.0,0.09816
1227.0,0.08527
1228.0,0.09966
1229.0,0.09821
1230.0,0.09555
1231.0,0.1016
1232.0,0.1008
1233.0,0.09295
1234.0,0.1025
1235.0,0.1011
1236.0,0.1025
1237.0,0.09937
1238.0,0.1021
1239.0,0.1008
1240.0,0.1014
1241.0,0.09971
1242.0,0.1006
1243.0,0.09984
1244.0,0.1002
1245.0,0.1008
1246.0,0.1003
1247.0,0.09953
1248.0,0.09883
1249.0,0.09971
1250.0,0.09872
1251.0,0.09666
1252.0,0.09768
1253.0,0.09509
1254.0,0.09282
1255.0,0.09711
1256.0,0.09109
1257.0,0.08993
1258.0,0.09421
1259.0,0.08583
1260.0,0.08688
1261.0,0.07611
1262.0,0.07088
1263.0,0.07087
1264.0,0.0591
1265.0,0.07051
1266.0,0.06403
1267.0,0.0678
1268.0,0.06016
1269.0,0.01856
1270.0,0.06651
1271.0,0.07669
1272.0,0.07747
1273.0,0.07599
1274.0,0.07715
1275.0,0.0793
1276.0,0.08127
1277.0,0.08343
1278.0,0.08732
1279.0,0.08653
1280.0,0.08551
1281.0,0.08273
1282.0,0.0816
1283.0,0.08749
1284.0,0.08926
1285.0,0.09018
1286.0,0.09241
1287.0,0.08909
1288.0,0.08973
1289.0,0.08312
1290.0,0.08908
1291.0,0.09103
1292.0,0.07897
1293.0,0.08778
1294.0,0.08692
1295.0,0.08408
1296.0,0.07651
1297.0,0.06983
1298.0,0.08099
1299.0,0.08843
1300.0,0.0655
1301.0,0.06889
1302.0,0.08102
1303.0,0.06538
1304.0,0.04787
1305.0,0.07891
1306.0,0.07772
1307.0,0.05173
1308.0,0.06687
1309.0,0.07544
1310.0,0.04983
1311.0,0.06215
1312.0,0.05966
1313.0,0.05605
1314.0,0.04712
1315.0,0.04498
1316.0,0.0596
1317.0,0.0551
1318.0,0.06348
1319.0,0.04026
1320.0,0.04053
1321.0,0.05073
1322.0,0.04936
1323.0,0.02996
1324.0,0.03995
1325.0,0.05731
1326.0,0.04474
1327.0,0.04127
1328.0,0.03289
1329.0,0.01895
1330.0,0.02796
1331.0,0.01149
1332.0,0.01308
1333.0,0.0192
1334.0,0.02029
1335.0,0.02894
1336.0,0.01949
1337.0,0.01681
1338.0,0.01771
1339.0,0.0182
1340.0,0.01935
1341.0,0.01492
1342.0,0.0163
1343.0,0.006327
1344.0,0.004218
1345.0,0.005501
1346.0,0.001159
1347.0,0.0009708
1348.0,1.477e-05
1349.0,6.748e-05
1350.0,8.187e-05
1351.0,6.793e-06
1352.0,1.026e-06
1353.0,4.983e-08
1354.0,1.8e-07
1355.0,1.359e-09
1356.0,2.416e-08
1357.0,3.666e-08
1358.0,1.596e-09
1359.0,2.009e-10
1360.0,7.261e-10
1361.0,8.119e-13
1362.0,2.221e-15
1363.0,9.76e-10
1364.0,4.03e-10
1365.0,7.754e-16
1366.0,4.23e-09
1367.0,1.727e-09
1368.0,5.988e-18
1369.0,1.485e-10
1370.0,7.312e-11
1371.0,4.145e-12
1372.0,9.368e-10
1373.0,1.894e-08
1374.0,8.905e-08
1375.0,1.599e-07
1376.0,1.54e-07
1377.0,6.943e-08
1378.0,6.706e-07
1379.0,2.94e-08
1380.0,3.986e-08
1381.0,1.035e-09
1382.0,8.209e-10
1383.0,1.227e-11
1384.0,1.609e-10
1385.0,7.714e-10
1386.0,7.236e-10
1387.0,8.777e-08
1388.0,1.752e-09
1389.0,3.047e-07
1390.0,2.589e-07
1391.0,1.728e-07
1392.0,1.13e-08
1393.0,6.142e-08
1394.0,2.991e-08
1395.0,2.19e-10
1396.0,1.057e-12
1397.0,2.363e-08
1398.0,7.018e-07
1399.0,4.482e-07
1400.0,4.52e-13
1401.0,1.875e-12
1402.0,2.326e-06
1403.0,2.229e-06
1404.0,5.98e-07
1405.0,1.036e-10
1406.0,1.297e-06
1407.0,1.747e-07
1408.0,1.085e-06
1409.0,3.265e-07
1410.0,3.041e-07
1411.0,2.043e-06
1412.0,3.778e-06
1413.0,9.26e-05
1414.0,2.509e-07
1415.0,1.095e-07
1416.0,0.0005001
