interpolation:linear
wavelength,value
280.0,1.5319999999999999e-22
280.5,5.076e-21
281.0,2.7300000000000004e-20
281.5,3.953e-19
282.0,5.729e-19
282.5,1.411e-18
283.0,4.456e-18
283.5,7.259e-18
284.0,1.2e-16
284.5,3.511e-16
285.0,5.861e-16
285.5,2.902e-15
286.0,1.17e-14
286.5,5.27e-14
287.0,1.515e-13
287.5,5.853e-13
288.0,2.08e-12
288.5,6.15e-12
289.0,1.616e-11
289.5,4.839e-11
290.0,1.338e-10
290.5,2.724e-10
291.0,5.842e-10
291.5,1.677e-09
292.0,3.368e-09
292.5,4.718e-09
293.0,1.01e-08
293.5,2.453e-08
294.0,3.834e-08
294.5,5.187e-08
295.0,8.779e-08
295.5,1.452e-07
296.0,2.795e-07
296.5,3.898e-07
297.0,5.259e-07
297.5,1.404e-06
298.0,2.203e-06
298.5,2.207e-06
299.0,4.843e-06
299.5,7.967e-06
300.0,8.704e-06
300.5,1.251e-05
301.0,2.232e-05
301.5,3.5e-05
302.0,2.964e-05
302.5,5.926e-05
303.0,0.000109
303.5,0.0001405
304.0,0.0001363
304.5,0.0002221
305.0,0.0003826
305.5,0.0004761
306.0,0.0004759
306.5,0.0006258
307.0,0.00105
307.5,0.001574
308.0,0.001695
308.5,0.002126
309.0,0.002389
309.5,0.003134
310.0,0.003352
310.5,0.005599
311.0,0.007393
311.5,0.007295
312.0,0.008136
312.5,0.01064
313.0,0.01198
313.5,0.01123
314.0,0.0153
314.5,0.0152
315.0,0.02038
315.5,0.01614
316.0,0.01545
316.5,0.024
317.0,0.02975
317.5,0.03028
318.0,0.02492
318.5,0.03429
319.0,0.04284
319.5,0.03214
320.0,0.03835
320.5,0.05328
321.0,0.05212
321.5,0.05044
322.0,0.04861
322.5,0.04251
323.0,0.04521
323.5,0.05945
324.0,0.07015
324.5,0.06929
325.0,0.05754
325.5,0.07804
326.0,0.09758
326.5,0.1012
327.0,0.09961
327.5,0.09464
328.0,0.08041
328.5,0.08947
329.0,0.1121
329.5,0.129
330.0,0.1287
330.5,0.09952
331.0,0.1002
331.5,0.1046
332.0,0.1173
332.5,0.1181
333.0,0.1166
333.5,0.1027
334.0,0.1047
334.5,0.1247
335.0,0.1194
335.5,0.1403
336.0,0.0971
336.5,0.1121
337.0,0.0908
337.5,0.1124
338.0,0.1127
338.5,0.1312
339.0,0.1301
339.5,0.1251
340.0,0.146
340.5,0.132
341.0,0.1295
341.5,0.1193
342.0,0.1428
342.5,0.1338
343.0,0.1469
343.5,0.1382
344.0,0.1016
344.5,0.1031
345.0,0.1369
345.5,0.1401
346.0,0.1193
346.5,0.1352
347.0,0.145
347.5,0.1173
348.0,0.134
348.5,0.1342
349.0,0.1246
349.5,0.1235
350.0,0.1528
350.5,0.1613
351.0,0.144
351.5,0.1397
352.0,0.1504
352.5,0.1176
353.0,0.1483
353.5,0.1588
354.0,0.165
354.5,0.1674
355.0,0.1669
355.5,0.1509
356.0,0.158
356.5,0.135
357.0,0.1116
357.5,0.1367
358.0,0.1084
358.5,0.09269
359.0,0.1297
359.5,0.1652
360.0,0.1753
360.5,0.1402
361.0,0.128
361.5,0.1475
362.0,0.1278
362.5,0.177
363.0,0.1592
363.5,0.1468
364.0,0.1797
364.5,0.1537
365.0,0.1566
365.5,0.1967
366.0,0.2087
366.5,0.1963
367.0,0.1913
367.5,0.1986
368.0,0.174
368.5,0.1757
369.0,0.1899
369.5,0.2025
370.0,0.2161
370.5,0.1679
371.0,0.1795
371.5,0.2248
372.0,0.1493
372.5,0.1791
373.0,0.1824
373.5,0.1188
374.0,0.1727
374.5,0.1432
375.0,0.1393
375.5,0.208
376.0,0.1726
376.5,0.1789
377.0,0.1896
377.5,0.222
378.0,0.2408
378.5,0.2277
379.0,0.188
379.5,0.1718
380.0,0.1787
380.5,0.2167
381.0,0.2174
381.5,0.1725
382.0,0.1534
382.5,0.1309
383.0,0.1213
383.5,0.117
384.0,0.1291
384.5,0.1901
385.0,0.1887
385.5,0.1759
386.0,0.1508
386.5,0.1983
387.0,0.1649
387.5,0.1853
388.0,0.1712
388.5,0.1694
389.0,0.183
389.5,0.2219
390.0,0.2229
390.5,0.2053
391.0,0.2418
391.5,0.2468
392.0,0.208
392.5,0.1864
393.0,0.1038
393.5,0.07555
394.0,0.1539
394.5,0.1958
395.0,0.2391
395.5,0.243
396.0,0.2108
396.5,0.1234
397.0,0.09269
397.5,0.1887
398.0,0.2643
398.5,0.2734
399.0,0.2964
399.5,0.2957
400.0,0.3071
401.0,0.3091
402.0,0.3268
403.0,0.311
404.0,0.3066
405.0,0.307
406.0,0.3026
407.0,0.2983
408.0,0.3101
409.0,0.3324
410.0,0.2909
411.0,0.3156
412.0,0.3397
413.0,0.3316
414.0,0.3362
415.0,0.3377
416.0,0.3442
417.0,0.3361
418.0,0.3303
419.0,0.3352
420.0,0.3341
421.0,0.35
422.0,0.333
423.0,0.3257
424.0,0.3448
425.0,0.3446
426.0,0.3364
427.0,0.3305
428.0,0.3223
429.0,0.306
430.0,0.2682
431.0,0.2658
432.0,0.3439
433.0,0.3462
434.0,0.3217
435.0,0.3361
436.0,0.3795
437.0,0.3751
438.0,0.3421
439.0,0.3534
440.0,0.3651
441.0,0.3789
442.0,0.4067
443.0,0.396
444.0,0.4053
445.0,0.3967
446.0,0.3795
447.0,0.4111
448.0,0.4172
449.0,0.4199
450.0,0.4322
451.0,0.4486
452.0,0.4327
453.0,0.4074
454.0,0.426
455.0,0.4288
456.0,0.4393
457.0,0.4468
458.0,0.4312
459.0,0.4293
460.0,0.4303
461.0,0.4404
462.0,0.4445
463.0,0.4415
464.0,0.4352
465.0,0.4307
466.0,0.4356
467.0,0.4275
468.0,0.4326
469.0,0.435
470.0,0.421
471.0,0.4208
472.0,0.4434
473.0,0.4377
474.0,0.4379
475.0,0.441
476.0,0.4269
477.0,0.4275
478.0,0.4397
479.0,0.4375
480.0,0.4388
481.0,0.4478
482.0,0.451
483.0,0.4465
484.0,0.438
485.0,0.4179
486.0,0.366
487.0,0.3842
488.0,0.4216
489.0,0.4227
490.0,0.4452
491.0,0.4379
492.0,0.4137
493.0,0.4275
494.0,0.4319
495.0,0.4357
496.0,0.4384
497.0,0.4452
498.0,0.4242
499.0,0.4293
500.0,0.4163
501.0,0.408
502.0,0.4012
503.0,0.4163
504.0,0.4025
505.0,0.4195
506.0,0.433
507.0,0.4122
508.0,0.4005
509.0,0.4125
510.0,0.411
511.0,0.4228
512.0,0.4277
513.0,0.405
514.0,0.4025
515.0,0.3985
516.0,0.3974
517.0,0.3533
518.0,0.3713
519.0,0.3894
520.0,0.4035
521.0,0.4072
522.0,0.4072
523.0,0.3997
524.0,0.4134
525.0,0.4174
526.0,0.3984
527.0,0.3747
528.0,0.3957
529.0,0.4166
530.0,0.4103
531.0,0.416
532.0,0.4016
533.0,0.3898
534.0,0.4016
535.0,0.4108
536.0,0.415
537.0,0.399
538.0,0.4062
539.0,0.4028
540.0,0.386
541.0,0.3875
542.0,0.3991
543.0,0.3957
544.0,0.4017
545.0,0.4006
546.0,0.4016
547.0,0.4021
548.0,0.3977
549.0,0.3992
550.0,0.404
551.0,0.3992
552.0,0.402
553.0,0.3947
554.0,0.404
555.0,0.4046
556.0,0.3992
557.0,0.3864
558.0,0.383
559.0,0.3753
560.0,0.3796
561.0,0.384
562.0,0.3806
563.0,0.3902
564.0,0.379
565.0,0.3752
566.0,0.3692
567.0,0.3755
568.0,0.3703
569.0,0.3582
570.0,0.3586
571.0,0.3572
572.0,0.3635
573.0,0.367
574.0,0.3653
575.0,0.3577
576.0,0.3545
577.0,0.3587
578.0,0.3543
579.0,0.3573
580.0,0.3666
581.0,0.3703
582.0,0.379
583.0,0.3813
584.0,0.3856
585.0,0.3767
586.0,0.369
587.0,0.3761
588.0,0.3628
589.0,0.3134
590.0,0.3284
591.0,0.3523
592.0,0.345
593.0,0.3538
594.0,0.3499
595.0,0.3381
596.0,0.3581
597.0,0.3525
598.0,0.3536
599.0,0.3548
600.0,0.357
601.0,0.3554
602.0,0.3532
603.0,0.3597
604.0,0.366
605.0,0.3645
606.0,0.3637
607.0,0.3682
608.0,0.3648
609.0,0.3661
610.0,0.3643
611.0,0.3666
612.0,0.366
613.0,0.3618
614.0,0.3575
615.0,0.366
616.0,0.3544
617.0,0.3541
618.0,0.3681
619.0,0.3646
620.0,0.3669
621.0,0.3667
622.0,0.362
623.0,0.356
624.0,0.3504
625.0,0.3496
626.0,0.3546
627.0,0.3569
628.0,0.3144
629.0,0.3418
630.0,0.3333
631.0,0.3473
632.0,0.3444
633.0,0.3576
634.0,0.3562
635.0,0.3629
636.0,0.3593
637.0,0.3662
638.0,0.3712
639.0,0.3679
640.0,0.3652
641.0,0.3657
642.0,0.3649
643.0,0.3699
644.0,0.3696
645.0,0.3697
646.0,0.3588
647.0,0.3491
648.0,0.3498
649.0,0.3422
650.0,0.3508
651.0,0.3672
652.0,0.3452
653.0,0.3628
654.0,0.3593
655.0,0.3425
656.0,0.3059
657.0,0.3146
658.0,0.3548
659.0,0.3582
660.0,0.3602
661.0,0.3631
662.0,0.3626
663.0,0.3559
664.0,0.362
665.0,0.3638
666.0,0.3647
667.0,0.3651
668.0,0.3661
669.0,0.3722
670.0,0.371
671.0,0.3713
672.0,0.3684
673.0,0.3743
674.0,0.3732
675.0,0.3702
676.0,0.373
677.0,0.3696
678.0,0.3709
679.0,0.3652
680.0,0.3683
681.0,0.366
682.0,0.3656
683.0,0.3649
684.0,0.3631
685.0,0.3666
686.0,0.364
687.0,0.1652
688.0,0.2253
689.0,0.2273
690.0,0.2505
691.0,0.2782
692.0,0.3006
693.0,0.2975
694.0,0.2971
695.0,0.3195
696.0,0.3206
697.0,0.3517
698.0,0.346
699.0,0.3297
700.0,0.3253
701.0,0.3188
702.0,0.3242
703.0,0.3256
704.0,0.3409
705.0,0.3413
706.0,0.3428
707.0,0.3438
708.0,0.3443
709.0,0.3482
710.0,0.3464
711.0,0.3471
712.0,0.3477
713.0,0.3426
714.0,0.3444
715.0,0.3302
716.0,0.3296
717.0,0.2574
718.0,0.2343
719.0,0.2124
720.0,0.2195
721.0,0.2582
722.0,0.3128
723.0,0.2827
724.0,0.2441
725.0,0.2369
726.0,0.2487
727.0,0.2595
728.0,0.235
729.0,0.2536
730.0,0.2658
731.0,0.2527
732.0,0.2808
733.0,0.3066
734.0,0.3171
735.0,0.3088
736.0,0.3079
737.0,0.3093
738.0,0.3219
739.0,0.3158
740.0,0.3263
741.0,0.3244
742.0,0.3263
743.0,0.335
744.0,0.335
745.0,0.3358
746.0,0.3373
747.0,0.3383
748.0,0.3377
749.0,0.3339
750.0,0.3338
751.0,0.3304
752.0,0.332
753.0,0.3338
754.0,0.3345
755.0,0.3326
756.0,0.3326
757.0,0.333
758.0,0.3287
759.0,0.3168
760.0,0.01101
761.0,0.003708
762.0,0.08842
763.0,0.02359
764.0,0.05067
765.0,0.08819
766.0,0.136
767.0,0.207
768.0,0.2727
769.0,0.2868
770.0,0.3062
771.0,0.313
772.0,0.3151
773.0,0.3177
774.0,0.3164
775.0,0.3143
776.0,0.3182
777.0,0.314
778.0,0.3121
779.0,0.3124
780.0,0.3107
781.0,0.3111
782.0,0.3131
783.0,0.3078
784.0,0.3095
785.0,0.3068
786.0,0.3099
787.0,0.3005
788.0,0.295
789.0,0.2948
790.0,0.2819
791.0,0.2895
792.0,0.2882
793.0,0.283
794.0,0.293
795.0,0.2965
796.0,0.2801
797.0,0.2798
798.0,0.2953
799.0,0.2921
800.0,0.2853
801.0,0.2826
802.0,0.2817
803.0,0.2785
804.0,0.2798
805.0,0.2811
806.0,0.2927
807.0,0.2884
808.0,0.2889
809.0,0.2807
810.0,0.2767
811.0,0.2735
812.0,0.2604
813.0,0.2532
814.0,0.2098
815.0,0.2096
816.0,0.1933
817.0,0.1975
818.0,0.1871
819.0,0.2201
820.0,0.2036
821.0,0.2547
822.0,0.2447
823.0,0.1419
824.0,0.2311
825.0,0.2505
826.0,0.2353
827.0,0.254
828.0,0.1992
829.0,0.2351
830.0,0.2309
831.0,0.2316
832.0,0.2216
833.0,0.2431
834.0,0.2296
835.0,0.2643
836.0,0.2446
837.0,0.2651
838.0,0.2526
839.0,0.2616
840.0,0.2684
841.0,0.2628
842.0,0.2662
843.0,0.269
844.0,0.2637
845.0,0.2747
846.0,0.274
847.0,0.2697
848.0,0.2668
849.0,0.2592
850.0,0.2484
851.0,0.2617
852.0,0.2605
853.0,0.2518
854.0,0.2165
855.0,0.2392
856.0,0.2608
857.0,0.2675
858.0,0.2651
859.0,0.266
860.0,0.2669
861.0,0.2653
862.0,0.2697
863.0,0.276
864.0,0.2623
865.0,0.2601
866.0,0.2339
867.0,0.2441
868.0,0.2657
869.0,0.2603
870.0,0.2677
871.0,0.2641
872.0,0.2632
873.0,0.2627
874.0,0.2596
875.0,0.2543
876.0,0.2569
877.0,0.2595
878.0,0.2621
879.0,0.2582
880.0,0.2527
881.0,0.2482
882.0,0.2533
883.0,0.2548
884.0,0.2534
885.0,0.2552
886.0,0.2409
887.0,0.2453
888.0,0.248
889.0,0.2527
890.0,0.2481
891.0,0.2489
892.0,0.2385
893.0,0.2282
894.0,0.2135
895.0,0.1936
896.0,0.1804
897.0,0.1461
898.0,0.1636
899.0,0.1147
900.0,0.1733
901.0,0.1202
902.0,0.1538
903.0,0.1506
904.0,0.2116
905.0,0.2016
906.0,0.1861
907.0,0.1364
908.0,0.1422
909.0,0.1594
910.0,0.1304
911.0,0.1475
912.0,0.1543
913.0,0.1318
914.0,0.1329
915.0,0.1429
916.0,0.1198
917.0,0.1622
918.0,0.1218
919.0,0.169
920.0,0.1793
921.0,0.1856
922.0,0.1581
923.0,0.1803
924.0,0.1595
925.0,0.1567
926.0,0.1569
927.0,0.1833
928.0,0.1123
929.0,0.09695
930.0,0.06738
931.0,0.06369
932.0,0.03776
933.0,0.02752
934.0,0.009315
935.0,0.03055
936.0,0.01499
937.0,0.01509
938.0,0.01992
939.0,0.06147
940.0,0.0804
941.0,0.05279
942.0,0.06494
943.0,0.03696
944.0,0.04485
945.0,0.0562
946.0,0.02122
947.0,0.05437
948.0,0.03928
949.0,0.08065
950.0,0.01286
951.0,0.08017
952.0,0.0339
953.0,0.04981
954.0,0.06817
955.0,0.05119
956.0,0.05779
957.0,0.03356
958.0,0.08939
959.0,0.06154
960.0,0.06905
961.0,0.08507
962.0,0.08022
963.0,0.09928
964.0,0.08907
965.0,0.09847
966.0,0.09793
967.0,0.09637
968.0,0.1575
969.0,0.1598
970.0,0.1445
971.0,0.178
972.0,0.1674
973.0,0.1331
974.0,0.1255
975.0,0.1341
976.0,0.1201
977.0,0.152
978.0,0.138
979.0,0.1479
980.0,0.1375
981.0,0.1773
982.0,0.1648
983.0,0.1558
984.0,0.1888
985.0,0.1638
986.0,0.196
987.0,0.188
988.0,0.188
989.0,0.198
990.0,0.1867
991.0,0.1981
992.0,0.1997
993.0,0.191
994.0,0.2001
995.0,0.2005
996.0,0.1989
997.0,0.1996
998.0,0.1984
999.0,0.1978
1000.0,0.1954
1001.0,0.199
1002.0,0.1891
1003.0,0.1953
1004.0,0.1893
1005.0,0.184
1006.0,0.1904
1007.0,0.1948
1008.0,0.193
1009.0,0.1911
1010.0,0.1898
1011.0,0.1939
1012.0,0.1914
1013.0,0.1937
1014.0,0.1923
1015.0,0.191
1016.0,0.19
1017.0,0.1903
1018.0,0.1901
1019.0,0.1844
1020.0,0.1889
1021.0,0.1889
1022.0,0.1868
1023.0,0.1887
1024.0,0.1845
1025.0,0.1892
1026.0,0.1879
1027.0,0.1876
1028.0,0.187
1029.0,0.1846
1030.0,0.1865
1031.0,0.1855
1032.0,0.1852
1033.0,0.1824
1034.0,0.1824
1035.0,0.183
1036.0,0.1837
1037.0,0.1808
1038.0,0.1816
1039.0,0.1813
1040.0,0.1806
1041.0,0.1811
1042.0,0.1799
1043.0,0.1792
1044.0,0.1797
1045.0,0.1772
1046.0,0.1751
1047.0,0.1765
1048.0,0.1774
1049.0,0.1766
1050.0,0.1756
1051.0,0.1752
1052.0,0.1743
1053.0,0.1727
1054.0,0.1728
1055.0,0.1727
1056.0,0.1718
1057.0,0.171
1058.0,0.1666
1059.0,0.1664
1060.0,0.1661
1061.0,0.1657
1062.0,0.1663
1063.0,0.1644
1064.0,0.1664
1065.0,0.1646
1066.0,0.1619
1067.0,0.1638
1068.0,0.1597
1069.0,0.1552
1070.0,0.16
1071.0,0.164
1072.0,0.161
1073.0,0.1589
1074.0,0.1647
1075.0,0.1523
1076.0,0.1644
1077.0,0.1591
1078.0,0.1549
1079.0,0.1625
1080.0,0.1567
1081.0,0.1494
1082.0,0.1555
1083.0,0.157
1084.0,0.1483
1085.0,0.1574
1086.0,0.1381
1087.0,0.1461
1088.0,0.1562
1089.0,0.1471
1090.0,0.142
1091.0,0.1546
1092.0,0.1549
1093.0,0.1208
1094.0,0.1404
1095.0,0.1262
1096.0,0.118
1097.0,0.1514
1098.0,0.1145
1099.0,0.1209
1100.0,0.1086
1101.0,0.1114
1102.0,0.1035
1103.0,0.1005
1104.0,0.1009
1105.0,0.1172
1106.0,0.07398
1107.0,0.1085
1108.0,0.08264
1109.0,0.08417
1110.0,0.1053
1111.0,0.0591
1112.0,0.08409
1113.0,0.04218
1114.0,0.04747
1115.0,0.03837
1116.0,0.02521
1117.0,0.005183
1118.0,0.02853
1119.0,0.01013
1120.0,0.01213
1121.0,0.01798
1122.0,0.004785
1123.0,0.0111
1124.0,0.009313
1125.0,0.01314
1126.0,0.002144
1127.0,0.01508
1128.0,0.006023
1129.0,0.006627
1130.0,0.00398
1131.0,0.03818
1132.0,0.02792
1133.0,0.01274
1134.0,0.001607
1135.0,0.0007093
1136.0,0.009119
1137.0,0.03549
1138.0,0.02395
1139.0,0.04808
1140.0,0.03533
1141.0,0.02293
1142.0,0.02846
1143.0,0.04606
1144.0,0.01105
1145.0,0.01222
1146.0,0.01314
1147.0,0.002345
1148.0,0.03892
1149.0,0.02776
1150.0,0.01306
1151.0,0.02379
1152.0,0.03324
1153.0,0.0357
1154.0,0.01234
1155.0,0.05002
1156.0,0.0424
1157.0,0.05346
1158.0,0.05265
1159.0,0.05939
1160.0,0.04888
1161.0,0.06775
1162.0,0.06721
1163.0,0.1055
1164.0,0.08531
1165.0,0.07526
1166.0,0.0792
1167.0,0.08872
1168.0,0.08861
1169.0,0.09199
1170.0,0.1047
1171.0,0.102
1172.0,0.1071
1173.0,0.1045
1174.0,0.0646
1175.0,0.1051
1176.0,0.1222
1177.0,0.1127
1178.0,0.07683
1179.0,0.1231
1180.0,0.1029
1181.0,0.1063
1182.0,0.06438
1183.0,0.1061
1184.0,0.09632
1185.0,0.09008
1186.0,0.1164
1187.0,0.1078
1188.0,0.0637
1189.0,0.09997
1190.0,0.1146
1191.0,0.1024
1192.0,0.1168
1193.0,0.1098
1194.0,0.1146
1195.0,0.104
1196.0,0.09787
1197.0,0.1163
1198.0,0.1046
1199.0,0.08029
1200.0,0.1083
1201.0,0.1012
1202.0,0.1035
1203.0,0.1007
1204.0,0.08465
1205.0,0.1083
1206.0,0.1238
1207.0,0.1019
1208.0,0.103
1209.0,0.1055
1210.0,0.1119
1211.0,0.1036
1212.0,0.09719
1213.0,0.1172
1214.0,0.1014
1215.0,0.09901
1216.0,0.1175
1217.0,0.1127
1218.0,0.1164
1219.0,0.1138
1220.0,0.1167
1221.0,0.1189
1222.0,0.1152
1223.0,0.1133
1224.0,0.1107
1225.0,0.1178
1226.0,0.12
1227.0,0.106
1228.0,0.1216
1229.0,0.1201
1230.0,0.1171
1231.0,0.1235
1232.0,0.1227
1233.0,0.1144
1234.0,0.1244
1235.0,0.1229
1236.0,0.1243
1237.0,0.121
1238.0,0.1239
1239.0,0.1223
1240.0,0.123
1241.0,0.1213
1242.0,0.122
1243.0,0.1211
1244.0,0.1216
1245.0,0.1223
1246.0,0.1217
1247.0,0.1209
1248.0,0.1203
1249.0,0.1211
1250.0,0.1201
1251.0,0.1178
1252.0,0.1187
1253.0,0.1162
1254.0,0.1139
1255.0,0.1182
1256.0,0.112
1257.0,0.1108
1258.0,0.1152
1259.0,0.1066
1260.0,0.1077
1261.0,0.09635
1262.0,0.09077
1263.0,0.0908
1264.0,0.07793
1265.0,0.09032
1266.0,0.08337
1267.0,0.08729
1268.0,0.07893
1269.0,0.02963
1270.0,0.086
1271.0,0.09672
1272.0,0.09758
1273.0,0.09594
1274.0,0.09707
1275.0,0.09942
1276.0,0.1015
1277.0,0.1035
1278.0,0.1076
1279.0,0.1065
1280.0,0.1053
1281.0,0.1015
1282.0,0.09947
1283.0,0.1068
1284.0,0.109
1285.0,0.11
1286.0,0.1124
1287.0,0.109
1288.0,0.1095
1289.0,0.1027
1290.0,0.1087
1291.0,0.1109
1292.0,0.09821
1293.0,0.1073
1294.0,0.1064
1295.0,0.1037
1296.0,0.09554
1297.0,0.08796
1298.0,0.1001
1299.0,0.108
1300.0,0.0826
1301.0,0.08656
1302.0,0.1
1303.0,0.08231
1304.0,0.06253
1305.0,0.09756
1306.0,0.09657
1307.0,0.0667
1308.0,0.0838
1309.0,0.09435
1310.0,0.06464
1311.0,0.07848
1312.0,0.07541
1313.0,0.07186
1314.0,0.06147
1315.0,0.05906
1316.0,0.07573
1317.0,0.07054
1318.0,0.08007
1319.0,0.05349
1320.0,0.05347
1321.0,0.06559
1322.0,0.06447
1323.0,0.04141
1324.0,0.05287
1325.0,0.07348
1326.0,0.05864
1327.0,0.0546
1328.0,0.04451
1329.0,0.02753
1330.0,0.03907
1331.0,0.01778
1332.0,0.01985
1333.0,0.02869
1334.0,0.02842
1335.0,0.0405
1336.0,0.02848
1337.0,0.0245
1338.0,0.02605
1339.0,0.02665
1340.0,0.02769
1341.0,0.02281
1342.0,0.02456
1343.0,0.01093
1344.0,0.007098
1345.0,0.009677
1346.0,0.002531
1347.0,0.002238
1348.0,4.235e-05
1349.0,0.0001959
1350.0,0.0002414
1351.0,1.96e-05
1352.0,1.658e-06
1353.0,6.032e-08
1354.0,2.792e-07
1355.0,1.404e-09
1356.0,2.929e-08
1357.0,4.422e-08
1358.0,1.655e-09
1359.0,2.026e-10
1360.0,7.395e-10
1361.0,8.175e-13
1362.0,2.236e-15
1363.0,9.85e-10
1364.0,4.074e-10
1365.0,7.807e-16
1366.0,4.279e-09
1367.0,1.765e-09
1368.0,6.028e-18
1369.0,1.502e-10
1370.0,7.371e-11
1371.0,4.175e-12
1372.0,9.599e-10
1373.0,2.055e-08
1374.0,1.107e-07
1375.0,1.852e-07
1376.0,2.514e-07
1377.0,1.075e-07
1378.0,1.051e-06
1379.0,4.689e-08
1380.0,5.028e-08
1381.0,1.25e-09
1382.0,8.369e-10
1383.0,1.246e-11
1384.0,1.624e-10
1385.0,8.2e-10
1386.0,7.321e-10
1387.0,9.524e-08
1388.0,2.121e-09
1389.0,4.197e-07
1390.0,3.392e-07
1391.0,2.272e-07
1392.0,1.511e-08
1393.0,9.326e-08
1394.0,3.186e-08
1395.0,2.273e-10
1396.0,1.064e-12
1397.0,3.228e-08
1398.0,1.044e-06
1399.0,6.945e-07
1400.0,4.55e-13
1401.0,1.888e-12
1402.0,6.791e-06
1403.0,6.024e-06
1404.0,1.517e-06
1405.0,1.056e-10
1406.0,2.508e-06
1407.0,4.64e-07
1408.0,2.238e-06
1409.0,4.739e-07
1410.0,6.388e-07
1411.0,5.7e-06
1412.0,1.143e-05
1413.0,0.0002913
1414.0,5.636e-07
1415.0,2.136e-07
1416.0,0.00119
1417.0,0.0001987
1418.0,0.0001427
1419.0,1.936e-05
1420.0,8.556e-05
1421.0,0.0001344
1422.0,0.001543
1423.0,0.0002722
1424.0,0.000622
1425.0,0.0007078
1426.0,0.001188
