interpolation:linear
wavelength,value
280.0,8.003999999999999e-23
280.5,2.675e-21
281.0,1.445e-20
281.5,4.667e-19
282.0,5.185e-19
282.5,1.242e-18
283.0,3.878e-18
283.5,6.308e-18
284.0,1.038e-16
284.5,3.043e-16
285.0,5.935e-16
285.5,2.776e-15
286.0,1.108e-14
286.5,4.919e-14
287.0,1.406e-13
287.5,5.412e-13
288.0,1.873e-12
288.5,5.413e-12
289.0,1.405e-11
289.5,4.179e-11
290.0,1.153e-10
290.5,2.347e-10
291.0,5.037e-10
291.5,1.448e-09
292.0,2.944e-09
292.5,4.104e-09
293.0,8.738e-09
293.5,2.108e-08
294.0,3.287e-08
294.5,4.244e-08
295.0,7.153e-08
295.5,1.215e-07
296.0,2.302e-07
296.5,3.157e-07
297.0,4.196e-07
297.5,1.094e-06
298.0,1.677e-06
298.5,1.649e-06
299.0,3.549e-06
299.5,5.627e-06
300.0,6.015e-06
300.5,8.445e-06
301.0,1.448e-05
301.5,2.187e-05
302.0,1.816e-05
302.5,3.506e-05
303.0,6.241e-05
303.5,7.884e-05
304.0,7.583e-05
304.5,0.0001208
305.0,0.0002018
305.5,0.0002464
306.0,0.0002445
306.5,0.0003177
307.0,0.0005197
307.5,0.0007611
308.0,0.0008164
308.5,0.001012
309.0,0.001191
309.5,0.001625
310.0,0.00177
310.5,0.002985
311.0,0.004001
311.5,0.003973
312.0,0.004582
312.5,0.006127
313.0,0.006981
313.5,0.006472
314.0,0.00906
314.5,0.009334
315.0,0.01259
315.5,0.009792
316.0,0.009657
316.5,0.0154
317.0,0.01908
317.5,0.01926
318.0,0.01614
318.5,0.02298
319.0,0.02921
319.5,0.0213
320.0,0.0253
320.5,0.03642
321.0,0.03678
321.5,0.03571
322.0,0.03323
322.5,0.02911
323.0,0.03165
323.5,0.04337
324.0,0.0514
324.5,0.05018
325.0,0.04042
325.5,0.05584
326.0,0.07167
326.5,0.07541
327.0,0.0738
327.5,0.06963
328.0,0.058
328.5,0.06606
329.0,0.08425
329.5,0.09748
330.0,0.09683
330.5,0.07381
331.0,0.07397
331.5,0.07796
332.0,0.08875
332.5,0.08989
333.0,0.08842
333.5,0.077
334.0,0.07839
334.5,0.09452
335.0,0.09111
335.5,0.1075
336.0,0.07441
336.5,0.0852
337.0,0.06864
337.5,0.08481
338.0,0.08586
338.5,0.1006
339.0,0.09981
339.5,0.09591
340.0,0.1112
340.5,0.1006
341.0,0.09928
341.5,0.09158
342.0,0.1096
342.5,0.1027
343.0,0.1127
343.5,0.1059
344.0,0.07742
344.5,0.0789
345.0,0.105
345.5,0.1075
346.0,0.09153
346.5,0.1038
347.0,0.1112
347.5,0.08989
348.0,0.1028
348.5,0.103
349.0,0.09568
349.5,0.09477
350.0,0.1173
350.5,0.1238
351.0,0.1105
351.5,0.107
352.0,0.1153
352.5,0.09018
353.0,0.1138
353.5,0.1219
354.0,0.1266
354.5,0.1285
355.0,0.128
355.5,0.1158
356.0,0.1213
356.5,0.1036
357.0,0.08562
357.5,0.1049
358.0,0.08319
358.5,0.07113
359.0,0.0995
359.5,0.1267
360.0,0.1344
360.5,0.1076
361.0,0.09817
361.5,0.1132
362.0,0.09803
362.5,0.1358
363.0,0.1221
363.5,0.1126
364.0,0.1379
364.5,0.1179
365.0,0.1202
365.5,0.1509
366.0,0.1601
366.5,0.1506
367.0,0.1468
367.5,0.1524
368.0,0.1335
368.5,0.1348
369.0,0.1457
369.5,0.1554
370.0,0.1658
370.5,0.1288
371.0,0.1378
371.5,0.1725
372.0,0.1146
372.5,0.1375
373.0,0.14
373.5,0.09116
374.0,0.1326
374.5,0.1099
375.0,0.1069
375.5,0.1597
376.0,0.1325
376.5,0.1374
377.0,0.1456
377.5,0.1705
378.0,0.1849
378.5,0.1748
379.0,0.1443
379.5,0.1319
380.0,0.1372
380.5,0.1664
381.0,0.1669
381.5,0.1325
382.0,0.1178
382.5,0.1006
383.0,0.09322
383.5,0.08988
384.0,0.09923
384.5,0.1461
385.0,0.145
385.5,0.1352
386.0,0.1159
386.5,0.1524
387.0,0.1267
387.5,0.1425
388.0,0.1317
388.5,0.1303
389.0,0.1407
389.5,0.1706
390.0,0.1714
390.5,0.1579
391.0,0.186
391.5,0.1899
392.0,0.1601
392.5,0.1435
393.0,0.07992
393.5,0.05815
394.0,0.1184
394.5,0.1507
395.0,0.1841
395.5,0.1871
396.0,0.1624
396.5,0.09504
397.0,0.0714
397.5,0.1453
398.0,0.2036
398.5,0.2106
399.0,0.2284
399.5,0.2279
400.0,0.2367
401.0,0.2376
402.0,0.2512
403.0,0.2392
404.0,0.2359
405.0,0.2362
406.0,0.2329
407.0,0.2296
408.0,0.2388
409.0,0.256
410.0,0.2241
411.0,0.2432
412.0,0.2619
413.0,0.2556
414.0,0.2593
415.0,0.2605
416.0,0.2656
417.0,0.2594
418.0,0.255
419.0,0.2588
420.0,0.2581
421.0,0.2704
422.0,0.2574
423.0,0.2518
424.0,0.2665
425.0,0.2665
426.0,0.2603
427.0,0.2558
428.0,0.2495
429.0,0.237
430.0,0.2078
431.0,0.206
432.0,0.2665
433.0,0.2684
434.0,0.2494
435.0,0.2607
436.0,0.2945
437.0,0.2912
438.0,0.2656
439.0,0.2743
440.0,0.2835
441.0,0.2943
442.0,0.316
443.0,0.3076
444.0,0.315
445.0,0.3083
446.0,0.2952
447.0,0.3199
448.0,0.3247
449.0,0.3269
450.0,0.3366
451.0,0.3494
452.0,0.3371
453.0,0.3176
454.0,0.3322
455.0,0.3344
456.0,0.3427
457.0,0.3485
458.0,0.3363
459.0,0.3348
460.0,0.3355
461.0,0.3434
462.0,0.3468
463.0,0.3445
464.0,0.3399
465.0,0.3366
466.0,0.3406
467.0,0.3342
468.0,0.3382
469.0,0.3401
470.0,0.3291
471.0,0.329
472.0,0.3467
473.0,0.3423
474.0,0.3423
475.0,0.3446
476.0,0.3334
477.0,0.3336
478.0,0.3431
479.0,0.3415
480.0,0.3427
481.0,0.3498
482.0,0.3526
483.0,0.3493
484.0,0.3428
485.0,0.3273
486.0,0.2869
487.0,0.3013
488.0,0.3306
489.0,0.3314
490.0,0.3491
491.0,0.3436
492.0,0.3246
493.0,0.3354
494.0,0.339
495.0,0.3421
496.0,0.3443
497.0,0.3496
498.0,0.3331
499.0,0.337
500.0,0.3267
501.0,0.3201
502.0,0.3144
503.0,0.3259
504.0,0.3143
505.0,0.3282
506.0,0.3387
507.0,0.3226
508.0,0.3136
509.0,0.3233
510.0,0.3223
511.0,0.3317
512.0,0.3357
513.0,0.3178
514.0,0.316
515.0,0.3128
516.0,0.3119
517.0,0.2773
518.0,0.2915
519.0,0.3057
520.0,0.3166
521.0,0.3195
522.0,0.3194
523.0,0.3134
524.0,0.324
525.0,0.3268
526.0,0.3119
527.0,0.2931
528.0,0.3094
529.0,0.3256
530.0,0.3205
531.0,0.3249
532.0,0.3136
533.0,0.3044
534.0,0.3137
535.0,0.321
536.0,0.3243
537.0,0.3119
538.0,0.3177
539.0,0.3149
540.0,0.3017
541.0,0.3026
542.0,0.3116
543.0,0.3091
544.0,0.3135
545.0,0.3128
546.0,0.3133
547.0,0.3139
548.0,0.3106
549.0,0.3118
550.0,0.3155
551.0,0.3118
552.0,0.314
553.0,0.3082
554.0,0.3155
555.0,0.3159
556.0,0.3116
557.0,0.3016
558.0,0.2987
559.0,0.2925
560.0,0.2958
561.0,0.299
562.0,0.2962
563.0,0.3035
564.0,0.2945
565.0,0.2914
566.0,0.2866
567.0,0.2913
568.0,0.2868
569.0,0.2766
570.0,0.2769
571.0,0.2761
572.0,0.2803
573.0,0.2829
574.0,0.2814
575.0,0.2753
576.0,0.2729
577.0,0.2762
578.0,0.2731
579.0,0.2758
580.0,0.2837
581.0,0.2872
582.0,0.2944
583.0,0.2966
584.0,0.3002
585.0,0.2934
586.0,0.2875
587.0,0.2927
588.0,0.2812
589.0,0.2409
590.0,0.2525
591.0,0.2722
592.0,0.2658
593.0,0.2736
594.0,0.2702
595.0,0.2601
596.0,0.2775
597.0,0.2725
598.0,0.274
599.0,0.2751
600.0,0.2772
601.0,0.2763
602.0,0.2747
603.0,0.28
604.0,0.285
605.0,0.284
606.0,0.2836
607.0,0.2872
608.0,0.2849
609.0,0.286
610.0,0.2848
611.0,0.2868
612.0,0.2865
613.0,0.2833
614.0,0.2801
615.0,0.2869
616.0,0.278
617.0,0.2779
618.0,0.289
619.0,0.2863
620.0,0.2882
621.0,0.2879
622.0,0.2841
623.0,0.2794
624.0,0.2751
625.0,0.2744
626.0,0.2782
627.0,0.2796
628.0,0.2408
629.0,0.2658
630.0,0.2589
631.0,0.2717
632.0,0.2698
633.0,0.2809
634.0,0.2805
635.0,0.2861
636.0,0.2836
637.0,0.2893
638.0,0.2938
639.0,0.2913
640.0,0.2896
641.0,0.2901
642.0,0.2897
643.0,0.2938
644.0,0.2937
645.0,0.2937
646.0,0.2844
647.0,0.2752
648.0,0.2761
649.0,0.2697
650.0,0.2785
651.0,0.2918
652.0,0.2727
653.0,0.2885
654.0,0.2858
655.0,0.2716
656.0,0.2432
657.0,0.2503
658.0,0.283
659.0,0.2859
660.0,0.2878
661.0,0.2902
662.0,0.2896
663.0,0.2843
664.0,0.2897
665.0,0.2915
666.0,0.2924
667.0,0.2929
668.0,0.2939
669.0,0.299
670.0,0.2981
671.0,0.2985
672.0,0.2962
673.0,0.3011
674.0,0.3003
675.0,0.298
676.0,0.3004
677.0,0.2977
678.0,0.2988
679.0,0.2943
680.0,0.2969
681.0,0.295
682.0,0.2947
683.0,0.2942
684.0,0.2927
685.0,0.2956
686.0,0.2934
687.0,0.1154
688.0,0.1664
689.0,0.1681
690.0,0.1887
691.0,0.214
692.0,0.2351
693.0,0.2327
694.0,0.2336
695.0,0.254
696.0,0.2552
697.0,0.2829
698.0,0.2782
699.0,0.2631
700.0,0.2594
701.0,0.2531
702.0,0.2583
703.0,0.26
704.0,0.2734
705.0,0.2736
706.0,0.2753
707.0,0.2764
708.0,0.2767
709.0,0.2808
710.0,0.2787
711.0,0.2797
712.0,0.2807
713.0,0.2761
714.0,0.2778
715.0,0.2653
716.0,0.2647
717.0,0.1994
718.0,0.1814
719.0,0.1639
720.0,0.1684
721.0,0.2022
722.0,0.2495
723.0,0.2236
724.0,0.1903
725.0,0.184
726.0,0.1933
727.0,0.2036
728.0,0.1823
729.0,0.1993
730.0,0.2077
731.0,0.1973
732.0,0.2222
733.0,0.2449
734.0,0.2542
735.0,0.2471
736.0,0.246
737.0,0.2473
738.0,0.2597
739.0,0.2549
740.0,0.264
741.0,0.2629
742.0,0.2648
743.0,0.272
744.0,0.2723
745.0,0.2732
746.0,0.2745
747.0,0.2753
748.0,0.2748
749.0,0.2718
750.0,0.2717
751.0,0.269
752.0,0.2703
753.0,0.2718
754.0,0.2724
755.0,0.2708
756.0,0.2708
757.0,0.2712
758.0,0.2676
759.0,0.2563
760.0,0.005789
761.0,0.002054
762.0,0.05701
763.0,0.01282
764.0,0.02998
765.0,0.05679
766.0,0.09501
767.0,0.1552
768.0,0.2153
769.0,0.229
770.0,0.2476
771.0,0.2546
772.0,0.2567
773.0,0.2589
774.0,0.258
775.0,0.2563
776.0,0.2596
777.0,0.2562
778.0,0.2546
779.0,0.2548
780.0,0.2535
781.0,0.2539
782.0,0.2555
783.0,0.2512
784.0,0.2526
785.0,0.2504
786.0,0.2528
787.0,0.2439
788.0,0.2389
789.0,0.2389
790.0,0.227
791.0,0.2346
792.0,0.2338
793.0,0.2294
794.0,0.2389
795.0,0.2414
796.0,0.226
797.0,0.2254
798.0,0.2401
799.0,0.2372
800.0,0.2312
801.0,0.2284
802.0,0.2275
803.0,0.2247
804.0,0.226
805.0,0.2277
806.0,0.2383
807.0,0.2346
808.0,0.235
809.0,0.2274
810.0,0.2238
811.0,0.2207
812.0,0.208
813.0,0.2021
814.0,0.1645
815.0,0.1647
816.0,0.1512
817.0,0.1544
818.0,0.1456
819.0,0.1739
820.0,0.1602
821.0,0.205
822.0,0.1962
823.0,0.108
824.0,0.1835
825.0,0.2018
826.0,0.188
827.0,0.2045
828.0,0.1561
829.0,0.1882
830.0,0.1847
831.0,0.1851
832.0,0.1763
833.0,0.1952
834.0,0.1834
835.0,0.2146
836.0,0.1959
837.0,0.2152
838.0,0.2038
839.0,0.212
840.0,0.2179
841.0,0.2128
842.0,0.2164
843.0,0.2196
844.0,0.2148
845.0,0.2244
846.0,0.224
847.0,0.2208
848.0,0.218
849.0,0.2118
850.0,0.203
851.0,0.2134
852.0,0.2127
853.0,0.2059
854.0,0.1768
855.0,0.1957
856.0,0.2132
857.0,0.219
858.0,0.2169
859.0,0.2178
860.0,0.2186
861.0,0.2173
862.0,0.2209
863.0,0.2262
864.0,0.2149
865.0,0.2132
866.0,0.1917
867.0,0.2001
868.0,0.2178
869.0,0.2134
870.0,0.2195
871.0,0.2165
872.0,0.2158
873.0,0.2154
874.0,0.2129
875.0,0.2085
876.0,0.2106
877.0,0.2128
878.0,0.2148
879.0,0.2116
880.0,0.2071
881.0,0.2033
882.0,0.2073
883.0,0.2088
884.0,0.2075
885.0,0.209
886.0,0.1967
887.0,0.2008
888.0,0.2027
889.0,0.2071
890.0,0.2026
891.0,0.2037
892.0,0.1943
893.0,0.1852
894.0,0.1714
895.0,0.1533
896.0,0.1425
897.0,0.1132
898.0,0.1276
899.0,0.08729
900.0,0.1366
901.0,0.09148
902.0,0.1198
903.0,0.1163
904.0,0.1696
905.0,0.1611
906.0,0.148
907.0,0.1046
908.0,0.1103
909.0,0.1247
910.0,0.09975
911.0,0.1153
912.0,0.1201
913.0,0.1007
914.0,0.1022
915.0,0.1093
916.0,0.09147
917.0,0.1263
918.0,0.09272
919.0,0.1325
920.0,0.1431
921.0,0.1476
922.0,0.1241
923.0,0.1437
924.0,0.1243
925.0,0.1223
926.0,0.1219
927.0,0.1439
928.0,0.08355
929.0,0.07089
930.0,0.04702
931.0,0.04404
932.0,0.0244
933.0,0.01718
934.0,0.004975
935.0,0.01948
936.0,0.008864
937.0,0.008968
938.0,0.01207
939.0,0.04242
940.0,0.05719
941.0,0.03584
942.0,0.04477
943.0,0.02428
944.0,0.03098
945.0,0.03861
946.0,0.01316
947.0,0.03691
948.0,0.02658
949.0,0.05683
950.0,0.007636
951.0,0.05631
952.0,0.02221
953.0,0.03393
954.0,0.0479
955.0,0.03511
956.0,0.04238
957.0,0.02202
958.0,0.06618
959.0,0.04359
960.0,0.04901
961.0,0.06221
962.0,0.05875
963.0,0.07439
964.0,0.06637
965.0,0.07334
966.0,0.07322
967.0,0.07166
968.0,0.125
969.0,0.1253
970.0,0.1131
971.0,0.1425
972.0,0.1331
973.0,0.1029
974.0,0.09714
975.0,0.1043
976.0,0.09163
977.0,0.1205
978.0,0.1077
979.0,0.1161
980.0,0.1077
981.0,0.142
982.0,0.1309
983.0,0.1232
984.0,0.1528
985.0,0.1299
986.0,0.1598
987.0,0.1527
988.0,0.1528
989.0,0.1621
990.0,0.1516
991.0,0.1621
992.0,0.1635
993.0,0.1556
994.0,0.1641
995.0,0.1646
996.0,0.1631
997.0,0.1637
998.0,0.1626
999.0,0.1623
1000.0,0.1599
1001.0,0.1633
1002.0,0.1538
1003.0,0.1601
1004.0,0.1548
1005.0,0.151
1006.0,0.156
1007.0,0.1598
1008.0,0.158
1009.0,0.1562
1010.0,0.1551
1011.0,0.1591
1012.0,0.1568
1013.0,0.159
1014.0,0.1579
1015.0,0.1567
1016.0,0.1559
1017.0,0.156
1018.0,0.1561
1019.0,0.1508
1020.0,0.155
1021.0,0.1551
1022.0,0.1532
1023.0,0.1547
1024.0,0.1508
1025.0,0.1552
1026.0,0.1541
1027.0,0.1538
1028.0,0.1534
1029.0,0.1513
1030.0,0.1531
1031.0,0.1522
1032.0,0.152
1033.0,0.1496
1034.0,0.1497
1035.0,0.1502
1036.0,0.1507
1037.0,0.1484
1038.0,0.1489
1039.0,0.1487
1040.0,0.1481
1041.0,0.1485
1042.0,0.1474
1043.0,0.1469
1044.0,0.1472
1045.0,0.1451
1046.0,0.1434
1047.0,0.1445
1048.0,0.1452
1049.0,0.1445
1050.0,0.1437
1051.0,0.1432
1052.0,0.1425
1053.0,0.1411
1054.0,0.1411
1055.0,0.1409
1056.0,0.1401
1057.0,0.1394
1058.0,0.1357
1059.0,0.1355
1060.0,0.1351
1061.0,0.1348
1062.0,0.1352
1063.0,0.1336
1064.0,0.1353
1065.0,0.1336
1066.0,0.1315
1067.0,0.133
1068.0,0.1296
1069.0,0.126
1070.0,0.1299
1071.0,0.1335
1072.0,0.1307
1073.0,0.1291
1074.0,0.1344
1075.0,0.1233
1076.0,0.134
1077.0,0.1292
1078.0,0.1255
1079.0,0.1328
1080.0,0.1272
1081.0,0.1208
1082.0,0.1266
1083.0,0.1281
1084.0,0.1196
1085.0,0.1278
1086.0,0.1109
1087.0,0.1182
1088.0,0.1273
1089.0,0.1187
1090.0,0.1142
1091.0,0.1257
1092.0,0.1261
1093.0,0.09586
1094.0,0.1139
1095.0,0.09997
1096.0,0.09292
1097.0,0.1232
1098.0,0.0896
1099.0,0.09494
1100.0,0.08444
1101.0,0.08714
1102.0,0.08017
1103.0,0.07729
1104.0,0.07778
1105.0,0.09174
1106.0,0.05462
1107.0,0.08442
1108.0,0.06225
1109.0,0.06344
1110.0,0.08112
1111.0,0.04263
1112.0,0.06346
1113.0,0.02947
1114.0,0.03308
1115.0,0.02636
1116.0,0.01624
1117.0,0.002821
1118.0,0.01848
1119.0,0.005874
1120.0,0.006852
1121.0,0.01048
1122.0,0.00237
1123.0,0.006281
1124.0,0.005259
1125.0,0.007662
1126.0,0.0009581
1127.0,0.008818
1128.0,0.003068
1129.0,0.003398
1130.0,0.002079
1131.0,0.02474
1132.0,0.01761
1133.0,0.007172
1134.0,0.0007199
1135.0,0.000337
1136.0,0.004849
1137.0,0.02269
1138.0,0.01495
1139.0,0.03334
1140.0,0.02347
1141.0,0.01438
1142.0,0.01829
1143.0,0.0312
1144.0,0.006591
1145.0,0.006818
1146.0,0.007326
1147.0,0.001039
1148.0,0.02594
1149.0,0.01783
1150.0,0.008185
1151.0,0.01489
1152.0,0.02173
1153.0,0.02413
1154.0,0.007191
1155.0,0.03471
1156.0,0.02883
1157.0,0.03824
1158.0,0.03761
1159.0,0.04272
1160.0,0.03526
1161.0,0.05064
1162.0,0.04997
1163.0,0.08231
1164.0,0.06542
1165.0,0.05661
1166.0,0.06073
1167.0,0.06857
1168.0,0.06842
1169.0,0.07118
1170.0,0.08214
1171.0,0.08008
1172.0,0.08499
1173.0,0.08207
1174.0,0.04867
1175.0,0.08349
1176.0,0.09872
1177.0,0.08991
1178.0,0.05966
1179.0,0.0994
1180.0,0.08131
1181.0,0.08409
1182.0,0.04877
1183.0,0.08423
1184.0,0.07566
1185.0,0.07004
1186.0,0.09313
1187.0,0.08534
1188.0,0.04766
1189.0,0.0791
1190.0,0.09196
1191.0,0.08041
1192.0,0.09392
1193.0,0.08762
1194.0,0.09191
1195.0,0.08225
1196.0,0.07681
1197.0,0.09361
1198.0,0.08402
1199.0,0.0622
1200.0,0.0866
1201.0,0.07989
1202.0,0.08282
1203.0,0.07976
1204.0,0.06628
1205.0,0.08711
1206.0,0.1007
1207.0,0.08106
1208.0,0.08265
1209.0,0.08462
1210.0,0.09041
1211.0,0.08299
1212.0,0.07627
1213.0,0.09453
1214.0,0.08003
1215.0,0.07818
1216.0,0.09502
1217.0,0.09075
1218.0,0.09405
1219.0,0.09166
1220.0,0.09436
1221.0,0.09664
1222.0,0.09334
1223.0,0.09158
1224.0,0.08882
1225.0,0.09549
1226.0,0.09779
1227.0,0.08492
1228.0,0.09929
1229.0,0.09784
1230.0,0.09518
1231.0,0.1012
1232.0,0.1005
1233.0,0.09259
1234.0,0.1022
1235.0,0.1008
1236.0,0.1021
1237.0,0.099
1238.0,0.1018
1239.0,0.1004
1240.0,0.1011
1241.0,0.09934
1242.0,0.1002
1243.0,0.09948
1244.0,0.09979
1245.0,0.1004
1246.0,0.09992
1247.0,0.09917
1248.0,0.09847
1249.0,0.09934
1250.0,0.09835
1251.0,0.0963
1252.0,0.09732
1253.0,0.09473
1254.0,0.09246
1255.0,0.09675
1256.0,0.09074
1257.0,0.08957
1258.0,0.09386
1259.0,0.08548
1260.0,0.08653
1261.0,0.07577
1262.0,0.07054
1263.0,0.07053
1264.0,0.05878
1265.0,0.07018
1266.0,0.06371
1267.0,0.06748
1268.0,0.05985
1269.0,0.01839
1270.0,0.06618
1271.0,0.07635
1272.0,0.07713
1273.0,0.07565
1274.0,0.07682
1275.0,0.07896
1276.0,0.08093
1277.0,0.08309
1278.0,0.08698
1279.0,0.08619
1280.0,0.08517
1281.0,0.08242
1282.0,0.0813
1283.0,0.08716
1284.0,0.08892
1285.0,0.08985
1286.0,0.09207
1287.0,0.08875
1288.0,0.08939
1289.0,0.08278
1290.0,0.08874
1291.0,0.09069
1292.0,0.07865
1293.0,0.08745
1294.0,0.08659
1295.0,0.08374
1296.0,0.07619
1297.0,0.06952
1298.0,0.08067
1299.0,0.08809
1300.0,0.06521
1301.0,0.06859
1302.0,0.0807
1303.0,0.06509
1304.0,0.04763
1305.0,0.07859
1306.0,0.0774
1307.0,0.05148
1308.0,0.06658
1309.0,0.07512
1310.0,0.04959
1311.0,0.06188
1312.0,0.05939
1313.0,0.05578
1314.0,0.04688
1315.0,0.04475
1316.0,0.05933
1317.0,0.05484
1318.0,0.0632
1319.0,0.04004
1320.0,0.04031
1321.0,0.05048
1322.0,0.04911
1323.0,0.02978
1324.0,0.03974
1325.0,0.05704
1326.0,0.04451
1327.0,0.04105
1328.0,0.0327
1329.0,0.01881
1330.0,0.02778
1331.0,0.01139
1332.0,0.01297
1333.0,0.01905
1334.0,0.02016
1335.0,0.02875
1336.0,0.01935
1337.0,0.01669
1338.0,0.01758
1339.0,0.01807
1340.0,0.01921
1341.0,0.0148
1342.0,0.01617
1343.0,0.00626
1344.0,0.004175
1345.0,0.00544
1346.0,0.001142
1347.0,0.0009551
1348.0,1.451e-05
1349.0,6.619e-05
1350.0,8.024e-05
1351.0,6.691e-06
1352.0,1.023e-06
1353.0,4.978e-08
1354.0,1.794e-07
1355.0,1.359e-09
1356.0,2.413e-08
1357.0,3.662e-08
1358.0,1.596e-09
1359.0,2.008e-10
1360.0,7.26e-10
1361.0,8.118e-13
1362.0,2.221e-15
1363.0,9.759e-10
1364.0,4.029e-10
1365.0,7.753e-16
1366.0,4.229e-09
1367.0,1.727e-09
1368.0,5.987e-18
1369.0,1.485e-10
1370.0,7.311e-11
1371.0,4.144e-12
1372.0,9.367e-10
1373.0,1.893e-08
1374.0,8.895e-08
1375.0,1.598e-07
1376.0,1.535e-07
1377.0,6.923e-08
1378.0,6.688e-07
1379.0,2.931e-08
1380.0,3.981e-08
1381.0,1.034e-09
1382.0,8.207e-10
1383.0,1.227e-11
1384.0,1.608e-10
1385.0,7.711e-10
1386.0,7.234e-10
1387.0,8.774e-08
1388.0,1.75e-09
1389.0,3.042e-07
1390.0,2.586e-07
1391.0,1.725e-07
1392.0,1.128e-08
1393.0,6.126e-08
1394.0,2.99e-08
1395.0,2.189e-10
1396.0,1.057e-12
1397.0,2.359e-08
1398.0,7.003e-07
1399.0,4.47e-07
1400.0,4.519e-13
1401.0,1.875e-12
1402.0,2.29e-06
1403.0,2.202e-06
1404.0,5.921e-07
1405.0,1.036e-10
1406.0,1.29e-06
1407.0,1.724e-07
1408.0,1.079e-06
1409.0,3.258e-07
1410.0,3.02e-07
1411.0,2.017e-06
1412.0,3.715e-06
1413.0,9.066e-05
1414.0,2.489e-07
