interpolation:linear
wavelength,value
280.0,6.75e-21
280.5,2.058e-19
281.0,1.076e-18
281.5,5.112e-19
282.0,1.436e-18
282.5,3.734e-18
283.0,1.194e-17
283.5,1.946e-17
284.0,3.079e-16
284.5,8.783e-16
285.0,1.789e-15
285.5,9.202e-15
286.0,3.728e-14
286.5,1.667e-13
287.0,4.744e-13
287.5,1.798e-12
288.0,4.681e-12
288.5,1.639e-11
289.0,4.856e-11
289.5,1.597e-10
290.0,4.686e-10
290.5,9.955e-10
291.0,2.23e-09
291.5,6.848e-09
292.0,1.669e-08
292.5,2.603e-08
293.0,6.405e-08
293.5,1.893e-07
294.0,3.418e-07
294.5,4.499e-07
295.0,8.804e-07
295.5,2.406e-06
296.0,4.794e-06
296.5,6.936e-06
297.0,9.663e-06
297.5,2.71e-05
298.0,4.445e-05
298.5,4.618e-05
299.0,0.0001052
299.5,0.000185
300.0,0.0002108
300.5,0.0003173
301.0,0.0006143
301.5,0.001053
302.0,0.000941
302.5,0.00183
303.0,0.003266
303.5,0.004092
304.0,0.00383
304.5,0.005649
305.0,0.008417
305.5,0.009532
306.0,0.009185
306.5,0.01135
307.0,0.01655
307.5,0.02163
308.0,0.02279
308.5,0.02668
309.0,0.02611
309.5,0.0295
310.0,0.02947
310.5,0.04759
311.0,0.05945
311.5,0.05727
312.0,0.05664
312.5,0.06842
313.0,0.07392
313.5,0.07206
314.0,0.08928
314.5,0.07821
315.0,0.1026
315.5,0.08632
316.0,0.07464
316.5,0.1062
317.0,0.1319
317.5,0.1377
318.0,0.1068
318.5,0.131
319.0,0.1545
319.5,0.1272
320.0,0.154
320.5,0.1903
321.0,0.1676
321.5,0.1605
322.0,0.1732
322.5,0.1506
323.0,0.1488
323.5,0.1815
324.0,0.2116
324.5,0.2156
325.0,0.187
325.5,0.239
326.0,0.2917
326.5,0.2909
327.0,0.2904
327.5,0.2811
328.0,0.2518
328.5,0.2628
329.0,0.3129
329.5,0.3545
330.0,0.3582
330.5,0.288
331.0,0.2939
331.5,0.2978
332.0,0.3201
332.5,0.316
333.0,0.3155
333.5,0.2866
334.0,0.2939
334.5,0.3377
335.0,0.3166
335.5,0.3698
336.0,0.2559
336.5,0.3001
337.0,0.2467
337.5,0.307
338.0,0.2988
338.5,0.3449
339.0,0.3413
339.5,0.3284
340.0,0.3861
340.5,0.3479
341.0,0.3394
341.5,0.3116
342.0,0.3724
342.5,0.3484
343.0,0.3833
343.5,0.361
344.0,0.2668
344.5,0.2695
345.0,0.3567
345.5,0.3642
346.0,0.3096
346.5,0.3506
347.0,0.3764
347.5,0.3044
348.0,0.347
348.5,0.3469
349.0,0.3219
349.5,0.3187
350.0,0.3943
350.5,0.416
351.0,0.3717
351.5,0.3613
352.0,0.3881
352.5,0.3029
353.0,0.3815
353.5,0.408
354.0,0.4236
354.5,0.4297
355.0,0.4283
355.5,0.387
356.0,0.405
356.5,0.3458
357.0,0.2858
357.5,0.3499
358.0,0.2773
358.5,0.237
359.0,0.3316
359.5,0.4226
360.0,0.4481
360.5,0.3582
361.0,0.3266
361.5,0.3761
362.0,0.3253
362.5,0.4503
363.0,0.4045
363.5,0.3727
364.0,0.4559
364.5,0.3897
365.0,0.397
365.5,0.4984
366.0,0.5281
366.5,0.4963
367.0,0.4834
367.5,0.5017
368.0,0.4392
368.5,0.4432
369.0,0.4787
369.5,0.5104
370.0,0.5441
370.5,0.4224
371.0,0.4514
371.5,0.5649
372.0,0.375
372.5,0.4497
373.0,0.4575
373.5,0.2977
374.0,0.4327
374.5,0.3584
375.0,0.3485
375.5,0.5203
376.0,0.4314
376.5,0.4471
377.0,0.4735
377.5,0.554
378.0,0.6006
378.5,0.5678
379.0,0.4687
379.5,0.4281
380.0,0.4452
380.5,0.5393
381.0,0.5406
381.5,0.4286
382.0,0.3807
382.5,0.3246
383.0,0.3006
383.5,0.2896
384.0,0.3195
384.5,0.47
385.0,0.4662
385.5,0.4342
386.0,0.372
386.5,0.4887
387.0,0.4062
387.5,0.4563
388.0,0.4214
388.5,0.4166
389.0,0.4498
389.5,0.5448
390.0,0.5469
390.5,0.5034
391.0,0.5926
391.5,0.6046
392.0,0.5093
392.5,0.456
393.0,0.2538
393.5,0.1845
394.0,0.3755
394.5,0.4775
395.0,0.5828
395.5,0.5921
396.0,0.5134
396.5,0.3002
397.0,0.2253
397.5,0.4583
398.0,0.6419
398.5,0.6636
399.0,0.7187
399.5,0.7165
400.0,0.7441
401.0,0.7549
402.0,0.7967
403.0,0.7571
404.0,0.7456
405.0,0.7457
406.0,0.7338
407.0,0.7221
408.0,0.7505
409.0,0.8034
410.0,0.7022
411.0,0.7608
412.0,0.8173
413.0,0.7972
414.0,0.8071
415.0,0.8094
416.0,0.8238
417.0,0.8037
418.0,0.789
419.0,0.7995
420.0,0.7961
421.0,0.833
422.0,0.7919
423.0,0.7737
424.0,0.8185
425.0,0.8171
426.0,0.7961
427.0,0.7813
428.0,0.7612
429.0,0.7212
430.0,0.6312
431.0,0.6257
432.0,0.808
433.0,0.8126
434.0,0.7546
435.0,0.7882
436.0,0.8883
437.0,0.8764
438.0,0.7982
439.0,0.8256
440.0,0.852
441.0,0.883
442.0,0.9471
443.0,0.9225
444.0,0.9426
445.0,0.9223
446.0,0.8803
447.0,0.9518
448.0,0.9667
449.0,0.9706
450.0,0.9978
451.0,1.035
452.0,0.9972
453.0,0.938
454.0,0.9793
455.0,0.9854
456.0,1.009
457.0,1.026
458.0,0.9908
459.0,0.9857
460.0,0.9884
461.0,1.011
462.0,1.019
463.0,1.012
464.0,0.9954
465.0,0.9828
466.0,0.9924
467.0,0.9743
468.0,0.9858
469.0,0.991
470.0,0.9594
471.0,0.9582
472.0,1.01
473.0,0.9966
474.0,0.9981
475.0,1.007
476.0,0.9766
477.0,0.9794
478.0,1.007
479.0,1.0
480.0,1.002
481.0,1.021
482.0,1.026
483.0,1.014
484.0,0.9933
485.0,0.9463
486.0,0.8273
487.0,0.867
488.0,0.9512
489.0,0.9542
490.0,1.004
491.0,0.9866
492.0,0.9317
493.0,0.9622
494.0,0.9718
495.0,0.9801
496.0,0.9862
497.0,1.001
498.0,0.9546
499.0,0.9669
500.0,0.9387
501.0,0.9215
502.0,0.9086
503.0,0.9456
504.0,0.9217
505.0,0.9546
506.0,0.9855
507.0,0.9377
508.0,0.9085
509.0,0.934
510.0,0.929
511.0,0.9539
512.0,0.9643
513.0,0.9127
514.0,0.9064
515.0,0.8974
516.0,0.8952
517.0,0.7955
518.0,0.8363
519.0,0.8772
520.0,0.9091
521.0,0.9177
522.0,0.9186
523.0,0.902
524.0,0.9343
525.0,0.9453
526.0,0.9031
527.0,0.851
528.0,0.9
529.0,0.9487
530.0,0.9351
531.0,0.9489
532.0,0.9163
533.0,0.8895
534.0,0.9158
535.0,0.9358
536.0,0.9444
537.0,0.9071
538.0,0.9231
539.0,0.9154
540.0,0.8776
541.0,0.8835
542.0,0.9111
543.0,0.9015
544.0,0.9172
545.0,0.9143
546.0,0.9184
547.0,0.918
548.0,0.907
549.0,0.9097
550.0,0.9205
551.0,0.9094
552.0,0.9157
553.0,0.8993
554.0,0.9208
555.0,0.9227
556.0,0.9107
557.0,0.8824
558.0,0.8757
559.0,0.8594
560.0,0.8701
561.0,0.8814
562.0,0.875
563.0,0.8989
564.0,0.8744
565.0,0.8669
566.0,0.8541
567.0,0.8703
568.0,0.8625
569.0,0.842
570.0,0.8418
571.0,0.8367
572.0,0.8568
573.0,0.866
574.0,0.8632
575.0,0.8471
576.0,0.8393
577.0,0.8485
578.0,0.8358
579.0,0.8391
580.0,0.8551
581.0,0.8595
582.0,0.8758
583.0,0.8779
584.0,0.8856
585.0,0.864
586.0,0.8462
587.0,0.8647
588.0,0.8437
589.0,0.7474
590.0,0.7816
591.0,0.8271
592.0,0.8166
593.0,0.8288
594.0,0.823
595.0,0.8026
596.0,0.8344
597.0,0.8253
598.0,0.8232
599.0,0.824
600.0,0.8252
601.0,0.8185
602.0,0.8129
603.0,0.8264
604.0,0.84
605.0,0.8357
606.0,0.8323
607.0,0.8405
608.0,0.8313
609.0,0.8327
610.0,0.8268
611.0,0.8311
612.0,0.8287
613.0,0.8182
614.0,0.8071
615.0,0.8247
616.0,0.7975
617.0,0.7959
618.0,0.8265
619.0,0.8182
620.0,0.8233
621.0,0.8241
622.0,0.8145
623.0,0.8021
624.0,0.7883
625.0,0.7866
626.0,0.7982
627.0,0.8071
628.0,0.7534
629.0,0.7879
630.0,0.7697
631.0,0.7872
632.0,0.7778
633.0,0.8015
634.0,0.7937
635.0,0.8061
636.0,0.7955
637.0,0.8085
638.0,0.8163
639.0,0.8072
640.0,0.7994
641.0,0.7989
642.0,0.7953
643.0,0.806
644.0,0.8034
645.0,0.8047
646.0,0.7859
647.0,0.7764
648.0,0.7771
649.0,0.7621
650.0,0.7659
651.0,0.7991
652.0,0.7657
653.0,0.7885
654.0,0.7798
655.0,0.7507
656.0,0.6654
657.0,0.6833
658.0,0.7658
659.0,0.7713
660.0,0.7745
661.0,0.78
662.0,0.7815
663.0,0.7661
664.0,0.7752
665.0,0.7758
666.0,0.7764
667.0,0.7757
668.0,0.7761
669.0,0.7881
670.0,0.7847
671.0,0.7845
672.0,0.7778
673.0,0.7896
674.0,0.7866
675.0,0.7795
676.0,0.7848
677.0,0.777
678.0,0.7792
679.0,0.7667
680.0,0.7728
681.0,0.7677
682.0,0.7667
683.0,0.7653
684.0,0.7615
685.0,0.768
686.0,0.7634
687.0,0.5051
688.0,0.5928
689.0,0.595
690.0,0.6243
691.0,0.6574
692.0,0.6816
693.0,0.676
694.0,0.6704
695.0,0.6983
696.0,0.6993
697.0,0.7424
698.0,0.7308
699.0,0.7132
700.0,0.7046
701.0,0.6974
702.0,0.7022
703.0,0.7036
704.0,0.7262
705.0,0.7273
706.0,0.7267
707.0,0.7272
708.0,0.7288
709.0,0.7299
710.0,0.7298
711.0,0.7289
712.0,0.7267
713.0,0.7194
714.0,0.7221
715.0,0.6992
716.0,0.6996
717.0,0.6062
718.0,0.5566
719.0,0.5098
720.0,0.534
721.0,0.5899
722.0,0.6753
723.0,0.6284
724.0,0.5659
725.0,0.5567
726.0,0.5829
727.0,0.5913
728.0,0.5553
729.0,0.5764
730.0,0.6099
731.0,0.5834
732.0,0.6243
733.0,0.6611
734.0,0.6768
735.0,0.6628
736.0,0.6619
737.0,0.6646
738.0,0.675
739.0,0.6617
740.0,0.679
741.0,0.6723
742.0,0.6729
743.0,0.6901
744.0,0.6881
745.0,0.6883
746.0,0.6914
747.0,0.6929
748.0,0.6915
749.0,0.6836
750.0,0.6832
751.0,0.6763
752.0,0.6792
753.0,0.6826
754.0,0.6842
755.0,0.6803
756.0,0.68
757.0,0.681
758.0,0.6725
759.0,0.6587
760.0,0.107
761.0,0.05552
762.0,0.3338
763.0,0.1647
764.0,0.2494
765.0,0.3338
766.0,0.4115
767.0,0.521
768.0,0.6027
769.0,0.6157
770.0,0.637
771.0,0.6423
772.0,0.6437
773.0,0.6482
774.0,0.6451
775.0,0.6402
776.0,0.648
777.0,0.6395
778.0,0.6356
779.0,0.6361
780.0,0.6326
781.0,0.6332
782.0,0.6372
783.0,0.6261
784.0,0.6291
785.0,0.6244
786.0,0.6313
787.0,0.6201
788.0,0.6124
789.0,0.6121
790.0,0.5956
791.0,0.601
792.0,0.5966
793.0,0.5869
794.0,0.5971
795.0,0.6072
796.0,0.5883
797.0,0.589
798.0,0.6064
799.0,0.6025
800.0,0.592
801.0,0.5901
802.0,0.5884
803.0,0.5839
804.0,0.5847
805.0,0.5829
806.0,0.5994
807.0,0.5922
808.0,0.5927
809.0,0.5815
810.0,0.5767
811.0,0.5772
812.0,0.5606
813.0,0.5488
814.0,0.4822
815.0,0.4793
816.0,0.446
817.0,0.4542
818.0,0.4371
819.0,0.4892
820.0,0.4605
821.0,0.5391
822.0,0.5235
823.0,0.3548
824.0,0.508
825.0,0.5297
826.0,0.5093
827.0,0.5378
828.0,0.4552
829.0,0.5063
830.0,0.4996
831.0,0.5014
832.0,0.4858
833.0,0.5173
834.0,0.4987
835.0,0.5485
836.0,0.5246
837.0,0.55
838.0,0.5327
839.0,0.5418
840.0,0.5537
841.0,0.5457
842.0,0.5471
843.0,0.5469
844.0,0.5392
845.0,0.5576
846.0,0.5552
847.0,0.5449
848.0,0.5414
849.0,0.526
850.0,0.504
851.0,0.5335
852.0,0.5298
853.0,0.51
854.0,0.4403
855.0,0.4839
856.0,0.5287
857.0,0.5406
858.0,0.5366
859.0,0.5371
860.0,0.5381
861.0,0.5351
862.0,0.5435
863.0,0.5564
864.0,0.5286
865.0,0.524
866.0,0.4711
867.0,0.4916
868.0,0.535
869.0,0.5239
870.0,0.5389
871.0,0.5315
872.0,0.5296
873.0,0.5286
874.0,0.5223
875.0,0.5117
876.0,0.517
877.0,0.5223
878.0,0.5279
879.0,0.5198
880.0,0.5087
881.0,0.501
882.0,0.5118
883.0,0.5135
884.0,0.5111
885.0,0.5149
886.0,0.4906
887.0,0.4959
888.0,0.5031
889.0,0.5091
890.0,0.5045
891.0,0.5038
892.0,0.489
893.0,0.4733
894.0,0.456
895.0,0.43
896.0,0.4047
897.0,0.3465
898.0,0.3788
899.0,0.2867
900.0,0.3885
901.0,0.3006
902.0,0.3546
903.0,0.3575
904.0,0.4525
905.0,0.4366
906.0,0.4083
907.0,0.33
908.0,0.3368
909.0,0.3656
910.0,0.3218
911.0,0.344
912.0,0.3599
913.0,0.3265
914.0,0.324
915.0,0.3513
916.0,0.297
917.0,0.3786
918.0,0.3044
919.0,0.3859
920.0,0.3908
921.0,0.4065
922.0,0.3623
923.0,0.3928
924.0,0.3711
925.0,0.3631
926.0,0.367
927.0,0.412
928.0,0.2988
929.0,0.2718
930.0,0.2119
931.0,0.201
932.0,0.143
933.0,0.1153
934.0,0.06126
935.0,0.1187
936.0,0.07289
937.0,0.07374
938.0,0.09118
939.0,0.1947
940.0,0.2355
941.0,0.176
942.0,0.2049
943.0,0.1334
944.0,0.1417
945.0,0.1818
946.0,0.09065
947.0,0.1822
948.0,0.1336
949.0,0.2457
950.0,0.06538
951.0,0.2423
952.0,0.1276
953.0,0.1665
954.0,0.2061
955.0,0.1687
956.0,0.1649
957.0,0.1276
958.0,0.2362
959.0,0.1855
960.0,0.208
961.0,0.2351
962.0,0.2222
963.0,0.2576
964.0,0.2355
965.0,0.2568
966.0,0.2565
967.0,0.2553
968.0,0.3474
969.0,0.3624
970.0,0.3322
971.0,0.3825
972.0,0.3654
973.0,0.3159
974.0,0.2995
975.0,0.3118
976.0,0.2948
977.0,0.3379
978.0,0.32
979.0,0.3359
980.0,0.3154
981.0,0.3803
982.0,0.3628
983.0,0.3478
984.0,0.3929
985.0,0.3615
986.0,0.4003
987.0,0.3919
988.0,0.3912
989.0,0.3995
990.0,0.3888
991.0,0.4006
992.0,0.403
993.0,0.3934
994.0,0.403
995.0,0.4026
996.0,0.4007
997.0,0.4013
998.0,0.3994
999.0,0.3979
1000.0,0.395
1001.0,0.4001
1002.0,0.3884
1003.0,0.393
1004.0,0.3832
1005.0,0.3694
1006.0,0.3837
1007.0,0.3919
1008.0,0.3897
1009.0,0.3874
1010.0,0.3857
1011.0,0.3899
1012.0,0.3864
1013.0,0.389
1014.0,0.3863
1015.0,0.3837
1016.0,0.382
1017.0,0.3829
1018.0,0.3816
1019.0,0.3732
1020.0,0.3795
1021.0,0.379
1022.0,0.376
1023.0,0.38
1024.0,0.3748
1025.0,0.3798
1026.0,0.3781
1027.0,0.3772
1028.0,0.3764
1029.0,0.372
1030.0,0.3746
1031.0,0.3731
1032.0,0.372
1033.0,0.3664
1034.0,0.3664
1035.0,0.3676
1036.0,0.3694
1037.0,0.3634
1038.0,0.365
1039.0,0.3648
1040.0,0.3633
1041.0,0.3648
1042.0,0.3622
1043.0,0.3611
1044.0,0.3623
1045.0,0.3574
1046.0,0.3534
1047.0,0.3566
1048.0,0.3585
1049.0,0.3572
1050.0,0.3555
1051.0,0.355
1052.0,0.3535
1053.0,0.3507
1054.0,0.3514
1055.0,0.3516
1056.0,0.3503
1057.0,0.3492
1058.0,0.3406
1059.0,0.3409
1060.0,0.3403
1061.0,0.3399
1062.0,0.3416
1063.0,0.3383
1064.0,0.3423
1065.0,0.3397
1066.0,0.3331
1067.0,0.3373
1068.0,0.3299
1069.0,0.3198
1070.0,0.3306
1071.0,0.3359
1072.0,0.3319
1073.0,0.3271
1074.0,0.3358
1075.0,0.3183
1076.0,0.3355
1077.0,0.3291
1078.0,0.3227
1079.0,0.3303
1080.0,0.3241
1081.0,0.3133
1082.0,0.319
1083.0,0.3201
1084.0,0.3124
1085.0,0.3249
1086.0,0.2954
1087.0,0.3057
1088.0,0.3196
1089.0,0.3092
1090.0,0.3019
1091.0,0.3184
1092.0,0.3177
1093.0,0.2675
1094.0,0.2905
1095.0,0.2789
1096.0,0.2665
1097.0,0.3104
1098.0,0.2621
1099.0,0.2737
1100.0,0.2536
1101.0,0.257
1102.0,0.245
1103.0,0.2422
1104.0,0.2426
1105.0,0.2673
1106.0,0.2012
1107.0,0.2532
1108.0,0.2127
1109.0,0.2135
1110.0,0.2507
1111.0,0.1675
1112.0,0.212
1113.0,0.1323
1114.0,0.1481
1115.0,0.1226
1116.0,0.0963
1117.0,0.03364
1118.0,0.1053
1119.0,0.05083
1120.0,0.06388
1121.0,0.08565
1122.0,0.0348
1123.0,0.05779
1124.0,0.04875
1125.0,0.06396
1126.0,0.02104
1127.0,0.07226
1128.0,0.04188
1129.0,0.04463
1130.0,0.02887
1131.0,0.1403
1132.0,0.1095
1133.0,0.06759
1134.0,0.01628
1135.0,0.006161
1136.0,0.05575
1137.0,0.1373
1138.0,0.09634
1139.0,0.1471
1140.0,0.1216
1141.0,0.09158
1142.0,0.1061
1143.0,0.152
1144.0,0.05143
1145.0,0.06523
1146.0,0.07033
1147.0,0.02347
1148.0,0.1315
1149.0,0.104
1150.0,0.0555
1151.0,0.09557
1152.0,0.1189
1153.0,0.1168
1154.0,0.06305
1155.0,0.1534
1156.0,0.1375
1157.0,0.1554
1158.0,0.1537
1159.0,0.1666
1160.0,0.1415
1161.0,0.1761
1162.0,0.1768
1163.0,0.2415
1164.0,0.2062
1165.0,0.1936
1166.0,0.1929
1167.0,0.2106
1168.0,0.2127
1169.0,0.2181
1170.0,0.2377
1171.0,0.2317
1172.0,0.2363
1173.0,0.2372
1174.0,0.1677
1175.0,0.232
1176.0,0.2559
1177.0,0.2451
1178.0,0.1829
1179.0,0.258
1180.0,0.2294
1181.0,0.2368
1182.0,0.1622
1183.0,0.2334
1184.0,0.2183
1185.0,0.2103
1186.0,0.2505
1187.0,0.2382
1188.0,0.1647
1189.0,0.2219
1190.0,0.2448
1191.0,0.2319
1192.0,0.2483
1193.0,0.2377
1194.0,0.2452
1195.0,0.2315
1196.0,0.2227
1197.0,0.2455
1198.0,0.2244
1199.0,0.19
1200.0,0.2347
1201.0,0.2261
1202.0,0.225
1203.0,0.223
1204.0,0.1946
1205.0,0.2305
1206.0,0.255
1207.0,0.2243
1208.0,0.221
1209.0,0.2256
1210.0,0.2352
1211.0,0.2237
1212.0,0.2207
1213.0,0.2464
1214.0,0.2261
1215.0,0.2218
1216.0,0.2457
1217.0,0.239
1218.0,0.2437
1219.0,0.2406
1220.0,0.2439
1221.0,0.2464
1222.0,0.24
1223.0,0.2377
1224.0,0.2361
1225.0,0.2448
1226.0,0.2466
1227.0,0.2271
1228.0,0.2479
1229.0,0.2466
1230.0,0.2423
1231.0,0.2494
1232.0,0.248
1233.0,0.2392
1234.0,0.2493
1235.0,0.2477
1236.0,0.2495
1237.0,0.2459
1238.0,0.2487
1239.0,0.2455
1240.0,0.2464
1241.0,0.2452
1242.0,0.2447
1243.0,0.2427
1244.0,0.2444
1245.0,0.2455
1246.0,0.2441
1247.0,0.2431
1248.0,0.2429
1249.0,0.2437
1250.0,0.2422
1251.0,0.239
1252.0,0.2391
1253.0,0.2371
1254.0,0.2347
1255.0,0.2389
1256.0,0.232
1257.0,0.2307
1258.0,0.2351
1259.0,0.2263
1260.0,0.2275
1261.0,0.2144
1262.0,0.2078
1263.0,0.2082
1264.0,0.1917
1265.0,0.2068
1266.0,0.1988
1267.0,0.2024
1268.0,0.1917
1269.0,0.117
1270.0,0.2016
1271.0,0.2137
1272.0,0.2145
1273.0,0.2122
1274.0,0.2129
1275.0,0.216
1276.0,0.2182
1277.0,0.2198
1278.0,0.2241
1279.0,0.2221
1280.0,0.2193
1281.0,0.2093
1282.0,0.2018
1283.0,0.2173
1284.0,0.2225
1285.0,0.224
1286.0,0.227
1287.0,0.2234
1288.0,0.2234
1289.0,0.2161
1290.0,0.2215
1291.0,0.2246
1292.0,0.2106
1293.0,0.2201
1294.0,0.2185
1295.0,0.2174
1296.0,0.2073
1297.0,0.1958
1298.0,0.2112
1299.0,0.2204
1300.0,0.1858
1301.0,0.1917
1302.0,0.2106
1303.0,0.1835
1304.0,0.1558
1305.0,0.2062
1306.0,0.2062
1307.0,0.1594
1308.0,0.1839
1309.0,0.2045
1310.0,0.1563
1311.0,0.1761
1312.0,0.1712
1313.0,0.1678
1314.0,0.1499
1315.0,0.1478
1316.0,0.1732
1317.0,0.164
1318.0,0.1785
1319.0,0.1386
1320.0,0.1345
1321.0,0.157
1322.0,0.1584
1323.0,0.1183
1324.0,0.136
1325.0,0.1707
1326.0,0.1459
1327.0,0.139
1328.0,0.1196
1329.0,0.08896
1330.0,0.1162
1331.0,0.0691
1332.0,0.07172
1333.0,0.1001
1334.0,0.08531
1335.0,0.1178
1336.0,0.09261
1337.0,0.0816
1338.0,0.0883
1339.0,0.08807
1340.0,0.08596
1341.0,0.08323
1342.0,0.08749
1343.0,0.05781
1344.0,0.03471
1345.0,0.05013
1346.0,0.02398
1347.0,0.02423
1348.0,0.001448
1349.0,0.005325
1350.0,0.005625
1351.0,0.00127
1352.0,0.0003163
1353.0,1.487e-05
1354.0,5.416e-05
1355.0,3.678e-07
1356.0,7.226e-06
1357.0,1.103e-05
1358.0,4.387e-07
1359.0,4.858e-08
1360.0,1.917e-07
1361.0,1.63e-10
1362.0,3.983e-13
1363.0,2.491e-07
1364.0,1.027e-07
1365.0,1.203e-13
1366.0,1.128e-06
1367.0,4.739e-07
1368.0,6.948e-16
1369.0,3.816e-08
1370.0,1.783e-08
1371.0,9.481e-10
1372.0,2.611e-07
1373.0,5.762e-06
1374.0,2.847e-05
1375.0,5.156e-05
1376.0,4.891e-05
1377.0,2.211e-05
1378.0,0.0002223
1379.0,9.279e-06
1380.0,1.287e-05
1381.0,3.248e-07
1382.0,2.318e-07
1383.0,3.314e-09
1384.0,4.221e-08
1385.0,2.336e-07
1386.0,1.988e-07
1387.0,2.845e-05
1388.0,5.626e-07
1389.0,0.0001035
1390.0,8.89e-05
1391.0,5.859e-05
1392.0,3.739e-06
1393.0,2.052e-05
1394.0,9.599e-06
1395.0,6.594e-08
1396.0,2.439e-10
1397.0,7.978e-06
1398.0,0.000248
1399.0,0.0001577
1400.0,9.797e-11
1401.0,4.508e-10
1402.0,0.0004798
1403.0,0.000593
1404.0,0.0001793
1405.0,3.063e-08
1406.0,0.0004534
1407.0,4.097e-05
1408.0,0.0003729
1409.0,0.0001188
1410.0,9.86e-05
1411.0,0.0005233
1412.0,0.0007242
1413.0,0.008073
1414.0,7.834e-05
1415.0,3.669e-05
1416.0,0.01402
1417.0,0.003981
1418.0,0.004484
1419.0,0.0006849
1420.0,0.002735
1421.0,0.002966
1422.0,0.01836
1423.0,0.00349
1424.0,0.006616
1425.0,0.009607
1426.0,0.01122
1427.0,0.02138
1428.0,0.001349
1429.0,0.01562
1430.0,0.02758
1431.0,0.03055
1432.0,0.001057
1433.0,0.01908
1434.0,0.009535
1435.0,0.00895
1436.0,0.01817
1437.0,0.01394
1438.0,0.00564
1439.0,0.02511
1440.0,0.0188
1441.0,0.01384
