interpolation:linear
wavelength,value
280.0,5.5489999999999995e-22
280.5,1.1390000000000002e-20
281.0,5.2220000000000004e-20
281.5,1.125e-18
282.0,7.223e-18
282.5,2.398e-17
283.0,9.092e-17
283.5,1.578e-16
284.0,2.973e-15
284.5,8.878e-15
285.0,2.514e-14
285.5,1.686e-13
286.0,7.387e-13
286.5,3.773e-12
287.0,1.159e-11
287.5,4.761e-11
288.0,1.639e-10
288.5,6.104e-10
289.0,1.918e-09
289.5,6.686e-09
290.0,2.054e-08
290.5,4.532e-08
291.0,1.06e-07
291.5,3.377e-07
292.0,7.631e-07
292.5,1.106e-06
293.0,2.465e-06
293.5,6.306e-06
294.0,1.024e-05
294.5,1.996e-05
295.0,3.531e-05
295.5,7.387e-05
296.0,0.0001309
296.5,0.0001684
297.0,0.0002129
297.5,0.0005158
298.0,0.000746
298.5,0.0007025
299.0,0.001453
299.5,0.002155
300.0,0.002228
300.5,0.003029
301.0,0.004947
301.5,0.007191
302.0,0.005872
302.5,0.01072
303.0,0.01767
303.5,0.02109
304.0,0.01913
304.5,0.02608
305.0,0.03495
305.5,0.03708
306.0,0.03484
306.5,0.04134
307.0,0.05525
307.5,0.06659
308.0,0.06922
308.5,0.07796
309.0,0.07363
309.5,0.07873
310.0,0.07662
310.5,0.1221
311.0,0.1493
311.5,0.1424
312.0,0.1345
312.5,0.1575
313.0,0.1674
313.5,0.1655
314.0,0.1976
314.5,0.165
315.0,0.2144
315.5,0.1845
316.0,0.1534
316.5,0.2112
317.0,0.2623
317.5,0.2761
318.0,0.2092
318.5,0.2459
319.0,0.2838
319.5,0.2416
320.0,0.2938
320.5,0.3477
321.0,0.2945
321.5,0.2809
322.0,0.3156
322.5,0.2737
323.0,0.2632
323.5,0.3126
324.0,0.3626
324.5,0.3734
325.0,0.3287
325.5,0.4109
326.0,0.4973
326.5,0.4887
327.0,0.4902
327.5,0.4774
328.0,0.4357
328.5,0.4441
329.0,0.5192
329.5,0.5851
330.0,0.5933
330.5,0.4833
331.0,0.4953
331.5,0.4964
332.0,0.5258
332.5,0.5155
333.0,0.5164
333.5,0.474
334.0,0.4865
334.5,0.5521
335.0,0.5139
335.5,0.5999
336.0,0.4149
336.5,0.488
337.0,0.4029
337.5,0.5022
338.0,0.4838
338.5,0.5579
339.0,0.5519
339.5,0.5306
340.0,0.6237
340.5,0.5613
341.0,0.5475
341.5,0.5024
342.0,0.6001
342.5,0.5611
343.0,0.6171
343.5,0.5811
344.0,0.429
344.5,0.4334
345.0,0.5731
345.5,0.5847
346.0,0.4967
346.5,0.5621
347.0,0.6034
347.5,0.4877
348.0,0.5557
348.5,0.5552
349.0,0.5147
349.5,0.5094
350.0,0.6298
350.5,0.6642
351.0,0.5933
351.5,0.5766
352.0,0.619
352.5,0.4828
353.0,0.6077
353.5,0.6496
354.0,0.6742
354.5,0.6836
355.0,0.6812
355.5,0.6151
356.0,0.6433
356.5,0.5492
357.0,0.4538
357.5,0.5554
358.0,0.4401
358.5,0.376
359.0,0.5259
359.5,0.6702
360.0,0.7103
360.5,0.5675
361.0,0.5172
361.5,0.5951
362.0,0.5143
362.5,0.7113
363.0,0.6386
363.5,0.5879
364.0,0.7188
364.5,0.6142
365.0,0.6254
365.5,0.7847
366.0,0.8311
366.5,0.7806
367.0,0.76
367.5,0.7886
368.0,0.6899
368.5,0.6959
369.0,0.7514
369.5,0.8007
370.0,0.8533
370.5,0.6621
371.0,0.7073
371.5,0.8847
372.0,0.5871
372.5,0.7038
373.0,0.7157
373.5,0.4655
374.0,0.6763
374.5,0.5599
375.0,0.5442
375.5,0.8124
376.0,0.6734
376.5,0.6978
377.0,0.7386
377.5,0.8639
378.0,0.9364
378.5,0.885
379.0,0.7304
379.5,0.6672
380.0,0.6936
380.5,0.8398
381.0,0.8413
381.5,0.6666
382.0,0.5918
382.5,0.5043
383.0,0.4668
383.5,0.4495
384.0,0.4957
384.5,0.729
385.0,0.7228
385.5,0.6729
386.0,0.5762
386.5,0.7567
387.0,0.6287
387.5,0.7061
388.0,0.6518
388.5,0.6442
389.0,0.6953
389.5,0.842
390.0,0.8448
390.5,0.7774
391.0,0.9149
391.5,0.9331
392.0,0.7858
392.5,0.7033
393.0,0.3913
393.5,0.2843
394.0,0.5785
394.5,0.7354
395.0,0.8973
395.5,0.9114
396.0,0.7901
396.5,0.4617
397.0,0.3464
397.5,0.7045
398.0,0.9866
398.5,1.02
399.0,1.104
399.5,1.1
400.0,1.142
401.0,1.162
402.0,1.225
403.0,1.163
404.0,1.145
405.0,1.145
406.0,1.126
407.0,1.107
408.0,1.15
409.0,1.231
410.0,1.075
411.0,1.164
412.0,1.249
413.0,1.218
414.0,1.232
415.0,1.235
416.0,1.256
417.0,1.225
418.0,1.202
419.0,1.217
420.0,1.212
421.0,1.267
422.0,1.204
423.0,1.176
424.0,1.244
425.0,1.241
426.0,1.208
427.0,1.185
428.0,1.154
429.0,1.092
430.0,0.9557
431.0,0.9474
432.0,1.223
433.0,1.229
434.0,1.141
435.0,1.192
436.0,1.342
437.0,1.323
438.0,1.204
439.0,1.246
440.0,1.285
441.0,1.331
442.0,1.427
443.0,1.391
444.0,1.42
445.0,1.389
446.0,1.325
447.0,1.431
448.0,1.454
449.0,1.459
450.0,1.499
451.0,1.554
452.0,1.497
453.0,1.408
454.0,1.469
455.0,1.478
456.0,1.512
457.0,1.537
458.0,1.485
459.0,1.477
460.0,1.481
461.0,1.515
462.0,1.526
463.0,1.516
464.0,1.49
465.0,1.47
466.0,1.483
467.0,1.456
468.0,1.473
469.0,1.481
470.0,1.434
471.0,1.432
472.0,1.509
473.0,1.489
474.0,1.492
475.0,1.506
476.0,1.462
477.0,1.467
478.0,1.507
479.0,1.497
480.0,1.499
481.0,1.526
482.0,1.533
483.0,1.513
484.0,1.481
485.0,1.411
486.0,1.233
487.0,1.291
488.0,1.416
489.0,1.421
490.0,1.495
491.0,1.468
492.0,1.386
493.0,1.432
494.0,1.446
495.0,1.458
496.0,1.467
497.0,1.49
498.0,1.42
499.0,1.438
500.0,1.397
501.0,1.372
502.0,1.354
503.0,1.411
504.0,1.379
505.0,1.425
506.0,1.471
507.0,1.4
508.0,1.355
509.0,1.392
510.0,1.383
511.0,1.42
512.0,1.435
513.0,1.358
514.0,1.348
515.0,1.334
516.0,1.331
517.0,1.183
518.0,1.243
519.0,1.304
520.0,1.352
521.0,1.365
522.0,1.366
523.0,1.342
524.0,1.391
525.0,1.408
526.0,1.345
527.0,1.269
528.0,1.342
529.0,1.415
530.0,1.395
531.0,1.416
532.0,1.368
533.0,1.328
534.0,1.367
535.0,1.396
536.0,1.408
537.0,1.352
538.0,1.376
539.0,1.365
540.0,1.309
541.0,1.318
542.0,1.36
543.0,1.345
544.0,1.369
545.0,1.365
546.0,1.372
547.0,1.37
548.0,1.353
549.0,1.357
550.0,1.373
551.0,1.356
552.0,1.366
553.0,1.342
554.0,1.374
555.0,1.377
556.0,1.359
557.0,1.317
558.0,1.308
559.0,1.284
560.0,1.301
561.0,1.318
562.0,1.309
563.0,1.346
564.0,1.31
565.0,1.299
566.0,1.28
567.0,1.306
568.0,1.296
569.0,1.269
570.0,1.268
571.0,1.26
572.0,1.293
573.0,1.307
574.0,1.303
575.0,1.28
576.0,1.268
577.0,1.282
578.0,1.261
579.0,1.264
580.0,1.285
581.0,1.29
582.0,1.312
583.0,1.314
584.0,1.324
585.0,1.292
586.0,1.265
587.0,1.294
588.0,1.268
589.0,1.133
590.0,1.184
591.0,1.247
592.0,1.235
593.0,1.249
594.0,1.242
595.0,1.215
596.0,1.254
597.0,1.243
598.0,1.237
599.0,1.237
600.0,1.237
601.0,1.225
602.0,1.217
603.0,1.236
604.0,1.256
605.0,1.249
606.0,1.243
607.0,1.255
608.0,1.24
609.0,1.241
610.0,1.232
611.0,1.238
612.0,1.234
613.0,1.218
614.0,1.2
615.0,1.226
616.0,1.185
617.0,1.182
618.0,1.227
619.0,1.215
620.0,1.222
621.0,1.224
622.0,1.21
623.0,1.193
624.0,1.172
625.0,1.169
626.0,1.186
627.0,1.201
628.0,1.143
629.0,1.18
630.0,1.154
631.0,1.173
632.0,1.157
633.0,1.19
634.0,1.176
635.0,1.193
636.0,1.176
637.0,1.194
638.0,1.204
639.0,1.19
640.0,1.177
641.0,1.176
642.0,1.17
643.0,1.185
644.0,1.181
645.0,1.183
646.0,1.158
647.0,1.15
648.0,1.152
649.0,1.13
650.0,1.128
651.0,1.175
652.0,1.135
653.0,1.159
654.0,1.146
655.0,1.107
656.0,0.9784
657.0,1.004
658.0,1.123
659.0,1.13
660.0,1.135
661.0,1.142
662.0,1.146
663.0,1.123
664.0,1.134
665.0,1.133
666.0,1.134
667.0,1.132
668.0,1.132
669.0,1.149
670.0,1.143
671.0,1.143
672.0,1.133
673.0,1.149
674.0,1.145
675.0,1.134
676.0,1.141
677.0,1.13
678.0,1.133
679.0,1.114
680.0,1.123
681.0,1.115
682.0,1.114
683.0,1.112
684.0,1.106
685.0,1.115
686.0,1.109
687.0,0.831
688.0,0.9275
689.0,0.9294
690.0,0.9596
691.0,0.9931
692.0,1.016
693.0,1.009
694.0,1.001
695.0,1.031
696.0,1.033
697.0,1.082
698.0,1.065
699.0,1.049
700.0,1.036
701.0,1.029
702.0,1.032
703.0,1.034
704.0,1.062
705.0,1.063
706.0,1.06
707.0,1.06
708.0,1.063
709.0,1.061
710.0,1.062
711.0,1.06
712.0,1.055
713.0,1.046
714.0,1.05
715.0,1.02
716.0,1.021
717.0,0.9207
718.0,0.8525
719.0,0.7851
720.0,0.8245
721.0,0.888
722.0,0.9918
723.0,0.936
724.0,0.8576
725.0,0.8488
726.0,0.8854
727.0,0.8902
728.0,0.8481
729.0,0.8671
730.0,0.9166
731.0,0.8814
732.0,0.9294
733.0,0.9709
734.0,0.9905
735.0,0.9718
736.0,0.9703
737.0,0.9746
738.0,0.9814
739.0,0.9623
740.0,0.9848
741.0,0.9735
742.0,0.9729
743.0,0.9972
744.0,0.9935
745.0,0.9929
746.0,0.9975
747.0,0.9995
748.0,0.9973
749.0,0.9859
750.0,0.9852
751.0,0.9752
752.0,0.9793
753.0,0.9842
754.0,0.9864
755.0,0.9808
756.0,0.9803
757.0,0.9818
758.0,0.9697
759.0,0.9548
760.0,0.2653
761.0,0.1671
762.0,0.5875
763.0,0.3592
764.0,0.4803
765.0,0.588
766.0,0.6731
767.0,0.8028
768.0,0.8907
769.0,0.9016
770.0,0.9235
771.0,0.9271
772.0,0.9278
773.0,0.934
774.0,0.9292
775.0,0.922
776.0,0.9331
777.0,0.9208
778.0,0.9152
779.0,0.916
780.0,0.9107
781.0,0.9116
782.0,0.9172
783.0,0.9012
784.0,0.9054
785.0,0.899
786.0,0.9092
787.0,0.8969
788.0,0.8875
789.0,0.8877
790.0,0.8695
791.0,0.8718
792.0,0.8647
793.0,0.8513
794.0,0.8602
795.0,0.8762
796.0,0.8566
797.0,0.8578
798.0,0.8759
799.0,0.8717
800.0,0.8584
801.0,0.8572
802.0,0.8546
803.0,0.849
804.0,0.8493
805.0,0.8446
806.0,0.8649
807.0,0.8553
808.0,0.8557
809.0,0.8422
810.0,0.8372
811.0,0.8416
812.0,0.8227
813.0,0.809
814.0,0.7296
815.0,0.7246
816.0,0.6773
817.0,0.6873
818.0,0.6656
819.0,0.7283
820.0,0.6922
821.0,0.7877
822.0,0.7688
823.0,0.5576
824.0,0.7535
825.0,0.7752
826.0,0.7522
827.0,0.7869
828.0,0.6864
829.0,0.7463
830.0,0.7386
831.0,0.7404
832.0,0.7213
833.0,0.7572
834.0,0.7368
835.0,0.7958
836.0,0.7701
837.0,0.7975
838.0,0.7763
839.0,0.7847
840.0,0.8009
841.0,0.7912
842.0,0.7904
843.0,0.7875
844.0,0.7779
845.0,0.8023
846.0,0.7984
847.0,0.7828
848.0,0.779
849.0,0.7569
850.0,0.725
851.0,0.7688
852.0,0.7629
853.0,0.7334
854.0,0.634
855.0,0.6954
856.0,0.7604
857.0,0.7767
858.0,0.7713
859.0,0.7715
860.0,0.7725
861.0,0.7684
862.0,0.7803
863.0,0.7987
864.0,0.7587
865.0,0.752
866.0,0.6762
867.0,0.7056
868.0,0.7678
869.0,0.7518
870.0,0.7732
871.0,0.7627
872.0,0.76
873.0,0.7584
874.0,0.7494
875.0,0.7342
876.0,0.7419
877.0,0.7494
878.0,0.7577
879.0,0.746
880.0,0.73
881.0,0.7196
882.0,0.7353
883.0,0.7371
884.0,0.7339
885.0,0.7395
886.0,0.7066
887.0,0.7127
888.0,0.7242
889.0,0.7307
890.0,0.7266
891.0,0.7243
892.0,0.7059
893.0,0.6871
894.0,0.669
895.0,0.64
896.0,0.6068
897.0,0.5323
898.0,0.5743
899.0,0.4507
900.0,0.5814
901.0,0.4717
902.0,0.5354
903.0,0.5464
904.0,0.664
905.0,0.6447
906.0,0.6063
907.0,0.5089
908.0,0.5168
909.0,0.5518
910.0,0.5021
911.0,0.5268
912.0,0.5472
913.0,0.5102
914.0,0.5034
915.0,0.5439
916.0,0.4653
917.0,0.5742
918.0,0.4773
919.0,0.5812
920.0,0.5803
921.0,0.6016
922.0,0.5479
923.0,0.5807
924.0,0.562
925.0,0.5501
926.0,0.556
927.0,0.6127
928.0,0.4773
929.0,0.4432
930.0,0.3607
931.0,0.3395
932.0,0.257
933.0,0.2161
934.0,0.1338
935.0,0.2152
936.0,0.1438
937.0,0.1473
938.0,0.1772
939.0,0.329
940.0,0.3872
941.0,0.3041
942.0,0.3442
943.0,0.2359
944.0,0.2402
945.0,0.3115
946.0,0.1715
947.0,0.3161
948.0,0.2346
949.0,0.4102
950.0,0.1349
951.0,0.4017
952.0,0.2332
953.0,0.2897
954.0,0.3429
955.0,0.2917
956.0,0.278
957.0,0.2353
958.0,0.3757
959.0,0.3116
960.0,0.3487
961.0,0.3815
962.0,0.3624
963.0,0.4091
964.0,0.3778
965.0,0.4064
966.0,0.4087
967.0,0.4077
968.0,0.5175
969.0,0.5423
970.0,0.5023
971.0,0.5623
972.0,0.5403
973.0,0.4831
974.0,0.4607
975.0,0.4729
976.0,0.4557
977.0,0.5056
978.0,0.4858
979.0,0.5045
980.0,0.4772
981.0,0.5584
982.0,0.5385
983.0,0.5197
984.0,0.5704
985.0,0.5363
986.0,0.5775
987.0,0.5693
988.0,0.5683
989.0,0.5739
990.0,0.5646
991.0,0.5759
992.0,0.579
993.0,0.5692
994.0,0.5784
995.0,0.5773
996.0,0.5752
997.0,0.5758
998.0,0.5733
999.0,0.571
1000.0,0.5678
1001.0,0.574
1002.0,0.5613
1003.0,0.5641
1004.0,0.5511
1005.0,0.5298
1006.0,0.551
1007.0,0.5624
1008.0,0.5599
1009.0,0.5575
1010.0,0.5555
1011.0,0.5595
1012.0,0.5552
1013.0,0.558
1014.0,0.554
1015.0,0.5505
1016.0,0.5481
1017.0,0.5496
1018.0,0.5471
1019.0,0.5366
1020.0,0.5444
1021.0,0.5435
1022.0,0.5397
1023.0,0.5455
1024.0,0.5396
1025.0,0.5447
1026.0,0.5427
1027.0,0.5414
1028.0,0.5403
1029.0,0.534
1030.0,0.5373
1031.0,0.5353
1032.0,0.5336
1033.0,0.5256
1034.0,0.5256
1035.0,0.5272
1036.0,0.5301
1037.0,0.5214
1038.0,0.5238
1039.0,0.5235
1040.0,0.5214
1041.0,0.5236
1042.0,0.52
1043.0,0.5184
1044.0,0.5203
1045.0,0.5133
1046.0,0.5077
1047.0,0.5123
1048.0,0.5152
1049.0,0.5135
1050.0,0.5112
1051.0,0.5106
1052.0,0.5086
1053.0,0.5047
1054.0,0.506
1055.0,0.5064
1056.0,0.5049
1057.0,0.5034
1058.0,0.4912
1059.0,0.4919
1060.0,0.4913
1061.0,0.4908
1062.0,0.4935
1063.0,0.4888
1064.0,0.4945
1065.0,0.4914
1066.0,0.4814
1067.0,0.4877
1068.0,0.4774
1069.0,0.4624
1070.0,0.4784
1071.0,0.4848
1072.0,0.48
1073.0,0.4729
1074.0,0.484
1075.0,0.463
1076.0,0.4838
1077.0,0.477
1078.0,0.4686
1079.0,0.4755
1080.0,0.4697
1081.0,0.4561
1082.0,0.4607
1083.0,0.4614
1084.0,0.4559
1085.0,0.4704
1086.0,0.4346
1087.0,0.4445
1088.0,0.4615
1089.0,0.4504
1090.0,0.4428
1091.0,0.4609
1092.0,0.459
1093.0,0.3989
1094.0,0.4211
1095.0,0.414
1096.0,0.3994
1097.0,0.4482
1098.0,0.3941
1099.0,0.4095
1100.0,0.3852
1101.0,0.3887
1102.0,0.3738
1103.0,0.3722
1104.0,0.3724
1105.0,0.4011
1106.0,0.3237
1107.0,0.3842
1108.0,0.336
1109.0,0.3346
1110.0,0.3821
1111.0,0.2732
1112.0,0.3312
1113.0,0.2257
1114.0,0.2503
1115.0,0.208
1116.0,0.1754
1117.0,0.07542
1118.0,0.1871
1119.0,0.1013
1120.0,0.1276
1121.0,0.1639
1122.0,0.07644
1123.0,0.1151
1124.0,0.09723
1125.0,0.1248
1126.0,0.05102
1127.0,0.1401
1128.0,0.09189
1129.0,0.09614
1130.0,0.06716
1131.0,0.2471
1132.0,0.1973
1133.0,0.1349
1134.0,0.04109
1135.0,0.01513
1136.0,0.1161
1137.0,0.2453
1138.0,0.1753
1139.0,0.2433
1140.0,0.2102
1141.0,0.1665
1142.0,0.1876
1143.0,0.259
1144.0,0.1
1145.0,0.1298
1146.0,0.1401
1147.0,0.05734
1148.0,0.2243
1149.0,0.1848
1150.0,0.1073
1151.0,0.174
1152.0,0.2076
1153.0,0.1974
1154.0,0.1277
1155.0,0.2541
1156.0,0.2323
1157.0,0.2557
1158.0,0.2527
1159.0,0.2678
1160.0,0.2347
1161.0,0.2787
1162.0,0.2809
1163.0,0.3621
1164.0,0.317
1165.0,0.3048
1166.0,0.2988
1167.0,0.3222
1168.0,0.3269
1169.0,0.3324
1170.0,0.3563
1171.0,0.3483
1172.0,0.3518
1173.0,0.3556
1174.0,0.2679
1175.0,0.3453
1176.0,0.3731
1177.0,0.3623
1178.0,0.2828
1179.0,0.3758
1180.0,0.3428
1181.0,0.3529
1182.0,0.2551
1183.0,0.3458
1184.0,0.3279
1185.0,0.3197
1186.0,0.368
1187.0,0.3539
1188.0,0.2603
1189.0,0.3305
1190.0,0.3596
1191.0,0.3471
1192.0,0.364
1193.0,0.3509
1194.0,0.3602
1195.0,0.3447
1196.0,0.3346
1197.0,0.3581
1198.0,0.3309
1199.0,0.2908
1200.0,0.3468
1201.0,0.3376
1202.0,0.3339
1203.0,0.3312
1204.0,0.295
1205.0,0.3389
1206.0,0.3691
1207.0,0.3339
1208.0,0.3259
1209.0,0.3319
1210.0,0.3436
1211.0,0.3308
1212.0,0.3307
1213.0,0.3589
1214.0,0.3367
1215.0,0.3313
1216.0,0.3576
1217.0,0.3499
1218.0,0.3548
1219.0,0.3513
1220.0,0.355
1221.0,0.3575
1222.0,0.3493
1223.0,0.3468
1224.0,0.3459
1225.0,0.3553
1226.0,0.3565
1227.0,0.3335
1228.0,0.3574
1229.0,0.3565
1230.0,0.3513
1231.0,0.3585
1232.0,0.3564
1233.0,0.3478
1234.0,0.3574
1235.0,0.3557
1236.0,0.3578
1237.0,0.3543
1238.0,0.3566
1239.0,0.3521
1240.0,0.3532
1241.0,0.3524
1242.0,0.3509
1243.0,0.348
1244.0,0.3507
1245.0,0.3521
1246.0,0.35
1247.0,0.3489
1248.0,0.3491
1249.0,0.3498
1250.0,0.3479
1251.0,0.344
1252.0,0.3434
1253.0,0.3418
1254.0,0.3394
1255.0,0.3433
1256.0,0.336
1257.0,0.3346
1258.0,0.339
1259.0,0.3303
1260.0,0.3316
1261.0,0.3175
1262.0,0.3104
1263.0,0.3111
1264.0,0.2929
1265.0,0.309
1266.0,0.3007
1267.0,0.3037
1268.0,0.2917
1269.0,0.207
1270.0,0.3035
1271.0,0.3159
1272.0,0.3164
1273.0,0.3136
1274.0,0.3139
1275.0,0.3176
1276.0,0.3198
1277.0,0.3209
1278.0,0.3252
1279.0,0.3224
1280.0,0.3182
1281.0,0.3028
1282.0,0.2904
1283.0,0.313
1284.0,0.3208
1285.0,0.3227
1286.0,0.3263
1287.0,0.3227
1288.0,0.3222
1289.0,0.3148
1290.0,0.3192
1291.0,0.3231
1292.0,0.3089
1293.0,0.3182
1294.0,0.3162
1295.0,0.3159
1296.0,0.3051
1297.0,0.2915
1298.0,0.3082
1299.0,0.318
1300.0,0.2789
1301.0,0.2854
1302.0,0.307
1303.0,0.2741
1304.0,0.243
1305.0,0.3014
1306.0,0.302
1307.0,0.245
1308.0,0.2731
1309.0,0.3003
1310.0,0.2408
1311.0,0.2639
1312.0,0.2582
1313.0,0.2547
1314.0,0.2313
1315.0,0.2303
1316.0,0.2612
1317.0,0.2485
1318.0,0.2663
1319.0,0.2192
1320.0,0.21
1321.0,0.2408
1322.0,0.2447
1323.0,0.1934
1324.0,0.2149
1325.0,0.258
1326.0,0.2273
1327.0,0.2182
1328.0,0.1912
1329.0,0.1514
1330.0,0.193
1331.0,0.1264
1332.0,0.1271
1333.0,0.1741
1334.0,0.1437
1335.0,0.1925
1336.0,0.157
1337.0,0.142
1338.0,0.1531
1339.0,0.1512
1340.0,0.1447
1341.0,0.1468
1342.0,0.1538
1343.0,0.1166
1344.0,0.06965
1345.0,0.09872
1346.0,0.05791
1347.0,0.06035
1348.0,0.006025
1349.0,0.01896
1350.0,0.01796
1351.0,0.006381
1352.0,0.002508
1353.0,0.0002054
1354.0,0.0005335
1355.0,1.075e-05
1356.0,0.0001048
1357.0,0.0001567
1358.0,1.228e-05
1359.0,2.984e-06
1360.0,7.107e-06
1361.0,3.371e-08
1362.0,1.816e-10
1363.0,1.104e-05
1364.0,5.021e-06
1365.0,1.333e-10
1366.0,4.022e-05
1367.0,1.552e-05
1368.0,4.604e-12
1369.0,1.983e-06
1370.0,1.285e-06
1371.0,1.067e-07
1372.0,8.633e-06
1373.0,0.0001079
1374.0,0.0003657
1375.0,0.0006503
1376.0,0.0004734
1377.0,0.0002348
1378.0,0.001915
1379.0,0.0001012
1380.0,0.0001728
1381.0,5.727e-06
1382.0,8.394e-06
1383.0,1.726e-07
1384.0,2.479e-06
1385.0,5.923e-06
1386.0,8.967e-06
1387.0,0.0004404
1388.0,9.674e-06
1389.0,0.001085
1390.0,0.0009253
1391.0,0.0006739
1392.0,5.106e-05
1393.0,0.0002248
1394.0,0.0001855
1395.0,2.105e-06
1396.0,4.037e-08
1397.0,0.0001022
1398.0,0.002195
1399.0,0.001401
1400.0,2.498e-08
1401.0,6.331e-08
1402.0,0.002625
1403.0,0.003529
1404.0,0.001114
1405.0,1.302e-06
1406.0,0.003232
1407.0,0.0002777
1408.0,0.002603
1409.0,0.001098
1410.0,0.0007883
1411.0,0.003068
1412.0,0.003714
1413.0,0.02671
1414.0,0.000608
1415.0,0.0003282
1416.0,0.03685
1417.0,0.01385
1418.0,0.01579
1419.0,0.002605
1420.0,0.009794
1421.0,0.01088
1422.0,0.04719
1423.0,0.009942
1424.0,0.01798
1425.0,0.02721
1426.0,0.02864
1427.0,0.04735
1428.0,0.005827
1429.0,0.03765
1430.0,0.0587
1431.0,0.0631
1432.0,0.004676
1433.0,0.04216
1434.0,0.02248
1435.0,0.02594
1436.0,0.0444
1437.0,0.03413
1438.0,0.01602
1439.0,0.05786
1440.0,0.04374
1441.0,0.03593
1442.0,0.03914
1443.0,0.04523
1444.0,0.06115
1445.0,0.05089
1446.0,0.02385
1447.0,0.03761
1448.0,0.1045
1449.0,0.09389
1450.0,0.02783
1451.0,0.01204
1452.0,0.05942
1453.0,0.07613
1454.0,0.1202
1455.0,0.06062
1456.0,0.08311
1457.0,0.1051
1458.0,0.118
1459.0,0.1404
1460.0,0.07643
