interpolation:linear
wavelength,value
280.0,6.741e-21
280.5,2.055e-19
281.0,1.075e-18
281.5,5.113e-19
282.0,1.436e-18
282.5,3.733e-18
283.0,1.193e-17
283.5,1.945e-17
284.0,3.078e-16
284.5,8.781e-16
285.0,1.789e-15
285.5,9.2e-15
286.0,3.727e-14
286.5,1.667e-13
287.0,4.742e-13
287.5,1.797e-12
288.0,4.679e-12
288.5,1.638e-11
289.0,4.853e-11
289.5,1.596e-10
290.0,4.683e-10
290.5,9.948e-10
291.0,2.228e-09
291.5,6.842e-09
292.0,1.668e-08
292.5,2.601e-08
293.0,6.399e-08
293.5,1.891e-07
294.0,3.413e-07
294.5,4.494e-07
295.0,8.792e-07
295.5,2.403e-06
296.0,4.788e-06
296.5,6.927e-06
297.0,9.65e-06
297.5,2.707e-05
298.0,4.44e-05
298.5,4.613e-05
299.0,0.0001051
299.5,0.0001848
300.0,0.0002106
300.5,0.0003169
301.0,0.0006137
301.5,0.001052
302.0,0.0009403
302.5,0.001829
303.0,0.003263
303.5,0.004089
304.0,0.003827
304.5,0.005645
305.0,0.008412
305.5,0.009526
306.0,0.00918
306.5,0.01134
307.0,0.01654
307.5,0.02162
308.0,0.02278
308.5,0.02667
309.0,0.0261
309.5,0.02949
310.0,0.02945
310.5,0.04757
311.0,0.05942
311.5,0.05725
312.0,0.05662
312.5,0.06839
313.0,0.0739
313.5,0.07203
314.0,0.08925
314.5,0.07818
315.0,0.1025
315.5,0.08629
316.0,0.07461
316.5,0.1062
317.0,0.1319
317.5,0.1376
318.0,0.1067
318.5,0.131
319.0,0.1545
319.5,0.1272
320.0,0.1539
320.5,0.1903
321.0,0.1675
321.5,0.1605
322.0,0.1731
322.5,0.1505
323.0,0.1488
323.5,0.1815
324.0,0.2116
324.5,0.2155
325.0,0.187
325.5,0.2389
326.0,0.2917
326.5,0.2908
327.0,0.2903
327.5,0.2811
328.0,0.2518
328.5,0.2627
329.0,0.3128
329.5,0.3545
330.0,0.3581
330.5,0.288
331.0,0.2939
331.5,0.2977
332.0,0.3201
332.5,0.3159
333.0,0.3155
333.5,0.2866
334.0,0.2938
334.5,0.3377
335.0,0.3166
335.5,0.3698
336.0,0.2559
336.5,0.3
337.0,0.2466
337.5,0.307
338.0,0.2987
338.5,0.3448
339.0,0.3413
339.5,0.3284
340.0,0.386
340.5,0.3479
341.0,0.3393
341.5,0.3115
342.0,0.3723
342.5,0.3484
343.0,0.3832
343.5,0.3609
344.0,0.2668
344.5,0.2695
345.0,0.3566
345.5,0.3641
346.0,0.3095
346.5,0.3505
347.0,0.3763
347.5,0.3043
348.0,0.347
348.5,0.3468
349.0,0.3218
349.5,0.3187
350.0,0.3942
350.5,0.4159
351.0,0.3716
351.5,0.3612
352.0,0.388
352.5,0.3028
353.0,0.3815
353.5,0.408
354.0,0.4236
354.5,0.4296
355.0,0.4282
355.5,0.3869
356.0,0.4049
356.5,0.3458
357.0,0.2857
357.5,0.3498
358.0,0.2773
358.5,0.237
359.0,0.3315
359.5,0.4226
360.0,0.448
360.5,0.3581
361.0,0.3265
361.5,0.376
362.0,0.3253
362.5,0.4502
363.0,0.4045
363.5,0.3726
364.0,0.4558
364.5,0.3897
365.0,0.3969
365.5,0.4983
366.0,0.528
366.5,0.4962
367.0,0.4833
367.5,0.5016
368.0,0.4391
368.5,0.4431
369.0,0.4786
369.5,0.5103
370.0,0.544
370.5,0.4223
371.0,0.4513
371.5,0.5648
372.0,0.3749
372.5,0.4496
373.0,0.4574
373.5,0.2977
374.0,0.4326
374.5,0.3583
375.0,0.3484
375.5,0.5202
376.0,0.4313
376.5,0.447
377.0,0.4734
377.5,0.5539
378.0,0.6005
378.5,0.5677
379.0,0.4686
379.5,0.4281
380.0,0.4451
380.5,0.5392
381.0,0.5405
381.5,0.4285
382.0,0.3807
382.5,0.3246
383.0,0.3005
383.5,0.2895
384.0,0.3194
384.5,0.4699
385.0,0.4661
385.5,0.4342
386.0,0.3719
386.5,0.4886
387.0,0.4061
387.5,0.4562
388.0,0.4213
388.5,0.4165
389.0,0.4497
389.5,0.5447
390.0,0.5468
390.5,0.5033
391.0,0.5925
391.5,0.6045
392.0,0.5092
392.5,0.456
393.0,0.2538
393.5,0.1845
394.0,0.3755
394.5,0.4775
395.0,0.5827
395.5,0.592
396.0,0.5134
396.5,0.3002
397.0,0.2253
397.5,0.4583
398.0,0.6418
398.5,0.6635
399.0,0.7186
399.5,0.7164
400.0,0.7439
401.0,0.7548
402.0,0.7966
403.0,0.7569
404.0,0.7455
405.0,0.7455
406.0,0.7336
407.0,0.722
408.0,0.7503
409.0,0.8033
410.0,0.7021
411.0,0.7606
412.0,0.8172
413.0,0.797
414.0,0.807
415.0,0.8093
416.0,0.8236
417.0,0.8035
418.0,0.7888
419.0,0.7994
420.0,0.796
421.0,0.8329
422.0,0.7918
423.0,0.7736
424.0,0.8183
425.0,0.817
426.0,0.796
427.0,0.7812
428.0,0.7611
429.0,0.721
430.0,0.6311
431.0,0.6256
432.0,0.8079
433.0,0.8125
434.0,0.7545
435.0,0.7881
436.0,0.8881
437.0,0.8763
438.0,0.7981
439.0,0.8255
440.0,0.8519
441.0,0.8828
442.0,0.9469
443.0,0.9224
444.0,0.9425
445.0,0.9222
446.0,0.8802
447.0,0.9516
448.0,0.9665
449.0,0.9704
450.0,0.9977
451.0,1.035
452.0,0.997
453.0,0.9378
454.0,0.9791
455.0,0.9852
456.0,1.009
457.0,1.026
458.0,0.9906
459.0,0.9855
460.0,0.9882
461.0,1.011
462.0,1.019
463.0,1.012
464.0,0.9952
465.0,0.9827
466.0,0.9922
467.0,0.9742
468.0,0.9856
469.0,0.9908
470.0,0.9593
471.0,0.9581
472.0,1.01
473.0,0.9965
474.0,0.9979
475.0,1.006
476.0,0.9765
477.0,0.9792
478.0,1.006
479.0,1.0
480.0,1.002
481.0,1.021
482.0,1.026
483.0,1.014
484.0,0.9931
485.0,0.9462
486.0,0.8271
487.0,0.8669
488.0,0.951
489.0,0.954
490.0,1.004
491.0,0.9864
492.0,0.9315
493.0,0.962
494.0,0.9717
495.0,0.9799
496.0,0.986
497.0,1.001
498.0,0.9545
499.0,0.9667
500.0,0.9386
501.0,0.9214
502.0,0.9085
503.0,0.9455
504.0,0.9215
505.0,0.9545
506.0,0.9853
507.0,0.9376
508.0,0.9084
509.0,0.9338
510.0,0.9289
511.0,0.9538
512.0,0.9641
513.0,0.9125
514.0,0.9063
515.0,0.8973
516.0,0.8951
517.0,0.7953
518.0,0.8362
519.0,0.877
520.0,0.909
521.0,0.9176
522.0,0.9184
523.0,0.9019
524.0,0.9342
525.0,0.9452
526.0,0.9029
527.0,0.8508
528.0,0.8999
529.0,0.9485
530.0,0.9349
531.0,0.9488
532.0,0.9162
533.0,0.8893
534.0,0.9157
535.0,0.9356
536.0,0.9442
537.0,0.907
538.0,0.923
539.0,0.9152
540.0,0.8775
541.0,0.8833
542.0,0.911
543.0,0.9014
544.0,0.917
545.0,0.9142
546.0,0.9182
547.0,0.9178
548.0,0.9068
549.0,0.9096
550.0,0.9204
551.0,0.9092
552.0,0.9155
553.0,0.8991
554.0,0.9207
555.0,0.9225
556.0,0.9105
557.0,0.8822
558.0,0.8756
559.0,0.8592
560.0,0.87
561.0,0.8812
562.0,0.8749
563.0,0.8988
564.0,0.8743
565.0,0.8667
566.0,0.854
567.0,0.8702
568.0,0.8624
569.0,0.8419
570.0,0.8416
571.0,0.8366
572.0,0.8567
573.0,0.8658
574.0,0.8631
575.0,0.8469
576.0,0.8392
577.0,0.8483
578.0,0.8356
579.0,0.8389
580.0,0.8549
581.0,0.8594
582.0,0.8756
583.0,0.8778
584.0,0.8854
585.0,0.8638
586.0,0.846
587.0,0.8646
588.0,0.8435
589.0,0.7472
590.0,0.7814
591.0,0.827
592.0,0.8165
593.0,0.8286
594.0,0.8228
595.0,0.8025
596.0,0.8342
597.0,0.8252
598.0,0.8231
599.0,0.8238
600.0,0.8251
601.0,0.8183
602.0,0.8128
603.0,0.8262
604.0,0.8399
605.0,0.8356
606.0,0.8321
607.0,0.8404
608.0,0.8311
609.0,0.8326
610.0,0.8266
611.0,0.8309
612.0,0.8285
613.0,0.8181
614.0,0.8069
615.0,0.8245
616.0,0.7974
617.0,0.7958
618.0,0.8264
619.0,0.818
620.0,0.8232
621.0,0.824
622.0,0.8143
623.0,0.8019
624.0,0.7882
625.0,0.7864
626.0,0.7981
627.0,0.807
628.0,0.7533
629.0,0.7878
630.0,0.7696
631.0,0.7871
632.0,0.7777
633.0,0.8014
634.0,0.7936
635.0,0.806
636.0,0.7954
637.0,0.8084
638.0,0.8162
639.0,0.8071
640.0,0.7992
641.0,0.7988
642.0,0.7952
643.0,0.8058
644.0,0.8033
645.0,0.8045
646.0,0.7857
647.0,0.7763
648.0,0.777
649.0,0.762
650.0,0.7658
651.0,0.799
652.0,0.7656
653.0,0.7884
654.0,0.7797
655.0,0.7506
656.0,0.6653
657.0,0.6832
658.0,0.7656
659.0,0.7712
660.0,0.7744
661.0,0.7798
662.0,0.7814
663.0,0.7659
664.0,0.7751
665.0,0.7757
666.0,0.7763
667.0,0.7756
668.0,0.776
669.0,0.788
670.0,0.7846
671.0,0.7844
672.0,0.7777
673.0,0.7894
674.0,0.7865
675.0,0.7793
676.0,0.7847
677.0,0.7769
678.0,0.7791
679.0,0.7665
680.0,0.7727
681.0,0.7676
682.0,0.7666
683.0,0.7651
684.0,0.7613
685.0,0.7678
686.0,0.7633
687.0,0.505
688.0,0.5927
689.0,0.5949
690.0,0.6242
691.0,0.6573
692.0,0.6815
693.0,0.6759
694.0,0.6703
695.0,0.6982
696.0,0.6992
697.0,0.7423
698.0,0.7307
699.0,0.7131
700.0,0.7044
701.0,0.6972
702.0,0.7021
703.0,0.7034
704.0,0.7261
705.0,0.7271
706.0,0.7266
707.0,0.7271
708.0,0.7287
709.0,0.7298
710.0,0.7297
711.0,0.7288
712.0,0.7266
713.0,0.7192
714.0,0.722
715.0,0.6991
716.0,0.6995
717.0,0.6061
718.0,0.5565
719.0,0.5097
720.0,0.5339
721.0,0.5898
722.0,0.6752
723.0,0.6283
724.0,0.5658
725.0,0.5566
726.0,0.5828
727.0,0.5912
728.0,0.5552
729.0,0.5763
730.0,0.6098
731.0,0.5833
732.0,0.6242
733.0,0.661
734.0,0.6767
735.0,0.6627
736.0,0.6618
737.0,0.6645
738.0,0.6749
739.0,0.6616
740.0,0.6789
741.0,0.6721
742.0,0.6728
743.0,0.6899
744.0,0.688
745.0,0.6882
746.0,0.6913
747.0,0.6928
748.0,0.6914
749.0,0.6835
750.0,0.6831
751.0,0.6762
752.0,0.6791
753.0,0.6825
754.0,0.684
755.0,0.6802
756.0,0.6799
757.0,0.6809
758.0,0.6724
759.0,0.6586
760.0,0.1069
761.0,0.05549
762.0,0.3337
763.0,0.1646
764.0,0.2493
765.0,0.3337
766.0,0.4114
767.0,0.5209
768.0,0.6026
769.0,0.6156
770.0,0.6369
771.0,0.6422
772.0,0.6436
773.0,0.6481
774.0,0.645
775.0,0.6401
776.0,0.6479
777.0,0.6394
778.0,0.6355
779.0,0.636
780.0,0.6325
781.0,0.6331
782.0,0.6371
783.0,0.626
784.0,0.629
785.0,0.6243
786.0,0.6312
787.0,0.6201
788.0,0.6123
789.0,0.612
790.0,0.5956
791.0,0.6009
792.0,0.5965
793.0,0.5868
794.0,0.597
795.0,0.6071
796.0,0.5882
797.0,0.5889
798.0,0.6063
799.0,0.6024
800.0,0.5919
801.0,0.59
802.0,0.5883
803.0,0.5838
804.0,0.5846
805.0,0.5828
806.0,0.5993
807.0,0.5921
808.0,0.5926
809.0,0.5814
810.0,0.5766
811.0,0.5772
812.0,0.5605
813.0,0.5487
814.0,0.4821
815.0,0.4792
816.0,0.4459
817.0,0.4542
818.0,0.437
819.0,0.4891
820.0,0.4604
821.0,0.539
822.0,0.5234
823.0,0.3547
824.0,0.5079
825.0,0.5296
826.0,0.5093
827.0,0.5377
828.0,0.4551
829.0,0.5062
830.0,0.4995
831.0,0.5013
832.0,0.4857
833.0,0.5172
834.0,0.4986
835.0,0.5484
836.0,0.5245
837.0,0.5499
838.0,0.5326
839.0,0.5417
840.0,0.5536
841.0,0.5457
842.0,0.547
843.0,0.5469
844.0,0.5392
845.0,0.5575
846.0,0.5551
847.0,0.5448
848.0,0.5413
849.0,0.526
850.0,0.5039
851.0,0.5334
852.0,0.5297
853.0,0.51
854.0,0.4403
855.0,0.4838
856.0,0.5286
857.0,0.5405
858.0,0.5365
859.0,0.537
860.0,0.538
861.0,0.535
862.0,0.5435
863.0,0.5563
864.0,0.5285
865.0,0.5239
866.0,0.471
867.0,0.4916
868.0,0.5349
869.0,0.5238
870.0,0.5388
871.0,0.5314
872.0,0.5296
873.0,0.5285
874.0,0.5222
875.0,0.5116
876.0,0.517
877.0,0.5222
878.0,0.5278
879.0,0.5197
880.0,0.5086
881.0,0.5009
882.0,0.5117
883.0,0.5134
884.0,0.511
885.0,0.5149
886.0,0.4905
887.0,0.4958
888.0,0.503
889.0,0.509
890.0,0.5045
891.0,0.5037
892.0,0.4889
893.0,0.4732
894.0,0.4559
895.0,0.4299
896.0,0.4047
897.0,0.3465
898.0,0.3787
899.0,0.2867
900.0,0.3885
901.0,0.3005
902.0,0.3545
903.0,0.3574
904.0,0.4525
905.0,0.4365
906.0,0.4082
907.0,0.3299
908.0,0.3367
909.0,0.3656
910.0,0.3218
911.0,0.3439
912.0,0.3599
913.0,0.3265
914.0,0.324
915.0,0.3513
916.0,0.2969
917.0,0.3785
918.0,0.3044
919.0,0.3858
920.0,0.3907
921.0,0.4065
922.0,0.3622
923.0,0.3927
924.0,0.3711
925.0,0.363
926.0,0.3669
927.0,0.4119
928.0,0.2987
929.0,0.2717
930.0,0.2119
931.0,0.201
932.0,0.143
933.0,0.1153
934.0,0.06124
935.0,0.1187
936.0,0.07287
937.0,0.07371
938.0,0.09115
939.0,0.1947
940.0,0.2355
941.0,0.176
942.0,0.2049
943.0,0.1333
944.0,0.1417
945.0,0.1818
946.0,0.09062
947.0,0.1821
948.0,0.1335
949.0,0.2457
950.0,0.06536
951.0,0.2423
952.0,0.1276
953.0,0.1665
954.0,0.206
955.0,0.1686
956.0,0.1648
957.0,0.1276
958.0,0.2361
959.0,0.1855
960.0,0.2079
961.0,0.235
962.0,0.2222
963.0,0.2576
964.0,0.2355
965.0,0.2568
966.0,0.2564
967.0,0.2552
968.0,0.3474
969.0,0.3623
970.0,0.3321
971.0,0.3824
972.0,0.3654
973.0,0.3158
974.0,0.2994
975.0,0.3117
976.0,0.2947
977.0,0.3379
978.0,0.3199
979.0,0.3358
980.0,0.3153
981.0,0.3803
982.0,0.3628
983.0,0.3478
984.0,0.3928
985.0,0.3614
986.0,0.4003
987.0,0.3918
988.0,0.3911
989.0,0.3994
990.0,0.3888
991.0,0.4006
992.0,0.4029
993.0,0.3933
994.0,0.4029
995.0,0.4025
996.0,0.4006
997.0,0.4012
998.0,0.3993
999.0,0.3979
1000.0,0.3949
1001.0,0.4
1002.0,0.3884
1003.0,0.3929
1004.0,0.3831
1005.0,0.3693
1006.0,0.3836
1007.0,0.3918
1008.0,0.3896
1009.0,0.3874
1010.0,0.3857
1011.0,0.3899
1012.0,0.3864
1013.0,0.389
1014.0,0.3862
1015.0,0.3837
1016.0,0.3819
1017.0,0.3829
1018.0,0.3815
1019.0,0.3731
1020.0,0.3794
1021.0,0.379
1022.0,0.3759
1023.0,0.3799
1024.0,0.3747
1025.0,0.3797
1026.0,0.378
1027.0,0.3772
1028.0,0.3764
1029.0,0.3719
1030.0,0.3745
1031.0,0.373
1032.0,0.372
1033.0,0.3663
1034.0,0.3664
1035.0,0.3675
1036.0,0.3694
1037.0,0.3634
1038.0,0.365
1039.0,0.3648
1040.0,0.3633
1041.0,0.3647
1042.0,0.3622
1043.0,0.361
1044.0,0.3622
1045.0,0.3573
1046.0,0.3534
1047.0,0.3565
1048.0,0.3585
1049.0,0.3571
1050.0,0.3555
1051.0,0.355
1052.0,0.3535
1053.0,0.3506
1054.0,0.3514
1055.0,0.3515
1056.0,0.3502
1057.0,0.3491
1058.0,0.3405
1059.0,0.3408
1060.0,0.3403
1061.0,0.3399
1062.0,0.3416
1063.0,0.3382
1064.0,0.3422
1065.0,0.3397
1066.0,0.333
1067.0,0.3373
1068.0,0.3299
1069.0,0.3197
1070.0,0.3305
1071.0,0.3359
1072.0,0.3318
1073.0,0.3271
1074.0,0.3358
1075.0,0.3183
1076.0,0.3355
1077.0,0.3291
1078.0,0.3227
1079.0,0.3302
1080.0,0.324
1081.0,0.3133
1082.0,0.3189
1083.0,0.32
1084.0,0.3123
1085.0,0.3248
1086.0,0.2954
1087.0,0.3056
1088.0,0.3196
1089.0,0.3091
1090.0,0.3019
1091.0,0.3184
1092.0,0.3177
1093.0,0.2674
1094.0,0.2904
1095.0,0.2789
1096.0,0.2664
1097.0,0.3103
1098.0,0.262
1099.0,0.2737
1100.0,0.2536
1101.0,0.257
1102.0,0.2449
1103.0,0.2422
1104.0,0.2425
1105.0,0.2672
1106.0,0.2012
1107.0,0.2532
1108.0,0.2127
1109.0,0.2134
1110.0,0.2507
1111.0,0.1674
1112.0,0.2119
1113.0,0.1322
1114.0,0.1481
1115.0,0.1226
1116.0,0.09627
1117.0,0.03363
1118.0,0.1053
1119.0,0.05082
1120.0,0.06386
1121.0,0.08563
1122.0,0.03479
1123.0,0.05777
1124.0,0.04874
1125.0,0.06394
1126.0,0.02103
1127.0,0.07224
1128.0,0.04187
1129.0,0.04461
1130.0,0.02886
1131.0,0.1403
1132.0,0.1094
1133.0,0.06757
1134.0,0.01628
1135.0,0.006158
1136.0,0.05573
1137.0,0.1372
1138.0,0.09631
1139.0,0.1471
1140.0,0.1216
1141.0,0.09156
1142.0,0.106
1143.0,0.152
1144.0,0.05142
1145.0,0.06521
1146.0,0.0703
1147.0,0.02346
1148.0,0.1315
1149.0,0.1039
1150.0,0.05549
1151.0,0.09555
1152.0,0.1188
1153.0,0.1167
1154.0,0.06303
1155.0,0.1534
1156.0,0.1375
1157.0,0.1553
1158.0,0.1536
1159.0,0.1665
1160.0,0.1415
1161.0,0.176
1162.0,0.1768
1163.0,0.2415
1164.0,0.2061
1165.0,0.1935
1166.0,0.1929
1167.0,0.2105
1168.0,0.2127
1169.0,0.218
1170.0,0.2377
1171.0,0.2317
1172.0,0.2363
1173.0,0.2372
1174.0,0.1677
1175.0,0.232
1176.0,0.2559
1177.0,0.2451
1178.0,0.1829
1179.0,0.258
1180.0,0.2294
1181.0,0.2368
1182.0,0.1621
1183.0,0.2333
1184.0,0.2183
1185.0,0.2103
1186.0,0.2504
1187.0,0.2382
1188.0,0.1647
1189.0,0.2218
1190.0,0.2448
1191.0,0.2318
1192.0,0.2483
1193.0,0.2377
1194.0,0.2451
1195.0,0.2314
1196.0,0.2226
1197.0,0.2455
1198.0,0.2243
1199.0,0.1899
1200.0,0.2347
1201.0,0.2261
1202.0,0.225
1203.0,0.223
1204.0,0.1946
1205.0,0.2304
1206.0,0.255
1207.0,0.2243
1208.0,0.221
1209.0,0.2256
1210.0,0.2352
1211.0,0.2237
1212.0,0.2206
1213.0,0.2464
1214.0,0.2261
1215.0,0.2217
1216.0,0.2456
1217.0,0.239
1218.0,0.2436
1219.0,0.2406
1220.0,0.2439
1221.0,0.2464
1222.0,0.2399
1223.0,0.2376
1224.0,0.236
1225.0,0.2448
1226.0,0.2465
1227.0,0.2271
1228.0,0.2479
1229.0,0.2466
1230.0,0.2423
1231.0,0.2494
1232.0,0.2479
1233.0,0.2391
1234.0,0.2493
1235.0,0.2476
1236.0,0.2495
1237.0,0.2459
1238.0,0.2486
1239.0,0.2454
1240.0,0.2464
1241.0,0.2451
1242.0,0.2447
1243.0,0.2427
1244.0,0.2444
1245.0,0.2455
1246.0,0.244
1247.0,0.2431
1248.0,0.2429
1249.0,0.2437
1250.0,0.2422
1251.0,0.239
1252.0,0.2391
1253.0,0.2371
1254.0,0.2346
1255.0,0.2388
1256.0,0.2319
1257.0,0.2306
1258.0,0.2351
1259.0,0.2263
1260.0,0.2275
1261.0,0.2144
1262.0,0.2077
1263.0,0.2081
1264.0,0.1917
1265.0,0.2068
1266.0,0.1987
1267.0,0.2024
1268.0,0.1917
1269.0,0.1169
1270.0,0.2016
1271.0,0.2137
1272.0,0.2144
1273.0,0.2121
1274.0,0.2129
1275.0,0.216
1276.0,0.2182
1277.0,0.2197
1278.0,0.2241
1279.0,0.2221
1280.0,0.2193
1281.0,0.2093
1282.0,0.2018
1283.0,0.2173
1284.0,0.2224
1285.0,0.2239
1286.0,0.227
1287.0,0.2234
1288.0,0.2234
1289.0,0.2161
1290.0,0.2214
1291.0,0.2246
1292.0,0.2106
1293.0,0.2201
1294.0,0.2185
1295.0,0.2173
1296.0,0.2072
1297.0,0.1958
1298.0,0.2112
1299.0,0.2204
1300.0,0.1858
1301.0,0.1917
1302.0,0.2105
1303.0,0.1835
1304.0,0.1557
1305.0,0.2061
1306.0,0.2061
1307.0,0.1594
1308.0,0.1839
1309.0,0.2044
1310.0,0.1563
1311.0,0.1761
1312.0,0.1712
1313.0,0.1678
1314.0,0.1499
1315.0,0.1477
1316.0,0.1732
1317.0,0.164
1318.0,0.1785
1319.0,0.1385
1320.0,0.1345
1321.0,0.157
1322.0,0.1583
1323.0,0.1183
1324.0,0.1359
1325.0,0.1706
1326.0,0.1459
1327.0,0.139
1328.0,0.1196
1329.0,0.08894
1330.0,0.1162
1331.0,0.06908
1332.0,0.0717
1333.0,0.1001
1334.0,0.08529
1335.0,0.1178
1336.0,0.09259
1337.0,0.08158
1338.0,0.08828
1339.0,0.08805
1340.0,0.08594
1341.0,0.08321
1342.0,0.08747
1343.0,0.05779
1344.0,0.0347
1345.0,0.05011
1346.0,0.02397
1347.0,0.02422
1348.0,0.001447
1349.0,0.005322
1350.0,0.005622
1351.0,0.001269
1352.0,0.000316
1353.0,1.485e-05
1354.0,5.411e-05
1355.0,3.672e-07
1356.0,7.217e-06
1357.0,1.102e-05
1358.0,4.38e-07
1359.0,4.848e-08
1360.0,1.914e-07
1361.0,1.626e-10
1362.0,3.972e-13
1363.0,2.487e-07
1364.0,1.025e-07
1365.0,1.199e-13
1366.0,1.126e-06
1367.0,4.731e-07
1368.0,6.919e-16
1369.0,3.809e-08
1370.0,1.779e-08
1371.0,9.46e-10
1372.0,2.607e-07
1373.0,5.754e-06
1374.0,2.844e-05
1375.0,5.15e-05
1376.0,4.886e-05
1377.0,2.209e-05
1378.0,0.0002221
1379.0,9.269e-06
1380.0,1.286e-05
1381.0,3.243e-07
1382.0,2.314e-07
1383.0,3.308e-09
1384.0,4.213e-08
1385.0,2.332e-07
1386.0,1.984e-07
1387.0,2.841e-05
1388.0,5.618e-07
1389.0,0.0001034
1390.0,8.88e-05
1391.0,5.852e-05
1392.0,3.735e-06
1393.0,2.05e-05
1394.0,9.585e-06
1395.0,6.583e-08
1396.0,2.433e-10
1397.0,7.969e-06
1398.0,0.0002478
1399.0,0.0001575
1400.0,9.772e-11
1401.0,4.498e-10
1402.0,0.0004794
1403.0,0.0005925
1404.0,0.0001792
1405.0,3.057e-08
1406.0,0.000453
1407.0,4.094e-05
1408.0,0.0003725
1409.0,0.0001187
1410.0,9.851e-05
1411.0,0.0005228
1412.0,0.0007237
1413.0,0.008069
1414.0,7.827e-05
1415.0,3.666e-05
1416.0,0.01401
1417.0,0.003979
1418.0,0.004481
1419.0,0.0006845
1420.0,0.002733
1421.0,0.002964
1422.0,0.01835
1423.0,0.003488
1424.0,0.006613
1425.0,0.009603
1426.0,0.01122
1427.0,0.02137
1428.0,0.001349
1429.0,0.01561
1430.0,0.02757
1431.0,0.03054
1432.0,0.001056
1433.0,0.01908
1434.0,0.009532
1435.0,0.008945
1436.0,0.01817
1437.0,0.01394
1438.0,0.005637
1439.0,0.0251
1440.0,0.01879
