interpolation:linear
wavelength,value
280.0,2.387e-21
280.5,7.525000000000001e-20
281.0,3.978e-19
281.5,3.751e-19
282.0,1.024e-18
282.5,2.672e-18
283.0,8.615e-18
283.5,1.409e-17
284.0,2.296e-16
284.5,6.633e-16
285.0,1.476e-15
285.5,7.118e-15
286.0,2.842e-14
286.5,1.252e-13
287.0,3.54e-13
287.5,1.339e-12
288.0,3.653e-12
288.5,1.199e-11
289.0,3.374e-11
289.5,1.061e-10
290.0,3.015e-10
290.5,6.249e-10
291.0,1.362e-09
291.5,3.964e-09
292.0,8.323e-09
292.5,1.243e-08
293.0,2.884e-08
293.5,7.799e-08
294.0,1.313e-07
294.5,1.701e-07
295.0,3.095e-07
295.5,7.854e-07
296.0,1.573e-06
296.5,2.294e-06
297.0,3.225e-06
297.5,9.217e-06
298.0,1.543e-05
298.5,1.632e-05
299.0,3.794e-05
299.5,6.955e-05
300.0,8.133e-05
300.5,0.0001261
301.0,0.000258
301.5,0.0004704
302.0,0.000437
302.5,0.0008663
303.0,0.001586
303.5,0.002022
304.0,0.001917
304.5,0.002925
305.0,0.00457
305.5,0.00533
306.0,0.005196
306.5,0.006544
307.0,0.009946
307.5,0.01352
308.0,0.01434
308.5,0.01711
309.0,0.01692
309.5,0.01959
310.0,0.01979
310.5,0.03215
311.0,0.04055
311.5,0.03923
312.0,0.0396
312.5,0.04849
313.0,0.05278
313.5,0.05111
314.0,0.06438
314.5,0.05763
315.0,0.07587
315.5,0.0632
316.0,0.05562
316.5,0.08038
317.0,0.09981
317.5,0.1037
318.0,0.08126
318.5,0.1017
319.0,0.1212
319.5,0.09819
320.0,0.1186
320.5,0.1495
321.0,0.1341
321.5,0.1287
322.0,0.1362
322.5,0.1185
323.0,0.1186
323.5,0.1464
324.0,0.171
324.5,0.1734
325.0,0.1495
325.5,0.193
326.0,0.2362
326.5,0.2371
327.0,0.2362
327.5,0.2279
328.0,0.2025
328.5,0.2135
329.0,0.2563
329.5,0.2912
330.0,0.2937
330.5,0.2347
331.0,0.239
331.5,0.2433
332.0,0.2634
332.5,0.2608
333.0,0.26
333.5,0.2351
334.0,0.2408
334.5,0.2784
335.0,0.2619
335.5,0.306
336.0,0.2118
336.5,0.2479
337.0,0.2033
337.5,0.2529
338.0,0.2473
338.5,0.2856
339.0,0.2828
339.5,0.2721
340.0,0.3198
340.5,0.2883
341.0,0.2813
341.5,0.2584
342.0,0.3089
342.5,0.2891
343.0,0.318
343.5,0.2995
344.0,0.2214
344.5,0.2236
345.0,0.2961
345.5,0.3025
346.0,0.2572
346.5,0.2913
347.0,0.3128
347.5,0.253
348.0,0.2885
348.5,0.2885
349.0,0.2677
349.5,0.2652
350.0,0.3281
350.5,0.3462
351.0,0.3093
351.5,0.3006
352.0,0.323
352.5,0.2522
353.0,0.3178
353.5,0.3399
354.0,0.353
354.5,0.3581
355.0,0.3569
355.5,0.3226
356.0,0.3376
356.5,0.2884
357.0,0.2383
357.5,0.2918
358.0,0.2313
358.5,0.1977
359.0,0.2766
359.5,0.3526
360.0,0.3739
360.5,0.2989
361.0,0.2726
361.5,0.314
362.0,0.2717
362.5,0.3762
363.0,0.3381
363.5,0.3115
364.0,0.3812
364.5,0.3259
365.0,0.332
365.5,0.4169
366.0,0.4418
366.5,0.4153
367.0,0.4046
367.5,0.42
368.0,0.3677
368.5,0.3711
369.0,0.4009
369.5,0.4275
370.0,0.4559
370.5,0.3539
371.0,0.3783
371.5,0.4734
372.0,0.3143
372.5,0.377
373.0,0.3836
373.5,0.2497
374.0,0.3629
374.5,0.3007
375.0,0.2924
375.5,0.4366
376.0,0.362
376.5,0.3753
377.0,0.3975
377.5,0.4652
378.0,0.5044
378.5,0.4768
379.0,0.3936
379.5,0.3596
380.0,0.3739
380.5,0.4531
381.0,0.4543
381.5,0.3602
382.0,0.3201
382.5,0.273
383.0,0.2528
383.5,0.2436
384.0,0.2688
384.5,0.3955
385.0,0.3923
385.5,0.3655
386.0,0.3132
386.5,0.4115
387.0,0.342
387.5,0.3843
388.0,0.3549
388.5,0.351
389.0,0.3789
389.5,0.4591
390.0,0.4609
390.5,0.4243
391.0,0.4996
391.5,0.5097
392.0,0.4294
392.5,0.3846
393.0,0.2141
393.5,0.1557
394.0,0.3169
394.5,0.403
395.0,0.4919
395.5,0.4998
396.0,0.4334
396.5,0.2535
397.0,0.1903
397.5,0.3871
398.0,0.5422
398.5,0.5606
399.0,0.6073
399.5,0.6055
400.0,0.6288
401.0,0.6372
402.0,0.6727
403.0,0.6394
404.0,0.6298
405.0,0.63
406.0,0.6202
407.0,0.6105
408.0,0.6346
409.0,0.6795
410.0,0.594
411.0,0.6438
412.0,0.6919
413.0,0.6749
414.0,0.6835
415.0,0.6857
416.0,0.6981
417.0,0.6812
418.0,0.6688
419.0,0.6779
420.0,0.6752
421.0,0.7066
422.0,0.6719
423.0,0.6566
424.0,0.6946
425.0,0.6936
426.0,0.6761
427.0,0.6636
428.0,0.6466
429.0,0.6128
430.0,0.5365
431.0,0.5319
432.0,0.6871
433.0,0.6911
434.0,0.6418
435.0,0.6704
436.0,0.7558
437.0,0.746
438.0,0.6796
439.0,0.7027
440.0,0.7254
441.0,0.752
442.0,0.8067
443.0,0.7857
444.0,0.803
445.0,0.7857
446.0,0.7502
447.0,0.8114
448.0,0.824
449.0,0.8277
450.0,0.8511
451.0,0.8829
452.0,0.8508
453.0,0.8005
454.0,0.8359
455.0,0.8412
456.0,0.8613
457.0,0.8758
458.0,0.8458
459.0,0.8416
460.0,0.8439
461.0,0.8634
462.0,0.8703
463.0,0.8644
464.0,0.8505
465.0,0.8401
466.0,0.8485
467.0,0.8329
468.0,0.8428
469.0,0.8473
470.0,0.8202
471.0,0.8193
472.0,0.8633
473.0,0.8521
474.0,0.8532
475.0,0.8603
476.0,0.8344
477.0,0.8365
478.0,0.8599
479.0,0.8548
480.0,0.8567
481.0,0.8729
482.0,0.8778
483.0,0.8675
484.0,0.8499
485.0,0.8099
486.0,0.7082
487.0,0.7424
488.0,0.8145
489.0,0.817
490.0,0.8597
491.0,0.845
492.0,0.798
493.0,0.8242
494.0,0.8325
495.0,0.8397
496.0,0.8449
497.0,0.858
498.0,0.8178
499.0,0.8282
500.0,0.804
501.0,0.7891
502.0,0.7777
503.0,0.809
504.0,0.7874
505.0,0.8164
506.0,0.8428
507.0,0.802
508.0,0.7774
509.0,0.7994
510.0,0.7954
511.0,0.817
512.0,0.826
513.0,0.7818
514.0,0.7766
515.0,0.7689
516.0,0.7669
517.0,0.6815
518.0,0.7165
519.0,0.7515
520.0,0.7788
521.0,0.7862
522.0,0.7868
523.0,0.7726
524.0,0.8001
525.0,0.8092
526.0,0.7729
527.0,0.7281
528.0,0.7699
529.0,0.8114
530.0,0.7997
531.0,0.8115
532.0,0.7835
533.0,0.7606
534.0,0.7832
535.0,0.8004
536.0,0.8078
537.0,0.7761
538.0,0.7899
539.0,0.7832
540.0,0.7509
541.0,0.7555
542.0,0.779
543.0,0.7711
544.0,0.7842
545.0,0.7818
546.0,0.785
547.0,0.7849
548.0,0.7756
549.0,0.7781
550.0,0.7873
551.0,0.7778
552.0,0.7832
553.0,0.7692
554.0,0.7876
555.0,0.7891
556.0,0.7788
557.0,0.7544
558.0,0.7486
559.0,0.7345
560.0,0.7435
561.0,0.753
562.0,0.7474
563.0,0.7675
564.0,0.7464
565.0,0.7399
566.0,0.7288
567.0,0.7424
568.0,0.7352
569.0,0.7167
570.0,0.7166
571.0,0.7126
572.0,0.729
573.0,0.7366
574.0,0.7341
575.0,0.7202
576.0,0.7136
577.0,0.7215
578.0,0.711
579.0,0.7143
580.0,0.7287
581.0,0.733
582.0,0.7475
583.0,0.7497
584.0,0.7565
585.0,0.7382
586.0,0.7231
587.0,0.7386
588.0,0.7192
589.0,0.6345
590.0,0.6638
591.0,0.704
592.0,0.6942
593.0,0.7057
594.0,0.7002
595.0,0.682
596.0,0.7111
597.0,0.7029
598.0,0.7017
599.0,0.7026
600.0,0.7043
601.0,0.6989
602.0,0.6942
603.0,0.7059
604.0,0.7177
605.0,0.7141
606.0,0.7114
607.0,0.7187
608.0,0.711
609.0,0.7125
610.0,0.7076
611.0,0.7114
612.0,0.7095
613.0,0.7007
614.0,0.6913
615.0,0.7066
616.0,0.6835
617.0,0.6822
618.0,0.7086
619.0,0.7015
620.0,0.7059
621.0,0.7064
622.0,0.6979
623.0,0.6871
624.0,0.6755
625.0,0.674
626.0,0.684
627.0,0.6911
628.0,0.6393
629.0,0.6726
630.0,0.6569
631.0,0.6738
632.0,0.6661
633.0,0.6873
634.0,0.6813
635.0,0.6922
636.0,0.6834
637.0,0.6949
638.0,0.7021
639.0,0.6945
640.0,0.688
641.0,0.6878
642.0,0.6849
643.0,0.6942
644.0,0.6922
645.0,0.6931
646.0,0.6762
647.0,0.6665
648.0,0.6671
649.0,0.654
650.0,0.6593
651.0,0.6883
652.0,0.6574
653.0,0.6793
654.0,0.6719
655.0,0.6458
656.0,0.5731
657.0,0.5887
658.0,0.6604
659.0,0.6654
660.0,0.6683
661.0,0.6731
662.0,0.674
663.0,0.6609
664.0,0.6693
665.0,0.6703
666.0,0.671
667.0,0.6707
668.0,0.6712
669.0,0.6817
670.0,0.6789
671.0,0.6789
672.0,0.6731
673.0,0.6834
674.0,0.6809
675.0,0.6748
676.0,0.6795
677.0,0.6729
678.0,0.6749
679.0,0.6641
680.0,0.6694
681.0,0.665
682.0,0.6642
683.0,0.6629
684.0,0.6596
685.0,0.6654
686.0,0.6613
687.0,0.4126
688.0,0.4959
689.0,0.4981
690.0,0.5266
691.0,0.5591
692.0,0.5834
693.0,0.5783
694.0,0.5736
695.0,0.6006
696.0,0.6016
697.0,0.6424
698.0,0.6323
699.0,0.6146
700.0,0.607
701.0,0.6
702.0,0.6051
703.0,0.6064
704.0,0.6273
705.0,0.6283
706.0,0.6283
707.0,0.6291
708.0,0.6303
709.0,0.6323
710.0,0.6317
711.0,0.6312
712.0,0.6298
713.0,0.623
714.0,0.6255
715.0,0.6047
716.0,0.6048
717.0,0.5149
718.0,0.4716
719.0,0.4311
720.0,0.4508
721.0,0.5034
722.0,0.5822
723.0,0.5388
724.0,0.4817
725.0,0.4726
726.0,0.4953
727.0,0.5047
728.0,0.471
729.0,0.4921
730.0,0.5204
731.0,0.497
732.0,0.5352
733.0,0.57
734.0,0.5845
735.0,0.5719
736.0,0.5711
737.0,0.5734
738.0,0.5846
739.0,0.5731
740.0,0.5888
741.0,0.5834
742.0,0.5844
743.0,0.5994
744.0,0.5979
745.0,0.5983
746.0,0.601
747.0,0.6024
748.0,0.6012
749.0,0.5943
750.0,0.594
751.0,0.588
752.0,0.5906
753.0,0.5936
754.0,0.5949
755.0,0.5915
756.0,0.5913
757.0,0.5921
758.0,0.5847
759.0,0.5714
760.0,0.07201
761.0,0.03415
762.0,0.264
763.0,0.1177
764.0,0.1891
765.0,0.2639
766.0,0.337
767.0,0.4389
768.0,0.5179
769.0,0.5314
770.0,0.5525
771.0,0.5582
772.0,0.5598
773.0,0.5639
774.0,0.5612
775.0,0.557
776.0,0.5638
777.0,0.5564
778.0,0.553
779.0,0.5535
780.0,0.5504
781.0,0.551
782.0,0.5545
783.0,0.5448
784.0,0.5475
785.0,0.5434
786.0,0.5492
787.0,0.5385
788.0,0.5312
789.0,0.5309
790.0,0.5151
791.0,0.5212
792.0,0.5176
793.0,0.509
794.0,0.5195
795.0,0.5278
796.0,0.5093
797.0,0.5098
798.0,0.5269
799.0,0.5231
800.0,0.5135
801.0,0.5113
802.0,0.5099
803.0,0.5057
804.0,0.5067
805.0,0.5057
806.0,0.5211
807.0,0.5145
808.0,0.5151
809.0,0.5046
810.0,0.4999
811.0,0.4993
812.0,0.4835
813.0,0.4725
814.0,0.4107
815.0,0.4085
816.0,0.3796
817.0,0.387
818.0,0.3714
819.0,0.4195
820.0,0.3935
821.0,0.466
822.0,0.4517
823.0,0.2977
824.0,0.4363
825.0,0.4578
826.0,0.4385
827.0,0.4647
828.0,0.3883
829.0,0.4362
830.0,0.43
831.0,0.4316
832.0,0.4173
833.0,0.4468
834.0,0.4291
835.0,0.4756
836.0,0.4525
837.0,0.477
838.0,0.4609
839.0,0.4701
840.0,0.4808
841.0,0.4734
842.0,0.4753
843.0,0.476
844.0,0.4688
845.0,0.4853
846.0,0.4834
847.0,0.4747
848.0,0.4713
849.0,0.4579
850.0,0.4388
851.0,0.4641
852.0,0.461
853.0,0.4441
854.0,0.3832
855.0,0.4214
856.0,0.4603
857.0,0.4709
858.0,0.4673
859.0,0.4679
860.0,0.4688
861.0,0.4662
862.0,0.4736
863.0,0.4848
864.0,0.4606
865.0,0.4566
866.0,0.4106
867.0,0.4285
868.0,0.4663
869.0,0.4566
870.0,0.4697
871.0,0.4633
872.0,0.4616
873.0,0.4607
874.0,0.4553
875.0,0.446
876.0,0.4506
877.0,0.4552
878.0,0.4601
879.0,0.453
880.0,0.4433
881.0,0.4365
882.0,0.4458
883.0,0.4474
884.0,0.4453
885.0,0.4486
886.0,0.4268
887.0,0.4319
888.0,0.4379
889.0,0.4436
890.0,0.439
891.0,0.4387
892.0,0.4249
893.0,0.4104
894.0,0.3935
895.0,0.3687
896.0,0.3462
897.0,0.2935
898.0,0.3224
899.0,0.2406
900.0,0.3326
901.0,0.2522
902.0,0.3022
903.0,0.3031
904.0,0.3905
905.0,0.3758
906.0,0.3507
907.0,0.2788
908.0,0.2853
909.0,0.3118
910.0,0.2707
911.0,0.2919
912.0,0.306
913.0,0.2745
914.0,0.2731
915.0,0.2961
916.0,0.2495
917.0,0.3219
918.0,0.2556
919.0,0.3293
920.0,0.3358
921.0,0.3495
922.0,0.3087
923.0,0.3379
924.0,0.3158
925.0,0.309
926.0,0.3121
927.0,0.353
928.0,0.2484
929.0,0.2239
930.0,0.1714
931.0,0.1629
932.0,0.1126
933.0,0.08922
934.0,0.04413
935.0,0.09319
936.0,0.0551
937.0,0.05556
938.0,0.0695
939.0,0.1578
940.0,0.1932
941.0,0.1413
942.0,0.1663
943.0,0.1058
944.0,0.1148
945.0,0.1466
946.0,0.06991
947.0,0.146
948.0,0.1067
949.0,0.2001
950.0,0.04872
951.0,0.1979
952.0,0.1002
953.0,0.1334
954.0,0.1682
955.0,0.1355
956.0,0.1347
957.0,0.09984
958.0,0.1968
959.0,0.1511
960.0,0.1694
961.0,0.1943
962.0,0.1834
963.0,0.215
964.0,0.1959
965.0,0.2145
966.0,0.2137
967.0,0.2124
968.0,0.2981
969.0,0.3099
970.0,0.283
971.0,0.3298
972.0,0.3143
973.0,0.2677
974.0,0.2534
975.0,0.2653
976.0,0.2486
977.0,0.2894
978.0,0.2722
979.0,0.2869
980.0,0.2687
981.0,0.3281
982.0,0.3115
983.0,0.2979
984.0,0.3406
985.0,0.3103
986.0,0.3481
987.0,0.3395
988.0,0.339
989.0,0.348
990.0,0.3369
991.0,0.3489
992.0,0.3511
993.0,0.3415
994.0,0.3512
995.0,0.351
996.0,0.3492
997.0,0.3498
998.0,0.348
999.0,0.3469
1000.0,0.344
1001.0,0.3488
1002.0,0.3374
1003.0,0.3425
1004.0,0.3337
1005.0,0.3221
1006.0,0.3343
1007.0,0.3416
1008.0,0.3394
1009.0,0.3373
1010.0,0.3357
1011.0,0.3399
1012.0,0.3366
1013.0,0.3392
1014.0,0.3368
1015.0,0.3345
1016.0,0.333
1017.0,0.3337
1018.0,0.3327
1019.0,0.325
1020.0,0.3308
1021.0,0.3305
1022.0,0.3277
1023.0,0.3311
1024.0,0.3261
1025.0,0.3311
1026.0,0.3295
1027.0,0.3288
1028.0,0.3281
1029.0,0.3241
1030.0,0.3266
1031.0,0.3252
1032.0,0.3243
1033.0,0.3194
1034.0,0.3195
1035.0,0.3204
1036.0,0.322
1037.0,0.3168
1038.0,0.3182
1039.0,0.318
1040.0,0.3167
1041.0,0.3179
1042.0,0.3157
1043.0,0.3146
1044.0,0.3157
1045.0,0.3114
1046.0,0.3079
1047.0,0.3106
1048.0,0.3123
1049.0,0.3111
1050.0,0.3096
1051.0,0.3091
1052.0,0.3078
1053.0,0.3052
1054.0,0.3058
1055.0,0.3059
1056.0,0.3047
1057.0,0.3037
1058.0,0.2961
1059.0,0.2963
1060.0,0.2958
1061.0,0.2954
1062.0,0.2968
1063.0,0.2938
1064.0,0.2973
1065.0,0.295
1066.0,0.2893
1067.0,0.293
1068.0,0.2864
1069.0,0.2777
1070.0,0.287
1071.0,0.292
1072.0,0.2882
1073.0,0.2841
1074.0,0.2921
1075.0,0.2757
1076.0,0.2918
1077.0,0.2856
1078.0,0.2797
1079.0,0.2874
1080.0,0.2812
1081.0,0.2713
1082.0,0.2772
1083.0,0.2784
1084.0,0.2702
1085.0,0.282
1086.0,0.2548
1087.0,0.2648
1088.0,0.2778
1089.0,0.2676
1090.0,0.2607
1091.0,0.2765
1092.0,0.2761
1093.0,0.2293
1094.0,0.252
1095.0,0.2394
1096.0,0.2278
1097.0,0.2698
1098.0,0.2237
1099.0,0.2341
1100.0,0.2156
1101.0,0.2189
1102.0,0.2078
1103.0,0.2048
1104.0,0.2052
1105.0,0.2283
1106.0,0.1667
1107.0,0.2153
1108.0,0.1778
1109.0,0.179
1110.0,0.2127
1111.0,0.138
1112.0,0.178
1113.0,0.107
1114.0,0.1201
1115.0,0.09924
1116.0,0.07558
1117.0,0.02409
1118.0,0.08338
1119.0,0.03826
1120.0,0.04785
1121.0,0.06533
1122.0,0.02488
1123.0,0.04338
1124.0,0.03657
1125.0,0.04848
1126.0,0.01435
1127.0,0.05493
1128.0,0.03004
1129.0,0.03223
1130.0,0.02032
1131.0,0.1113
1132.0,0.08595
1133.0,0.05061
1134.0,0.01099
1135.0,0.00424
1136.0,0.04088
1137.0,0.1079
1138.0,0.07533
1139.0,0.1202
1140.0,0.09741
1141.0,0.07166
1142.0,0.08396
1143.0,0.1225
1144.0,0.03916
1145.0,0.04887
1146.0,0.05266
1147.0,0.01596
1148.0,0.1058
1149.0,0.08219
1150.0,0.04262
1151.0,0.07472
1152.0,0.09469
1153.0,0.09438
1154.0,0.04716
1155.0,0.1252
1156.0,0.1112
1157.0,0.1275
1158.0,0.126
1159.0,0.1378
1160.0,0.1159
1161.0,0.147
1162.0,0.1474
1163.0,0.2063
1164.0,0.1743
1165.0,0.1619
1166.0,0.1627
1167.0,0.1785
1168.0,0.1799
1169.0,0.185
1170.0,0.2031
1171.0,0.1979
1172.0,0.2028
1173.0,0.2027
1174.0,0.1397
1175.0,0.1991
1176.0,0.2215
1177.0,0.2109
1178.0,0.1546
1179.0,0.2234
1180.0,0.1965
1181.0,0.203
1182.0,0.136
1183.0,0.2005
1184.0,0.1865
1185.0,0.1788
1186.0,0.216
1187.0,0.2045
1188.0,0.1377
1189.0,0.1902
1190.0,0.2112
1191.0,0.1982
1192.0,0.2144
1193.0,0.2047
1194.0,0.2115
1195.0,0.1984
1196.0,0.1902
1197.0,0.2124
1198.0,0.1933
1199.0,0.1611
1200.0,0.202
1201.0,0.1936
1202.0,0.1934
1203.0,0.1914
1204.0,0.1657
1205.0,0.1989
1206.0,0.2214
1207.0,0.1925
1208.0,0.1904
1209.0,0.1946
1210.0,0.2035
1211.0,0.1925
1212.0,0.1886
1213.0,0.2133
1214.0,0.1938
1215.0,0.1899
1216.0,0.2128
1217.0,0.2065
1218.0,0.211
1219.0,0.2081
1220.0,0.2113
1221.0,0.2137
1222.0,0.2079
1223.0,0.2057
1224.0,0.2038
1225.0,0.2123
1226.0,0.2142
1227.0,0.1959
1228.0,0.2156
1229.0,0.2142
1230.0,0.2102
1231.0,0.2173
1232.0,0.216
1233.0,0.2071
1234.0,0.2174
1235.0,0.2158
1236.0,0.2175
1237.0,0.2139
1238.0,0.2168
1239.0,0.214
1240.0,0.2149
1241.0,0.2135
1242.0,0.2134
1243.0,0.2117
1244.0,0.2131
1245.0,0.2141
1246.0,0.2128
1247.0,0.2119
1248.0,0.2116
1249.0,0.2124
1250.0,0.211
1251.0,0.2081
1252.0,0.2084
1253.0,0.2062
1254.0,0.2038
1255.0,0.208
1256.0,0.2013
1257.0,0.2
1258.0,0.2045
1259.0,0.1957
1260.0,0.1969
1261.0,0.1841
1262.0,0.1776
1263.0,0.1779
1264.0,0.1621
1265.0,0.1768
1266.0,0.1689
1267.0,0.1727
1268.0,0.1624
1269.0,0.09217
1270.0,0.1718
1271.0,0.1837
1272.0,0.1845
1273.0,0.1823
1274.0,0.1832
1275.0,0.1861
1276.0,0.1883
1277.0,0.19
1278.0,0.1943
1279.0,0.1925
1280.0,0.1901
1281.0,0.1817
1282.0,0.1757
1283.0,0.1891
1284.0,0.1935
1285.0,0.1949
1286.0,0.1978
1287.0,0.1942
1288.0,0.1943
1289.0,0.1871
1290.0,0.1926
1291.0,0.1955
1292.0,0.1817
1293.0,0.1912
1294.0,0.1898
1295.0,0.1883
1296.0,0.1785
1297.0,0.1679
1298.0,0.1827
1299.0,0.1917
1300.0,0.1589
1301.0,0.1644
1302.0,0.1822
1303.0,0.1572
1304.0,0.1309
1305.0,0.1782
1306.0,0.178
1307.0,0.1349
1308.0,0.158
1309.0,0.1762
1310.0,0.1321
1311.0,0.1507
1312.0,0.1461
1313.0,0.1427
1314.0,0.1266
1315.0,0.1242
1316.0,0.1477
1317.0,0.1396
1318.0,0.153
1319.0,0.1158
1320.0,0.113
1321.0,0.1329
1322.0,0.1336
1323.0,0.09735
1324.0,0.1137
1325.0,0.1453
1326.0,0.1227
1327.0,0.1165
1328.0,0.09942
1329.0,0.07186
1330.0,0.09497
1331.0,0.05409
1332.0,0.05691
1333.0,0.0799
1334.0,0.06948
1335.0,0.09686
1336.0,0.07484
1337.0,0.0654
1338.0,0.0707
1339.0,0.07087
1340.0,0.06985
1341.0,0.06605
1342.0,0.0696
1343.0,0.04313
1344.0,0.02614
1345.0,0.03774
1346.0,0.01642
1347.0,0.01629
1348.0,0.0007851
1349.0,0.003057
1350.0,0.003363
1351.0,0.0006232
1352.0,0.0001226
1353.0,4.642e-06
1354.0,1.975e-05
1355.0,8.294e-08
1356.0,2.231e-06
1357.0,3.413e-06
1358.0,1.009e-07
1359.0,7.687e-09
1360.0,3.86e-08
1361.0,1.545e-11
1362.0,2.852e-14
1363.0,4.339e-08
1364.0,1.807e-08
1365.0,5.815e-15
1366.0,2.163e-07
1367.0,9.994e-08
1368.0,1.816e-17
1369.0,6.636e-09
1370.0,2.647e-09
1371.0,1.184e-10
1372.0,5.548e-08
1373.0,1.555e-06
1374.0,9.099e-06
1375.0,1.605e-05
1376.0,1.802e-05
1377.0,7.877e-06
1378.0,8.356e-05
1379.0,3.308e-06
1380.0,4.088e-06
1381.0,9.512e-08
1382.0,4.7e-08
1383.0,6.002e-10
1384.0,6.852e-09
1385.0,5.715e-08
1386.0,3.589e-08
1387.0,8.026e-06
1388.0,1.656e-07
1389.0,3.578e-05
1390.0,3.038e-05
1391.0,1.953e-05
1392.0,1.204e-06
1393.0,7.196e-06
1394.0,2.507e-06
1395.0,1.462e-08
1396.0,2.558e-11
1397.0,2.62e-06
1398.0,9.095e-05
1399.0,5.842e-05
1400.0,8.368e-12
1401.0,5.079e-11
1402.0,0.0002292
1403.0,0.0002693
1404.0,7.955e-05
1405.0,5.927e-09
1406.0,0.0001844
1407.0,1.82e-05
1408.0,0.0001542
1409.0,4.278e-05
1410.0,3.965e-05
1411.0,0.0002401
1412.0,0.0003551
1413.0,0.00472
1414.0,3.214e-05
1415.0,1.416e-05
1416.0,0.009262
1417.0,0.002354
1418.0,0.002559
1419.0,0.0003809
1420.0,0.001553
1421.0,0.001718
1422.0,0.01217
1423.0,0.002252
1424.0,0.00436
1425.0,0.006154
1426.0,0.007578
1427.0,0.01524
1428.0,0.0007165
1429.0,0.0107
1430.0,0.02006
1431.0,0.0225
1432.0,0.0005567
1433.0,0.0137
1434.0,0.006667
1435.0,0.00567
1436.0,0.01245
1437.0,0.009588
