interpolation:linear
wavelength,value
280.0,1.109e-22
280.5,3.689e-21
281.0,1.988e-20
281.5,4.476e-19
282.0,5.411e-19
282.5,1.318e-18
283.0,4.144e-18
283.5,6.748e-18
284.0,1.114e-16
284.5,3.263e-16
285.0,5.749e-16
285.5,2.791e-15
286.0,1.121e-14
286.5,5.028e-14
287.0,1.443e-13
287.5,5.57e-13
288.0,1.973e-12
288.5,5.767e-12
289.0,1.506e-11
289.5,4.493e-11
290.0,1.241e-10
290.5,2.525e-10
291.0,5.417e-10
291.5,1.555e-09
292.0,3.141e-09
292.5,4.39e-09
293.0,9.371e-09
293.5,2.268e-08
294.0,3.54e-08
294.5,4.697e-08
295.0,7.934e-08
295.5,1.333e-07
296.0,2.545e-07
296.5,3.521e-07
297.0,4.716e-07
297.5,1.244e-06
298.0,1.93e-06
298.5,1.915e-06
299.0,4.161e-06
299.5,6.715e-06
300.0,7.251e-06
300.5,1.029e-05
301.0,1.797e-05
301.5,2.76e-05
302.0,2.312e-05
302.5,4.523e-05
303.0,8.181e-05
303.5,0.0001044
304.0,0.0001009
304.5,0.0001626
305.0,0.000276
305.5,0.0003402
306.0,0.0003389
306.5,0.000443
307.0,0.0007339
307.5,0.001087
308.0,0.001168
308.5,0.001456
309.0,0.00171
309.5,0.002289
310.0,0.002471
310.5,0.004146
311.0,0.005516
311.5,0.00546
312.0,0.006191
312.5,0.008186
313.0,0.009271
313.5,0.008645
314.0,0.01194
314.5,0.01207
315.0,0.01623
315.5,0.01274
316.0,0.01237
316.5,0.01947
317.0,0.02412
317.5,0.02446
318.0,0.0203
318.5,0.0284
319.0,0.03579
319.5,0.02648
320.0,0.03153
320.5,0.04455
321.0,0.04426
321.5,0.04289
322.0,0.04065
322.5,0.03558
323.0,0.03824
323.5,0.05119
324.0,0.06052
324.5,0.05946
325.0,0.04876
325.5,0.06671
326.0,0.08428
326.5,0.08801
327.0,0.08637
327.5,0.0818
328.0,0.06887
328.5,0.07746
329.0,0.09785
329.5,0.1129
330.0,0.1124
330.5,0.08635
331.0,0.08676
331.5,0.09094
332.0,0.1027
332.5,0.1037
333.0,0.1022
333.5,0.08954
334.0,0.09126
334.5,0.1093
335.0,0.105
335.5,0.1236
336.0,0.08554
336.5,0.09838
337.0,0.07949
337.5,0.09833
338.0,0.09902
338.5,0.1156
339.0,0.1147
339.5,0.1102
340.0,0.1282
340.5,0.116
341.0,0.1141
341.5,0.1052
342.0,0.1259
342.5,0.118
343.0,0.1295
343.5,0.1218
344.0,0.08927
344.5,0.09075
345.0,0.1207
345.5,0.1235
346.0,0.1052
346.5,0.1192
347.0,0.1278
347.5,0.1033
348.0,0.1181
348.5,0.1183
349.0,0.1099
349.5,0.1089
350.0,0.1348
350.5,0.1422
351.0,0.1269
351.5,0.1231
352.0,0.1325
352.5,0.1036
353.0,0.1308
353.5,0.14
354.0,0.1455
354.5,0.1476
355.0,0.1471
355.5,0.1331
356.0,0.1394
356.5,0.1191
357.0,0.09839
357.5,0.1205
358.0,0.09559
358.5,0.08173
359.0,0.1143
359.5,0.1456
360.0,0.1545
360.5,0.1236
361.0,0.1128
361.5,0.1301
362.0,0.1127
362.5,0.1561
363.0,0.1404
363.5,0.1294
364.0,0.1585
364.5,0.1355
365.0,0.1381
365.5,0.1735
366.0,0.184
366.5,0.1731
367.0,0.1687
367.5,0.1752
368.0,0.1534
368.5,0.1549
369.0,0.1675
369.5,0.1787
370.0,0.1906
370.5,0.1481
371.0,0.1584
371.5,0.1983
372.0,0.1317
372.5,0.158
373.0,0.1609
373.5,0.1048
374.0,0.1524
374.5,0.1263
375.0,0.1229
375.5,0.1835
376.0,0.1523
376.5,0.1579
377.0,0.1673
377.5,0.1959
378.0,0.2125
378.5,0.2009
379.0,0.1659
379.5,0.1516
380.0,0.1577
380.5,0.1912
381.0,0.1919
381.5,0.1523
382.0,0.1354
382.5,0.1156
383.0,0.1071
383.5,0.1033
384.0,0.114
384.5,0.1679
385.0,0.1666
385.5,0.1553
386.0,0.1332
386.5,0.1751
387.0,0.1456
387.5,0.1637
388.0,0.1512
388.5,0.1496
389.0,0.1617
389.5,0.196
390.0,0.1969
390.5,0.1813
391.0,0.2136
391.5,0.2181
392.0,0.1838
392.5,0.1647
393.0,0.09176
393.5,0.06677
394.0,0.136
394.5,0.173
395.0,0.2113
395.5,0.2148
396.0,0.1864
396.5,0.1091
397.0,0.08195
397.5,0.1668
398.0,0.2337
398.5,0.2417
399.0,0.2621
399.5,0.2615
400.0,0.2716
401.0,0.273
402.0,0.2887
403.0,0.2748
404.0,0.2709
405.0,0.2713
406.0,0.2675
407.0,0.2637
408.0,0.2742
409.0,0.2939
410.0,0.2572
411.0,0.2791
412.0,0.3005
413.0,0.2933
414.0,0.2975
415.0,0.2988
416.0,0.3047
417.0,0.2975
418.0,0.2924
419.0,0.2968
420.0,0.2958
421.0,0.31
422.0,0.295
423.0,0.2885
424.0,0.3054
425.0,0.3054
426.0,0.2982
427.0,0.293
428.0,0.2857
429.0,0.2713
430.0,0.2378
431.0,0.2358
432.0,0.305
433.0,0.3071
434.0,0.2854
435.0,0.2983
436.0,0.3368
437.0,0.333
438.0,0.3037
439.0,0.3137
440.0,0.3242
441.0,0.3365
442.0,0.3612
443.0,0.3517
444.0,0.36
445.0,0.3523
446.0,0.3372
447.0,0.3654
448.0,0.3708
449.0,0.3733
450.0,0.3843
451.0,0.3989
452.0,0.3848
453.0,0.3624
454.0,0.379
455.0,0.3815
456.0,0.3909
457.0,0.3976
458.0,0.3836
459.0,0.3819
460.0,0.3828
461.0,0.3919
462.0,0.3956
463.0,0.3929
464.0,0.3875
465.0,0.3836
466.0,0.388
467.0,0.3808
468.0,0.3854
469.0,0.3875
470.0,0.3751
471.0,0.3749
472.0,0.395
473.0,0.39
474.0,0.39
475.0,0.3927
476.0,0.3801
477.0,0.3805
478.0,0.3913
479.0,0.3895
480.0,0.3907
481.0,0.3988
482.0,0.4017
483.0,0.3979
484.0,0.3904
485.0,0.3726
486.0,0.3264
487.0,0.3428
488.0,0.3761
489.0,0.377
490.0,0.3971
491.0,0.3908
492.0,0.3692
493.0,0.3815
494.0,0.3855
495.0,0.389
496.0,0.3914
497.0,0.3975
498.0,0.3788
499.0,0.3832
500.0,0.3715
501.0,0.364
502.0,0.3577
503.0,0.3711
504.0,0.3583
505.0,0.3738
506.0,0.3858
507.0,0.3673
508.0,0.357
509.0,0.3679
510.0,0.3666
511.0,0.3772
512.0,0.3817
513.0,0.3614
514.0,0.3592
515.0,0.3556
516.0,0.3546
517.0,0.3153
518.0,0.3314
519.0,0.3475
520.0,0.36
521.0,0.3633
522.0,0.3633
523.0,0.3565
524.0,0.3687
525.0,0.3721
526.0,0.3551
527.0,0.3339
528.0,0.3525
529.0,0.371
530.0,0.3654
531.0,0.3704
532.0,0.3575
533.0,0.3471
534.0,0.3576
535.0,0.3659
536.0,0.3696
537.0,0.3554
538.0,0.3619
539.0,0.3588
540.0,0.3438
541.0,0.345
542.0,0.3553
543.0,0.3524
544.0,0.3576
545.0,0.3567
546.0,0.3574
547.0,0.358
548.0,0.3541
549.0,0.3554
550.0,0.3597
551.0,0.3555
552.0,0.358
553.0,0.3514
554.0,0.3597
555.0,0.3602
556.0,0.3553
557.0,0.344
558.0,0.3408
559.0,0.3338
560.0,0.3376
561.0,0.3415
562.0,0.3383
563.0,0.3468
564.0,0.3367
565.0,0.3332
566.0,0.3278
567.0,0.3333
568.0,0.3285
569.0,0.3173
570.0,0.3176
571.0,0.3165
572.0,0.3218
573.0,0.3248
574.0,0.3232
575.0,0.3164
576.0,0.3136
577.0,0.3173
578.0,0.3136
579.0,0.3164
580.0,0.325
581.0,0.3287
582.0,0.3366
583.0,0.3389
584.0,0.3428
585.0,0.335
586.0,0.3282
587.0,0.3343
588.0,0.3219
589.0,0.277
590.0,0.2903
591.0,0.3122
592.0,0.3053
593.0,0.3136
594.0,0.3099
595.0,0.299
596.0,0.3177
597.0,0.3124
598.0,0.3137
599.0,0.3149
600.0,0.3171
601.0,0.3158
602.0,0.3139
603.0,0.3198
604.0,0.3254
605.0,0.3242
606.0,0.3236
607.0,0.3277
608.0,0.3248
609.0,0.3261
610.0,0.3245
611.0,0.3267
612.0,0.3262
613.0,0.3226
614.0,0.3188
615.0,0.3264
616.0,0.3162
617.0,0.316
618.0,0.3286
619.0,0.3255
620.0,0.3276
621.0,0.3273
622.0,0.323
623.0,0.3177
624.0,0.3127
625.0,0.312
626.0,0.3164
627.0,0.3182
628.0,0.2775
629.0,0.3037
630.0,0.296
631.0,0.3095
632.0,0.3071
633.0,0.3192
634.0,0.3184
635.0,0.3245
636.0,0.3215
637.0,0.3278
638.0,0.3326
639.0,0.3297
640.0,0.3275
641.0,0.328
642.0,0.3274
643.0,0.3319
644.0,0.3317
645.0,0.3318
646.0,0.3217
647.0,0.3122
648.0,0.313
649.0,0.306
650.0,0.3147
651.0,0.3296
652.0,0.309
653.0,0.3257
654.0,0.3226
655.0,0.3071
656.0,0.2747
657.0,0.2825
658.0,0.319
659.0,0.3222
660.0,0.3241
661.0,0.3267
662.0,0.3262
663.0,0.3202
664.0,0.326
665.0,0.3278
666.0,0.3286
667.0,0.3291
668.0,0.3301
669.0,0.3358
670.0,0.3347
671.0,0.335
672.0,0.3324
673.0,0.3378
674.0,0.3369
675.0,0.3342
676.0,0.3368
677.0,0.3338
678.0,0.335
679.0,0.3299
680.0,0.3327
681.0,0.3306
682.0,0.3303
683.0,0.3297
684.0,0.3281
685.0,0.3312
686.0,0.3289
687.0,0.1397
688.0,0.1956
689.0,0.1974
690.0,0.2194
691.0,0.246
692.0,0.2679
693.0,0.2651
694.0,0.2653
695.0,0.2868
696.0,0.288
697.0,0.3174
698.0,0.3122
699.0,0.2965
700.0,0.2924
701.0,0.286
702.0,0.2913
703.0,0.2929
704.0,0.3072
705.0,0.3076
706.0,0.3091
707.0,0.3102
708.0,0.3106
709.0,0.3146
710.0,0.3127
711.0,0.3136
712.0,0.3143
713.0,0.3095
714.0,0.3112
715.0,0.2979
716.0,0.2972
717.0,0.2283
718.0,0.2077
719.0,0.188
720.0,0.1938
721.0,0.2302
722.0,0.2812
723.0,0.2531
724.0,0.2171
725.0,0.2104
726.0,0.2209
727.0,0.2315
728.0,0.2086
729.0,0.2264
730.0,0.2367
731.0,0.2249
732.0,0.2515
733.0,0.2758
734.0,0.2858
735.0,0.278
736.0,0.277
737.0,0.2784
738.0,0.2909
739.0,0.2854
740.0,0.2953
741.0,0.2938
742.0,0.2957
743.0,0.3037
744.0,0.3038
745.0,0.3047
746.0,0.3061
747.0,0.307
748.0,0.3064
749.0,0.303
750.0,0.3029
751.0,0.2999
752.0,0.3013
753.0,0.303
754.0,0.3036
755.0,0.3019
756.0,0.3019
757.0,0.3023
758.0,0.2983
759.0,0.2867
760.0,0.008017
761.0,0.002711
762.0,0.07207
763.0,0.01763
764.0,0.03962
765.0,0.07184
766.0,0.1151
767.0,0.181
768.0,0.2441
769.0,0.258
770.0,0.277
771.0,0.284
772.0,0.2861
773.0,0.2885
774.0,0.2874
775.0,0.2854
776.0,0.289
777.0,0.2853
778.0,0.2835
779.0,0.2837
780.0,0.2823
781.0,0.2826
782.0,0.2845
783.0,0.2797
784.0,0.2812
785.0,0.2787
786.0,0.2815
787.0,0.2724
788.0,0.2671
789.0,0.267
790.0,0.2545
791.0,0.2621
792.0,0.2611
793.0,0.2563
794.0,0.2661
795.0,0.2691
796.0,0.2532
797.0,0.2527
798.0,0.2678
799.0,0.2648
800.0,0.2584
801.0,0.2556
802.0,0.2547
803.0,0.2517
804.0,0.253
805.0,0.2545
806.0,0.2657
807.0,0.2616
808.0,0.2621
809.0,0.2542
810.0,0.2504
811.0,0.2472
812.0,0.2343
813.0,0.2277
814.0,0.1871
815.0,0.1871
816.0,0.1722
817.0,0.1759
818.0,0.1663
819.0,0.197
820.0,0.1818
821.0,0.23
822.0,0.2206
823.0,0.1248
824.0,0.2073
825.0,0.2262
826.0,0.2117
827.0,0.2293
828.0,0.1776
829.0,0.2117
830.0,0.2078
831.0,0.2084
832.0,0.199
833.0,0.2192
834.0,0.2066
835.0,0.2395
836.0,0.2203
837.0,0.2402
838.0,0.2282
839.0,0.2369
840.0,0.2433
841.0,0.2379
842.0,0.2414
843.0,0.2444
844.0,0.2394
845.0,0.2496
846.0,0.2491
847.0,0.2454
848.0,0.2425
849.0,0.2356
850.0,0.2259
851.0,0.2376
852.0,0.2367
853.0,0.229
854.0,0.1967
855.0,0.2175
856.0,0.2371
857.0,0.2434
858.0,0.2411
859.0,0.242
860.0,0.2429
861.0,0.2414
862.0,0.2454
863.0,0.2512
864.0,0.2388
865.0,0.2368
866.0,0.2129
867.0,0.2223
868.0,0.2419
869.0,0.237
870.0,0.2437
871.0,0.2404
872.0,0.2396
873.0,0.2392
874.0,0.2364
875.0,0.2315
876.0,0.2338
877.0,0.2363
878.0,0.2386
879.0,0.235
880.0,0.23
881.0,0.2259
882.0,0.2304
883.0,0.2319
884.0,0.2306
885.0,0.2323
886.0,0.2189
887.0,0.2232
888.0,0.2255
889.0,0.23
890.0,0.2255
891.0,0.2264
892.0,0.2165
893.0,0.2068
894.0,0.1925
895.0,0.1735
896.0,0.1614
897.0,0.1296
898.0,0.1455
899.0,0.1009
900.0,0.155
901.0,0.1057
902.0,0.1368
903.0,0.1334
904.0,0.1907
905.0,0.1814
906.0,0.1671
907.0,0.1204
908.0,0.1262
909.0,0.142
910.0,0.115
911.0,0.1313
912.0,0.1372
913.0,0.1161
914.0,0.1175
915.0,0.126
916.0,0.1055
917.0,0.1442
918.0,0.1072
919.0,0.1507
920.0,0.1612
921.0,0.1666
922.0,0.1411
923.0,0.162
924.0,0.1419
925.0,0.1395
926.0,0.1393
927.0,0.1636
928.0,0.09777
929.0,0.08371
930.0,0.05696
931.0,0.05364
932.0,0.03082
933.0,0.02211
934.0,0.00695
935.0,0.0248
936.0,0.01174
937.0,0.01184
938.0,0.01578
939.0,0.05172
940.0,0.0686
941.0,0.04408
942.0,0.05463
943.0,0.03041
944.0,0.03776
945.0,0.04719
946.0,0.01699
947.0,0.0454
948.0,0.03275
949.0,0.06849
950.0,0.01008
951.0,0.06801
952.0,0.02783
953.0,0.04165
954.0,0.05784
955.0,0.04293
956.0,0.04995
957.0,0.02757
958.0,0.07768
959.0,0.05239
960.0,0.05883
961.0,0.07349
962.0,0.06934
963.0,0.08672
964.0,0.0776
965.0,0.08579
966.0,0.08545
967.0,0.08389
968.0,0.1413
969.0,0.1426
970.0,0.1288
971.0,0.1603
972.0,0.1502
973.0,0.1179
974.0,0.1113
975.0,0.1192
976.0,0.1058
977.0,0.1362
978.0,0.1228
979.0,0.132
980.0,0.1225
981.0,0.1597
982.0,0.1479
983.0,0.1395
984.0,0.1709
985.0,0.1469
986.0,0.178
987.0,0.1704
988.0,0.1704
989.0,0.1802
990.0,0.1692
991.0,0.1802
992.0,0.1817
993.0,0.1734
994.0,0.1822
995.0,0.1827
996.0,0.1811
997.0,0.1817
998.0,0.1806
999.0,0.1802
1000.0,0.1778
1001.0,0.1813
1002.0,0.1715
1003.0,0.1778
1004.0,0.1721
1005.0,0.1676
1006.0,0.1733
1007.0,0.1774
1008.0,0.1756
1009.0,0.1737
1010.0,0.1725
1011.0,0.1766
1012.0,0.1742
1013.0,0.1765
1014.0,0.1752
1015.0,0.1739
1016.0,0.173
1017.0,0.1733
1018.0,0.1732
1019.0,0.1677
1020.0,0.172
1021.0,0.1721
1022.0,0.1701
1023.0,0.1718
1024.0,0.1677
1025.0,0.1723
1026.0,0.1711
1027.0,0.1708
1028.0,0.1703
1029.0,0.1681
1030.0,0.1699
1031.0,0.169
1032.0,0.1687
1033.0,0.1661
1034.0,0.1662
1035.0,0.1667
1036.0,0.1673
1037.0,0.1647
1038.0,0.1653
1039.0,0.1651
1040.0,0.1644
1041.0,0.1649
1042.0,0.1637
1043.0,0.1631
1044.0,0.1636
1045.0,0.1612
1046.0,0.1593
1047.0,0.1606
1048.0,0.1614
1049.0,0.1606
1050.0,0.1597
1051.0,0.1593
1052.0,0.1585
1053.0,0.157
1054.0,0.1571
1055.0,0.1569
1056.0,0.156
1057.0,0.1553
1058.0,0.1512
1059.0,0.151
1060.0,0.1507
1061.0,0.1503
1062.0,0.1508
1063.0,0.1491
1064.0,0.1509
1065.0,0.1492
1066.0,0.1467
1067.0,0.1485
1068.0,0.1447
1069.0,0.1407
1070.0,0.145
1071.0,0.1489
1072.0,0.1459
1073.0,0.1441
1074.0,0.1496
1075.0,0.1378
1076.0,0.1493
1077.0,0.1442
1078.0,0.1402
1079.0,0.1477
1080.0,0.142
1081.0,0.1351
1082.0,0.1411
1083.0,0.1427
1084.0,0.134
1085.0,0.1427
1086.0,0.1245
1087.0,0.1322
1088.0,0.1418
1089.0,0.1329
1090.0,0.1281
1091.0,0.1402
1092.0,0.1406
1093.0,0.1083
1094.0,0.1272
1095.0,0.1131
1096.0,0.1055
1097.0,0.1374
1098.0,0.102
1099.0,0.1079
1100.0,0.09648
1101.0,0.09926
1102.0,0.09179
1103.0,0.08883
1104.0,0.08931
1105.0,0.1045
1106.0,0.06417
1107.0,0.09642
1108.0,0.07235
1109.0,0.07373
1110.0,0.09319
1111.0,0.05075
1112.0,0.07371
1113.0,0.03568
1114.0,0.04012
1115.0,0.03223
1116.0,0.02056
1117.0,0.003903
1118.0,0.02333
1119.0,0.007873
1120.0,0.009314
1121.0,0.01401
1122.0,0.003459
1123.0,0.008535
1124.0,0.007153
1125.0,0.01024
1126.0,0.001475
1127.0,0.01177
1128.0,0.004409
1129.0,0.004867
1130.0,0.00294
1131.0,0.03123
1132.0,0.02256
1133.0,0.009771
1134.0,0.001106
1135.0,0.0005023
1136.0,0.006811
1137.0,0.02883
1138.0,0.01926
1139.0,0.04057
1140.0,0.02923
1141.0,0.01848
1142.0,0.02319
1143.0,0.03844
1144.0,0.008698
1145.0,0.009339
1146.0,0.01004
1147.0,0.001607
1148.0,0.03225
1149.0,0.02262
1150.0,0.01051
1151.0,0.01915
1152.0,0.0273
1153.0,0.02977
1154.0,0.009605
1155.0,0.04222
1156.0,0.03545
1157.0,0.04573
1158.0,0.045
1159.0,0.05095
1160.0,0.04195
1161.0,0.05912
1162.0,0.05851
1163.0,0.0939
1164.0,0.07533
1165.0,0.06585
1166.0,0.06992
1167.0,0.07861
1168.0,0.07846
1169.0,0.08154
1170.0,0.09338
1171.0,0.09102
1172.0,0.09604
1173.0,0.0933
1174.0,0.05655
1175.0,0.09432
1176.0,0.1105
1177.0,0.1013
1178.0,0.06821
1179.0,0.1113
1180.0,0.09208
1181.0,0.09522
1182.0,0.05652
1183.0,0.09518
1184.0,0.08598
1185.0,0.08004
1186.0,0.1048
1187.0,0.09656
1188.0,0.05561
1189.0,0.08954
1190.0,0.1033
1191.0,0.09139
1192.0,0.1054
1193.0,0.09872
1194.0,0.1033
1195.0,0.09313
1196.0,0.08733
1197.0,0.105
1198.0,0.09435
1199.0,0.07121
1200.0,0.09748
1201.0,0.09054
1202.0,0.09318
1203.0,0.09026
1204.0,0.07545
1205.0,0.09771
1206.0,0.1123
1207.0,0.09147
1208.0,0.09282
1209.0,0.09507
1210.0,0.1012
1211.0,0.0933
1212.0,0.08672
1213.0,0.1059
1214.0,0.09069
1215.0,0.08859
1216.0,0.1063
1217.0,0.1018
1218.0,0.1052
1219.0,0.1028
1220.0,0.1056
1221.0,0.1078
1222.0,0.1043
1223.0,0.1025
1224.0,0.09978
1225.0,0.1067
1226.0,0.109
1227.0,0.09546
1228.0,0.1105
1229.0,0.109
1230.0,0.1062
1231.0,0.1124
1232.0,0.1116
1233.0,0.1035
1234.0,0.1133
1235.0,0.1119
1236.0,0.1133
1237.0,0.11
1238.0,0.1129
1239.0,0.1114
1240.0,0.1121
1241.0,0.1104
1242.0,0.1112
1243.0,0.1104
1244.0,0.1108
1245.0,0.1115
1246.0,0.1109
1247.0,0.1101
1248.0,0.1094
1249.0,0.1103
1250.0,0.1093
1251.0,0.1071
1252.0,0.1081
1253.0,0.1055
1254.0,0.1032
1255.0,0.1075
1256.0,0.1014
1257.0,0.1002
1258.0,0.1046
1259.0,0.09608
1260.0,0.09715
1261.0,0.08608
1262.0,0.08066
1263.0,0.08067
1264.0,0.06833
1265.0,0.08026
1266.0,0.07353
1267.0,0.07739
1268.0,0.06937
1269.0,0.02379
1270.0,0.07609
1271.0,0.08656
1272.0,0.08738
1273.0,0.08582
1274.0,0.08697
1275.0,0.08923
1276.0,0.09123
1277.0,0.09336
1278.0,0.09734
1279.0,0.0964
1280.0,0.09529
1281.0,0.092
1282.0,0.09043
1283.0,0.09703
1284.0,0.09903
1285.0,0.1
1286.0,0.1023
1287.0,0.09893
1288.0,0.09951
1289.0,0.09278
1290.0,0.09879
1291.0,0.1008
1292.0,0.08845
1293.0,0.09744
1294.0,0.09651
1295.0,0.09378
1296.0,0.08588
1297.0,0.07874
1298.0,0.09044
1299.0,0.0981
1300.0,0.0739
1301.0,0.07758
1302.0,0.09038
1303.0,0.0737
1304.0,0.05503
1305.0,0.0881
1306.0,0.08702
1307.0,0.05906
1308.0,0.07521
1309.0,0.08476
1310.0,0.05708
1311.0,0.07018
1312.0,0.06739
1313.0,0.06381
1314.0,0.05415
1315.0,0.05186
1316.0,0.06752
1317.0,0.06268
1318.0,0.07164
1319.0,0.0467
1320.0,0.04685
1321.0,0.05801
1322.0,0.05675
1323.0,0.03551
1324.0,0.04625
1325.0,0.06525
1326.0,0.05153
1327.0,0.04777
1328.0,0.03855
1329.0,0.02307
1330.0,0.03332
1331.0,0.01446
1332.0,0.0163
1333.0,0.02372
1334.0,0.02421
1335.0,0.03453
1336.0,0.02381
1337.0,0.0205
1338.0,0.0217
1339.0,0.02225
1340.0,0.02337
1341.0,0.01867
1342.0,0.02023
1343.0,0.00844
1344.0,0.005552
1345.0,0.007423
1346.0,0.001752
1347.0,0.00151
1348.0,2.516e-05
1349.0,0.0001168
1350.0,0.0001437
1351.0,1.117e-05
1352.0,1.193e-06
1353.0,5.241e-08
1354.0,2.072e-07
1355.0,1.371e-09
1356.0,2.544e-08
1357.0,3.852e-08
1358.0,1.611e-09
1359.0,2.017e-10
1360.0,7.302e-10
1361.0,8.15e-13
1362.0,2.229e-15
1363.0,9.8e-10
1364.0,4.047e-10
1365.0,7.784e-16
1366.0,4.248e-09
1367.0,1.738e-09
1368.0,6.01e-18
1369.0,1.491e-10
1370.0,7.341e-11
1371.0,4.161e-12
1372.0,9.432e-10
1373.0,1.931e-08
1374.0,9.433e-08
1375.0,1.656e-07
1376.0,1.811e-07
1377.0,7.993e-08
1378.0,7.697e-07
1379.0,3.435e-08
1380.0,4.246e-08
1381.0,1.09e-09
1382.0,8.256e-10
1383.0,1.233e-11
1384.0,1.615e-10
1385.0,7.83e-10
1386.0,7.268e-10
1387.0,8.939e-08
1388.0,1.846e-09
1389.0,3.335e-07
1390.0,2.781e-07
1391.0,1.862e-07
1392.0,1.23e-08
1393.0,7.008e-08
1394.0,3.035e-08
1395.0,2.211e-10
1396.0,1.061e-12
1397.0,2.59e-08
1398.0,7.876e-07
1399.0,5.115e-07
1400.0,4.537e-13
1401.0,1.882e-12
1402.0,3.852e-06
1403.0,3.446e-06
1404.0,8.79e-07
1405.0,1.042e-10
1406.0,1.63e-06
1407.0,2.722e-07
1408.0,1.411e-06
1409.0,3.63e-07
1410.0,4.041e-07
1411.0,3.235e-06
1412.0,6.429e-06
1413.0,0.0001678
1414.0,3.471e-07
1415.0,1.402e-07
1416.0,0.0007917
1417.0,0.0001255
1418.0,8.121e-05
1419.0,1.093e-05
1420.0,4.866e-05
1421.0,8.434e-05
1422.0,0.001024
