interpolation:linear
wavelength,value
280.0,2.46e-21
280.5,7.750000000000001e-20
281.0,4.096e-19
281.5,3.678e-19
282.0,1.023e-18
282.5,2.677e-18
283.0,8.644e-18
283.5,1.414e-17
284.0,2.307e-16
284.5,6.665e-16
285.0,1.489e-15
285.5,7.184e-15
286.0,2.869e-14
286.5,1.264e-13
287.0,3.574e-13
287.5,1.352e-12
288.0,3.672e-12
288.5,1.208e-11
289.0,3.404e-11
289.5,1.071e-10
290.0,3.048e-10
290.5,6.32e-10
291.0,1.378e-09
291.5,4.014e-09
292.0,8.466e-09
292.5,1.266e-08
293.0,2.942e-08
293.5,7.975e-08
294.0,1.345e-07
294.5,1.742e-07
295.0,3.176e-07
295.5,8.108e-07
296.0,1.624e-06
296.5,2.368e-06
297.0,3.33e-06
297.5,9.516e-06
298.0,1.592e-05
298.5,1.684e-05
299.0,3.913e-05
299.5,7.169e-05
300.0,8.378e-05
300.5,0.0001298
301.0,0.0002652
301.5,0.0004829
302.0,0.0004483
302.5,0.0008881
303.0,0.001624
303.5,0.00207
304.0,0.001962
304.5,0.00299
305.0,0.004664
305.5,0.005435
306.0,0.005296
306.5,0.006666
307.0,0.01012
307.5,0.01374
308.0,0.01456
308.5,0.01737
309.0,0.01716
309.5,0.01986
310.0,0.02006
310.5,0.03258
311.0,0.04106
311.5,0.03972
312.0,0.04007
312.5,0.04905
313.0,0.05337
313.5,0.0517
314.0,0.06508
314.5,0.05822
315.0,0.07663
315.5,0.06386
316.0,0.05616
316.5,0.08113
317.0,0.1007
317.5,0.1047
318.0,0.082
318.5,0.1025
319.0,0.1221
319.5,0.09903
320.0,0.1196
320.5,0.1507
321.0,0.1351
321.5,0.1296
322.0,0.1373
322.5,0.1195
323.0,0.1195
323.5,0.1474
324.0,0.1722
324.5,0.1746
325.0,0.1506
325.5,0.1943
326.0,0.2378
326.5,0.2387
327.0,0.2378
327.5,0.2295
328.0,0.2039
328.5,0.215
329.0,0.258
329.5,0.2931
330.0,0.2956
330.5,0.2363
331.0,0.2406
331.5,0.2449
332.0,0.2651
332.5,0.2625
333.0,0.2617
333.5,0.2366
334.0,0.2424
334.5,0.2802
335.0,0.2635
335.5,0.3079
336.0,0.2131
336.5,0.2495
337.0,0.2046
337.5,0.2545
338.0,0.2488
338.5,0.2873
339.0,0.2845
339.5,0.2738
340.0,0.3217
340.5,0.2901
341.0,0.283
341.5,0.26
342.0,0.3108
342.5,0.2909
343.0,0.3199
343.5,0.3013
344.0,0.2227
344.5,0.225
345.0,0.2979
345.5,0.3043
346.0,0.2587
346.5,0.2931
347.0,0.3147
347.5,0.2545
348.0,0.2903
348.5,0.2902
349.0,0.2693
349.5,0.2668
350.0,0.3301
350.5,0.3483
351.0,0.3112
351.5,0.3024
352.0,0.325
352.5,0.2537
353.0,0.3197
353.5,0.342
354.0,0.3551
354.5,0.3602
355.0,0.3591
355.5,0.3245
356.0,0.3397
356.5,0.2901
357.0,0.2397
357.5,0.2936
358.0,0.2327
358.5,0.1989
359.0,0.2783
359.5,0.3547
360.0,0.3761
360.5,0.3007
361.0,0.2742
361.5,0.3159
362.0,0.2733
362.5,0.3785
363.0,0.3401
363.5,0.3134
364.0,0.3834
364.5,0.3278
365.0,0.334
365.5,0.4193
366.0,0.4444
366.5,0.4178
367.0,0.407
367.5,0.4224
368.0,0.3698
368.5,0.3733
369.0,0.4033
369.5,0.43
370.0,0.4585
370.5,0.356
371.0,0.3805
371.5,0.4762
372.0,0.3161
372.5,0.3792
373.0,0.3859
373.5,0.2512
374.0,0.365
374.5,0.3024
375.0,0.2941
375.5,0.4391
376.0,0.3641
376.5,0.3774
377.0,0.3998
377.5,0.4678
378.0,0.5073
378.5,0.4796
379.0,0.3958
379.5,0.3616
380.0,0.3761
380.5,0.4557
381.0,0.4569
381.5,0.3623
382.0,0.3219
382.5,0.2745
383.0,0.2543
383.5,0.245
384.0,0.2703
384.5,0.3977
385.0,0.3946
385.5,0.3676
386.0,0.3149
386.5,0.4138
387.0,0.344
387.5,0.3865
388.0,0.3569
388.5,0.3529
389.0,0.3811
389.5,0.4617
390.0,0.4635
390.5,0.4267
391.0,0.5024
391.5,0.5126
392.0,0.4319
392.5,0.3868
393.0,0.2153
393.5,0.1565
394.0,0.3186
394.5,0.4053
395.0,0.4946
395.5,0.5026
396.0,0.4359
396.5,0.2549
397.0,0.1914
397.5,0.3893
398.0,0.5452
398.5,0.5637
399.0,0.6107
399.5,0.6088
400.0,0.6323
401.0,0.6407
402.0,0.6764
403.0,0.6429
404.0,0.6333
405.0,0.6335
406.0,0.6236
407.0,0.6139
408.0,0.6381
409.0,0.6832
410.0,0.5973
411.0,0.6473
412.0,0.6957
413.0,0.6786
414.0,0.6873
415.0,0.6894
416.0,0.7019
417.0,0.6849
418.0,0.6725
419.0,0.6816
420.0,0.6788
421.0,0.7105
422.0,0.6755
423.0,0.6601
424.0,0.6984
425.0,0.6974
426.0,0.6797
427.0,0.6672
428.0,0.6501
429.0,0.6161
430.0,0.5394
431.0,0.5347
432.0,0.6907
433.0,0.6948
434.0,0.6453
435.0,0.674
436.0,0.7598
437.0,0.7499
438.0,0.6832
439.0,0.7065
440.0,0.7292
441.0,0.7559
442.0,0.8109
443.0,0.7898
444.0,0.8073
445.0,0.7899
446.0,0.7542
447.0,0.8157
448.0,0.8284
449.0,0.8321
450.0,0.8556
451.0,0.8875
452.0,0.8553
453.0,0.8046
454.0,0.8403
455.0,0.8456
456.0,0.8658
457.0,0.8803
458.0,0.8502
459.0,0.846
460.0,0.8483
461.0,0.8679
462.0,0.8749
463.0,0.8689
464.0,0.8549
465.0,0.8444
466.0,0.8528
467.0,0.8372
468.0,0.8471
469.0,0.8516
470.0,0.8245
471.0,0.8235
472.0,0.8678
473.0,0.8565
474.0,0.8576
475.0,0.8648
476.0,0.8387
477.0,0.8409
478.0,0.8643
479.0,0.8593
480.0,0.8611
481.0,0.8774
482.0,0.8823
483.0,0.872
484.0,0.8543
485.0,0.8141
486.0,0.7119
487.0,0.7462
488.0,0.8187
489.0,0.8212
490.0,0.8641
491.0,0.8493
492.0,0.8021
493.0,0.8284
494.0,0.8368
495.0,0.8439
496.0,0.8492
497.0,0.8623
498.0,0.822
499.0,0.8324
500.0,0.8081
501.0,0.7931
502.0,0.7816
503.0,0.8131
504.0,0.7915
505.0,0.8206
506.0,0.8471
507.0,0.8062
508.0,0.7814
509.0,0.8035
510.0,0.7995
511.0,0.8211
512.0,0.8302
513.0,0.7858
514.0,0.7805
515.0,0.7728
516.0,0.7708
517.0,0.685
518.0,0.7201
519.0,0.7553
520.0,0.7828
521.0,0.7902
522.0,0.7908
523.0,0.7765
524.0,0.8041
525.0,0.8134
526.0,0.7769
527.0,0.7319
528.0,0.7739
529.0,0.8156
530.0,0.8038
531.0,0.8156
532.0,0.7876
533.0,0.7645
534.0,0.7872
535.0,0.8045
536.0,0.812
537.0,0.7801
538.0,0.7939
539.0,0.7872
540.0,0.7547
541.0,0.7594
542.0,0.7831
543.0,0.7751
544.0,0.7883
545.0,0.7859
546.0,0.7891
547.0,0.7889
548.0,0.7796
549.0,0.7821
550.0,0.7914
551.0,0.7818
552.0,0.7873
553.0,0.7731
554.0,0.7916
555.0,0.7931
556.0,0.7828
557.0,0.7583
558.0,0.7525
559.0,0.7383
560.0,0.7474
561.0,0.7569
562.0,0.7512
563.0,0.7715
564.0,0.7503
565.0,0.7437
566.0,0.7327
567.0,0.7463
568.0,0.7391
569.0,0.7205
570.0,0.7204
571.0,0.7164
572.0,0.7329
573.0,0.7406
574.0,0.7381
575.0,0.724
576.0,0.7174
577.0,0.7254
578.0,0.7148
579.0,0.7181
580.0,0.7325
581.0,0.7369
582.0,0.7514
583.0,0.7536
584.0,0.7605
585.0,0.7421
586.0,0.7268
587.0,0.7424
588.0,0.723
589.0,0.6379
590.0,0.6673
591.0,0.7078
592.0,0.6979
593.0,0.7094
594.0,0.704
595.0,0.6857
596.0,0.7148
597.0,0.7066
598.0,0.7054
599.0,0.7063
600.0,0.7079
601.0,0.7025
602.0,0.6978
603.0,0.7096
604.0,0.7214
605.0,0.7178
606.0,0.7151
607.0,0.7225
608.0,0.7147
609.0,0.7161
610.0,0.7112
611.0,0.7151
612.0,0.7131
613.0,0.7043
614.0,0.6949
615.0,0.7102
616.0,0.6869
617.0,0.6857
618.0,0.7122
619.0,0.705
620.0,0.7095
621.0,0.71
622.0,0.7015
623.0,0.6906
624.0,0.679
625.0,0.6775
626.0,0.6874
627.0,0.6946
628.0,0.6428
629.0,0.6761
630.0,0.6604
631.0,0.6773
632.0,0.6695
633.0,0.6908
634.0,0.6847
635.0,0.6957
636.0,0.6869
637.0,0.6984
638.0,0.7056
639.0,0.6979
640.0,0.6914
641.0,0.6912
642.0,0.6883
643.0,0.6976
644.0,0.6956
645.0,0.6965
646.0,0.6796
647.0,0.6699
648.0,0.6704
649.0,0.6573
650.0,0.6626
651.0,0.6917
652.0,0.6607
653.0,0.6826
654.0,0.6752
655.0,0.649
656.0,0.5759
657.0,0.5916
658.0,0.6636
659.0,0.6686
660.0,0.6716
661.0,0.6763
662.0,0.6773
663.0,0.6641
664.0,0.6725
665.0,0.6735
666.0,0.6743
667.0,0.6739
668.0,0.6744
669.0,0.685
670.0,0.6821
671.0,0.6821
672.0,0.6763
673.0,0.6866
674.0,0.6841
675.0,0.678
676.0,0.6827
677.0,0.676
678.0,0.6781
679.0,0.6672
680.0,0.6726
681.0,0.6682
682.0,0.6673
683.0,0.6661
684.0,0.6627
685.0,0.6685
686.0,0.6644
687.0,0.4154
688.0,0.4988
689.0,0.501
690.0,0.5296
691.0,0.5621
692.0,0.5864
693.0,0.5812
694.0,0.5766
695.0,0.6036
696.0,0.6045
697.0,0.6454
698.0,0.6353
699.0,0.6176
700.0,0.61
701.0,0.6029
702.0,0.6081
703.0,0.6093
704.0,0.6304
705.0,0.6313
706.0,0.6313
707.0,0.632
708.0,0.6333
709.0,0.6352
710.0,0.6347
711.0,0.6342
712.0,0.6328
713.0,0.6259
714.0,0.6284
715.0,0.6076
716.0,0.6077
717.0,0.5176
718.0,0.4742
719.0,0.4335
720.0,0.4533
721.0,0.506
722.0,0.585
723.0,0.5415
724.0,0.4842
725.0,0.4752
726.0,0.4979
727.0,0.5073
728.0,0.4735
729.0,0.4946
730.0,0.5231
731.0,0.4996
732.0,0.5379
733.0,0.5728
734.0,0.5873
735.0,0.5747
736.0,0.5739
737.0,0.5761
738.0,0.5874
739.0,0.5758
740.0,0.5915
741.0,0.5861
742.0,0.5871
743.0,0.6021
744.0,0.6007
745.0,0.601
746.0,0.6038
747.0,0.6052
748.0,0.6039
749.0,0.5971
750.0,0.5967
751.0,0.5907
752.0,0.5933
753.0,0.5963
754.0,0.5976
755.0,0.5942
756.0,0.594
757.0,0.5948
758.0,0.5874
759.0,0.574
760.0,0.07297
761.0,0.03472
762.0,0.2661
763.0,0.119
764.0,0.1908
765.0,0.266
766.0,0.3392
767.0,0.4414
768.0,0.5205
769.0,0.534
770.0,0.555
771.0,0.5608
772.0,0.5624
773.0,0.5664
774.0,0.5638
775.0,0.5595
776.0,0.5664
777.0,0.5589
778.0,0.5555
779.0,0.556
780.0,0.5529
781.0,0.5535
782.0,0.557
783.0,0.5473
784.0,0.55
785.0,0.5458
786.0,0.5517
787.0,0.541
788.0,0.5337
789.0,0.5334
790.0,0.5176
791.0,0.5236
792.0,0.52
793.0,0.5114
794.0,0.5218
795.0,0.5302
796.0,0.5117
797.0,0.5122
798.0,0.5293
799.0,0.5255
800.0,0.5159
801.0,0.5137
802.0,0.5123
803.0,0.5081
804.0,0.509
805.0,0.5081
806.0,0.5235
807.0,0.5169
808.0,0.5175
809.0,0.5069
810.0,0.5022
811.0,0.5016
812.0,0.4858
813.0,0.4748
814.0,0.4129
815.0,0.4106
816.0,0.3816
817.0,0.3891
818.0,0.3734
819.0,0.4216
820.0,0.3955
821.0,0.4682
822.0,0.4539
823.0,0.2994
824.0,0.4385
825.0,0.4599
826.0,0.4406
827.0,0.467
828.0,0.3903
829.0,0.4384
830.0,0.4321
831.0,0.4337
832.0,0.4194
833.0,0.449
834.0,0.4312
835.0,0.4778
836.0,0.4547
837.0,0.4793
838.0,0.4631
839.0,0.4723
840.0,0.483
841.0,0.4756
842.0,0.4775
843.0,0.4781
844.0,0.471
845.0,0.4876
846.0,0.4856
847.0,0.4768
848.0,0.4734
849.0,0.46
850.0,0.4407
851.0,0.4662
852.0,0.4631
853.0,0.4461
854.0,0.3849
855.0,0.4233
856.0,0.4624
857.0,0.473
858.0,0.4694
859.0,0.47
860.0,0.471
861.0,0.4683
862.0,0.4758
863.0,0.487
864.0,0.4627
865.0,0.4587
866.0,0.4124
867.0,0.4304
868.0,0.4684
869.0,0.4587
870.0,0.4718
871.0,0.4653
872.0,0.4637
873.0,0.4628
874.0,0.4573
875.0,0.448
876.0,0.4527
877.0,0.4573
878.0,0.4621
879.0,0.4551
880.0,0.4453
881.0,0.4384
882.0,0.4478
883.0,0.4494
884.0,0.4473
885.0,0.4507
886.0,0.4287
887.0,0.4339
888.0,0.4399
889.0,0.4456
890.0,0.441
891.0,0.4407
892.0,0.4269
893.0,0.4123
894.0,0.3954
895.0,0.3706
896.0,0.348
897.0,0.2951
898.0,0.3241
899.0,0.242
900.0,0.3343
901.0,0.2537
902.0,0.3038
903.0,0.3048
904.0,0.3924
905.0,0.3777
906.0,0.3524
907.0,0.2803
908.0,0.2869
909.0,0.3134
910.0,0.2722
911.0,0.2935
912.0,0.3076
913.0,0.276
914.0,0.2747
915.0,0.2978
916.0,0.251
917.0,0.3236
918.0,0.257
919.0,0.331
920.0,0.3375
921.0,0.3512
922.0,0.3103
923.0,0.3395
924.0,0.3175
925.0,0.3107
926.0,0.3137
927.0,0.3548
928.0,0.2499
929.0,0.2253
930.0,0.1726
931.0,0.1641
932.0,0.1135
933.0,0.08998
934.0,0.04462
935.0,0.09394
936.0,0.05561
937.0,0.05608
938.0,0.07013
939.0,0.1589
940.0,0.1945
941.0,0.1423
942.0,0.1674
943.0,0.1067
944.0,0.1156
945.0,0.1477
946.0,0.07051
947.0,0.1471
948.0,0.1075
949.0,0.2015
950.0,0.0492
951.0,0.1992
952.0,0.101
953.0,0.1344
954.0,0.1693
955.0,0.1364
956.0,0.1356
957.0,0.1007
958.0,0.198
959.0,0.1521
960.0,0.1705
961.0,0.1955
962.0,0.1846
963.0,0.2163
964.0,0.1971
965.0,0.2157
966.0,0.215
967.0,0.2137
968.0,0.2996
969.0,0.3115
970.0,0.2845
971.0,0.3314
972.0,0.3159
973.0,0.2692
974.0,0.2548
975.0,0.2667
976.0,0.25
977.0,0.2909
978.0,0.2737
979.0,0.2884
980.0,0.2701
981.0,0.3297
982.0,0.3131
983.0,0.2994
984.0,0.3422
985.0,0.3119
986.0,0.3497
987.0,0.3411
988.0,0.3406
989.0,0.3496
990.0,0.3385
991.0,0.3505
992.0,0.3527
993.0,0.3431
994.0,0.3527
995.0,0.3526
996.0,0.3507
997.0,0.3514
998.0,0.3496
999.0,0.3484
1000.0,0.3455
1001.0,0.3503
1002.0,0.339
1003.0,0.344
1004.0,0.3352
1005.0,0.3235
1006.0,0.3358
1007.0,0.3431
1008.0,0.3409
1009.0,0.3388
1010.0,0.3372
1011.0,0.3414
1012.0,0.3381
1013.0,0.3407
1014.0,0.3383
1015.0,0.336
1016.0,0.3345
1017.0,0.3352
1018.0,0.3342
1019.0,0.3264
1020.0,0.3323
1021.0,0.332
1022.0,0.3292
1023.0,0.3326
1024.0,0.3276
1025.0,0.3326
1026.0,0.331
1027.0,0.3303
1028.0,0.3295
1029.0,0.3256
1030.0,0.328
1031.0,0.3266
1032.0,0.3258
1033.0,0.3208
1034.0,0.3209
1035.0,0.3219
1036.0,0.3235
1037.0,0.3183
1038.0,0.3196
1039.0,0.3194
1040.0,0.3181
1041.0,0.3193
1042.0,0.3171
1043.0,0.316
1044.0,0.3171
1045.0,0.3128
1046.0,0.3093
1047.0,0.312
1048.0,0.3137
1049.0,0.3125
1050.0,0.311
1051.0,0.3105
1052.0,0.3092
1053.0,0.3066
1054.0,0.3072
1055.0,0.3073
1056.0,0.3061
1057.0,0.3051
1058.0,0.2975
1059.0,0.2977
1060.0,0.2972
1061.0,0.2968
1062.0,0.2982
1063.0,0.2952
1064.0,0.2987
1065.0,0.2963
1066.0,0.2907
1067.0,0.2943
1068.0,0.2877
1069.0,0.279
1070.0,0.2883
1071.0,0.2934
1072.0,0.2895
1073.0,0.2854
1074.0,0.2935
1075.0,0.277
1076.0,0.2931
1077.0,0.2869
1078.0,0.281
1079.0,0.2887
1080.0,0.2825
1081.0,0.2726
1082.0,0.2785
1083.0,0.2797
1084.0,0.2715
1085.0,0.2833
1086.0,0.256
1087.0,0.266
1088.0,0.2791
1089.0,0.2689
1090.0,0.2619
1091.0,0.2777
1092.0,0.2774
1093.0,0.2305
1094.0,0.2532
1095.0,0.2406
1096.0,0.229
1097.0,0.271
1098.0,0.2248
1099.0,0.2353
1100.0,0.2167
1101.0,0.2201
1102.0,0.2089
1103.0,0.206
1104.0,0.2063
1105.0,0.2295
1106.0,0.1677
1107.0,0.2164
1108.0,0.1788
1109.0,0.1801
1110.0,0.2138
1111.0,0.1389
1112.0,0.179
1113.0,0.1077
1114.0,0.1209
1115.0,0.09993
1116.0,0.07619
1117.0,0.02436
1118.0,0.08403
1119.0,0.03862
1120.0,0.04832
1121.0,0.06593
1122.0,0.02516
1123.0,0.0438
1124.0,0.03693
1125.0,0.04893
1126.0,0.01454
1127.0,0.05544
1128.0,0.03038
1129.0,0.03258
1130.0,0.02056
1131.0,0.1122
1132.0,0.08664
1133.0,0.05111
1134.0,0.01113
1135.0,0.004293
1136.0,0.04131
1137.0,0.1088
1138.0,0.07595
1139.0,0.121
1140.0,0.09813
1141.0,0.07225
1142.0,0.08462
1143.0,0.1234
1144.0,0.03952
1145.0,0.04935
1146.0,0.05318
1147.0,0.01617
1148.0,0.1066
1149.0,0.08284
1150.0,0.043
1151.0,0.07533
1152.0,0.09541
1153.0,0.09505
1154.0,0.04762
1155.0,0.1261
1156.0,0.112
1157.0,0.1283
1158.0,0.1269
1159.0,0.1387
1160.0,0.1167
1161.0,0.1479
1162.0,0.1483
1163.0,0.2073
1164.0,0.1753
1165.0,0.1629
1166.0,0.1636
1167.0,0.1795
1168.0,0.1809
1169.0,0.186
1170.0,0.2042
1171.0,0.1989
1172.0,0.2038
1173.0,0.2038
1174.0,0.1406
1175.0,0.2001
1176.0,0.2226
1177.0,0.2119
1178.0,0.1555
1179.0,0.2244
1180.0,0.1975
1181.0,0.204
1182.0,0.1368
1183.0,0.2015
1184.0,0.1875
1185.0,0.1797
1186.0,0.217
1187.0,0.2055
1188.0,0.1385
1189.0,0.1912
1190.0,0.2123
1191.0,0.1992
1192.0,0.2155
1193.0,0.2057
1194.0,0.2125
1195.0,0.1994
1196.0,0.1911
1197.0,0.2134
1198.0,0.1943
1199.0,0.1619
1200.0,0.203
1201.0,0.1946
1202.0,0.1944
1203.0,0.1923
1204.0,0.1666
1205.0,0.1998
1206.0,0.2224
1207.0,0.1934
1208.0,0.1914
1209.0,0.1955
1210.0,0.2045
1211.0,0.1935
1212.0,0.1896
1213.0,0.2143
1214.0,0.1948
1215.0,0.1908
1216.0,0.2138
1217.0,0.2075
1218.0,0.212
1219.0,0.209
1220.0,0.2123
1221.0,0.2147
1222.0,0.2089
1223.0,0.2066
1224.0,0.2048
1225.0,0.2133
1226.0,0.2152
1227.0,0.1969
1228.0,0.2166
1229.0,0.2152
1230.0,0.2112
1231.0,0.2183
1232.0,0.2169
1233.0,0.2081
1234.0,0.2184
1235.0,0.2168
1236.0,0.2185
1237.0,0.2149
1238.0,0.2178
1239.0,0.215
1240.0,0.2159
1241.0,0.2145
1242.0,0.2144
1243.0,0.2126
1244.0,0.214
1245.0,0.215
1246.0,0.2138
1247.0,0.2128
1248.0,0.2125
1249.0,0.2133
1250.0,0.212
1251.0,0.209
1252.0,0.2093
1253.0,0.2072
1254.0,0.2047
1255.0,0.209
1256.0,0.2022
1257.0,0.201
1258.0,0.2054
1259.0,0.1966
1260.0,0.1978
1261.0,0.185
1262.0,0.1786
1263.0,0.1788
1264.0,0.163
1265.0,0.1777
1266.0,0.1698
1267.0,0.1736
1268.0,0.1633
1269.0,0.0929
1270.0,0.1727
1271.0,0.1846
1272.0,0.1854
1273.0,0.1832
1274.0,0.1841
1275.0,0.1871
1276.0,0.1892
1277.0,0.1909
1278.0,0.1952
1279.0,0.1934
1280.0,0.191
1281.0,0.1826
1282.0,0.1764
1283.0,0.1899
1284.0,0.1944
1285.0,0.1957
1286.0,0.1987
1287.0,0.1951
1288.0,0.1952
1289.0,0.188
1290.0,0.1935
1291.0,0.1964
1292.0,0.1826
1293.0,0.1921
1294.0,0.1907
1295.0,0.1892
1296.0,0.1794
1297.0,0.1687
1298.0,0.1836
1299.0,0.1925
1300.0,0.1597
1301.0,0.1652
1302.0,0.183
1303.0,0.158
1304.0,0.1317
1305.0,0.1791
1306.0,0.1789
1307.0,0.1356
1308.0,0.1587
1309.0,0.1771
1310.0,0.1328
1311.0,0.1515
1312.0,0.1469
1313.0,0.1434
1314.0,0.1273
1315.0,0.1249
1316.0,0.1485
1317.0,0.1403
1318.0,0.1538
1319.0,0.1164
1320.0,0.1136
1321.0,0.1337
1322.0,0.1343
1323.0,0.09798
1324.0,0.1143
1325.0,0.1461
1326.0,0.1234
1327.0,0.1172
1328.0,0.1
1329.0,0.07237
1330.0,0.09561
1331.0,0.05453
1332.0,0.05735
1333.0,0.0805
1334.0,0.06995
1335.0,0.09749
1336.0,0.07537
1337.0,0.06588
1338.0,0.07123
1339.0,0.07138
1340.0,0.07033
1341.0,0.06656
1342.0,0.07013
1343.0,0.04355
1344.0,0.02639
1345.0,0.0381
1346.0,0.01663
1347.0,0.01651
1348.0,0.0008014
1349.0,0.003115
1350.0,0.003423
1351.0,0.0006385
1352.0,0.0001267
1353.0,4.829e-06
1354.0,2.043e-05
1355.0,8.722e-08
1356.0,2.321e-06
1357.0,3.551e-06
1358.0,1.06e-07
1359.0,8.179e-09
1360.0,4.075e-08
1361.0,1.67e-11
1362.0,3.105e-14
1363.0,4.605e-08
1364.0,1.916e-08
1365.0,6.389e-15
1366.0,2.289e-07
1367.0,1.053e-07
1368.0,1.995e-17
1369.0,7.039e-09
1370.0,2.822e-09
1371.0,1.27e-10
1372.0,5.846e-08
1373.0,1.625e-06
1374.0,9.459e-06
1375.0,1.67e-05
1376.0,1.864e-05
1377.0,8.157e-06
1378.0,8.64e-05
1379.0,3.425e-06
1380.0,4.249e-06
1381.0,9.912e-08
1382.0,4.96e-08
1383.0,6.355e-10
1384.0,7.285e-09
1385.0,5.992e-08
1386.0,3.802e-08
1387.0,8.381e-06
1388.0,1.726e-07
1389.0,3.71e-05
1390.0,3.152e-05
1391.0,2.028e-05
1392.0,1.25e-06
1393.0,7.456e-06
1394.0,2.624e-06
1395.0,1.538e-08
1396.0,2.757e-11
1397.0,2.72e-06
1398.0,9.414e-05
1399.0,6.044e-05
1400.0,9.077e-12
1401.0,5.462e-11
1402.0,0.000235
1403.0,0.0002766
1404.0,8.178e-05
1405.0,6.264e-09
1406.0,0.0001901
1407.0,1.87e-05
1408.0,0.0001589
1409.0,4.431e-05
1410.0,4.089e-05
1411.0,0.0002465
1412.0,0.0003637
1413.0,0.004807
1414.0,3.312e-05
1415.0,1.462e-05
1416.0,0.009393
1417.0,0.002396
1418.0,0.002608
1419.0,0.0003885
1420.0,0.001583
1421.0,0.001749
1422.0,0.01234
1423.0,0.002285
1424.0,0.004421
1425.0,0.006247
1426.0,0.007678
1427.0,0.01541
1428.0,0.0007319
1429.0,0.01084
1430.0,0.02028
1431.0,0.02273
1432.0,0.0005688
1433.0,0.01385
1434.0,0.006748
1435.0,0.005758
1436.0,0.0126
1437.0,0.009709
