interpolation:linear
wavelength,value
280.0,9.205e-22
280.5,2.969e-20
281.0,1.581e-19
281.5,5.272e-19
282.0,9.197e-19
282.5,2.281e-18
283.0,7.182e-18
283.5,1.166e-17
284.0,1.89e-16
284.5,5.471e-16
285.0,1.051e-15
285.5,5.088e-15
286.0,2.035e-14
286.5,9.025e-14
287.0,2.566e-13
287.5,9.78e-13
288.0,3.065e-12
288.5,9.524e-12
289.0,2.578e-11
289.5,7.867e-11
290.0,2.196e-10
290.5,4.494e-10
291.0,9.673e-10
291.5,2.781e-09
292.0,5.91e-09
292.5,8.44e-09
293.0,1.848e-08
293.5,4.614e-08
294.0,7.336e-08
294.5,9.687e-08
295.0,1.663e-07
295.5,3.65e-07
296.0,6.631e-07
296.5,9.562e-07
297.0,1.332e-06
297.5,3.761e-06
298.0,6.244e-06
298.5,6.574e-06
299.0,1.523e-05
299.5,2.792e-05
300.0,3.27e-05
300.5,5.084e-05
301.0,0.0001047
301.5,0.0001919
302.0,0.0001783
302.5,0.0003586
303.0,0.0006703
303.5,0.0008683
304.0,0.0008347
304.5,0.001322
305.0,0.002176
305.5,0.002626
306.0,0.002594
306.5,0.00334
307.0,0.005333
307.5,0.007608
308.0,0.008129
308.5,0.009941
309.0,0.01002
309.5,0.01198
310.0,0.01228
310.5,0.02009
311.0,0.02563
311.5,0.02493
312.0,0.02582
312.5,0.03217
313.0,0.03532
313.5,0.03393
314.0,0.04361
314.5,0.04011
315.0,0.05307
315.5,0.04363
316.0,0.03925
316.5,0.05781
317.0,0.07175
317.5,0.07416
318.0,0.05886
318.5,0.0755
319.0,0.09109
319.5,0.07236
320.0,0.08711
320.5,0.1127
321.0,0.1033
321.5,0.09938
322.0,0.1027
322.5,0.0895
323.0,0.09099
323.5,0.1139
324.0,0.1334
324.5,0.1344
325.0,0.115
325.5,0.1504
326.0,0.1846
326.5,0.1868
327.0,0.1855
327.5,0.1784
328.0,0.1568
328.5,0.1675
329.0,0.2033
329.5,0.2317
330.0,0.2331
330.5,0.1847
331.0,0.1877
331.5,0.1922
332.0,0.21
332.5,0.2088
333.0,0.2076
333.5,0.1865
334.0,0.1909
334.5,0.2223
335.0,0.2101
335.5,0.2456
336.0,0.17
336.5,0.1985
337.0,0.1623
337.5,0.2017
338.0,0.1984
338.5,0.2294
339.0,0.2273
339.5,0.2187
340.0,0.2568
340.5,0.2317
341.0,0.2262
341.5,0.2079
342.0,0.2486
342.5,0.2328
343.0,0.256
343.5,0.241
344.0,0.1781
344.5,0.18
345.0,0.2385
345.5,0.2437
346.0,0.2073
346.5,0.2349
347.0,0.2522
347.5,0.2039
348.0,0.2327
348.5,0.2328
349.0,0.2161
349.5,0.2141
350.0,0.2649
350.5,0.2796
351.0,0.2498
351.5,0.2427
352.0,0.2609
352.5,0.2038
353.0,0.2569
353.5,0.2748
354.0,0.2854
354.5,0.2895
355.0,0.2887
355.5,0.261
356.0,0.2732
356.5,0.2333
357.0,0.1929
357.5,0.2362
358.0,0.1873
358.5,0.1601
359.0,0.224
359.5,0.2854
360.0,0.3027
360.5,0.2421
361.0,0.2208
361.5,0.2545
362.0,0.2203
362.5,0.3051
363.0,0.2742
363.5,0.2527
364.0,0.3093
364.5,0.2645
365.0,0.2695
365.5,0.3384
366.0,0.3588
366.5,0.3373
367.0,0.3287
367.5,0.3412
368.0,0.2988
368.5,0.3016
369.0,0.3259
369.5,0.3476
370.0,0.3707
370.5,0.2879
371.0,0.3078
371.5,0.3852
372.0,0.2558
372.5,0.3068
373.0,0.3123
373.5,0.2033
374.0,0.2955
374.5,0.2449
375.0,0.2382
375.5,0.3557
376.0,0.295
376.5,0.3058
377.0,0.3239
377.5,0.3792
378.0,0.4112
378.5,0.3888
379.0,0.3209
379.5,0.2932
380.0,0.305
380.5,0.3696
381.0,0.3706
381.5,0.294
382.0,0.2613
382.5,0.2229
383.0,0.2065
383.5,0.199
384.0,0.2196
384.5,0.3232
385.0,0.3206
385.5,0.2988
386.0,0.256
386.5,0.3365
387.0,0.2797
387.5,0.3143
388.0,0.2903
388.5,0.2872
389.0,0.3101
389.5,0.3758
390.0,0.3773
390.5,0.3474
391.0,0.4091
391.5,0.4175
392.0,0.3518
392.5,0.3151
393.0,0.1754
393.5,0.1276
394.0,0.2597
394.5,0.3304
395.0,0.4033
395.5,0.4098
396.0,0.3555
396.5,0.208
397.0,0.1561
397.5,0.3177
398.0,0.445
398.5,0.4601
399.0,0.4986
399.5,0.4972
400.0,0.5163
401.0,0.5224
402.0,0.5517
403.0,0.5246
404.0,0.5169
405.0,0.5172
406.0,0.5093
407.0,0.5016
408.0,0.5214
409.0,0.5584
410.0,0.4884
411.0,0.5294
412.0,0.5692
413.0,0.5554
414.0,0.5626
415.0,0.5646
416.0,0.575
417.0,0.5612
418.0,0.5512
419.0,0.5589
420.0,0.5567
421.0,0.5828
422.0,0.5543
423.0,0.5418
424.0,0.5733
425.0,0.5726
426.0,0.5584
427.0,0.5482
428.0,0.5343
429.0,0.5066
430.0,0.4437
431.0,0.4398
432.0,0.5683
433.0,0.5718
434.0,0.5311
435.0,0.5548
436.0,0.6257
437.0,0.6179
438.0,0.563
439.0,0.582
440.0,0.601
441.0,0.6232
442.0,0.6687
443.0,0.6512
444.0,0.6658
445.0,0.6515
446.0,0.6224
447.0,0.6734
448.0,0.6838
449.0,0.6872
450.0,0.7068
451.0,0.7333
452.0,0.7068
453.0,0.6651
454.0,0.6948
455.0,0.6992
456.0,0.7161
457.0,0.7282
458.0,0.7032
459.0,0.6998
460.0,0.7016
461.0,0.7179
462.0,0.7239
463.0,0.719
464.0,0.7077
465.0,0.6994
466.0,0.7066
467.0,0.6936
468.0,0.7019
469.0,0.7056
470.0,0.6831
471.0,0.6824
472.0,0.7191
473.0,0.7098
474.0,0.7105
475.0,0.7162
476.0,0.6943
477.0,0.6959
478.0,0.7154
479.0,0.7114
480.0,0.7131
481.0,0.7269
482.0,0.7313
483.0,0.723
484.0,0.7086
485.0,0.6755
486.0,0.5909
487.0,0.6196
488.0,0.6797
489.0,0.6817
490.0,0.7175
491.0,0.7054
492.0,0.6662
493.0,0.6881
494.0,0.6951
495.0,0.7011
496.0,0.7055
497.0,0.7164
498.0,0.6828
499.0,0.6914
500.0,0.671
501.0,0.6583
502.0,0.6485
503.0,0.6742
504.0,0.655
505.0,0.6801
506.0,0.7021
507.0,0.6682
508.0,0.648
509.0,0.6667
510.0,0.6636
511.0,0.6818
512.0,0.6894
513.0,0.6526
514.0,0.6483
515.0,0.6419
516.0,0.6403
517.0,0.569
518.0,0.5982
519.0,0.6274
520.0,0.6502
521.0,0.6563
522.0,0.6567
523.0,0.6448
524.0,0.6675
525.0,0.6748
526.0,0.6445
527.0,0.6069
528.0,0.6416
529.0,0.676
530.0,0.6661
531.0,0.6758
532.0,0.6525
533.0,0.6334
534.0,0.6523
535.0,0.6668
536.0,0.6731
537.0,0.6468
538.0,0.6583
539.0,0.6528
540.0,0.6257
541.0,0.6293
542.0,0.6487
543.0,0.6423
544.0,0.653
545.0,0.6511
546.0,0.6534
547.0,0.6536
548.0,0.646
549.0,0.6481
550.0,0.6558
551.0,0.648
552.0,0.6525
553.0,0.6407
554.0,0.656
555.0,0.6572
556.0,0.6485
557.0,0.6282
558.0,0.6232
559.0,0.6112
560.0,0.6186
561.0,0.6263
562.0,0.6214
563.0,0.638
564.0,0.6202
565.0,0.6146
566.0,0.6053
567.0,0.6163
568.0,0.6098
569.0,0.5932
570.0,0.5933
571.0,0.5903
572.0,0.6031
573.0,0.6093
574.0,0.6071
575.0,0.5952
576.0,0.5899
577.0,0.5965
578.0,0.5881
579.0,0.5914
580.0,0.6041
581.0,0.6084
582.0,0.6209
583.0,0.6232
584.0,0.6292
585.0,0.6142
586.0,0.6016
587.0,0.6141
588.0,0.5966
589.0,0.5236
590.0,0.548
591.0,0.5828
592.0,0.5737
593.0,0.5845
594.0,0.5795
595.0,0.5634
596.0,0.5897
597.0,0.5823
598.0,0.582
599.0,0.5831
600.0,0.585
601.0,0.581
602.0,0.5771
603.0,0.5871
604.0,0.597
605.0,0.5942
606.0,0.5922
607.0,0.5985
608.0,0.5923
609.0,0.5938
610.0,0.59
611.0,0.5933
612.0,0.5918
613.0,0.5846
614.0,0.577
615.0,0.5899
616.0,0.5708
617.0,0.5699
618.0,0.592
619.0,0.5862
620.0,0.5899
621.0,0.5901
622.0,0.5829
623.0,0.5737
624.0,0.5641
625.0,0.5629
626.0,0.5711
627.0,0.5766
628.0,0.5271
629.0,0.559
630.0,0.5457
631.0,0.5619
632.0,0.5559
633.0,0.5744
634.0,0.5701
635.0,0.5796
636.0,0.5727
637.0,0.5826
638.0,0.5891
639.0,0.5829
640.0,0.5778
641.0,0.5779
642.0,0.5757
643.0,0.5835
644.0,0.5821
645.0,0.5828
646.0,0.5678
647.0,0.5579
648.0,0.5584
649.0,0.5473
650.0,0.5539
651.0,0.5787
652.0,0.5504
653.0,0.5712
654.0,0.5652
655.0,0.5421
656.0,0.4819
657.0,0.4951
658.0,0.5561
659.0,0.5607
660.0,0.5633
661.0,0.5673
662.0,0.5677
663.0,0.5568
664.0,0.5645
665.0,0.5659
666.0,0.5667
667.0,0.5666
668.0,0.5673
669.0,0.5764
670.0,0.5741
671.0,0.5742
672.0,0.5694
673.0,0.5782
674.0,0.5762
675.0,0.5712
676.0,0.5752
677.0,0.5697
678.0,0.5715
679.0,0.5624
680.0,0.567
681.0,0.5633
682.0,0.5626
683.0,0.5616
684.0,0.5588
685.0,0.5637
686.0,0.5602
687.0,0.3239
688.0,0.4013
689.0,0.4035
690.0,0.4309
691.0,0.4624
692.0,0.4865
693.0,0.4819
694.0,0.4785
695.0,0.5043
696.0,0.5052
697.0,0.5434
698.0,0.5348
699.0,0.5172
700.0,0.5107
701.0,0.5038
702.0,0.5091
703.0,0.5104
704.0,0.5296
705.0,0.5304
706.0,0.531
707.0,0.5319
708.0,0.5329
709.0,0.5356
710.0,0.5346
711.0,0.5345
712.0,0.5338
713.0,0.5276
714.0,0.5298
715.0,0.5112
716.0,0.511
717.0,0.4256
718.0,0.3889
719.0,0.3547
720.0,0.3699
721.0,0.4187
722.0,0.4902
723.0,0.4507
724.0,0.3993
725.0,0.3906
726.0,0.4097
727.0,0.4199
728.0,0.3888
729.0,0.4096
730.0,0.4326
731.0,0.4124
732.0,0.4477
733.0,0.48
734.0,0.4933
735.0,0.4821
736.0,0.4813
737.0,0.4832
738.0,0.4952
739.0,0.4854
740.0,0.4995
741.0,0.4953
742.0,0.4966
743.0,0.5095
744.0,0.5086
745.0,0.5091
746.0,0.5114
747.0,0.5127
748.0,0.5116
749.0,0.5058
750.0,0.5056
751.0,0.5005
752.0,0.5027
753.0,0.5053
754.0,0.5064
755.0,0.5035
756.0,0.5034
757.0,0.5041
758.0,0.4977
759.0,0.4848
760.0,0.04407
761.0,0.01868
762.0,0.1986
763.0,0.07774
764.0,0.1346
765.0,0.1985
766.0,0.2652
767.0,0.3585
768.0,0.4342
769.0,0.4481
770.0,0.4687
771.0,0.4749
772.0,0.4767
773.0,0.4802
774.0,0.4781
775.0,0.4745
776.0,0.4804
777.0,0.4741
778.0,0.4712
779.0,0.4716
780.0,0.469
781.0,0.4695
782.0,0.4725
783.0,0.4643
784.0,0.4667
785.0,0.463
786.0,0.4679
787.0,0.4576
788.0,0.4509
789.0,0.4505
790.0,0.4355
791.0,0.4423
792.0,0.4394
793.0,0.432
794.0,0.4425
795.0,0.4492
796.0,0.4311
797.0,0.4314
798.0,0.4481
799.0,0.4445
800.0,0.4358
801.0,0.4334
802.0,0.4322
803.0,0.4284
804.0,0.4294
805.0,0.4293
806.0,0.4434
807.0,0.4376
808.0,0.4382
809.0,0.4284
810.0,0.4239
811.0,0.4221
812.0,0.4073
813.0,0.3973
814.0,0.341
815.0,0.3394
816.0,0.3148
817.0,0.3214
818.0,0.3073
819.0,0.351
820.0,0.3278
821.0,0.3938
822.0,0.3808
823.0,0.2427
824.0,0.3658
825.0,0.3868
826.0,0.3688
827.0,0.3927
828.0,0.3229
829.0,0.3673
830.0,0.3615
831.0,0.363
832.0,0.35
833.0,0.3772
834.0,0.3606
835.0,0.4034
836.0,0.3814
837.0,0.4048
838.0,0.3898
839.0,0.3992
840.0,0.4085
841.0,0.4017
842.0,0.4042
843.0,0.4056
844.0,0.3991
845.0,0.4138
846.0,0.4122
847.0,0.405
848.0,0.4018
849.0,0.3904
850.0,0.3741
851.0,0.3953
852.0,0.3929
853.0,0.3788
854.0,0.3265
855.0,0.3595
856.0,0.3925
857.0,0.4018
858.0,0.3986
859.0,0.3993
860.0,0.4002
861.0,0.398
862.0,0.4044
863.0,0.4139
864.0,0.3933
865.0,0.3899
866.0,0.3506
867.0,0.3659
868.0,0.3982
869.0,0.3899
870.0,0.4011
871.0,0.3956
872.0,0.3942
873.0,0.3935
874.0,0.3888
875.0,0.3809
876.0,0.3848
877.0,0.3888
878.0,0.3928
879.0,0.3868
880.0,0.3786
881.0,0.3725
882.0,0.3804
883.0,0.382
884.0,0.3801
885.0,0.3829
886.0,0.3636
887.0,0.3685
888.0,0.3733
889.0,0.3788
890.0,0.3741
891.0,0.3742
892.0,0.3615
893.0,0.3482
894.0,0.3319
895.0,0.3084
896.0,0.289
897.0,0.242
898.0,0.2673
899.0,0.1962
900.0,0.2777
901.0,0.2057
902.0,0.251
903.0,0.2501
904.0,0.3293
905.0,0.316
906.0,0.2941
907.0,0.2291
908.0,0.2354
909.0,0.2591
910.0,0.2213
911.0,0.2414
912.0,0.2533
913.0,0.2242
914.0,0.2239
915.0,0.2424
916.0,0.2038
917.0,0.2665
918.0,0.2084
919.0,0.2739
920.0,0.2819
921.0,0.2932
922.0,0.2564
923.0,0.2838
924.0,0.2616
925.0,0.2562
926.0,0.2583
927.0,0.2949
928.0,0.2001
929.0,0.1783
930.0,0.1334
931.0,0.1269
932.0,0.08451
933.0,0.06554
934.0,0.02956
935.0,0.06961
936.0,0.03926
937.0,0.0395
938.0,0.05011
939.0,0.1228
940.0,0.1528
941.0,0.1088
942.0,0.1296
943.0,0.08024
944.0,0.08942
945.0,0.1135
946.0,0.05115
947.0,0.1122
948.0,0.08172
949.0,0.1568
950.0,0.03426
951.0,0.1555
952.0,0.07508
953.0,0.1026
954.0,0.1321
955.0,0.1044
956.0,0.1066
957.0,0.07458
958.0,0.1589
959.0,0.1186
960.0,0.133
961.0,0.1553
962.0,0.1464
963.0,0.1741
964.0,0.1579
965.0,0.1736
966.0,0.1726
967.0,0.1712
968.0,0.2497
969.0,0.2582
970.0,0.235
971.0,0.2778
972.0,0.264
973.0,0.2209
974.0,0.2087
975.0,0.2198
976.0,0.2038
977.0,0.2419
978.0,0.2256
979.0,0.239
980.0,0.2232
981.0,0.2765
982.0,0.2611
983.0,0.2488
984.0,0.2889
985.0,0.26
986.0,0.2964
987.0,0.2877
988.0,0.2874
989.0,0.297
990.0,0.2855
991.0,0.2976
992.0,0.2996
993.0,0.2901
994.0,0.2998
995.0,0.2999
996.0,0.2981
997.0,0.2988
998.0,0.2972
999.0,0.2962
1000.0,0.2935
1001.0,0.2979
1002.0,0.287
1003.0,0.2925
1004.0,0.2846
1005.0,0.2751
1006.0,0.2854
1007.0,0.2917
1008.0,0.2896
1009.0,0.2876
1010.0,0.2861
1011.0,0.2903
1012.0,0.2873
1013.0,0.2897
1014.0,0.2877
1015.0,0.2857
1016.0,0.2844
1017.0,0.285
1018.0,0.2843
1019.0,0.2772
1020.0,0.2826
1021.0,0.2824
1022.0,0.2798
1023.0,0.2827
1024.0,0.278
1025.0,0.2829
1026.0,0.2814
1027.0,0.2808
1028.0,0.2801
1029.0,0.2767
1030.0,0.279
1031.0,0.2777
1032.0,0.277
1033.0,0.2729
1034.0,0.2729
1035.0,0.2738
1036.0,0.275
1037.0,0.2706
1038.0,0.2718
1039.0,0.2716
1040.0,0.2704
1041.0,0.2714
1042.0,0.2695
1043.0,0.2686
1044.0,0.2695
1045.0,0.2658
1046.0,0.2628
1047.0,0.2651
1048.0,0.2664
1049.0,0.2654
1050.0,0.2641
1051.0,0.2636
1052.0,0.2624
1053.0,0.2602
1054.0,0.2606
1055.0,0.2606
1056.0,0.2595
1057.0,0.2586
1058.0,0.2521
1059.0,0.2522
1060.0,0.2517
1061.0,0.2513
1062.0,0.2524
1063.0,0.2498
1064.0,0.2528
1065.0,0.2506
1066.0,0.246
1067.0,0.249
1068.0,0.2433
1069.0,0.236
1070.0,0.2438
1071.0,0.2485
1072.0,0.2449
1073.0,0.2415
1074.0,0.2488
1075.0,0.2336
1076.0,0.2485
1077.0,0.2425
1078.0,0.2372
1079.0,0.245
1080.0,0.2388
1081.0,0.2297
1082.0,0.2358
1083.0,0.2371
1084.0,0.2286
1085.0,0.2396
1086.0,0.2148
1087.0,0.2243
1088.0,0.2364
1089.0,0.2265
1090.0,0.22
1091.0,0.235
1092.0,0.2349
1093.0,0.1919
1094.0,0.214
1095.0,0.2005
1096.0,0.1899
1097.0,0.2295
1098.0,0.186
1099.0,0.1951
1100.0,0.1784
1101.0,0.1816
1102.0,0.1715
1103.0,0.1684
1104.0,0.1688
1105.0,0.19
1106.0,0.1336
1107.0,0.1782
1108.0,0.1441
1109.0,0.1457
1110.0,0.1754
1111.0,0.1098
1112.0,0.1451
1113.0,0.08329
1114.0,0.09369
1115.0,0.07712
1116.0,0.05658
1117.0,0.0161
1118.0,0.06297
1119.0,0.02712
1120.0,0.03364
1121.0,0.04694
1122.0,0.01643
1123.0,0.03058
1124.0,0.02576
1125.0,0.03462
1126.0,0.008916
1127.0,0.03936
1128.0,0.01997
1129.0,0.02158
1130.0,0.01328
1131.0,0.08415
1132.0,0.06416
1133.0,0.03554
1134.0,0.006758
1135.0,0.002685
1136.0,0.02792
1137.0,0.08071
1138.0,0.05595
1139.0,0.09434
1140.0,0.07464
1141.0,0.05329
1142.0,0.06334
1143.0,0.09462
1144.0,0.02818
1145.0,0.03432
1146.0,0.03695
1147.0,0.009874
1148.0,0.08144
1149.0,0.06193
1150.0,0.03113
1151.0,0.05549
1152.0,0.07202
1153.0,0.07312
1154.0,0.03322
1155.0,0.09824
1156.0,0.08626
1157.0,0.1009
1158.0,0.09969
1159.0,0.1101
1160.0,0.09168
1161.0,0.119
1162.0,0.1191
1163.0,0.1716
1164.0,0.1433
1165.0,0.1313
1166.0,0.1335
1167.0,0.1473
1168.0,0.148
1169.0,0.1526
1170.0,0.1692
1171.0,0.1647
1172.0,0.1698
1173.0,0.1689
1174.0,0.113
1175.0,0.1667
1176.0,0.1876
1177.0,0.1771
1178.0,0.1273
1179.0,0.1892
1180.0,0.1642
1181.0,0.1697
1182.0,0.1108
1183.0,0.1681
1184.0,0.1554
1185.0,0.148
1186.0,0.1819
1187.0,0.1712
1188.0,0.1116
1189.0,0.1592
1190.0,0.1781
1191.0,0.1652
1192.0,0.181
1193.0,0.1721
1194.0,0.1783
1195.0,0.1659
1196.0,0.1583
1197.0,0.1796
1198.0,0.1629
1199.0,0.1329
1200.0,0.1698
1201.0,0.1618
1202.0,0.1624
1203.0,0.1602
1204.0,0.1376
1205.0,0.1678
1206.0,0.1882
1207.0,0.1612
1208.0,0.1604
1209.0,0.1641
1210.0,0.1722
1211.0,0.1619
1212.0,0.1571
1213.0,0.1806
1214.0,0.162
1215.0,0.1585
1216.0,0.1803
1217.0,0.1744
1218.0,0.1787
1219.0,0.1759
1220.0,0.179
1221.0,0.1814
1222.0,0.1762
1223.0,0.1741
1224.0,0.172
1225.0,0.1801
1226.0,0.1821
1227.0,0.1651
1228.0,0.1836
1229.0,0.1821
1230.0,0.1785
1231.0,0.1854
1232.0,0.1843
1233.0,0.1755
1234.0,0.1858
1235.0,0.1843
1236.0,0.1859
1237.0,0.1822
1238.0,0.1853
1239.0,0.1829
1240.0,0.1837
1241.0,0.1822
1242.0,0.1824
1243.0,0.1809
1244.0,0.182
1245.0,0.1829
1246.0,0.1818
1247.0,0.181
1248.0,0.1805
1249.0,0.1814
1250.0,0.1801
1251.0,0.1774
1252.0,0.1779
1253.0,0.1756
1254.0,0.1732
1255.0,0.1775
1256.0,0.1709
1257.0,0.1697
1258.0,0.1741
1259.0,0.1653
1260.0,0.1665
1261.0,0.1541
1262.0,0.1479
1263.0,0.1481
1264.0,0.1331
1265.0,0.1472
1266.0,0.1395
1267.0,0.1434
1268.0,0.1337
1269.0,0.06892
1270.0,0.1423
1271.0,0.154
1272.0,0.1548
1273.0,0.1528
1274.0,0.1538
1275.0,0.1566
1276.0,0.1587
1277.0,0.1605
1278.0,0.1648
1279.0,0.1632
1280.0,0.1613
1281.0,0.1544
1282.0,0.1498
1283.0,0.1611
1284.0,0.1648
1285.0,0.166
1286.0,0.1688
1287.0,0.1652
1288.0,0.1654
1289.0,0.1583
1290.0,0.1641
1291.0,0.1668
1292.0,0.1532
1293.0,0.1627
1294.0,0.1614
1295.0,0.1595
1296.0,0.1501
1297.0,0.1404
1298.0,0.1546
1299.0,0.1632
1300.0,0.1325
1301.0,0.1376
1302.0,0.1541
1303.0,0.1314
1304.0,0.1069
1305.0,0.1507
1306.0,0.1502
1307.0,0.1111
1308.0,0.1325
1309.0,0.1483
1310.0,0.1086
1311.0,0.1258
1312.0,0.1216
1313.0,0.1181
1314.0,0.1039
1315.0,0.1014
1316.0,0.1228
1317.0,0.1157
1318.0,0.1279
1319.0,0.09378
1320.0,0.09217
1321.0,0.1095
1322.0,0.1095
1323.0,0.07735
1324.0,0.0922
1325.0,0.1205
1326.0,0.1003
1327.0,0.09477
1328.0,0.08001
1329.0,0.05573
1330.0,0.07478
1331.0,0.04034
1332.0,0.04314
1333.0,0.061
1334.0,0.05457
1335.0,0.07677
1336.0,0.058
1337.0,0.05031
1338.0,0.05424
1339.0,0.05469
1340.0,0.0546
1341.0,0.05002
1342.0,0.05291
1343.0,0.0302
1344.0,0.01859
1345.0,0.02667
1346.0,0.01026
1347.0,0.009923
1348.0,0.0003691
1349.0,0.001529
1350.0,0.001756
1351.0,0.0002556
1352.0,3.659e-05
1353.0,1.094e-06
1354.0,5.627e-06
1355.0,1.364e-08
1356.0,5.227e-07
1357.0,7.978e-07
1358.0,1.693e-08
1359.0,8.961e-10
1360.0,5.615e-09
1361.0,1.51e-12
1362.0,3.12e-15
1363.0,5.258e-09
1364.0,2.296e-09
1365.0,8.761e-16
1366.0,2.856e-08
1367.0,1.511e-08
1368.0,6.144e-18
1369.0,8.422e-10
1370.0,2.944e-10
1371.0,1.211e-11
1372.0,8.516e-09
1373.0,3.065e-07
1374.0,2.187e-06
1375.0,3.635e-06
1376.0,5.207e-06
1377.0,2.197e-06
1378.0,2.406e-05
1379.0,9.323e-07
1380.0,9.851e-07
1381.0,2.145e-08
1382.0,6.83e-09
1383.0,8.083e-11
1384.0,8.081e-10
1385.0,1.035e-08
1386.0,4.599e-09
1387.0,1.61e-06
1388.0,3.74e-08
1389.0,9.36e-06
1390.0,7.733e-06
1391.0,4.908e-06
1392.0,2.993e-07
1393.0,1.965e-06
1394.0,4.681e-07
1395.0,2.379e-09
1396.0,2.41e-12
1397.0,6.63e-07
1398.0,2.519e-05
1399.0,1.651e-05
1400.0,7.798e-13
1401.0,4.847e-12
1402.0,9.161e-05
1403.0,9.996e-05
1404.0,2.846e-05
1405.0,8.322e-10
1406.0,5.823e-05
1407.0,6.756e-06
1408.0,5.001e-05
1409.0,1.159e-05
1410.0,1.276e-05
1411.0,9.06e-05
1412.0,0.0001462
1413.0,0.002386
1414.0,1.066e-05
1415.0,4.362e-06
1416.0,0.005538
1417.0,0.00124
1418.0,0.001257
1419.0,0.0001819
1420.0,0.0007597
1421.0,0.0008836
1422.0,0.007273
1423.0,0.001316
1424.0,0.002627
1425.0,0.003552
1426.0,0.004694
1427.0,0.01002
1428.0,0.0003267
1429.0,0.006696
1430.0,0.01357
1431.0,0.01546
1432.0,0.0002518
1433.0,0.009127
1434.0,0.004303
