interpolation:linear
wavelength,value
280.0,1.3489999999999998e-22
280.5,4.479e-21
281.0,2.4110000000000002e-20
281.5,4.087e-19
282.0,5.592e-19
282.5,1.372e-18
283.0,4.327e-18
283.5,7.049e-18
284.0,1.165e-16
284.5,3.41e-16
285.0,5.787e-16
285.5,2.848e-15
286.0,1.147e-14
286.5,5.159e-14
287.0,1.482e-13
287.5,5.727e-13
288.0,2.037e-12
288.5,5.995e-12
289.0,1.571e-11
289.5,4.698e-11
290.0,1.299e-10
290.5,2.643e-10
291.0,5.669e-10
291.5,1.627e-09
292.0,3.274e-09
292.5,4.582e-09
293.0,9.8e-09
293.5,2.377e-08
294.0,3.713e-08
294.5,4.99e-08
295.0,8.439e-08
295.5,1.404e-07
296.0,2.695e-07
296.5,3.746e-07
297.0,5.04e-07
297.5,1.34e-06
298.0,2.093e-06
298.5,2.089e-06
299.0,4.565e-06
299.5,7.453e-06
300.0,8.105e-06
300.5,1.159e-05
301.0,2.049e-05
301.5,3.186e-05
302.0,2.686e-05
302.5,5.32e-05
303.0,9.719e-05
303.5,0.0001248
304.0,0.0001209
304.5,0.0001961
305.0,0.000336
305.5,0.0004165
306.0,0.0004158
306.5,0.0005455
307.0,0.0009106
307.5,0.001359
308.0,0.001462
308.5,0.001829
309.0,0.002102
309.5,0.002779
310.0,0.002983
310.5,0.004991
311.0,0.00661
311.5,0.00653
312.0,0.00733
312.5,0.009626
313.0,0.01086
313.5,0.01016
314.0,0.01392
314.5,0.01392
315.0,0.01869
315.5,0.01475
316.0,0.0142
316.5,0.02216
317.0,0.02747
317.5,0.02791
318.0,0.02305
318.5,0.03192
319.0,0.04001
319.5,0.02986
320.0,0.03559
320.5,0.04978
321.0,0.04898
321.5,0.04743
322.0,0.04542
322.5,0.03973
323.0,0.04242
323.5,0.05615
324.0,0.06631
324.5,0.06536
325.0,0.05403
325.5,0.07353
326.0,0.09226
326.5,0.09596
327.0,0.09432
327.5,0.08951
328.0,0.0758
328.5,0.08467
329.0,0.1064
329.5,0.1226
330.0,0.1222
330.5,0.09427
331.0,0.09485
331.5,0.09913
332.0,0.1115
332.5,0.1123
333.0,0.1109
333.5,0.09743
334.0,0.09936
334.5,0.1186
335.0,0.1137
335.5,0.1336
336.0,0.0925
336.5,0.1066
337.0,0.0863
337.5,0.1068
338.0,0.1073
338.5,0.125
339.0,0.124
339.5,0.1192
340.0,0.1389
340.5,0.1256
341.0,0.1234
341.5,0.1137
342.0,0.1361
342.5,0.1275
343.0,0.14
343.5,0.1317
344.0,0.09667
344.5,0.09816
345.0,0.1305
345.5,0.1335
346.0,0.1137
346.5,0.1289
347.0,0.1382
347.5,0.1117
348.0,0.1277
348.5,0.1279
349.0,0.1188
349.5,0.1177
350.0,0.1457
350.5,0.1537
351.0,0.1372
351.5,0.1331
352.0,0.1433
352.5,0.112
353.0,0.1414
353.5,0.1513
354.0,0.1572
354.5,0.1595
355.0,0.159
355.5,0.1438
356.0,0.1506
356.5,0.1287
357.0,0.1063
357.5,0.1303
358.0,0.1033
358.5,0.08834
359.0,0.1236
359.5,0.1574
360.0,0.167
360.5,0.1336
361.0,0.1219
361.5,0.1406
362.0,0.1218
362.5,0.1687
363.0,0.1517
363.5,0.1399
364.0,0.1713
364.5,0.1465
365.0,0.1493
365.5,0.1875
366.0,0.1989
366.5,0.1871
367.0,0.1823
367.5,0.1893
368.0,0.1658
368.5,0.1674
369.0,0.181
369.5,0.1931
370.0,0.206
370.5,0.16
371.0,0.1711
371.5,0.2143
372.0,0.1423
372.5,0.1708
373.0,0.1739
373.5,0.1132
374.0,0.1646
374.5,0.1365
375.0,0.1328
375.5,0.1983
376.0,0.1645
376.5,0.1706
377.0,0.1808
377.5,0.2117
378.0,0.2296
378.5,0.2171
379.0,0.1792
379.5,0.1638
380.0,0.1704
380.5,0.2066
381.0,0.2073
381.5,0.1645
382.0,0.1463
382.5,0.1248
383.0,0.1157
383.5,0.1116
384.0,0.1232
384.5,0.1813
385.0,0.18
385.5,0.1678
386.0,0.1438
386.5,0.1891
387.0,0.1572
387.5,0.1767
388.0,0.1633
388.5,0.1616
389.0,0.1746
389.5,0.2116
390.0,0.2126
390.5,0.1958
391.0,0.2307
391.5,0.2354
392.0,0.1984
392.5,0.1778
393.0,0.09906
393.5,0.07208
394.0,0.1468
394.5,0.1868
395.0,0.2281
395.5,0.2318
396.0,0.2012
396.5,0.1177
397.0,0.08845
397.5,0.18
398.0,0.2522
398.5,0.2608
399.0,0.2829
399.5,0.2822
400.0,0.2931
401.0,0.2949
402.0,0.3117
403.0,0.2967
404.0,0.2925
405.0,0.2929
406.0,0.2887
407.0,0.2846
408.0,0.2959
409.0,0.3172
410.0,0.2776
411.0,0.3012
412.0,0.3242
413.0,0.3165
414.0,0.3209
415.0,0.3223
416.0,0.3286
417.0,0.3209
418.0,0.3154
419.0,0.32
420.0,0.319
421.0,0.3342
422.0,0.318
423.0,0.311
424.0,0.3292
425.0,0.3291
426.0,0.3214
427.0,0.3157
428.0,0.3079
429.0,0.2923
430.0,0.2562
431.0,0.254
432.0,0.3285
433.0,0.3308
434.0,0.3074
435.0,0.3212
436.0,0.3627
437.0,0.3585
438.0,0.3269
439.0,0.3377
440.0,0.349
441.0,0.3622
442.0,0.3888
443.0,0.3786
444.0,0.3875
445.0,0.3792
446.0,0.3628
447.0,0.3931
448.0,0.3989
449.0,0.4016
450.0,0.4133
451.0,0.429
452.0,0.4138
453.0,0.3897
454.0,0.4075
455.0,0.4102
456.0,0.4203
457.0,0.4274
458.0,0.4125
459.0,0.4106
460.0,0.4116
461.0,0.4213
462.0,0.4252
463.0,0.4224
464.0,0.4164
465.0,0.4122
466.0,0.4169
467.0,0.4091
468.0,0.414
469.0,0.4163
470.0,0.4029
471.0,0.4027
472.0,0.4244
473.0,0.4189
474.0,0.419
475.0,0.422
476.0,0.4085
477.0,0.409
478.0,0.4206
479.0,0.4186
480.0,0.4199
481.0,0.4285
482.0,0.4316
483.0,0.4274
484.0,0.4193
485.0,0.4001
486.0,0.3505
487.0,0.3679
488.0,0.4037
489.0,0.4047
490.0,0.4263
491.0,0.4194
492.0,0.3962
493.0,0.4094
494.0,0.4137
495.0,0.4174
496.0,0.42
497.0,0.4264
498.0,0.4063
499.0,0.4112
500.0,0.3987
501.0,0.3907
502.0,0.3841
503.0,0.3985
504.0,0.3851
505.0,0.4015
506.0,0.4144
507.0,0.3946
508.0,0.3833
509.0,0.3949
510.0,0.3936
511.0,0.4048
512.0,0.4096
513.0,0.3878
514.0,0.3855
515.0,0.3816
516.0,0.3806
517.0,0.3384
518.0,0.3556
519.0,0.373
520.0,0.3864
521.0,0.3899
522.0,0.39
523.0,0.3827
524.0,0.3958
525.0,0.3995
526.0,0.3813
527.0,0.3586
528.0,0.3787
529.0,0.3987
530.0,0.3926
531.0,0.3981
532.0,0.3842
533.0,0.373
534.0,0.3843
535.0,0.3931
536.0,0.3971
537.0,0.3818
538.0,0.3888
539.0,0.3855
540.0,0.3694
541.0,0.3708
542.0,0.3819
543.0,0.3786
544.0,0.3844
545.0,0.3833
546.0,0.3842
547.0,0.3848
548.0,0.3805
549.0,0.382
550.0,0.3865
551.0,0.382
552.0,0.3847
553.0,0.3776
554.0,0.3866
555.0,0.3871
556.0,0.3819
557.0,0.3697
558.0,0.3664
559.0,0.359
560.0,0.3631
561.0,0.3672
562.0,0.3639
563.0,0.3731
564.0,0.3623
565.0,0.3587
566.0,0.3529
567.0,0.3589
568.0,0.3539
569.0,0.3421
570.0,0.3424
571.0,0.3412
572.0,0.3471
573.0,0.3504
574.0,0.3487
575.0,0.3414
576.0,0.3384
577.0,0.3424
578.0,0.3382
579.0,0.3412
580.0,0.3502
581.0,0.3539
582.0,0.3623
583.0,0.3646
584.0,0.3687
585.0,0.3603
586.0,0.353
587.0,0.3597
588.0,0.3467
589.0,0.2991
590.0,0.3133
591.0,0.3365
592.0,0.3294
593.0,0.338
594.0,0.3341
595.0,0.3227
596.0,0.3422
597.0,0.3367
598.0,0.3379
599.0,0.3391
600.0,0.3413
601.0,0.3398
602.0,0.3377
603.0,0.344
604.0,0.35
605.0,0.3486
606.0,0.348
607.0,0.3522
608.0,0.3491
609.0,0.3504
610.0,0.3486
611.0,0.3509
612.0,0.3504
613.0,0.3464
614.0,0.3423
615.0,0.3504
616.0,0.3394
617.0,0.3391
618.0,0.3526
619.0,0.3492
620.0,0.3514
621.0,0.3512
622.0,0.3467
623.0,0.341
624.0,0.3356
625.0,0.3348
626.0,0.3395
627.0,0.3417
628.0,0.2998
629.0,0.3268
630.0,0.3186
631.0,0.3324
632.0,0.3297
633.0,0.3425
634.0,0.3414
635.0,0.3478
636.0,0.3445
637.0,0.3511
638.0,0.356
639.0,0.3528
640.0,0.3504
641.0,0.3509
642.0,0.3502
643.0,0.355
644.0,0.3547
645.0,0.3548
646.0,0.3442
647.0,0.3346
648.0,0.3353
649.0,0.328
650.0,0.3366
651.0,0.3524
652.0,0.331
653.0,0.3482
654.0,0.3449
655.0,0.3286
656.0,0.2936
657.0,0.302
658.0,0.3407
659.0,0.3441
660.0,0.346
661.0,0.3488
662.0,0.3483
663.0,0.3419
664.0,0.3479
665.0,0.3496
666.0,0.3505
667.0,0.351
668.0,0.352
669.0,0.3579
670.0,0.3567
671.0,0.3571
672.0,0.3543
673.0,0.36
674.0,0.359
675.0,0.3561
676.0,0.3588
677.0,0.3556
678.0,0.3568
679.0,0.3513
680.0,0.3543
681.0,0.3521
682.0,0.3517
683.0,0.3511
684.0,0.3493
685.0,0.3527
686.0,0.3502
687.0,0.155
688.0,0.2136
689.0,0.2155
690.0,0.2382
691.0,0.2655
692.0,0.2877
693.0,0.2848
694.0,0.2846
695.0,0.3066
696.0,0.3078
697.0,0.3382
698.0,0.3327
699.0,0.3167
700.0,0.3124
701.0,0.3059
702.0,0.3112
703.0,0.3128
704.0,0.3277
705.0,0.328
706.0,0.3296
707.0,0.3306
708.0,0.3311
709.0,0.335
710.0,0.3331
711.0,0.3339
712.0,0.3346
713.0,0.3296
714.0,0.3314
715.0,0.3175
716.0,0.3169
717.0,0.2459
718.0,0.2238
719.0,0.2028
720.0,0.2094
721.0,0.2471
722.0,0.3004
723.0,0.2711
724.0,0.2334
725.0,0.2264
726.0,0.2377
727.0,0.2484
728.0,0.2246
729.0,0.2429
730.0,0.2544
731.0,0.2418
732.0,0.2693
733.0,0.2945
734.0,0.3048
735.0,0.2967
736.0,0.2958
737.0,0.2971
738.0,0.3097
739.0,0.3038
740.0,0.3141
741.0,0.3124
742.0,0.3143
743.0,0.3227
744.0,0.3227
745.0,0.3236
746.0,0.3251
747.0,0.326
748.0,0.3254
749.0,0.3218
750.0,0.3217
751.0,0.3185
752.0,0.32
753.0,0.3217
754.0,0.3224
755.0,0.3205
756.0,0.3205
757.0,0.321
758.0,0.3168
759.0,0.305
760.0,0.009737
761.0,0.003271
762.0,0.08185
763.0,0.02111
764.0,0.04617
765.0,0.08161
766.0,0.1277
767.0,0.1967
768.0,0.2615
769.0,0.2755
770.0,0.2948
771.0,0.3016
772.0,0.3037
773.0,0.3062
774.0,0.305
775.0,0.3029
776.0,0.3068
777.0,0.3028
778.0,0.3009
779.0,0.3011
780.0,0.2996
781.0,0.2999
782.0,0.3019
783.0,0.2968
784.0,0.2984
785.0,0.2958
786.0,0.2987
787.0,0.2895
788.0,0.2841
789.0,0.2839
790.0,0.2711
791.0,0.2788
792.0,0.2775
793.0,0.2725
794.0,0.2824
795.0,0.2857
796.0,0.2695
797.0,0.2692
798.0,0.2845
799.0,0.2813
800.0,0.2747
801.0,0.272
802.0,0.2711
803.0,0.268
804.0,0.2693
805.0,0.2707
806.0,0.2821
807.0,0.2779
808.0,0.2784
809.0,0.2703
810.0,0.2664
811.0,0.2632
812.0,0.2501
813.0,0.2432
814.0,0.2008
815.0,0.2007
816.0,0.185
817.0,0.189
818.0,0.1789
819.0,0.211
820.0,0.195
821.0,0.245
822.0,0.2352
823.0,0.1351
824.0,0.2217
825.0,0.241
826.0,0.226
827.0,0.2443
828.0,0.1907
829.0,0.2259
830.0,0.2218
831.0,0.2225
832.0,0.2127
833.0,0.2337
834.0,0.2206
835.0,0.2546
836.0,0.235
837.0,0.2554
838.0,0.243
839.0,0.2519
840.0,0.2585
841.0,0.253
842.0,0.2564
843.0,0.2593
844.0,0.2542
845.0,0.2648
846.0,0.2642
847.0,0.2602
848.0,0.2572
849.0,0.2499
850.0,0.2396
851.0,0.2522
852.0,0.2512
853.0,0.2429
854.0,0.2087
855.0,0.2307
856.0,0.2515
857.0,0.2581
858.0,0.2557
859.0,0.2566
860.0,0.2575
861.0,0.2559
862.0,0.2602
863.0,0.2663
864.0,0.2531
865.0,0.251
866.0,0.2257
867.0,0.2356
868.0,0.2564
869.0,0.2511
870.0,0.2583
871.0,0.2548
872.0,0.254
873.0,0.2535
874.0,0.2505
875.0,0.2454
876.0,0.2478
877.0,0.2504
878.0,0.2529
879.0,0.2491
880.0,0.2438
881.0,0.2394
882.0,0.2443
883.0,0.2458
884.0,0.2444
885.0,0.2462
886.0,0.2323
887.0,0.2366
888.0,0.2391
889.0,0.2438
890.0,0.2392
891.0,0.2401
892.0,0.2299
893.0,0.2198
894.0,0.2052
895.0,0.1857
896.0,0.173
897.0,0.1396
898.0,0.1565
899.0,0.1092
900.0,0.1661
901.0,0.1144
902.0,0.1471
903.0,0.1438
904.0,0.2034
905.0,0.1937
906.0,0.1786
907.0,0.1301
908.0,0.1359
909.0,0.1526
910.0,0.1243
911.0,0.1411
912.0,0.1476
913.0,0.1256
914.0,0.1268
915.0,0.1362
916.0,0.1141
917.0,0.1551
918.0,0.116
919.0,0.1618
920.0,0.1722
921.0,0.1782
922.0,0.1514
923.0,0.1731
924.0,0.1526
925.0,0.1499
926.0,0.15
927.0,0.1755
928.0,0.1066
929.0,0.0917
930.0,0.06323
931.0,0.05969
932.0,0.03497
933.0,0.02534
934.0,0.008339
935.0,0.02824
936.0,0.01367
937.0,0.01377
938.0,0.01824
939.0,0.05759
940.0,0.07572
941.0,0.04931
942.0,0.06083
943.0,0.03433
944.0,0.04203
945.0,0.0526
946.0,0.01951
947.0,0.05079
948.0,0.03667
949.0,0.07581
950.0,0.01173
951.0,0.07534
952.0,0.03146
953.0,0.04655
954.0,0.06406
955.0,0.04789
956.0,0.05468
957.0,0.03115
958.0,0.08476
959.0,0.0579
960.0,0.06498
961.0,0.08048
962.0,0.07591
963.0,0.09432
964.0,0.08453
965.0,0.09346
966.0,0.09299
967.0,0.09143
968.0,0.1511
969.0,0.153
970.0,0.1383
971.0,0.1711
972.0,0.1606
973.0,0.1271
974.0,0.1199
975.0,0.1282
976.0,0.1145
977.0,0.1458
978.0,0.132
979.0,0.1416
980.0,0.1316
981.0,0.1704
982.0,0.1581
983.0,0.1493
984.0,0.1817
985.0,0.1572
986.0,0.1889
987.0,0.1811
988.0,0.1811
989.0,0.191
990.0,0.1799
991.0,0.1911
992.0,0.1926
993.0,0.1841
994.0,0.1931
995.0,0.1935
996.0,0.1919
997.0,0.1926
998.0,0.1914
999.0,0.1909
1000.0,0.1885
1001.0,0.1921
1002.0,0.1822
1003.0,0.1884
1004.0,0.1826
1005.0,0.1775
1006.0,0.1837
1007.0,0.188
1008.0,0.1862
1009.0,0.1843
1010.0,0.183
1011.0,0.1871
1012.0,0.1847
1013.0,0.1869
1014.0,0.1856
1015.0,0.1843
1016.0,0.1833
1017.0,0.1836
1018.0,0.1835
1019.0,0.1778
1020.0,0.1823
1021.0,0.1823
1022.0,0.1803
1023.0,0.1821
1024.0,0.1779
1025.0,0.1825
1026.0,0.1813
1027.0,0.181
1028.0,0.1805
1029.0,0.1781
1030.0,0.18
1031.0,0.179
1032.0,0.1787
1033.0,0.176
1034.0,0.1761
1035.0,0.1766
1036.0,0.1773
1037.0,0.1745
1038.0,0.1752
1039.0,0.175
1040.0,0.1742
1041.0,0.1748
1042.0,0.1735
1043.0,0.1729
1044.0,0.1734
1045.0,0.1709
1046.0,0.1689
1047.0,0.1703
1048.0,0.1711
1049.0,0.1703
1050.0,0.1694
1051.0,0.169
1052.0,0.1681
1053.0,0.1665
1054.0,0.1667
1055.0,0.1665
1056.0,0.1656
1057.0,0.1648
1058.0,0.1605
1059.0,0.1604
1060.0,0.16
1061.0,0.1597
1062.0,0.1602
1063.0,0.1584
1064.0,0.1604
1065.0,0.1585
1066.0,0.1559
1067.0,0.1578
1068.0,0.1538
1069.0,0.1495
1070.0,0.1541
1071.0,0.1581
1072.0,0.1551
1073.0,0.1531
1074.0,0.1588
1075.0,0.1466
1076.0,0.1584
1077.0,0.1533
1078.0,0.1491
1079.0,0.1567
1080.0,0.1509
1081.0,0.1438
1082.0,0.1499
1083.0,0.1514
1084.0,0.1427
1085.0,0.1516
1086.0,0.1328
1087.0,0.1406
1088.0,0.1506
1089.0,0.1415
1090.0,0.1365
1091.0,0.149
1092.0,0.1493
1093.0,0.1159
1094.0,0.1352
1095.0,0.121
1096.0,0.1131
1097.0,0.1459
1098.0,0.1096
1099.0,0.1158
1100.0,0.1038
1101.0,0.1066
1102.0,0.09889
1103.0,0.09589
1104.0,0.09635
1105.0,0.1122
1106.0,0.07009
1107.0,0.1037
1108.0,0.07857
1109.0,0.08005
1110.0,0.1005
1111.0,0.05579
1112.0,0.07999
1113.0,0.03959
1114.0,0.04455
1115.0,0.03593
1116.0,0.02334
1117.0,0.004656
1118.0,0.02644
1119.0,0.009214
1120.0,0.01098
1121.0,0.01637
1122.0,0.004236
1123.0,0.01006
1124.0,0.008433
1125.0,0.01197
1126.0,0.001863
1127.0,0.01373
1128.0,0.005356
1129.0,0.005901
1130.0,0.003549
1131.0,0.03539
1132.0,0.02577
1133.0,0.01153
1134.0,0.001396
1135.0,0.0006228
1136.0,0.008171
1137.0,0.03281
1138.0,0.02206
1139.0,0.0451
1140.0,0.03289
1141.0,0.02114
1142.0,0.02635
1143.0,0.04302
1144.0,0.0101
1145.0,0.01105
1146.0,0.01187
1147.0,0.002034
1148.0,0.03626
1149.0,0.0257
1150.0,0.01203
1151.0,0.02192
1152.0,0.03086
1153.0,0.03334
1154.0,0.01123
1155.0,0.04692
1156.0,0.03963
1157.0,0.05039
1158.0,0.04961
1159.0,0.05604
1160.0,0.04613
1161.0,0.06434
1162.0,0.06377
1163.0,0.1009
1164.0,0.08138
1165.0,0.07154
1166.0,0.07554
1167.0,0.08474
1168.0,0.0846
1169.0,0.08787
1170.0,0.1002
1171.0,0.09767
1172.0,0.1027
1173.0,0.1001
1174.0,0.06141
1175.0,0.1009
1176.0,0.1176
1177.0,0.1082
1178.0,0.07343
1179.0,0.1185
1180.0,0.09861
1181.0,0.102
1182.0,0.06128
1183.0,0.1018
1184.0,0.09225
1185.0,0.08612
1186.0,0.1119
1187.0,0.1034
1188.0,0.0605
1189.0,0.09587
1190.0,0.1101
1191.0,0.09805
1192.0,0.1123
1193.0,0.1054
1194.0,0.1101
1195.0,0.09973
1196.0,0.09372
1197.0,0.1119
1198.0,0.1006
1199.0,0.07671
1200.0,0.1041
1201.0,0.09699
1202.0,0.09946
1203.0,0.09662
1204.0,0.08102
1205.0,0.1041
1206.0,0.1193
1207.0,0.09778
1208.0,0.09897
1209.0,0.1014
1210.0,0.1077
1211.0,0.09953
1212.0,0.09307
1213.0,0.1128
1214.0,0.09716
1215.0,0.09491
1216.0,0.1131
1217.0,0.1084
1218.0,0.112
1219.0,0.1095
1220.0,0.1123
1221.0,0.1146
1222.0,0.1109
1223.0,0.109
1224.0,0.1064
1225.0,0.1134
1226.0,0.1157
1227.0,0.1018
1228.0,0.1173
1229.0,0.1157
1230.0,0.1128
1231.0,0.1192
1232.0,0.1184
1233.0,0.1101
1234.0,0.12
1235.0,0.1186
1236.0,0.12
1237.0,0.1167
1238.0,0.1196
1239.0,0.118
1240.0,0.1187
1241.0,0.117
1242.0,0.1178
1243.0,0.1169
1244.0,0.1174
1245.0,0.1181
1246.0,0.1174
1247.0,0.1167
1248.0,0.116
1249.0,0.1169
1250.0,0.1158
1251.0,0.1136
1252.0,0.1145
1253.0,0.112
1254.0,0.1097
1255.0,0.114
1256.0,0.1078
1257.0,0.1066
1258.0,0.111
1259.0,0.1025
1260.0,0.1036
1261.0,0.09231
1262.0,0.08679
1263.0,0.08682
1264.0,0.07414
1265.0,0.08636
1266.0,0.07949
1267.0,0.08339
1268.0,0.07516
1269.0,0.02728
1270.0,0.0821
1271.0,0.09273
1272.0,0.09357
1273.0,0.09197
1274.0,0.0931
1275.0,0.09542
1276.0,0.09744
1277.0,0.09954
1278.0,0.1036
1279.0,0.1025
1280.0,0.1014
1281.0,0.09777
1282.0,0.09593
1283.0,0.103
1284.0,0.1051
1285.0,0.1061
1286.0,0.1085
1287.0,0.1051
1288.0,0.1056
1289.0,0.09881
1290.0,0.1048
1291.0,0.1069
1292.0,0.09437
1293.0,0.1035
1294.0,0.1025
1295.0,0.09984
1296.0,0.09175
1297.0,0.08433
1298.0,0.09633
1299.0,0.1041
1300.0,0.07917
1301.0,0.08303
1302.0,0.09623
1303.0,0.07892
1304.0,0.05957
1305.0,0.09385
1306.0,0.09282
1307.0,0.06368
1308.0,0.08042
1309.0,0.09058
1310.0,0.06166
1311.0,0.07522
1312.0,0.07225
1313.0,0.06869
1314.0,0.05859
1315.0,0.05622
1316.0,0.0725
1317.0,0.06744
1318.0,0.07676
1319.0,0.05081
1320.0,0.05086
1321.0,0.06261
1322.0,0.06143
1323.0,0.03907
1324.0,0.05026
1325.0,0.07024
1326.0,0.05584
1327.0,0.0519
1328.0,0.04215
1329.0,0.02576
1330.0,0.03679
1331.0,0.01644
1332.0,0.01843
1333.0,0.0267
1334.0,0.02674
1335.0,0.03813
1336.0,0.02662
1337.0,0.0229
1338.0,0.02431
1339.0,0.02489
1340.0,0.02597
1341.0,0.02115
1342.0,0.02283
1343.0,0.009915
1344.0,0.006471
1345.0,0.00876
1346.0,0.002204
1347.0,0.00193
1348.0,3.468e-05
1349.0,0.0001609
1350.0,0.0001984
1351.0,1.569e-05
1352.0,1.423e-06
1353.0,5.621e-08
1354.0,2.432e-07
1355.0,1.386e-09
1356.0,2.73e-08
1357.0,4.126e-08
1358.0,1.631e-09
1359.0,2.022e-10
1360.0,7.346e-10
1361.0,8.166e-13
1362.0,2.234e-15
1363.0,9.826e-10
1364.0,4.061e-10
1365.0,7.798e-16
1366.0,4.263e-09
1367.0,1.751e-09
1368.0,6.021e-18
1369.0,1.497e-10
1370.0,7.358e-11
1371.0,4.169e-12
1372.0,9.51e-10
1373.0,1.988e-08
1374.0,1.022e-07
1375.0,1.747e-07
1376.0,2.164e-07
1377.0,9.372e-08
1378.0,9.083e-07
1379.0,4.067e-08
1380.0,4.624e-08
1381.0,1.168e-09
1382.0,8.309e-10
1383.0,1.239e-11
1384.0,1.62e-10
1385.0,8.003e-10
1386.0,7.294e-10
1387.0,9.205e-08
1388.0,1.979e-09
1389.0,3.753e-07
1390.0,3.074e-07
1391.0,2.06e-07
1392.0,1.368e-08
1393.0,8.162e-08
1394.0,3.104e-08
1395.0,2.24e-10
1396.0,1.063e-12
1397.0,2.903e-08
1398.0,9.122e-07
1399.0,6.013e-07
1400.0,4.545e-13
1401.0,1.886e-12
1402.0,5.429e-06
1403.0,4.802e-06
1404.0,1.21e-06
1405.0,1.048e-10
1406.0,2.07e-06
1407.0,3.745e-07
1408.0,1.829e-06
1409.0,4.167e-07
1410.0,5.247e-07
1411.0,4.538e-06
1412.0,9.126e-06
1413.0,0.0002364
1414.0,4.593e-07
1415.0,1.777e-07
1416.0,0.001021
1417.0,0.0001669
1418.0,0.0001152
1419.0,1.557e-05
1420.0,6.906e-05
1421.0,0.0001126
1422.0,0.001323
1423.0,0.0002331
