interpolation:linear
wavelength,value
280.0,8.574e-22
280.5,2.769e-20
281.0,1.475e-19
281.5,5.26e-19
282.0,9.044e-19
282.5,2.24e-18
283.0,7.054e-18
283.5,1.146e-17
284.0,1.858e-16
284.5,5.379e-16
285.0,1.021e-15
285.5,4.952e-15
286.0,1.982e-14
286.5,8.799e-14
287.0,2.503e-13
287.5,9.548e-13
288.0,3.016e-12
288.5,9.347e-12
289.0,2.526e-11
289.5,7.698e-11
290.0,2.148e-10
290.5,4.392e-10
291.0,9.45e-10
291.5,2.716e-09
292.0,5.868e-09
292.5,8.34e-09
293.0,1.816e-08
293.5,4.501e-08
294.0,7.123e-08
294.5,9.417e-08
295.0,1.61e-07
295.5,3.458e-07
296.0,6.328e-07
296.5,9.114e-07
297.0,1.268e-06
297.5,3.574e-06
298.0,5.921e-06
298.5,6.224e-06
299.0,1.44e-05
299.5,2.632e-05
300.0,3.078e-05
300.5,4.776e-05
301.0,9.805e-05
301.5,0.0001788
302.0,0.0001657
302.5,0.0003334
303.0,0.0006241
303.5,0.0008092
304.0,0.0007787
304.5,0.001236
305.0,0.002044
305.5,0.002473
306.0,0.002445
306.5,0.003154
307.0,0.005056
307.5,0.007241
308.0,0.007743
308.5,0.009487
309.0,0.00958
309.5,0.01148
310.0,0.01179
310.5,0.0193
311.0,0.02465
311.5,0.02399
312.0,0.0249
312.5,0.03107
313.0,0.03414
313.5,0.03277
314.0,0.0422
314.5,0.0389
315.0,0.05149
315.5,0.04228
316.0,0.03811
316.5,0.05622
317.0,0.06978
317.5,0.07209
318.0,0.05728
318.5,0.07363
319.0,0.08893
319.5,0.07052
320.0,0.08487
320.5,0.11
321.0,0.1011
321.5,0.09725
322.0,0.1003
322.5,0.0874
323.0,0.08898
323.5,0.1115
324.0,0.1306
324.5,0.1315
325.0,0.1125
325.5,0.1472
326.0,0.1808
326.5,0.1831
327.0,0.1818
327.5,0.1748
328.0,0.1534
328.5,0.1642
329.0,0.1993
329.5,0.2273
330.0,0.2286
330.5,0.1811
331.0,0.1839
331.5,0.1884
332.0,0.206
332.5,0.2049
333.0,0.2038
333.5,0.1829
334.0,0.1872
334.5,0.2182
335.0,0.2062
335.5,0.2411
336.0,0.1669
336.5,0.1949
337.0,0.1593
337.5,0.1979
338.0,0.1948
338.5,0.2253
339.0,0.2231
339.5,0.2147
340.0,0.2521
340.5,0.2275
341.0,0.2221
341.5,0.2042
342.0,0.2442
342.5,0.2286
343.0,0.2514
343.5,0.2367
344.0,0.1749
344.5,0.1767
345.0,0.2342
345.5,0.2394
346.0,0.2036
346.5,0.2307
347.0,0.2477
347.5,0.2003
348.0,0.2286
348.5,0.2286
349.0,0.2123
349.5,0.2103
350.0,0.2602
350.5,0.2746
351.0,0.2453
351.5,0.2384
352.0,0.2563
352.5,0.2002
353.0,0.2523
353.5,0.27
354.0,0.2804
354.5,0.2844
355.0,0.2836
355.5,0.2564
356.0,0.2684
356.5,0.2292
357.0,0.1895
357.5,0.232
358.0,0.184
358.5,0.1573
359.0,0.22
359.5,0.2804
360.0,0.2974
360.5,0.2378
361.0,0.217
361.5,0.25
362.0,0.2164
362.5,0.2998
363.0,0.2694
363.5,0.2484
364.0,0.3039
364.5,0.2599
365.0,0.2648
365.5,0.3325
366.0,0.3526
366.5,0.3315
367.0,0.323
367.5,0.3353
368.0,0.2936
368.5,0.2964
369.0,0.3203
369.5,0.3416
370.0,0.3643
370.5,0.2829
371.0,0.3025
371.5,0.3786
372.0,0.2514
372.5,0.3016
373.0,0.3069
373.5,0.1998
374.0,0.2905
374.5,0.2407
375.0,0.2341
375.5,0.3496
376.0,0.2899
376.5,0.3006
377.0,0.3184
377.5,0.3727
378.0,0.4042
378.5,0.3821
379.0,0.3155
379.5,0.2882
380.0,0.2998
380.5,0.3633
381.0,0.3643
381.5,0.289
382.0,0.2568
382.5,0.2191
383.0,0.203
383.5,0.1956
384.0,0.2159
384.5,0.3177
385.0,0.3152
385.5,0.2938
386.0,0.2517
386.5,0.3309
387.0,0.275
387.5,0.3091
388.0,0.2855
388.5,0.2824
389.0,0.3049
389.5,0.3695
390.0,0.371
390.5,0.3416
391.0,0.4023
391.5,0.4105
392.0,0.3459
392.5,0.3099
393.0,0.1725
393.5,0.1255
394.0,0.2554
394.5,0.3249
395.0,0.3967
395.5,0.4031
396.0,0.3496
396.5,0.2045
397.0,0.1536
397.5,0.3124
398.0,0.4376
398.5,0.4525
399.0,0.4904
399.5,0.489
400.0,0.5079
401.0,0.5137
402.0,0.5426
403.0,0.5159
404.0,0.5084
405.0,0.5087
406.0,0.5009
407.0,0.4934
408.0,0.5128
409.0,0.5493
410.0,0.4804
411.0,0.5208
412.0,0.56
413.0,0.5463
414.0,0.5535
415.0,0.5555
416.0,0.5657
417.0,0.5522
418.0,0.5423
419.0,0.5499
420.0,0.5478
421.0,0.5735
422.0,0.5454
423.0,0.5331
424.0,0.5641
425.0,0.5635
426.0,0.5495
427.0,0.5395
428.0,0.5258
429.0,0.4985
430.0,0.4366
431.0,0.4328
432.0,0.5593
433.0,0.5627
434.0,0.5227
435.0,0.5461
436.0,0.6159
437.0,0.6082
438.0,0.5542
439.0,0.5729
440.0,0.5915
441.0,0.6134
442.0,0.6582
443.0,0.641
444.0,0.6554
445.0,0.6413
446.0,0.6127
447.0,0.663
448.0,0.6731
449.0,0.6765
450.0,0.6959
451.0,0.7219
452.0,0.6959
453.0,0.6548
454.0,0.6841
455.0,0.6885
456.0,0.7051
457.0,0.717
458.0,0.6923
459.0,0.689
460.0,0.6908
461.0,0.7069
462.0,0.7128
463.0,0.7079
464.0,0.6969
465.0,0.6887
466.0,0.6958
467.0,0.683
468.0,0.6911
469.0,0.6949
470.0,0.6727
471.0,0.672
472.0,0.7081
473.0,0.699
474.0,0.6996
475.0,0.7052
476.0,0.6836
477.0,0.6852
478.0,0.7044
479.0,0.7005
480.0,0.7022
481.0,0.7158
482.0,0.7201
483.0,0.7121
484.0,0.6978
485.0,0.6652
486.0,0.5819
487.0,0.6102
488.0,0.6695
489.0,0.6714
490.0,0.7066
491.0,0.6947
492.0,0.6562
493.0,0.6777
494.0,0.6846
495.0,0.6906
496.0,0.6948
497.0,0.7056
498.0,0.6726
499.0,0.681
500.0,0.6609
501.0,0.6484
502.0,0.6386
503.0,0.6639
504.0,0.645
505.0,0.6698
506.0,0.6914
507.0,0.658
508.0,0.6382
509.0,0.6566
510.0,0.6535
511.0,0.6715
512.0,0.679
513.0,0.6428
514.0,0.6386
515.0,0.6322
516.0,0.6306
517.0,0.5605
518.0,0.5892
519.0,0.618
520.0,0.6404
521.0,0.6464
522.0,0.6468
523.0,0.635
524.0,0.6574
525.0,0.6646
526.0,0.6347
527.0,0.5977
528.0,0.6318
529.0,0.6656
530.0,0.6559
531.0,0.6654
532.0,0.6425
533.0,0.6237
534.0,0.6423
535.0,0.6566
536.0,0.6628
537.0,0.6369
538.0,0.6483
539.0,0.6428
540.0,0.6162
541.0,0.6197
542.0,0.6388
543.0,0.6325
544.0,0.643
545.0,0.6411
546.0,0.6434
547.0,0.6436
548.0,0.6361
549.0,0.6382
550.0,0.6458
551.0,0.6381
552.0,0.6425
553.0,0.631
554.0,0.646
555.0,0.6471
556.0,0.6386
557.0,0.6186
558.0,0.6136
559.0,0.6018
560.0,0.6091
561.0,0.6167
562.0,0.6119
563.0,0.6281
564.0,0.6106
565.0,0.6051
566.0,0.5959
567.0,0.6067
568.0,0.6002
569.0,0.5838
570.0,0.584
571.0,0.581
572.0,0.5935
573.0,0.5996
574.0,0.5974
575.0,0.5858
576.0,0.5805
577.0,0.587
578.0,0.5788
579.0,0.5821
580.0,0.5947
581.0,0.5989
582.0,0.6113
583.0,0.6136
584.0,0.6195
585.0,0.6047
586.0,0.5923
587.0,0.6047
588.0,0.5873
589.0,0.5152
590.0,0.5392
591.0,0.5736
592.0,0.5646
593.0,0.5753
594.0,0.5703
595.0,0.5544
596.0,0.5804
597.0,0.5731
598.0,0.5729
599.0,0.574
600.0,0.5759
601.0,0.572
602.0,0.5682
603.0,0.578
604.0,0.5878
605.0,0.585
606.0,0.5831
607.0,0.5894
608.0,0.5833
609.0,0.5847
610.0,0.581
611.0,0.5843
612.0,0.5829
613.0,0.5758
614.0,0.5683
615.0,0.5811
616.0,0.5622
617.0,0.5613
618.0,0.5832
619.0,0.5774
620.0,0.581
621.0,0.5812
622.0,0.5741
623.0,0.565
624.0,0.5557
625.0,0.5544
626.0,0.5625
627.0,0.5679
628.0,0.5186
629.0,0.5504
630.0,0.5373
631.0,0.5534
632.0,0.5475
633.0,0.5658
634.0,0.5616
635.0,0.571
636.0,0.5642
637.0,0.574
638.0,0.5805
639.0,0.5744
640.0,0.5694
641.0,0.5695
642.0,0.5674
643.0,0.5751
644.0,0.5737
645.0,0.5744
646.0,0.5596
647.0,0.5497
648.0,0.5501
649.0,0.5391
650.0,0.5459
651.0,0.5704
652.0,0.5423
653.0,0.563
654.0,0.5571
655.0,0.5342
656.0,0.475
657.0,0.488
658.0,0.5482
659.0,0.5527
660.0,0.5552
661.0,0.5593
662.0,0.5596
663.0,0.5489
664.0,0.5565
665.0,0.5579
666.0,0.5587
667.0,0.5587
668.0,0.5594
669.0,0.5683
670.0,0.5661
671.0,0.5662
672.0,0.5615
673.0,0.5702
674.0,0.5682
675.0,0.5632
676.0,0.5673
677.0,0.5618
678.0,0.5636
679.0,0.5546
680.0,0.5592
681.0,0.5555
682.0,0.5549
683.0,0.5538
684.0,0.5511
685.0,0.556
686.0,0.5525
687.0,0.3172
688.0,0.3942
689.0,0.3964
690.0,0.4236
691.0,0.4551
692.0,0.4791
693.0,0.4746
694.0,0.4712
695.0,0.497
696.0,0.4979
697.0,0.5358
698.0,0.5273
699.0,0.5097
700.0,0.5034
701.0,0.4964
702.0,0.5018
703.0,0.503
704.0,0.5222
705.0,0.5229
706.0,0.5236
707.0,0.5245
708.0,0.5255
709.0,0.5282
710.0,0.5272
711.0,0.5271
712.0,0.5265
713.0,0.5203
714.0,0.5225
715.0,0.504
716.0,0.5038
717.0,0.4188
718.0,0.3826
719.0,0.349
720.0,0.3638
721.0,0.4123
722.0,0.4831
723.0,0.444
724.0,0.3931
725.0,0.3844
726.0,0.4032
727.0,0.4135
728.0,0.3826
729.0,0.4033
730.0,0.4259
731.0,0.406
732.0,0.441
733.0,0.4731
734.0,0.4863
735.0,0.4752
736.0,0.4745
737.0,0.4763
738.0,0.4883
739.0,0.4787
740.0,0.4926
741.0,0.4886
742.0,0.4899
743.0,0.5026
744.0,0.5018
745.0,0.5023
746.0,0.5046
747.0,0.5058
748.0,0.5048
749.0,0.4991
750.0,0.4988
751.0,0.4938
752.0,0.496
753.0,0.4986
754.0,0.4997
755.0,0.4968
756.0,0.4967
757.0,0.4974
758.0,0.4911
759.0,0.4782
760.0,0.04223
761.0,0.01773
762.0,0.1938
763.0,0.075
764.0,0.1307
765.0,0.1936
766.0,0.2599
767.0,0.3524
768.0,0.4278
769.0,0.4417
770.0,0.4623
771.0,0.4686
772.0,0.4703
773.0,0.4738
774.0,0.4717
775.0,0.4682
776.0,0.474
777.0,0.4678
778.0,0.4649
779.0,0.4653
780.0,0.4628
781.0,0.4633
782.0,0.4662
783.0,0.4582
784.0,0.4605
785.0,0.4569
786.0,0.4617
787.0,0.4514
788.0,0.4447
789.0,0.4444
790.0,0.4294
791.0,0.4362
792.0,0.4335
793.0,0.4261
794.0,0.4366
795.0,0.4432
796.0,0.4252
797.0,0.4254
798.0,0.4421
799.0,0.4385
800.0,0.4298
801.0,0.4275
802.0,0.4263
803.0,0.4225
804.0,0.4235
805.0,0.4235
806.0,0.4375
807.0,0.4318
808.0,0.4324
809.0,0.4226
810.0,0.4181
811.0,0.4162
812.0,0.4015
813.0,0.3916
814.0,0.3357
815.0,0.3341
816.0,0.31
817.0,0.3164
818.0,0.3025
819.0,0.3458
820.0,0.3229
821.0,0.3883
822.0,0.3755
823.0,0.2386
824.0,0.3605
825.0,0.3814
826.0,0.3635
827.0,0.3872
828.0,0.318
829.0,0.362
830.0,0.3563
831.0,0.3577
832.0,0.3449
833.0,0.3719
834.0,0.3554
835.0,0.3979
836.0,0.3759
837.0,0.3993
838.0,0.3844
839.0,0.3938
840.0,0.403
841.0,0.3962
842.0,0.3987
843.0,0.4002
844.0,0.3937
845.0,0.4083
846.0,0.4068
847.0,0.3997
848.0,0.3965
849.0,0.3852
850.0,0.3692
851.0,0.39
852.0,0.3877
853.0,0.3738
854.0,0.3222
855.0,0.3548
856.0,0.3874
857.0,0.3965
858.0,0.3934
859.0,0.3941
860.0,0.395
861.0,0.3928
862.0,0.3991
863.0,0.4085
864.0,0.3881
865.0,0.3848
866.0,0.346
867.0,0.3611
868.0,0.393
869.0,0.3848
870.0,0.3958
871.0,0.3904
872.0,0.3891
873.0,0.3883
874.0,0.3837
875.0,0.3759
876.0,0.3798
877.0,0.3837
878.0,0.3877
879.0,0.3818
880.0,0.3736
881.0,0.3676
882.0,0.3754
883.0,0.377
884.0,0.3751
885.0,0.3779
886.0,0.3588
887.0,0.3637
888.0,0.3684
889.0,0.3738
890.0,0.3692
891.0,0.3693
892.0,0.3567
893.0,0.3435
894.0,0.3272
895.0,0.3039
896.0,0.2846
897.0,0.2381
898.0,0.2632
899.0,0.1929
900.0,0.2735
901.0,0.2022
902.0,0.2471
903.0,0.2461
904.0,0.3247
905.0,0.3115
906.0,0.2898
907.0,0.2254
908.0,0.2316
909.0,0.2551
910.0,0.2176
911.0,0.2376
912.0,0.2494
913.0,0.2205
914.0,0.2202
915.0,0.2384
916.0,0.2004
917.0,0.2623
918.0,0.2049
919.0,0.2697
920.0,0.2778
921.0,0.289
922.0,0.2525
923.0,0.2797
924.0,0.2575
925.0,0.2522
926.0,0.2542
927.0,0.2904
928.0,0.1964
929.0,0.1749
930.0,0.1306
931.0,0.1242
932.0,0.08247
933.0,0.06384
934.0,0.02855
935.0,0.06789
936.0,0.03814
937.0,0.03836
938.0,0.04873
939.0,0.1202
940.0,0.1498
941.0,0.1064
942.0,0.1269
943.0,0.07836
944.0,0.08754
945.0,0.1111
946.0,0.0498
947.0,0.1098
948.0,0.0799
949.0,0.1536
950.0,0.03324
951.0,0.1524
952.0,0.07326
953.0,0.1003
954.0,0.1295
955.0,0.1021
956.0,0.1046
957.0,0.07276
958.0,0.1561
959.0,0.1162
960.0,0.1303
961.0,0.1524
962.0,0.1437
963.0,0.171
964.0,0.1551
965.0,0.1705
966.0,0.1696
967.0,0.1682
968.0,0.246
969.0,0.2543
970.0,0.2314
971.0,0.2739
972.0,0.2601
973.0,0.2173
974.0,0.2053
975.0,0.2164
976.0,0.2004
977.0,0.2383
978.0,0.2221
979.0,0.2353
980.0,0.2198
981.0,0.2726
982.0,0.2572
983.0,0.2451
984.0,0.2849
985.0,0.2562
986.0,0.2924
987.0,0.2837
988.0,0.2834
989.0,0.2932
990.0,0.2816
991.0,0.2937
992.0,0.2957
993.0,0.2862
994.0,0.2959
995.0,0.296
996.0,0.2942
997.0,0.2949
998.0,0.2933
999.0,0.2924
1000.0,0.2896
1001.0,0.294
1002.0,0.2831
1003.0,0.2886
1004.0,0.2808
1005.0,0.2716
1006.0,0.2817
1007.0,0.2879
1008.0,0.2858
1009.0,0.2838
1010.0,0.2823
1011.0,0.2865
1012.0,0.2835
1013.0,0.286
1014.0,0.284
1015.0,0.282
1016.0,0.2807
1017.0,0.2813
1018.0,0.2806
1019.0,0.2735
1020.0,0.2789
1021.0,0.2787
1022.0,0.2762
1023.0,0.279
1024.0,0.2743
1025.0,0.2792
1026.0,0.2777
1027.0,0.2772
1028.0,0.2765
1029.0,0.2731
1030.0,0.2754
1031.0,0.2741
1032.0,0.2734
1033.0,0.2693
1034.0,0.2694
1035.0,0.2702
1036.0,0.2715
1037.0,0.2671
1038.0,0.2682
1039.0,0.268
1040.0,0.2669
1041.0,0.2679
1042.0,0.266
1043.0,0.2651
1044.0,0.266
1045.0,0.2623
1046.0,0.2593
1047.0,0.2616
1048.0,0.2629
1049.0,0.2619
1050.0,0.2606
1051.0,0.2601
1052.0,0.2589
1053.0,0.2568
1054.0,0.2572
1055.0,0.2572
1056.0,0.2561
1057.0,0.2551
1058.0,0.2487
1059.0,0.2488
1060.0,0.2483
1061.0,0.2479
1062.0,0.2491
1063.0,0.2465
1064.0,0.2494
1065.0,0.2472
1066.0,0.2427
1067.0,0.2457
1068.0,0.24
1069.0,0.2329
1070.0,0.2405
1071.0,0.2452
1072.0,0.2416
1073.0,0.2383
1074.0,0.2455
1075.0,0.2304
1076.0,0.2452
1077.0,0.2392
1078.0,0.2339
1079.0,0.2417
1080.0,0.2356
1081.0,0.2266
1082.0,0.2326
1083.0,0.234
1084.0,0.2254
1085.0,0.2363
1086.0,0.2117
1087.0,0.2212
1088.0,0.2333
1089.0,0.2234
1090.0,0.217
1091.0,0.2318
1092.0,0.2317
1093.0,0.189
1094.0,0.2111
1095.0,0.1976
1096.0,0.1871
1097.0,0.2264
1098.0,0.1831
1099.0,0.1921
1100.0,0.1756
1101.0,0.1788
1102.0,0.1688
1103.0,0.1657
1104.0,0.1661
1105.0,0.1871
1106.0,0.1312
1107.0,0.1754
1108.0,0.1416
1109.0,0.1432
1110.0,0.1726
1111.0,0.1077
1112.0,0.1426
1113.0,0.08154
1114.0,0.09174
1115.0,0.07548
1116.0,0.0552
1117.0,0.01555
1118.0,0.06147
1119.0,0.02633
1120.0,0.03263
1121.0,0.04561
1122.0,0.01584
1123.0,0.02968
1124.0,0.02499
1125.0,0.03363
1126.0,0.008553
1127.0,0.03825
1128.0,0.01927
1129.0,0.02085
1130.0,0.0128
1131.0,0.08216
1132.0,0.06257
1133.0,0.03447
1134.0,0.006478
1135.0,0.002581
1136.0,0.02701
1137.0,0.07872
1138.0,0.05454
1139.0,0.09241
1140.0,0.07296
1141.0,0.05195
1142.0,0.06183
1143.0,0.09256
1144.0,0.02739
1145.0,0.03329
1146.0,0.03584
1147.0,0.009469
1148.0,0.07963
1149.0,0.06044
1150.0,0.03031
1151.0,0.05409
1152.0,0.07035
1153.0,0.07154
1154.0,0.03224
1155.0,0.09623
1156.0,0.08441
1157.0,0.09893
1158.0,0.09773
1159.0,0.108
1160.0,0.08988
1161.0,0.1169
1162.0,0.1169
1163.0,0.169
1164.0,0.141
1165.0,0.129
1166.0,0.1313
1167.0,0.1449
1168.0,0.1456
1169.0,0.1502
1170.0,0.1666
1171.0,0.1622
1172.0,0.1673
1173.0,0.1663
1174.0,0.111
1175.0,0.1643
1176.0,0.185
1177.0,0.1746
1178.0,0.1253
1179.0,0.1866
1180.0,0.1618
1181.0,0.1672
1182.0,0.1089
1183.0,0.1656
1184.0,0.153
1185.0,0.1457
1186.0,0.1793
1187.0,0.1687
1188.0,0.1097
1189.0,0.1568
1190.0,0.1756
1191.0,0.1627
1192.0,0.1785
1193.0,0.1697
1194.0,0.1758
1195.0,0.1635
1196.0,0.1559
1197.0,0.1771
1198.0,0.1605
1199.0,0.1308
1200.0,0.1674
1201.0,0.1594
1202.0,0.1601
1203.0,0.1579
1204.0,0.1355
1205.0,0.1654
1206.0,0.1856
1207.0,0.1588
1208.0,0.1581
1209.0,0.1617
1210.0,0.1698
1211.0,0.1596
1212.0,0.1547
1213.0,0.1781
1214.0,0.1596
1215.0,0.1562
1216.0,0.1778
1217.0,0.172
1218.0,0.1762
1219.0,0.1734
1220.0,0.1765
1221.0,0.1789
1222.0,0.1738
1223.0,0.1717
1224.0,0.1696
1225.0,0.1776
1226.0,0.1796
1227.0,0.1628
1228.0,0.1812
1229.0,0.1797
1230.0,0.1761
1231.0,0.183
1232.0,0.1818
1233.0,0.173
1234.0,0.1834
1235.0,0.1818
1236.0,0.1835
1237.0,0.1798
1238.0,0.1829
1239.0,0.1805
1240.0,0.1813
1241.0,0.1798
1242.0,0.18
1243.0,0.1786
1244.0,0.1796
1245.0,0.1805
1246.0,0.1795
1247.0,0.1786
1248.0,0.1782
1249.0,0.179
1250.0,0.1777
1251.0,0.1751
1252.0,0.1756
1253.0,0.1733
1254.0,0.1709
1255.0,0.1752
1256.0,0.1686
1257.0,0.1673
1258.0,0.1718
1259.0,0.163
1260.0,0.1642
1261.0,0.1518
1262.0,0.1456
1263.0,0.1458
1264.0,0.1309
1265.0,0.1449
1266.0,0.1373
1267.0,0.1412
1268.0,0.1315
1269.0,0.06721
1270.0,0.1401
1271.0,0.1517
1272.0,0.1526
1273.0,0.1506
1274.0,0.1515
1275.0,0.1543
1276.0,0.1564
1277.0,0.1583
1278.0,0.1626
1279.0,0.161
1280.0,0.1591
1281.0,0.1524
1282.0,0.1478
1283.0,0.159
1284.0,0.1626
1285.0,0.1638
1286.0,0.1666
1287.0,0.163
1288.0,0.1632
1289.0,0.1561
1290.0,0.1619
1291.0,0.1646
1292.0,0.151
1293.0,0.1605
1294.0,0.1592
1295.0,0.1573
1296.0,0.148
1297.0,0.1383
1298.0,0.1524
1299.0,0.161
1300.0,0.1305
1301.0,0.1356
1302.0,0.152
1303.0,0.1294
1304.0,0.1051
1305.0,0.1486
1306.0,0.1481
1307.0,0.1093
1308.0,0.1305
1309.0,0.1462
1310.0,0.1068
1311.0,0.1239
1312.0,0.1197
1313.0,0.1163
1314.0,0.1022
1315.0,0.09965
1316.0,0.1209
1317.0,0.1139
1318.0,0.126
1319.0,0.09213
1320.0,0.0906
1321.0,0.1077
1322.0,0.1076
1323.0,0.07586
1324.0,0.09059
1325.0,0.1187
1326.0,0.09859
1327.0,0.09314
1328.0,0.07856
1329.0,0.05453
1330.0,0.07328
1331.0,0.03934
1332.0,0.04214
1333.0,0.05961
1334.0,0.05347
1335.0,0.07527
1336.0,0.05676
1337.0,0.0492
1338.0,0.05303
1339.0,0.0535
1340.0,0.05347
1341.0,0.04884
1342.0,0.05169
1343.0,0.02929
1344.0,0.01806
1345.0,0.02588
1346.0,0.009845
1347.0,0.009503
1348.0,0.0003458
1349.0,0.001439
1350.0,0.001659
1351.0,0.0002365
1352.0,3.29e-05
1353.0,9.667e-07
1354.0,5.048e-06
1355.0,1.176e-08
1356.0,4.618e-07
1357.0,7.044e-07
1358.0,1.461e-08
1359.0,7.647e-10
1360.0,4.81e-09
1361.0,1.347e-12
1362.0,2.895e-15
1363.0,4.466e-09
1364.0,1.957e-09
1365.0,8.493e-16
1366.0,2.429e-08
1367.0,1.295e-08
1368.0,6.118e-18
1369.0,7.185e-10
1370.0,2.514e-10
1371.0,1.046e-11
1372.0,7.309e-09
1373.0,2.67e-07
1374.0,1.934e-06
1375.0,3.195e-06
1376.0,4.677e-06
1377.0,1.968e-06
1378.0,2.158e-05
1379.0,8.363e-07
1380.0,8.717e-07
1381.0,1.892e-08
1382.0,5.843e-09
1383.0,6.913e-11
1384.0,6.878e-10
1385.0,8.973e-09
1386.0,3.914e-09
1387.0,1.401e-06
1388.0,3.297e-08
1389.0,8.328e-06
1390.0,6.86e-06
1391.0,4.353e-06
1392.0,2.657e-07
1393.0,1.757e-06
1394.0,4.057e-07
1395.0,2.049e-09
1396.0,2.108e-12
1397.0,5.893e-07
1398.0,2.25e-05
1399.0,1.478e-05
1400.0,7.005e-13
1401.0,4.202e-12
1402.0,8.459e-05
1403.0,9.167e-05
1404.0,2.6e-05
1405.0,7.11e-10
1406.0,5.26e-05
1407.0,6.204e-06
1408.0,4.529e-05
1409.0,1.033e-05
1410.0,1.157e-05
1411.0,8.322e-05
1412.0,0.0001353
1413.0,0.002247
1414.0,9.685e-06
1415.0,3.94e-06
1416.0,0.005296
1417.0,0.001174
1418.0,0.001181
1419.0,0.0001705
1420.0,0.0007134
1421.0,0.0008345
1422.0,0.006953
1423.0,0.001256
1424.0,0.002515
1425.0,0.003386
1426.0,0.004504
1427.0,0.009665
1428.0,0.0003051
1429.0,0.006427
1430.0,0.01312
1431.0,0.01497
1432.0,0.000235
1433.0,0.008811
1434.0,0.004143
