interpolation:linear
wavelength,value
280.0,7.438e-20
280.5,2.04e-18
281.0,2.162e-19
281.5,4.904e-19
282.0,2.275e-18
282.5,6.555e-18
283.0,2.205e-17
283.5,3.651e-17
284.0,5.769e-16
284.5,1.627e-15
285.0,3.589e-15
285.5,2.296e-14
286.0,9.943e-14
286.5,4.936e-13
287.0,1.495e-12
287.5,6.061e-12
288.0,1.81e-11
288.5,7.236e-11
289.0,2.451e-10
289.5,9.294e-10
290.0,3.068e-09
290.5,7.2e-09
291.0,1.813e-08
291.5,6.305e-08
292.0,1.64e-07
292.5,2.563e-07
293.0,6.299e-07
293.5,1.85e-06
294.0,3.342e-06
294.5,4.318e-06
295.0,8.312e-06
295.5,1.951e-05
296.0,3.664e-05
296.5,4.985e-05
297.0,6.592e-05
297.5,0.0001706
298.0,0.0002605
298.5,0.0002558
299.0,0.0005504
299.5,0.0008739
300.0,0.0009379
300.5,0.001324
301.0,0.002294
301.5,0.003515
302.0,0.002947
302.5,0.005526
303.0,0.009409
303.5,0.01145
304.0,0.01051
304.5,0.01474
305.0,0.02052
305.5,0.02228
306.0,0.02112
306.5,0.02543
307.0,0.03504
307.5,0.04345
308.0,0.04538
308.5,0.05181
309.0,0.04977
309.5,0.05431
310.0,0.05337
310.5,0.08548
311.0,0.1053
311.5,0.1008
312.0,0.09686
312.5,0.1147
313.0,0.1227
313.5,0.1207
314.0,0.1461
314.5,0.1241
315.0,0.1618
315.5,0.1381
316.0,0.1165
316.5,0.1623
317.0,0.2016
317.5,0.2116
318.0,0.1617
318.5,0.193
319.0,0.2245
319.5,0.1888
320.0,0.2292
320.5,0.2756
321.0,0.2367
321.5,0.2261
322.0,0.2504
322.5,0.2174
323.0,0.2111
323.5,0.2532
324.0,0.2942
324.5,0.3018
325.0,0.2642
325.5,0.3329
326.0,0.4044
326.5,0.3994
327.0,0.4
327.5,0.3887
328.0,0.3524
328.5,0.3623
329.0,0.4263
329.5,0.4814
330.0,0.4875
330.5,0.3953
331.0,0.4045
331.5,0.407
332.0,0.4334
332.5,0.4259
333.0,0.4262
333.5,0.3898
334.0,0.4
334.5,0.4559
335.0,0.4255
335.5,0.4968
336.0,0.3437
336.5,0.4038
337.0,0.3329
337.5,0.4147
338.0,0.4009
338.5,0.4626
339.0,0.4577
339.5,0.4402
340.0,0.5174
340.5,0.4658
341.0,0.4544
341.5,0.417
342.0,0.4983
342.5,0.466
343.0,0.5126
343.5,0.4827
344.0,0.3565
344.5,0.3602
345.0,0.4764
345.5,0.4862
346.0,0.4131
346.5,0.4676
347.0,0.5021
347.5,0.4059
348.0,0.4625
348.5,0.4622
349.0,0.4287
349.5,0.4244
350.0,0.5248
350.5,0.5534
351.0,0.4944
351.5,0.4807
352.0,0.5161
352.5,0.4026
353.0,0.5069
353.5,0.5419
354.0,0.5625
354.5,0.5705
355.0,0.5685
355.5,0.5135
356.0,0.5372
356.5,0.4586
357.0,0.379
357.5,0.4639
358.0,0.3676
358.5,0.3141
359.0,0.4394
359.5,0.56
360.0,0.5936
360.5,0.4744
361.0,0.4324
361.5,0.4977
362.0,0.4302
362.5,0.5953
363.0,0.5345
363.5,0.4923
364.0,0.6019
364.5,0.5145
365.0,0.5239
365.5,0.6575
366.0,0.6965
366.5,0.6543
367.0,0.6372
367.5,0.6612
368.0,0.5785
368.5,0.5837
369.0,0.6303
369.5,0.6718
370.0,0.7161
370.5,0.5557
371.0,0.5937
371.5,0.7428
372.0,0.493
372.5,0.5911
373.0,0.6012
373.5,0.3911
374.0,0.5683
374.5,0.4706
375.0,0.4574
375.5,0.6829
376.0,0.5661
376.5,0.5867
377.0,0.6211
377.5,0.7265
378.0,0.7876
378.5,0.7444
379.0,0.6144
379.5,0.5612
380.0,0.5835
380.5,0.7067
381.0,0.7081
381.5,0.5612
382.0,0.4983
382.5,0.4247
383.0,0.3932
383.5,0.3787
384.0,0.4177
384.5,0.6143
385.0,0.6092
385.5,0.5673
386.0,0.4858
386.5,0.6381
387.0,0.5302
387.5,0.5956
388.0,0.5498
388.5,0.5435
389.0,0.5867
389.5,0.7105
390.0,0.713
390.5,0.6562
391.0,0.7723
391.5,0.7878
392.0,0.6635
392.5,0.594
393.0,0.3305
393.5,0.2402
394.0,0.4888
394.5,0.6214
395.0,0.7582
395.5,0.7703
396.0,0.6678
396.5,0.3903
397.0,0.2929
397.5,0.5957
398.0,0.8342
398.5,0.8623
399.0,0.9335
399.5,0.9305
400.0,0.9663
401.0,0.9821
402.0,1.036
403.0,0.9839
404.0,0.9687
405.0,0.9684
406.0,0.9525
407.0,0.9369
408.0,0.9736
409.0,1.042
410.0,0.9103
411.0,0.9858
412.0,1.058
413.0,1.032
414.0,1.045
415.0,1.047
416.0,1.065
417.0,1.039
418.0,1.02
419.0,1.033
420.0,1.028
421.0,1.076
422.0,1.022
423.0,0.9985
424.0,1.056
425.0,1.054
426.0,1.026
427.0,1.007
428.0,0.9809
429.0,0.9288
430.0,0.8127
431.0,0.8056
432.0,1.04
433.0,1.045
434.0,0.9707
435.0,1.014
436.0,1.142
437.0,1.126
438.0,1.025
439.0,1.061
440.0,1.094
441.0,1.134
442.0,1.216
443.0,1.184
444.0,1.21
445.0,1.184
446.0,1.129
447.0,1.22
448.0,1.24
449.0,1.244
450.0,1.278
451.0,1.326
452.0,1.277
453.0,1.201
454.0,1.253
455.0,1.261
456.0,1.291
457.0,1.312
458.0,1.268
459.0,1.261
460.0,1.264
461.0,1.293
462.0,1.303
463.0,1.294
464.0,1.272
465.0,1.255
466.0,1.267
467.0,1.244
468.0,1.259
469.0,1.265
470.0,1.225
471.0,1.223
472.0,1.289
473.0,1.272
474.0,1.275
475.0,1.286
476.0,1.248
477.0,1.252
478.0,1.287
479.0,1.278
480.0,1.28
481.0,1.304
482.0,1.31
483.0,1.293
484.0,1.267
485.0,1.206
486.0,1.054
487.0,1.105
488.0,1.212
489.0,1.216
490.0,1.279
491.0,1.256
492.0,1.186
493.0,1.225
494.0,1.237
495.0,1.248
496.0,1.255
497.0,1.275
498.0,1.215
499.0,1.231
500.0,1.196
501.0,1.174
502.0,1.158
503.0,1.206
504.0,1.178
505.0,1.218
506.0,1.258
507.0,1.196
508.0,1.158
509.0,1.19
510.0,1.184
511.0,1.215
512.0,1.228
513.0,1.162
514.0,1.154
515.0,1.142
516.0,1.14
517.0,1.012
518.0,1.064
519.0,1.117
520.0,1.157
521.0,1.168
522.0,1.17
523.0,1.149
524.0,1.19
525.0,1.205
526.0,1.151
527.0,1.085
528.0,1.148
529.0,1.21
530.0,1.193
531.0,1.211
532.0,1.169
533.0,1.135
534.0,1.168
535.0,1.194
536.0,1.204
537.0,1.157
538.0,1.177
539.0,1.167
540.0,1.119
541.0,1.127
542.0,1.163
543.0,1.15
544.0,1.17
545.0,1.167
546.0,1.172
547.0,1.171
548.0,1.157
549.0,1.16
550.0,1.174
551.0,1.16
552.0,1.168
553.0,1.147
554.0,1.175
555.0,1.177
556.0,1.162
557.0,1.126
558.0,1.118
559.0,1.097
560.0,1.111
561.0,1.126
562.0,1.118
563.0,1.149
564.0,1.118
565.0,1.109
566.0,1.093
567.0,1.114
568.0,1.105
569.0,1.081
570.0,1.081
571.0,1.074
572.0,1.101
573.0,1.113
574.0,1.11
575.0,1.089
576.0,1.079
577.0,1.091
578.0,1.074
579.0,1.077
580.0,1.096
581.0,1.101
582.0,1.12
583.0,1.122
584.0,1.131
585.0,1.104
586.0,1.081
587.0,1.105
588.0,1.081
589.0,0.9633
590.0,1.007
591.0,1.062
592.0,1.051
593.0,1.064
594.0,1.057
595.0,1.033
596.0,1.07
597.0,1.059
598.0,1.055
599.0,1.055
600.0,1.056
601.0,1.046
602.0,1.039
603.0,1.056
604.0,1.073
605.0,1.067
606.0,1.063
607.0,1.073
608.0,1.06
609.0,1.062
610.0,1.054
611.0,1.059
612.0,1.056
613.0,1.042
614.0,1.027
615.0,1.049
616.0,1.015
617.0,1.012
618.0,1.051
619.0,1.04
620.0,1.047
621.0,1.048
622.0,1.036
623.0,1.021
624.0,1.003
625.0,1.001
626.0,1.016
627.0,1.028
628.0,0.9717
629.0,1.008
630.0,0.9849
631.0,1.003
632.0,0.9905
633.0,1.019
634.0,1.008
635.0,1.023
636.0,1.009
637.0,1.025
638.0,1.034
639.0,1.022
640.0,1.011
641.0,1.01
642.0,1.005
643.0,1.019
644.0,1.015
645.0,1.017
646.0,0.9944
647.0,0.9857
648.0,0.987
649.0,0.9681
650.0,0.9688
651.0,1.01
652.0,0.9723
653.0,0.9964
654.0,0.9849
655.0,0.9504
656.0,0.8408
657.0,0.8633
658.0,0.9662
659.0,0.9726
660.0,0.9764
661.0,0.9831
662.0,0.9859
663.0,0.9661
664.0,0.9764
665.0,0.9764
666.0,0.9767
667.0,0.9754
668.0,0.9754
669.0,0.9902
670.0,0.9857
671.0,0.9853
672.0,0.9767
673.0,0.9912
674.0,0.9874
675.0,0.9782
676.0,0.9848
677.0,0.9749
678.0,0.9775
679.0,0.9616
680.0,0.9692
681.0,0.9627
682.0,0.9615
683.0,0.9596
684.0,0.9548
685.0,0.9628
686.0,0.9573
687.0,0.6861
688.0,0.7796
689.0,0.7816
690.0,0.8117
691.0,0.8453
692.0,0.8689
693.0,0.8626
694.0,0.8555
695.0,0.8848
696.0,0.886
697.0,0.9325
698.0,0.9182
699.0,0.9012
700.0,0.8905
701.0,0.883
702.0,0.8872
703.0,0.8888
704.0,0.9142
705.0,0.9156
706.0,0.9136
707.0,0.9139
708.0,0.916
709.0,0.9154
710.0,0.9163
711.0,0.9144
712.0,0.9109
713.0,0.9024
714.0,0.9057
715.0,0.879
716.0,0.88
717.0,0.7818
718.0,0.7213
719.0,0.6627
720.0,0.6955
721.0,0.7562
722.0,0.8526
723.0,0.8003
724.0,0.7285
725.0,0.7194
726.0,0.7516
727.0,0.7581
728.0,0.7184
729.0,0.7386
730.0,0.7813
731.0,0.7497
732.0,0.7949
733.0,0.8346
734.0,0.8526
735.0,0.8359
736.0,0.8347
737.0,0.8383
738.0,0.8467
739.0,0.8302
740.0,0.8504
741.0,0.8411
742.0,0.8411
743.0,0.8623
744.0,0.8593
745.0,0.8591
746.0,0.863
747.0,0.8648
748.0,0.863
749.0,0.8531
750.0,0.8526
751.0,0.8439
752.0,0.8475
753.0,0.8517
754.0,0.8536
755.0,0.8488
756.0,0.8484
757.0,0.8496
758.0,0.8392
759.0,0.8247
760.0,0.1892
761.0,0.1112
762.0,0.4735
763.0,0.2681
764.0,0.3749
765.0,0.4738
766.0,0.5569
767.0,0.6785
768.0,0.7641
769.0,0.7759
770.0,0.7976
771.0,0.802
772.0,0.803
773.0,0.8085
774.0,0.8044
775.0,0.7982
776.0,0.8079
777.0,0.7972
778.0,0.7924
779.0,0.793
780.0,0.7885
781.0,0.7893
782.0,0.7942
783.0,0.7803
784.0,0.784
785.0,0.7784
786.0,0.7871
787.0,0.7753
788.0,0.7666
789.0,0.7666
790.0,0.749
791.0,0.7527
792.0,0.7468
793.0,0.7351
794.0,0.7446
795.0,0.758
796.0,0.7386
797.0,0.7396
798.0,0.7575
799.0,0.7534
800.0,0.7413
801.0,0.7398
802.0,0.7376
803.0,0.7325
804.0,0.733
805.0,0.7296
806.0,0.7483
807.0,0.7397
808.0,0.7401
809.0,0.7276
810.0,0.7227
811.0,0.7255
812.0,0.7074
813.0,0.6944
814.0,0.6201
815.0,0.616
816.0,0.5747
817.0,0.584
818.0,0.5643
819.0,0.6228
820.0,0.5897
821.0,0.6783
822.0,0.6607
823.0,0.4669
824.0,0.6453
825.0,0.667
826.0,0.645
827.0,0.6772
828.0,0.584
829.0,0.6404
830.0,0.6331
831.0,0.635
832.0,0.6173
833.0,0.6516
834.0,0.6319
835.0,0.6871
836.0,0.6621
837.0,0.6888
838.0,0.6693
839.0,0.6779
840.0,0.6923
841.0,0.6833
842.0,0.6835
843.0,0.6818
844.0,0.673
845.0,0.6948
846.0,0.6915
847.0,0.6783
848.0,0.6746
849.0,0.6555
850.0,0.6279
851.0,0.6654
852.0,0.6605
853.0,0.6353
854.0,0.5489
855.0,0.6025
856.0,0.6586
857.0,0.673
858.0,0.6682
859.0,0.6685
860.0,0.6695
861.0,0.6659
862.0,0.6763
863.0,0.6923
864.0,0.6576
865.0,0.6518
866.0,0.5861
867.0,0.6116
868.0,0.6655
869.0,0.6517
870.0,0.6703
871.0,0.6611
872.0,0.6588
873.0,0.6575
874.0,0.6496
875.0,0.6365
876.0,0.6431
877.0,0.6496
878.0,0.6567
879.0,0.6466
880.0,0.6328
881.0,0.6235
882.0,0.6371
883.0,0.6389
884.0,0.636
885.0,0.6408
886.0,0.6117
887.0,0.6175
888.0,0.627
889.0,0.6333
890.0,0.629
891.0,0.6274
892.0,0.6106
893.0,0.5931
894.0,0.5752
895.0,0.5474
896.0,0.5174
897.0,0.4497
898.0,0.4877
899.0,0.3774
900.0,0.4961
901.0,0.3953
902.0,0.4554
903.0,0.4626
904.0,0.5709
905.0,0.5529
906.0,0.5188
907.0,0.4293
908.0,0.4368
909.0,0.4694
910.0,0.4218
911.0,0.4455
912.0,0.4642
913.0,0.4283
914.0,0.4235
915.0,0.4585
916.0,0.3901
917.0,0.4877
918.0,0.4002
919.0,0.4949
920.0,0.4965
921.0,0.5156
922.0,0.4657
923.0,0.4978
924.0,0.4776
925.0,0.4674
926.0,0.4725
927.0,0.5244
928.0,0.3976
929.0,0.3665
930.0,0.2935
931.0,0.2771
932.0,0.2051
933.0,0.1697
934.0,0.09947
935.0,0.1712
936.0,0.1109
937.0,0.1129
938.0,0.1373
939.0,0.2685
940.0,0.3192
941.0,0.2461
942.0,0.2817
943.0,0.1893
944.0,0.1957
945.0,0.2528
946.0,0.1342
947.0,0.2554
948.0,0.1885
949.0,0.3364
950.0,0.1021
951.0,0.3303
952.0,0.1847
953.0,0.2338
954.0,0.2814
955.0,0.2359
956.0,0.2264
957.0,0.1857
958.0,0.3134
959.0,0.2546
960.0,0.2852
961.0,0.3158
962.0,0.2994
963.0,0.3414
964.0,0.314
965.0,0.3397
966.0,0.3407
967.0,0.3396
968.0,0.4423
969.0,0.463
970.0,0.427
971.0,0.4831
972.0,0.4632
973.0,0.409
974.0,0.389
975.0,0.4015
976.0,0.3843
977.0,0.4314
978.0,0.4123
979.0,0.43
980.0,0.4055
981.0,0.48
982.0,0.461
983.0,0.4438
984.0,0.4924
985.0,0.4592
986.0,0.4996
987.0,0.4914
988.0,0.4904
989.0,0.4973
990.0,0.4874
991.0,0.4989
992.0,0.5016
993.0,0.4919
994.0,0.5013
995.0,0.5005
996.0,0.4985
997.0,0.4991
998.0,0.4969
999.0,0.495
1000.0,0.4918
1001.0,0.4976
1002.0,0.4853
1003.0,0.4889
1004.0,0.4773
1005.0,0.4593
1006.0,0.4775
1007.0,0.4875
1008.0,0.4851
1009.0,0.4828
1010.0,0.4809
1011.0,0.485
1012.0,0.4811
1013.0,0.4837
1014.0,0.4803
1015.0,0.4772
1016.0,0.4751
1017.0,0.4763
1018.0,0.4744
1019.0,0.4648
1020.0,0.472
1021.0,0.4712
1022.0,0.4678
1023.0,0.4728
1024.0,0.4672
1025.0,0.4722
1026.0,0.4704
1027.0,0.4692
1028.0,0.4683
1029.0,0.4628
1030.0,0.4658
1031.0,0.464
1032.0,0.4626
1033.0,0.4556
1034.0,0.4556
1035.0,0.4571
1036.0,0.4595
1037.0,0.452
1038.0,0.454
1039.0,0.4538
1040.0,0.452
1041.0,0.4538
1042.0,0.4507
1043.0,0.4493
1044.0,0.4509
1045.0,0.4448
1046.0,0.4399
1047.0,0.4439
1048.0,0.4464
1049.0,0.4448
1050.0,0.4428
1051.0,0.4422
1052.0,0.4405
1053.0,0.4371
1054.0,0.4381
1055.0,0.4384
1056.0,0.4369
1057.0,0.4357
1058.0,0.425
1059.0,0.4256
1060.0,0.4249
1061.0,0.4245
1062.0,0.4268
1063.0,0.4227
1064.0,0.4276
1065.0,0.4247
1066.0,0.4162
1067.0,0.4216
1068.0,0.4126
1069.0,0.3997
1070.0,0.4134
1071.0,0.4194
1072.0,0.4149
1073.0,0.4088
1074.0,0.4189
1075.0,0.3994
1076.0,0.4186
1077.0,0.412
1078.0,0.4045
1079.0,0.4117
1080.0,0.4056
1081.0,0.3933
1082.0,0.3984
1083.0,0.3993
1084.0,0.3928
1085.0,0.4064
1086.0,0.3732
1087.0,0.3835
1088.0,0.3992
1089.0,0.3883
1090.0,0.3807
1091.0,0.3982
1092.0,0.3969
1093.0,0.3408
1094.0,0.3637
1095.0,0.3545
1096.0,0.3407
1097.0,0.3876
1098.0,0.3358
1099.0,0.3496
1100.0,0.327
1101.0,0.3305
1102.0,0.3168
1103.0,0.3146
1104.0,0.3149
1105.0,0.342
1106.0,0.269
1107.0,0.3263
1108.0,0.2811
1109.0,0.2807
1110.0,0.324
1111.0,0.2258
1112.0,0.2782
1113.0,0.1833
1114.0,0.2042
1115.0,0.1695
1116.0,0.1392
1117.0,0.05542
1118.0,0.15
1119.0,0.0778
1120.0,0.09806
1121.0,0.128
1122.0,0.05682
1123.0,0.08849
1124.0,0.07473
1125.0,0.09668
1126.0,0.0366
1127.0,0.1088
1128.0,0.06825
1129.0,0.07193
1130.0,0.0487
1131.0,0.1989
1132.0,0.1574
1133.0,0.1037
1134.0,0.02897
1135.0,0.01073
1136.0,0.08796
1137.0,0.1966
1138.0,0.1393
1139.0,0.2003
1140.0,0.1702
1141.0,0.1324
1142.0,0.1507
1143.0,0.2109
1144.0,0.07748
1145.0,0.09994
1146.0,0.1078
1147.0,0.04102
1148.0,0.1826
1149.0,0.1481
1150.0,0.0831
1151.0,0.1383
1152.0,0.1675
1153.0,0.1612
1154.0,0.09747
1155.0,0.2091
1156.0,0.1897
1157.0,0.2107
1158.0,0.2083
1159.0,0.2228
1160.0,0.1927
1161.0,0.2329
1162.0,0.2344
1163.0,0.3089
1164.0,0.2678
1165.0,0.2554
1166.0,0.2517
1167.0,0.2727
1168.0,0.2763
1169.0,0.2818
1170.0,0.304
1171.0,0.2968
1172.0,0.3008
1173.0,0.3033
1174.0,0.223
1175.0,0.2953
1176.0,0.3215
1177.0,0.3107
1178.0,0.2382
1179.0,0.3239
1180.0,0.2927
1181.0,0.3017
1182.0,0.2136
1183.0,0.2963
1184.0,0.2795
1185.0,0.2712
1186.0,0.3163
1187.0,0.3029
1188.0,0.2177
1189.0,0.2825
1190.0,0.309
1191.0,0.2963
1192.0,0.313
1193.0,0.301
1194.0,0.3095
1195.0,0.2948
1196.0,0.2852
1197.0,0.3086
1198.0,0.2839
1199.0,0.246
1200.0,0.2974
1201.0,0.2884
1202.0,0.2858
1203.0,0.2835
1204.0,0.2504
1205.0,0.291
1206.0,0.3189
1207.0,0.2855
1208.0,0.2796
1209.0,0.285
1210.0,0.2959
1211.0,0.2836
1212.0,0.2822
1213.0,0.3094
1214.0,0.2879
1215.0,0.2829
1216.0,0.3083
1217.0,0.3011
1218.0,0.3059
1219.0,0.3026
1220.0,0.3061
1221.0,0.3087
1222.0,0.3012
1223.0,0.2987
1224.0,0.2976
1225.0,0.3067
1226.0,0.3082
1227.0,0.2867
1228.0,0.3093
1229.0,0.3082
1230.0,0.3034
1231.0,0.3106
1232.0,0.3088
1233.0,0.3
1234.0,0.3099
1235.0,0.3082
1236.0,0.3102
1237.0,0.3067
1238.0,0.3092
1239.0,0.3052
1240.0,0.3063
1241.0,0.3053
1242.0,0.3042
1243.0,0.3017
1244.0,0.304
1245.0,0.3052
1246.0,0.3034
1247.0,0.3024
1248.0,0.3024
1249.0,0.3032
1250.0,0.3015
1251.0,0.2979
1252.0,0.2976
1253.0,0.2958
1254.0,0.2934
1255.0,0.2974
1256.0,0.2903
1257.0,0.2889
1258.0,0.2934
1259.0,0.2846
1260.0,0.2859
1261.0,0.2722
1262.0,0.2653
1263.0,0.2658
1264.0,0.2483
1265.0,0.2641
1266.0,0.2558
1267.0,0.2591
1268.0,0.2476
1269.0,0.1665
1270.0,0.2586
1271.0,0.271
1272.0,0.2716
1273.0,0.269
1274.0,0.2695
1275.0,0.2729
1276.0,0.2751
1277.0,0.2764
1278.0,0.2808
1279.0,0.2783
1280.0,0.2747
1281.0,0.2617
1282.0,0.2514
1283.0,0.271
1284.0,0.2776
1285.0,0.2793
1286.0,0.2827
1287.0,0.2791
1288.0,0.2788
1289.0,0.2714
1290.0,0.2762
1291.0,0.2798
1292.0,0.2656
1293.0,0.2751
1294.0,0.2733
1295.0,0.2726
1296.0,0.2621
1297.0,0.2493
1298.0,0.2655
1299.0,0.2751
1300.0,0.2377
1301.0,0.244
1302.0,0.2646
1303.0,0.2341
1304.0,0.2042
1305.0,0.2595
1306.0,0.2598
1307.0,0.207
1308.0,0.2337
1309.0,0.2582
1310.0,0.2033
1311.0,0.2251
1312.0,0.2197
1313.0,0.2162
1314.0,0.1951
1315.0,0.1936
1316.0,0.2223
1317.0,0.2111
1318.0,0.2276
1319.0,0.1832
1320.0,0.1764
1321.0,0.2036
1322.0,0.2064
1323.0,0.1597
1324.0,0.1797
1325.0,0.2194
1326.0,0.1911
1327.0,0.183
1328.0,0.1592
1329.0,0.1232
1330.0,0.1585
1331.0,0.1002
1332.0,0.1019
1333.0,0.1407
1334.0,0.1172
1335.0,0.1591
1336.0,0.1281
1337.0,0.1145
1338.0,0.1238
1339.0,0.1227
1340.0,0.1182
1341.0,0.118
1342.0,0.1238
1343.0,0.0893
1344.0,0.05327
1345.0,0.0763
1346.0,0.0416
1347.0,0.04293
1348.0,0.00353
1349.0,0.01182
1350.0,0.01169
1351.0,0.003509
1352.0,0.001181
1353.0,7.801e-05
1354.0,0.0002289
1355.0,3.094e-06
1356.0,3.893e-05
1357.0,5.882e-05
1358.0,3.589e-06
1359.0,6.613e-07
1360.0,1.881e-06
1361.0,4.773e-09
1362.0,1.888e-11
1363.0,2.806e-06
1364.0,1.207e-06
1365.0,1.023e-11
1366.0,1.107e-05
1367.0,4.311e-06
1368.0,1.881e-13
1369.0,4.632e-07
1370.0,2.679e-07
1371.0,1.874e-08
1372.0,2.378e-06
1373.0,3.679e-05
1374.0,0.0001431
1375.0,0.0002595
1376.0,0.0002042
1377.0,9.762e-05
1378.0,0.0008724
1379.0,4.146e-05
1380.0,6.62e-05
1381.0,1.954e-06
1382.0,2.243e-06
1383.0,3.961e-08
1384.0,5.57e-07
1385.0,1.782e-06
1386.0,2.227e-06
1387.0,0.0001635
1388.0,3.338e-06
1389.0,0.0004594
1390.0,0.0003949
1391.0,0.0002753
1392.0,1.928e-05
1393.0,9.247e-05
1394.0,6.298e-05
1395.0,5.812e-07
1396.0,6.176e-09
1397.0,3.964e-05
1398.0,0.0009953
1399.0,0.000631
1400.0,3.291e-09
1401.0,1.028e-08
1402.0,0.001393
1403.0,0.001826
1404.0,0.0005674
1405.0,3.248e-07
1406.0,0.001582
1407.0,0.000135
1408.0,0.00128
1409.0,0.0004899
1410.0,0.0003645
1411.0,0.001593
1412.0,0.002021
1413.0,0.0172
1414.0,0.0002835
1415.0,0.0001451
1416.0,0.02562
1417.0,0.008647
1418.0,0.009921
1419.0,0.001585
1420.0,0.006108
1421.0,0.006652
1422.0,0.03319
1423.0,0.006675
1424.0,0.0123
1425.0,0.0184
1426.0,0.02008
1427.0,0.03507
1428.0,0.003374
1429.0,0.02704
1430.0,0.04408
1431.0,0.04793
1432.0,0.002681
1433.0,0.03118
1434.0,0.01621
1435.0,0.0174
1436.0,0.03169
1437.0,0.02429
1438.0,0.01078
1439.0,0.04227
1440.0,0.03175
1441.0,0.02509
1442.0,0.02765
1443.0,0.03338
1444.0,0.04564
1445.0,0.03679
1446.0,0.01688
1447.0,0.02655
1448.0,0.08222
1449.0,0.07243
1450.0,0.01965
1451.0,0.008153
1452.0,0.0446
1453.0,0.05796
1454.0,0.09594
1455.0,0.04656
