interpolation:linear
wavelength,value
280.0,2.1799999999999997e-22
280.5,7.192000000000001e-21
281.0,3.8610000000000005e-20
281.5,3.886e-19
282.0,6.2e-19
282.5,1.536e-18
283.0,4.861e-18
283.5,7.918e-18
284.0,1.307e-16
284.5,3.819e-16
285.0,6.254e-16
285.5,3.123e-15
286.0,1.261e-14
286.5,5.685e-14
287.0,1.633e-13
287.5,6.308e-13
288.0,2.216e-12
288.5,6.625e-12
289.0,1.752e-11
289.5,5.266e-11
290.0,1.459e-10
290.5,2.971e-10
291.0,6.373e-10
291.5,1.829e-09
292.0,3.669e-09
292.5,5.151e-09
293.0,1.106e-08
293.5,2.696e-08
294.0,4.22e-08
294.5,5.774e-08
295.0,9.791e-08
295.5,1.621e-07
296.0,3.142e-07
296.5,4.418e-07
297.0,6.004e-07
297.5,1.624e-06
298.0,2.579e-06
298.5,2.611e-06
299.0,5.796e-06
299.5,9.756e-06
300.0,1.081e-05
300.5,1.579e-05
301.0,2.899e-05
301.5,4.677e-05
302.0,4.023e-05
302.5,8.095e-05
303.0,0.0001518
303.5,0.0001979
304.0,0.0001929
304.5,0.0003176
305.0,0.0005554
305.5,0.0006979
306.0,0.0007004
306.5,0.0009272
307.0,0.001579
307.5,0.002405
308.0,0.002597
308.5,0.003284
309.0,0.003345
309.5,0.004295
310.0,0.004549
310.5,0.007562
311.0,0.009906
311.5,0.009741
312.0,0.01068
312.5,0.0138
313.0,0.01545
313.5,0.01457
314.0,0.01958
314.5,0.0191
315.0,0.02553
315.5,0.0204
316.0,0.01924
316.5,0.02952
317.0,0.0366
317.5,0.03738
318.0,0.03051
318.5,0.04128
319.0,0.05115
319.5,0.0389
320.0,0.04651
320.5,0.06354
321.0,0.0612
321.5,0.05914
322.0,0.05796
322.5,0.05064
323.0,0.05328
323.5,0.06905
324.0,0.08134
324.5,0.08074
325.0,0.06771
325.5,0.09104
326.0,0.113
326.5,0.1165
327.0,0.1149
327.5,0.1095
328.0,0.09386
328.5,0.1034
329.0,0.1285
329.5,0.1475
330.0,0.1475
330.5,0.1148
331.0,0.1158
331.5,0.1203
332.0,0.1341
332.5,0.1345
333.0,0.1331
333.5,0.1178
334.0,0.1202
334.5,0.1424
335.0,0.1359
335.5,0.1594
336.0,0.1103
336.5,0.1278
337.0,0.1038
337.5,0.1286
338.0,0.1283
338.5,0.1491
339.0,0.1478
339.5,0.1422
340.0,0.1662
340.5,0.1502
341.0,0.1471
341.5,0.1355
342.0,0.1621
342.5,0.1519
343.0,0.1668
343.5,0.157
344.0,0.1156
344.5,0.1171
345.0,0.1555
345.5,0.1591
346.0,0.1354
346.5,0.1535
347.0,0.1646
347.5,0.1331
348.0,0.1521
348.5,0.1523
349.0,0.1414
349.5,0.1401
350.0,0.1734
350.5,0.183
351.0,0.1634
351.5,0.1586
352.0,0.1707
352.5,0.1334
353.0,0.1683
353.5,0.1802
354.0,0.1872
354.5,0.1899
355.0,0.1893
355.5,0.1712
356.0,0.1793
356.5,0.1532
357.0,0.1266
357.5,0.1551
358.0,0.123
358.5,0.1051
359.0,0.1471
359.5,0.1874
360.0,0.1988
360.5,0.159
361.0,0.1451
361.5,0.1673
362.0,0.1449
362.5,0.2008
363.0,0.1805
363.5,0.1664
364.0,0.2037
364.5,0.1743
365.0,0.1776
365.5,0.2231
366.0,0.2366
366.5,0.2225
367.0,0.2168
367.5,0.2252
368.0,0.1972
368.5,0.1991
369.0,0.2152
369.5,0.2296
370.0,0.2449
370.5,0.1903
371.0,0.2035
371.5,0.2547
372.0,0.1691
372.5,0.203
373.0,0.2066
373.5,0.1346
374.0,0.1957
374.5,0.1622
375.0,0.1578
375.5,0.2357
376.0,0.1955
376.5,0.2027
377.0,0.2148
377.5,0.2515
378.0,0.2727
378.5,0.2579
379.0,0.2129
379.5,0.1945
380.0,0.2024
380.5,0.2454
381.0,0.2461
381.5,0.1953
382.0,0.1737
382.5,0.1482
383.0,0.1373
383.5,0.1324
384.0,0.1462
384.5,0.2152
385.0,0.2135
385.5,0.199
386.0,0.1706
386.5,0.2243
387.0,0.1865
387.5,0.2096
388.0,0.1937
388.5,0.1916
389.0,0.207
389.5,0.2509
390.0,0.252
390.5,0.2321
391.0,0.2734
391.5,0.2791
392.0,0.2352
392.5,0.2108
393.0,0.1174
393.5,0.0854
394.0,0.1739
394.5,0.2213
395.0,0.2702
395.5,0.2746
396.0,0.2382
396.5,0.1394
397.0,0.1047
397.5,0.2131
398.0,0.2985
398.5,0.3088
399.0,0.3348
399.5,0.3339
400.0,0.3468
401.0,0.3495
402.0,0.3694
403.0,0.3515
404.0,0.3466
405.0,0.3469
406.0,0.3419
407.0,0.3369
408.0,0.3503
409.0,0.3754
410.0,0.3285
411.0,0.3564
412.0,0.3835
413.0,0.3742
414.0,0.3794
415.0,0.381
416.0,0.3883
417.0,0.3791
418.0,0.3725
419.0,0.3779
420.0,0.3766
421.0,0.3945
422.0,0.3754
423.0,0.3671
424.0,0.3885
425.0,0.3883
426.0,0.379
427.0,0.3723
428.0,0.3629
429.0,0.3445
430.0,0.3018
431.0,0.2992
432.0,0.387
433.0,0.3895
434.0,0.3619
435.0,0.3782
436.0,0.4268
437.0,0.4218
438.0,0.3846
439.0,0.3974
440.0,0.4105
441.0,0.426
442.0,0.4572
443.0,0.4452
444.0,0.4555
445.0,0.4458
446.0,0.4263
447.0,0.4617
448.0,0.4686
449.0,0.4715
450.0,0.4852
451.0,0.5036
452.0,0.4856
453.0,0.4572
454.0,0.478
455.0,0.4811
456.0,0.4928
457.0,0.5012
458.0,0.4838
459.0,0.4816
460.0,0.4827
461.0,0.4941
462.0,0.4985
463.0,0.4952
464.0,0.488
465.0,0.4827
466.0,0.4881
467.0,0.479
468.0,0.4848
469.0,0.4874
470.0,0.4718
471.0,0.4715
472.0,0.4968
473.0,0.4904
474.0,0.4907
475.0,0.4943
476.0,0.4787
477.0,0.4794
478.0,0.493
479.0,0.4905
480.0,0.4919
481.0,0.5019
482.0,0.5053
483.0,0.5002
484.0,0.4905
485.0,0.4679
486.0,0.4097
487.0,0.4299
488.0,0.4717
489.0,0.473
490.0,0.4981
491.0,0.4899
492.0,0.4627
493.0,0.478
494.0,0.483
495.0,0.4872
496.0,0.4902
497.0,0.4978
498.0,0.4744
499.0,0.4801
500.0,0.4657
501.0,0.4566
502.0,0.4491
503.0,0.4663
504.0,0.4513
505.0,0.47
506.0,0.4851
507.0,0.4618
508.0,0.4484
509.0,0.4618
510.0,0.46
511.0,0.473
512.0,0.4785
513.0,0.453
514.0,0.4502
515.0,0.4457
516.0,0.4445
517.0,0.3952
518.0,0.4154
519.0,0.4356
520.0,0.4514
521.0,0.4556
522.0,0.4557
523.0,0.4472
524.0,0.4627
525.0,0.4673
526.0,0.4461
527.0,0.4197
528.0,0.4434
529.0,0.4669
530.0,0.4599
531.0,0.4664
532.0,0.4502
533.0,0.437
534.0,0.4502
535.0,0.4605
536.0,0.465
537.0,0.447
538.0,0.4551
539.0,0.4513
540.0,0.4325
541.0,0.4344
542.0,0.4475
543.0,0.4435
544.0,0.4504
545.0,0.4492
546.0,0.4504
547.0,0.4509
548.0,0.4458
549.0,0.4475
550.0,0.4528
551.0,0.4475
552.0,0.4506
553.0,0.4424
554.0,0.4529
555.0,0.4536
556.0,0.4475
557.0,0.4333
558.0,0.4295
559.0,0.421
560.0,0.4259
561.0,0.4309
562.0,0.4272
563.0,0.4382
564.0,0.4257
565.0,0.4215
566.0,0.4149
567.0,0.4221
568.0,0.4166
569.0,0.4036
570.0,0.4039
571.0,0.4022
572.0,0.4098
573.0,0.4137
574.0,0.4119
575.0,0.4035
576.0,0.3999
577.0,0.4046
578.0,0.3994
579.0,0.4025
580.0,0.4125
581.0,0.4164
582.0,0.4258
583.0,0.4282
584.0,0.4328
585.0,0.4227
586.0,0.4141
587.0,0.4222
588.0,0.408
589.0,0.3538
590.0,0.3706
591.0,0.3968
592.0,0.3891
593.0,0.3984
594.0,0.3942
595.0,0.3815
596.0,0.4029
597.0,0.3969
598.0,0.3978
599.0,0.3989
600.0,0.4011
601.0,0.3991
602.0,0.3966
603.0,0.4037
604.0,0.4108
605.0,0.409
606.0,0.408
607.0,0.4128
608.0,0.409
609.0,0.4103
610.0,0.4081
611.0,0.4106
612.0,0.4099
613.0,0.4051
614.0,0.4002
615.0,0.4095
616.0,0.3965
617.0,0.396
618.0,0.4116
619.0,0.4077
620.0,0.4103
621.0,0.4102
622.0,0.4049
623.0,0.3983
624.0,0.3919
625.0,0.391
626.0,0.3966
627.0,0.3996
628.0,0.3553
629.0,0.3839
630.0,0.3744
631.0,0.389
632.0,0.3855
633.0,0.3997
634.0,0.3979
635.0,0.4051
636.0,0.4009
637.0,0.4084
638.0,0.4137
639.0,0.4098
640.0,0.4067
641.0,0.4071
642.0,0.406
643.0,0.4116
644.0,0.4111
645.0,0.4113
646.0,0.3995
647.0,0.3898
648.0,0.3904
649.0,0.3821
650.0,0.3904
651.0,0.4085
652.0,0.3851
653.0,0.4035
654.0,0.3995
655.0,0.3814
656.0,0.3403
657.0,0.3498
658.0,0.3941
659.0,0.3978
660.0,0.3999
661.0,0.403
662.0,0.4026
663.0,0.3951
664.0,0.4016
665.0,0.4033
666.0,0.4042
667.0,0.4045
668.0,0.4055
669.0,0.4122
670.0,0.4108
671.0,0.411
672.0,0.4078
673.0,0.4143
674.0,0.413
675.0,0.4096
676.0,0.4127
677.0,0.4088
678.0,0.4102
679.0,0.4039
680.0,0.4072
681.0,0.4047
682.0,0.4042
683.0,0.4035
684.0,0.4014
685.0,0.4052
686.0,0.4025
687.0,0.1943
688.0,0.2587
689.0,0.2608
690.0,0.285
691.0,0.3138
692.0,0.3367
693.0,0.3333
694.0,0.3322
695.0,0.3554
696.0,0.3565
697.0,0.3892
698.0,0.3829
699.0,0.3663
700.0,0.3615
701.0,0.3548
702.0,0.3602
703.0,0.3616
704.0,0.3777
705.0,0.3782
706.0,0.3796
707.0,0.3806
708.0,0.3812
709.0,0.3849
710.0,0.3832
711.0,0.3838
712.0,0.3842
713.0,0.3789
714.0,0.3807
715.0,0.3656
716.0,0.3651
717.0,0.2896
718.0,0.2638
719.0,0.2396
720.0,0.2482
721.0,0.2891
722.0,0.3474
723.0,0.3152
724.0,0.2739
725.0,0.2663
726.0,0.2796
727.0,0.2904
728.0,0.2644
729.0,0.2836
730.0,0.298
731.0,0.2834
732.0,0.3131
733.0,0.3405
734.0,0.3515
735.0,0.3427
736.0,0.3418
737.0,0.3433
738.0,0.3558
739.0,0.349
740.0,0.3603
741.0,0.358
742.0,0.3597
743.0,0.3692
744.0,0.3691
745.0,0.3699
746.0,0.3715
747.0,0.3725
748.0,0.3718
749.0,0.3677
750.0,0.3675
751.0,0.3638
752.0,0.3655
753.0,0.3675
754.0,0.3683
755.0,0.3662
756.0,0.3661
757.0,0.3666
758.0,0.3619
759.0,0.3498
760.0,0.01526
761.0,0.005284
762.0,0.1077
763.0,0.03147
764.0,0.06433
765.0,0.1075
766.0,0.1599
767.0,0.236
768.0,0.3042
769.0,0.3183
770.0,0.3381
771.0,0.3448
772.0,0.3468
773.0,0.3496
774.0,0.3482
775.0,0.3457
776.0,0.3501
777.0,0.3455
778.0,0.3433
779.0,0.3436
780.0,0.3418
781.0,0.3422
782.0,0.3444
783.0,0.3386
784.0,0.3403
785.0,0.3375
786.0,0.3409
787.0,0.3313
788.0,0.3256
789.0,0.3253
790.0,0.3119
791.0,0.3194
792.0,0.3178
793.0,0.3121
794.0,0.3223
795.0,0.3264
796.0,0.3097
797.0,0.3095
798.0,0.3253
799.0,0.322
800.0,0.3148
801.0,0.3121
802.0,0.3112
803.0,0.3079
804.0,0.3091
805.0,0.3102
806.0,0.3223
807.0,0.3177
808.0,0.3182
809.0,0.3096
810.0,0.3055
811.0,0.3025
812.0,0.2891
813.0,0.2812
814.0,0.235
815.0,0.2345
816.0,0.2166
817.0,0.2213
818.0,0.2102
819.0,0.2455
820.0,0.2275
821.0,0.2819
822.0,0.2713
823.0,0.1609
824.0,0.2572
825.0,0.2771
826.0,0.2613
827.0,0.2811
828.0,0.2231
829.0,0.2608
830.0,0.2562
831.0,0.2571
832.0,0.2465
833.0,0.2692
834.0,0.255
835.0,0.2914
836.0,0.2712
837.0,0.2924
838.0,0.2794
839.0,0.2886
840.0,0.2959
841.0,0.29
842.0,0.2932
843.0,0.2958
844.0,0.2903
845.0,0.302
846.0,0.3011
847.0,0.2963
848.0,0.2933
849.0,0.2849
850.0,0.2731
851.0,0.2879
852.0,0.2865
853.0,0.2768
854.0,0.2381
855.0,0.2628
856.0,0.2867
857.0,0.2939
858.0,0.2914
859.0,0.2922
860.0,0.2931
861.0,0.2914
862.0,0.2961
863.0,0.3031
864.0,0.288
865.0,0.2856
866.0,0.2568
867.0,0.2681
868.0,0.2918
869.0,0.2858
870.0,0.2939
871.0,0.2899
872.0,0.289
873.0,0.2884
874.0,0.285
875.0,0.2792
876.0,0.282
877.0,0.2849
878.0,0.2878
879.0,0.2834
880.0,0.2774
881.0,0.2726
882.0,0.2783
883.0,0.2798
884.0,0.2783
885.0,0.2803
886.0,0.265
887.0,0.2695
888.0,0.2726
889.0,0.2775
890.0,0.2729
891.0,0.2735
892.0,0.2626
893.0,0.2517
894.0,0.2365
895.0,0.2158
896.0,0.2014
897.0,0.1644
898.0,0.1835
899.0,0.1301
900.0,0.1935
901.0,0.1363
902.0,0.1726
903.0,0.1697
904.0,0.2346
905.0,0.2239
906.0,0.2071
907.0,0.1541
908.0,0.16
909.0,0.1787
910.0,0.1476
911.0,0.1654
912.0,0.1733
913.0,0.1493
914.0,0.1502
915.0,0.1618
916.0,0.1357
917.0,0.1822
918.0,0.1382
919.0,0.1892
920.0,0.1992
921.0,0.2065
922.0,0.177
923.0,0.2004
924.0,0.1792
925.0,0.1758
926.0,0.1764
927.0,0.205
928.0,0.1287
929.0,0.112
930.0,0.07933
931.0,0.07521
932.0,0.04593
933.0,0.03399
934.0,0.01236
935.0,0.03735
936.0,0.01896
937.0,0.01907
938.0,0.02494
939.0,0.07264
940.0,0.0938
941.0,0.06285
942.0,0.07675
943.0,0.04462
944.0,0.05298
945.0,0.06657
946.0,0.02629
947.0,0.06474
948.0,0.04686
949.0,0.09456
950.0,0.01629
951.0,0.09403
952.0,0.04105
953.0,0.05926
954.0,0.07993
955.0,0.06074
956.0,0.0667
957.0,0.04064
958.0,0.1025
959.0,0.07199
960.0,0.08072
961.0,0.09815
962.0,0.09252
963.0,0.1134
964.0,0.102
965.0,0.1127
966.0,0.1119
967.0,0.1104
968.0,0.1753
969.0,0.1789
970.0,0.1619
971.0,0.1975
972.0,0.1862
973.0,0.1499
974.0,0.1414
975.0,0.1506
976.0,0.1361
977.0,0.1694
978.0,0.1548
979.0,0.1655
980.0,0.154
981.0,0.1966
982.0,0.1835
983.0,0.1737
984.0,0.2084
985.0,0.1825
986.0,0.2157
987.0,0.2074
988.0,0.2074
989.0,0.2174
990.0,0.206
991.0,0.2176
992.0,0.2193
993.0,0.2104
994.0,0.2197
995.0,0.2201
996.0,0.2184
997.0,0.2191
998.0,0.2178
999.0,0.2172
1000.0,0.2146
1001.0,0.2185
1002.0,0.2083
1003.0,0.2144
1004.0,0.208
1005.0,0.2019
1006.0,0.209
1007.0,0.2138
1008.0,0.212
1009.0,0.21
1010.0,0.2087
1011.0,0.2129
1012.0,0.2102
1013.0,0.2126
1014.0,0.2111
1015.0,0.2096
1016.0,0.2085
1017.0,0.2089
1018.0,0.2086
1019.0,0.2026
1020.0,0.2073
1021.0,0.2073
1022.0,0.2051
1023.0,0.2072
1024.0,0.2029
1025.0,0.2076
1026.0,0.2063
1027.0,0.2059
1028.0,0.2053
1029.0,0.2027
1030.0,0.2047
1031.0,0.2036
1032.0,0.2032
1033.0,0.2001
1034.0,0.2002
1035.0,0.2008
1036.0,0.2017
1037.0,0.1985
1038.0,0.1993
1039.0,0.1991
1040.0,0.1982
1041.0,0.1989
1042.0,0.1975
1043.0,0.1968
1044.0,0.1973
1045.0,0.1946
1046.0,0.1923
1047.0,0.1939
1048.0,0.1949
1049.0,0.194
1050.0,0.193
1051.0,0.1926
1052.0,0.1916
1053.0,0.1899
1054.0,0.1901
1055.0,0.1899
1056.0,0.189
1057.0,0.1882
1058.0,0.1833
1059.0,0.1833
1060.0,0.1829
1061.0,0.1825
1062.0,0.1832
1063.0,0.1812
1064.0,0.1834
1065.0,0.1815
1066.0,0.1784
1067.0,0.1805
1068.0,0.1761
1069.0,0.1711
1070.0,0.1765
1071.0,0.1806
1072.0,0.1775
1073.0,0.1751
1074.0,0.1813
1075.0,0.1682
1076.0,0.1809
1077.0,0.1754
1078.0,0.171
1079.0,0.1787
1080.0,0.1728
1081.0,0.1651
1082.0,0.1713
1083.0,0.1728
1084.0,0.164
1085.0,0.1735
1086.0,0.153
1087.0,0.1614
1088.0,0.1719
1089.0,0.1626
1090.0,0.1572
1091.0,0.1704
1092.0,0.1706
1093.0,0.1345
1094.0,0.1548
1095.0,0.1406
1096.0,0.1319
1097.0,0.1667
1098.0,0.1283
1099.0,0.1353
1100.0,0.122
1101.0,0.1249
1102.0,0.1165
1103.0,0.1135
1104.0,0.1139
1105.0,0.1313
1106.0,0.08508
1107.0,0.1219
1108.0,0.0942
1109.0,0.09583
1110.0,0.1188
1111.0,0.06853
1112.0,0.09567
1113.0,0.04963
1114.0,0.05589
1115.0,0.04543
1116.0,0.03068
1117.0,0.006823
1118.0,0.03461
1119.0,0.01291
1120.0,0.0156
1121.0,0.0228
1122.0,0.006514
1123.0,0.01427
1124.0,0.01198
1125.0,0.01669
1126.0,0.003063
1127.0,0.0191
1128.0,0.008112
1129.0,0.008892
1130.0,0.005335
1131.0,0.0463
1132.0,0.03424
1133.0,0.01642
1134.0,0.002298
1135.0,0.0009865
1136.0,0.01204
1137.0,0.04335
1138.0,0.0295
1139.0,0.05662
1140.0,0.04239
1141.0,0.0282
1142.0,0.03462
1143.0,0.05485
1144.0,0.0139
1145.0,0.0158
1146.0,0.01699
1147.0,0.003361
1148.0,0.04661
1149.0,0.03379
1150.0,0.01611
1151.0,0.02928
1152.0,0.04015
1153.0,0.04251
1154.0,0.01571
1155.0,0.05891
1156.0,0.05038
1157.0,0.06223
1158.0,0.06133
1159.0,0.06889
1160.0,0.05675
1161.0,0.07742
1162.0,0.07698
1163.0,0.1183
1164.0,0.09641
1165.0,0.08583
1166.0,0.08954
1167.0,0.09993
1168.0,0.09991
1169.0,0.1036
1170.0,0.1171
1171.0,0.1141
1172.0,0.1192
1173.0,0.117
1174.0,0.07364
1175.0,0.1171
1176.0,0.1349
1177.0,0.1252
1178.0,0.08643
1179.0,0.136
1180.0,0.1147
1181.0,0.1186
1182.0,0.07316
1183.0,0.1181
1184.0,0.1077
1185.0,0.1012
1186.0,0.1292
1187.0,0.1201
1188.0,0.07275
1189.0,0.1115
1190.0,0.127
1191.0,0.1145
1192.0,0.1293
1193.0,0.1219
1194.0,0.127
1195.0,0.116
1196.0,0.1095
1197.0,0.1287
1198.0,0.1159
1199.0,0.09036
1200.0,0.1203
1201.0,0.1129
1202.0,0.1149
1203.0,0.1123
1204.0,0.09483
1205.0,0.1198
1206.0,0.1364
1207.0,0.1134
1208.0,0.1141
1209.0,0.1169
1210.0,0.1237
1211.0,0.1149
1212.0,0.1088
1213.0,0.1296
1214.0,0.1131
1215.0,0.1105
1216.0,0.1298
1217.0,0.1248
1218.0,0.1285
1219.0,0.126
1220.0,0.1289
1221.0,0.1311
1222.0,0.1271
1223.0,0.1251
1224.0,0.1226
1225.0,0.13
1226.0,0.1322
1227.0,0.1175
1228.0,0.1338
1229.0,0.1322
1230.0,0.1291
1231.0,0.1357
1232.0,0.1348
1233.0,0.1263
1234.0,0.1364
1235.0,0.135
1236.0,0.1364
1237.0,0.133
1238.0,0.136
1239.0,0.1342
1240.0,0.1349
1241.0,0.1333
1242.0,0.1339
1243.0,0.1329
1244.0,0.1335
1245.0,0.1342
1246.0,0.1335
1247.0,0.1327
1248.0,0.1321
1249.0,0.133
1250.0,0.1319
1251.0,0.1295
1252.0,0.1303
1253.0,0.1279
1254.0,0.1255
1255.0,0.1298
1256.0,0.1236
1257.0,0.1223
1258.0,0.1267
1259.0,0.1181
1260.0,0.1192
1261.0,0.1076
1262.0,0.1019
1263.0,0.1019
1264.0,0.08856
1265.0,0.1014
1266.0,0.09424
1267.0,0.0982
1268.0,0.0895
1269.0,0.03653
1270.0,0.09693
1271.0,0.1079
1272.0,0.1088
1273.0,0.107
1274.0,0.1081
1275.0,0.1106
1276.0,0.1127
1277.0,0.1147
1278.0,0.1188
1279.0,0.1176
1280.0,0.1163
1281.0,0.1119
1282.0,0.1093
1283.0,0.1174
1284.0,0.12
1285.0,0.121
1286.0,0.1235
1287.0,0.12
1288.0,0.1205
1289.0,0.1136
1290.0,0.1196
1291.0,0.1218
1292.0,0.1089
1293.0,0.1182
1294.0,0.1171
1295.0,0.1147
1296.0,0.1062
1297.0,0.09812
1298.0,0.1108
1299.0,0.1188
1300.0,0.09222
1301.0,0.09645
1302.0,0.1106
1303.0,0.0918
1304.0,0.07092
1305.0,0.1079
1306.0,0.107
1307.0,0.07518
1308.0,0.09326
1309.0,0.1049
1310.0,0.07304
1311.0,0.08764
1312.0,0.08429
1313.0,0.08077
1314.0,0.0696
1315.0,0.0671
1316.0,0.0848
1317.0,0.07924
1318.0,0.08935
1319.0,0.06108
1320.0,0.06083
1321.0,0.07401
1322.0,0.07306
1323.0,0.04808
1324.0,0.06029
1325.0,0.08257
1326.0,0.06656
1327.0,0.06221
1328.0,0.0512
1329.0,0.03266
1330.0,0.04563
1331.0,0.02169
1332.0,0.02398
1333.0,0.03446
1334.0,0.03321
1335.0,0.04725
1336.0,0.03385
1337.0,0.02913
1338.0,0.03109
1339.0,0.03172
1340.0,0.03262
1341.0,0.02763
1342.0,0.0296
1343.0,0.01402
1344.0,0.008982
1345.0,0.01245
1346.0,0.003591
1347.0,0.003253
1348.0,7.136e-05
1349.0,0.0003251
1350.0,0.0003976
1351.0,3.586e-05
1352.0,2.895e-06
1353.0,8.442e-08
1354.0,4.655e-07
1355.0,1.531e-09
1356.0,4.091e-08
1357.0,6.162e-08
1358.0,1.823e-09
1359.0,2.054e-10
1360.0,7.763e-10
1361.0,8.2e-13
1362.0,2.242e-15
1363.0,1.002e-09
1364.0,4.172e-10
1365.0,7.826e-16
1366.0,4.402e-09
1367.0,1.875e-09
1368.0,6.043e-18
1369.0,1.539e-10
1370.0,7.453e-11
1371.0,4.2e-12
1372.0,1.026e-09
1373.0,2.497e-08
1374.0,1.604e-07
1375.0,2.522e-07
1376.0,4.304e-07
1377.0,1.788e-07
1378.0,1.818e-06
1379.0,7.847e-08
1380.0,7.347e-08
1381.0,1.721e-09
1382.0,8.825e-10
1383.0,1.293e-11
1384.0,1.652e-10
1385.0,9.518e-10
1386.0,7.526e-10
1387.0,1.174e-07
1388.0,2.938e-09
1389.0,6.694e-07
1390.0,5.267e-07
1391.0,3.487e-07
1392.0,2.297e-08
1393.0,1.545e-07
1394.0,3.76e-08
1395.0,2.507e-10
1396.0,1.068e-12
1397.0,5.011e-08
1398.0,1.775e-06
1399.0,1.202e-06
1400.0,4.563e-13
1401.0,1.897e-12
1402.0,1.248e-05
1403.0,1.143e-05
1404.0,2.932e-06
1405.0,1.11e-10
1406.0,4.732e-06
1407.0,8.458e-07
1408.0,4.269e-06
1409.0,7.961e-07
1410.0,1.183e-06
1411.0,1.077e-05
1412.0,2.092e-05
1413.0,0.0004951
1414.0,1.048e-06
1415.0,3.874e-07
1416.0,0.001751
1417.0,0.0003105
1418.0,0.0002465
1419.0,3.386e-05
1420.0,0.0001479
1421.0,0.0002121
1422.0,0.002279
1423.0,0.000403
1424.0,0.000884
1425.0,0.001056
1426.0,0.001664
