interpolation:linear
wavelength,value
280.0,1.863e-22
280.5,6.159e-21
281.0,3.3090000000000004e-20
281.5,3.87e-19
282.0,5.974e-19
282.5,1.477e-18
283.0,4.672e-18
283.5,7.611e-18
284.0,1.258e-16
284.5,3.676e-16
285.0,6.046e-16
285.5,3.012e-15
286.0,1.215e-14
286.5,5.481e-14
287.0,1.575e-13
287.5,6.087e-13
288.0,2.153e-12
288.5,6.405e-12
289.0,1.689e-11
289.5,5.068e-11
290.0,1.403e-10
290.5,2.857e-10
291.0,6.127e-10
291.5,1.759e-09
292.0,3.526e-09
292.5,4.946e-09
293.0,1.061e-08
293.5,2.582e-08
294.0,4.038e-08
294.5,5.504e-08
295.0,9.328e-08
295.5,1.543e-07
296.0,2.982e-07
296.5,4.178e-07
297.0,5.661e-07
297.5,1.523e-06
298.0,2.407e-06
298.5,2.425e-06
299.0,5.357e-06
299.5,8.928e-06
300.0,9.833e-06
300.5,1.426e-05
301.0,2.584e-05
301.5,4.116e-05
302.0,3.516e-05
302.5,7.031e-05
303.0,0.0001307
303.5,0.0001695
304.0,0.0001649
304.5,0.0002703
305.0,0.0004696
305.5,0.0005875
306.0,0.0005886
306.5,0.0007768
307.0,0.001314
307.5,0.001986
308.0,0.002142
308.5,0.002697
309.0,0.00289
309.5,0.003746
310.0,0.003984
310.5,0.006637
311.0,0.008725
311.5,0.008592
312.0,0.00949
312.5,0.01233
313.0,0.01384
313.5,0.01302
314.0,0.0176
314.5,0.0173
315.0,0.02316
315.5,0.01843
316.0,0.0175
316.5,0.02699
317.0,0.03346
317.5,0.03412
318.0,0.02795
318.5,0.03809
319.0,0.04738
319.5,0.03581
320.0,0.04279
320.5,0.05888
321.0,0.05709
321.5,0.05521
322.0,0.05371
322.5,0.04695
323.0,0.04962
323.5,0.0647
324.0,0.07627
324.5,0.07555
325.0,0.06311
325.5,0.08517
326.0,0.106
326.5,0.1096
327.0,0.108
327.5,0.1028
328.0,0.08776
328.5,0.09708
329.0,0.1211
329.5,0.1392
330.0,0.139
330.5,0.1079
331.0,0.1088
331.5,0.1132
332.0,0.1265
332.5,0.1271
333.0,0.1256
333.5,0.1109
334.0,0.1132
334.5,0.1344
335.0,0.1285
335.5,0.1508
336.0,0.1044
336.5,0.1207
337.0,0.09792
337.5,0.1213
338.0,0.1213
338.5,0.141
339.0,0.1398
339.5,0.1345
340.0,0.1571
340.5,0.142
341.0,0.1392
341.5,0.1282
342.0,0.1534
342.5,0.1437
343.0,0.1578
343.5,0.1485
344.0,0.1093
344.5,0.1108
345.0,0.1471
345.5,0.1505
346.0,0.1281
346.5,0.1453
347.0,0.1558
347.5,0.126
348.0,0.144
348.5,0.1441
349.0,0.1338
349.5,0.1326
350.0,0.1641
350.5,0.1732
351.0,0.1547
351.5,0.1501
352.0,0.1615
352.5,0.1263
353.0,0.1593
353.5,0.1705
354.0,0.1772
354.5,0.1798
355.0,0.1792
355.5,0.1621
356.0,0.1697
356.5,0.145
357.0,0.1198
357.5,0.1468
358.0,0.1164
358.5,0.09953
359.0,0.1393
359.5,0.1774
360.0,0.1882
360.5,0.1506
361.0,0.1374
361.5,0.1584
362.0,0.1372
362.5,0.1901
363.0,0.1709
363.5,0.1576
364.0,0.1929
364.5,0.165
365.0,0.1682
365.5,0.2112
366.0,0.224
366.5,0.2107
367.0,0.2053
367.5,0.2132
368.0,0.1867
368.5,0.1886
369.0,0.2038
369.5,0.2174
370.0,0.232
370.5,0.1802
371.0,0.1927
371.5,0.2412
372.0,0.1602
372.5,0.1922
373.0,0.1957
373.5,0.1275
374.0,0.1854
374.5,0.1536
375.0,0.1495
375.5,0.2233
376.0,0.1852
376.5,0.192
377.0,0.2035
377.5,0.2382
378.0,0.2584
378.5,0.2443
379.0,0.2017
379.5,0.1843
380.0,0.1918
380.5,0.2325
381.0,0.2332
381.5,0.1851
382.0,0.1646
382.5,0.1404
383.0,0.1302
383.5,0.1255
384.0,0.1385
384.5,0.2039
385.0,0.2024
385.5,0.1887
386.0,0.1617
386.5,0.2126
387.0,0.1768
387.5,0.1987
388.0,0.1836
388.5,0.1817
389.0,0.1962
389.5,0.2379
390.0,0.2389
390.5,0.2201
391.0,0.2592
391.5,0.2646
392.0,0.223
392.5,0.1998
393.0,0.1113
393.5,0.08098
394.0,0.1649
394.5,0.2098
395.0,0.2562
395.5,0.2604
396.0,0.226
396.5,0.1322
397.0,0.09933
397.5,0.2021
398.0,0.2832
398.5,0.2929
399.0,0.3176
399.5,0.3168
400.0,0.329
401.0,0.3314
402.0,0.3503
403.0,0.3334
404.0,0.3287
405.0,0.329
406.0,0.3243
407.0,0.3196
408.0,0.3323
409.0,0.3561
410.0,0.3117
411.0,0.3381
412.0,0.3639
413.0,0.3551
414.0,0.36
415.0,0.3616
416.0,0.3686
417.0,0.3599
418.0,0.3536
419.0,0.3588
420.0,0.3576
421.0,0.3746
422.0,0.3564
423.0,0.3486
424.0,0.3689
425.0,0.3688
426.0,0.36
427.0,0.3536
428.0,0.3448
429.0,0.3272
430.0,0.2868
431.0,0.2843
432.0,0.3677
433.0,0.3701
434.0,0.3439
435.0,0.3594
436.0,0.4057
437.0,0.401
438.0,0.3656
439.0,0.3777
440.0,0.3902
441.0,0.4049
442.0,0.4346
443.0,0.4232
444.0,0.4331
445.0,0.4238
446.0,0.4054
447.0,0.4391
448.0,0.4457
449.0,0.4484
450.0,0.4615
451.0,0.479
452.0,0.4619
453.0,0.4349
454.0,0.4548
455.0,0.4577
456.0,0.4689
457.0,0.4769
458.0,0.4603
459.0,0.4582
460.0,0.4593
461.0,0.4701
462.0,0.4744
463.0,0.4712
464.0,0.4644
465.0,0.4595
466.0,0.4647
467.0,0.456
468.0,0.4615
469.0,0.464
470.0,0.4491
471.0,0.4488
472.0,0.473
473.0,0.4669
474.0,0.4671
475.0,0.4705
476.0,0.4556
477.0,0.4562
478.0,0.4692
479.0,0.4668
480.0,0.4682
481.0,0.4777
482.0,0.4811
483.0,0.4762
484.0,0.467
485.0,0.4456
486.0,0.3902
487.0,0.4095
488.0,0.4493
489.0,0.4505
490.0,0.4744
491.0,0.4667
492.0,0.4409
493.0,0.4555
494.0,0.4602
495.0,0.4642
496.0,0.4671
497.0,0.4743
498.0,0.452
499.0,0.4574
500.0,0.4436
501.0,0.4349
502.0,0.4277
503.0,0.4439
504.0,0.4295
505.0,0.4475
506.0,0.4618
507.0,0.4397
508.0,0.427
509.0,0.4398
510.0,0.4381
511.0,0.4506
512.0,0.4558
513.0,0.4316
514.0,0.4289
515.0,0.4246
516.0,0.4235
517.0,0.3765
518.0,0.3957
519.0,0.415
520.0,0.43
521.0,0.434
522.0,0.434
523.0,0.426
524.0,0.4407
525.0,0.445
526.0,0.4248
527.0,0.3996
528.0,0.4221
529.0,0.4444
530.0,0.4377
531.0,0.4439
532.0,0.4285
533.0,0.416
534.0,0.4285
535.0,0.4383
536.0,0.4427
537.0,0.4256
538.0,0.4333
539.0,0.4296
540.0,0.4117
541.0,0.4134
542.0,0.4259
543.0,0.4222
544.0,0.4287
545.0,0.4275
546.0,0.4286
547.0,0.4291
548.0,0.4243
549.0,0.4259
550.0,0.431
551.0,0.4259
552.0,0.4289
553.0,0.4211
554.0,0.431
555.0,0.4317
556.0,0.4259
557.0,0.4124
558.0,0.4087
559.0,0.4006
560.0,0.4052
561.0,0.41
562.0,0.4064
563.0,0.4167
564.0,0.4048
565.0,0.4008
566.0,0.3944
567.0,0.4012
568.0,0.3959
569.0,0.3833
570.0,0.3836
571.0,0.3821
572.0,0.3891
573.0,0.3928
574.0,0.3911
575.0,0.383
576.0,0.3796
577.0,0.3841
578.0,0.3792
579.0,0.3823
580.0,0.392
581.0,0.3958
582.0,0.4049
583.0,0.4072
584.0,0.4117
585.0,0.4022
586.0,0.394
587.0,0.4016
588.0,0.3878
589.0,0.3358
590.0,0.3517
591.0,0.3769
592.0,0.3694
593.0,0.3785
594.0,0.3744
595.0,0.3621
596.0,0.3829
597.0,0.377
598.0,0.378
599.0,0.3792
600.0,0.3814
601.0,0.3795
602.0,0.3772
603.0,0.3841
604.0,0.3908
605.0,0.3891
606.0,0.3883
607.0,0.3929
608.0,0.3893
609.0,0.3906
610.0,0.3885
611.0,0.391
612.0,0.3903
613.0,0.3858
614.0,0.3811
615.0,0.39
616.0,0.3777
617.0,0.3773
618.0,0.3922
619.0,0.3885
620.0,0.3909
621.0,0.3908
622.0,0.3857
623.0,0.3794
624.0,0.3734
625.0,0.3725
626.0,0.3779
627.0,0.3805
628.0,0.337
629.0,0.3651
630.0,0.356
631.0,0.3703
632.0,0.3671
633.0,0.3809
634.0,0.3793
635.0,0.3863
636.0,0.3823
637.0,0.3896
638.0,0.3947
639.0,0.3911
640.0,0.3882
641.0,0.3886
642.0,0.3877
643.0,0.393
644.0,0.3925
645.0,0.3927
646.0,0.3814
647.0,0.3717
648.0,0.3723
649.0,0.3643
650.0,0.3727
651.0,0.3901
652.0,0.3673
653.0,0.3853
654.0,0.3815
655.0,0.364
656.0,0.325
657.0,0.3341
658.0,0.3766
659.0,0.3801
660.0,0.3822
661.0,0.3852
662.0,0.3848
663.0,0.3776
664.0,0.384
665.0,0.3857
666.0,0.3866
667.0,0.387
668.0,0.3879
669.0,0.3944
670.0,0.393
671.0,0.3933
672.0,0.3902
673.0,0.3964
674.0,0.3953
675.0,0.392
676.0,0.395
677.0,0.3913
678.0,0.3927
679.0,0.3866
680.0,0.3899
681.0,0.3874
682.0,0.387
683.0,0.3863
684.0,0.3844
685.0,0.388
686.0,0.3853
687.0,0.1812
688.0,0.2437
689.0,0.2458
690.0,0.2696
691.0,0.2979
692.0,0.3206
693.0,0.3173
694.0,0.3165
695.0,0.3394
696.0,0.3405
697.0,0.3725
698.0,0.3664
699.0,0.35
700.0,0.3453
701.0,0.3387
702.0,0.3441
703.0,0.3456
704.0,0.3613
705.0,0.3617
706.0,0.3632
707.0,0.3642
708.0,0.3648
709.0,0.3685
710.0,0.3668
711.0,0.3675
712.0,0.3679
713.0,0.3627
714.0,0.3645
715.0,0.3498
716.0,0.3493
717.0,0.2752
718.0,0.2506
719.0,0.2274
720.0,0.2353
721.0,0.2753
722.0,0.332
723.0,0.3007
724.0,0.2606
725.0,0.2532
726.0,0.2658
727.0,0.2766
728.0,0.2513
729.0,0.2702
730.0,0.2836
731.0,0.2697
732.0,0.2987
733.0,0.3254
734.0,0.3362
735.0,0.3276
736.0,0.3267
737.0,0.3281
738.0,0.3407
739.0,0.3342
740.0,0.3451
741.0,0.343
742.0,0.3448
743.0,0.354
744.0,0.3539
745.0,0.3547
746.0,0.3563
747.0,0.3573
748.0,0.3566
749.0,0.3526
750.0,0.3525
751.0,0.349
752.0,0.3506
753.0,0.3525
754.0,0.3532
755.0,0.3512
756.0,0.3512
757.0,0.3516
758.0,0.3471
759.0,0.3351
760.0,0.01323
761.0,0.004513
762.0,0.09895
763.0,0.02778
764.0,0.05805
765.0,0.09872
766.0,0.1491
767.0,0.223
768.0,0.2902
769.0,0.3043
770.0,0.3239
771.0,0.3307
772.0,0.3327
773.0,0.3354
774.0,0.334
775.0,0.3317
776.0,0.3359
777.0,0.3315
778.0,0.3294
779.0,0.3297
780.0,0.328
781.0,0.3284
782.0,0.3305
783.0,0.3249
784.0,0.3266
785.0,0.3238
786.0,0.3271
787.0,0.3176
788.0,0.312
789.0,0.3117
790.0,0.2985
791.0,0.3061
792.0,0.3046
793.0,0.2991
794.0,0.3093
795.0,0.3131
796.0,0.2965
797.0,0.2962
798.0,0.3119
799.0,0.3086
800.0,0.3016
801.0,0.299
802.0,0.298
803.0,0.2948
804.0,0.2961
805.0,0.2972
806.0,0.3091
807.0,0.3046
808.0,0.3052
809.0,0.2967
810.0,0.2927
811.0,0.2896
812.0,0.2763
813.0,0.2687
814.0,0.2237
815.0,0.2233
816.0,0.2062
817.0,0.2106
818.0,0.1999
819.0,0.2342
820.0,0.2168
821.0,0.2698
822.0,0.2594
823.0,0.1524
824.0,0.2456
825.0,0.2652
826.0,0.2497
827.0,0.269
828.0,0.2124
829.0,0.2493
830.0,0.2449
831.0,0.2458
832.0,0.2354
833.0,0.2576
834.0,0.2437
835.0,0.2793
836.0,0.2593
837.0,0.2803
838.0,0.2674
839.0,0.2765
840.0,0.2836
841.0,0.2779
842.0,0.2812
843.0,0.2839
844.0,0.2784
845.0,0.2898
846.0,0.289
847.0,0.2845
848.0,0.2815
849.0,0.2735
850.0,0.2621
851.0,0.2762
852.0,0.2749
853.0,0.2656
854.0,0.2285
855.0,0.2523
856.0,0.2752
857.0,0.2822
858.0,0.2797
859.0,0.2805
860.0,0.2814
861.0,0.2797
862.0,0.2843
863.0,0.2911
864.0,0.2766
865.0,0.2743
866.0,0.2466
867.0,0.2574
868.0,0.2802
869.0,0.2744
870.0,0.2823
871.0,0.2784
872.0,0.2775
873.0,0.277
874.0,0.2737
875.0,0.2681
876.0,0.2708
877.0,0.2736
878.0,0.2764
879.0,0.2722
880.0,0.2664
881.0,0.2618
882.0,0.2671
883.0,0.2687
884.0,0.2672
885.0,0.2691
886.0,0.2543
887.0,0.2587
888.0,0.2616
889.0,0.2664
890.0,0.2618
891.0,0.2626
892.0,0.2519
893.0,0.2412
894.0,0.2263
895.0,0.2059
896.0,0.192
897.0,0.1562
898.0,0.1746
899.0,0.1232
900.0,0.1845
901.0,0.1291
902.0,0.1642
903.0,0.1611
904.0,0.2243
905.0,0.2139
906.0,0.1977
907.0,0.1461
908.0,0.1521
909.0,0.1701
910.0,0.1399
911.0,0.1573
912.0,0.1648
913.0,0.1414
914.0,0.1425
915.0,0.1534
916.0,0.1285
917.0,0.1733
918.0,0.1309
919.0,0.1802
920.0,0.1903
921.0,0.1972
922.0,0.1685
923.0,0.1915
924.0,0.1704
925.0,0.1673
926.0,0.1677
927.0,0.1953
928.0,0.1214
929.0,0.1052
930.0,0.07393
931.0,0.07001
932.0,0.04221
933.0,0.03104
934.0,0.01095
935.0,0.03426
936.0,0.01714
937.0,0.01725
938.0,0.02264
939.0,0.0676
940.0,0.08777
941.0,0.0583
942.0,0.07142
943.0,0.04114
944.0,0.04931
945.0,0.06188
946.0,0.02397
947.0,0.06005
948.0,0.04343
949.0,0.08829
950.0,0.01472
951.0,0.08779
952.0,0.0378
953.0,0.05499
954.0,0.07463
955.0,0.05642
956.0,0.06269
957.0,0.03742
958.0,0.09662
959.0,0.06728
960.0,0.07546
961.0,0.09227
962.0,0.08699
963.0,0.107
964.0,0.09618
965.0,0.1063
966.0,0.1057
967.0,0.1041
968.0,0.1674
969.0,0.1703
970.0,0.1541
971.0,0.1888
972.0,0.1778
973.0,0.1424
974.0,0.1343
975.0,0.1432
976.0,0.129
977.0,0.1616
978.0,0.1473
979.0,0.1576
980.0,0.1466
981.0,0.188
982.0,0.1751
983.0,0.1657
984.0,0.1996
985.0,0.1742
986.0,0.2069
987.0,0.1988
988.0,0.1987
989.0,0.2088
990.0,0.1974
991.0,0.2089
992.0,0.2106
993.0,0.2017
994.0,0.211
995.0,0.2114
996.0,0.2097
997.0,0.2104
998.0,0.2091
999.0,0.2086
1000.0,0.2061
1001.0,0.2098
1002.0,0.1997
1003.0,0.2058
1004.0,0.1997
1005.0,0.1939
1006.0,0.2007
1007.0,0.2054
1008.0,0.2035
1009.0,0.2016
1010.0,0.2003
1011.0,0.2044
1012.0,0.2019
1013.0,0.2042
1014.0,0.2027
1015.0,0.2013
1016.0,0.2003
1017.0,0.2006
1018.0,0.2004
1019.0,0.1945
1020.0,0.1991
1021.0,0.1991
1022.0,0.1969
1023.0,0.199
1024.0,0.1947
1025.0,0.1994
1026.0,0.1981
1027.0,0.1977
1028.0,0.1972
1029.0,0.1947
1030.0,0.1966
1031.0,0.1956
1032.0,0.1952
1033.0,0.1922
1034.0,0.1923
1035.0,0.1929
1036.0,0.1937
1037.0,0.1906
1038.0,0.1914
1039.0,0.1912
1040.0,0.1904
1041.0,0.191
1042.0,0.1896
1043.0,0.1889
1044.0,0.1895
1045.0,0.1868
1046.0,0.1847
1047.0,0.1862
1048.0,0.1871
1049.0,0.1863
1050.0,0.1853
1051.0,0.1848
1052.0,0.1839
1053.0,0.1822
1054.0,0.1824
1055.0,0.1822
1056.0,0.1813
1057.0,0.1805
1058.0,0.1759
1059.0,0.1758
1060.0,0.1754
1061.0,0.175
1062.0,0.1756
1063.0,0.1737
1064.0,0.1759
1065.0,0.174
1066.0,0.171
1067.0,0.173
1068.0,0.1688
1069.0,0.164
1070.0,0.1691
1071.0,0.1732
1072.0,0.1701
1073.0,0.1679
1074.0,0.1739
1075.0,0.1611
1076.0,0.1735
1077.0,0.1681
1078.0,0.1638
1079.0,0.1715
1080.0,0.1656
1081.0,0.1581
1082.0,0.1643
1083.0,0.1658
1084.0,0.157
1085.0,0.1663
1086.0,0.1464
1087.0,0.1546
1088.0,0.1649
1089.0,0.1557
1090.0,0.1504
1091.0,0.1633
1092.0,0.1636
1093.0,0.1284
1094.0,0.1484
1095.0,0.1342
1096.0,0.1257
1097.0,0.1599
1098.0,0.1221
1099.0,0.1289
1100.0,0.116
1101.0,0.1189
1102.0,0.1107
1103.0,0.1077
1104.0,0.1081
1105.0,0.125
1106.0,0.08009
1107.0,0.1159
1108.0,0.08901
1109.0,0.0906
1110.0,0.1128
1111.0,0.06429
1112.0,0.09048
1113.0,0.04627
1114.0,0.05209
1115.0,0.04224
1116.0,0.02819
1117.0,0.006061
1118.0,0.03185
1119.0,0.01163
1120.0,0.014
1121.0,0.02059
1122.0,0.005708
1123.0,0.01281
1124.0,0.01075
1125.0,0.01506
1126.0,0.002629
1127.0,0.01726
1128.0,0.00714
1129.0,0.007839
1130.0,0.004702
1131.0,0.04262
1132.0,0.03137
1133.0,0.01473
1134.0,0.001971
1135.0,0.0008563
1136.0,0.01069
1137.0,0.03978
1138.0,0.02697
1139.0,0.05278
1140.0,0.0392
1141.0,0.0258
1142.0,0.03182
1143.0,0.05088
1144.0,0.01259
1145.0,0.01415
1146.0,0.01522
1147.0,0.002881
1148.0,0.04313
1149.0,0.03105
1150.0,0.01472
1151.0,0.02678
1152.0,0.03702
1153.0,0.03944
1154.0,0.01416
1155.0,0.05491
1156.0,0.04678
1157.0,0.05829
1158.0,0.05742
1159.0,0.06462
1160.0,0.05321
1161.0,0.07309
1162.0,0.0726
1163.0,0.1126
1164.0,0.09144
1165.0,0.08109
1166.0,0.08491
1167.0,0.09492
1168.0,0.09485
1169.0,0.09841
1170.0,0.1115
1171.0,0.1087
1172.0,0.1138
1173.0,0.1114
1174.0,0.06958
1175.0,0.1117
1176.0,0.1292
1177.0,0.1196
1178.0,0.08213
1179.0,0.1303
1180.0,0.1094
1181.0,0.1131
1182.0,0.06923
1183.0,0.1128
1184.0,0.1026
1185.0,0.09623
1186.0,0.1235
1187.0,0.1146
1188.0,0.06869
1189.0,0.1063
1190.0,0.1214
1191.0,0.1091
1192.0,0.1237
1193.0,0.1165
1194.0,0.1215
1195.0,0.1106
1196.0,0.1043
1197.0,0.1232
1198.0,0.1109
1199.0,0.08585
1200.0,0.1149
1201.0,0.1077
1202.0,0.1098
1203.0,0.1071
1204.0,0.09028
1205.0,0.1147
1206.0,0.1308
1207.0,0.1082
1208.0,0.1091
1209.0,0.1118
1210.0,0.1184
1211.0,0.1098
1212.0,0.1036
1213.0,0.1241
1214.0,0.1079
1215.0,0.1054
1216.0,0.1243
1217.0,0.1194
1218.0,0.1231
1219.0,0.1206
1220.0,0.1234
1221.0,0.1257
1222.0,0.1218
1223.0,0.1198
1224.0,0.1173
1225.0,0.1246
1226.0,0.1268
1227.0,0.1123
1228.0,0.1284
1229.0,0.1268
1230.0,0.1238
1231.0,0.1303
1232.0,0.1294
1233.0,0.121
1234.0,0.1311
1235.0,0.1296
1236.0,0.131
1237.0,0.1276
1238.0,0.1306
1239.0,0.1289
1240.0,0.1296
1241.0,0.128
1242.0,0.1286
1243.0,0.1276
1244.0,0.1282
1245.0,0.1289
1246.0,0.1282
1247.0,0.1274
1248.0,0.1268
1249.0,0.1277
1250.0,0.1266
1251.0,0.1243
1252.0,0.1252
1253.0,0.1227
1254.0,0.1203
1255.0,0.1246
1256.0,0.1184
1257.0,0.1172
1258.0,0.1216
1259.0,0.113
1260.0,0.1141
1261.0,0.1026
1262.0,0.09692
1263.0,0.09697
1264.0,0.08381
1265.0,0.09644
1266.0,0.08938
1267.0,0.09333
1268.0,0.08477
1269.0,0.0334
1270.0,0.09205
1271.0,0.1029
1272.0,0.1038
1273.0,0.1021
1274.0,0.1032
1275.0,0.1056
1276.0,0.1077
1277.0,0.1097
1278.0,0.1138
1279.0,0.1127
1280.0,0.1114
1281.0,0.1073
1282.0,0.1049
1283.0,0.1127
1284.0,0.1151
1285.0,0.1161
1286.0,0.1186
1287.0,0.1151
1288.0,0.1156
1289.0,0.1087
1290.0,0.1148
1291.0,0.117
1292.0,0.1041
1293.0,0.1134
1294.0,0.1123
1295.0,0.1098
1296.0,0.1014
1297.0,0.09358
1298.0,0.106
1299.0,0.114
1300.0,0.08792
1301.0,0.09203
1302.0,0.1059
1303.0,0.08756
1304.0,0.06716
1305.0,0.1033
1306.0,0.1024
1307.0,0.07138
1308.0,0.08904
1309.0,0.1002
1310.0,0.06928
1311.0,0.08355
1312.0,0.08032
1313.0,0.07678
1314.0,0.06596
1315.0,0.0635
1316.0,0.08075
1317.0,0.07535
1318.0,0.08521
1319.0,0.05768
1320.0,0.05753
1321.0,0.07024
1322.0,0.06922
1323.0,0.04508
1324.0,0.05696
1325.0,0.07851
1326.0,0.06301
1327.0,0.0588
1328.0,0.0482
1329.0,0.03034
1330.0,0.04267
1331.0,0.01991
1332.0,0.02211
1333.0,0.03185
1334.0,0.03105
1335.0,0.04421
1336.0,0.03143
1337.0,0.02704
1338.0,0.02881
1339.0,0.02943
1340.0,0.0304
1341.0,0.02545
1342.0,0.02732
1343.0,0.0126
1344.0,0.008118
1345.0,0.01118
1346.0,0.003091
1347.0,0.002772
1348.0,5.693e-05
1349.0,0.0002614
1350.0,0.000321
1351.0,2.752e-05
1352.0,2.213e-06
1353.0,7.073e-08
1354.0,3.633e-07
1355.0,1.455e-09
1356.0,3.432e-08
1357.0,5.174e-08
1358.0,1.722e-09
1359.0,2.037e-10
1360.0,7.538e-10
1361.0,8.188e-13
1362.0,2.239e-15
1363.0,9.915e-10
1364.0,4.111e-10
1365.0,7.818e-16
1366.0,4.325e-09
1367.0,1.808e-09
1368.0,6.036e-18
1369.0,1.516e-10
1370.0,7.403e-11
1371.0,4.186e-12
1372.0,9.861e-10
1373.0,2.238e-08
1374.0,1.322e-07
1375.0,2.133e-07
1376.0,3.326e-07
1377.0,1.397e-07
1378.0,1.393e-06
1379.0,6.124e-08
1380.0,6.037e-08
1381.0,1.455e-09
1382.0,8.546e-10
1383.0,1.264e-11
1384.0,1.634e-10
1385.0,8.742e-10
1386.0,7.399e-10
1387.0,1.042e-07
1388.0,2.476e-09
1389.0,5.292e-07
1390.0,4.203e-07
1391.0,2.801e-07
1392.0,1.858e-08
1393.0,1.207e-07
1394.0,3.418e-08
1395.0,2.367e-10
1396.0,1.066e-12
1397.0,4.017e-08
1398.0,1.366e-06
1399.0,9.2e-07
1400.0,4.557e-13
1401.0,1.892e-12
1402.0,9.556e-06
1403.0,8.602e-06
1404.0,2.183e-06
1405.0,1.077e-10
1406.0,3.521e-06
1407.0,6.482e-07
1408.0,3.171e-06
1409.0,6.153e-07
1410.0,8.916e-07
1411.0,8.128e-06
1412.0,1.607e-05
1413.0,0.0003944
1414.0,7.908e-07
1415.0,2.939e-07
1416.0,0.001484
1417.0,0.0002562
1418.0,0.0001949
1419.0,2.662e-05
1420.0,0.0001169
1421.0,0.0001742
1422.0,0.001929
1423.0,0.0003407
1424.0,0.0007599
1425.0,0.0008892
1426.0,0.00144
