interpolation:linear
wavelength,value
280.0,4.18e-23
280.5,1.41e-21
281.0,7.648e-21
281.5,2.493e-19
282.0,4.854e-19
282.5,1.115e-18
283.0,3.425e-18
283.5,5.554e-18
284.0,9.075e-17
284.5,2.664e-16
285.0,7.933e-16
285.5,3.11e-15
286.0,1.204e-14
286.5,5.133e-14
287.0,1.443e-13
287.5,5.472e-13
288.0,1.677e-12
288.5,4.762e-12
289.0,1.226e-11
289.5,3.633e-11
290.0,1.003e-10
290.5,2.044e-10
291.0,4.396e-10
291.5,1.267e-09
292.0,2.601e-09
292.5,3.614e-09
293.0,7.667e-09
293.5,1.841e-08
294.0,2.87e-08
294.5,3.455e-08
295.0,5.804e-08
295.5,9.783e-08
296.0,1.827e-07
296.5,2.469e-07
297.0,3.241e-07
297.5,8.286e-07
298.0,1.249e-06
298.5,1.211e-06
299.0,2.571e-06
299.5,3.977e-06
300.0,4.192e-06
300.5,5.803e-06
301.0,9.724e-06
301.5,1.44e-05
302.0,1.184e-05
302.5,2.255e-05
303.0,3.885e-05
303.5,4.809e-05
304.0,4.57e-05
304.5,7.064e-05
305.0,0.0001136
305.5,0.0001357
306.0,0.0001335
306.5,0.0001713
307.0,0.0002727
307.5,0.0003901
308.0,0.0004169
308.5,0.0005115
309.0,0.0005407
309.5,0.000761
310.0,0.0008416
310.5,0.00143
311.0,0.001942
311.5,0.001939
312.0,0.002304
312.5,0.003145
313.0,0.003623
313.5,0.003324
314.0,0.004775
314.5,0.005097
315.0,0.006921
315.5,0.005286
316.0,0.005369
316.5,0.00879
317.0,0.01088
317.5,0.0109
318.0,0.009301
318.5,0.01373
319.0,0.01778
319.5,0.01258
320.0,0.01487
320.5,0.02222
321.0,0.02324
321.5,0.02263
322.0,0.02028
322.5,0.0178
323.0,0.01983
323.5,0.02923
324.0,0.03485
324.5,0.03347
325.0,0.02541
325.5,0.03581
326.0,0.04877
326.5,0.05231
327.0,0.05081
327.5,0.04749
328.0,0.03848
328.5,0.04528
329.0,0.05915
329.5,0.06891
330.0,0.06804
330.5,0.0509
331.0,0.05066
331.5,0.05413
332.0,0.06283
332.5,0.06418
333.0,0.0628
333.5,0.0539
334.0,0.05473
334.5,0.06705
335.0,0.06521
335.5,0.07753
336.0,0.05364
336.5,0.06066
337.0,0.04853
337.5,0.0598
338.0,0.06133
338.5,0.07252
339.0,0.07202
339.5,0.06914
340.0,0.07941
340.5,0.07194
341.0,0.07156
341.5,0.06612
342.0,0.07916
342.5,0.07421
343.0,0.0813
343.5,0.07636
344.0,0.05531
344.5,0.05675
345.0,0.07566
345.5,0.07752
346.0,0.06604
346.5,0.0749
347.0,0.08015
347.5,0.06475
348.0,0.07414
348.5,0.07431
349.0,0.06904
349.5,0.06835
350.0,0.0846
350.5,0.08926
351.0,0.07959
351.5,0.07697
352.0,0.08298
352.5,0.06495
353.0,0.08198
353.5,0.0878
354.0,0.09125
354.5,0.09256
355.0,0.0922
355.5,0.08339
356.0,0.08734
356.5,0.0746
357.0,0.06164
357.5,0.07551
358.0,0.05989
358.5,0.0512
359.0,0.0716
359.5,0.09113
360.0,0.09669
360.5,0.07736
361.0,0.07061
361.5,0.08142
362.0,0.0705
362.5,0.09767
363.0,0.08781
363.5,0.08094
364.0,0.09907
364.5,0.08472
365.0,0.08632
365.5,0.1084
366.0,0.115
366.5,0.1081
367.0,0.1054
367.5,0.1094
368.0,0.09582
368.5,0.09674
369.0,0.1046
369.5,0.1115
370.0,0.119
370.5,0.09243
371.0,0.09884
371.5,0.1237
372.0,0.08217
372.5,0.0986
373.0,0.1004
373.5,0.06537
374.0,0.09505
374.5,0.07878
375.0,0.07664
375.5,0.1145
376.0,0.09496
376.5,0.09846
377.0,0.1043
377.5,0.1222
378.0,0.1325
378.5,0.1253
379.0,0.1034
379.5,0.09452
380.0,0.09833
380.5,0.1192
381.0,0.1196
381.5,0.09493
382.0,0.0844
382.5,0.07205
383.0,0.06677
383.5,0.06438
384.0,0.07108
384.5,0.1046
385.0,0.1039
385.5,0.09683
386.0,0.08301
386.5,0.1092
387.0,0.09077
387.5,0.102
388.0,0.09429
388.5,0.0933
389.0,0.1008
389.5,0.1222
390.0,0.1228
390.5,0.1131
391.0,0.1332
391.5,0.136
392.0,0.1146
392.5,0.1027
393.0,0.05724
393.5,0.04165
394.0,0.08482
394.5,0.108
395.0,0.1318
395.5,0.134
396.0,0.1163
396.5,0.06808
397.0,0.05115
397.5,0.1041
398.0,0.1459
398.5,0.1509
399.0,0.1637
399.5,0.1633
400.0,0.1696
401.0,0.1696
402.0,0.1793
403.0,0.1708
404.0,0.1684
405.0,0.1687
406.0,0.1663
407.0,0.164
408.0,0.1706
409.0,0.1829
410.0,0.1601
411.0,0.1738
412.0,0.1872
413.0,0.1828
414.0,0.1854
415.0,0.1863
416.0,0.19
417.0,0.1856
418.0,0.1825
419.0,0.1853
420.0,0.1848
421.0,0.1937
422.0,0.1843
423.0,0.1803
424.0,0.1909
425.0,0.1909
426.0,0.1866
427.0,0.1834
428.0,0.1789
429.0,0.17
430.0,0.1491
431.0,0.1478
432.0,0.1913
433.0,0.1927
434.0,0.1792
435.0,0.1873
436.0,0.2116
437.0,0.2094
438.0,0.191
439.0,0.1972
440.0,0.2038
441.0,0.2117
442.0,0.2273
443.0,0.2212
444.0,0.2267
445.0,0.2219
446.0,0.2126
447.0,0.2306
448.0,0.234
449.0,0.2357
450.0,0.2427
451.0,0.2521
452.0,0.2433
453.0,0.2292
454.0,0.24
455.0,0.2415
456.0,0.2475
457.0,0.2518
458.0,0.2428
459.0,0.2417
460.0,0.2422
461.0,0.248
462.0,0.2505
463.0,0.2489
464.0,0.2458
465.0,0.2436
466.0,0.2467
467.0,0.242
468.0,0.2449
469.0,0.2462
470.0,0.2383
471.0,0.2383
472.0,0.2511
473.0,0.248
474.0,0.2479
475.0,0.2494
476.0,0.241
477.0,0.2411
478.0,0.2479
479.0,0.2468
480.0,0.2477
481.0,0.253
482.0,0.2551
483.0,0.253
484.0,0.2484
485.0,0.2374
486.0,0.2082
487.0,0.2188
488.0,0.2401
489.0,0.2407
490.0,0.2537
491.0,0.2497
492.0,0.236
493.0,0.2439
494.0,0.2465
495.0,0.2489
496.0,0.2505
497.0,0.2543
498.0,0.2423
499.0,0.245
500.0,0.2373
501.0,0.2323
502.0,0.2279
503.0,0.236
504.0,0.2269
505.0,0.2376
506.0,0.2453
507.0,0.2337
508.0,0.2274
509.0,0.2347
510.0,0.2343
511.0,0.2414
512.0,0.2444
513.0,0.2315
514.0,0.2302
515.0,0.2279
516.0,0.2272
517.0,0.202
518.0,0.2122
519.0,0.2225
520.0,0.2305
521.0,0.2325
522.0,0.2324
523.0,0.228
524.0,0.2354
525.0,0.2372
526.0,0.2262
527.0,0.2125
528.0,0.2241
529.0,0.2357
530.0,0.2319
531.0,0.235
532.0,0.2267
533.0,0.2201
534.0,0.2268
535.0,0.2322
536.0,0.2348
537.0,0.2259
538.0,0.2301
539.0,0.2281
540.0,0.2184
541.0,0.2188
542.0,0.2251
543.0,0.2234
544.0,0.2264
545.0,0.2259
546.0,0.2261
547.0,0.2268
548.0,0.2245
549.0,0.2254
550.0,0.2281
551.0,0.2254
552.0,0.227
553.0,0.2228
554.0,0.228
555.0,0.2282
556.0,0.2251
557.0,0.2177
558.0,0.2155
559.0,0.2109
560.0,0.2131
561.0,0.2153
562.0,0.213
563.0,0.218
564.0,0.2115
565.0,0.2091
566.0,0.2055
567.0,0.2086
568.0,0.2049
569.0,0.1967
570.0,0.197
571.0,0.1966
572.0,0.199
573.0,0.2007
574.0,0.1995
575.0,0.195
576.0,0.1932
577.0,0.1957
578.0,0.1937
579.0,0.1961
580.0,0.2024
581.0,0.2055
582.0,0.2111
583.0,0.2131
584.0,0.2159
585.0,0.2112
586.0,0.207
587.0,0.2105
588.0,0.2012
589.0,0.1703
590.0,0.1786
591.0,0.1939
592.0,0.1886
593.0,0.195
594.0,0.1923
595.0,0.1841
596.0,0.1983
597.0,0.1941
598.0,0.1958
599.0,0.1968
600.0,0.1987
601.0,0.1984
602.0,0.1973
603.0,0.2013
604.0,0.2051
605.0,0.2045
606.0,0.2043
607.0,0.2072
608.0,0.2057
609.0,0.2067
610.0,0.206
611.0,0.2077
612.0,0.2076
613.0,0.2054
614.0,0.2033
615.0,0.2084
616.0,0.2021
617.0,0.2021
618.0,0.2104
619.0,0.2085
620.0,0.2098
621.0,0.2095
622.0,0.2068
623.0,0.2035
624.0,0.2004
625.0,0.1997
626.0,0.2024
627.0,0.2028
628.0,0.1693
629.0,0.1908
630.0,0.1856
631.0,0.1967
632.0,0.1958
633.0,0.2046
634.0,0.205
635.0,0.2093
636.0,0.2079
637.0,0.2124
638.0,0.2161
639.0,0.2146
640.0,0.2136
641.0,0.2143
642.0,0.2142
643.0,0.2173
644.0,0.2175
645.0,0.2174
646.0,0.2098
647.0,0.2013
648.0,0.2025
649.0,0.1972
650.0,0.206
651.0,0.2161
652.0,0.2003
653.0,0.2139
654.0,0.212
655.0,0.2006
656.0,0.1802
657.0,0.1857
658.0,0.2106
659.0,0.2131
660.0,0.2148
661.0,0.217
662.0,0.2164
663.0,0.2125
664.0,0.2169
665.0,0.2186
666.0,0.2193
667.0,0.2198
668.0,0.2208
669.0,0.2248
670.0,0.2242
671.0,0.2247
672.0,0.223
673.0,0.2268
674.0,0.2264
675.0,0.2247
676.0,0.2266
677.0,0.2247
678.0,0.2256
679.0,0.2223
680.0,0.2243
681.0,0.2229
682.0,0.2227
683.0,0.2224
684.0,0.2212
685.0,0.2236
686.0,0.2218
687.0,0.07144
688.0,0.1108
689.0,0.1123
690.0,0.1293
691.0,0.151
692.0,0.1698
693.0,0.1683
694.0,0.1705
695.0,0.1885
696.0,0.1897
697.0,0.2132
698.0,0.2096
699.0,0.196
700.0,0.1932
701.0,0.1872
702.0,0.192
703.0,0.1939
704.0,0.2053
705.0,0.2053
706.0,0.207
707.0,0.2081
708.0,0.2082
709.0,0.2124
710.0,0.2101
711.0,0.2113
712.0,0.2126
713.0,0.2086
714.0,0.2101
715.0,0.1996
716.0,0.1989
717.0,0.1428
718.0,0.1298
719.0,0.1167
720.0,0.1188
721.0,0.1468
722.0,0.1858
723.0,0.1646
724.0,0.1373
725.0,0.1323
726.0,0.1391
727.0,0.1483
728.0,0.1308
729.0,0.1455
730.0,0.1505
731.0,0.1428
732.0,0.1639
733.0,0.1827
734.0,0.1907
735.0,0.1848
736.0,0.1835
737.0,0.1847
738.0,0.1965
739.0,0.1931
740.0,0.2007
741.0,0.2002
742.0,0.2021
743.0,0.2078
744.0,0.2083
745.0,0.2093
746.0,0.2103
747.0,0.211
748.0,0.2107
749.0,0.2084
750.0,0.2083
751.0,0.2063
752.0,0.2073
753.0,0.2085
754.0,0.209
755.0,0.2077
756.0,0.2078
757.0,0.208
758.0,0.2052
759.0,0.1946
760.0,0.003272
761.0,0.001445
762.0,0.03173
763.0,0.006537
764.0,0.01541
765.0,0.03154
766.0,0.05839
767.0,0.1053
768.0,0.1576
769.0,0.1706
770.0,0.188
771.0,0.1949
772.0,0.1971
773.0,0.1989
774.0,0.1983
775.0,0.1971
776.0,0.1996
777.0,0.1971
778.0,0.1958
779.0,0.196
780.0,0.195
781.0,0.1953
782.0,0.1967
783.0,0.1934
784.0,0.1945
785.0,0.1926
786.0,0.1944
787.0,0.1862
788.0,0.1818
789.0,0.1819
790.0,0.1715
791.0,0.1788
792.0,0.1785
793.0,0.175
794.0,0.1837
795.0,0.1852
796.0,0.171
797.0,0.1702
798.0,0.1839
799.0,0.1813
800.0,0.1762
801.0,0.1734
802.0,0.1725
803.0,0.17
804.0,0.1713
805.0,0.1734
806.0,0.1828
807.0,0.1797
808.0,0.18
809.0,0.1732
810.0,0.1701
811.0,0.1674
812.0,0.1552
813.0,0.1508
814.0,0.1199
815.0,0.1206
816.0,0.1098
817.0,0.1119
818.0,0.1049
819.0,0.1278
820.0,0.1172
821.0,0.1547
822.0,0.1473
823.0,0.07546
824.0,0.1358
825.0,0.1527
826.0,0.1403
827.0,0.1545
828.0,0.1134
829.0,0.1409
830.0,0.1383
831.0,0.1383
832.0,0.1309
833.0,0.1469
834.0,0.1372
835.0,0.1644
836.0,0.147
837.0,0.1645
838.0,0.1547
839.0,0.1616
840.0,0.1664
841.0,0.1619
842.0,0.1656
843.0,0.1692
844.0,0.165
845.0,0.1729
846.0,0.1729
847.0,0.1707
848.0,0.1681
849.0,0.1633
850.0,0.1566
851.0,0.1641
852.0,0.1638
853.0,0.1589
854.0,0.1361
855.0,0.1511
856.0,0.1645
857.0,0.1693
858.0,0.1675
859.0,0.1684
860.0,0.1692
861.0,0.1681
862.0,0.171
863.0,0.1751
864.0,0.1664
865.0,0.1651
866.0,0.1485
867.0,0.155
868.0,0.1687
869.0,0.1653
870.0,0.1701
871.0,0.1678
872.0,0.1673
873.0,0.1669
874.0,0.165
875.0,0.1616
876.0,0.1631
877.0,0.1649
878.0,0.1664
879.0,0.1639
880.0,0.1605
881.0,0.1573
882.0,0.1603
883.0,0.1617
884.0,0.1606
885.0,0.1617
886.0,0.1516
887.0,0.1552
888.0,0.1565
889.0,0.1604
890.0,0.1562
891.0,0.1573
892.0,0.1492
893.0,0.1415
894.0,0.1291
895.0,0.1133
896.0,0.1046
897.0,0.08115
898.0,0.09208
899.0,0.06091
900.0,0.1
901.0,0.06394
902.0,0.08615
903.0,0.08264
904.0,0.1273
905.0,0.1204
906.0,0.1098
907.0,0.07377
908.0,0.07907
909.0,0.09022
910.0,0.07017
911.0,0.08389
912.0,0.08649
913.0,0.07071
914.0,0.07241
915.0,0.07688
916.0,0.06421
917.0,0.09097
918.0,0.06473
919.0,0.09628
920.0,0.1068
921.0,0.1095
922.0,0.09057
923.0,0.107
924.0,0.08966
925.0,0.08835
926.0,0.08751
927.0,0.1049
928.0,0.05647
929.0,0.04687
930.0,0.02893
931.0,0.02659
932.0,0.01344
933.0,0.009052
934.0,0.002217
935.0,0.01048
936.0,0.004367
937.0,0.00446
938.0,0.006118
939.0,0.02554
940.0,0.03597
941.0,0.02111
942.0,0.02687
943.0,0.01364
944.0,0.01864
945.0,0.02312
946.0,0.00686
947.0,0.02176
948.0,0.0156
949.0,0.03545
950.0,0.003825
951.0,0.03477
952.0,0.01256
953.0,0.02015
954.0,0.02959
955.0,0.02112
956.0,0.02814
957.0,0.01252
958.0,0.04413
959.0,0.02735
960.0,0.03092
961.0,0.04088
962.0,0.03873
963.0,0.05068
964.0,0.04486
965.0,0.04938
966.0,0.04979
967.0,0.04833
968.0,0.09254
969.0,0.09109
970.0,0.08207
971.0,0.1067
972.0,0.09856
973.0,0.07331
974.0,0.06942
975.0,0.07492
976.0,0.06398
977.0,0.08913
978.0,0.07777
979.0,0.08441
980.0,0.07819
981.0,0.1063
982.0,0.09713
983.0,0.0908
984.0,0.1162
985.0,0.09604
986.0,0.1228
987.0,0.1168
988.0,0.1172
989.0,0.1255
990.0,0.1159
991.0,0.1253
992.0,0.1266
993.0,0.1197
994.0,0.1271
995.0,0.1278
996.0,0.1264
997.0,0.127
998.0,0.1261
999.0,0.1258
1000.0,0.1237
1001.0,0.1267
1002.0,0.1178
1003.0,0.1241
1004.0,0.1196
1005.0,0.1172
1006.0,0.1209
1007.0,0.1239
1008.0,0.1223
1009.0,0.1206
1010.0,0.1196
1011.0,0.1234
1012.0,0.1214
1013.0,0.1234
1014.0,0.1225
1015.0,0.1216
1016.0,0.1209
1017.0,0.121
1018.0,0.1212
1019.0,0.1165
1020.0,0.1203
1021.0,0.1205
1022.0,0.1188
1023.0,0.1199
1024.0,0.1163
1025.0,0.1205
1026.0,0.1194
1027.0,0.1193
1028.0,0.1189
1029.0,0.1172
1030.0,0.1188
1031.0,0.118
1032.0,0.1179
1033.0,0.1161
1034.0,0.1162
1035.0,0.1166
1036.0,0.1169
1037.0,0.1151
1038.0,0.1155
1039.0,0.1153
1040.0,0.1148
1041.0,0.1151
1042.0,0.1142
1043.0,0.1138
1044.0,0.114
1045.0,0.1123
1046.0,0.111
1047.0,0.1118
1048.0,0.1122
1049.0,0.1117
1050.0,0.1109
1051.0,0.1106
1052.0,0.1099
1053.0,0.1087
1054.0,0.1087
1055.0,0.1084
1056.0,0.1077
1057.0,0.107
1058.0,0.1041
1059.0,0.1039
1060.0,0.1035
1061.0,0.1032
1062.0,0.1034
1063.0,0.1021
1064.0,0.1034
1065.0,0.1019
1066.0,0.1005
1067.0,0.1016
1068.0,0.0988
1069.0,0.09627
1070.0,0.09908
1071.0,0.1024
1072.0,0.09986
1073.0,0.09866
1074.0,0.1033
1075.0,0.09402
1076.0,0.103
1077.0,0.09887
1078.0,0.09563
1079.0,0.1023
1080.0,0.0971
1081.0,0.09179
1082.0,0.09704
1083.0,0.09858
1084.0,0.09061
1085.0,0.09767
1086.0,0.08346
1087.0,0.08985
1088.0,0.09784
1089.0,0.08982
1090.0,0.08615
1091.0,0.09627
1092.0,0.09664
1093.0,0.07101
1094.0,0.08701
1095.0,0.07379
1096.0,0.06801
1097.0,0.09447
1098.0,0.06505
1099.0,0.06914
1100.0,0.06066
1101.0,0.06321
1102.0,0.05735
1103.0,0.05469
1104.0,0.05526
1105.0,0.06638
1106.0,0.03659
1107.0,0.06076
1108.0,0.04285
1109.0,0.0435
1110.0,0.05736
1111.0,0.02735
1112.0,0.04359
1113.0,0.01811
1114.0,0.02022
1115.0,0.01572
1116.0,0.00883
1117.0,0.001255
1118.0,0.01008
1119.0,0.002755
1120.0,0.003096
1121.0,0.0049
1122.0,0.0009039
1123.0,0.002827
1124.0,0.002363
1125.0,0.003608
1126.0,0.0003373
1127.0,0.004156
1128.0,0.001219
1129.0,0.001355
1130.0,0.00088
1131.0,0.0135
1132.0,0.009226
1133.0,0.003219
1134.0,0.0002555
1135.0,0.0001249
1136.0,0.002021
1137.0,0.01223
1138.0,0.007714
1139.0,0.02004
1140.0,0.01326
1141.0,0.007481
1142.0,0.009842
1143.0,0.01819
1144.0,0.003217
1145.0,0.003
1146.0,0.003224
1147.0,0.0003599
1148.0,0.0147
1149.0,0.009581
1150.0,0.004305
1151.0,0.007721
1152.0,0.01199
1153.0,0.01397
1154.0,0.003428
1155.0,0.02092
1156.0,0.01689
1157.0,0.02424
1158.0,0.02386
1159.0,0.0272
1160.0,0.02273
1161.0,0.03432
1162.0,0.03361
1163.0,0.05929
1164.0,0.04601
1165.0,0.03885
1166.0,0.04276
1167.0,0.04881
1168.0,0.04882
1169.0,0.05091
1170.0,0.05986
1171.0,0.05835
1172.0,0.06289
1173.0,0.05979
1174.0,0.03356
1175.0,0.06186
1176.0,0.07495
1177.0,0.0671
1178.0,0.0429
1179.0,0.0753
1180.0,0.05982
1181.0,0.0619
1182.0,0.03371
1183.0,0.06233
1184.0,0.05512
1185.0,0.05031
1186.0,0.06963
1187.0,0.0629
1188.0,0.03234
1189.0,0.0582
1190.0,0.06912
1191.0,0.05863
1192.0,0.07081
1193.0,0.06535
1194.0,0.06905
1195.0,0.06056
1196.0,0.05595
1197.0,0.07059
1198.0,0.06326
1199.0,0.04447
1200.0,0.06477
1201.0,0.05866
1202.0,0.06205
1203.0,0.05878
1204.0,0.04814
1205.0,0.06575
1206.0,0.07713
1207.0,0.06028
1208.0,0.06222
1209.0,0.06357
1210.0,0.06861
1211.0,0.06234
1212.0,0.05554
1213.0,0.07148
1214.0,0.05879
1215.0,0.05747
1216.0,0.07224
1217.0,0.06856
1218.0,0.07145
1219.0,0.06922
1220.0,0.07173
1221.0,0.07411
1222.0,0.07121
1223.0,0.06964
1224.0,0.06679
1225.0,0.0729
1226.0,0.07522
1227.0,0.06372
1228.0,0.07647
1229.0,0.07528
1230.0,0.07295
1231.0,0.0783
1232.0,0.0777
1233.0,0.07061
1234.0,0.07941
1235.0,0.07808
1236.0,0.0793
1237.0,0.07656
1238.0,0.07906
1239.0,0.078
1240.0,0.07857
1241.0,0.07685
1242.0,0.07788
1243.0,0.07733
1244.0,0.07743
1245.0,0.07803
1246.0,0.07763
1247.0,0.07693
1248.0,0.07617
1249.0,0.07704
1250.0,0.07614
1251.0,0.07427
1252.0,0.07541
1253.0,0.07279
1254.0,0.07062
1255.0,0.07481
1256.0,0.06906
1257.0,0.06794
1258.0,0.0721
1259.0,0.06402
1260.0,0.06502
1261.0,0.05507
1262.0,0.05034
1263.0,0.0503
1264.0,0.04007
1265.0,0.05007
1266.0,0.0443
1267.0,0.04776
1268.0,0.04112
1269.0,0.00933
1270.0,0.04651
1271.0,0.05586
1272.0,0.0565
1273.0,0.0552
1274.0,0.05638
1275.0,0.05827
1276.0,0.06013
1277.0,0.06234
1278.0,0.06596
1279.0,0.06552
1280.0,0.06464
1281.0,0.06295
1282.0,0.06271
1283.0,0.0671
1284.0,0.06838
1285.0,0.06921
1286.0,0.07124
1287.0,0.06808
1288.0,0.06883
1289.0,0.0626
1290.0,0.06833
1291.0,0.07006
1292.0,0.05898
1293.0,0.06718
1294.0,0.06646
1295.0,0.06346
1296.0,0.05681
1297.0,0.05116
1298.0,0.06093
1299.0,0.06777
1300.0,0.04795
1301.0,0.05062
1302.0,0.06121
1303.0,0.04791
1304.0,0.03329
1305.0,0.05937
1306.0,0.05801
1307.0,0.0366
1308.0,0.04928
1309.0,0.05576
1310.0,0.0349
1311.0,0.04532
1312.0,0.04354
1313.0,0.0399
1314.0,0.03262
1315.0,0.03091
1316.0,0.04308
1317.0,0.03934
1318.0,0.04633
1319.0,0.02721
1320.0,0.02759
1321.0,0.03566
1322.0,0.03416
1323.0,0.01902
1324.0,0.02718
1325.0,0.04073
1326.0,0.03083
1327.0,0.02801
1328.0,0.0215
1329.0,0.01109
1330.0,0.01749
1331.0,0.006152
1332.0,0.007152
1333.0,0.0108
1334.0,0.01263
1335.0,0.01792
1336.0,0.01129
1337.0,0.009854
1338.0,0.01025
1339.0,0.01054
1340.0,0.01158
1341.0,0.008065
1342.0,0.009021
1343.0,0.002903
1344.0,0.001986
1345.0,0.002392
1346.0,0.0003839
1347.0,0.000302
1348.0,5.563e-06
1349.0,2.229e-05
1350.0,2.459e-05
1351.0,3.811e-06
1352.0,9.529e-07
1353.0,4.844e-08
1354.0,1.668e-07
1355.0,1.34e-09
1356.0,2.346e-08
1357.0,3.564e-08
1358.0,1.573e-09
1359.0,1.982e-10
1360.0,7.164e-10
1361.0,8.013e-13
1362.0,2.192e-15
1363.0,9.632e-10
1364.0,3.977e-10
1365.0,7.653e-16
1366.0,4.174e-09
1367.0,1.704e-09
1368.0,5.909e-18
1369.0,1.465e-10
1370.0,7.216e-11
1371.0,4.091e-12
1372.0,9.241e-10
1373.0,1.862e-08
1374.0,8.637e-08
1375.0,1.566e-07
1376.0,1.408e-07
1377.0,6.43e-08
1378.0,6.28e-07
1379.0,2.689e-08
1380.0,3.854e-08
1381.0,1.004e-09
1382.0,8.099e-10
1383.0,1.211e-11
1384.0,1.588e-10
1385.0,7.592e-10
1386.0,7.141e-10
1387.0,8.637e-08
1388.0,1.699e-09
1389.0,2.918e-07
1390.0,2.503e-07
1391.0,1.665e-07
1392.0,1.08e-08
1393.0,5.727e-08
1394.0,2.946e-08
1395.0,2.159e-10
1396.0,1.043e-12
1397.0,2.253e-08
1398.0,6.658e-07
1399.0,4.213e-07
1400.0,4.461e-13
1401.0,1.851e-12
1402.0,1.27e-06
1403.0,1.508e-06
1404.0,4.503e-07
1405.0,1.022e-10
1406.0,1.15e-06
1407.0,1.079e-07
1408.0,9.371e-07
1409.0,3.112e-07
