interpolation:linear
wavelength,value
280.0,4.9579999999999997e-23
280.5,1.668e-21
281.0,9.039e-21
281.5,2.94e-19
282.0,4.946e-19
282.5,1.148e-18
283.0,3.54e-18
283.5,5.745e-18
284.0,9.401e-17
284.5,2.759e-16
285.0,7.084e-16
285.5,2.967e-15
286.0,1.161e-14
286.5,5.021e-14
287.0,1.419e-13
287.5,5.412e-13
288.0,1.729e-12
288.5,4.929e-12
289.0,1.271e-11
289.5,3.768e-11
290.0,1.04e-10
290.5,2.118e-10
291.0,4.553e-10
291.5,1.311e-09
292.0,2.688e-09
292.5,3.738e-09
293.0,7.934e-09
293.5,1.907e-08
294.0,2.972e-08
294.5,3.649e-08
295.0,6.134e-08
295.5,1.039e-07
296.0,1.946e-07
296.5,2.638e-07
297.0,3.472e-07
297.5,8.912e-07
298.0,1.348e-06
298.5,1.311e-06
299.0,2.79e-06
299.5,4.338e-06
300.0,4.585e-06
300.5,6.364e-06
301.0,1.071e-05
301.5,1.592e-05
302.0,1.311e-05
302.5,2.507e-05
303.0,4.359e-05
303.5,5.427e-05
304.0,5.176e-05
304.5,8.074e-05
305.0,0.0001313
305.5,0.0001579
306.0,0.0001557
306.5,0.0002005
307.0,0.0003216
307.5,0.0004631
308.0,0.0004954
308.5,0.0006094
309.0,0.000671
309.5,0.0009381
310.0,0.001034
310.5,0.001754
311.0,0.002374
311.5,0.002368
312.0,0.002794
312.5,0.003796
313.0,0.004361
313.5,0.004011
314.0,0.005726
314.5,0.00606
315.0,0.008215
315.5,0.006301
316.0,0.006355
316.5,0.01034
317.0,0.0128
317.5,0.01284
318.0,0.01091
318.5,0.01596
319.0,0.02057
319.5,0.01466
320.0,0.01735
320.5,0.02569
321.0,0.02662
321.5,0.02591
322.0,0.02344
322.5,0.02056
323.0,0.02276
323.5,0.03278
324.0,0.03901
324.5,0.03765
325.0,0.02915
325.5,0.04086
326.0,0.05453
326.5,0.05815
327.0,0.05661
327.5,0.05306
328.0,0.04335
328.5,0.05052
329.0,0.06552
329.5,0.07618
330.0,0.07535
330.5,0.05668
331.0,0.05653
331.5,0.06016
332.0,0.06942
332.5,0.07074
333.0,0.06933
333.5,0.05976
334.0,0.06072
334.5,0.07405
335.0,0.07183
335.5,0.0852
336.0,0.05895
336.5,0.06692
337.0,0.05364
337.5,0.06616
338.0,0.06759
338.5,0.07969
339.0,0.07912
339.5,0.07598
340.0,0.08753
340.5,0.07926
341.0,0.07864
341.5,0.07263
342.0,0.08695
342.5,0.0815
343.0,0.08932
343.5,0.08392
344.0,0.06096
344.5,0.06241
345.0,0.08316
345.5,0.08518
346.0,0.07256
346.5,0.08229
347.0,0.08809
347.5,0.07118
348.0,0.08148
348.5,0.08165
349.0,0.07585
349.5,0.07511
350.0,0.09297
350.5,0.09809
351.0,0.08749
351.5,0.08465
352.0,0.09124
352.5,0.07141
353.0,0.09013
353.5,0.09651
354.0,0.1003
354.5,0.1017
355.0,0.1014
355.5,0.09169
356.0,0.09603
356.5,0.08203
357.0,0.06778
357.5,0.08303
358.0,0.06585
358.5,0.0563
359.0,0.07875
359.5,0.1002
360.0,0.1064
360.5,0.08509
361.0,0.07767
361.5,0.08956
362.0,0.07755
362.5,0.1075
363.0,0.09661
363.5,0.08906
364.0,0.109
364.5,0.09323
365.0,0.095
365.5,0.1193
366.0,0.1265
366.5,0.119
367.0,0.116
367.5,0.1205
368.0,0.1055
368.5,0.1065
369.0,0.1151
369.5,0.1228
370.0,0.131
370.5,0.1018
371.0,0.1088
371.5,0.1362
372.0,0.09048
372.5,0.1086
373.0,0.1105
373.5,0.07199
374.0,0.1047
374.5,0.08677
375.0,0.08441
375.5,0.1261
376.0,0.1046
376.5,0.1085
377.0,0.1149
377.5,0.1346
378.0,0.146
378.5,0.138
379.0,0.114
379.5,0.1041
380.0,0.1083
380.5,0.1314
381.0,0.1318
381.5,0.1046
382.0,0.093
382.5,0.07939
383.0,0.07358
383.5,0.07094
384.0,0.07833
384.5,0.1153
385.0,0.1145
385.5,0.1067
386.0,0.09149
386.5,0.1203
387.0,0.1
387.5,0.1125
388.0,0.1039
388.5,0.1028
389.0,0.1111
389.5,0.1347
390.0,0.1353
390.5,0.1246
391.0,0.1469
391.5,0.1499
392.0,0.1264
392.5,0.1133
393.0,0.06309
393.5,0.04591
394.0,0.09351
394.5,0.119
395.0,0.1453
395.5,0.1477
396.0,0.1282
396.5,0.07505
397.0,0.05639
397.5,0.1148
398.0,0.1608
398.5,0.1663
399.0,0.1804
399.5,0.18
400.0,0.187
401.0,0.1872
402.0,0.1979
403.0,0.1884
404.0,0.1859
405.0,0.1861
406.0,0.1836
407.0,0.181
408.0,0.1882
409.0,0.2018
410.0,0.1767
411.0,0.1918
412.0,0.2066
413.0,0.2017
414.0,0.2046
415.0,0.2056
416.0,0.2097
417.0,0.2048
418.0,0.2013
419.0,0.2044
420.0,0.2038
421.0,0.2136
422.0,0.2033
423.0,0.1989
424.0,0.2106
425.0,0.2106
426.0,0.2058
427.0,0.2023
428.0,0.1973
429.0,0.1875
430.0,0.1644
431.0,0.163
432.0,0.211
433.0,0.2125
434.0,0.1975
435.0,0.2065
436.0,0.2333
437.0,0.2308
438.0,0.2105
439.0,0.2173
440.0,0.2247
441.0,0.2333
442.0,0.2505
443.0,0.2438
444.0,0.2498
445.0,0.2445
446.0,0.2342
447.0,0.254
448.0,0.2577
449.0,0.2596
450.0,0.2673
451.0,0.2776
452.0,0.2679
453.0,0.2524
454.0,0.2642
455.0,0.2659
456.0,0.2725
457.0,0.2772
458.0,0.2673
459.0,0.2662
460.0,0.2667
461.0,0.273
462.0,0.2757
463.0,0.274
464.0,0.2705
465.0,0.2681
466.0,0.2714
467.0,0.2662
468.0,0.2695
469.0,0.2709
470.0,0.2622
471.0,0.2621
472.0,0.2763
473.0,0.2728
474.0,0.2727
475.0,0.2744
476.0,0.2653
477.0,0.2654
478.0,0.2729
479.0,0.2717
480.0,0.2727
481.0,0.2785
482.0,0.2807
483.0,0.2783
484.0,0.2733
485.0,0.2611
486.0,0.229
487.0,0.2406
488.0,0.264
489.0,0.2646
490.0,0.2789
491.0,0.2745
492.0,0.2594
493.0,0.2681
494.0,0.2709
495.0,0.2735
496.0,0.2752
497.0,0.2794
498.0,0.2663
499.0,0.2693
500.0,0.2609
501.0,0.2555
502.0,0.2507
503.0,0.2597
504.0,0.2499
505.0,0.2615
506.0,0.27
507.0,0.2572
508.0,0.2502
509.0,0.2582
510.0,0.2576
511.0,0.2653
512.0,0.2685
513.0,0.2543
514.0,0.2528
515.0,0.2503
516.0,0.2495
517.0,0.2218
518.0,0.2331
519.0,0.2444
520.0,0.2532
521.0,0.2554
522.0,0.2553
523.0,0.2505
524.0,0.2587
525.0,0.2608
526.0,0.2488
527.0,0.2337
528.0,0.2465
529.0,0.2593
530.0,0.2552
531.0,0.2586
532.0,0.2495
533.0,0.2422
534.0,0.2497
535.0,0.2556
536.0,0.2583
537.0,0.2485
538.0,0.2531
539.0,0.2509
540.0,0.2403
541.0,0.2408
542.0,0.2478
543.0,0.246
544.0,0.2493
545.0,0.2488
546.0,0.249
547.0,0.2497
548.0,0.2471
549.0,0.2481
550.0,0.2511
551.0,0.2482
552.0,0.2499
553.0,0.2453
554.0,0.251
555.0,0.2513
556.0,0.2478
557.0,0.2398
558.0,0.2374
559.0,0.2323
560.0,0.2348
561.0,0.2373
562.0,0.2349
563.0,0.2405
564.0,0.2333
565.0,0.2307
566.0,0.2268
567.0,0.2303
568.0,0.2264
569.0,0.2176
570.0,0.2179
571.0,0.2174
572.0,0.2203
573.0,0.2222
574.0,0.2209
575.0,0.216
576.0,0.214
577.0,0.2167
578.0,0.2145
579.0,0.217
580.0,0.2237
581.0,0.2269
582.0,0.233
583.0,0.235
584.0,0.238
585.0,0.2328
586.0,0.2281
587.0,0.2321
588.0,0.2222
589.0,0.1887
590.0,0.1979
591.0,0.2144
592.0,0.2088
593.0,0.2156
594.0,0.2127
595.0,0.204
596.0,0.219
597.0,0.2147
598.0,0.2163
599.0,0.2173
600.0,0.2193
601.0,0.2189
602.0,0.2177
603.0,0.222
604.0,0.2261
605.0,0.2254
606.0,0.2252
607.0,0.2283
608.0,0.2265
609.0,0.2276
610.0,0.2267
611.0,0.2285
612.0,0.2284
613.0,0.2259
614.0,0.2236
615.0,0.2291
616.0,0.2221
617.0,0.2221
618.0,0.2311
619.0,0.229
620.0,0.2305
621.0,0.2302
622.0,0.2272
623.0,0.2235
624.0,0.2201
625.0,0.2194
626.0,0.2223
627.0,0.2231
628.0,0.188
629.0,0.2105
630.0,0.2049
631.0,0.2165
632.0,0.2153
633.0,0.2247
634.0,0.2249
635.0,0.2296
636.0,0.2279
637.0,0.2327
638.0,0.2367
639.0,0.2349
640.0,0.2337
641.0,0.2344
642.0,0.2343
643.0,0.2376
644.0,0.2377
645.0,0.2376
646.0,0.2296
647.0,0.2209
648.0,0.222
649.0,0.2164
650.0,0.2252
651.0,0.2362
652.0,0.2194
653.0,0.2337
654.0,0.2316
655.0,0.2194
656.0,0.197
657.0,0.2028
658.0,0.2298
659.0,0.2325
660.0,0.2342
661.0,0.2364
662.0,0.2358
663.0,0.2315
664.0,0.2362
665.0,0.2379
666.0,0.2387
667.0,0.2393
668.0,0.2403
669.0,0.2446
670.0,0.2439
671.0,0.2443
672.0,0.2425
673.0,0.2466
674.0,0.2461
675.0,0.2442
676.0,0.2463
677.0,0.2442
678.0,0.2451
679.0,0.2415
680.0,0.2436
681.0,0.2421
682.0,0.2419
683.0,0.2416
684.0,0.2403
685.0,0.2428
686.0,0.2409
687.0,0.08236
688.0,0.1251
689.0,0.1266
690.0,0.1447
691.0,0.1675
692.0,0.187
693.0,0.1853
694.0,0.1871
695.0,0.2058
696.0,0.207
697.0,0.2318
698.0,0.2279
699.0,0.2138
700.0,0.2108
701.0,0.2047
702.0,0.2096
703.0,0.2114
704.0,0.2234
705.0,0.2235
706.0,0.2251
707.0,0.2263
708.0,0.2264
709.0,0.2306
710.0,0.2284
711.0,0.2296
712.0,0.2308
713.0,0.2266
714.0,0.2281
715.0,0.2171
716.0,0.2164
717.0,0.1576
718.0,0.1433
719.0,0.129
720.0,0.1318
721.0,0.1614
722.0,0.2027
723.0,0.1802
724.0,0.1512
725.0,0.1459
726.0,0.1533
727.0,0.1629
728.0,0.1443
729.0,0.1597
730.0,0.1656
731.0,0.1571
732.0,0.1793
733.0,0.1992
734.0,0.2076
735.0,0.2013
736.0,0.2001
737.0,0.2013
738.0,0.2133
739.0,0.2096
740.0,0.2176
741.0,0.2169
742.0,0.2189
743.0,0.225
744.0,0.2254
745.0,0.2264
746.0,0.2274
747.0,0.2282
748.0,0.2278
749.0,0.2253
750.0,0.2253
751.0,0.2231
752.0,0.2242
753.0,0.2254
754.0,0.2259
755.0,0.2246
756.0,0.2247
757.0,0.2249
758.0,0.2219
759.0,0.2111
760.0,0.003725
761.0,0.001541
762.0,0.03772
763.0,0.007792
764.0,0.01863
765.0,0.03752
766.0,0.06754
767.0,0.1183
768.0,0.1729
769.0,0.1861
770.0,0.2039
771.0,0.2109
772.0,0.213
773.0,0.215
774.0,0.2143
775.0,0.2129
776.0,0.2157
777.0,0.2129
778.0,0.2116
779.0,0.2117
780.0,0.2107
781.0,0.211
782.0,0.2124
783.0,0.2089
784.0,0.2101
785.0,0.2081
786.0,0.21
787.0,0.2016
788.0,0.1971
789.0,0.1971
790.0,0.1863
791.0,0.1937
792.0,0.1932
793.0,0.1895
794.0,0.1985
795.0,0.2002
796.0,0.1857
797.0,0.1849
798.0,0.1989
799.0,0.1962
800.0,0.1909
801.0,0.1881
802.0,0.1872
803.0,0.1846
804.0,0.1859
805.0,0.1879
806.0,0.1976
807.0,0.1944
808.0,0.1947
809.0,0.1877
810.0,0.1844
811.0,0.1816
812.0,0.1692
813.0,0.1644
814.0,0.1316
815.0,0.1322
816.0,0.1207
817.0,0.1231
818.0,0.1156
819.0,0.14
820.0,0.1285
821.0,0.1681
822.0,0.1603
823.0,0.08393
824.0,0.1485
825.0,0.1658
826.0,0.153
827.0,0.1678
828.0,0.1246
829.0,0.1535
830.0,0.1506
831.0,0.1507
832.0,0.1429
833.0,0.1597
834.0,0.1495
835.0,0.1778
836.0,0.16
837.0,0.178
838.0,0.1677
839.0,0.1751
840.0,0.1801
841.0,0.1755
842.0,0.1792
843.0,0.1827
844.0,0.1783
845.0,0.1867
846.0,0.1866
847.0,0.1841
848.0,0.1814
849.0,0.1763
850.0,0.169
851.0,0.1773
852.0,0.1769
853.0,0.1715
854.0,0.147
855.0,0.1631
856.0,0.1775
857.0,0.1826
858.0,0.1807
859.0,0.1816
860.0,0.1824
861.0,0.1813
862.0,0.1844
863.0,0.1888
864.0,0.1794
865.0,0.178
866.0,0.1601
867.0,0.1671
868.0,0.1819
869.0,0.1782
870.0,0.1833
871.0,0.1808
872.0,0.1803
873.0,0.1799
874.0,0.1778
875.0,0.1741
876.0,0.1758
877.0,0.1777
878.0,0.1794
879.0,0.1767
880.0,0.1729
881.0,0.1696
882.0,0.1729
883.0,0.1743
884.0,0.1732
885.0,0.1744
886.0,0.1636
887.0,0.1674
888.0,0.1688
889.0,0.1729
890.0,0.1686
891.0,0.1697
892.0,0.1612
893.0,0.1532
894.0,0.1403
895.0,0.1239
896.0,0.1146
897.0,0.08956
898.0,0.1014
899.0,0.06777
900.0,0.1097
901.0,0.0711
902.0,0.09504
903.0,0.09146
904.0,0.1385
905.0,0.1312
906.0,0.1199
907.0,0.08184
908.0,0.08726
909.0,0.0993
910.0,0.07788
911.0,0.09215
912.0,0.09533
913.0,0.07852
914.0,0.08018
915.0,0.08532
916.0,0.07131
917.0,0.1002
918.0,0.07201
919.0,0.1058
920.0,0.1165
921.0,0.1196
922.0,0.0994
923.0,0.1167
924.0,0.09875
925.0,0.09728
926.0,0.09652
927.0,0.1152
928.0,0.06345
929.0,0.053
930.0,0.03346
931.0,0.03095
932.0,0.01607
933.0,0.01096
934.0,0.002796
935.0,0.01263
936.0,0.005387
937.0,0.005485
938.0,0.00749
939.0,0.02975
940.0,0.04135
941.0,0.02475
942.0,0.03134
943.0,0.01623
944.0,0.02172
945.0,0.02698
946.0,0.008334
947.0,0.0255
948.0,0.01831
949.0,0.04083
950.0,0.004689
951.0,0.04019
952.0,0.01489
953.0,0.02355
954.0,0.03421
955.0,0.02458
956.0,0.03178
957.0,0.01482
958.0,0.04982
959.0,0.03145
960.0,0.03548
961.0,0.04634
962.0,0.04386
963.0,0.05682
964.0,0.05042
965.0,0.05558
966.0,0.05584
967.0,0.05434
968.0,0.1011
969.0,0.1001
970.0,0.09024
971.0,0.1162
972.0,0.1077
973.0,0.08107
974.0,0.07668
975.0,0.08266
976.0,0.07119
977.0,0.09743
978.0,0.08565
979.0,0.09277
980.0,0.08595
981.0,0.1158
982.0,0.1061
983.0,0.09936
984.0,0.126
985.0,0.105
986.0,0.1327
987.0,0.1264
988.0,0.1267
989.0,0.1353
990.0,0.1255
991.0,0.1352
992.0,0.1365
993.0,0.1293
994.0,0.137
995.0,0.1377
996.0,0.1362
997.0,0.1368
998.0,0.1358
999.0,0.1356
1000.0,0.1334
1001.0,0.1365
1002.0,0.1274
1003.0,0.1338
1004.0,0.129
1005.0,0.1262
1006.0,0.1303
1007.0,0.1335
1008.0,0.1319
1009.0,0.1301
1010.0,0.1291
1011.0,0.1329
1012.0,0.1309
1013.0,0.1329
1014.0,0.132
1015.0,0.131
1016.0,0.1303
1017.0,0.1304
1018.0,0.1306
1019.0,0.1257
1020.0,0.1296
1021.0,0.1297
1022.0,0.128
1023.0,0.1293
1024.0,0.1255
1025.0,0.1298
1026.0,0.1287
1027.0,0.1286
1028.0,0.1281
1029.0,0.1264
1030.0,0.128
1031.0,0.1272
1032.0,0.127
1033.0,0.1251
1034.0,0.1252
1035.0,0.1256
1036.0,0.126
1037.0,0.124
1038.0,0.1245
1039.0,0.1243
1040.0,0.1237
1041.0,0.124
1042.0,0.1231
1043.0,0.1226
1044.0,0.1229
1045.0,0.1211
1046.0,0.1196
1047.0,0.1206
1048.0,0.1211
1049.0,0.1204
1050.0,0.1197
1051.0,0.1193
1052.0,0.1186
1053.0,0.1174
1054.0,0.1174
1055.0,0.1171
1056.0,0.1163
1057.0,0.1157
1058.0,0.1126
1059.0,0.1123
1060.0,0.112
1061.0,0.1117
1062.0,0.1119
1063.0,0.1105
1064.0,0.1119
1065.0,0.1104
1066.0,0.1088
1067.0,0.11
1068.0,0.107
1069.0,0.1042
1070.0,0.1073
1071.0,0.1107
1072.0,0.1081
1073.0,0.1068
1074.0,0.1116
1075.0,0.1018
1076.0,0.1113
1077.0,0.107
1078.0,0.1036
1079.0,0.1104
1080.0,0.1051
1081.0,0.0995
1082.0,0.1049
1083.0,0.1065
1084.0,0.09834
1085.0,0.1057
1086.0,0.09076
1087.0,0.09739
1088.0,0.1057
1089.0,0.09751
1090.0,0.09362
1091.0,0.1041
1092.0,0.1045
1093.0,0.07759
1094.0,0.09421
1095.0,0.08072
1096.0,0.07459
1097.0,0.1022
1098.0,0.07151
1099.0,0.07595
1100.0,0.06691
1101.0,0.06951
1102.0,0.06333
1103.0,0.0606
1104.0,0.06115
1105.0,0.07307
1106.0,0.04121
1107.0,0.06698
1108.0,0.04788
1109.0,0.04868
1110.0,0.06359
1111.0,0.03125
1112.0,0.04876
1113.0,0.02096
1114.0,0.02345
1115.0,0.01837
1116.0,0.01062
1117.0,0.001594
1118.0,0.01211
1119.0,0.003461
1120.0,0.003933
1121.0,0.006169
1122.0,0.001202
1123.0,0.003599
1124.0,0.003009
1125.0,0.004529
1126.0,0.0004535
1127.0,0.00522
1128.0,0.001603
1129.0,0.001782
1130.0,0.001133
1131.0,0.01622
1132.0,0.01123
1133.0,0.004098
1134.0,0.0003426
1135.0,0.0001667
1136.0,0.002626
1137.0,0.01474
1138.0,0.009431
1139.0,0.02339
1140.0,0.01577
1141.0,0.009121
1142.0,0.01188
1143.0,0.02141
1144.0,0.003995
1145.0,0.003846
1146.0,0.004132
1147.0,0.0004864
1148.0,0.01746
1149.0,0.01157
1150.0,0.005225
1151.0,0.009422
1152.0,0.01436
1153.0,0.01649
1154.0,0.004281
1155.0,0.02439
1156.0,0.01986
1157.0,0.0278
1158.0,0.02735
1159.0,0.03117
1160.0,0.02592
1161.0,0.03855
1162.0,0.03783
1163.0,0.06537
1164.0,0.05109
1165.0,0.04345
1166.0,0.04746
1167.0,0.054
1168.0,0.05394
1169.0,0.05621
1170.0,0.06573
1171.0,0.06408
1172.0,0.06874
1173.0,0.06567
1174.0,0.03747
1175.0,0.06759
1176.0,0.08129
1177.0,0.07315
1178.0,0.04729
1179.0,0.08173
1180.0,0.0655
1181.0,0.06777
1182.0,0.03763
1183.0,0.06813
1184.0,0.06054
1185.0,0.0555
1186.0,0.07588
1187.0,0.06885
1188.0,0.03631
1189.0,0.06374
1190.0,0.07519
1191.0,0.06437
1192.0,0.07696
1193.0,0.07126
1194.0,0.07513
1195.0,0.0663
1196.0,0.06145
1197.0,0.07673
1198.0,0.06878
1199.0,0.04913
1200.0,0.07057
1201.0,0.06428
1202.0,0.06756
1203.0,0.06434
1204.0,0.05292
1205.0,0.07144
1206.0,0.08343
1207.0,0.06578
1208.0,0.06765
1209.0,0.06917
1210.0,0.07442
1211.0,0.06782
1212.0,0.06101
1213.0,0.07763
1214.0,0.0644
1215.0,0.06294
1216.0,0.07831
1217.0,0.07447
1218.0,0.07747
1219.0,0.07519
1220.0,0.07776
1221.0,0.08011
1222.0,0.07711
1223.0,0.07548
1224.0,0.07265
1225.0,0.07892
1226.0,0.08124
1227.0,0.06936
1228.0,0.08258
1229.0,0.0813
1230.0,0.07887
1231.0,0.08443
1232.0,0.0838
1233.0,0.07647
1234.0,0.0855
1235.0,0.08415
1236.0,0.08541
1237.0,0.08257
1238.0,0.08514
1239.0,0.084
1240.0,0.08459
1241.0,0.08287
1242.0,0.08386
1243.0,0.08326
1244.0,0.08342
1245.0,0.08403
1246.0,0.0836
1247.0,0.08288
1248.0,0.08214
1249.0,0.08301
1250.0,0.08209
1251.0,0.08017
1252.0,0.08128
1253.0,0.07866
1254.0,0.07646
1255.0,0.08069
1256.0,0.07485
1257.0,0.07372
1258.0,0.07792
1259.0,0.06975
1260.0,0.07076
1261.0,0.06056
1262.0,0.05568
1263.0,0.05564
1264.0,0.04496
1265.0,0.05539
1266.0,0.0494
1267.0,0.05297
1268.0,0.04603
1269.0,0.01148
1270.0,0.05169
1271.0,0.0613
1272.0,0.06198
1273.0,0.06063
1274.0,0.06181
1275.0,0.06378
1276.0,0.06567
1277.0,0.06787
1278.0,0.07157
1279.0,0.07104
1280.0,0.07013
1281.0,0.06815
1282.0,0.06769
1283.0,0.07247
1284.0,0.07387
1285.0,0.07473
1286.0,0.07682
1287.0,0.07361
1288.0,0.07433
1289.0,0.06797
1290.0,0.07379
1291.0,0.07558
1292.0,0.0642
1293.0,0.0726
1294.0,0.07183
1295.0,0.06887
1296.0,0.06194
1297.0,0.05601
1298.0,0.06619
1299.0,0.07321
1300.0,0.05251
1301.0,0.05538
1302.0,0.0664
1303.0,0.05246
1304.0,0.03702
1305.0,0.06449
1306.0,0.06317
1307.0,0.0405
1308.0,0.05387
1309.0,0.0609
1310.0,0.03874
1311.0,0.0497
1312.0,0.04772
1313.0,0.04408
1314.0,0.03635
1315.0,0.03452
1316.0,0.04736
1317.0,0.04342
1318.0,0.0508
1319.0,0.03054
1320.0,0.03091
1321.0,0.03955
1322.0,0.03807
1323.0,0.02176
1324.0,0.03044
1325.0,0.04503
1326.0,0.0344
1327.0,0.0314
1328.0,0.02439
1329.0,0.01301
1330.0,0.0201
1331.0,0.007413
1332.0,0.008572
1333.0,0.01282
1334.0,0.01454
1335.0,0.02067
1336.0,0.0133
1337.0,0.01155
1338.0,0.01206
1339.0,0.01241
1340.0,0.0135
1341.0,0.009701
1342.0,0.01077
1343.0,0.003659
1344.0,0.002488
1345.0,0.003074
1346.0,0.0005301
1347.0,0.0004228
1348.0,6.841e-06
1349.0,2.867e-05
1350.0,3.266e-05
1351.0,4.135e-06
1352.0,9.602e-07
1353.0,4.869e-08
1354.0,1.682e-07
1355.0,1.346e-09
1356.0,2.358e-08
1357.0,3.583e-08
1358.0,1.58e-09
1359.0,1.991e-10
1360.0,7.195e-10
1361.0,8.049e-13
1362.0,2.202e-15
1363.0,9.675e-10
1364.0,3.994e-10
1365.0,7.687e-16
1366.0,4.193e-09
1367.0,1.711e-09
1368.0,5.935e-18
1369.0,1.472e-10
1370.0,7.248e-11
1371.0,4.109e-12
1372.0,9.282e-10
1373.0,1.87e-08
1374.0,8.682e-08
1375.0,1.573e-07
1376.0,1.422e-07
1377.0,6.485e-08
1378.0,6.324e-07
1379.0,2.716e-08
1380.0,3.874e-08
1381.0,1.009e-09
1382.0,8.135e-10
1383.0,1.216e-11
1384.0,1.595e-10
1385.0,7.626e-10
1386.0,7.172e-10
1387.0,8.675e-08
1388.0,1.708e-09
1389.0,2.935e-07
1390.0,2.516e-07
1391.0,1.674e-07
1392.0,1.087e-08
1393.0,5.772e-08
1394.0,2.959e-08
1395.0,2.168e-10
1396.0,1.048e-12
1397.0,2.267e-08
1398.0,6.699e-07
1399.0,4.242e-07
1400.0,4.481e-13
1401.0,1.859e-12
1402.0,1.388e-06
1403.0,1.577e-06
1404.0,4.63e-07
1405.0,1.027e-10
1406.0,1.163e-06
1407.0,1.154e-07
1408.0,9.495e-07
1409.0,3.13e-07
1410.0,2.563e-07
