interpolation:linear
wavelength,value
280.0,2.491e-20
280.5,7.198e-19
281.0,3.699e-18
281.5,4.173e-19
282.0,1.702e-18
282.5,4.75e-18
283.0,1.573e-17
283.5,2.591e-17
284.0,4.111e-16
284.5,1.165e-15
285.0,1.834e-15
285.5,1.057e-14
286.0,4.419e-14
286.5,2.064e-13
287.0,6.01e-13
287.5,2.329e-12
288.0,7.499e-12
288.5,2.908e-11
289.0,9.533e-11
289.5,3.487e-10
290.0,1.115e-09
290.5,2.547e-09
291.0,6.209e-09
291.5,2.074e-08
292.0,5.716e-08
292.5,9.055e-08
293.0,2.271e-07
293.5,6.885e-07
294.0,1.271e-06
294.5,1.683e-06
295.0,3.342e-06
295.5,8.454e-06
296.0,1.636e-05
296.5,2.292e-05
297.0,3.106e-05
297.5,8.338e-05
298.0,0.0001314
298.5,0.0001322
299.0,0.0002916
299.5,0.0004831
300.0,0.0005312
300.5,0.0007693
301.0,0.001392
301.5,0.002221
302.0,0.001904
302.5,0.003624
303.0,0.006289
303.5,0.007743
304.0,0.007158
304.5,0.01023
305.0,0.01461
305.5,0.01611
306.0,0.01537
306.5,0.01869
307.0,0.02629
307.5,0.03323
308.0,0.03482
308.5,0.04012
309.0,0.03886
309.5,0.04297
310.0,0.04248
310.5,0.06826
311.0,0.08455
311.5,0.08114
312.0,0.0788
312.5,0.09404
313.0,0.101
313.5,0.09896
314.0,0.1208
314.5,0.1038
315.0,0.1357
315.5,0.1152
316.0,0.09811
316.5,0.1378
317.0,0.1711
317.5,0.1792
318.0,0.1377
318.5,0.1661
319.0,0.1942
319.5,0.1621
320.0,0.1965
320.5,0.2387
321.0,0.2069
321.5,0.1978
322.0,0.217
322.5,0.1885
323.0,0.1842
323.5,0.2224
324.0,0.2588
324.5,0.2648
325.0,0.231
325.5,0.2926
326.0,0.3561
326.5,0.353
327.0,0.3531
327.5,0.3426
328.0,0.3092
328.5,0.3197
329.0,0.3779
329.5,0.4272
330.0,0.4323
330.5,0.3495
331.0,0.3572
331.5,0.3604
332.0,0.3851
332.5,0.3791
333.0,0.379
333.5,0.3458
334.0,0.3547
334.5,0.4056
335.0,0.3791
335.5,0.4428
336.0,0.3063
336.5,0.3596
337.0,0.2962
337.5,0.3689
338.0,0.3575
338.5,0.4125
339.0,0.4082
339.5,0.3926
340.0,0.4615
340.5,0.4157
341.0,0.4055
341.5,0.3722
342.0,0.4447
342.5,0.416
343.0,0.4576
343.5,0.431
344.0,0.3184
344.5,0.3217
345.0,0.4255
345.5,0.4344
346.0,0.3691
346.5,0.4179
347.0,0.4487
347.5,0.3628
348.0,0.4135
348.5,0.4132
349.0,0.3833
349.5,0.3795
350.0,0.4694
350.5,0.4951
351.0,0.4423
351.5,0.43
352.0,0.4617
352.5,0.3603
353.0,0.4537
353.5,0.4851
354.0,0.5036
354.5,0.5107
355.0,0.5091
355.5,0.4598
356.0,0.4811
356.5,0.4108
357.0,0.3394
357.5,0.4156
358.0,0.3293
358.5,0.2814
359.0,0.3937
359.5,0.5018
360.0,0.5319
360.5,0.4251
361.0,0.3875
361.5,0.4461
362.0,0.3858
362.5,0.5339
363.0,0.4795
363.5,0.4416
364.0,0.5401
364.5,0.4616
365.0,0.4702
365.5,0.5901
366.0,0.6252
366.5,0.5874
367.0,0.5721
367.5,0.5937
368.0,0.5196
368.5,0.5243
369.0,0.5662
369.5,0.6035
370.0,0.6433
370.5,0.4993
371.0,0.5335
371.5,0.6675
372.0,0.4431
372.5,0.5313
373.0,0.5404
373.5,0.3516
374.0,0.5109
374.5,0.4231
375.0,0.4113
375.5,0.6142
376.0,0.5091
376.5,0.5277
377.0,0.5587
377.5,0.6536
378.0,0.7086
378.5,0.6698
379.0,0.5528
379.5,0.505
380.0,0.525
380.5,0.6359
381.0,0.6373
381.5,0.5052
382.0,0.4486
382.5,0.3825
383.0,0.3541
383.5,0.341
384.0,0.3762
384.5,0.5534
385.0,0.5488
385.5,0.5111
386.0,0.4378
386.5,0.575
387.0,0.4779
387.5,0.5368
388.0,0.4956
388.5,0.4899
389.0,0.5289
389.5,0.6406
390.0,0.6429
390.5,0.5917
391.0,0.6965
391.5,0.7105
392.0,0.5984
392.5,0.5358
393.0,0.2981
393.5,0.2167
394.0,0.441
394.5,0.5607
395.0,0.6842
395.5,0.6951
396.0,0.6027
396.5,0.3523
397.0,0.2644
397.5,0.5378
398.0,0.7531
398.5,0.7785
399.0,0.8429
399.5,0.8402
400.0,0.8725
401.0,0.8863
402.0,0.935
403.0,0.8882
404.0,0.8746
405.0,0.8745
406.0,0.8603
407.0,0.8464
408.0,0.8795
409.0,0.9414
410.0,0.8225
411.0,0.8909
412.0,0.9568
413.0,0.9332
414.0,0.9446
415.0,0.947
416.0,0.9636
417.0,0.9399
418.0,0.9225
419.0,0.9346
420.0,0.9305
421.0,0.9735
422.0,0.9253
423.0,0.9038
424.0,0.956
425.0,0.9542
426.0,0.9293
427.0,0.912
428.0,0.8884
429.0,0.8414
430.0,0.7363
431.0,0.7299
432.0,0.9422
433.0,0.9474
434.0,0.8797
435.0,0.9188
436.0,1.035
437.0,1.021
438.0,0.9297
439.0,0.9618
440.0,0.9924
441.0,1.028
442.0,1.103
443.0,1.074
444.0,1.097
445.0,1.074
446.0,1.024
447.0,1.107
448.0,1.125
449.0,1.129
450.0,1.16
451.0,1.203
452.0,1.159
453.0,1.09
454.0,1.138
455.0,1.145
456.0,1.172
457.0,1.192
458.0,1.151
459.0,1.145
460.0,1.148
461.0,1.175
462.0,1.184
463.0,1.175
464.0,1.156
465.0,1.141
466.0,1.152
467.0,1.131
468.0,1.144
469.0,1.15
470.0,1.113
471.0,1.112
472.0,1.172
473.0,1.156
474.0,1.158
475.0,1.169
476.0,1.134
477.0,1.137
478.0,1.169
479.0,1.162
480.0,1.164
481.0,1.185
482.0,1.191
483.0,1.176
484.0,1.152
485.0,1.097
486.0,0.9588
487.0,1.005
488.0,1.102
489.0,1.106
490.0,1.163
491.0,1.143
492.0,1.079
493.0,1.115
494.0,1.126
495.0,1.135
496.0,1.142
497.0,1.16
498.0,1.106
499.0,1.12
500.0,1.088
501.0,1.068
502.0,1.053
503.0,1.097
504.0,1.07
505.0,1.107
506.0,1.143
507.0,1.088
508.0,1.053
509.0,1.083
510.0,1.077
511.0,1.105
512.0,1.117
513.0,1.057
514.0,1.05
515.0,1.039
516.0,1.037
517.0,0.9213
518.0,0.9686
519.0,1.016
520.0,1.053
521.0,1.063
522.0,1.064
523.0,1.045
524.0,1.083
525.0,1.096
526.0,1.047
527.0,0.9866
528.0,1.044
529.0,1.1
530.0,1.085
531.0,1.101
532.0,1.063
533.0,1.032
534.0,1.062
535.0,1.085
536.0,1.095
537.0,1.052
538.0,1.07
539.0,1.061
540.0,1.018
541.0,1.025
542.0,1.057
543.0,1.046
544.0,1.064
545.0,1.061
546.0,1.066
547.0,1.065
548.0,1.052
549.0,1.055
550.0,1.068
551.0,1.055
552.0,1.062
553.0,1.043
554.0,1.068
555.0,1.07
556.0,1.056
557.0,1.024
558.0,1.016
559.0,0.9973
560.0,1.01
561.0,1.023
562.0,1.016
563.0,1.044
564.0,1.016
565.0,1.007
566.0,0.9926
567.0,1.012
568.0,1.003
569.0,0.9807
570.0,0.9802
571.0,0.974
572.0,0.9982
573.0,1.009
574.0,1.006
575.0,0.9875
576.0,0.9785
577.0,0.989
578.0,0.9738
579.0,0.9771
580.0,0.9948
581.0,0.9993
582.0,1.018
583.0,1.02
584.0,1.028
585.0,1.003
586.0,0.9822
587.0,1.004
588.0,0.9813
589.0,0.8724
590.0,0.9121
591.0,0.9633
592.0,0.9522
593.0,0.965
594.0,0.9588
595.0,0.9362
596.0,0.9707
597.0,0.9607
598.0,0.9576
599.0,0.9581
600.0,0.9588
601.0,0.9505
602.0,0.944
603.0,0.9594
604.0,0.9752
605.0,0.97
606.0,0.9658
607.0,0.9751
608.0,0.964
609.0,0.9655
610.0,0.9583
611.0,0.9632
612.0,0.9602
613.0,0.948
614.0,0.9349
615.0,0.955
616.0,0.9234
617.0,0.9214
618.0,0.9567
619.0,0.947
620.0,0.953
621.0,0.9541
622.0,0.9431
623.0,0.929
624.0,0.9129
625.0,0.9108
626.0,0.9243
627.0,0.9352
628.0,0.8798
629.0,0.9153
630.0,0.8944
631.0,0.9124
632.0,0.9011
633.0,0.9276
634.0,0.9179
635.0,0.9318
636.0,0.9191
637.0,0.9339
638.0,0.9423
639.0,0.9315
640.0,0.9222
641.0,0.9214
642.0,0.917
643.0,0.9293
644.0,0.926
645.0,0.9277
646.0,0.9068
647.0,0.8978
648.0,0.8988
649.0,0.8815
650.0,0.8835
651.0,0.9214
652.0,0.8855
653.0,0.9091
654.0,0.8987
655.0,0.8665
656.0,0.7671
657.0,0.7876
658.0,0.882
659.0,0.888
660.0,0.8916
661.0,0.8978
662.0,0.9
663.0,0.8821
664.0,0.8919
665.0,0.8921
666.0,0.8926
667.0,0.8915
668.0,0.8917
669.0,0.9053
670.0,0.9013
671.0,0.901
672.0,0.8932
673.0,0.9065
674.0,0.9031
675.0,0.8947
676.0,0.9008
677.0,0.8918
678.0,0.8942
679.0,0.8797
680.0,0.8867
681.0,0.8808
682.0,0.8797
683.0,0.878
684.0,0.8736
685.0,0.881
686.0,0.8759
687.0,0.6094
688.0,0.7008
689.0,0.7029
690.0,0.7328
691.0,0.7662
692.0,0.7901
693.0,0.7841
694.0,0.7776
695.0,0.8064
696.0,0.8075
697.0,0.8526
698.0,0.8395
699.0,0.8222
700.0,0.8123
701.0,0.805
702.0,0.8095
703.0,0.8109
704.0,0.8352
705.0,0.8365
706.0,0.8351
707.0,0.8355
708.0,0.8373
709.0,0.8375
710.0,0.838
711.0,0.8365
712.0,0.8335
713.0,0.8255
714.0,0.8285
715.0,0.8034
716.0,0.8042
717.0,0.7077
718.0,0.6517
719.0,0.598
720.0,0.6272
721.0,0.6861
722.0,0.7781
723.0,0.7279
724.0,0.6598
725.0,0.6507
726.0,0.6804
727.0,0.6877
728.0,0.6495
729.0,0.6701
730.0,0.7091
731.0,0.6796
732.0,0.7231
733.0,0.7617
734.0,0.7787
735.0,0.7632
736.0,0.7621
737.0,0.7653
738.0,0.7746
739.0,0.7594
740.0,0.7784
741.0,0.7702
742.0,0.7705
743.0,0.79
744.0,0.7874
745.0,0.7874
746.0,0.791
747.0,0.7926
748.0,0.791
749.0,0.7819
750.0,0.7814
751.0,0.7735
752.0,0.7768
753.0,0.7807
754.0,0.7825
755.0,0.778
756.0,0.7777
757.0,0.7788
758.0,0.7692
759.0,0.755
760.0,0.1524
761.0,0.08551
762.0,0.4139
763.0,0.2227
764.0,0.3207
765.0,0.414
766.0,0.4953
767.0,0.6121
768.0,0.6962
769.0,0.7086
770.0,0.7302
771.0,0.7349
772.0,0.7361
773.0,0.7412
774.0,0.7375
775.0,0.7319
776.0,0.7407
777.0,0.731
778.0,0.7265
779.0,0.7271
780.0,0.723
781.0,0.7238
782.0,0.7283
783.0,0.7156
784.0,0.719
785.0,0.7137
786.0,0.7217
787.0,0.7101
788.0,0.7018
789.0,0.7017
790.0,0.6846
791.0,0.689
792.0,0.6837
793.0,0.6728
794.0,0.6827
795.0,0.6946
796.0,0.6754
797.0,0.6763
798.0,0.694
799.0,0.69
800.0,0.6785
801.0,0.6769
802.0,0.6749
803.0,0.67
804.0,0.6707
805.0,0.668
806.0,0.6858
807.0,0.6777
808.0,0.6782
809.0,0.6662
810.0,0.6613
811.0,0.6632
812.0,0.6457
813.0,0.6331
814.0,0.5619
815.0,0.5583
816.0,0.5203
817.0,0.5292
818.0,0.5105
819.0,0.5665
820.0,0.5352
821.0,0.6198
822.0,0.603
823.0,0.4193
824.0,0.5875
825.0,0.6092
826.0,0.5879
827.0,0.6185
828.0,0.5296
829.0,0.5839
830.0,0.5768
831.0,0.5787
832.0,0.5619
833.0,0.5952
834.0,0.5758
835.0,0.6289
836.0,0.6043
837.0,0.6305
838.0,0.6119
839.0,0.6207
840.0,0.6341
841.0,0.6255
842.0,0.6262
843.0,0.6252
844.0,0.6168
845.0,0.6372
846.0,0.6343
847.0,0.6222
848.0,0.6187
849.0,0.6011
850.0,0.5759
851.0,0.61
852.0,0.6056
853.0,0.5827
854.0,0.5033
855.0,0.5527
856.0,0.6041
857.0,0.6174
858.0,0.6129
859.0,0.6133
860.0,0.6143
861.0,0.611
862.0,0.6205
863.0,0.6352
864.0,0.6034
865.0,0.5981
866.0,0.5378
867.0,0.5612
868.0,0.6107
869.0,0.598
870.0,0.6151
871.0,0.6067
872.0,0.6045
873.0,0.6033
874.0,0.5961
875.0,0.5841
876.0,0.5902
877.0,0.5961
878.0,0.6026
879.0,0.5934
880.0,0.5806
881.0,0.5721
882.0,0.5845
883.0,0.5862
884.0,0.5835
885.0,0.588
886.0,0.5608
887.0,0.5664
888.0,0.575
889.0,0.5811
890.0,0.5767
891.0,0.5755
892.0,0.5595
893.0,0.5427
894.0,0.5251
895.0,0.498
896.0,0.4698
897.0,0.406
898.0,0.4417
899.0,0.3389
900.0,0.4508
901.0,0.3551
902.0,0.4128
903.0,0.4182
904.0,0.5211
905.0,0.504
906.0,0.4723
907.0,0.3873
908.0,0.3944
909.0,0.4256
910.0,0.3794
911.0,0.4025
912.0,0.4202
913.0,0.3852
914.0,0.3813
915.0,0.4132
916.0,0.3506
917.0,0.4417
918.0,0.3595
919.0,0.4489
920.0,0.4519
921.0,0.4697
922.0,0.422
923.0,0.4536
924.0,0.4327
925.0,0.4234
926.0,0.428
927.0,0.4771
928.0,0.3557
929.0,0.3262
930.0,0.2585
931.0,0.2446
932.0,0.1784
933.0,0.1462
934.0,0.08259
935.0,0.1486
936.0,0.09431
937.0,0.09577
938.0,0.1172
939.0,0.237
940.0,0.2836
941.0,0.2161
942.0,0.2489
943.0,0.1653
944.0,0.1726
945.0,0.2224
946.0,0.1153
947.0,0.224
948.0,0.1648
949.0,0.2978
950.0,0.0859
951.0,0.2929
952.0,0.16
953.0,0.2049
954.0,0.2493
955.0,0.2071
956.0,0.1999
957.0,0.1605
958.0,0.2806
959.0,0.225
960.0,0.2522
961.0,0.2815
962.0,0.2665
963.0,0.3058
964.0,0.2806
965.0,0.3045
966.0,0.3049
967.0,0.3037
968.0,0.4023
969.0,0.4206
970.0,0.3869
971.0,0.4408
972.0,0.422
973.0,0.3696
974.0,0.3511
975.0,0.3636
976.0,0.3464
977.0,0.392
978.0,0.3733
979.0,0.3903
980.0,0.3674
981.0,0.4381
982.0,0.4197
983.0,0.4034
984.0,0.4505
985.0,0.4181
986.0,0.4579
987.0,0.4496
988.0,0.4487
989.0,0.4562
990.0,0.446
991.0,0.4576
992.0,0.4602
993.0,0.4505
994.0,0.46
995.0,0.4594
996.0,0.4574
997.0,0.458
998.0,0.4559
999.0,0.4542
1000.0,0.4512
1001.0,0.4566
1002.0,0.4446
1003.0,0.4486
1004.0,0.4378
1005.0,0.4215
1006.0,0.4381
1007.0,0.4473
1008.0,0.445
1009.0,0.4427
1010.0,0.4409
1011.0,0.4451
1012.0,0.4413
1013.0,0.4439
1014.0,0.4408
1015.0,0.4379
1016.0,0.436
1017.0,0.4371
1018.0,0.4354
1019.0,0.4263
1020.0,0.4331
1021.0,0.4325
1022.0,0.4292
1023.0,0.4338
1024.0,0.4283
1025.0,0.4334
1026.0,0.4316
1027.0,0.4306
1028.0,0.4297
1029.0,0.4247
1030.0,0.4275
1031.0,0.4258
1032.0,0.4246
1033.0,0.4182
1034.0,0.4182
1035.0,0.4195
1036.0,0.4217
1037.0,0.4148
1038.0,0.4167
1039.0,0.4164
1040.0,0.4147
1041.0,0.4164
1042.0,0.4135
1043.0,0.4122
1044.0,0.4137
1045.0,0.4081
1046.0,0.4036
1047.0,0.4072
1048.0,0.4095
1049.0,0.408
1050.0,0.4062
1051.0,0.4056
1052.0,0.404
1053.0,0.4008
1054.0,0.4017
1055.0,0.4019
1056.0,0.4005
1057.0,0.3993
1058.0,0.3895
1059.0,0.39
1060.0,0.3894
1061.0,0.389
1062.0,0.391
1063.0,0.3872
1064.0,0.3918
1065.0,0.389
1066.0,0.3813
1067.0,0.3862
1068.0,0.3778
1069.0,0.3661
1070.0,0.3786
1071.0,0.3843
1072.0,0.38
1073.0,0.3745
1074.0,0.384
1075.0,0.3653
1076.0,0.3837
1077.0,0.3772
1078.0,0.3701
1079.0,0.3775
1080.0,0.3714
1081.0,0.3597
1082.0,0.365
1083.0,0.366
1084.0,0.359
1085.0,0.3721
1086.0,0.3404
1087.0,0.3508
1088.0,0.3657
1089.0,0.355
1090.0,0.3476
1091.0,0.3647
1092.0,0.3636
1093.0,0.3099
1094.0,0.3329
1095.0,0.3227
1096.0,0.3094
1097.0,0.3552
1098.0,0.3048
1099.0,0.3177
1100.0,0.296
1101.0,0.2995
1102.0,0.2865
1103.0,0.284
1104.0,0.2843
1105.0,0.3105
1106.0,0.2402
1107.0,0.2955
1108.0,0.2521
1109.0,0.2522
1110.0,0.2931
1111.0,0.201
1112.0,0.2502
1113.0,0.1614
1114.0,0.1802
1115.0,0.1495
1116.0,0.1206
1117.0,0.04573
1118.0,0.1308
1119.0,0.06602
1120.0,0.08317
1121.0,0.1097
1122.0,0.04712
1123.0,0.07511
1124.0,0.06341
1125.0,0.08246
1126.0,0.02964
1127.0,0.09293
1128.0,0.05661
1129.0,0.05993
1130.0,0.03983
1131.0,0.1738
1132.0,0.1368
1133.0,0.088
1134.0,0.02324
1135.0,0.00867
1136.0,0.07387
1137.0,0.1712
1138.0,0.1208
1139.0,0.1777
1140.0,0.1495
1141.0,0.1148
1142.0,0.1316
1143.0,0.1858
1144.0,0.06614
1145.0,0.08485
1146.0,0.09152
1147.0,0.03316
1148.0,0.1608
1149.0,0.1292
1150.0,0.07104
1151.0,0.1199
1152.0,0.1467
1153.0,0.1423
1154.0,0.08239
1155.0,0.1854
1156.0,0.1675
1157.0,0.1871
1158.0,0.1851
1159.0,0.1989
1160.0,0.1708
1161.0,0.2088
1162.0,0.21
1163.0,0.2805
1164.0,0.2418
1165.0,0.2292
1166.0,0.2268
1167.0,0.2464
1168.0,0.2494
1169.0,0.2549
1170.0,0.2761
1171.0,0.2693
1172.0,0.2736
1173.0,0.2755
1174.0,0.1995
1175.0,0.2687
1176.0,0.2939
1177.0,0.2831
1178.0,0.2148
1179.0,0.2962
1180.0,0.266
1181.0,0.2744
1182.0,0.1917
1183.0,0.2698
1184.0,0.2537
1185.0,0.2455
1186.0,0.2886
1187.0,0.2757
1188.0,0.1952
1189.0,0.257
1190.0,0.282
1191.0,0.2692
1192.0,0.2858
1193.0,0.2744
1194.0,0.2825
1195.0,0.2681
1196.0,0.2588
1197.0,0.2821
1198.0,0.2588
1199.0,0.2223
1200.0,0.271
1201.0,0.2621
1202.0,0.2601
1203.0,0.258
1204.0,0.2268
1205.0,0.2655
1206.0,0.2921
1207.0,0.2597
1208.0,0.2549
1209.0,0.26
1210.0,0.2703
1211.0,0.2583
1212.0,0.2563
1213.0,0.283
1214.0,0.2619
1215.0,0.2572
1216.0,0.282
1217.0,0.275
1218.0,0.2798
1219.0,0.2765
1220.0,0.28
1221.0,0.2825
1222.0,0.2754
1223.0,0.2731
1224.0,0.2717
1225.0,0.2807
1226.0,0.2823
1227.0,0.2616
1228.0,0.2835
1229.0,0.2824
1230.0,0.2778
1231.0,0.2849
1232.0,0.2832
1233.0,0.2745
1234.0,0.2844
1235.0,0.2828
1236.0,0.2847
1237.0,0.2812
1238.0,0.2838
1239.0,0.2801
1240.0,0.2811
1241.0,0.2801
1242.0,0.2792
1243.0,0.277
1244.0,0.279
1245.0,0.2801
1246.0,0.2785
1247.0,0.2775
1248.0,0.2774
1249.0,0.2782
1250.0,0.2766
1251.0,0.2732
1252.0,0.273
1253.0,0.2712
1254.0,0.2687
1255.0,0.2728
1256.0,0.2658
1257.0,0.2645
1258.0,0.2689
1259.0,0.2601
1260.0,0.2614
1261.0,0.2479
1262.0,0.2411
1263.0,0.2416
1264.0,0.2245
1265.0,0.24
1266.0,0.2318
1267.0,0.2353
1268.0,0.2241
1269.0,0.1454
1270.0,0.2347
1271.0,0.2469
1272.0,0.2476
1273.0,0.2451
1274.0,0.2457
1275.0,0.249
1276.0,0.2512
1277.0,0.2526
1278.0,0.257
1279.0,0.2547
1280.0,0.2514
1281.0,0.2397
1282.0,0.2306
1283.0,0.2484
1284.0,0.2544
1285.0,0.2561
1286.0,0.2593
1287.0,0.2557
1288.0,0.2555
1289.0,0.2482
1290.0,0.2532
1291.0,0.2566
1292.0,0.2425
1293.0,0.252
1294.0,0.2503
1295.0,0.2494
1296.0,0.239
1297.0,0.2268
1298.0,0.2427
1299.0,0.2521
1300.0,0.2158
1301.0,0.222
1302.0,0.2419
1303.0,0.2127
1304.0,0.1837
1305.0,0.2371
1306.0,0.2372
1307.0,0.1869
1308.0,0.2127
1309.0,0.2356
1310.0,0.1834
1311.0,0.2044
1312.0,0.1993
1313.0,0.1958
1314.0,0.176
1315.0,0.1742
1316.0,0.2016
1317.0,0.1912
1318.0,0.2069
1319.0,0.1643
1320.0,0.1586
1321.0,0.1839
1322.0,0.1861
1323.0,0.1421
1324.0,0.1611
1325.0,0.1988
1326.0,0.172
1327.0,0.1643
1328.0,0.1424
1329.0,0.1086
1330.0,0.1405
1331.0,0.08675
1332.0,0.08893
1333.0,0.1233
1334.0,0.1036
1335.0,0.1416
1336.0,0.1129
1337.0,0.1004
1338.0,0.1086
1339.0,0.1079
1340.0,0.1044
1341.0,0.1031
1342.0,0.1082
1343.0,0.07557
1344.0,0.04514
1345.0,0.06493
1346.0,0.03373
1347.0,0.03454
1348.0,0.002513
1349.0,0.008737
1350.0,0.008864
1351.0,0.002389
1352.0,0.0007213
1353.0,4.173e-05
1354.0,0.0001328
1355.0,1.384e-06
1356.0,2.059e-05
1357.0,3.126e-05
1358.0,1.622e-06
1359.0,2.478e-07
1360.0,7.95e-07
1361.0,1.339e-09
1362.0,4.387e-12
1363.0,1.137e-06
1364.0,4.777e-07
1365.0,1.923e-12
1366.0,4.724e-06
1367.0,1.877e-06
1368.0,2.309e-14
1369.0,1.807e-07
1370.0,9.665e-08
1371.0,6.08e-09
1372.0,1.033e-06
1373.0,1.831e-05
1374.0,7.79e-05
1375.0,0.0001419
1376.0,0.0001189
1377.0,5.56e-05
1378.0,0.0005225
1379.0,2.346e-05
1380.0,3.565e-05
1381.0,9.858e-07
1382.0,9.535e-07
1383.0,1.544e-08
1384.0,2.11e-07
1385.0,8.246e-07
1386.0,8.986e-07
1387.0,8.513e-05
1388.0,1.695e-06
1389.0,0.0002625
1390.0,0.0002261
1391.0,0.0001539
1392.0,1.034e-05
1393.0,5.227e-05
1394.0,3.11e-05
1395.0,2.546e-07
1396.0,1.828e-09
1397.0,2.158e-05
1398.0,0.0005922
1399.0,0.0003752
1400.0,8.786e-10
1401.0,3.163e-09
1402.0,0.0009295
1403.0,0.001194
1404.0,0.0003674
1405.0,1.329e-07
1406.0,0.0009912
1407.0,8.559e-05
1408.0,0.0008059
1409.0,0.0002885
1410.0,0.0002221
1411.0,0.001046
1412.0,0.001369
1413.0,0.01294
1414.0,0.000174
1415.0,8.61e-05
1416.0,0.02036
1417.0,0.006424
1418.0,0.007352
1419.0,0.001153
1420.0,0.004508
1421.0,0.00488
1422.0,0.02651
1423.0,0.005203
1424.0,0.009691
1425.0,0.01436
1426.0,0.01606
1427.0,0.02903
1428.0,0.002381
1429.0,0.02193
1430.0,0.03683
1431.0,0.04033
1432.0,0.001881
1433.0,0.02582
1434.0,0.01322
1435.0,0.0135
1436.0,0.02562
1437.0,0.01963
1438.0,0.008409
1439.0,0.03465
1440.0,0.02597
1441.0,0.01999
1442.0,0.02214
1443.0,0.02751
1444.0,0.03799
1445.0,0.02995
1446.0,0.01353
1447.0,0.02131
1448.0,0.07075
1449.0,0.06161
