interpolation:linear
wavelength,value
280.0,6.124e-21
280.5,1.874e-19
281.0,9.812e-19
281.5,5.175e-19
282.0,1.411e-18
282.5,3.652e-18
283.0,1.166e-17
283.5,1.899e-17
284.0,3.006e-16
284.5,8.582e-16
285.0,1.77e-15
285.5,9.029e-15
286.0,3.651e-14
286.5,1.629e-13
287.0,4.63e-13
287.5,1.754e-12
288.0,4.552e-12
288.5,1.583e-11
289.0,4.664e-11
289.5,1.525e-10
290.0,4.459e-10
290.5,9.441e-10
291.0,2.107e-09
291.5,6.387e-09
292.0,1.558e-08
292.5,2.42e-08
293.0,5.923e-08
293.5,1.736e-07
294.0,3.114e-07
294.5,4.086e-07
295.0,7.942e-07
295.5,2.17e-06
296.0,4.329e-06
296.5,6.274e-06
297.0,8.754e-06
297.5,2.462e-05
298.0,4.049e-05
298.5,4.216e-05
299.0,9.625e-05
299.5,0.0001701
300.0,0.0001943
300.5,0.0002933
301.0,0.0005711
301.5,0.0009848
302.0,0.0008836
302.5,0.001722
303.0,0.003079
303.5,0.003864
304.0,0.00362
304.5,0.005355
305.0,0.00801
305.5,0.009092
306.0,0.00877
306.5,0.01085
307.0,0.01588
307.5,0.02082
308.0,0.02194
308.5,0.02573
309.0,0.0252
309.5,0.02853
310.0,0.02852
310.5,0.04608
311.0,0.05761
311.5,0.05552
312.0,0.055
312.5,0.06651
313.0,0.0719
313.5,0.07005
314.0,0.08691
314.5,0.07626
315.0,0.1
315.5,0.08414
316.0,0.07285
316.5,0.1038
317.0,0.1289
317.5,0.1345
318.0,0.1044
318.5,0.1283
319.0,0.1514
319.5,0.1245
320.0,0.1507
320.5,0.1866
321.0,0.1645
321.5,0.1576
322.0,0.1698
322.5,0.1476
323.0,0.146
323.5,0.1783
324.0,0.2079
324.5,0.2117
325.0,0.1836
325.5,0.2348
326.0,0.2867
326.5,0.286
327.0,0.2855
327.5,0.2763
328.0,0.2473
328.5,0.2583
329.0,0.3077
329.5,0.3488
330.0,0.3523
330.5,0.2832
331.0,0.2889
331.5,0.2928
332.0,0.315
332.5,0.311
333.0,0.3105
333.5,0.282
334.0,0.2891
334.5,0.3323
335.0,0.3117
335.5,0.364
336.0,0.2519
336.5,0.2954
337.0,0.2427
337.5,0.3021
338.0,0.2941
338.5,0.3395
339.0,0.336
339.5,0.3233
340.0,0.3801
340.5,0.3425
341.0,0.3341
341.5,0.3068
342.0,0.3666
342.5,0.3431
343.0,0.3774
343.5,0.3554
344.0,0.2627
344.5,0.2654
345.0,0.3512
345.5,0.3586
346.0,0.3048
346.5,0.3452
347.0,0.3707
347.5,0.2998
348.0,0.3418
348.5,0.3416
349.0,0.317
349.5,0.3139
350.0,0.3883
350.5,0.4097
351.0,0.366
351.5,0.3558
352.0,0.3822
352.5,0.2983
353.0,0.3758
353.5,0.4019
354.0,0.4173
354.5,0.4232
355.0,0.4219
355.5,0.3812
356.0,0.3989
356.5,0.3407
357.0,0.2815
357.5,0.3447
358.0,0.2732
358.5,0.2335
359.0,0.3266
359.5,0.4163
360.0,0.4414
360.5,0.3528
361.0,0.3217
361.5,0.3705
362.0,0.3205
362.5,0.4436
363.0,0.3986
363.5,0.3672
364.0,0.4492
364.5,0.384
365.0,0.3912
365.5,0.491
366.0,0.5203
366.5,0.489
367.0,0.4763
367.5,0.4944
368.0,0.4327
368.5,0.4367
369.0,0.4717
369.5,0.5029
370.0,0.5362
370.5,0.4162
371.0,0.4449
371.5,0.5566
372.0,0.3695
372.5,0.4431
373.0,0.4509
373.5,0.2934
374.0,0.4264
374.5,0.3532
375.0,0.3434
375.5,0.5128
376.0,0.4252
376.5,0.4407
377.0,0.4666
377.5,0.546
378.0,0.592
378.5,0.5596
379.0,0.4619
379.5,0.422
380.0,0.4388
380.5,0.5316
381.0,0.5328
381.5,0.4225
382.0,0.3753
382.5,0.32
383.0,0.2963
383.5,0.2855
384.0,0.3149
384.5,0.4633
385.0,0.4596
385.5,0.4281
386.0,0.3667
386.5,0.4818
387.0,0.4004
387.5,0.4498
388.0,0.4154
388.5,0.4107
389.0,0.4434
389.5,0.5371
390.0,0.5392
390.5,0.4963
391.0,0.5843
391.5,0.5961
392.0,0.5021
392.5,0.4496
393.0,0.2502
393.5,0.1819
394.0,0.3703
394.5,0.4709
395.0,0.5747
395.5,0.5838
396.0,0.5063
396.5,0.296
397.0,0.2222
397.5,0.452
398.0,0.633
398.5,0.6544
399.0,0.7087
399.5,0.7065
400.0,0.7337
401.0,0.7444
402.0,0.7856
403.0,0.7465
404.0,0.7352
405.0,0.7353
406.0,0.7236
407.0,0.7121
408.0,0.7401
409.0,0.7923
410.0,0.6925
411.0,0.7503
412.0,0.8061
413.0,0.7862
414.0,0.7961
415.0,0.7984
416.0,0.8125
417.0,0.7927
418.0,0.7782
419.0,0.7886
420.0,0.7853
421.0,0.8217
422.0,0.7812
423.0,0.7632
424.0,0.8074
425.0,0.8061
426.0,0.7854
427.0,0.7708
428.0,0.751
429.0,0.7115
430.0,0.6228
431.0,0.6173
432.0,0.7972
433.0,0.8017
434.0,0.7446
435.0,0.7777
436.0,0.8764
437.0,0.8648
438.0,0.7876
439.0,0.8146
440.0,0.8407
441.0,0.8713
442.0,0.9345
443.0,0.9103
444.0,0.9302
445.0,0.9101
446.0,0.8687
447.0,0.9392
448.0,0.9539
449.0,0.9578
450.0,0.9847
451.0,1.021
452.0,0.9841
453.0,0.9257
454.0,0.9665
455.0,0.9725
456.0,0.9957
457.0,1.012
458.0,0.9778
459.0,0.9728
460.0,0.9755
461.0,0.998
462.0,1.006
463.0,0.9989
464.0,0.9824
465.0,0.9701
466.0,0.9796
467.0,0.9617
468.0,0.973
469.0,0.9782
470.0,0.947
471.0,0.9458
472.0,0.9966
473.0,0.9837
474.0,0.9852
475.0,0.9936
476.0,0.9639
477.0,0.9666
478.0,0.9935
479.0,0.9875
480.0,0.9894
481.0,1.008
482.0,1.013
483.0,1.001
484.0,0.9805
485.0,0.9342
486.0,0.8167
487.0,0.8559
488.0,0.939
489.0,0.9419
490.0,0.991
491.0,0.9739
492.0,0.9197
493.0,0.9499
494.0,0.9594
495.0,0.9676
496.0,0.9736
497.0,0.9887
498.0,0.9424
499.0,0.9545
500.0,0.9267
501.0,0.9097
502.0,0.8969
503.0,0.9334
504.0,0.9097
505.0,0.9423
506.0,0.9728
507.0,0.9256
508.0,0.8968
509.0,0.922
510.0,0.9171
511.0,0.9417
512.0,0.952
513.0,0.901
514.0,0.8949
515.0,0.886
516.0,0.8838
517.0,0.7853
518.0,0.8256
519.0,0.866
520.0,0.8975
521.0,0.906
522.0,0.9068
523.0,0.8905
524.0,0.9223
525.0,0.9332
526.0,0.8915
527.0,0.84
528.0,0.8884
529.0,0.9364
530.0,0.923
531.0,0.9367
532.0,0.9045
533.0,0.878
534.0,0.904
535.0,0.9237
536.0,0.9322
537.0,0.8954
538.0,0.9112
539.0,0.9036
540.0,0.8663
541.0,0.872
542.0,0.8994
543.0,0.8899
544.0,0.9053
545.0,0.9025
546.0,0.9065
547.0,0.9061
548.0,0.8953
549.0,0.898
550.0,0.9086
551.0,0.8976
552.0,0.9039
553.0,0.8877
554.0,0.9089
555.0,0.9107
556.0,0.8989
557.0,0.8709
558.0,0.8644
559.0,0.8482
560.0,0.8588
561.0,0.8699
562.0,0.8636
563.0,0.8872
564.0,0.863
565.0,0.8555
566.0,0.843
567.0,0.8589
568.0,0.8512
569.0,0.8308
570.0,0.8306
571.0,0.8257
572.0,0.8454
573.0,0.8544
574.0,0.8517
575.0,0.8357
576.0,0.8281
577.0,0.8371
578.0,0.8246
579.0,0.8279
580.0,0.8438
581.0,0.8482
582.0,0.8643
583.0,0.8665
584.0,0.8741
585.0,0.8527
586.0,0.8352
587.0,0.8535
588.0,0.8325
589.0,0.7373
590.0,0.7711
591.0,0.8161
592.0,0.8057
593.0,0.8178
594.0,0.812
595.0,0.7919
596.0,0.8234
597.0,0.8144
598.0,0.8124
599.0,0.8131
600.0,0.8144
601.0,0.8078
602.0,0.8023
603.0,0.8156
604.0,0.8291
605.0,0.8249
606.0,0.8215
607.0,0.8297
608.0,0.8205
609.0,0.822
610.0,0.8161
611.0,0.8204
612.0,0.818
613.0,0.8078
614.0,0.7968
615.0,0.8141
616.0,0.7873
617.0,0.7858
618.0,0.816
619.0,0.8077
620.0,0.8129
621.0,0.8136
622.0,0.8041
623.0,0.7918
624.0,0.7783
625.0,0.7765
626.0,0.788
627.0,0.7967
628.0,0.7432
629.0,0.7776
630.0,0.7596
631.0,0.7771
632.0,0.7678
633.0,0.7913
634.0,0.7837
635.0,0.796
636.0,0.7855
637.0,0.7984
638.0,0.8061
639.0,0.7971
640.0,0.7894
641.0,0.789
642.0,0.7854
643.0,0.796
644.0,0.7935
645.0,0.7947
646.0,0.7761
647.0,0.7666
648.0,0.7673
649.0,0.7525
650.0,0.7564
651.0,0.7893
652.0,0.7561
653.0,0.7788
654.0,0.7702
655.0,0.7413
656.0,0.6571
657.0,0.6748
658.0,0.7564
659.0,0.7618
660.0,0.765
661.0,0.7704
662.0,0.7719
663.0,0.7567
664.0,0.7657
665.0,0.7664
666.0,0.767
667.0,0.7664
668.0,0.7668
669.0,0.7786
670.0,0.7753
671.0,0.7751
672.0,0.7685
673.0,0.7801
674.0,0.7772
675.0,0.7701
676.0,0.7754
677.0,0.7677
678.0,0.7699
679.0,0.7575
680.0,0.7636
681.0,0.7586
682.0,0.7576
683.0,0.7561
684.0,0.7524
685.0,0.7588
686.0,0.7543
687.0,0.4968
688.0,0.5841
689.0,0.5863
690.0,0.6156
691.0,0.6486
692.0,0.6728
693.0,0.6673
694.0,0.6617
695.0,0.6896
696.0,0.6906
697.0,0.7335
698.0,0.7221
699.0,0.7044
700.0,0.6959
701.0,0.6887
702.0,0.6936
703.0,0.6949
704.0,0.7174
705.0,0.7184
706.0,0.7179
707.0,0.7185
708.0,0.72
709.0,0.7212
710.0,0.7211
711.0,0.7202
712.0,0.7181
713.0,0.7108
714.0,0.7135
715.0,0.6908
716.0,0.6911
717.0,0.598
718.0,0.549
719.0,0.5028
720.0,0.5265
721.0,0.5821
722.0,0.667
723.0,0.6204
724.0,0.5584
725.0,0.5492
726.0,0.575
727.0,0.5836
728.0,0.5478
729.0,0.5688
730.0,0.6019
731.0,0.5757
732.0,0.6163
733.0,0.653
734.0,0.6686
735.0,0.6547
736.0,0.6538
737.0,0.6564
738.0,0.6669
739.0,0.6538
740.0,0.6709
741.0,0.6643
742.0,0.665
743.0,0.682
744.0,0.6801
745.0,0.6802
746.0,0.6833
747.0,0.6849
748.0,0.6834
749.0,0.6756
750.0,0.6752
751.0,0.6684
752.0,0.6713
753.0,0.6747
754.0,0.6762
755.0,0.6724
756.0,0.6721
757.0,0.673
758.0,0.6647
759.0,0.6509
760.0,0.1036
761.0,0.05338
762.0,0.3274
763.0,0.1602
764.0,0.2438
765.0,0.3274
766.0,0.4048
767.0,0.5137
768.0,0.5951
769.0,0.6082
770.0,0.6295
771.0,0.6348
772.0,0.6362
773.0,0.6407
774.0,0.6376
775.0,0.6328
776.0,0.6405
777.0,0.6321
778.0,0.6282
779.0,0.6288
780.0,0.6252
781.0,0.6259
782.0,0.6298
783.0,0.6188
784.0,0.6218
785.0,0.6172
786.0,0.624
787.0,0.6129
788.0,0.6051
789.0,0.6049
790.0,0.5885
791.0,0.5939
792.0,0.5895
793.0,0.58
794.0,0.5902
795.0,0.6001
796.0,0.5812
797.0,0.5819
798.0,0.5993
799.0,0.5954
800.0,0.585
801.0,0.5831
802.0,0.5814
803.0,0.5769
804.0,0.5777
805.0,0.576
806.0,0.5924
807.0,0.5852
808.0,0.5858
809.0,0.5746
810.0,0.5698
811.0,0.5703
812.0,0.5537
813.0,0.542
814.0,0.4758
815.0,0.4729
816.0,0.44
817.0,0.4482
818.0,0.4312
819.0,0.483
820.0,0.4545
821.0,0.5325
822.0,0.5171
823.0,0.3496
824.0,0.5016
825.0,0.5232
826.0,0.503
827.0,0.5312
828.0,0.4492
829.0,0.5
830.0,0.4934
831.0,0.4951
832.0,0.4797
833.0,0.511
834.0,0.4925
835.0,0.542
836.0,0.5182
837.0,0.5435
838.0,0.5263
839.0,0.5354
840.0,0.5472
841.0,0.5393
842.0,0.5407
843.0,0.5406
844.0,0.533
845.0,0.5511
846.0,0.5488
847.0,0.5386
848.0,0.5352
849.0,0.52
850.0,0.4982
851.0,0.5273
852.0,0.5237
853.0,0.5042
854.0,0.4352
855.0,0.4783
856.0,0.5226
857.0,0.5344
858.0,0.5304
859.0,0.5309
860.0,0.5319
861.0,0.529
862.0,0.5373
863.0,0.55
864.0,0.5225
865.0,0.518
866.0,0.4657
867.0,0.486
868.0,0.5289
869.0,0.5179
870.0,0.5327
871.0,0.5254
872.0,0.5236
873.0,0.5225
874.0,0.5163
875.0,0.5059
876.0,0.5111
877.0,0.5163
878.0,0.5219
879.0,0.5138
880.0,0.5028
881.0,0.4952
882.0,0.5059
883.0,0.5076
884.0,0.5052
885.0,0.509
886.0,0.4849
887.0,0.4902
888.0,0.4973
889.0,0.5032
890.0,0.4987
891.0,0.498
892.0,0.4833
893.0,0.4677
894.0,0.4504
895.0,0.4245
896.0,0.3995
897.0,0.3418
898.0,0.3737
899.0,0.2826
900.0,0.3835
901.0,0.2962
902.0,0.3499
903.0,0.3526
904.0,0.447
905.0,0.4312
906.0,0.4031
907.0,0.3254
908.0,0.3321
909.0,0.3608
910.0,0.3172
911.0,0.3393
912.0,0.3551
913.0,0.3218
914.0,0.3195
915.0,0.3464
916.0,0.2927
917.0,0.3735
918.0,0.3
919.0,0.3808
920.0,0.3858
921.0,0.4014
922.0,0.3575
923.0,0.3879
924.0,0.3662
925.0,0.3582
926.0,0.362
927.0,0.4067
928.0,0.2942
929.0,0.2674
930.0,0.2082
931.0,0.1976
932.0,0.1402
933.0,0.1129
934.0,0.05964
935.0,0.1164
936.0,0.07124
937.0,0.07204
938.0,0.08917
939.0,0.1914
940.0,0.2317
941.0,0.1729
942.0,0.2014
943.0,0.1309
944.0,0.1393
945.0,0.1786
946.0,0.08873
947.0,0.1789
948.0,0.1311
949.0,0.2416
950.0,0.06381
951.0,0.2383
952.0,0.1251
953.0,0.1635
954.0,0.2027
955.0,0.1656
956.0,0.1621
957.0,0.1251
958.0,0.2326
959.0,0.1824
960.0,0.2045
961.0,0.2314
962.0,0.2187
963.0,0.2538
964.0,0.232
965.0,0.253
966.0,0.2526
967.0,0.2514
968.0,0.343
969.0,0.3577
970.0,0.3277
971.0,0.3778
972.0,0.3609
973.0,0.3115
974.0,0.2953
975.0,0.3076
976.0,0.2906
977.0,0.3336
978.0,0.3157
979.0,0.3315
980.0,0.3112
981.0,0.3757
982.0,0.3583
983.0,0.3434
984.0,0.3882
985.0,0.3569
986.0,0.3957
987.0,0.3872
988.0,0.3865
989.0,0.3949
990.0,0.3842
991.0,0.396
992.0,0.3984
993.0,0.3888
994.0,0.3983
995.0,0.398
996.0,0.3961
997.0,0.3967
998.0,0.3948
999.0,0.3934
1000.0,0.3904
1001.0,0.3955
1002.0,0.3839
1003.0,0.3885
1004.0,0.3788
1005.0,0.3652
1006.0,0.3793
1007.0,0.3874
1008.0,0.3852
1009.0,0.383
1010.0,0.3813
1011.0,0.3855
1012.0,0.382
1013.0,0.3846
1014.0,0.3819
1015.0,0.3793
1016.0,0.3776
1017.0,0.3785
1018.0,0.3772
1019.0,0.3689
1020.0,0.3752
1021.0,0.3747
1022.0,0.3717
1023.0,0.3756
1024.0,0.3704
1025.0,0.3755
1026.0,0.3738
1027.0,0.3729
1028.0,0.3721
1029.0,0.3677
1030.0,0.3703
1031.0,0.3688
1032.0,0.3678
1033.0,0.3622
1034.0,0.3622
1035.0,0.3634
1036.0,0.3652
1037.0,0.3593
1038.0,0.3609
1039.0,0.3606
1040.0,0.3592
1041.0,0.3606
1042.0,0.3581
1043.0,0.3569
1044.0,0.3581
1045.0,0.3533
1046.0,0.3494
1047.0,0.3525
1048.0,0.3544
1049.0,0.3531
1050.0,0.3514
1051.0,0.3509
1052.0,0.3495
1053.0,0.3466
1054.0,0.3474
1055.0,0.3475
1056.0,0.3462
1057.0,0.3451
1058.0,0.3366
1059.0,0.3369
1060.0,0.3364
1061.0,0.3359
1062.0,0.3377
1063.0,0.3343
1064.0,0.3383
1065.0,0.3357
1066.0,0.3292
1067.0,0.3334
1068.0,0.326
1069.0,0.316
1070.0,0.3267
1071.0,0.332
1072.0,0.328
1073.0,0.3233
1074.0,0.3319
1075.0,0.3145
1076.0,0.3316
1077.0,0.3252
1078.0,0.3189
1079.0,0.3265
1080.0,0.3202
1081.0,0.3096
1082.0,0.3152
1083.0,0.3164
1084.0,0.3086
1085.0,0.321
1086.0,0.2918
1087.0,0.302
1088.0,0.3159
1089.0,0.3055
1090.0,0.2983
1091.0,0.3147
1092.0,0.314
1093.0,0.2641
1094.0,0.287
1095.0,0.2754
1096.0,0.263
1097.0,0.3068
1098.0,0.2587
1099.0,0.2702
1100.0,0.2502
1101.0,0.2536
1102.0,0.2416
1103.0,0.2389
1104.0,0.2392
1105.0,0.2638
1106.0,0.1981
1107.0,0.2498
1108.0,0.2096
1109.0,0.2104
1110.0,0.2473
1111.0,0.1648
1112.0,0.2089
1113.0,0.13
1114.0,0.1455
1115.0,0.1205
1116.0,0.0944
1117.0,0.03273
1118.0,0.1033
1119.0,0.04966
1120.0,0.06239
1121.0,0.08378
1122.0,0.03387
1123.0,0.05645
1124.0,0.04762
1125.0,0.06253
1126.0,0.0204
1127.0,0.07066
1128.0,0.04076
1129.0,0.04346
1130.0,0.02805
1131.0,0.1377
1132.0,0.1073
1133.0,0.06601
1134.0,0.01577
1135.0,0.005975
1136.0,0.05436
1137.0,0.1346
1138.0,0.09441
1139.0,0.1447
1140.0,0.1194
1141.0,0.08976
1142.0,0.104
1143.0,0.1494
1144.0,0.0503
1145.0,0.06371
1146.0,0.06869
1147.0,0.02274
1148.0,0.1292
1149.0,0.102
1150.0,0.05431
1151.0,0.09366
1152.0,0.1167
1153.0,0.1147
1154.0,0.06156
1155.0,0.1509
1156.0,0.1351
1157.0,0.1528
1158.0,0.1512
1159.0,0.164
1160.0,0.1392
1161.0,0.1734
1162.0,0.1742
1163.0,0.2384
1164.0,0.2033
1165.0,0.1907
1166.0,0.1902
1167.0,0.2077
1168.0,0.2098
1169.0,0.2151
1170.0,0.2346
1171.0,0.2287
1172.0,0.2333
1173.0,0.2341
1174.0,0.1652
1175.0,0.2291
1176.0,0.2528
1177.0,0.2421
1178.0,0.1804
1179.0,0.2549
1180.0,0.2265
1181.0,0.2338
1182.0,0.1598
1183.0,0.2304
1184.0,0.2154
1185.0,0.2075
1186.0,0.2474
1187.0,0.2352
1188.0,0.1623
1189.0,0.219
1190.0,0.2418
1191.0,0.2288
1192.0,0.2453
1193.0,0.2348
1194.0,0.2422
1195.0,0.2285
1196.0,0.2198
1197.0,0.2426
1198.0,0.2216
1199.0,0.1874
1200.0,0.2318
1201.0,0.2232
1202.0,0.2222
1203.0,0.2202
1204.0,0.192
1205.0,0.2276
1206.0,0.252
1207.0,0.2215
1208.0,0.2183
1209.0,0.2229
1210.0,0.2324
1211.0,0.2209
1212.0,0.2178
1213.0,0.2435
1214.0,0.2232
1215.0,0.2189
1216.0,0.2427
1217.0,0.2361
1218.0,0.2408
1219.0,0.2377
1220.0,0.241
1221.0,0.2435
1222.0,0.2371
1223.0,0.2348
1224.0,0.2332
1225.0,0.2419
1226.0,0.2437
1227.0,0.2243
1228.0,0.245
1229.0,0.2437
1230.0,0.2395
1231.0,0.2466
1232.0,0.2451
1233.0,0.2363
1234.0,0.2465
1235.0,0.2448
1236.0,0.2467
1237.0,0.2431
1238.0,0.2458
1239.0,0.2427
1240.0,0.2436
1241.0,0.2424
1242.0,0.2419
1243.0,0.24
1244.0,0.2416
1245.0,0.2427
1246.0,0.2413
1247.0,0.2403
1248.0,0.2401
1249.0,0.2409
1250.0,0.2394
1251.0,0.2363
1252.0,0.2364
1253.0,0.2344
1254.0,0.2319
1255.0,0.2361
1256.0,0.2292
1257.0,0.2279
1258.0,0.2324
1259.0,0.2236
1260.0,0.2248
1261.0,0.2117
1262.0,0.2051
1263.0,0.2055
1264.0,0.1891
1265.0,0.2042
1266.0,0.1961
1267.0,0.1998
1268.0,0.1891
1269.0,0.1147
1270.0,0.199
1271.0,0.2111
1272.0,0.2118
1273.0,0.2095
1274.0,0.2102
1275.0,0.2134
1276.0,0.2155
1277.0,0.2171
1278.0,0.2215
1279.0,0.2195
1280.0,0.2167
1281.0,0.2069
1282.0,0.1995
1283.0,0.2148
1284.0,0.2199
1285.0,0.2214
1286.0,0.2244
1287.0,0.2208
1288.0,0.2208
1289.0,0.2135
1290.0,0.2189
1291.0,0.222
1292.0,0.208
1293.0,0.2175
1294.0,0.216
1295.0,0.2148
1296.0,0.2047
1297.0,0.1933
1298.0,0.2087
1299.0,0.2179
1300.0,0.1834
1301.0,0.1893
1302.0,0.208
1303.0,0.1811
1304.0,0.1535
1305.0,0.2037
1306.0,0.2036
1307.0,0.1572
1308.0,0.1816
1309.0,0.202
1310.0,0.1541
1311.0,0.1739
1312.0,0.169
1313.0,0.1655
1314.0,0.1478
1315.0,0.1456
1316.0,0.1709
1317.0,0.1618
1318.0,0.1763
1319.0,0.1365
1320.0,0.1326
1321.0,0.1548
1322.0,0.1561
1323.0,0.1164
1324.0,0.1339
1325.0,0.1684
1326.0,0.1438
1327.0,0.137
1328.0,0.1178
1329.0,0.08741
1330.0,0.1143
1331.0,0.06772
1332.0,0.07037
1333.0,0.09824
1334.0,0.08387
1335.0,0.1159
1336.0,0.091
1337.0,0.08012
1338.0,0.0867
1339.0,0.08651
1340.0,0.0845
1341.0,0.08167
1342.0,0.08586
1343.0,0.05644
1344.0,0.03391
1345.0,0.04898
1346.0,0.02326
1347.0,0.02346
1348.0,0.001378
1349.0,0.005092
1350.0,0.005397
1351.0,0.001199
1352.0,0.0002933
1353.0,1.354e-05
1354.0,4.993e-05
1355.0,3.261e-07
1356.0,6.571e-06
1357.0,1.003e-05
1358.0,3.896e-07
1359.0,4.186e-08
1360.0,1.684e-07
1361.0,1.345e-10
1362.0,3.206e-13
1363.0,2.166e-07
1364.0,8.928e-08
1365.0,9.353e-14
1366.0,9.886e-07
1367.0,4.18e-07
1368.0,5.049e-16
1369.0,3.313e-08
1370.0,1.528e-08
1371.0,8.008e-10
1372.0,2.304e-07
1373.0,5.185e-06
1374.0,2.598e-05
1375.0,4.698e-05
1376.0,4.512e-05
1377.0,2.034e-05
1378.0,0.0002056
1379.0,8.534e-06
1380.0,1.173e-05
1381.0,2.939e-07
1382.0,2.038e-07
1383.0,2.884e-09
1384.0,3.645e-08
1385.0,2.084e-07
1386.0,1.732e-07
1387.0,2.572e-05
1388.0,5.093e-07
1389.0,9.503e-05
1390.0,8.16e-05
1391.0,5.364e-05
1392.0,3.411e-06
1393.0,1.885e-05
1394.0,8.619e-06
1395.0,5.835e-08
1396.0,2.031e-10
1397.0,7.291e-06
1398.0,0.000229
1399.0,0.0001457
1400.0,8.021e-11
1401.0,3.776e-10
1402.0,0.000452
1403.0,0.0005565
1404.0,0.000168
1405.0,2.681e-08
1406.0,0.000422
1407.0,3.835e-05
1408.0,0.0003475
1409.0,0.0001095
1410.0,9.16e-05
1411.0,0.0004914
1412.0,0.0006837
1413.0,0.007733
1414.0,7.289e-05
1415.0,3.397e-05
1416.0,0.01356
1417.0,0.003814
1418.0,0.004286
1419.0,0.0006533
1420.0,0.002613
1421.0,0.002836
1422.0,0.01776
1423.0,0.003367
1424.0,0.006394
1425.0,0.009266
1426.0,0.01087
1427.0,0.0208
1428.0,0.001282
1429.0,0.01514
1430.0,0.02687
1431.0,0.02979
1432.0,0.001003
1433.0,0.01857
1434.0,0.009261
1435.0,0.008624
1436.0,0.01762
1437.0,0.01352
1438.0,0.005442
1439.0,0.02439
1440.0,0.01826
