interpolation:linear
wavelength,value
280.0,2.412e-20
280.5,6.98e-19
281.0,3.589e-18
281.5,4.164e-19
282.0,1.691e-18
282.5,4.713e-18
283.0,1.56e-17
283.5,2.569e-17
284.0,4.078e-16
284.5,1.156e-15
285.0,1.988e-15
285.5,1.132e-14
286.0,4.713e-14
286.5,2.187e-13
287.0,6.344e-13
287.5,2.549e-12
288.0,7.364e-12
288.5,2.851e-11
289.0,9.327e-11
289.5,3.403e-10
290.0,1.087e-09
290.5,2.477e-09
291.0,6.027e-09
291.5,2.009e-08
292.0,5.53e-08
292.5,8.763e-08
293.0,2.198e-07
293.5,6.669e-07
294.0,1.232e-06
294.5,1.631e-06
295.0,3.243e-06
295.5,8.225e-06
296.0,1.592e-05
296.5,2.234e-05
297.0,3.03e-05
297.5,8.141e-05
298.0,0.0001285
298.5,0.0001293
299.0,0.0002854
299.5,0.0004735
300.0,0.0005211
300.5,0.0007553
301.0,0.001368
301.5,0.002187
302.0,0.001876
302.5,0.003573
303.0,0.006205
303.5,0.007641
304.0,0.007066
304.5,0.01011
305.0,0.01445
305.5,0.01594
306.0,0.01521
306.5,0.01849
307.0,0.02604
307.5,0.03294
308.0,0.03451
308.5,0.03978
309.0,0.03854
309.5,0.04263
310.0,0.04216
310.5,0.06775
311.0,0.08393
311.5,0.08056
312.0,0.07826
312.5,0.09342
313.0,0.1003
313.5,0.09831
314.0,0.1201
314.5,0.1032
315.0,0.1349
315.5,0.1146
316.0,0.09755
316.5,0.137
317.0,0.1702
317.5,0.1782
318.0,0.137
318.5,0.1652
319.0,0.1933
319.5,0.1612
320.0,0.1955
320.5,0.2376
321.0,0.206
321.5,0.197
322.0,0.216
322.5,0.1876
323.0,0.1834
323.5,0.2215
324.0,0.2577
324.5,0.2636
325.0,0.23
325.5,0.2913
326.0,0.3546
326.5,0.3515
327.0,0.3516
327.5,0.3412
328.0,0.3079
328.5,0.3184
329.0,0.3763
329.5,0.4255
330.0,0.4306
330.5,0.348
331.0,0.3558
331.5,0.3589
332.0,0.3836
332.5,0.3776
333.0,0.3776
333.5,0.3444
334.0,0.3533
334.5,0.404
335.0,0.3777
335.5,0.4411
336.0,0.3052
336.5,0.3583
337.0,0.295
337.5,0.3674
338.0,0.3561
338.5,0.4109
339.0,0.4066
339.5,0.3911
340.0,0.4598
340.5,0.4141
341.0,0.404
341.5,0.3708
342.0,0.443
342.5,0.4144
343.0,0.4559
343.5,0.4293
344.0,0.3172
344.5,0.3205
345.0,0.424
345.5,0.4327
346.0,0.3677
346.5,0.4163
347.0,0.447
347.5,0.3614
348.0,0.4119
348.5,0.4117
349.0,0.3819
349.5,0.3781
350.0,0.4676
350.5,0.4933
351.0,0.4407
351.5,0.4284
352.0,0.46
352.5,0.3589
353.0,0.452
353.5,0.4833
354.0,0.5018
354.5,0.5089
355.0,0.5072
355.5,0.4582
356.0,0.4793
356.5,0.4093
357.0,0.3382
357.5,0.4141
358.0,0.3281
358.5,0.2804
359.0,0.3922
359.5,0.4999
360.0,0.53
360.5,0.4236
361.0,0.3861
361.5,0.4445
362.0,0.3844
362.5,0.5319
363.0,0.4777
363.5,0.44
364.0,0.5381
364.5,0.46
365.0,0.4685
365.5,0.588
366.0,0.623
366.5,0.5853
367.0,0.57
367.5,0.5916
368.0,0.5177
368.5,0.5224
369.0,0.5642
369.5,0.6013
370.0,0.6411
370.5,0.4976
371.0,0.5317
371.5,0.6652
372.0,0.4415
372.5,0.5294
373.0,0.5385
373.5,0.3504
374.0,0.5091
374.5,0.4217
375.0,0.4099
375.5,0.612
376.0,0.5074
376.5,0.5258
377.0,0.5567
377.5,0.6513
378.0,0.7061
378.5,0.6674
379.0,0.5508
379.5,0.5032
380.0,0.5232
380.5,0.6337
381.0,0.6351
381.5,0.5034
382.0,0.4471
382.5,0.3811
383.0,0.3529
383.5,0.3399
384.0,0.3749
384.5,0.5515
385.0,0.5469
385.5,0.5093
386.0,0.4363
386.5,0.5731
387.0,0.4762
387.5,0.5349
388.0,0.4939
388.5,0.4882
389.0,0.5271
389.5,0.6384
390.0,0.6407
390.5,0.5897
391.0,0.6941
391.5,0.708
392.0,0.5964
392.5,0.5339
393.0,0.2971
393.5,0.216
394.0,0.4395
394.5,0.5588
395.0,0.6819
395.5,0.6927
396.0,0.6006
396.5,0.3511
397.0,0.2635
397.5,0.5359
398.0,0.7506
398.5,0.7759
399.0,0.8401
399.5,0.8374
400.0,0.8696
401.0,0.8832
402.0,0.9319
403.0,0.8852
404.0,0.8716
405.0,0.8716
406.0,0.8574
407.0,0.8435
408.0,0.8766
409.0,0.9382
410.0,0.8198
411.0,0.888
412.0,0.9536
413.0,0.9301
414.0,0.9415
415.0,0.9439
416.0,0.9604
417.0,0.9368
418.0,0.9195
419.0,0.9316
420.0,0.9275
421.0,0.9703
422.0,0.9222
423.0,0.9009
424.0,0.9529
425.0,0.9511
426.0,0.9263
427.0,0.909
428.0,0.8855
429.0,0.8386
430.0,0.7339
431.0,0.7275
432.0,0.9392
433.0,0.9443
434.0,0.8769
435.0,0.9158
436.0,1.032
437.0,1.018
438.0,0.9267
439.0,0.9587
440.0,0.9891
441.0,1.025
442.0,1.099
443.0,1.071
444.0,1.094
445.0,1.07
446.0,1.021
447.0,1.104
448.0,1.121
449.0,1.125
450.0,1.157
451.0,1.199
452.0,1.156
453.0,1.087
454.0,1.134
455.0,1.141
456.0,1.168
457.0,1.188
458.0,1.147
459.0,1.141
460.0,1.145
461.0,1.171
462.0,1.18
463.0,1.172
464.0,1.152
465.0,1.137
466.0,1.148
467.0,1.127
468.0,1.14
469.0,1.146
470.0,1.11
471.0,1.108
472.0,1.168
473.0,1.153
474.0,1.155
475.0,1.165
476.0,1.13
477.0,1.134
478.0,1.165
479.0,1.158
480.0,1.16
481.0,1.181
482.0,1.187
483.0,1.172
484.0,1.148
485.0,1.094
486.0,0.9558
487.0,1.002
488.0,1.099
489.0,1.102
490.0,1.16
491.0,1.139
492.0,1.076
493.0,1.111
494.0,1.122
495.0,1.132
496.0,1.139
497.0,1.156
498.0,1.102
499.0,1.117
500.0,1.084
501.0,1.065
502.0,1.05
503.0,1.093
504.0,1.067
505.0,1.104
506.0,1.14
507.0,1.084
508.0,1.05
509.0,1.079
510.0,1.073
511.0,1.102
512.0,1.114
513.0,1.054
514.0,1.047
515.0,1.036
516.0,1.034
517.0,0.9184
518.0,0.9656
519.0,1.013
520.0,1.05
521.0,1.06
522.0,1.061
523.0,1.042
524.0,1.079
525.0,1.092
526.0,1.043
527.0,0.9835
528.0,1.04
529.0,1.097
530.0,1.081
531.0,1.097
532.0,1.06
533.0,1.029
534.0,1.059
535.0,1.082
536.0,1.092
537.0,1.049
538.0,1.067
539.0,1.058
540.0,1.014
541.0,1.022
542.0,1.054
543.0,1.042
544.0,1.061
545.0,1.057
546.0,1.062
547.0,1.062
548.0,1.049
549.0,1.052
550.0,1.064
551.0,1.051
552.0,1.059
553.0,1.04
554.0,1.065
555.0,1.067
556.0,1.053
557.0,1.02
558.0,1.013
559.0,0.9942
560.0,1.007
561.0,1.02
562.0,1.013
563.0,1.041
564.0,1.013
565.0,1.004
566.0,0.9894
567.0,1.008
568.0,1.0
569.0,0.9775
570.0,0.9771
571.0,0.9709
572.0,0.995
573.0,1.006
574.0,1.003
575.0,0.9843
576.0,0.9753
577.0,0.9858
578.0,0.9706
579.0,0.9739
580.0,0.9916
581.0,0.9961
582.0,1.014
583.0,1.016
584.0,1.025
585.0,0.9997
586.0,0.9791
587.0,1.001
588.0,0.9781
589.0,0.8696
590.0,0.9091
591.0,0.9602
592.0,0.9491
593.0,0.9619
594.0,0.9557
595.0,0.9332
596.0,0.9676
597.0,0.9577
598.0,0.9545
599.0,0.955
600.0,0.9558
601.0,0.9475
602.0,0.941
603.0,0.9564
604.0,0.9721
605.0,0.9669
606.0,0.9627
607.0,0.972
608.0,0.961
609.0,0.9625
610.0,0.9553
611.0,0.9602
612.0,0.9572
613.0,0.9451
614.0,0.9319
615.0,0.952
616.0,0.9205
617.0,0.9185
618.0,0.9538
619.0,0.944
620.0,0.95
621.0,0.9511
622.0,0.9402
623.0,0.9261
624.0,0.91
625.0,0.9079
626.0,0.9214
627.0,0.9323
628.0,0.8769
629.0,0.9124
630.0,0.8916
631.0,0.9096
632.0,0.8983
633.0,0.9247
634.0,0.9151
635.0,0.929
636.0,0.9163
637.0,0.931
638.0,0.9395
639.0,0.9287
640.0,0.9194
641.0,0.9186
642.0,0.9142
643.0,0.9265
644.0,0.9232
645.0,0.9249
646.0,0.904
647.0,0.895
648.0,0.896
649.0,0.8788
650.0,0.8808
651.0,0.9186
652.0,0.8828
653.0,0.9063
654.0,0.896
655.0,0.8639
656.0,0.7648
657.0,0.7853
658.0,0.8793
659.0,0.8853
660.0,0.8889
661.0,0.8951
662.0,0.8973
663.0,0.8794
664.0,0.8892
665.0,0.8895
666.0,0.89
667.0,0.8889
668.0,0.8891
669.0,0.9027
670.0,0.8986
671.0,0.8983
672.0,0.8906
673.0,0.9039
674.0,0.9004
675.0,0.8921
676.0,0.8981
677.0,0.8892
678.0,0.8916
679.0,0.8771
680.0,0.8841
681.0,0.8783
682.0,0.8771
683.0,0.8754
684.0,0.8711
685.0,0.8784
686.0,0.8733
687.0,0.607
688.0,0.6984
689.0,0.7004
690.0,0.7303
691.0,0.7638
692.0,0.7877
693.0,0.7816
694.0,0.7751
695.0,0.8039
696.0,0.805
697.0,0.8501
698.0,0.837
699.0,0.8197
700.0,0.8099
701.0,0.8025
702.0,0.807
703.0,0.8085
704.0,0.8327
705.0,0.834
706.0,0.8326
707.0,0.833
708.0,0.8349
709.0,0.835
710.0,0.8355
711.0,0.834
712.0,0.8311
713.0,0.8231
714.0,0.8261
715.0,0.8011
716.0,0.8018
717.0,0.7054
718.0,0.6495
719.0,0.596
720.0,0.6251
721.0,0.6839
722.0,0.7757
723.0,0.7256
724.0,0.6577
725.0,0.6485
726.0,0.6782
727.0,0.6855
728.0,0.6474
729.0,0.668
730.0,0.7068
731.0,0.6774
732.0,0.7208
733.0,0.7594
734.0,0.7764
735.0,0.7609
736.0,0.7598
737.0,0.763
738.0,0.7723
739.0,0.7572
740.0,0.7761
741.0,0.768
742.0,0.7683
743.0,0.7877
744.0,0.7852
745.0,0.7851
746.0,0.7887
747.0,0.7904
748.0,0.7887
749.0,0.7797
750.0,0.7792
751.0,0.7713
752.0,0.7746
753.0,0.7785
754.0,0.7802
755.0,0.7758
756.0,0.7754
757.0,0.7766
758.0,0.767
759.0,0.7528
760.0,0.1513
761.0,0.08476
762.0,0.412
763.0,0.2213
764.0,0.3191
765.0,0.4122
766.0,0.4934
767.0,0.6101
768.0,0.6941
769.0,0.7065
770.0,0.728
771.0,0.7328
772.0,0.734
773.0,0.7391
774.0,0.7354
775.0,0.7298
776.0,0.7386
777.0,0.7289
778.0,0.7245
779.0,0.7251
780.0,0.721
781.0,0.7217
782.0,0.7262
783.0,0.7135
784.0,0.7169
785.0,0.7117
786.0,0.7196
787.0,0.7081
788.0,0.6998
789.0,0.6996
790.0,0.6825
791.0,0.687
792.0,0.6817
793.0,0.6708
794.0,0.6807
795.0,0.6927
796.0,0.6734
797.0,0.6743
798.0,0.692
799.0,0.688
800.0,0.6766
801.0,0.6749
802.0,0.6729
803.0,0.6681
804.0,0.6687
805.0,0.6661
806.0,0.6838
807.0,0.6758
808.0,0.6763
809.0,0.6643
810.0,0.6594
811.0,0.6613
812.0,0.6437
813.0,0.6312
814.0,0.5601
815.0,0.5565
816.0,0.5186
817.0,0.5275
818.0,0.5088
819.0,0.5647
820.0,0.5335
821.0,0.6179
822.0,0.6012
823.0,0.4178
824.0,0.5856
825.0,0.6074
826.0,0.5861
827.0,0.6167
828.0,0.5279
829.0,0.5822
830.0,0.5751
831.0,0.5769
832.0,0.5602
833.0,0.5934
834.0,0.5741
835.0,0.6271
836.0,0.6024
837.0,0.6287
838.0,0.6101
839.0,0.6189
840.0,0.6323
841.0,0.6237
842.0,0.6244
843.0,0.6234
844.0,0.6151
845.0,0.6353
846.0,0.6325
847.0,0.6205
848.0,0.6169
849.0,0.5994
850.0,0.5742
851.0,0.6083
852.0,0.6039
853.0,0.581
854.0,0.5019
855.0,0.5511
856.0,0.6024
857.0,0.6156
858.0,0.6112
859.0,0.6116
860.0,0.6126
861.0,0.6093
862.0,0.6188
863.0,0.6334
864.0,0.6017
865.0,0.5964
866.0,0.5363
867.0,0.5596
868.0,0.609
869.0,0.5963
870.0,0.6133
871.0,0.605
872.0,0.6028
873.0,0.6016
874.0,0.5945
875.0,0.5824
876.0,0.5885
877.0,0.5944
878.0,0.6009
879.0,0.5917
880.0,0.579
881.0,0.5704
882.0,0.5828
883.0,0.5845
884.0,0.5819
885.0,0.5863
886.0,0.5592
887.0,0.5648
888.0,0.5733
889.0,0.5795
890.0,0.5751
891.0,0.5739
892.0,0.5579
893.0,0.5411
894.0,0.5235
895.0,0.4964
896.0,0.4684
897.0,0.4046
898.0,0.4402
899.0,0.3377
900.0,0.4493
901.0,0.3538
902.0,0.4115
903.0,0.4168
904.0,0.5195
905.0,0.5024
906.0,0.4708
907.0,0.386
908.0,0.3931
909.0,0.4242
910.0,0.3781
911.0,0.4012
912.0,0.4188
913.0,0.3838
914.0,0.38
915.0,0.4118
916.0,0.3493
917.0,0.4403
918.0,0.3583
919.0,0.4475
920.0,0.4505
921.0,0.4683
922.0,0.4207
923.0,0.4522
924.0,0.4313
925.0,0.422
926.0,0.4266
927.0,0.4757
928.0,0.3544
929.0,0.3249
930.0,0.2575
931.0,0.2436
932.0,0.1776
933.0,0.1454
934.0,0.08208
935.0,0.1479
936.0,0.09381
937.0,0.09525
938.0,0.1166
939.0,0.236
940.0,0.2825
941.0,0.2152
942.0,0.2479
943.0,0.1645
944.0,0.1719
945.0,0.2215
946.0,0.1147
947.0,0.223
948.0,0.1641
949.0,0.2966
950.0,0.08541
951.0,0.2917
952.0,0.1593
953.0,0.204
954.0,0.2483
955.0,0.2062
956.0,0.1991
957.0,0.1598
958.0,0.2796
959.0,0.2241
960.0,0.2512
961.0,0.2804
962.0,0.2654
963.0,0.3047
964.0,0.2796
965.0,0.3034
966.0,0.3038
967.0,0.3026
968.0,0.401
969.0,0.4193
970.0,0.3857
971.0,0.4394
972.0,0.4207
973.0,0.3684
974.0,0.3499
975.0,0.3624
976.0,0.3452
977.0,0.3907
978.0,0.3721
979.0,0.3891
980.0,0.3662
981.0,0.4368
982.0,0.4184
983.0,0.4021
984.0,0.4492
985.0,0.4168
986.0,0.4566
987.0,0.4483
988.0,0.4474
989.0,0.4549
990.0,0.4447
991.0,0.4563
992.0,0.4589
993.0,0.4492
994.0,0.4587
995.0,0.4581
996.0,0.4561
997.0,0.4567
998.0,0.4546
999.0,0.4529
1000.0,0.4499
1001.0,0.4554
1002.0,0.4433
1003.0,0.4473
1004.0,0.4365
1005.0,0.4204
1006.0,0.4369
1007.0,0.4461
1008.0,0.4438
1009.0,0.4415
1010.0,0.4397
1011.0,0.4438
1012.0,0.4401
1013.0,0.4427
1014.0,0.4396
1015.0,0.4367
1016.0,0.4347
1017.0,0.4359
1018.0,0.4342
1019.0,0.4251
1020.0,0.4319
1021.0,0.4313
1022.0,0.428
1023.0,0.4326
1024.0,0.4271
1025.0,0.4322
1026.0,0.4304
1027.0,0.4294
1028.0,0.4285
1029.0,0.4235
1030.0,0.4263
1031.0,0.4246
1032.0,0.4234
1033.0,0.417
1034.0,0.417
1035.0,0.4183
1036.0,0.4205
1037.0,0.4136
1038.0,0.4155
1039.0,0.4152
1040.0,0.4136
1041.0,0.4152
1042.0,0.4123
1043.0,0.4111
1044.0,0.4125
1045.0,0.4069
1046.0,0.4024
1047.0,0.4061
1048.0,0.4083
1049.0,0.4069
1050.0,0.405
1051.0,0.4044
1052.0,0.4028
1053.0,0.3996
1054.0,0.4005
1055.0,0.4008
1056.0,0.3994
1057.0,0.3982
1058.0,0.3884
1059.0,0.3889
1060.0,0.3883
1061.0,0.3879
1062.0,0.3899
1063.0,0.3861
1064.0,0.3906
1065.0,0.3879
1066.0,0.3802
1067.0,0.3851
1068.0,0.3767
1069.0,0.3651
1070.0,0.3775
1071.0,0.3832
1072.0,0.3789
1073.0,0.3734
1074.0,0.3829
1075.0,0.3642
1076.0,0.3826
1077.0,0.3761
1078.0,0.3691
1079.0,0.3764
1080.0,0.3703
1081.0,0.3587
1082.0,0.364
1083.0,0.365
1084.0,0.3579
1085.0,0.3711
1086.0,0.3394
1087.0,0.3497
1088.0,0.3647
1089.0,0.354
1090.0,0.3465
1091.0,0.3636
1092.0,0.3626
1093.0,0.3089
1094.0,0.3319
1095.0,0.3217
1096.0,0.3084
1097.0,0.3542
1098.0,0.3038
1099.0,0.3167
1100.0,0.295
1101.0,0.2985
1102.0,0.2855
1103.0,0.283
1104.0,0.2834
1105.0,0.3095
1106.0,0.2393
1107.0,0.2945
1108.0,0.2512
1109.0,0.2513
1110.0,0.2921
1111.0,0.2002
1112.0,0.2493
1113.0,0.1608
1114.0,0.1795
1115.0,0.1488
1116.0,0.1201
1117.0,0.04543
1118.0,0.1302
1119.0,0.06566
1120.0,0.08271
1121.0,0.1091
1122.0,0.04682
1123.0,0.0747
1124.0,0.06307
1125.0,0.08203
1126.0,0.02943
1127.0,0.09245
1128.0,0.05626
1129.0,0.05956
1130.0,0.03957
1131.0,0.1731
1132.0,0.1362
1133.0,0.08752
1134.0,0.02307
1135.0,0.008608
1136.0,0.07344
1137.0,0.1704
1138.0,0.1203
1139.0,0.177
1140.0,0.1488
1141.0,0.1143
1142.0,0.131
1143.0,0.185
1144.0,0.06579
1145.0,0.08438
1146.0,0.09102
1147.0,0.03292
1148.0,0.1602
1149.0,0.1286
1150.0,0.07067
1151.0,0.1194
1152.0,0.1461
1153.0,0.1417
1154.0,0.08193
1155.0,0.1847
1156.0,0.1668
1157.0,0.1864
1158.0,0.1844
1159.0,0.1982
1160.0,0.1701
1161.0,0.2081
1162.0,0.2092
1163.0,0.2797
1164.0,0.241
1165.0,0.2284
1166.0,0.226
1167.0,0.2456
1168.0,0.2486
1169.0,0.2541
1170.0,0.2752
1171.0,0.2685
1172.0,0.2728
1173.0,0.2746
1174.0,0.1988
1175.0,0.2678
1176.0,0.293
1177.0,0.2822
1178.0,0.214
1179.0,0.2953
1180.0,0.2652
1181.0,0.2735
1182.0,0.191
1183.0,0.269
1184.0,0.2528
1185.0,0.2447
1186.0,0.2877
1187.0,0.2748
1188.0,0.1945
1189.0,0.2562
1190.0,0.2812
1191.0,0.2683
1192.0,0.285
1193.0,0.2735
1194.0,0.2816
1195.0,0.2673
1196.0,0.258
1197.0,0.2813
1198.0,0.258
1199.0,0.2216
1200.0,0.2702
1201.0,0.2613
1202.0,0.2593
1203.0,0.2572
1204.0,0.2261
1205.0,0.2647
1206.0,0.2912
1207.0,0.2589
1208.0,0.2542
1209.0,0.2592
1210.0,0.2695
1211.0,0.2576
1212.0,0.2554
1213.0,0.2821
1214.0,0.2611
1215.0,0.2564
1216.0,0.2812
1217.0,0.2742
1218.0,0.2789
1219.0,0.2757
1220.0,0.2791
1221.0,0.2817
1222.0,0.2746
1223.0,0.2722
1224.0,0.2709
1225.0,0.2799
1226.0,0.2815
1227.0,0.2608
1228.0,0.2827
1229.0,0.2815
1230.0,0.277
1231.0,0.2841
1232.0,0.2824
1233.0,0.2737
1234.0,0.2836
1235.0,0.282
1236.0,0.2839
1237.0,0.2803
1238.0,0.283
1239.0,0.2793
1240.0,0.2804
1241.0,0.2793
1242.0,0.2785
1243.0,0.2762
1244.0,0.2782
1245.0,0.2794
1246.0,0.2777
1247.0,0.2767
1248.0,0.2766
1249.0,0.2774
1250.0,0.2758
1251.0,0.2724
1252.0,0.2723
1253.0,0.2704
1254.0,0.2679
1255.0,0.2721
1256.0,0.265
1257.0,0.2637
1258.0,0.2681
1259.0,0.2594
1260.0,0.2606
1261.0,0.2471
1262.0,0.2403
1263.0,0.2408
1264.0,0.2237
1265.0,0.2393
1266.0,0.2311
1267.0,0.2345
1268.0,0.2234
1269.0,0.1447
1270.0,0.2339
1271.0,0.2462
1272.0,0.2468
1273.0,0.2443
1274.0,0.245
1275.0,0.2483
1276.0,0.2505
1277.0,0.2519
1278.0,0.2562
1279.0,0.254
1280.0,0.2507
1281.0,0.239
1282.0,0.2299
1283.0,0.2477
1284.0,0.2537
1285.0,0.2553
1286.0,0.2586
1287.0,0.255
1288.0,0.2548
1289.0,0.2475
1290.0,0.2525
1291.0,0.2559
1292.0,0.2418
1293.0,0.2512
1294.0,0.2495
1295.0,0.2487
1296.0,0.2383
1297.0,0.2261
1298.0,0.242
1299.0,0.2514
1300.0,0.2152
1301.0,0.2213
1302.0,0.2412
1303.0,0.2121
1304.0,0.183
1305.0,0.2364
1306.0,0.2365
1307.0,0.1862
1308.0,0.2121
1309.0,0.2349
1310.0,0.1828
1311.0,0.2038
1312.0,0.1986
1313.0,0.1951
1314.0,0.1754
1315.0,0.1736
1316.0,0.2009
1317.0,0.1906
1318.0,0.2063
1319.0,0.1637
1320.0,0.1581
1321.0,0.1833
1322.0,0.1855
1323.0,0.1415
1324.0,0.1605
1325.0,0.1982
1326.0,0.1714
1327.0,0.1638
1328.0,0.1418
1329.0,0.1081
1330.0,0.14
1331.0,0.08634
1332.0,0.08853
1333.0,0.1228
1334.0,0.1031
1335.0,0.141
1336.0,0.1125
1337.0,0.09995
1338.0,0.1081
1339.0,0.1074
1340.0,0.104
1341.0,0.1026
1342.0,0.1077
1343.0,0.07515
1344.0,0.04489
1345.0,0.06458
1346.0,0.03349
1347.0,0.03429
1348.0,0.002485
1349.0,0.008648
1350.0,0.008782
1351.0,0.002358
1352.0,0.0007093
1353.0,4.086e-05
1354.0,0.0001303
1355.0,1.347e-06
1356.0,2.015e-05
1357.0,3.059e-05
1358.0,1.579e-06
1359.0,2.397e-07
1360.0,7.721e-07
1361.0,1.283e-09
1362.0,4.176e-12
1363.0,1.103e-06
1364.0,4.629e-07
1365.0,1.817e-12
1366.0,4.589e-06
1367.0,1.825e-06
1368.0,2.15e-14
1369.0,1.75e-07
1370.0,9.337e-08
1371.0,5.852e-09
1372.0,1.005e-06
1373.0,1.788e-05
1374.0,7.631e-05
1375.0,0.000139
1376.0,0.0001168
1377.0,5.455e-05
1378.0,0.0005135
1379.0,2.301e-05
1380.0,3.491e-05
1381.0,9.634e-07
1382.0,9.263e-07
1383.0,1.496e-08
1384.0,2.042e-07
1385.0,8.034e-07
1386.0,8.713e-07
1387.0,8.326e-05
1388.0,1.657e-06
1389.0,0.0002575
1390.0,0.0002218
1391.0,0.0001509
1392.0,1.012e-05
1393.0,5.128e-05
1394.0,3.037e-05
1395.0,2.476e-07
1396.0,1.754e-09
1397.0,2.115e-05
1398.0,0.0005818
1399.0,0.0003686
1400.0,8.401e-10
1401.0,3.039e-09
1402.0,0.0009169
1403.0,0.001177
1404.0,0.000362
1405.0,1.289e-07
1406.0,0.0009756
1407.0,8.429e-05
1408.0,0.0007934
1409.0,0.0002833
1410.0,0.0002184
1411.0,0.001031
1412.0,0.001351
1413.0,0.01281
1414.0,0.0001711
1415.0,8.46e-05
1416.0,0.0202
1417.0,0.006361
1418.0,0.007278
1419.0,0.001141
1420.0,0.004462
1421.0,0.00483
1422.0,0.02631
1423.0,0.00516
1424.0,0.009614
1425.0,0.01424
1426.0,0.01594
1427.0,0.02884
1428.0,0.002354
1429.0,0.02178
1430.0,0.03661
1431.0,0.04009
1432.0,0.001859
1433.0,0.02566
1434.0,0.01313
1435.0,0.01339
1436.0,0.02543
1437.0,0.01949
1438.0,0.008339
1439.0,0.03442
1440.0,0.02579
1441.0,0.01984
1442.0,0.02198
1443.0,0.02734
1444.0,0.03776
1445.0,0.02974
1446.0,0.01343
1447.0,0.02116
1448.0,0.07039
1449.0,0.06128
