interpolation:linear
wavelength,value
280.0,6.889e-21
280.5,2.099e-19
281.0,1.098e-18
281.5,5.092e-19
282.0,1.441e-18
282.5,3.75e-18
283.0,1.199e-17
283.5,1.955e-17
284.0,3.094e-16
284.5,8.825e-16
285.0,1.793e-15
285.5,9.238e-15
286.0,3.744e-14
286.5,1.675e-13
287.0,4.768e-13
287.5,1.807e-12
288.0,4.709e-12
288.5,1.651e-11
289.0,4.898e-11
289.5,1.612e-10
290.0,4.737e-10
290.5,1.007e-09
291.0,2.258e-09
291.5,6.95e-09
292.0,1.694e-08
292.5,2.643e-08
293.0,6.511e-08
293.5,1.928e-07
294.0,3.485e-07
294.5,4.591e-07
295.0,8.996e-07
295.5,2.459e-06
296.0,4.898e-06
296.5,7.083e-06
297.0,9.864e-06
297.5,2.765e-05
298.0,4.533e-05
298.5,4.707e-05
299.0,0.0001071
299.5,0.0001883
300.0,0.0002144
300.5,0.0003225
301.0,0.0006237
301.5,0.001068
302.0,0.0009534
302.5,0.001854
303.0,0.003306
303.5,0.004141
304.0,0.003875
304.5,0.005712
305.0,0.008504
305.5,0.009625
306.0,0.009274
306.5,0.01146
307.0,0.01669
307.5,0.02181
308.0,0.02297
308.5,0.02689
309.0,0.0263
309.5,0.02971
310.0,0.02967
310.5,0.04791
311.0,0.05983
311.5,0.05764
312.0,0.05699
312.5,0.06882
313.0,0.07435
313.5,0.07248
314.0,0.08978
314.5,0.07862
315.0,0.1031
315.5,0.08678
316.0,0.07501
316.5,0.1068
317.0,0.1326
317.5,0.1383
318.0,0.1073
318.5,0.1316
319.0,0.1552
319.5,0.1278
320.0,0.1546
320.5,0.1911
321.0,0.1682
321.5,0.1611
322.0,0.1739
322.5,0.1512
323.0,0.1494
323.5,0.1822
324.0,0.2124
324.5,0.2164
325.0,0.1878
325.5,0.2399
326.0,0.2928
326.5,0.2919
327.0,0.2915
327.5,0.2821
328.0,0.2528
328.5,0.2637
329.0,0.3139
329.5,0.3557
330.0,0.3594
330.5,0.289
331.0,0.295
331.5,0.2988
332.0,0.3212
332.5,0.317
333.0,0.3166
333.5,0.2876
334.0,0.2949
334.5,0.3389
335.0,0.3177
335.5,0.371
336.0,0.2568
336.5,0.3011
337.0,0.2475
337.5,0.3081
338.0,0.2998
338.5,0.346
339.0,0.3425
339.5,0.3295
340.0,0.3873
340.5,0.3491
341.0,0.3405
341.5,0.3126
342.0,0.3736
342.5,0.3496
343.0,0.3845
343.5,0.3622
344.0,0.2677
344.5,0.2704
345.0,0.3578
345.5,0.3654
346.0,0.3106
346.5,0.3517
347.0,0.3776
347.5,0.3054
348.0,0.3482
348.5,0.348
349.0,0.3229
349.5,0.3198
350.0,0.3956
350.5,0.4173
351.0,0.3728
351.5,0.3624
352.0,0.3893
352.5,0.3038
353.0,0.3828
353.5,0.4093
354.0,0.425
354.5,0.431
355.0,0.4297
355.5,0.3882
356.0,0.4062
356.5,0.3469
357.0,0.2867
357.5,0.351
358.0,0.2782
358.5,0.2378
359.0,0.3326
359.5,0.424
360.0,0.4495
360.5,0.3593
361.0,0.3276
361.5,0.3773
362.0,0.3263
362.5,0.4517
363.0,0.4058
363.5,0.3739
364.0,0.4573
364.5,0.391
365.0,0.3982
365.5,0.4999
366.0,0.5297
366.5,0.4978
367.0,0.4849
367.5,0.5033
368.0,0.4405
368.5,0.4446
369.0,0.4802
369.5,0.5119
370.0,0.5458
370.5,0.4237
371.0,0.4528
371.5,0.5666
372.0,0.3761
372.5,0.451
373.0,0.4589
373.5,0.2986
374.0,0.434
374.5,0.3595
375.0,0.3495
375.5,0.5219
376.0,0.4327
376.5,0.4485
377.0,0.4749
377.5,0.5557
378.0,0.6025
378.5,0.5695
379.0,0.4701
379.5,0.4294
380.0,0.4465
380.5,0.541
381.0,0.5422
381.5,0.4299
382.0,0.3819
382.5,0.3256
383.0,0.3015
383.5,0.2905
384.0,0.3205
384.5,0.4714
385.0,0.4676
385.5,0.4355
386.0,0.3731
386.5,0.4902
387.0,0.4074
387.5,0.4576
388.0,0.4226
388.5,0.4178
389.0,0.4511
389.5,0.5464
390.0,0.5485
390.5,0.5049
391.0,0.5944
391.5,0.6064
392.0,0.5108
392.5,0.4574
393.0,0.2545
393.5,0.1851
394.0,0.3766
394.5,0.4789
395.0,0.5845
395.5,0.5938
396.0,0.515
396.5,0.3011
397.0,0.226
397.5,0.4597
398.0,0.6438
398.5,0.6655
399.0,0.7208
399.5,0.7186
400.0,0.7462
401.0,0.7571
402.0,0.7991
403.0,0.7593
404.0,0.7478
405.0,0.7478
406.0,0.7359
407.0,0.7242
408.0,0.7526
409.0,0.8057
410.0,0.7042
411.0,0.763
412.0,0.8197
413.0,0.7995
414.0,0.8094
415.0,0.8118
416.0,0.8262
417.0,0.806
418.0,0.7912
419.0,0.8018
420.0,0.7984
421.0,0.8354
422.0,0.7942
423.0,0.7759
424.0,0.8208
425.0,0.8194
426.0,0.7983
427.0,0.7835
428.0,0.7634
429.0,0.7232
430.0,0.633
431.0,0.6275
432.0,0.8103
433.0,0.8149
434.0,0.7568
435.0,0.7904
436.0,0.8907
437.0,0.8789
438.0,0.8004
439.0,0.8279
440.0,0.8544
441.0,0.8854
442.0,0.9497
443.0,0.9251
444.0,0.9453
445.0,0.9249
446.0,0.8827
447.0,0.9544
448.0,0.9694
449.0,0.9733
450.0,1.001
451.0,1.038
452.0,0.9999
453.0,0.9406
454.0,0.9819
455.0,0.9881
456.0,1.012
457.0,1.028
458.0,0.9935
459.0,0.9884
460.0,0.9911
461.0,1.014
462.0,1.022
463.0,1.015
464.0,0.9981
465.0,0.9855
466.0,0.9951
467.0,0.977
468.0,0.9885
469.0,0.9937
470.0,0.962
471.0,0.9608
472.0,1.012
473.0,0.9993
474.0,1.001
475.0,1.009
476.0,0.9793
477.0,0.9821
478.0,1.009
479.0,1.003
480.0,1.005
481.0,1.024
482.0,1.029
483.0,1.017
484.0,0.9959
485.0,0.9489
486.0,0.8295
487.0,0.8693
488.0,0.9538
489.0,0.9568
490.0,1.007
491.0,0.9892
492.0,0.9342
493.0,0.9648
494.0,0.9744
495.0,0.9827
496.0,0.9888
497.0,1.004
498.0,0.9572
499.0,0.9695
500.0,0.9413
501.0,0.924
502.0,0.9111
503.0,0.9482
504.0,0.9242
505.0,0.9572
506.0,0.9882
507.0,0.9403
508.0,0.911
509.0,0.9365
510.0,0.9315
511.0,0.9565
512.0,0.9669
513.0,0.9151
514.0,0.9089
515.0,0.8998
516.0,0.8976
517.0,0.7976
518.0,0.8385
519.0,0.8795
520.0,0.9115
521.0,0.9202
522.0,0.921
523.0,0.9044
524.0,0.9368
525.0,0.9479
526.0,0.9055
527.0,0.8533
528.0,0.9025
529.0,0.9513
530.0,0.9376
531.0,0.9515
532.0,0.9188
533.0,0.8919
534.0,0.9183
535.0,0.9383
536.0,0.9469
537.0,0.9096
538.0,0.9256
539.0,0.9179
540.0,0.88
541.0,0.8859
542.0,0.9136
543.0,0.904
544.0,0.9197
545.0,0.9168
546.0,0.9209
547.0,0.9204
548.0,0.9094
549.0,0.9122
550.0,0.923
551.0,0.9118
552.0,0.9181
553.0,0.9017
554.0,0.9233
555.0,0.9251
556.0,0.9131
557.0,0.8847
558.0,0.8781
559.0,0.8617
560.0,0.8725
561.0,0.8838
562.0,0.8774
563.0,0.9014
564.0,0.8768
565.0,0.8693
566.0,0.8565
567.0,0.8727
568.0,0.8649
569.0,0.8444
570.0,0.8441
571.0,0.8391
572.0,0.8592
573.0,0.8684
574.0,0.8656
575.0,0.8494
576.0,0.8417
577.0,0.8509
578.0,0.8381
579.0,0.8414
580.0,0.8574
581.0,0.8619
582.0,0.8782
583.0,0.8803
584.0,0.888
585.0,0.8663
586.0,0.8485
587.0,0.8671
588.0,0.846
589.0,0.7495
590.0,0.7838
591.0,0.8294
592.0,0.8189
593.0,0.8311
594.0,0.8253
595.0,0.8049
596.0,0.8367
597.0,0.8276
598.0,0.8255
599.0,0.8262
600.0,0.8275
601.0,0.8207
602.0,0.8151
603.0,0.8286
604.0,0.8423
605.0,0.838
606.0,0.8345
607.0,0.8428
608.0,0.8335
609.0,0.835
610.0,0.829
611.0,0.8333
612.0,0.8309
613.0,0.8204
614.0,0.8092
615.0,0.8269
616.0,0.7996
617.0,0.798
618.0,0.8287
619.0,0.8203
620.0,0.8255
621.0,0.8263
622.0,0.8167
623.0,0.8042
624.0,0.7904
625.0,0.7887
626.0,0.8003
627.0,0.8093
628.0,0.7555
629.0,0.79
630.0,0.7718
631.0,0.7893
632.0,0.7799
633.0,0.8036
634.0,0.7958
635.0,0.8083
636.0,0.7976
637.0,0.8107
638.0,0.8185
639.0,0.8093
640.0,0.8015
641.0,0.801
642.0,0.7973
643.0,0.8081
644.0,0.8055
645.0,0.8068
646.0,0.7879
647.0,0.7785
648.0,0.7792
649.0,0.7641
650.0,0.7679
651.0,0.8012
652.0,0.7678
653.0,0.7906
654.0,0.7818
655.0,0.7526
656.0,0.6671
657.0,0.685
658.0,0.7677
659.0,0.7733
660.0,0.7765
661.0,0.7819
662.0,0.7835
663.0,0.768
664.0,0.7772
665.0,0.7778
666.0,0.7784
667.0,0.7777
668.0,0.7781
669.0,0.7901
670.0,0.7867
671.0,0.7865
672.0,0.7798
673.0,0.7915
674.0,0.7886
675.0,0.7814
676.0,0.7868
677.0,0.779
678.0,0.7812
679.0,0.7686
680.0,0.7747
681.0,0.7696
682.0,0.7686
683.0,0.7672
684.0,0.7634
685.0,0.7699
686.0,0.7653
687.0,0.5069
688.0,0.5946
689.0,0.5968
690.0,0.6262
691.0,0.6593
692.0,0.6834
693.0,0.6778
694.0,0.6722
695.0,0.7002
696.0,0.7011
697.0,0.7443
698.0,0.7327
699.0,0.715
700.0,0.7064
701.0,0.6992
702.0,0.7041
703.0,0.7054
704.0,0.728
705.0,0.7291
706.0,0.7285
707.0,0.7291
708.0,0.7306
709.0,0.7317
710.0,0.7317
711.0,0.7307
712.0,0.7285
713.0,0.7212
714.0,0.7239
715.0,0.701
716.0,0.7014
717.0,0.6079
718.0,0.5582
719.0,0.5113
720.0,0.5356
721.0,0.5915
722.0,0.677
723.0,0.6301
724.0,0.5675
725.0,0.5583
726.0,0.5845
727.0,0.593
728.0,0.5569
729.0,0.5779
730.0,0.6115
731.0,0.585
732.0,0.626
733.0,0.6628
734.0,0.6786
735.0,0.6645
736.0,0.6636
737.0,0.6663
738.0,0.6767
739.0,0.6633
740.0,0.6806
741.0,0.6739
742.0,0.6746
743.0,0.6917
744.0,0.6898
745.0,0.6899
746.0,0.6931
747.0,0.6946
748.0,0.6932
749.0,0.6853
750.0,0.6848
751.0,0.6779
752.0,0.6808
753.0,0.6843
754.0,0.6858
755.0,0.6819
756.0,0.6816
757.0,0.6826
758.0,0.6741
759.0,0.6604
760.0,0.1077
761.0,0.05597
762.0,0.3351
763.0,0.1656
764.0,0.2506
765.0,0.3351
766.0,0.4129
767.0,0.5225
768.0,0.6043
769.0,0.6173
770.0,0.6386
771.0,0.6439
772.0,0.6453
773.0,0.6498
774.0,0.6467
775.0,0.6418
776.0,0.6496
777.0,0.641
778.0,0.6371
779.0,0.6377
780.0,0.6341
781.0,0.6348
782.0,0.6387
783.0,0.6276
784.0,0.6306
785.0,0.6259
786.0,0.6328
787.0,0.6217
788.0,0.6139
789.0,0.6136
790.0,0.5971
791.0,0.6025
792.0,0.598
793.0,0.5884
794.0,0.5986
795.0,0.6087
796.0,0.5897
797.0,0.5905
798.0,0.6079
799.0,0.604
800.0,0.5934
801.0,0.5915
802.0,0.5898
803.0,0.5853
804.0,0.5861
805.0,0.5844
806.0,0.6009
807.0,0.5936
808.0,0.5942
809.0,0.5829
810.0,0.5781
811.0,0.5787
812.0,0.562
813.0,0.5502
814.0,0.4835
815.0,0.4806
816.0,0.4473
817.0,0.4555
818.0,0.4383
819.0,0.4905
820.0,0.4618
821.0,0.5404
822.0,0.5248
823.0,0.3559
824.0,0.5093
825.0,0.531
826.0,0.5107
827.0,0.5391
828.0,0.4564
829.0,0.5076
830.0,0.5009
831.0,0.5027
832.0,0.4871
833.0,0.5186
834.0,0.5
835.0,0.5498
836.0,0.5259
837.0,0.5514
838.0,0.534
839.0,0.5431
840.0,0.5551
841.0,0.5471
842.0,0.5484
843.0,0.5483
844.0,0.5406
845.0,0.5589
846.0,0.5565
847.0,0.5462
848.0,0.5427
849.0,0.5273
850.0,0.5052
851.0,0.5348
852.0,0.5311
853.0,0.5113
854.0,0.4414
855.0,0.485
856.0,0.53
857.0,0.5419
858.0,0.5379
859.0,0.5384
860.0,0.5394
861.0,0.5364
862.0,0.5448
863.0,0.5577
864.0,0.5298
865.0,0.5252
866.0,0.4722
867.0,0.4928
868.0,0.5363
869.0,0.5252
870.0,0.5401
871.0,0.5328
872.0,0.5309
873.0,0.5299
874.0,0.5235
875.0,0.5129
876.0,0.5183
877.0,0.5235
878.0,0.5292
879.0,0.521
880.0,0.5099
881.0,0.5022
882.0,0.513
883.0,0.5147
884.0,0.5123
885.0,0.5162
886.0,0.4918
887.0,0.4971
888.0,0.5043
889.0,0.5103
890.0,0.5058
891.0,0.505
892.0,0.4902
893.0,0.4745
894.0,0.4572
895.0,0.4311
896.0,0.4058
897.0,0.3475
898.0,0.3798
899.0,0.2876
900.0,0.3896
901.0,0.3015
902.0,0.3556
903.0,0.3585
904.0,0.4537
905.0,0.4377
906.0,0.4094
907.0,0.3309
908.0,0.3377
909.0,0.3666
910.0,0.3228
911.0,0.345
912.0,0.3609
913.0,0.3275
914.0,0.325
915.0,0.3524
916.0,0.2979
917.0,0.3796
918.0,0.3053
919.0,0.387
920.0,0.3918
921.0,0.4076
922.0,0.3633
923.0,0.3938
924.0,0.3722
925.0,0.3641
926.0,0.368
927.0,0.4131
928.0,0.2997
929.0,0.2727
930.0,0.2127
931.0,0.2017
932.0,0.1436
933.0,0.1158
934.0,0.0616
935.0,0.1192
936.0,0.07324
937.0,0.07409
938.0,0.0916
939.0,0.1954
940.0,0.2363
941.0,0.1767
942.0,0.2056
943.0,0.1339
944.0,0.1423
945.0,0.1825
946.0,0.09105
947.0,0.1829
948.0,0.1341
949.0,0.2466
950.0,0.06571
951.0,0.2432
952.0,0.1282
953.0,0.1672
954.0,0.2068
955.0,0.1693
956.0,0.1655
957.0,0.1282
958.0,0.2369
959.0,0.1862
960.0,0.2087
961.0,0.2359
962.0,0.2229
963.0,0.2584
964.0,0.2363
965.0,0.2576
966.0,0.2573
967.0,0.2561
968.0,0.3483
969.0,0.3634
970.0,0.3331
971.0,0.3835
972.0,0.3664
973.0,0.3168
974.0,0.3003
975.0,0.3126
976.0,0.2956
977.0,0.3388
978.0,0.3209
979.0,0.3368
980.0,0.3162
981.0,0.3813
982.0,0.3638
983.0,0.3488
984.0,0.3938
985.0,0.3624
986.0,0.4013
987.0,0.3928
988.0,0.3921
989.0,0.4005
990.0,0.3898
991.0,0.4016
992.0,0.404
993.0,0.3943
994.0,0.4039
995.0,0.4035
996.0,0.4016
997.0,0.4023
998.0,0.4003
999.0,0.3989
1000.0,0.3959
1001.0,0.401
1002.0,0.3894
1003.0,0.3939
1004.0,0.3841
1005.0,0.3703
1006.0,0.3846
1007.0,0.3928
1008.0,0.3906
1009.0,0.3884
1010.0,0.3867
1011.0,0.3909
1012.0,0.3873
1013.0,0.3899
1014.0,0.3872
1015.0,0.3846
1016.0,0.3829
1017.0,0.3838
1018.0,0.3825
1019.0,0.3741
1020.0,0.3804
1021.0,0.3799
1022.0,0.3769
1023.0,0.3809
1024.0,0.3757
1025.0,0.3807
1026.0,0.379
1027.0,0.3781
1028.0,0.3773
1029.0,0.3728
1030.0,0.3755
1031.0,0.374
1032.0,0.3729
1033.0,0.3673
1034.0,0.3673
1035.0,0.3684
1036.0,0.3703
1037.0,0.3643
1038.0,0.3659
1039.0,0.3657
1040.0,0.3642
1041.0,0.3656
1042.0,0.3631
1043.0,0.3619
1044.0,0.3632
1045.0,0.3582
1046.0,0.3543
1047.0,0.3574
1048.0,0.3594
1049.0,0.3581
1050.0,0.3564
1051.0,0.3559
1052.0,0.3544
1053.0,0.3515
1054.0,0.3523
1055.0,0.3524
1056.0,0.3511
1057.0,0.35
1058.0,0.3414
1059.0,0.3417
1060.0,0.3412
1061.0,0.3407
1062.0,0.3425
1063.0,0.3391
1064.0,0.3431
1065.0,0.3405
1066.0,0.3339
1067.0,0.3382
1068.0,0.3307
1069.0,0.3206
1070.0,0.3314
1071.0,0.3367
1072.0,0.3327
1073.0,0.3279
1074.0,0.3367
1075.0,0.3191
1076.0,0.3363
1077.0,0.3299
1078.0,0.3235
1079.0,0.3311
1080.0,0.3249
1081.0,0.3141
1082.0,0.3197
1083.0,0.3209
1084.0,0.3132
1085.0,0.3257
1086.0,0.2962
1087.0,0.3064
1088.0,0.3204
1089.0,0.3099
1090.0,0.3027
1091.0,0.3192
1092.0,0.3185
1093.0,0.2682
1094.0,0.2912
1095.0,0.2797
1096.0,0.2672
1097.0,0.3112
1098.0,0.2628
1099.0,0.2745
1100.0,0.2543
1101.0,0.2578
1102.0,0.2457
1103.0,0.2429
1104.0,0.2433
1105.0,0.268
1106.0,0.2019
1107.0,0.2539
1108.0,0.2134
1109.0,0.2141
1110.0,0.2514
1111.0,0.168
1112.0,0.2126
1113.0,0.1327
1114.0,0.1486
1115.0,0.1231
1116.0,0.0967
1117.0,0.03383
1118.0,0.1058
1119.0,0.05108
1120.0,0.06419
1121.0,0.08605
1122.0,0.035
1123.0,0.05807
1124.0,0.04899
1125.0,0.06426
1126.0,0.02117
1127.0,0.0726
1128.0,0.04212
1129.0,0.04487
1130.0,0.02904
1131.0,0.1409
1132.0,0.1099
1133.0,0.06792
1134.0,0.01639
1135.0,0.0062
1136.0,0.05604
1137.0,0.1378
1138.0,0.09674
1139.0,0.1477
1140.0,0.1221
1141.0,0.09196
1142.0,0.1065
1143.0,0.1526
1144.0,0.05167
1145.0,0.06555
1146.0,0.07067
1147.0,0.02362
1148.0,0.132
1149.0,0.1044
1150.0,0.05575
1151.0,0.09597
1152.0,0.1193
1153.0,0.1172
1154.0,0.06336
1155.0,0.154
1156.0,0.138
1157.0,0.1559
1158.0,0.1542
1159.0,0.1671
1160.0,0.142
1161.0,0.1766
1162.0,0.1774
1163.0,0.2422
1164.0,0.2068
1165.0,0.1942
1166.0,0.1935
1167.0,0.2112
1168.0,0.2133
1169.0,0.2187
1170.0,0.2384
1171.0,0.2323
1172.0,0.2369
1173.0,0.2379
1174.0,0.1683
1175.0,0.2327
1176.0,0.2565
1177.0,0.2458
1178.0,0.1834
1179.0,0.2586
1180.0,0.23
1181.0,0.2374
1182.0,0.1627
1183.0,0.234
1184.0,0.2189
1185.0,0.2109
1186.0,0.2511
1187.0,0.2389
1188.0,0.1653
1189.0,0.2225
1190.0,0.2455
1191.0,0.2325
1192.0,0.249
1193.0,0.2384
1194.0,0.2458
1195.0,0.2321
1196.0,0.2233
1197.0,0.2461
1198.0,0.2249
1199.0,0.1905
1200.0,0.2353
1201.0,0.2267
1202.0,0.2256
1203.0,0.2236
1204.0,0.1951
1205.0,0.2311
1206.0,0.2556
1207.0,0.2249
1208.0,0.2216
1209.0,0.2262
1210.0,0.2358
1211.0,0.2243
1212.0,0.2213
1213.0,0.2471
1214.0,0.2267
1215.0,0.2224
1216.0,0.2463
1217.0,0.2397
1218.0,0.2443
1219.0,0.2412
1220.0,0.2445
1221.0,0.247
1222.0,0.2406
1223.0,0.2383
1224.0,0.2367
1225.0,0.2455
1226.0,0.2472
1227.0,0.2277
1228.0,0.2485
1229.0,0.2472
1230.0,0.2429
1231.0,0.25
1232.0,0.2486
1233.0,0.2398
1234.0,0.2499
1235.0,0.2483
1236.0,0.2501
1237.0,0.2465
1238.0,0.2493
1239.0,0.2461
1240.0,0.247
1241.0,0.2458
1242.0,0.2453
1243.0,0.2433
1244.0,0.245
1245.0,0.2461
1246.0,0.2446
1247.0,0.2437
1248.0,0.2435
1249.0,0.2443
1250.0,0.2428
1251.0,0.2396
1252.0,0.2397
1253.0,0.2377
1254.0,0.2352
1255.0,0.2394
1256.0,0.2326
1257.0,0.2312
1258.0,0.2357
1259.0,0.2269
1260.0,0.2281
1261.0,0.215
1262.0,0.2083
1263.0,0.2087
1264.0,0.1923
1265.0,0.2074
1266.0,0.1993
1267.0,0.203
1268.0,0.1922
1269.0,0.1174
1270.0,0.2022
1271.0,0.2143
1272.0,0.215
1273.0,0.2127
1274.0,0.2135
1275.0,0.2166
1276.0,0.2188
1277.0,0.2203
1278.0,0.2247
1279.0,0.2226
1280.0,0.2198
1281.0,0.2098
1282.0,0.2023
1283.0,0.2178
1284.0,0.223
1285.0,0.2245
1286.0,0.2276
1287.0,0.224
1288.0,0.2239
1289.0,0.2167
1290.0,0.222
1291.0,0.2251
1292.0,0.2111
1293.0,0.2207
1294.0,0.2191
1295.0,0.2179
1296.0,0.2078
1297.0,0.1964
1298.0,0.2118
1299.0,0.221
1300.0,0.1863
1301.0,0.1922
1302.0,0.2111
1303.0,0.184
1304.0,0.1562
1305.0,0.2067
1306.0,0.2067
1307.0,0.1599
1308.0,0.1844
1309.0,0.205
1310.0,0.1568
1311.0,0.1766
1312.0,0.1717
1313.0,0.1683
1314.0,0.1503
1315.0,0.1482
1316.0,0.1737
1317.0,0.1644
1318.0,0.179
1319.0,0.139
1320.0,0.1349
1321.0,0.1574
1322.0,0.1588
1323.0,0.1187
1324.0,0.1364
1325.0,0.1711
1326.0,0.1464
1327.0,0.1395
1328.0,0.12
1329.0,0.08929
1330.0,0.1166
1331.0,0.06939
1332.0,0.072
1333.0,0.1005
1334.0,0.08561
1335.0,0.1182
1336.0,0.09295
1337.0,0.08191
1338.0,0.08864
1339.0,0.0884
1340.0,0.08627
1341.0,0.08356
1342.0,0.08783
1343.0,0.0581
1344.0,0.03488
1345.0,0.05037
1346.0,0.02414
1347.0,0.02439
1348.0,0.001463
1349.0,0.005375
1350.0,0.005673
1351.0,0.001285
1352.0,0.0003213
1353.0,1.516e-05
1354.0,5.508e-05
1355.0,3.771e-07
1356.0,7.369e-06
1357.0,1.125e-05
1358.0,4.496e-07
1359.0,5.009e-08
1360.0,1.969e-07
1361.0,1.696e-10
1362.0,4.166e-13
1363.0,2.564e-07
1364.0,1.057e-07
1365.0,1.268e-13
1366.0,1.159e-06
1367.0,4.864e-07
1368.0,7.423e-16
1369.0,3.929e-08
1370.0,1.84e-08
1371.0,9.818e-10
1372.0,2.679e-07
1373.0,5.889e-06
1374.0,2.902e-05
1375.0,5.257e-05
1376.0,4.973e-05
1377.0,2.25e-05
1378.0,0.000226
1379.0,9.441e-06
1380.0,1.312e-05
1381.0,3.316e-07
1382.0,2.381e-07
1383.0,3.41e-09
1384.0,4.351e-08
1385.0,2.392e-07
1386.0,2.045e-07
1387.0,2.905e-05
1388.0,5.743e-07
1389.0,0.0001053
1390.0,9.049e-05
1391.0,5.967e-05
1392.0,3.811e-06
1393.0,2.088e-05
1394.0,9.815e-06
1395.0,6.763e-08
1396.0,2.534e-10
1397.0,8.128e-06
1398.0,0.0002522
1399.0,0.0001603
1400.0,1.021e-10
1401.0,4.677e-10
1402.0,0.0004858
1403.0,0.0006009
1404.0,0.0001818
1405.0,3.148e-08
1406.0,0.0004602
1407.0,4.154e-05
1408.0,0.0003784
1409.0,0.0001209
1410.0,0.0001001
1411.0,0.0005301
1412.0,0.0007329
1413.0,0.008145
1414.0,7.952e-05
1415.0,3.728e-05
1416.0,0.01412
1417.0,0.004017
1418.0,0.004526
1419.0,0.0006917
1420.0,0.00276
1421.0,0.002993
1422.0,0.01849
1423.0,0.003516
1424.0,0.006663
1425.0,0.00968
1426.0,0.0113
1427.0,0.0215
1428.0,0.001364
1429.0,0.01571
1430.0,0.02773
1431.0,0.0307
1432.0,0.001068
1433.0,0.01919
1434.0,0.009593
1435.0,0.009018
1436.0,0.01829
1437.0,0.01403
1438.0,0.005681
1439.0,0.02526
