interpolation:linear
wavelength,value
280.0,4.0050000000000005e-20
280.5,1.132e-18
281.0,5.777e-18
281.5,4.442e-19
282.0,1.916e-18
282.5,5.415e-18
283.0,1.803e-17
283.5,2.974e-17
284.0,4.694e-16
284.5,1.325e-15
285.0,2.427e-15
285.5,1.474e-14
286.0,6.261e-14
286.5,3.006e-13
287.0,8.908e-13
287.5,3.52e-12
288.0,1.045e-11
288.5,4.12e-11
289.0,1.381e-10
289.5,5.177e-10
290.0,1.692e-09
290.5,3.934e-09
291.0,9.803e-09
291.5,3.363e-08
292.0,9.19e-08
292.5,1.449e-07
293.0,3.609e-07
293.5,1.082e-06
294.0,1.981e-06
294.5,2.597e-06
295.0,5.097e-06
295.5,1.244e-05
296.0,2.376e-05
296.5,3.288e-05
297.0,4.407e-05
297.5,0.0001164
298.0,0.0001809
298.5,0.00018
299.0,0.0003924
299.5,0.0006376
300.0,0.0006932
300.5,0.0009919
301.0,0.001758
301.5,0.002752
302.0,0.002334
302.5,0.004412
303.0,0.00759
303.5,0.009294
304.0,0.008561
304.5,0.01213
305.0,0.01712
305.5,0.01874
306.0,0.01783
306.5,0.02157
307.0,0.03005
307.5,0.03764
308.0,0.03938
308.5,0.04518
309.0,0.0436
309.5,0.04792
310.0,0.04724
310.5,0.07579
311.0,0.09365
311.5,0.08978
312.0,0.08674
312.5,0.1032
313.0,0.1105
313.5,0.1085
314.0,0.132
314.5,0.1128
315.0,0.1472
315.5,0.1254
316.0,0.1063
316.5,0.1487
317.0,0.1847
317.5,0.1936
318.0,0.1484
318.5,0.178
319.0,0.2077
319.5,0.174
320.0,0.2111
320.5,0.2551
321.0,0.2202
321.5,0.2104
322.0,0.2319
322.5,0.2014
323.0,0.1962
323.5,0.2362
324.0,0.2747
324.5,0.2813
325.0,0.2458
325.5,0.3106
326.0,0.3777
326.5,0.3738
327.0,0.3741
327.5,0.3633
328.0,0.3285
328.5,0.3388
329.0,0.3996
329.5,0.4515
330.0,0.457
330.5,0.37
331.0,0.3784
331.5,0.3813
332.0,0.4068
332.5,0.4001
333.0,0.4002
333.5,0.3655
334.0,0.375
334.5,0.4281
335.0,0.3999
335.5,0.467
336.0,0.3231
336.5,0.3794
337.0,0.3126
337.5,0.3894
338.0,0.377
338.5,0.4349
339.0,0.4303
339.5,0.4139
340.0,0.4866
340.5,0.4382
341.0,0.4274
341.5,0.3923
342.0,0.4687
342.5,0.4384
343.0,0.4822
343.5,0.4542
344.0,0.3355
344.5,0.339
345.0,0.4484
345.5,0.4576
346.0,0.3888
346.5,0.4402
347.0,0.4726
347.5,0.3821
348.0,0.4355
348.5,0.4352
349.0,0.4036
349.5,0.3996
350.0,0.4942
350.5,0.5213
351.0,0.4657
351.5,0.4527
352.0,0.4861
352.5,0.3793
353.0,0.4776
353.5,0.5106
354.0,0.53
354.5,0.5375
355.0,0.5358
355.5,0.4839
356.0,0.5063
356.5,0.4323
357.0,0.3572
357.5,0.4373
358.0,0.3465
358.5,0.2961
359.0,0.4142
359.5,0.5279
360.0,0.5596
360.5,0.4472
361.0,0.4076
361.5,0.4693
362.0,0.4057
362.5,0.5614
363.0,0.5042
363.5,0.4644
364.0,0.5679
364.5,0.4854
365.0,0.4943
365.5,0.6204
366.0,0.6572
366.5,0.6175
367.0,0.6013
367.5,0.624
368.0,0.5461
368.5,0.551
369.0,0.595
369.5,0.6342
370.0,0.676
370.5,0.5247
371.0,0.5606
371.5,0.7013
372.0,0.4655
372.5,0.5581
373.0,0.5677
373.5,0.3694
374.0,0.5367
374.5,0.4445
375.0,0.432
375.5,0.6451
376.0,0.5347
376.5,0.5542
377.0,0.5867
377.5,0.6864
378.0,0.7441
378.5,0.7033
379.0,0.5805
379.5,0.5303
380.0,0.5513
380.5,0.6677
381.0,0.6691
381.5,0.5304
382.0,0.471
382.5,0.4015
383.0,0.3717
383.5,0.358
384.0,0.3949
384.5,0.5808
385.0,0.5759
385.5,0.5364
386.0,0.4594
386.5,0.6034
387.0,0.5014
387.5,0.5632
388.0,0.52
388.5,0.514
389.0,0.5548
389.5,0.672
390.0,0.6744
390.5,0.6207
391.0,0.7306
391.5,0.7452
392.0,0.6277
392.5,0.5619
393.0,0.3127
393.5,0.2273
394.0,0.4625
394.5,0.588
395.0,0.7175
395.5,0.7289
396.0,0.632
396.5,0.3694
397.0,0.2772
397.5,0.5638
398.0,0.7896
398.5,0.8162
399.0,0.8837
399.5,0.8808
400.0,0.9147
401.0,0.9293
402.0,0.9804
403.0,0.9312
404.0,0.9169
405.0,0.9167
406.0,0.9017
407.0,0.8871
408.0,0.9218
409.0,0.9866
410.0,0.862
411.0,0.9336
412.0,1.003
413.0,0.9778
414.0,0.9896
415.0,0.9921
416.0,1.009
417.0,0.9845
418.0,0.9663
419.0,0.9789
420.0,0.9746
421.0,1.019
422.0,0.9689
423.0,0.9464
424.0,1.001
425.0,0.9991
426.0,0.973
427.0,0.9547
428.0,0.93
429.0,0.8807
430.0,0.7707
431.0,0.7639
432.0,0.9861
433.0,0.9915
434.0,0.9207
435.0,0.9616
436.0,1.083
437.0,1.068
438.0,0.9727
439.0,1.006
440.0,1.038
441.0,1.076
442.0,1.154
443.0,1.124
444.0,1.148
445.0,1.123
446.0,1.071
447.0,1.158
448.0,1.176
449.0,1.181
450.0,1.213
451.0,1.258
452.0,1.212
453.0,1.14
454.0,1.19
455.0,1.197
456.0,1.225
457.0,1.246
458.0,1.204
459.0,1.197
460.0,1.201
461.0,1.228
462.0,1.237
463.0,1.229
464.0,1.208
465.0,1.192
466.0,1.204
467.0,1.182
468.0,1.196
469.0,1.202
470.0,1.164
471.0,1.162
472.0,1.224
473.0,1.209
474.0,1.211
475.0,1.221
476.0,1.185
477.0,1.189
478.0,1.222
479.0,1.214
480.0,1.216
481.0,1.238
482.0,1.244
483.0,1.229
484.0,1.203
485.0,1.146
486.0,1.002
487.0,1.05
488.0,1.152
489.0,1.155
490.0,1.215
491.0,1.194
492.0,1.128
493.0,1.164
494.0,1.176
495.0,1.186
496.0,1.193
497.0,1.212
498.0,1.155
499.0,1.17
500.0,1.136
501.0,1.116
502.0,1.101
503.0,1.146
504.0,1.119
505.0,1.157
506.0,1.195
507.0,1.137
508.0,1.101
509.0,1.131
510.0,1.125
511.0,1.155
512.0,1.167
513.0,1.104
514.0,1.097
515.0,1.086
516.0,1.083
517.0,0.9623
518.0,1.012
519.0,1.061
520.0,1.1
521.0,1.11
522.0,1.112
523.0,1.092
524.0,1.131
525.0,1.145
526.0,1.094
527.0,1.031
528.0,1.091
529.0,1.15
530.0,1.133
531.0,1.15
532.0,1.111
533.0,1.078
534.0,1.11
535.0,1.134
536.0,1.144
537.0,1.099
538.0,1.118
539.0,1.109
540.0,1.063
541.0,1.071
542.0,1.105
543.0,1.093
544.0,1.112
545.0,1.108
546.0,1.114
547.0,1.113
548.0,1.099
549.0,1.103
550.0,1.116
551.0,1.102
552.0,1.11
553.0,1.09
554.0,1.116
555.0,1.118
556.0,1.104
557.0,1.07
558.0,1.062
559.0,1.042
560.0,1.056
561.0,1.069
562.0,1.062
563.0,1.091
564.0,1.062
565.0,1.053
566.0,1.038
567.0,1.058
568.0,1.049
569.0,1.026
570.0,1.025
571.0,1.019
572.0,1.044
573.0,1.056
574.0,1.053
575.0,1.033
576.0,1.024
577.0,1.035
578.0,1.019
579.0,1.022
580.0,1.04
581.0,1.045
582.0,1.064
583.0,1.066
584.0,1.075
585.0,1.048
586.0,1.027
587.0,1.05
588.0,1.026
589.0,0.9133
590.0,0.9547
591.0,1.008
592.0,0.9965
593.0,1.009
594.0,1.003
595.0,0.9799
596.0,1.015
597.0,1.005
598.0,1.001
599.0,1.002
600.0,1.002
601.0,0.9937
602.0,0.9868
603.0,1.003
604.0,1.019
605.0,1.014
606.0,1.009
607.0,1.019
608.0,1.007
609.0,1.009
610.0,1.001
611.0,1.006
612.0,1.003
613.0,0.9904
614.0,0.9766
615.0,0.9975
616.0,0.9645
617.0,0.9623
618.0,0.9992
619.0,0.989
620.0,0.9953
621.0,0.9965
622.0,0.9851
623.0,0.9704
624.0,0.9535
625.0,0.9513
626.0,0.9655
627.0,0.977
628.0,0.9212
629.0,0.9569
630.0,0.9351
631.0,0.9533
632.0,0.9414
633.0,0.9688
634.0,0.9584
635.0,0.9729
636.0,0.9594
637.0,0.9747
638.0,0.9835
639.0,0.9721
640.0,0.9623
641.0,0.9614
642.0,0.9567
643.0,0.9695
644.0,0.966
645.0,0.9678
646.0,0.9463
647.0,0.9374
648.0,0.9385
649.0,0.9205
650.0,0.9219
651.0,0.9612
652.0,0.9246
653.0,0.9484
654.0,0.9375
655.0,0.9043
656.0,0.8003
657.0,0.8217
658.0,0.9199
659.0,0.9261
660.0,0.9298
661.0,0.9362
662.0,0.9387
663.0,0.9199
664.0,0.93
665.0,0.9301
666.0,0.9305
667.0,0.9293
668.0,0.9294
669.0,0.9435
670.0,0.9393
671.0,0.939
672.0,0.9308
673.0,0.9447
674.0,0.941
675.0,0.9323
676.0,0.9386
677.0,0.9292
678.0,0.9317
679.0,0.9166
680.0,0.9238
681.0,0.9177
682.0,0.9165
683.0,0.9147
684.0,0.9102
685.0,0.9178
686.0,0.9125
687.0,0.6438
688.0,0.7363
689.0,0.7383
690.0,0.7683
691.0,0.8018
692.0,0.8256
693.0,0.8194
694.0,0.8126
695.0,0.8417
696.0,0.8428
697.0,0.8886
698.0,0.8749
699.0,0.8578
700.0,0.8475
701.0,0.8401
702.0,0.8445
703.0,0.846
704.0,0.8708
705.0,0.8721
706.0,0.8705
707.0,0.8708
708.0,0.8727
709.0,0.8726
710.0,0.8732
711.0,0.8716
712.0,0.8683
713.0,0.8602
714.0,0.8633
715.0,0.8374
716.0,0.8383
717.0,0.741
718.0,0.683
719.0,0.6271
720.0,0.6579
721.0,0.7176
722.0,0.8116
723.0,0.7605
724.0,0.6907
725.0,0.6816
726.0,0.7124
727.0,0.7193
728.0,0.6805
729.0,0.7009
730.0,0.7416
731.0,0.7111
732.0,0.7554
733.0,0.7945
734.0,0.812
735.0,0.7959
736.0,0.7948
737.0,0.7981
738.0,0.8071
739.0,0.7913
740.0,0.8108
741.0,0.8021
742.0,0.8023
743.0,0.8225
744.0,0.8198
745.0,0.8197
746.0,0.8234
747.0,0.8252
748.0,0.8234
749.0,0.814
750.0,0.8135
751.0,0.8052
752.0,0.8086
753.0,0.8127
754.0,0.8145
755.0,0.8099
756.0,0.8095
757.0,0.8107
758.0,0.8007
759.0,0.7864
760.0,0.1685
761.0,0.09668
762.0,0.4406
763.0,0.2428
764.0,0.3449
765.0,0.4408
766.0,0.523
767.0,0.642
768.0,0.7268
769.0,0.7389
770.0,0.7605
771.0,0.7651
772.0,0.7663
773.0,0.7715
774.0,0.7677
775.0,0.7617
776.0,0.771
777.0,0.7608
778.0,0.7562
779.0,0.7568
780.0,0.7525
781.0,0.7533
782.0,0.758
783.0,0.7447
784.0,0.7483
785.0,0.7428
786.0,0.7511
787.0,0.7395
788.0,0.731
789.0,0.7309
790.0,0.7136
791.0,0.7177
792.0,0.7121
793.0,0.7008
794.0,0.7106
795.0,0.7232
796.0,0.7039
797.0,0.7048
798.0,0.7226
799.0,0.7185
800.0,0.7068
801.0,0.7052
802.0,0.7031
803.0,0.6981
804.0,0.6988
805.0,0.6958
806.0,0.7139
807.0,0.7056
808.0,0.7061
809.0,0.6939
810.0,0.689
811.0,0.6913
812.0,0.6735
813.0,0.6607
814.0,0.5881
815.0,0.5842
816.0,0.5447
817.0,0.5538
818.0,0.5347
819.0,0.5918
820.0,0.5597
821.0,0.6461
822.0,0.629
823.0,0.4407
824.0,0.6135
825.0,0.6353
826.0,0.6136
827.0,0.6449
828.0,0.5541
829.0,0.6094
830.0,0.6022
831.0,0.604
832.0,0.5868
833.0,0.6206
834.0,0.601
835.0,0.6551
836.0,0.6303
837.0,0.6567
838.0,0.6377
839.0,0.6465
840.0,0.6603
841.0,0.6515
842.0,0.652
843.0,0.6507
844.0,0.6422
845.0,0.6631
846.0,0.6601
847.0,0.6475
848.0,0.6439
849.0,0.6256
850.0,0.5993
851.0,0.635
852.0,0.6303
853.0,0.6064
854.0,0.5238
855.0,0.5751
856.0,0.6287
857.0,0.6424
858.0,0.6378
859.0,0.6382
860.0,0.6392
861.0,0.6357
862.0,0.6456
863.0,0.6609
864.0,0.6278
865.0,0.6223
866.0,0.5596
867.0,0.5839
868.0,0.6354
869.0,0.6222
870.0,0.6399
871.0,0.6312
872.0,0.629
873.0,0.6277
874.0,0.6202
875.0,0.6077
876.0,0.614
877.0,0.6202
878.0,0.627
879.0,0.6173
880.0,0.6041
881.0,0.5952
882.0,0.6082
883.0,0.6099
884.0,0.6072
885.0,0.6118
886.0,0.5837
887.0,0.5894
888.0,0.5984
889.0,0.6046
890.0,0.6003
891.0,0.5989
892.0,0.5825
893.0,0.5654
894.0,0.5476
895.0,0.5202
896.0,0.4912
897.0,0.4256
898.0,0.4623
899.0,0.3561
900.0,0.4712
901.0,0.3731
902.0,0.432
903.0,0.4382
904.0,0.5435
905.0,0.526
906.0,0.4932
907.0,0.4062
908.0,0.4134
909.0,0.4453
910.0,0.3984
911.0,0.4218
912.0,0.44
913.0,0.4045
914.0,0.4003
915.0,0.4335
916.0,0.3683
917.0,0.4624
918.0,0.3778
919.0,0.4696
920.0,0.472
921.0,0.4904
922.0,0.4417
923.0,0.4735
924.0,0.4529
925.0,0.4431
926.0,0.448
927.0,0.4984
928.0,0.3745
929.0,0.3442
930.0,0.2742
931.0,0.2592
932.0,0.1903
933.0,0.1567
934.0,0.09005
935.0,0.1587
936.0,0.1017
937.0,0.1034
938.0,0.1261
939.0,0.2511
940.0,0.2996
941.0,0.2295
942.0,0.2636
943.0,0.176
944.0,0.183
945.0,0.236
946.0,0.1237
947.0,0.238
948.0,0.1754
949.0,0.3151
950.0,0.09304
951.0,0.3096
952.0,0.171
953.0,0.2178
954.0,0.2637
955.0,0.2199
956.0,0.2117
957.0,0.1717
958.0,0.2953
959.0,0.2383
960.0,0.267
961.0,0.2969
962.0,0.2812
963.0,0.3217
964.0,0.2956
965.0,0.3203
966.0,0.3209
967.0,0.3198
968.0,0.4203
969.0,0.4397
970.0,0.4049
971.0,0.4598
972.0,0.4406
973.0,0.3873
974.0,0.3681
975.0,0.3807
976.0,0.3634
977.0,0.4097
978.0,0.3908
979.0,0.4082
980.0,0.3845
981.0,0.457
982.0,0.4383
983.0,0.4216
984.0,0.4694
985.0,0.4366
986.0,0.4767
987.0,0.4684
988.0,0.4675
989.0,0.4747
990.0,0.4647
991.0,0.4762
992.0,0.4789
993.0,0.4692
994.0,0.4786
995.0,0.4779
996.0,0.4759
997.0,0.4765
998.0,0.4744
999.0,0.4726
1000.0,0.4695
1001.0,0.4751
1002.0,0.4629
1003.0,0.4667
1004.0,0.4556
1005.0,0.4386
1006.0,0.4559
1007.0,0.4654
1008.0,0.4631
1009.0,0.4608
1010.0,0.4589
1011.0,0.463
1012.0,0.4592
1013.0,0.4619
1014.0,0.4586
1015.0,0.4556
1016.0,0.4536
1017.0,0.4548
1018.0,0.453
1019.0,0.4436
1020.0,0.4506
1021.0,0.4499
1022.0,0.4466
1023.0,0.4513
1024.0,0.4458
1025.0,0.4509
1026.0,0.4491
1027.0,0.448
1028.0,0.4471
1029.0,0.4418
1030.0,0.4447
1031.0,0.443
1032.0,0.4417
1033.0,0.435
1034.0,0.4351
1035.0,0.4364
1036.0,0.4387
1037.0,0.4316
1038.0,0.4335
1039.0,0.4333
1040.0,0.4315
1041.0,0.4333
1042.0,0.4302
1043.0,0.4289
1044.0,0.4304
1045.0,0.4246
1046.0,0.4199
1047.0,0.4237
1048.0,0.4261
1049.0,0.4246
1050.0,0.4227
1051.0,0.4221
1052.0,0.4204
1053.0,0.4171
1054.0,0.4181
1055.0,0.4183
1056.0,0.4169
1057.0,0.4157
1058.0,0.4055
1059.0,0.406
1060.0,0.4054
1061.0,0.405
1062.0,0.4071
1063.0,0.4032
1064.0,0.4079
1065.0,0.4051
1066.0,0.397
1067.0,0.4022
1068.0,0.3935
1069.0,0.3813
1070.0,0.3943
1071.0,0.4001
1072.0,0.3957
1073.0,0.39
1074.0,0.3997
1075.0,0.3807
1076.0,0.3994
1077.0,0.3928
1078.0,0.3856
1079.0,0.3929
1080.0,0.3868
1081.0,0.3749
1082.0,0.38
1083.0,0.381
1084.0,0.3742
1085.0,0.3876
1086.0,0.3552
1087.0,0.3655
1088.0,0.3808
1089.0,0.37
1090.0,0.3625
1091.0,0.3798
1092.0,0.3786
1093.0,0.3238
1094.0,0.3468
1095.0,0.337
1096.0,0.3235
1097.0,0.3698
1098.0,0.3187
1099.0,0.3321
1100.0,0.3099
1101.0,0.3134
1102.0,0.3001
1103.0,0.2977
1104.0,0.2981
1105.0,0.3247
1106.0,0.2532
1107.0,0.3093
1108.0,0.2651
1109.0,0.265
1110.0,0.307
1111.0,0.2121
1112.0,0.2627
1113.0,0.1712
1114.0,0.1909
1115.0,0.1584
1116.0,0.1289
1117.0,0.05
1118.0,0.1394
1119.0,0.07125
1120.0,0.08978
1121.0,0.1179
1122.0,0.05141
1123.0,0.08106
1124.0,0.06844
1125.0,0.08879
1126.0,0.0327
1127.0,0.09999
1128.0,0.06176
1129.0,0.06524
1130.0,0.04373
1131.0,0.1851
1132.0,0.146
1133.0,0.095
1134.0,0.02575
1135.0,0.009574
1136.0,0.08012
1137.0,0.1825
1138.0,0.1291
1139.0,0.1879
1140.0,0.1588
1141.0,0.1227
1142.0,0.1401
1143.0,0.1971
1144.0,0.07118
1145.0,0.09156
1146.0,0.09878
1147.0,0.03662
1148.0,0.1706
1149.0,0.1377
1150.0,0.07639
1151.0,0.1281
1152.0,0.156
1153.0,0.1508
1154.0,0.08908
1155.0,0.196
1156.0,0.1775
1157.0,0.1977
1158.0,0.1955
1159.0,0.2096
1160.0,0.1806
1161.0,0.2196
1162.0,0.221
1163.0,0.2933
1164.0,0.2535
1165.0,0.2409
1166.0,0.238
1167.0,0.2582
1168.0,0.2615
1169.0,0.267
1170.0,0.2886
1171.0,0.2817
1172.0,0.2858
1173.0,0.288
1174.0,0.2101
1175.0,0.2806
1176.0,0.3063
1177.0,0.2955
1178.0,0.2253
1179.0,0.3087
1180.0,0.278
1181.0,0.2867
1182.0,0.2015
1183.0,0.2817
1184.0,0.2653
1185.0,0.2571
1186.0,0.301
1187.0,0.2879
1188.0,0.2053
1189.0,0.2685
1190.0,0.2942
1191.0,0.2814
1192.0,0.2981
1193.0,0.2863
1194.0,0.2946
1195.0,0.2801
1196.0,0.2707
1197.0,0.294
1198.0,0.2701
1199.0,0.233
1200.0,0.2829
1201.0,0.2739
1202.0,0.2717
1203.0,0.2695
1204.0,0.2375
1205.0,0.277
1206.0,0.3042
1207.0,0.2713
1208.0,0.266
1209.0,0.2713
1210.0,0.2818
1211.0,0.2697
1212.0,0.2679
1213.0,0.2949
1214.0,0.2736
1215.0,0.2688
1216.0,0.2939
1217.0,0.2867
1218.0,0.2915
1219.0,0.2883
1220.0,0.2917
1221.0,0.2943
1222.0,0.287
1223.0,0.2846
1224.0,0.2834
1225.0,0.2924
1226.0,0.294
1227.0,0.2729
1228.0,0.2951
1229.0,0.294
1230.0,0.2893
1231.0,0.2964
1232.0,0.2947
1233.0,0.286
1234.0,0.2959
1235.0,0.2942
1236.0,0.2962
1237.0,0.2926
1238.0,0.2952
1239.0,0.2914
1240.0,0.2925
1241.0,0.2914
1242.0,0.2905
1243.0,0.2881
1244.0,0.2903
1245.0,0.2914
1246.0,0.2897
1247.0,0.2887
1248.0,0.2887
1249.0,0.2894
1250.0,0.2878
1251.0,0.2843
1252.0,0.2841
1253.0,0.2823
1254.0,0.2798
1255.0,0.2839
1256.0,0.2768
1257.0,0.2755
1258.0,0.2799
1259.0,0.2712
1260.0,0.2724
1261.0,0.2588
1262.0,0.252
1263.0,0.2525
1264.0,0.2352
1265.0,0.2508
1266.0,0.2426
1267.0,0.246
1268.0,0.2347
1269.0,0.1549
1270.0,0.2455
1271.0,0.2578
1272.0,0.2584
1273.0,0.2558
1274.0,0.2564
1275.0,0.2598
1276.0,0.262
1277.0,0.2633
1278.0,0.2677
1279.0,0.2653
1280.0,0.2619
1281.0,0.2496
1282.0,0.24
1283.0,0.2586
1284.0,0.2649
1285.0,0.2665
1286.0,0.2698
1287.0,0.2662
1288.0,0.266
1289.0,0.2586
1290.0,0.2636
1291.0,0.2671
1292.0,0.2529
1293.0,0.2624
1294.0,0.2606
1295.0,0.2599
1296.0,0.2494
1297.0,0.2369
1298.0,0.253
1299.0,0.2625
1300.0,0.2257
1301.0,0.2319
1302.0,0.2521
1303.0,0.2223
1304.0,0.1929
1305.0,0.2472
1306.0,0.2474
1307.0,0.1959
1308.0,0.2222
1309.0,0.2458
1310.0,0.1923
1311.0,0.2137
1312.0,0.2085
1313.0,0.205
1314.0,0.1846
1315.0,0.1829
1316.0,0.2109
1317.0,0.2001
1318.0,0.2162
1319.0,0.1728
1320.0,0.1666
1321.0,0.1927
1322.0,0.1952
1323.0,0.15
1324.0,0.1694
1325.0,0.2081
1326.0,0.1805
1327.0,0.1727
1328.0,0.1499
1329.0,0.1151
1330.0,0.1486
1331.0,0.09273
1332.0,0.09472
1333.0,0.1311
1334.0,0.1097
1335.0,0.1494
1336.0,0.1197
1337.0,0.1067
1338.0,0.1154
1339.0,0.1145
1340.0,0.1106
1341.0,0.1098
1342.0,0.1152
1343.0,0.08167
1344.0,0.04874
1345.0,0.06999
1346.0,0.03719
1347.0,0.03823
1348.0,0.002944
1349.0,0.01006
1350.0,0.01009
1351.0,0.002859
1352.0,0.000909
1353.0,5.592e-05
1354.0,0.0001713
1355.0,2.016e-06
1356.0,2.773e-05
1357.0,4.201e-05
1358.0,2.352e-06
1359.0,3.925e-07
1360.0,1.189e-06
1361.0,2.428e-09
1362.0,8.68e-12
1363.0,1.738e-06
1364.0,7.373e-07
1365.0,4.206e-12
1366.0,7.047e-06
1367.0,2.77e-06
1368.0,6.177e-14
1369.0,2.807e-07
1370.0,1.558e-07
1371.0,1.03e-08
1372.0,1.526e-06
1373.0,2.538e-05
1374.0,0.0001036
1375.0,0.0001884
1376.0,0.0001531
1377.0,7.232e-05
1378.0,0.0006644
1379.0,3.06e-05
1380.0,4.762e-05
1381.0,1.356e-06
1382.0,1.423e-06
1383.0,2.397e-08
1384.0,3.324e-07
1385.0,1.182e-06
1386.0,1.375e-06
1387.0,0.0001156
1388.0,2.325e-06
1389.0,0.0003412
1390.0,0.0002937
1391.0,0.0002021
1392.0,1.383e-05
1393.0,6.823e-05
1394.0,4.33e-05
1395.0,3.743e-07
1396.0,3.232e-09
1397.0,2.867e-05
1398.0,0.0007556
1399.0,0.0004787
1400.0,1.631e-09
1401.0,5.491e-09
1402.0,0.001123
1403.0,0.001456
1404.0,0.0004502
1405.0,2.018e-07
1406.0,0.001234
1407.0,0.0001058
1408.0,0.001001
1409.0,0.0003698
1410.0,0.0002799
1411.0,0.001273
1412.0,0.001642
1413.0,0.01478
1414.0,0.0002185
1415.0,0.0001099
1416.0,0.02266
1417.0,0.007377
1418.0,0.008458
1419.0,0.001338
1420.0,0.005196
1421.0,0.005637
1422.0,0.02944
1423.0,0.005842
1424.0,0.01083
1425.0,0.01612
1426.0,0.01782
1427.0,0.0317
1428.0,0.002802
1429.0,0.02418
1430.0,0.04004
1431.0,0.0437
1432.0,0.002219
1433.0,0.02819
1434.0,0.01453
1435.0,0.0152
1436.0,0.02828
1437.0,0.02167
1438.0,0.00944
1439.0,0.03801
1440.0,0.02851
1441.0,0.02222
1442.0,0.02456
1443.0,0.03011
1444.0,0.04137
1445.0,0.03296
1446.0,0.01501
1447.0,0.02361
1448.0,0.07587
1449.0,0.06642
1450.0,0.01748
1451.0,0.007155
