interpolation:linear
wavelength,value
280.0,7.658e-21
280.5,2.324e-19
281.0,1.214e-18
281.5,4.965e-19
282.0,1.461e-18
282.5,3.827e-18
283.0,1.228e-17
283.5,2.003e-17
284.0,3.169e-16
284.5,9.036e-16
285.0,1.812e-15
285.5,9.42e-15
286.0,3.826e-14
286.5,1.717e-13
287.0,4.892e-13
287.5,1.856e-12
288.0,4.855e-12
288.5,1.715e-11
289.0,5.125e-11
289.5,1.698e-10
290.0,5.015e-10
290.5,1.071e-09
291.0,2.412e-09
291.5,7.498e-09
292.0,1.825e-08
292.5,2.86e-08
293.0,7.085e-08
293.5,2.115e-07
294.0,3.85e-07
294.5,5.094e-07
295.0,1.005e-06
295.5,2.747e-06
296.0,5.463e-06
296.5,7.885e-06
297.0,1.096e-05
297.5,3.063e-05
298.0,5.005e-05
298.5,5.184e-05
299.0,0.0001177
299.5,0.0002058
300.0,0.0002337
300.5,0.0003503
301.0,0.0006735
301.5,0.001145
302.0,0.001019
302.5,0.001977
303.0,0.003517
303.5,0.004399
304.0,0.004111
304.5,0.006042
305.0,0.008959
305.5,0.01011
306.0,0.009736
306.5,0.01201
307.0,0.01744
307.5,0.0227
308.0,0.0239
308.5,0.02793
309.0,0.0273
309.5,0.03077
310.0,0.0307
310.5,0.04956
311.0,0.06184
311.5,0.05955
312.0,0.05878
312.5,0.0709
313.0,0.07655
313.5,0.07467
314.0,0.09236
314.5,0.08073
315.0,0.1058
315.5,0.08916
316.0,0.07695
316.5,0.1094
317.0,0.1358
317.5,0.1418
318.0,0.1098
318.5,0.1345
319.0,0.1585
319.5,0.1307
320.0,0.1582
320.5,0.1952
321.0,0.1716
321.5,0.1643
322.0,0.1776
322.5,0.1544
323.0,0.1524
323.5,0.1857
324.0,0.2164
324.5,0.2206
325.0,0.1915
325.5,0.2444
326.0,0.2983
326.5,0.2972
327.0,0.2968
327.5,0.2874
328.0,0.2576
328.5,0.2686
329.0,0.3195
329.5,0.3619
330.0,0.3657
330.5,0.2943
331.0,0.3004
331.5,0.3041
332.0,0.3268
332.5,0.3224
333.0,0.322
333.5,0.2927
334.0,0.3001
334.5,0.3446
335.0,0.323
335.5,0.3773
336.0,0.2611
336.5,0.3062
337.0,0.2517
337.5,0.3134
338.0,0.3048
338.5,0.3518
339.0,0.3482
339.5,0.335
340.0,0.3938
340.5,0.3549
341.0,0.3461
341.5,0.3178
342.0,0.3798
342.5,0.3553
343.0,0.3909
343.5,0.3681
344.0,0.2721
344.5,0.2749
345.0,0.3637
345.5,0.3714
346.0,0.3157
346.5,0.3575
347.0,0.3838
347.5,0.3104
348.0,0.3538
348.5,0.3537
349.0,0.3282
349.5,0.325
350.0,0.402
350.5,0.4241
351.0,0.3789
351.5,0.3683
352.0,0.3956
352.5,0.3088
353.0,0.3889
353.5,0.4159
354.0,0.4318
354.5,0.438
355.0,0.4366
355.5,0.3945
356.0,0.4128
356.5,0.3525
357.0,0.2913
357.5,0.3566
358.0,0.2827
358.5,0.2416
359.0,0.338
359.5,0.4308
360.0,0.4567
360.5,0.3651
361.0,0.3328
361.5,0.3833
362.0,0.3315
362.5,0.4589
363.0,0.4122
363.5,0.3798
364.0,0.4645
364.5,0.3971
365.0,0.4045
365.5,0.5078
366.0,0.5381
366.5,0.5057
367.0,0.4925
367.5,0.5112
368.0,0.4474
368.5,0.4515
369.0,0.4877
369.5,0.5199
370.0,0.5543
370.5,0.4303
371.0,0.4599
371.5,0.5754
372.0,0.382
372.5,0.4581
373.0,0.466
373.5,0.3033
374.0,0.4407
374.5,0.3651
375.0,0.3549
375.5,0.53
376.0,0.4394
376.5,0.4554
377.0,0.4822
377.5,0.5643
378.0,0.6118
378.5,0.5783
379.0,0.4773
379.5,0.436
380.0,0.4534
380.5,0.5493
381.0,0.5505
381.5,0.4365
382.0,0.3877
382.5,0.3306
383.0,0.3061
383.5,0.2949
384.0,0.3253
384.5,0.4786
385.0,0.4747
385.5,0.4422
386.0,0.3788
386.5,0.4976
387.0,0.4136
387.5,0.4646
388.0,0.429
388.5,0.4241
389.0,0.4579
389.5,0.5547
390.0,0.5568
390.5,0.5125
391.0,0.6033
391.5,0.6155
392.0,0.5185
392.5,0.4643
393.0,0.2584
393.5,0.1878
394.0,0.3823
394.5,0.4861
395.0,0.5933
395.5,0.6027
396.0,0.5226
396.5,0.3056
397.0,0.2294
397.5,0.4665
398.0,0.6534
398.5,0.6755
399.0,0.7315
399.5,0.7292
400.0,0.7573
401.0,0.7685
402.0,0.811
403.0,0.7706
404.0,0.7589
405.0,0.759
406.0,0.7468
407.0,0.7349
408.0,0.7638
409.0,0.8176
410.0,0.7146
411.0,0.7742
412.0,0.8317
413.0,0.8112
414.0,0.8213
415.0,0.8236
416.0,0.8382
417.0,0.8178
418.0,0.8028
419.0,0.8135
420.0,0.81
421.0,0.8475
422.0,0.8057
423.0,0.7872
424.0,0.8327
425.0,0.8313
426.0,0.8099
427.0,0.7948
428.0,0.7744
429.0,0.7336
430.0,0.6421
431.0,0.6365
432.0,0.8219
433.0,0.8265
434.0,0.7676
435.0,0.8017
436.0,0.9034
437.0,0.8914
438.0,0.8118
439.0,0.8397
440.0,0.8665
441.0,0.898
442.0,0.9632
443.0,0.9382
444.0,0.9586
445.0,0.938
446.0,0.8952
447.0,0.9679
448.0,0.983
449.0,0.987
450.0,1.015
451.0,1.052
452.0,1.014
453.0,0.9537
454.0,0.9957
455.0,1.002
456.0,1.026
457.0,1.043
458.0,1.007
459.0,1.002
460.0,1.005
461.0,1.028
462.0,1.036
463.0,1.029
464.0,1.012
465.0,0.9992
466.0,1.009
467.0,0.9905
468.0,1.002
469.0,1.007
470.0,0.9754
471.0,0.9741
472.0,1.026
473.0,1.013
474.0,1.015
475.0,1.023
476.0,0.9929
477.0,0.9957
478.0,1.023
479.0,1.017
480.0,1.019
481.0,1.038
482.0,1.043
483.0,1.031
484.0,1.01
485.0,0.9619
486.0,0.8409
487.0,0.8813
488.0,0.9668
489.0,0.9699
490.0,1.02
491.0,1.003
492.0,0.947
493.0,0.978
494.0,0.9878
495.0,0.9962
496.0,1.002
497.0,1.018
498.0,0.9703
499.0,0.9827
500.0,0.9542
501.0,0.9367
502.0,0.9236
503.0,0.9613
504.0,0.937
505.0,0.9704
506.0,1.002
507.0,0.9533
508.0,0.9235
509.0,0.9494
510.0,0.9443
511.0,0.9696
512.0,0.9801
513.0,0.9277
514.0,0.9213
515.0,0.9121
516.0,0.9099
517.0,0.8085
518.0,0.85
519.0,0.8916
520.0,0.924
521.0,0.9328
522.0,0.9336
523.0,0.9168
524.0,0.9497
525.0,0.9609
526.0,0.9179
527.0,0.865
528.0,0.9149
529.0,0.9644
530.0,0.9505
531.0,0.9647
532.0,0.9315
533.0,0.9042
534.0,0.931
535.0,0.9512
536.0,0.96
537.0,0.9221
538.0,0.9384
539.0,0.9305
540.0,0.8921
541.0,0.8981
542.0,0.9262
543.0,0.9164
544.0,0.9324
545.0,0.9295
546.0,0.9336
547.0,0.9332
548.0,0.922
549.0,0.9248
550.0,0.9358
551.0,0.9244
552.0,0.9308
553.0,0.9142
554.0,0.9361
555.0,0.9379
556.0,0.9258
557.0,0.897
558.0,0.8903
559.0,0.8737
560.0,0.8846
561.0,0.8961
562.0,0.8896
563.0,0.9139
564.0,0.889
565.0,0.8814
566.0,0.8685
567.0,0.8849
568.0,0.8771
569.0,0.8564
570.0,0.8561
571.0,0.8509
572.0,0.8714
573.0,0.8808
574.0,0.878
575.0,0.8616
576.0,0.8537
577.0,0.863
578.0,0.85
579.0,0.8534
580.0,0.8695
581.0,0.874
582.0,0.8905
583.0,0.8926
584.0,0.9003
585.0,0.8783
586.0,0.8603
587.0,0.8791
588.0,0.8579
589.0,0.7603
590.0,0.7951
591.0,0.8412
592.0,0.8307
593.0,0.8428
594.0,0.837
595.0,0.8165
596.0,0.8485
597.0,0.8393
598.0,0.8371
599.0,0.8378
600.0,0.839
601.0,0.8321
602.0,0.8265
603.0,0.8401
604.0,0.854
605.0,0.8496
606.0,0.8461
607.0,0.8545
608.0,0.845
609.0,0.8465
610.0,0.8404
611.0,0.8448
612.0,0.8423
613.0,0.8317
614.0,0.8203
615.0,0.8382
616.0,0.8105
617.0,0.8089
618.0,0.84
619.0,0.8315
620.0,0.8368
621.0,0.8376
622.0,0.8278
623.0,0.8152
624.0,0.8012
625.0,0.7994
626.0,0.8113
627.0,0.8204
628.0,0.7665
629.0,0.8011
630.0,0.7826
631.0,0.8002
632.0,0.7906
633.0,0.8146
634.0,0.8066
635.0,0.8192
636.0,0.8083
637.0,0.8215
638.0,0.8294
639.0,0.8201
640.0,0.8121
641.0,0.8116
642.0,0.8079
643.0,0.8188
644.0,0.8161
645.0,0.8174
646.0,0.7984
647.0,0.789
648.0,0.7897
649.0,0.7745
650.0,0.7781
651.0,0.8118
652.0,0.7781
653.0,0.801
654.0,0.7921
655.0,0.7627
656.0,0.6759
657.0,0.6941
658.0,0.7778
659.0,0.7834
660.0,0.7866
661.0,0.7922
662.0,0.7938
663.0,0.7781
664.0,0.7873
665.0,0.7879
666.0,0.7885
667.0,0.7877
668.0,0.7881
669.0,0.8003
670.0,0.7968
671.0,0.7966
672.0,0.7898
673.0,0.8017
674.0,0.7987
675.0,0.7914
676.0,0.7968
677.0,0.7889
678.0,0.7912
679.0,0.7784
680.0,0.7846
681.0,0.7794
682.0,0.7784
683.0,0.7769
684.0,0.7731
685.0,0.7797
686.0,0.775
687.0,0.5158
688.0,0.604
689.0,0.6061
690.0,0.6355
691.0,0.6687
692.0,0.6928
693.0,0.6872
694.0,0.6815
695.0,0.7095
696.0,0.7105
697.0,0.7538
698.0,0.7421
699.0,0.7245
700.0,0.7157
701.0,0.7085
702.0,0.7133
703.0,0.7147
704.0,0.7375
705.0,0.7386
706.0,0.7379
707.0,0.7384
708.0,0.74
709.0,0.741
710.0,0.741
711.0,0.74
712.0,0.7378
713.0,0.7304
714.0,0.7331
715.0,0.71
716.0,0.7104
717.0,0.6166
718.0,0.5664
719.0,0.5189
720.0,0.5436
721.0,0.5998
722.0,0.6859
723.0,0.6387
724.0,0.5756
725.0,0.5664
726.0,0.5929
727.0,0.6013
728.0,0.565
729.0,0.586
730.0,0.6201
731.0,0.5933
732.0,0.6345
733.0,0.6715
734.0,0.6874
735.0,0.6732
736.0,0.6723
737.0,0.675
738.0,0.6853
739.0,0.6718
740.0,0.6893
741.0,0.6824
742.0,0.683
743.0,0.7004
744.0,0.6984
745.0,0.6985
746.0,0.7017
747.0,0.7033
748.0,0.7018
749.0,0.6938
750.0,0.6934
751.0,0.6863
752.0,0.6893
753.0,0.6928
754.0,0.6943
755.0,0.6904
756.0,0.6901
757.0,0.6911
758.0,0.6825
759.0,0.6687
760.0,0.1113
761.0,0.05832
762.0,0.3419
763.0,0.1704
764.0,0.2566
765.0,0.342
766.0,0.4201
767.0,0.5304
768.0,0.6124
769.0,0.6253
770.0,0.6467
771.0,0.6519
772.0,0.6533
773.0,0.6579
774.0,0.6547
775.0,0.6497
776.0,0.6576
777.0,0.6489
778.0,0.645
779.0,0.6456
780.0,0.6419
781.0,0.6426
782.0,0.6466
783.0,0.6354
784.0,0.6384
785.0,0.6337
786.0,0.6407
787.0,0.6295
788.0,0.6216
789.0,0.6214
790.0,0.6049
791.0,0.6101
792.0,0.6056
793.0,0.5958
794.0,0.606
795.0,0.6162
796.0,0.5973
797.0,0.598
798.0,0.6155
799.0,0.6116
800.0,0.6009
801.0,0.5991
802.0,0.5973
803.0,0.5928
804.0,0.5936
805.0,0.5917
806.0,0.6084
807.0,0.601
808.0,0.6016
809.0,0.5903
810.0,0.5854
811.0,0.5862
812.0,0.5694
813.0,0.5575
814.0,0.4904
815.0,0.4874
816.0,0.4537
817.0,0.462
818.0,0.4447
819.0,0.4972
820.0,0.4682
821.0,0.5474
822.0,0.5317
823.0,0.3614
824.0,0.5162
825.0,0.5379
826.0,0.5175
827.0,0.5461
828.0,0.4628
829.0,0.5143
830.0,0.5076
831.0,0.5093
832.0,0.4937
833.0,0.5254
834.0,0.5067
835.0,0.5568
836.0,0.5328
837.0,0.5584
838.0,0.5409
839.0,0.55
840.0,0.562
841.0,0.554
842.0,0.5553
843.0,0.5551
844.0,0.5473
845.0,0.5658
846.0,0.5634
847.0,0.5529
848.0,0.5494
849.0,0.5338
850.0,0.5114
851.0,0.5414
852.0,0.5377
853.0,0.5176
854.0,0.4468
855.0,0.491
856.0,0.5365
857.0,0.5485
858.0,0.5445
859.0,0.545
860.0,0.546
861.0,0.543
862.0,0.5515
863.0,0.5645
864.0,0.5363
865.0,0.5316
866.0,0.478
867.0,0.4989
868.0,0.5429
869.0,0.5316
870.0,0.5468
871.0,0.5393
872.0,0.5374
873.0,0.5363
874.0,0.5299
875.0,0.5192
876.0,0.5246
877.0,0.5299
878.0,0.5356
879.0,0.5274
880.0,0.5161
881.0,0.5083
882.0,0.5193
883.0,0.521
884.0,0.5186
885.0,0.5225
886.0,0.4978
887.0,0.5032
888.0,0.5106
889.0,0.5165
890.0,0.512
891.0,0.5112
892.0,0.4963
893.0,0.4805
894.0,0.4631
895.0,0.437
896.0,0.4114
897.0,0.3526
898.0,0.3853
899.0,0.2921
900.0,0.395
901.0,0.3062
902.0,0.3606
903.0,0.3637
904.0,0.4596
905.0,0.4436
906.0,0.4149
907.0,0.3359
908.0,0.3427
909.0,0.3718
910.0,0.3277
911.0,0.35
912.0,0.3661
913.0,0.3326
914.0,0.3299
915.0,0.3577
916.0,0.3025
917.0,0.3851
918.0,0.3101
919.0,0.3924
920.0,0.3971
921.0,0.4131
922.0,0.3684
923.0,0.3991
924.0,0.3775
925.0,0.3693
926.0,0.3733
927.0,0.4187
928.0,0.3046
929.0,0.2773
930.0,0.2166
931.0,0.2055
932.0,0.1466
933.0,0.1184
934.0,0.06335
935.0,0.1218
936.0,0.07503
937.0,0.07593
938.0,0.09378
939.0,0.199
940.0,0.2404
941.0,0.1801
942.0,0.2094
943.0,0.1366
944.0,0.1449
945.0,0.186
946.0,0.09312
947.0,0.1864
948.0,0.1367
949.0,0.251
950.0,0.0674
951.0,0.2475
952.0,0.1309
953.0,0.1704
954.0,0.2105
955.0,0.1725
956.0,0.1684
957.0,0.1309
958.0,0.2407
959.0,0.1895
960.0,0.2125
961.0,0.2398
962.0,0.2267
963.0,0.2626
964.0,0.2401
965.0,0.2617
966.0,0.2614
967.0,0.2602
968.0,0.3531
969.0,0.3684
970.0,0.3378
971.0,0.3885
972.0,0.3713
973.0,0.3214
974.0,0.3048
975.0,0.3171
976.0,0.3001
977.0,0.3435
978.0,0.3255
979.0,0.3415
980.0,0.3207
981.0,0.3863
982.0,0.3687
983.0,0.3536
984.0,0.3988
985.0,0.3673
986.0,0.4063
987.0,0.3978
988.0,0.3971
989.0,0.4054
990.0,0.3947
991.0,0.4065
992.0,0.4089
993.0,0.3993
994.0,0.4089
995.0,0.4084
996.0,0.4065
997.0,0.4072
998.0,0.4052
999.0,0.4038
1000.0,0.4008
1001.0,0.406
1002.0,0.3942
1003.0,0.3987
1004.0,0.3888
1005.0,0.3748
1006.0,0.3893
1007.0,0.3976
1008.0,0.3954
1009.0,0.3932
1010.0,0.3914
1011.0,0.3956
1012.0,0.3921
1013.0,0.3947
1014.0,0.3919
1015.0,0.3893
1016.0,0.3876
1017.0,0.3885
1018.0,0.3871
1019.0,0.3787
1020.0,0.3851
1021.0,0.3846
1022.0,0.3815
1023.0,0.3855
1024.0,0.3803
1025.0,0.3853
1026.0,0.3836
1027.0,0.3828
1028.0,0.3819
1029.0,0.3774
1030.0,0.3801
1031.0,0.3785
1032.0,0.3775
1033.0,0.3718
1034.0,0.3718
1035.0,0.3729
1036.0,0.3749
1037.0,0.3688
1038.0,0.3704
1039.0,0.3702
1040.0,0.3687
1041.0,0.3701
1042.0,0.3675
1043.0,0.3664
1044.0,0.3676
1045.0,0.3626
1046.0,0.3586
1047.0,0.3618
1048.0,0.3638
1049.0,0.3625
1050.0,0.3608
1051.0,0.3602
1052.0,0.3588
1053.0,0.3559
1054.0,0.3566
1055.0,0.3568
1056.0,0.3555
1057.0,0.3544
1058.0,0.3456
1059.0,0.346
1060.0,0.3454
1061.0,0.345
1062.0,0.3468
1063.0,0.3433
1064.0,0.3474
1065.0,0.3448
1066.0,0.3381
1067.0,0.3424
1068.0,0.3349
1069.0,0.3246
1070.0,0.3355
1071.0,0.3409
1072.0,0.3369
1073.0,0.332
1074.0,0.3408
1075.0,0.3232
1076.0,0.3405
1077.0,0.3341
1078.0,0.3276
1079.0,0.3352
1080.0,0.329
1081.0,0.3181
1082.0,0.3237
1083.0,0.3249
1084.0,0.3172
1085.0,0.3298
1086.0,0.3001
1087.0,0.3103
1088.0,0.3244
1089.0,0.3139
1090.0,0.3067
1091.0,0.3232
1092.0,0.3225
1093.0,0.2719
1094.0,0.2949
1095.0,0.2834
1096.0,0.2709
1097.0,0.315
1098.0,0.2665
1099.0,0.2783
1100.0,0.258
1101.0,0.2614
1102.0,0.2493
1103.0,0.2465
1104.0,0.2469
1105.0,0.2717
1106.0,0.2052
1107.0,0.2576
1108.0,0.2167
1109.0,0.2175
1110.0,0.2551
1111.0,0.1709
1112.0,0.2159
1113.0,0.1352
1114.0,0.1514
1115.0,0.1254
1116.0,0.09875
1117.0,0.03482
1118.0,0.1079
1119.0,0.05234
1120.0,0.0658
1121.0,0.08807
1122.0,0.03602
1123.0,0.05951
1124.0,0.05022
1125.0,0.06581
1126.0,0.02187
1127.0,0.07433
1128.0,0.04333
1129.0,0.04614
1130.0,0.02993
1131.0,0.1437
1132.0,0.1122
1133.0,0.06963
1134.0,0.01695
1135.0,0.006402
1136.0,0.05755
1137.0,0.1407
1138.0,0.09881
1139.0,0.1503
1140.0,0.1245
1141.0,0.09393
1142.0,0.1086
1143.0,0.1555
1144.0,0.0529
1145.0,0.06719
1146.0,0.07244
1147.0,0.0244
1148.0,0.1345
1149.0,0.1065
1150.0,0.05705
1151.0,0.09803
1152.0,0.1217
1153.0,0.1194
1154.0,0.06497
1155.0,0.1567
1156.0,0.1406
1157.0,0.1586
1158.0,0.1569
1159.0,0.1699
1160.0,0.1445
1161.0,0.1794
1162.0,0.1802
1163.0,0.2455
1164.0,0.2098
1165.0,0.1972
1166.0,0.1964
1167.0,0.2143
1168.0,0.2165
1169.0,0.2219
1170.0,0.2417
1171.0,0.2356
1172.0,0.2402
1173.0,0.2412
1174.0,0.171
1175.0,0.2358
1176.0,0.2598
1177.0,0.249
1178.0,0.1862
1179.0,0.262
1180.0,0.2332
1181.0,0.2407
1182.0,0.1652
1183.0,0.2371
1184.0,0.2219
1185.0,0.2139
1186.0,0.2544
1187.0,0.2421
1188.0,0.1679
1189.0,0.2255
1190.0,0.2487
1191.0,0.2357
1192.0,0.2522
1193.0,0.2415
1194.0,0.249
1195.0,0.2353
1196.0,0.2264
1197.0,0.2493
1198.0,0.2279
1199.0,0.1933
1200.0,0.2385
1201.0,0.2298
1202.0,0.2286
1203.0,0.2266
1204.0,0.1979
1205.0,0.2341
1206.0,0.2588
1207.0,0.228
1208.0,0.2245
1209.0,0.2292
1210.0,0.2389
1211.0,0.2273
1212.0,0.2243
1213.0,0.2502
1214.0,0.2298
1215.0,0.2254
1216.0,0.2494
1217.0,0.2428
1218.0,0.2474
1219.0,0.2443
1220.0,0.2477
1221.0,0.2502
1222.0,0.2436
1223.0,0.2413
1224.0,0.2398
1225.0,0.2486
1226.0,0.2503
1227.0,0.2307
1228.0,0.2516
1229.0,0.2503
1230.0,0.246
1231.0,0.2531
1232.0,0.2516
1233.0,0.2428
1234.0,0.2529
1235.0,0.2513
1236.0,0.2532
1237.0,0.2496
1238.0,0.2523
1239.0,0.2491
1240.0,0.25
1241.0,0.2488
1242.0,0.2483
1243.0,0.2463
1244.0,0.248
1245.0,0.2491
1246.0,0.2476
1247.0,0.2467
1248.0,0.2465
1249.0,0.2473
1250.0,0.2458
1251.0,0.2426
1252.0,0.2426
1253.0,0.2406
1254.0,0.2382
1255.0,0.2424
1256.0,0.2355
1257.0,0.2342
1258.0,0.2386
1259.0,0.2298
1260.0,0.231
1261.0,0.2179
1262.0,0.2112
1263.0,0.2116
1264.0,0.1951
1265.0,0.2103
1266.0,0.2022
1267.0,0.2058
1268.0,0.195
1269.0,0.1198
1270.0,0.2051
1271.0,0.2172
1272.0,0.2179
1273.0,0.2156
1274.0,0.2163
1275.0,0.2195
1276.0,0.2216
1277.0,0.2232
1278.0,0.2275
1279.0,0.2255
1280.0,0.2226
1281.0,0.2125
1282.0,0.2048
1283.0,0.2205
1284.0,0.2258
1285.0,0.2273
1286.0,0.2304
1287.0,0.2268
1288.0,0.2267
1289.0,0.2194
1290.0,0.2247
1291.0,0.2279
1292.0,0.2139
1293.0,0.2234
1294.0,0.2218
1295.0,0.2207
1296.0,0.2106
1297.0,0.199
1298.0,0.2145
1299.0,0.2237
1300.0,0.1889
1301.0,0.1948
1302.0,0.2138
1303.0,0.1865
1304.0,0.1586
1305.0,0.2094
1306.0,0.2094
1307.0,0.1622
1308.0,0.1869
1309.0,0.2077
1310.0,0.1591
1311.0,0.1791
1312.0,0.1741
1313.0,0.1707
1314.0,0.1526
1315.0,0.1505
1316.0,0.1761
1317.0,0.1668
1318.0,0.1815
1319.0,0.1412
1320.0,0.137
1321.0,0.1598
1322.0,0.1612
1323.0,0.1207
1324.0,0.1385
1325.0,0.1736
1326.0,0.1486
1327.0,0.1416
1328.0,0.1219
1329.0,0.09096
1330.0,0.1187
1331.0,0.07088
1332.0,0.07346
1333.0,0.1024
1334.0,0.08716
1335.0,0.1203
1336.0,0.09469
1337.0,0.0835
1338.0,0.09037
1339.0,0.09008
1340.0,0.08784
1341.0,0.08525
1342.0,0.08959
1343.0,0.05958
1344.0,0.03575
1345.0,0.05161
1346.0,0.02493
1347.0,0.02522
1348.0,0.001541
1349.0,0.005633
1350.0,0.005924
1351.0,0.001364
1352.0,0.0003477
1353.0,1.673e-05
1354.0,5.999e-05
1355.0,4.277e-07
1356.0,8.141e-06
1357.0,1.242e-05
1358.0,5.092e-07
1359.0,5.853e-08
1360.0,2.255e-07
1361.0,2.073e-10
1362.0,5.232e-13
1363.0,2.968e-07
1364.0,1.224e-07
1365.0,1.651e-13
1366.0,1.33e-06
1367.0,5.546e-07
1368.0,1.038e-15
1369.0,4.557e-08
1370.0,2.163e-08
1371.0,1.172e-09
1372.0,3.054e-07
1373.0,6.576e-06
1374.0,3.194e-05
1375.0,5.794e-05
1376.0,5.412e-05
1377.0,2.456e-05
1378.0,0.0002452
1379.0,1.031e-05
1380.0,1.446e-05
1381.0,3.682e-07
1382.0,2.724e-07
1383.0,3.946e-09
1384.0,5.074e-08
1385.0,2.696e-07
1386.0,2.363e-07
1387.0,3.228e-05
1388.0,6.374e-07
1389.0,0.0001151
1390.0,9.897e-05
1391.0,6.544e-05
1392.0,4.196e-06
1393.0,2.282e-05
1394.0,1.098e-05
1395.0,7.687e-08
1396.0,3.07e-10
1397.0,8.933e-06
1398.0,0.0002742
1399.0,0.0001742
1400.0,1.259e-10
1401.0,5.631e-10
1402.0,0.0005172
1403.0,0.0006422
1404.0,0.0001946
1405.0,3.619e-08
1406.0,0.0004961
1407.0,4.453e-05
1408.0,0.0004074
1409.0,0.0001316
1410.0,0.0001081
1411.0,0.0005662
1412.0,0.0007786
1413.0,0.008521
1414.0,8.577e-05
1415.0,4.042e-05
1416.0,0.01462
1417.0,0.004202
1418.0,0.004744
1419.0,0.0007268
1420.0,0.002895
1421.0,0.003137
1422.0,0.01914
1423.0,0.00365
1424.0,0.006906
1425.0,0.01005
1426.0,0.01169
1427.0,0.02213
1428.0,0.001439
1429.0,0.01623
1430.0,0.02849
1431.0,0.03152
1432.0,0.001128
1433.0,0.01974
1434.0,0.009892
1435.0,0.009376
1436.0,0.01889
1437.0,0.01449
1438.0,0.005899
1439.0,0.02604
1440.0,0.0195
