interpolation:linear
wavelength,value
280.0,4.4130000000000005e-20
280.5,1.242e-18
281.0,6.326e-18
281.5,4.518e-19
282.0,1.969e-18
282.5,5.576e-18
283.0,1.859e-17
283.5,3.067e-17
284.0,4.836e-16
284.5,1.364e-15
285.0,2.575e-15
285.5,1.578e-14
286.0,6.726e-14
286.5,3.247e-13
287.0,9.655e-13
287.5,3.83e-12
288.0,1.127e-11
288.5,4.472e-11
289.0,1.503e-10
289.5,5.654e-10
290.0,1.853e-09
290.5,4.319e-09
291.0,1.079e-08
291.5,3.716e-08
292.0,1.009e-07
292.5,1.59e-07
293.0,3.952e-07
293.5,1.181e-06
294.0,2.159e-06
294.5,2.825e-06
295.0,5.527e-06
295.5,1.341e-05
296.0,2.553e-05
296.5,3.523e-05
297.0,4.712e-05
297.5,0.000124
298.0,0.0001922
298.5,0.0001908
299.0,0.0004152
299.5,0.000672
300.0,0.0007292
300.5,0.001041
301.0,0.001838
301.5,0.002866
302.0,0.002426
302.5,0.00458
303.0,0.007866
303.5,0.009622
304.0,0.008858
304.5,0.01253
305.0,0.01764
305.5,0.01929
306.0,0.01834
306.5,0.02217
307.0,0.03083
307.5,0.03855
308.0,0.04032
308.5,0.04622
309.0,0.04457
309.5,0.04893
310.0,0.04821
310.5,0.07732
311.0,0.09549
311.5,0.09153
312.0,0.08834
312.5,0.105
313.0,0.1125
313.5,0.1105
314.0,0.1342
314.5,0.1146
315.0,0.1496
315.5,0.1274
316.0,0.1079
316.5,0.1509
317.0,0.1874
317.5,0.1964
318.0,0.1505
318.5,0.1804
319.0,0.2104
319.5,0.1764
320.0,0.214
320.5,0.2584
321.0,0.2229
321.5,0.213
322.0,0.2349
322.5,0.2039
323.0,0.1986
323.5,0.2389
324.0,0.2778
324.5,0.2846
325.0,0.2488
325.5,0.3142
326.0,0.382
326.5,0.3779
327.0,0.3782
327.5,0.3674
328.0,0.3323
328.5,0.3426
329.0,0.4039
329.5,0.4563
330.0,0.4619
330.5,0.3741
331.0,0.3826
331.5,0.3854
332.0,0.4111
332.5,0.4042
333.0,0.4044
333.5,0.3694
334.0,0.379
334.5,0.4326
335.0,0.404
335.5,0.4718
336.0,0.3264
336.5,0.3833
337.0,0.3159
337.5,0.3935
338.0,0.3808
338.5,0.4394
339.0,0.4347
339.5,0.4182
340.0,0.4915
340.5,0.4426
341.0,0.4318
341.5,0.3963
342.0,0.4735
342.5,0.4429
343.0,0.4871
343.5,0.4588
344.0,0.3389
344.5,0.3424
345.0,0.4529
345.5,0.4622
346.0,0.3927
346.5,0.4446
347.0,0.4774
347.5,0.386
348.0,0.4398
348.5,0.4396
349.0,0.4077
349.5,0.4036
350.0,0.4991
350.5,0.5265
351.0,0.4703
351.5,0.4572
352.0,0.4909
352.5,0.383
353.0,0.4823
353.5,0.5157
354.0,0.5353
354.5,0.5428
355.0,0.541
355.5,0.4887
356.0,0.5112
356.5,0.4365
357.0,0.3607
357.5,0.4416
358.0,0.3499
358.5,0.299
359.0,0.4182
359.5,0.5331
360.0,0.565
360.5,0.4516
361.0,0.4116
361.5,0.4738
362.0,0.4097
362.5,0.5669
363.0,0.5091
363.5,0.4689
364.0,0.5733
364.5,0.4901
365.0,0.4991
365.5,0.6264
366.0,0.6636
366.5,0.6234
367.0,0.6071
367.5,0.63
368.0,0.5513
368.5,0.5563
369.0,0.6007
369.5,0.6402
370.0,0.6825
370.5,0.5297
371.0,0.5659
371.5,0.708
372.0,0.4699
372.5,0.5634
373.0,0.5731
373.5,0.3729
374.0,0.5418
374.5,0.4487
375.0,0.4361
375.5,0.6512
376.0,0.5398
376.5,0.5594
377.0,0.5922
377.5,0.6929
378.0,0.7511
378.5,0.7099
379.0,0.5859
379.5,0.5352
380.0,0.5565
380.5,0.674
381.0,0.6754
381.5,0.5353
382.0,0.4754
382.5,0.4052
383.0,0.3751
383.5,0.3613
384.0,0.3985
384.5,0.5862
385.0,0.5813
385.5,0.5413
386.0,0.4636
386.5,0.609
387.0,0.5061
387.5,0.5684
388.0,0.5248
388.5,0.5188
389.0,0.56
389.5,0.6782
390.0,0.6807
390.5,0.6264
391.0,0.7373
391.5,0.7521
392.0,0.6335
392.5,0.5671
393.0,0.3155
393.5,0.2294
394.0,0.4667
394.5,0.5934
395.0,0.7241
395.5,0.7356
396.0,0.6377
396.5,0.3728
397.0,0.2798
397.5,0.569
398.0,0.7968
398.5,0.8236
399.0,0.8917
399.5,0.8888
400.0,0.923
401.0,0.9379
402.0,0.9893
403.0,0.9397
404.0,0.9252
405.0,0.9251
406.0,0.9099
407.0,0.8952
408.0,0.9302
409.0,0.9955
410.0,0.8698
411.0,0.942
412.0,1.012
413.0,0.9866
414.0,0.9985
415.0,1.001
416.0,1.018
417.0,0.9933
418.0,0.9749
419.0,0.9876
420.0,0.9833
421.0,1.029
422.0,0.9776
423.0,0.9548
424.0,1.01
425.0,1.008
426.0,0.9816
427.0,0.9632
428.0,0.9382
429.0,0.8885
430.0,0.7774
431.0,0.7707
432.0,0.9948
433.0,1.0
434.0,0.9288
435.0,0.97
436.0,1.093
437.0,1.078
438.0,0.9812
439.0,1.015
440.0,1.047
441.0,1.085
442.0,1.164
443.0,1.134
444.0,1.158
445.0,1.133
446.0,1.081
447.0,1.168
448.0,1.187
449.0,1.191
450.0,1.224
451.0,1.269
452.0,1.223
453.0,1.15
454.0,1.2
455.0,1.207
456.0,1.236
457.0,1.257
458.0,1.214
459.0,1.208
460.0,1.211
461.0,1.239
462.0,1.248
463.0,1.239
464.0,1.218
465.0,1.203
466.0,1.214
467.0,1.192
468.0,1.206
469.0,1.212
470.0,1.174
471.0,1.172
472.0,1.235
473.0,1.219
474.0,1.221
475.0,1.232
476.0,1.196
477.0,1.199
478.0,1.232
479.0,1.225
480.0,1.227
481.0,1.249
482.0,1.255
483.0,1.239
484.0,1.214
485.0,1.156
486.0,1.01
487.0,1.059
488.0,1.161
489.0,1.165
490.0,1.226
491.0,1.204
492.0,1.137
493.0,1.174
494.0,1.186
495.0,1.196
496.0,1.203
497.0,1.222
498.0,1.165
499.0,1.18
500.0,1.146
501.0,1.125
502.0,1.11
503.0,1.156
504.0,1.128
505.0,1.167
506.0,1.205
507.0,1.146
508.0,1.11
509.0,1.141
510.0,1.134
511.0,1.164
512.0,1.177
513.0,1.114
514.0,1.106
515.0,1.095
516.0,1.092
517.0,0.9704
518.0,1.02
519.0,1.07
520.0,1.109
521.0,1.12
522.0,1.121
523.0,1.101
524.0,1.141
525.0,1.154
526.0,1.103
527.0,1.04
528.0,1.1
529.0,1.16
530.0,1.143
531.0,1.16
532.0,1.12
533.0,1.088
534.0,1.12
535.0,1.144
536.0,1.154
537.0,1.108
538.0,1.128
539.0,1.118
540.0,1.072
541.0,1.08
542.0,1.114
543.0,1.102
544.0,1.121
545.0,1.118
546.0,1.123
547.0,1.122
548.0,1.109
549.0,1.112
550.0,1.125
551.0,1.111
552.0,1.119
553.0,1.099
554.0,1.125
555.0,1.128
556.0,1.113
557.0,1.079
558.0,1.071
559.0,1.051
560.0,1.065
561.0,1.079
562.0,1.071
563.0,1.101
564.0,1.071
565.0,1.062
566.0,1.047
567.0,1.067
568.0,1.058
569.0,1.035
570.0,1.034
571.0,1.028
572.0,1.054
573.0,1.065
574.0,1.062
575.0,1.042
576.0,1.033
577.0,1.044
578.0,1.028
579.0,1.031
580.0,1.049
581.0,1.054
582.0,1.073
583.0,1.075
584.0,1.084
585.0,1.057
586.0,1.035
587.0,1.059
588.0,1.035
589.0,0.9214
590.0,0.9632
591.0,1.017
592.0,1.005
593.0,1.018
594.0,1.012
595.0,0.9885
596.0,1.024
597.0,1.014
598.0,1.01
599.0,1.011
600.0,1.011
601.0,1.002
602.0,0.9953
603.0,1.011
604.0,1.028
605.0,1.022
606.0,1.018
607.0,1.028
608.0,1.016
609.0,1.017
610.0,1.01
611.0,1.015
612.0,1.012
613.0,0.9987
614.0,0.9848
615.0,1.006
616.0,0.9726
617.0,0.9704
618.0,1.008
619.0,0.9973
620.0,1.004
621.0,1.005
622.0,0.9934
623.0,0.9786
624.0,0.9615
625.0,0.9593
626.0,0.9736
627.0,0.9852
628.0,0.9293
629.0,0.9651
630.0,0.9432
631.0,0.9614
632.0,0.9493
633.0,0.9769
634.0,0.9664
635.0,0.9809
636.0,0.9674
637.0,0.9828
638.0,0.9916
639.0,0.9801
640.0,0.9702
641.0,0.9693
642.0,0.9645
643.0,0.9774
644.0,0.9739
645.0,0.9757
646.0,0.954
647.0,0.9452
648.0,0.9463
649.0,0.9282
650.0,0.9295
651.0,0.9691
652.0,0.9323
653.0,0.9562
654.0,0.9452
655.0,0.9118
656.0,0.8068
657.0,0.8284
658.0,0.9274
659.0,0.9336
660.0,0.9373
661.0,0.9438
662.0,0.9463
663.0,0.9274
664.0,0.9375
665.0,0.9375
666.0,0.938
667.0,0.9367
668.0,0.9368
669.0,0.9511
670.0,0.9468
671.0,0.9464
672.0,0.9382
673.0,0.9522
674.0,0.9485
675.0,0.9398
676.0,0.9461
677.0,0.9366
678.0,0.9391
679.0,0.9238
680.0,0.9312
681.0,0.925
682.0,0.9238
683.0,0.922
684.0,0.9174
685.0,0.9251
686.0,0.9198
687.0,0.6507
688.0,0.7433
689.0,0.7453
690.0,0.7753
691.0,0.8088
692.0,0.8326
693.0,0.8264
694.0,0.8195
695.0,0.8486
696.0,0.8498
697.0,0.8957
698.0,0.8819
699.0,0.8648
700.0,0.8544
701.0,0.847
702.0,0.8514
703.0,0.8529
704.0,0.8778
705.0,0.8791
706.0,0.8774
707.0,0.8777
708.0,0.8797
709.0,0.8795
710.0,0.8802
711.0,0.8785
712.0,0.8752
713.0,0.867
714.0,0.8701
715.0,0.8442
716.0,0.845
717.0,0.7476
718.0,0.6891
719.0,0.6328
720.0,0.664
721.0,0.7238
722.0,0.8182
723.0,0.7669
724.0,0.6968
725.0,0.6877
726.0,0.7188
727.0,0.7256
728.0,0.6866
729.0,0.707
730.0,0.748
731.0,0.7173
732.0,0.7617
733.0,0.801
734.0,0.8186
735.0,0.8024
736.0,0.8013
737.0,0.8046
738.0,0.8135
739.0,0.7975
740.0,0.8172
741.0,0.8084
742.0,0.8086
743.0,0.829
744.0,0.8262
745.0,0.826
746.0,0.8298
747.0,0.8316
748.0,0.8298
749.0,0.8203
750.0,0.8198
751.0,0.8115
752.0,0.8149
753.0,0.819
754.0,0.8208
755.0,0.8162
756.0,0.8158
757.0,0.817
758.0,0.8069
759.0,0.7926
760.0,0.1718
761.0,0.09896
762.0,0.4459
763.0,0.2469
764.0,0.3497
765.0,0.4461
766.0,0.5284
767.0,0.6479
768.0,0.7328
769.0,0.7449
770.0,0.7665
771.0,0.7711
772.0,0.7722
773.0,0.7775
774.0,0.7736
775.0,0.7676
776.0,0.7769
777.0,0.7667
778.0,0.762
779.0,0.7627
780.0,0.7584
781.0,0.7591
782.0,0.7638
783.0,0.7505
784.0,0.754
785.0,0.7486
786.0,0.757
787.0,0.7453
788.0,0.7367
789.0,0.7366
790.0,0.7193
791.0,0.7233
792.0,0.7177
793.0,0.7064
794.0,0.7161
795.0,0.7288
796.0,0.7095
797.0,0.7105
798.0,0.7282
799.0,0.7242
800.0,0.7124
801.0,0.7108
802.0,0.7087
803.0,0.7037
804.0,0.7043
805.0,0.7012
806.0,0.7195
807.0,0.7111
808.0,0.7116
809.0,0.6993
810.0,0.6944
811.0,0.6968
812.0,0.679
813.0,0.6662
814.0,0.5932
815.0,0.5893
816.0,0.5495
817.0,0.5587
818.0,0.5394
819.0,0.5968
820.0,0.5645
821.0,0.6513
822.0,0.6341
823.0,0.4449
824.0,0.6186
825.0,0.6404
826.0,0.6187
827.0,0.6501
828.0,0.5589
829.0,0.6144
830.0,0.6072
831.0,0.609
832.0,0.5917
833.0,0.6256
834.0,0.606
835.0,0.6603
836.0,0.6354
837.0,0.6619
838.0,0.6428
839.0,0.6516
840.0,0.6655
841.0,0.6567
842.0,0.6571
843.0,0.6557
844.0,0.6471
845.0,0.6682
846.0,0.6651
847.0,0.6524
848.0,0.6488
849.0,0.6304
850.0,0.6039
851.0,0.6399
852.0,0.6352
853.0,0.611
854.0,0.5279
855.0,0.5795
856.0,0.6335
857.0,0.6473
858.0,0.6427
859.0,0.6431
860.0,0.6441
861.0,0.6406
862.0,0.6506
863.0,0.666
864.0,0.6326
865.0,0.6271
866.0,0.5638
867.0,0.5884
868.0,0.6403
869.0,0.627
870.0,0.6448
871.0,0.6361
872.0,0.6338
873.0,0.6325
874.0,0.625
875.0,0.6123
876.0,0.6187
877.0,0.625
878.0,0.6318
879.0,0.6221
880.0,0.6087
881.0,0.5998
882.0,0.6128
883.0,0.6146
884.0,0.6118
885.0,0.6165
886.0,0.5883
887.0,0.5939
888.0,0.603
889.0,0.6093
890.0,0.6049
891.0,0.6035
892.0,0.587
893.0,0.5699
894.0,0.5521
895.0,0.5246
896.0,0.4954
897.0,0.4295
898.0,0.4664
899.0,0.3595
900.0,0.4752
901.0,0.3767
902.0,0.4357
903.0,0.4421
904.0,0.5479
905.0,0.5303
906.0,0.4973
907.0,0.4099
908.0,0.4172
909.0,0.4492
910.0,0.4022
911.0,0.4256
912.0,0.4439
913.0,0.4084
914.0,0.404
915.0,0.4376
916.0,0.3718
917.0,0.4665
918.0,0.3814
919.0,0.4737
920.0,0.4759
921.0,0.4945
922.0,0.4456
923.0,0.4775
924.0,0.4569
925.0,0.447
926.0,0.452
927.0,0.5026
928.0,0.3782
929.0,0.3478
930.0,0.2773
931.0,0.2621
932.0,0.1927
933.0,0.1587
934.0,0.09155
935.0,0.1607
936.0,0.1031
937.0,0.1049
938.0,0.1279
939.0,0.2539
940.0,0.3027
941.0,0.2322
942.0,0.2665
943.0,0.1782
944.0,0.185
945.0,0.2387
946.0,0.1254
947.0,0.2408
948.0,0.1775
949.0,0.3185
950.0,0.09448
951.0,0.313
952.0,0.1732
953.0,0.2204
954.0,0.2665
955.0,0.2225
956.0,0.2141
957.0,0.174
958.0,0.2982
959.0,0.2409
960.0,0.2699
961.0,0.2999
962.0,0.2841
963.0,0.3249
964.0,0.2985
965.0,0.3234
966.0,0.3241
967.0,0.323
968.0,0.4238
969.0,0.4434
970.0,0.4085
971.0,0.4636
972.0,0.4442
973.0,0.3908
974.0,0.3715
975.0,0.384
976.0,0.3668
977.0,0.4132
978.0,0.3943
979.0,0.4117
980.0,0.3879
981.0,0.4607
982.0,0.442
983.0,0.4252
984.0,0.4731
985.0,0.4403
986.0,0.4804
987.0,0.4721
988.0,0.4712
989.0,0.4783
990.0,0.4683
991.0,0.4799
992.0,0.4826
993.0,0.4729
994.0,0.4823
995.0,0.4816
996.0,0.4796
997.0,0.4802
998.0,0.478
999.0,0.4762
1000.0,0.4731
1001.0,0.4787
1002.0,0.4665
1003.0,0.4703
1004.0,0.4591
1005.0,0.4419
1006.0,0.4594
1007.0,0.469
1008.0,0.4666
1009.0,0.4643
1010.0,0.4625
1011.0,0.4666
1012.0,0.4627
1013.0,0.4654
1014.0,0.4621
1015.0,0.4591
1016.0,0.4571
1017.0,0.4583
1018.0,0.4564
1019.0,0.4471
1020.0,0.4541
1021.0,0.4534
1022.0,0.45
1023.0,0.4548
1024.0,0.4493
1025.0,0.4544
1026.0,0.4525
1027.0,0.4514
1028.0,0.4505
1029.0,0.4452
1030.0,0.4481
1031.0,0.4464
1032.0,0.4451
1033.0,0.4384
1034.0,0.4384
1035.0,0.4397
1036.0,0.4421
1037.0,0.4349
1038.0,0.4368
1039.0,0.4366
1040.0,0.4348
1041.0,0.4366
1042.0,0.4335
1043.0,0.4322
1044.0,0.4337
1045.0,0.4279
1046.0,0.4232
1047.0,0.427
1048.0,0.4294
1049.0,0.4278
1050.0,0.4259
1051.0,0.4254
1052.0,0.4237
1053.0,0.4203
1054.0,0.4213
1055.0,0.4216
1056.0,0.4202
1057.0,0.4189
1058.0,0.4087
1059.0,0.4092
1060.0,0.4086
1061.0,0.4081
1062.0,0.4103
1063.0,0.4063
1064.0,0.4111
1065.0,0.4083
1066.0,0.4001
1067.0,0.4053
1068.0,0.3966
1069.0,0.3842
1070.0,0.3974
1071.0,0.4032
1072.0,0.3988
1073.0,0.393
1074.0,0.4028
1075.0,0.3837
1076.0,0.4025
1077.0,0.3959
1078.0,0.3887
1079.0,0.3959
1080.0,0.3898
1081.0,0.3778
1082.0,0.383
1083.0,0.384
1084.0,0.3772
1085.0,0.3906
1086.0,0.3581
1087.0,0.3684
1088.0,0.3838
1089.0,0.373
1090.0,0.3654
1091.0,0.3828
1092.0,0.3816
1093.0,0.3266
1094.0,0.3495
1095.0,0.3398
1096.0,0.3263
1097.0,0.3727
1098.0,0.3215
1099.0,0.3349
1100.0,0.3127
1101.0,0.3162
1102.0,0.3028
1103.0,0.3005
1104.0,0.3008
1105.0,0.3275
1106.0,0.2557
1107.0,0.3121
1108.0,0.2677
1109.0,0.2675
1110.0,0.3097
1111.0,0.2143
1112.0,0.2652
1113.0,0.1732
1114.0,0.1931
1115.0,0.1602
1116.0,0.1305
1117.0,0.05086
1118.0,0.1411
1119.0,0.0723
1120.0,0.09111
1121.0,0.1195
1122.0,0.05227
1123.0,0.08225
1124.0,0.06945
1125.0,0.09005
1126.0,0.03332
1127.0,0.1014
1128.0,0.06279
1129.0,0.06631
1130.0,0.04452
1131.0,0.1873
1132.0,0.1479
1133.0,0.09639
1134.0,0.02626
1135.0,0.009758
1136.0,0.08137
1137.0,0.1848
1138.0,0.1307
1139.0,0.1899
1140.0,0.1606
1141.0,0.1242
1142.0,0.1418
1143.0,0.1993
1144.0,0.07219
1145.0,0.0929
1146.0,0.1002
1147.0,0.03731
1148.0,0.1725
1149.0,0.1393
1150.0,0.07746
1151.0,0.1298
1152.0,0.1579
1153.0,0.1524
1154.0,0.09042
1155.0,0.1981
1156.0,0.1794
1157.0,0.1998
1158.0,0.1976
1159.0,0.2117
1160.0,0.1826
1161.0,0.2218
1162.0,0.2231
1163.0,0.2958
1164.0,0.2558
1165.0,0.2433
1166.0,0.2402
1167.0,0.2606
1168.0,0.2639
1169.0,0.2694
1170.0,0.2911
1171.0,0.2841
1172.0,0.2882
1173.0,0.2905
1174.0,0.2122
1175.0,0.283
1176.0,0.3088
1177.0,0.2979
1178.0,0.2274
1179.0,0.3112
1180.0,0.2804
1181.0,0.2891
1182.0,0.2035
1183.0,0.2841
1184.0,0.2675
1185.0,0.2593
1186.0,0.3035
1187.0,0.2903
1188.0,0.2073
1189.0,0.2707
1190.0,0.2966
1191.0,0.2838
1192.0,0.3005
1193.0,0.2887
1194.0,0.297
1195.0,0.2825
1196.0,0.273
1197.0,0.2964
1198.0,0.2723
1199.0,0.2351
1200.0,0.2852
1201.0,0.2763
1202.0,0.2739
1203.0,0.2717
1204.0,0.2395
1205.0,0.2793
1206.0,0.3065
1207.0,0.2736
1208.0,0.2682
1209.0,0.2735
1210.0,0.2841
1211.0,0.2719
1212.0,0.2702
1213.0,0.2972
1214.0,0.2759
1215.0,0.2711
1216.0,0.2962
1217.0,0.2891
1218.0,0.2939
1219.0,0.2906
1220.0,0.2941
1221.0,0.2966
1222.0,0.2893
1223.0,0.2869
1224.0,0.2856
1225.0,0.2948
1226.0,0.2963
1227.0,0.2751
1228.0,0.2974
1229.0,0.2963
1230.0,0.2916
1231.0,0.2987
1232.0,0.297
1233.0,0.2883
1234.0,0.2982
1235.0,0.2965
1236.0,0.2985
1237.0,0.2949
1238.0,0.2975
1239.0,0.2937
1240.0,0.2947
1241.0,0.2937
1242.0,0.2927
1243.0,0.2903
1244.0,0.2925
1245.0,0.2937
1246.0,0.2919
1247.0,0.2909
1248.0,0.2909
1249.0,0.2916
1250.0,0.29
1251.0,0.2865
1252.0,0.2863
1253.0,0.2845
1254.0,0.282
1255.0,0.2861
1256.0,0.279
1257.0,0.2777
1258.0,0.2821
1259.0,0.2733
1260.0,0.2746
1261.0,0.261
1262.0,0.2541
1263.0,0.2547
1264.0,0.2373
1265.0,0.253
1266.0,0.2447
1267.0,0.2481
1268.0,0.2368
1269.0,0.1567
1270.0,0.2476
1271.0,0.2599
1272.0,0.2605
1273.0,0.258
1274.0,0.2585
1275.0,0.2619
1276.0,0.2641
1277.0,0.2654
1278.0,0.2698
1279.0,0.2674
1280.0,0.264
1281.0,0.2516
1282.0,0.2418
1283.0,0.2606
1284.0,0.2669
1285.0,0.2686
1286.0,0.2719
1287.0,0.2683
1288.0,0.2681
1289.0,0.2607
1290.0,0.2656
1291.0,0.2691
1292.0,0.255
1293.0,0.2644
1294.0,0.2627
1295.0,0.2619
1296.0,0.2514
1297.0,0.2389
1298.0,0.255
1299.0,0.2645
1300.0,0.2276
1301.0,0.2339
1302.0,0.2541
1303.0,0.2242
1304.0,0.1947
1305.0,0.2492
1306.0,0.2494
1307.0,0.1977
1308.0,0.224
1309.0,0.2478
1310.0,0.1941
1311.0,0.2156
1312.0,0.2103
1313.0,0.2068
1314.0,0.1863
1315.0,0.1847
1316.0,0.2127
1317.0,0.2019
1318.0,0.218
1319.0,0.1745
1320.0,0.1682
1321.0,0.1945
1322.0,0.197
1323.0,0.1516
1324.0,0.1711
1325.0,0.2099
1326.0,0.1822
1327.0,0.1743
1328.0,0.1514
1329.0,0.1164
1330.0,0.1502
1331.0,0.09393
1332.0,0.09587
1333.0,0.1326
1334.0,0.1109
1335.0,0.151
1336.0,0.1211
1337.0,0.108
1338.0,0.1168
1339.0,0.1158
1340.0,0.1118
1341.0,0.1111
1342.0,0.1165
1343.0,0.08289
1344.0,0.04947
1345.0,0.071
1346.0,0.03789
1347.0,0.03898
1348.0,0.003035
1349.0,0.01034
1350.0,0.01034
1351.0,0.002958
1352.0,0.0009497
1353.0,5.911e-05
1354.0,0.0001798
1355.0,2.165e-06
1356.0,2.934e-05
1357.0,4.443e-05
1358.0,2.524e-06
1359.0,4.282e-07
1360.0,1.284e-06
1361.0,2.719e-09
1362.0,9.882e-12
1363.0,1.883e-06
1364.0,8.005e-07
1365.0,4.879e-12
1366.0,7.6e-06
1367.0,2.983e-06
1368.0,7.442e-14
1369.0,3.052e-07
1370.0,1.706e-07
1371.0,1.138e-08
1372.0,1.643e-06
1373.0,2.7e-05
1374.0,0.0001093
1375.0,0.0001988
1376.0,0.0001606
1377.0,7.603e-05
1378.0,0.0006953
1379.0,3.218e-05
1380.0,5.031e-05
1381.0,1.441e-06
1382.0,1.535e-06
1383.0,2.606e-08
1384.0,3.624e-07
1385.0,1.265e-06
1386.0,1.49e-06
1387.0,0.0001225
1388.0,2.469e-06
1389.0,0.0003586
1390.0,0.0003086
1391.0,0.0002128
1392.0,1.461e-05
1393.0,7.178e-05
1394.0,4.61e-05
1395.0,4.028e-07
1396.0,3.601e-09
1397.0,3.026e-05
1398.0,0.0007912
1399.0,0.0005013
1400.0,1.834e-09
1401.0,6.097e-09
1402.0,0.001164
1403.0,0.001512
1404.0,0.0004679
1405.0,2.185e-07
1406.0,0.001287
1407.0,0.0001102
1408.0,0.001043
1409.0,0.0003876
1410.0,0.0002925
1411.0,0.001322
1412.0,0.0017
1413.0,0.01516
1414.0,0.0002282
1415.0,0.0001151
1416.0,0.02313
1417.0,0.007574
1418.0,0.008687
1419.0,0.001376
1420.0,0.005338
1421.0,0.005794
1422.0,0.03003
1423.0,0.005973
1424.0,0.01106
1425.0,0.01648
1426.0,0.01818
1427.0,0.03224
1428.0,0.00289
1429.0,0.02463
1430.0,0.04069
1431.0,0.04437
1432.0,0.00229
1433.0,0.02866
1434.0,0.0148
1435.0,0.01554
1436.0,0.02882
1437.0,0.02208
1438.0,0.00965
1439.0,0.03869
1440.0,0.02903
1441.0,0.02267
1442.0,0.02505
1443.0,0.03063
1444.0,0.04205
1445.0,0.03357
1446.0,0.0153
1447.0,0.02408
1448.0,0.07689
1449.0,0.06738
1450.0,0.01783
1451.0,0.007312
