interpolation:linear
wavelength,value
280.0,1.6270000000000002e-20
280.5,4.791e-19
281.0,2.477e-18
281.5,4.183e-19
282.0,1.579e-18
282.5,4.332e-18
283.0,1.423e-17
283.5,2.338e-17
284.0,3.717e-16
284.5,1.056e-15
285.0,1.922e-15
285.5,1.064e-14
286.0,4.394e-14
286.5,2.015e-13
287.0,5.802e-13
287.5,2.222e-12
288.0,6.146e-12
288.5,2.314e-11
289.0,7.354e-11
289.5,2.598e-10
290.0,8.07e-10
290.5,1.797e-09
291.0,4.255e-09
291.5,1.372e-08
292.0,3.659e-08
292.5,5.806e-08
293.0,1.46e-07
293.5,4.455e-07
294.0,8.257e-07
294.5,1.101e-06
295.0,2.205e-06
295.5,5.786e-06
296.0,1.132e-05
296.5,1.605e-05
297.0,2.196e-05
297.5,5.982e-05
298.0,9.555e-05
298.5,9.715e-05
299.0,0.0002164
299.5,0.0003654
300.0,0.0004063
300.5,0.0005953
301.0,0.001099
301.5,0.00179
302.0,0.001553
302.5,0.002975
303.0,0.005206
303.5,0.006443
304.0,0.005978
304.5,0.008623
305.0,0.01246
305.5,0.01385
306.0,0.01325
306.5,0.01618
307.0,0.023
307.5,0.02934
308.0,0.03079
308.5,0.03564
309.0,0.03463
309.5,0.03853
310.0,0.03821
310.5,0.06148
311.0,0.07633
311.5,0.07334
312.0,0.0716
312.5,0.08574
313.0,0.09221
313.5,0.09025
314.0,0.1107
314.5,0.09562
315.0,0.1251
315.5,0.106
316.0,0.0906
316.5,0.1277
317.0,0.1586
317.5,0.166
318.0,0.1279
318.5,0.1549
319.0,0.1816
319.5,0.151
320.0,0.183
320.5,0.2234
321.0,0.1945
321.5,0.1861
322.0,0.2032
322.5,0.1765
323.0,0.1731
323.5,0.2096
324.0,0.244
324.5,0.2493
325.0,0.2172
325.5,0.2757
326.0,0.3359
326.5,0.3335
327.0,0.3335
327.5,0.3234
328.0,0.2912
328.5,0.3019
329.0,0.3575
329.5,0.4045
330.0,0.4091
330.5,0.3302
331.0,0.3374
331.5,0.3408
332.0,0.3648
332.5,0.3594
333.0,0.3592
333.5,0.3273
334.0,0.3357
334.5,0.3844
335.0,0.3596
335.5,0.42
336.0,0.2906
336.5,0.341
337.0,0.2807
337.5,0.3496
338.0,0.3392
338.5,0.3914
339.0,0.3873
339.5,0.3726
340.0,0.438
340.5,0.3946
341.0,0.3848
341.5,0.3533
342.0,0.4222
342.5,0.3949
343.0,0.4344
343.5,0.4091
344.0,0.3023
344.5,0.3054
345.0,0.4041
345.5,0.4125
346.0,0.3505
346.5,0.3969
347.0,0.4262
347.5,0.3446
348.0,0.3928
348.5,0.3926
349.0,0.3642
349.5,0.3606
350.0,0.446
350.5,0.4704
351.0,0.4203
351.5,0.4086
352.0,0.4388
352.5,0.3424
353.0,0.4312
353.5,0.4611
354.0,0.4787
354.5,0.4855
355.0,0.4839
355.5,0.4372
356.0,0.4574
356.5,0.3906
357.0,0.3227
357.5,0.3951
358.0,0.3132
358.5,0.2676
359.0,0.3744
359.5,0.4771
360.0,0.5058
360.5,0.4043
361.0,0.3686
361.5,0.4244
362.0,0.367
362.5,0.5079
363.0,0.4562
363.5,0.4202
364.0,0.5139
364.5,0.4393
365.0,0.4474
365.5,0.5616
366.0,0.595
366.5,0.5591
367.0,0.5445
367.5,0.5651
368.0,0.4946
368.5,0.4991
369.0,0.539
369.5,0.5745
370.0,0.6125
370.5,0.4754
371.0,0.508
371.5,0.6356
372.0,0.4219
372.5,0.5059
373.0,0.5147
373.5,0.3349
374.0,0.4866
374.5,0.403
375.0,0.3918
375.5,0.585
376.0,0.485
376.5,0.5026
377.0,0.5322
377.5,0.6227
378.0,0.6751
378.5,0.6381
379.0,0.5267
379.5,0.4811
380.0,0.5003
380.5,0.606
381.0,0.6073
381.5,0.4814
382.0,0.4276
382.5,0.3645
383.0,0.3375
383.5,0.3251
384.0,0.3586
384.5,0.5275
385.0,0.5232
385.5,0.4873
386.0,0.4174
386.5,0.5483
387.0,0.4556
387.5,0.5118
388.0,0.4726
388.5,0.4672
389.0,0.5043
389.5,0.6109
390.0,0.6131
390.5,0.5643
391.0,0.6643
391.5,0.6776
392.0,0.5708
392.5,0.511
393.0,0.2844
393.5,0.2067
394.0,0.4207
394.5,0.5349
395.0,0.6528
395.5,0.6632
396.0,0.575
396.5,0.3362
397.0,0.2523
397.5,0.5131
398.0,0.7187
398.5,0.7429
399.0,0.8044
399.5,0.8019
400.0,0.8327
401.0,0.8455
402.0,0.8921
403.0,0.8476
404.0,0.8346
405.0,0.8346
406.0,0.8211
407.0,0.8079
408.0,0.8395
409.0,0.8986
410.0,0.7853
411.0,0.8506
412.0,0.9136
413.0,0.8911
414.0,0.902
415.0,0.9044
416.0,0.9203
417.0,0.8977
418.0,0.8812
419.0,0.8928
420.0,0.8889
421.0,0.93
422.0,0.884
423.0,0.8635
424.0,0.9134
425.0,0.9118
426.0,0.8881
427.0,0.8715
428.0,0.849
429.0,0.8041
430.0,0.7038
431.0,0.6976
432.0,0.9007
433.0,0.9057
434.0,0.841
435.0,0.8784
436.0,0.9897
437.0,0.9763
438.0,0.889
439.0,0.9197
440.0,0.9489
441.0,0.9832
442.0,1.055
443.0,1.027
444.0,1.049
445.0,1.027
446.0,0.9798
447.0,1.059
448.0,1.076
449.0,1.08
450.0,1.11
451.0,1.151
452.0,1.109
453.0,1.043
454.0,1.089
455.0,1.096
456.0,1.122
457.0,1.14
458.0,1.102
459.0,1.096
460.0,1.099
461.0,1.124
462.0,1.133
463.0,1.125
464.0,1.106
465.0,1.092
466.0,1.102
467.0,1.082
468.0,1.095
469.0,1.101
470.0,1.066
471.0,1.064
472.0,1.122
473.0,1.107
474.0,1.109
475.0,1.118
476.0,1.085
477.0,1.089
478.0,1.119
479.0,1.112
480.0,1.114
481.0,1.134
482.0,1.14
483.0,1.126
484.0,1.103
485.0,1.05
486.0,0.9182
487.0,0.9621
488.0,1.056
489.0,1.059
490.0,1.114
491.0,1.095
492.0,1.034
493.0,1.067
494.0,1.078
495.0,1.087
496.0,1.094
497.0,1.111
498.0,1.059
499.0,1.073
500.0,1.042
501.0,1.023
502.0,1.009
503.0,1.05
504.0,1.024
505.0,1.06
506.0,1.094
507.0,1.041
508.0,1.009
509.0,1.037
510.0,1.031
511.0,1.058
512.0,1.07
513.0,1.013
514.0,1.006
515.0,0.9955
516.0,0.9931
517.0,0.8824
518.0,0.9277
519.0,0.9731
520.0,1.008
521.0,1.018
522.0,1.019
523.0,1.001
524.0,1.037
525.0,1.049
526.0,1.002
527.0,0.9447
528.0,0.9993
529.0,1.053
530.0,1.038
531.0,1.054
532.0,1.018
533.0,0.9879
534.0,1.017
535.0,1.039
536.0,1.049
537.0,1.007
538.0,1.025
539.0,1.016
540.0,0.9743
541.0,0.9811
542.0,1.012
543.0,1.001
544.0,1.019
545.0,1.015
546.0,1.02
547.0,1.019
548.0,1.007
549.0,1.01
550.0,1.022
551.0,1.01
552.0,1.017
553.0,0.9986
554.0,1.022
555.0,1.025
556.0,1.011
557.0,0.98
558.0,0.9727
559.0,0.9547
560.0,0.9667
561.0,0.9793
562.0,0.9724
563.0,0.9992
564.0,0.9721
565.0,0.9638
566.0,0.9498
567.0,0.968
568.0,0.9598
569.0,0.9378
570.0,0.9374
571.0,0.9315
572.0,0.9545
573.0,0.9648
574.0,0.9618
575.0,0.9441
576.0,0.9354
577.0,0.9455
578.0,0.9311
579.0,0.9344
580.0,0.9516
581.0,0.956
582.0,0.9737
583.0,0.9758
584.0,0.9841
585.0,0.9599
586.0,0.9402
587.0,0.961
588.0,0.9387
589.0,0.8337
590.0,0.8717
591.0,0.9212
592.0,0.9103
593.0,0.9228
594.0,0.9168
595.0,0.8949
596.0,0.9285
597.0,0.9189
598.0,0.916
599.0,0.9166
600.0,0.9175
601.0,0.9097
602.0,0.9035
603.0,0.9183
604.0,0.9334
605.0,0.9285
606.0,0.9245
607.0,0.9335
608.0,0.923
609.0,0.9244
610.0,0.9177
611.0,0.9224
612.0,0.9196
613.0,0.9079
614.0,0.8954
615.0,0.9147
616.0,0.8845
617.0,0.8826
618.0,0.9165
619.0,0.9071
620.0,0.9129
621.0,0.9139
622.0,0.9034
623.0,0.8897
624.0,0.8744
625.0,0.8724
626.0,0.8853
627.0,0.8956
628.0,0.8407
629.0,0.8759
630.0,0.8559
631.0,0.8737
632.0,0.863
633.0,0.8886
634.0,0.8795
635.0,0.893
636.0,0.8809
637.0,0.8951
638.0,0.9034
639.0,0.8931
640.0,0.8842
641.0,0.8836
642.0,0.8794
643.0,0.8912
644.0,0.8881
645.0,0.8897
646.0,0.8694
647.0,0.8603
648.0,0.8612
649.0,0.8446
650.0,0.8472
651.0,0.8836
652.0,0.8485
653.0,0.8718
654.0,0.862
655.0,0.8307
656.0,0.7357
657.0,0.7554
658.0,0.8461
659.0,0.8519
660.0,0.8554
661.0,0.8614
662.0,0.8634
663.0,0.8462
664.0,0.8558
665.0,0.8562
666.0,0.8567
667.0,0.8558
668.0,0.856
669.0,0.8691
670.0,0.8653
671.0,0.865
672.0,0.8576
673.0,0.8704
674.0,0.8671
675.0,0.8591
676.0,0.865
677.0,0.8563
678.0,0.8587
679.0,0.8448
680.0,0.8515
681.0,0.8459
682.0,0.8448
683.0,0.8432
684.0,0.839
685.0,0.8461
686.0,0.8411
687.0,0.577
688.0,0.6674
689.0,0.6695
690.0,0.6992
691.0,0.7326
692.0,0.7566
693.0,0.7507
694.0,0.7444
695.0,0.773
696.0,0.774
697.0,0.8186
698.0,0.8059
699.0,0.7885
700.0,0.779
701.0,0.7717
702.0,0.7763
703.0,0.7777
704.0,0.8015
705.0,0.8027
706.0,0.8016
707.0,0.802
708.0,0.8038
709.0,0.8043
710.0,0.8046
711.0,0.8032
712.0,0.8005
713.0,0.7927
714.0,0.7957
715.0,0.7712
716.0,0.7719
717.0,0.6763
718.0,0.6222
719.0,0.5706
720.0,0.5983
721.0,0.6563
722.0,0.7463
723.0,0.6971
724.0,0.6307
725.0,0.6215
726.0,0.6502
727.0,0.6579
728.0,0.6203
729.0,0.6411
730.0,0.6784
731.0,0.6498
732.0,0.6925
733.0,0.7306
734.0,0.7472
735.0,0.7321
736.0,0.7312
737.0,0.7341
738.0,0.7438
739.0,0.7292
740.0,0.7477
741.0,0.7399
742.0,0.7403
743.0,0.7591
744.0,0.7568
745.0,0.7568
746.0,0.7602
747.0,0.7618
748.0,0.7602
749.0,0.7515
750.0,0.7511
751.0,0.7435
752.0,0.7466
753.0,0.7504
754.0,0.7521
755.0,0.7478
756.0,0.7475
757.0,0.7486
758.0,0.7393
759.0,0.7253
760.0,0.1376
761.0,0.07555
762.0,0.3888
763.0,0.2041
764.0,0.2982
765.0,0.3889
766.0,0.4693
767.0,0.5839
768.0,0.6673
769.0,0.6799
770.0,0.7014
771.0,0.7063
772.0,0.7076
773.0,0.7125
774.0,0.709
775.0,0.7035
776.0,0.7121
777.0,0.7027
778.0,0.6984
779.0,0.699
780.0,0.6951
781.0,0.6958
782.0,0.7001
783.0,0.6879
784.0,0.6912
785.0,0.6861
786.0,0.6938
787.0,0.6823
788.0,0.6742
789.0,0.674
790.0,0.6571
791.0,0.6618
792.0,0.6568
793.0,0.6463
794.0,0.6563
795.0,0.6676
796.0,0.6485
797.0,0.6493
798.0,0.667
799.0,0.663
800.0,0.6518
801.0,0.6501
802.0,0.6482
803.0,0.6434
804.0,0.6441
805.0,0.6417
806.0,0.6591
807.0,0.6513
808.0,0.6518
809.0,0.6401
810.0,0.6352
811.0,0.6367
812.0,0.6194
813.0,0.607
814.0,0.5372
815.0,0.5338
816.0,0.4972
817.0,0.506
818.0,0.4877
819.0,0.5426
820.0,0.512
821.0,0.5948
822.0,0.5784
823.0,0.3992
824.0,0.5629
825.0,0.5846
826.0,0.5636
827.0,0.5936
828.0,0.5065
829.0,0.5599
830.0,0.5529
831.0,0.5548
832.0,0.5383
833.0,0.5711
834.0,0.552
835.0,0.604
836.0,0.5796
837.0,0.6056
838.0,0.5874
839.0,0.5963
840.0,0.6093
841.0,0.6009
842.0,0.6018
843.0,0.601
844.0,0.5929
845.0,0.6126
846.0,0.6098
847.0,0.5983
848.0,0.5948
849.0,0.5779
850.0,0.5537
851.0,0.5864
852.0,0.5822
853.0,0.5602
854.0,0.4838
855.0,0.5314
856.0,0.5808
857.0,0.5936
858.0,0.5893
859.0,0.5898
860.0,0.5908
861.0,0.5875
862.0,0.5968
863.0,0.6108
864.0,0.5803
865.0,0.5752
866.0,0.5172
867.0,0.5397
868.0,0.5873
869.0,0.5751
870.0,0.5915
871.0,0.5835
872.0,0.5814
873.0,0.5802
874.0,0.5733
875.0,0.5617
876.0,0.5676
877.0,0.5733
878.0,0.5795
879.0,0.5706
880.0,0.5584
881.0,0.5501
882.0,0.562
883.0,0.5637
884.0,0.5612
885.0,0.5654
886.0,0.5391
887.0,0.5446
888.0,0.5528
889.0,0.5589
890.0,0.5544
891.0,0.5534
892.0,0.5377
893.0,0.5213
894.0,0.5037
895.0,0.4769
896.0,0.4497
897.0,0.3875
898.0,0.4222
899.0,0.3226
900.0,0.4315
901.0,0.3381
902.0,0.3948
903.0,0.3993
904.0,0.4999
905.0,0.4831
906.0,0.4524
907.0,0.3695
908.0,0.3765
909.0,0.407
910.0,0.3615
911.0,0.3843
912.0,0.4015
913.0,0.3669
914.0,0.3635
915.0,0.394
916.0,0.3339
917.0,0.4221
918.0,0.3424
919.0,0.4294
920.0,0.433
921.0,0.4502
922.0,0.4035
923.0,0.4348
924.0,0.4137
925.0,0.4047
926.0,0.4091
927.0,0.457
928.0,0.338
929.0,0.3092
930.0,0.2439
931.0,0.231
932.0,0.1673
933.0,0.1364
934.0,0.07574
935.0,0.1392
936.0,0.08751
937.0,0.08876
938.0,0.1089
939.0,0.2238
940.0,0.2686
941.0,0.2035
942.0,0.2352
943.0,0.1553
944.0,0.163
945.0,0.2097
946.0,0.1075
947.0,0.2109
948.0,0.155
949.0,0.2815
950.0,0.07933
951.0,0.2771
952.0,0.1498
953.0,0.1929
954.0,0.2358
955.0,0.195
956.0,0.1889
957.0,0.1501
958.0,0.2668
959.0,0.2127
960.0,0.2384
961.0,0.267
962.0,0.2526
963.0,0.2908
964.0,0.2665
965.0,0.2897
966.0,0.2898
967.0,0.2886
968.0,0.3853
969.0,0.4026
970.0,0.3699
971.0,0.4227
972.0,0.4045
973.0,0.3529
974.0,0.3351
975.0,0.3475
976.0,0.3304
977.0,0.3752
978.0,0.3568
979.0,0.3735
980.0,0.3512
981.0,0.4202
982.0,0.4021
983.0,0.3862
984.0,0.4327
985.0,0.4006
986.0,0.4401
987.0,0.4317
988.0,0.4309
989.0,0.4387
990.0,0.4283
991.0,0.44
992.0,0.4425
993.0,0.4329
994.0,0.4424
995.0,0.4418
996.0,0.4399
997.0,0.4405
998.0,0.4384
999.0,0.4368
1000.0,0.4338
1001.0,0.4392
1002.0,0.4272
1003.0,0.4314
1004.0,0.4209
1005.0,0.4054
1006.0,0.4213
1007.0,0.4302
1008.0,0.4279
1009.0,0.4256
1010.0,0.4239
1011.0,0.428
1012.0,0.4243
1013.0,0.427
1014.0,0.424
1015.0,0.4212
1016.0,0.4193
1017.0,0.4204
1018.0,0.4188
1019.0,0.4099
1020.0,0.4166
1021.0,0.416
1022.0,0.4128
1023.0,0.4172
1024.0,0.4118
1025.0,0.4168
1026.0,0.4151
1027.0,0.4141
1028.0,0.4132
1029.0,0.4084
1030.0,0.4112
1031.0,0.4095
1032.0,0.4083
1033.0,0.4022
1034.0,0.4022
1035.0,0.4034
1036.0,0.4055
1037.0,0.3989
1038.0,0.4007
1039.0,0.4005
1040.0,0.3989
1041.0,0.4005
1042.0,0.3977
1043.0,0.3964
1044.0,0.3978
1045.0,0.3924
1046.0,0.3881
1047.0,0.3916
1048.0,0.3937
1049.0,0.3923
1050.0,0.3905
1051.0,0.39
1052.0,0.3884
1053.0,0.3853
1054.0,0.3861
1055.0,0.3864
1056.0,0.385
1057.0,0.3838
1058.0,0.3744
1059.0,0.3748
1060.0,0.3743
1061.0,0.3738
1062.0,0.3758
1063.0,0.3721
1064.0,0.3765
1065.0,0.3738
1066.0,0.3664
1067.0,0.3711
1068.0,0.363
1069.0,0.3518
1070.0,0.3638
1071.0,0.3694
1072.0,0.3651
1073.0,0.3599
1074.0,0.3691
1075.0,0.3508
1076.0,0.3688
1077.0,0.3623
1078.0,0.3555
1079.0,0.3629
1080.0,0.3567
1081.0,0.3454
1082.0,0.3508
1083.0,0.3518
1084.0,0.3446
1085.0,0.3575
1086.0,0.3265
1087.0,0.3368
1088.0,0.3515
1089.0,0.3409
1090.0,0.3335
1091.0,0.3504
1092.0,0.3495
1093.0,0.2968
1094.0,0.3198
1095.0,0.3091
1096.0,0.2961
1097.0,0.3414
1098.0,0.2916
1099.0,0.3041
1100.0,0.2828
1101.0,0.2863
1102.0,0.2736
1103.0,0.271
1104.0,0.2714
1105.0,0.2971
1106.0,0.2281
1107.0,0.2824
1108.0,0.2398
1109.0,0.2402
1110.0,0.28
1111.0,0.1905
1112.0,0.2383
1113.0,0.1523
1114.0,0.1702
1115.0,0.1411
1116.0,0.113
1117.0,0.04182
1118.0,0.1228
1119.0,0.06119
1120.0,0.07704
1121.0,0.1021
1122.0,0.04317
1123.0,0.06961
1124.0,0.05876
1125.0,0.0766
1126.0,0.02685
1127.0,0.08639
1128.0,0.05189
1129.0,0.05503
1130.0,0.03628
1131.0,0.1633
1132.0,0.1282
1133.0,0.08152
1134.0,0.02097
1135.0,0.007852
1136.0,0.0681
1137.0,0.1605
1138.0,0.1131
1139.0,0.1682
1140.0,0.1407
1141.0,0.1075
1142.0,0.1236
1143.0,0.1753
1144.0,0.06148
1145.0,0.07862
1146.0,0.0848
1147.0,0.03002
1148.0,0.1517
1149.0,0.1213
1150.0,0.0661
1151.0,0.1123
1152.0,0.138
1153.0,0.1343
1154.0,0.07623
1155.0,0.1755
1156.0,0.1581
1157.0,0.1772
1158.0,0.1753
1159.0,0.1889
1160.0,0.1616
1161.0,0.1986
1162.0,0.1997
1163.0,0.2685
1164.0,0.2307
1165.0,0.2181
1166.0,0.2163
1167.0,0.2353
1168.0,0.238
1169.0,0.2435
1170.0,0.2642
1171.0,0.2577
1172.0,0.2621
1173.0,0.2636
1174.0,0.1896
1175.0,0.2573
1176.0,0.2821
1177.0,0.2713
1178.0,0.2049
1179.0,0.2844
1180.0,0.2547
1181.0,0.2627
1182.0,0.1825
1183.0,0.2585
1184.0,0.2427
1185.0,0.2346
1186.0,0.2768
1187.0,0.2641
1188.0,0.1857
1189.0,0.2461
1190.0,0.2705
1191.0,0.2576
1192.0,0.2742
1193.0,0.263
1194.0,0.2709
1195.0,0.2568
1196.0,0.2476
1197.0,0.2708
1198.0,0.2481
1199.0,0.2123
1200.0,0.2598
1201.0,0.251
1202.0,0.2492
1203.0,0.2472
1204.0,0.2168
1205.0,0.2547
1206.0,0.2806
1207.0,0.2487
1208.0,0.2444
1209.0,0.2494
1210.0,0.2595
1211.0,0.2476
1212.0,0.2452
1213.0,0.2717
1214.0,0.2508
1215.0,0.2462
1216.0,0.2708
1217.0,0.2639
1218.0,0.2686
1219.0,0.2654
1220.0,0.2688
1221.0,0.2714
1222.0,0.2645
1223.0,0.2621
1224.0,0.2607
1225.0,0.2696
1226.0,0.2713
1227.0,0.251
1228.0,0.2725
1229.0,0.2713
1230.0,0.2668
1231.0,0.2739
1232.0,0.2723
1233.0,0.2636
1234.0,0.2736
1235.0,0.2719
1236.0,0.2738
1237.0,0.2703
1238.0,0.2729
1239.0,0.2694
1240.0,0.2704
1241.0,0.2693
1242.0,0.2686
1243.0,0.2664
1244.0,0.2683
1245.0,0.2694
1246.0,0.2679
1247.0,0.2669
1248.0,0.2668
1249.0,0.2675
1250.0,0.2659
1251.0,0.2626
1252.0,0.2626
1253.0,0.2606
1254.0,0.2582
1255.0,0.2623
1256.0,0.2553
1257.0,0.254
1258.0,0.2585
1259.0,0.2497
1260.0,0.2509
1261.0,0.2375
1262.0,0.2308
1263.0,0.2312
1264.0,0.2143
1265.0,0.2298
1266.0,0.2216
1267.0,0.2251
1268.0,0.2141
1269.0,0.1365
1270.0,0.2245
1271.0,0.2367
1272.0,0.2374
1273.0,0.2349
1274.0,0.2356
1275.0,0.2388
1276.0,0.241
1277.0,0.2425
1278.0,0.2468
1279.0,0.2446
1280.0,0.2415
1281.0,0.2303
1282.0,0.2217
1283.0,0.2388
1284.0,0.2446
1285.0,0.2461
1286.0,0.2493
1287.0,0.2457
1288.0,0.2456
1289.0,0.2383
1290.0,0.2434
1291.0,0.2467
1292.0,0.2326
1293.0,0.2421
1294.0,0.2405
1295.0,0.2395
1296.0,0.2292
1297.0,0.2172
1298.0,0.233
1299.0,0.2423
1300.0,0.2065
1301.0,0.2126
1302.0,0.2322
1303.0,0.2037
1304.0,0.175
1305.0,0.2275
1306.0,0.2276
1307.0,0.1783
1308.0,0.2038
1309.0,0.226
1310.0,0.175
1311.0,0.1957
1312.0,0.1906
1313.0,0.1871
1314.0,0.1679
1315.0,0.166
1316.0,0.1928
1317.0,0.1828
1318.0,0.1981
1319.0,0.1563
1320.0,0.1511
1321.0,0.1755
1322.0,0.1775
1323.0,0.1347
1324.0,0.1533
1325.0,0.1901
1326.0,0.1639
1327.0,0.1565
1328.0,0.1353
1329.0,0.1024
1330.0,0.1329
1331.0,0.08118
1332.0,0.08352
1333.0,0.116
1334.0,0.09783
1335.0,0.1342
1336.0,0.1066
1337.0,0.09449
1338.0,0.1022
1339.0,0.1017
1340.0,0.09865
1341.0,0.09687
1342.0,0.1017
1343.0,0.06992
1344.0,0.04181
1345.0,0.06024
1346.0,0.03057
1347.0,0.03119
1348.0,0.002144
1349.0,0.007578
1350.0,0.007781
1351.0,0.001993
1352.0,0.0005704
1353.0,3.105e-05
1354.0,0.0001027
1355.0,9.465e-07
1356.0,1.524e-05
1357.0,2.319e-05
1358.0,1.115e-06
1359.0,1.556e-07
1360.0,5.291e-07
1361.0,7.333e-10
1362.0,2.203e-12
1363.0,7.388e-07
1364.0,3.078e-07
1365.0,8.704e-13
1366.0,3.145e-06
1367.0,1.266e-06
1368.0,8.502e-15
1369.0,1.158e-07
1370.0,5.961e-08
1371.0,3.57e-09
1372.0,6.967e-07
1373.0,1.315e-05
1374.0,5.841e-05
1375.0,0.0001064
1376.0,9.216e-05
1377.0,4.266e-05
1378.0,0.0004095
1379.0,1.796e-05
1380.0,2.662e-05
1381.0,7.157e-07
1382.0,6.361e-07
1383.0,9.916e-09
1384.0,1.332e-07
1385.0,5.738e-07
1386.0,5.841e-07
1387.0,6.235e-05
1388.0,1.233e-06
1389.0,0.0002012
1390.0,0.0001733
1391.0,0.0001168
1392.0,7.716e-06
1393.0,3.996e-05
1394.0,2.224e-05
1395.0,1.727e-07
1396.0,1.027e-09
1397.0,1.622e-05
1398.0,0.0004624
1399.0,0.000293
1400.0,4.695e-10
1401.0,1.811e-09
1402.0,0.0007685
1403.0,0.0009768
1404.0,0.0002992
1405.0,8.721e-08
1406.0,0.0007934
1407.0,6.918e-05
1408.0,0.0006469
1409.0,0.0002241
1410.0,0.0001759
1411.0,0.0008572
1412.0,0.00114
1413.0,0.01131
1414.0,0.0001383
1415.0,6.737e-05
1416.0,0.01828
1417.0,0.005594
1418.0,0.006382
1419.0,0.000993
1420.0,0.003907
1421.0,0.004225
1422.0,0.02385
1423.0,0.004634
1424.0,0.008676
1425.0,0.01279
1426.0,0.01448
1427.0,0.02657
1428.0,0.002022
1429.0,0.01989
1430.0,0.03387
1431.0,0.03721
1432.0,0.001593
1433.0,0.02366
1434.0,0.01202
1435.0,0.01199
1436.0,0.0232
1437.0,0.01777
1438.0,0.00749
1439.0,0.03158
1440.0,0.02365
1441.0,0.01798
1442.0,0.01995
1443.0,0.02513
1444.0,0.03488
