interpolation:linear
wavelength,value
280.0,7.740000000000001e-21
280.5,2.348e-19
281.0,1.226e-18
281.5,4.951e-19
282.0,1.463e-18
282.5,3.834e-18
283.0,1.23e-17
283.5,2.007e-17
284.0,3.177e-16
284.5,9.057e-16
285.0,1.813e-15
285.5,9.438e-15
286.0,3.834e-14
286.5,1.721e-13
287.0,4.904e-13
287.5,1.861e-12
288.0,4.87e-12
288.5,1.722e-11
289.0,5.148e-11
289.5,1.708e-10
290.0,5.044e-10
290.5,1.077e-09
291.0,2.429e-09
291.5,7.556e-09
292.0,1.839e-08
292.5,2.883e-08
293.0,7.145e-08
293.5,2.135e-07
294.0,3.889e-07
294.5,5.148e-07
295.0,1.016e-06
295.5,2.778e-06
296.0,5.523e-06
296.5,7.97e-06
297.0,1.108e-05
297.5,3.094e-05
298.0,5.055e-05
298.5,5.235e-05
299.0,0.0001188
299.5,0.0002077
300.0,0.0002357
300.5,0.0003532
301.0,0.0006786
301.5,0.001153
302.0,0.001025
302.5,0.00199
303.0,0.003539
303.5,0.004425
304.0,0.004135
304.5,0.006076
305.0,0.009006
305.5,0.01016
306.0,0.009783
306.5,0.01207
307.0,0.01751
307.5,0.02279
308.0,0.024
308.5,0.02804
309.0,0.0274
309.5,0.03088
310.0,0.03081
310.5,0.04972
311.0,0.06205
311.5,0.05975
312.0,0.05896
312.5,0.07111
313.0,0.07677
313.5,0.07489
314.0,0.09262
314.5,0.08094
315.0,0.1061
315.5,0.0894
316.0,0.07715
316.5,0.1096
317.0,0.1362
317.5,0.1421
318.0,0.1101
318.5,0.1348
319.0,0.1588
319.5,0.131
320.0,0.1586
320.5,0.1956
321.0,0.1719
321.5,0.1646
322.0,0.178
322.5,0.1547
323.0,0.1527
323.5,0.186
324.0,0.2168
324.5,0.221
325.0,0.1919
325.5,0.2449
326.0,0.2988
326.5,0.2977
327.0,0.2973
327.5,0.2879
328.0,0.2581
328.5,0.2691
329.0,0.32
329.5,0.3626
330.0,0.3664
330.5,0.2948
331.0,0.3009
331.5,0.3047
332.0,0.3273
332.5,0.323
333.0,0.3225
333.5,0.2932
334.0,0.3006
334.5,0.3452
335.0,0.3235
335.5,0.3779
336.0,0.2615
336.5,0.3067
337.0,0.2522
337.5,0.3139
338.0,0.3053
338.5,0.3524
339.0,0.3487
339.5,0.3355
340.0,0.3944
340.5,0.3554
341.0,0.3467
341.5,0.3183
342.0,0.3804
342.5,0.3559
343.0,0.3915
343.5,0.3687
344.0,0.2725
344.5,0.2753
345.0,0.3643
345.5,0.372
346.0,0.3162
346.5,0.358
347.0,0.3844
347.5,0.3109
348.0,0.3544
348.5,0.3543
349.0,0.3287
349.5,0.3255
350.0,0.4026
350.5,0.4247
351.0,0.3795
351.5,0.3689
352.0,0.3963
352.5,0.3093
353.0,0.3896
353.5,0.4166
354.0,0.4325
354.5,0.4387
355.0,0.4373
355.5,0.3951
356.0,0.4134
356.5,0.3531
357.0,0.2918
357.5,0.3572
358.0,0.2831
358.5,0.242
359.0,0.3385
359.5,0.4314
360.0,0.4574
360.5,0.3656
361.0,0.3334
361.5,0.3839
362.0,0.332
362.5,0.4596
363.0,0.4129
363.5,0.3804
364.0,0.4653
364.5,0.3978
365.0,0.4052
365.5,0.5086
366.0,0.5389
366.5,0.5065
367.0,0.4933
367.5,0.512
368.0,0.4481
368.5,0.4522
369.0,0.4885
369.5,0.5207
370.0,0.5552
370.5,0.431
371.0,0.4606
371.5,0.5763
372.0,0.3826
372.5,0.4588
373.0,0.4667
373.5,0.3037
374.0,0.4414
374.5,0.3656
375.0,0.3555
375.5,0.5308
376.0,0.4401
376.5,0.4561
377.0,0.483
377.5,0.5651
378.0,0.6127
378.5,0.5792
379.0,0.478
379.5,0.4367
380.0,0.4541
380.5,0.5501
381.0,0.5514
381.5,0.4372
382.0,0.3883
382.5,0.3311
383.0,0.3066
383.5,0.2953
384.0,0.3258
384.5,0.4793
385.0,0.4754
385.5,0.4428
386.0,0.3793
386.5,0.4984
387.0,0.4142
387.5,0.4653
388.0,0.4296
388.5,0.4248
389.0,0.4586
389.5,0.5555
390.0,0.5576
390.5,0.5133
391.0,0.6042
391.5,0.6164
392.0,0.5192
392.5,0.4649
393.0,0.2588
393.5,0.1881
394.0,0.3829
394.5,0.4868
395.0,0.5941
395.5,0.6036
396.0,0.5234
396.5,0.306
397.0,0.2297
397.5,0.4672
398.0,0.6544
398.5,0.6765
399.0,0.7326
399.5,0.7303
400.0,0.7584
401.0,0.7696
402.0,0.8122
403.0,0.7717
404.0,0.76
405.0,0.7601
406.0,0.7479
407.0,0.736
408.0,0.7649
409.0,0.8188
410.0,0.7156
411.0,0.7753
412.0,0.8329
413.0,0.8124
414.0,0.8225
415.0,0.8248
416.0,0.8394
417.0,0.8189
418.0,0.8039
419.0,0.8146
420.0,0.8112
421.0,0.8488
422.0,0.8069
423.0,0.7883
424.0,0.8339
425.0,0.8325
426.0,0.811
427.0,0.796
428.0,0.7755
429.0,0.7346
430.0,0.643
431.0,0.6374
432.0,0.8231
433.0,0.8277
434.0,0.7687
435.0,0.8028
436.0,0.9047
437.0,0.8926
438.0,0.8129
439.0,0.8409
440.0,0.8677
441.0,0.8992
442.0,0.9645
443.0,0.9395
444.0,0.96
445.0,0.9393
446.0,0.8965
447.0,0.9692
448.0,0.9844
449.0,0.9884
450.0,1.016
451.0,1.054
452.0,1.015
453.0,0.955
454.0,0.9971
455.0,1.003
456.0,1.027
457.0,1.044
458.0,1.009
459.0,1.004
460.0,1.006
461.0,1.03
462.0,1.037
463.0,1.03
464.0,1.013
465.0,1.001
466.0,1.01
467.0,0.9919
468.0,1.004
469.0,1.009
470.0,0.9767
471.0,0.9755
472.0,1.028
473.0,1.015
474.0,1.016
475.0,1.025
476.0,0.9943
477.0,0.9971
478.0,1.025
479.0,1.019
480.0,1.02
481.0,1.039
482.0,1.045
483.0,1.032
484.0,1.011
485.0,0.9632
486.0,0.842
487.0,0.8825
488.0,0.9682
489.0,0.9712
490.0,1.022
491.0,1.004
492.0,0.9482
493.0,0.9793
494.0,0.9891
495.0,0.9975
496.0,1.004
497.0,1.019
498.0,0.9716
499.0,0.9841
500.0,0.9554
501.0,0.9379
502.0,0.9248
503.0,0.9626
504.0,0.9383
505.0,0.9718
506.0,1.003
507.0,0.9546
508.0,0.9248
509.0,0.9507
510.0,0.9456
511.0,0.9709
512.0,0.9814
513.0,0.9289
514.0,0.9225
515.0,0.9134
516.0,0.9111
517.0,0.8096
518.0,0.8512
519.0,0.8928
520.0,0.9253
521.0,0.934
522.0,0.9349
523.0,0.9181
524.0,0.951
525.0,0.9622
526.0,0.9192
527.0,0.8662
528.0,0.9162
529.0,0.9657
530.0,0.9519
531.0,0.966
532.0,0.9328
533.0,0.9055
534.0,0.9322
535.0,0.9526
536.0,0.9613
537.0,0.9234
538.0,0.9397
539.0,0.9318
540.0,0.8933
541.0,0.8993
542.0,0.9275
543.0,0.9177
544.0,0.9337
545.0,0.9308
546.0,0.9349
547.0,0.9344
548.0,0.9233
549.0,0.926
550.0,0.937
551.0,0.9257
552.0,0.9321
553.0,0.9154
554.0,0.9373
555.0,0.9392
556.0,0.927
557.0,0.8982
558.0,0.8915
559.0,0.8749
560.0,0.8858
561.0,0.8973
562.0,0.8908
563.0,0.9152
564.0,0.8903
565.0,0.8826
566.0,0.8697
567.0,0.8862
568.0,0.8783
569.0,0.8576
570.0,0.8573
571.0,0.8521
572.0,0.8727
573.0,0.882
574.0,0.8792
575.0,0.8628
576.0,0.8549
577.0,0.8642
578.0,0.8512
579.0,0.8546
580.0,0.8707
581.0,0.8752
582.0,0.8917
583.0,0.8938
584.0,0.9016
585.0,0.8795
586.0,0.8615
587.0,0.8804
588.0,0.8591
589.0,0.7614
590.0,0.7962
591.0,0.8424
592.0,0.8318
593.0,0.844
594.0,0.8382
595.0,0.8176
596.0,0.8497
597.0,0.8405
598.0,0.8383
599.0,0.839
600.0,0.8402
601.0,0.8333
602.0,0.8276
603.0,0.8413
604.0,0.8552
605.0,0.8508
606.0,0.8473
607.0,0.8556
608.0,0.8462
609.0,0.8476
610.0,0.8415
611.0,0.8459
612.0,0.8434
613.0,0.8328
614.0,0.8214
615.0,0.8393
616.0,0.8116
617.0,0.81
618.0,0.8412
619.0,0.8326
620.0,0.8379
621.0,0.8387
622.0,0.8289
623.0,0.8163
624.0,0.8023
625.0,0.8005
626.0,0.8124
627.0,0.8215
628.0,0.7676
629.0,0.8022
630.0,0.7837
631.0,0.8013
632.0,0.7916
633.0,0.8157
634.0,0.8077
635.0,0.8202
636.0,0.8094
637.0,0.8226
638.0,0.8305
639.0,0.8212
640.0,0.8132
641.0,0.8126
642.0,0.8089
643.0,0.8198
644.0,0.8172
645.0,0.8185
646.0,0.7994
647.0,0.7901
648.0,0.7908
649.0,0.7755
650.0,0.7791
651.0,0.8129
652.0,0.7792
653.0,0.8021
654.0,0.7931
655.0,0.7637
656.0,0.6768
657.0,0.695
658.0,0.7788
659.0,0.7844
660.0,0.7877
661.0,0.7932
662.0,0.7948
663.0,0.7791
664.0,0.7883
665.0,0.7889
666.0,0.7895
667.0,0.7887
668.0,0.7891
669.0,0.8013
670.0,0.7978
671.0,0.7976
672.0,0.7908
673.0,0.8027
674.0,0.7997
675.0,0.7924
676.0,0.7978
677.0,0.7899
678.0,0.7922
679.0,0.7794
680.0,0.7856
681.0,0.7804
682.0,0.7794
683.0,0.7779
684.0,0.7741
685.0,0.7807
686.0,0.776
687.0,0.5167
688.0,0.6049
689.0,0.6071
690.0,0.6365
691.0,0.6696
692.0,0.6938
693.0,0.6881
694.0,0.6824
695.0,0.7104
696.0,0.7114
697.0,0.7548
698.0,0.743
699.0,0.7254
700.0,0.7167
701.0,0.7094
702.0,0.7143
703.0,0.7156
704.0,0.7384
705.0,0.7395
706.0,0.7388
707.0,0.7394
708.0,0.741
709.0,0.742
710.0,0.742
711.0,0.741
712.0,0.7387
713.0,0.7313
714.0,0.734
715.0,0.7109
716.0,0.7113
717.0,0.6175
718.0,0.5672
719.0,0.5197
720.0,0.5444
721.0,0.6006
722.0,0.6868
723.0,0.6396
724.0,0.5764
725.0,0.5672
726.0,0.5938
727.0,0.6021
728.0,0.5658
729.0,0.5868
730.0,0.621
731.0,0.5942
732.0,0.6354
733.0,0.6724
734.0,0.6883
735.0,0.6741
736.0,0.6732
737.0,0.6759
738.0,0.6862
739.0,0.6726
740.0,0.6901
741.0,0.6833
742.0,0.6839
743.0,0.7013
744.0,0.6993
745.0,0.6994
746.0,0.7026
747.0,0.7041
748.0,0.7027
749.0,0.6946
750.0,0.6942
751.0,0.6872
752.0,0.6901
753.0,0.6936
754.0,0.6952
755.0,0.6913
756.0,0.691
757.0,0.6919
758.0,0.6833
759.0,0.6695
760.0,0.1117
761.0,0.05856
762.0,0.3426
763.0,0.1709
764.0,0.2572
765.0,0.3426
766.0,0.4208
767.0,0.5312
768.0,0.6132
769.0,0.6261
770.0,0.6475
771.0,0.6527
772.0,0.6541
773.0,0.6587
774.0,0.6555
775.0,0.6505
776.0,0.6584
777.0,0.6497
778.0,0.6458
779.0,0.6463
780.0,0.6427
781.0,0.6434
782.0,0.6474
783.0,0.6361
784.0,0.6392
785.0,0.6345
786.0,0.6414
787.0,0.6303
788.0,0.6224
789.0,0.6222
790.0,0.6056
791.0,0.6108
792.0,0.6064
793.0,0.5965
794.0,0.6068
795.0,0.617
796.0,0.598
797.0,0.5988
798.0,0.6163
799.0,0.6123
800.0,0.6017
801.0,0.5998
802.0,0.5981
803.0,0.5935
804.0,0.5943
805.0,0.5925
806.0,0.6091
807.0,0.6018
808.0,0.6023
809.0,0.591
810.0,0.5862
811.0,0.5869
812.0,0.5701
813.0,0.5582
814.0,0.4911
815.0,0.4881
816.0,0.4543
817.0,0.4626
818.0,0.4453
819.0,0.4979
820.0,0.4689
821.0,0.5481
822.0,0.5324
823.0,0.3619
824.0,0.5169
825.0,0.5386
826.0,0.5181
827.0,0.5468
828.0,0.4635
829.0,0.515
830.0,0.5082
831.0,0.51
832.0,0.4943
833.0,0.526
834.0,0.5073
835.0,0.5575
836.0,0.5335
837.0,0.5591
838.0,0.5416
839.0,0.5506
840.0,0.5627
841.0,0.5547
842.0,0.556
843.0,0.5557
844.0,0.548
845.0,0.5665
846.0,0.5641
847.0,0.5536
848.0,0.5501
849.0,0.5345
850.0,0.5121
851.0,0.5421
852.0,0.5383
853.0,0.5182
854.0,0.4474
855.0,0.4916
856.0,0.5372
857.0,0.5492
858.0,0.5451
859.0,0.5456
860.0,0.5466
861.0,0.5436
862.0,0.5522
863.0,0.5652
864.0,0.537
865.0,0.5323
866.0,0.4786
867.0,0.4995
868.0,0.5435
869.0,0.5322
870.0,0.5474
871.0,0.54
872.0,0.5381
873.0,0.537
874.0,0.5306
875.0,0.5198
876.0,0.5252
877.0,0.5306
878.0,0.5363
879.0,0.5281
880.0,0.5167
881.0,0.509
882.0,0.5199
883.0,0.5216
884.0,0.5192
885.0,0.5231
886.0,0.4985
887.0,0.5038
888.0,0.5112
889.0,0.5171
890.0,0.5126
891.0,0.5119
892.0,0.4969
893.0,0.4811
894.0,0.4637
895.0,0.4376
896.0,0.412
897.0,0.3532
898.0,0.3858
899.0,0.2925
900.0,0.3955
901.0,0.3066
902.0,0.3611
903.0,0.3643
904.0,0.4602
905.0,0.4442
906.0,0.4154
907.0,0.3363
908.0,0.3432
909.0,0.3723
910.0,0.3282
911.0,0.3505
912.0,0.3667
913.0,0.3331
914.0,0.3304
915.0,0.3582
916.0,0.3029
917.0,0.3856
918.0,0.3105
919.0,0.393
920.0,0.3976
921.0,0.4136
922.0,0.369
923.0,0.3996
924.0,0.378
925.0,0.3698
926.0,0.3738
927.0,0.4193
928.0,0.3051
929.0,0.2778
930.0,0.217
931.0,0.2058
932.0,0.1469
933.0,0.1186
934.0,0.06353
935.0,0.122
936.0,0.07521
937.0,0.07611
938.0,0.094
939.0,0.1994
940.0,0.2408
941.0,0.1804
942.0,0.2098
943.0,0.1369
944.0,0.1452
945.0,0.1863
946.0,0.09333
947.0,0.1868
948.0,0.137
949.0,0.2515
950.0,0.06757
951.0,0.2479
952.0,0.1312
953.0,0.1708
954.0,0.2109
955.0,0.1729
956.0,0.1687
957.0,0.1312
958.0,0.2411
959.0,0.1899
960.0,0.2128
961.0,0.2402
962.0,0.2271
963.0,0.263
964.0,0.2405
965.0,0.2621
966.0,0.2619
967.0,0.2606
968.0,0.3536
969.0,0.3689
970.0,0.3383
971.0,0.389
972.0,0.3718
973.0,0.3219
974.0,0.3052
975.0,0.3176
976.0,0.3005
977.0,0.344
978.0,0.326
979.0,0.342
980.0,0.3212
981.0,0.3868
982.0,0.3692
983.0,0.3541
984.0,0.3993
985.0,0.3678
986.0,0.4068
987.0,0.3983
988.0,0.3976
989.0,0.4059
990.0,0.3952
991.0,0.407
992.0,0.4094
993.0,0.3998
994.0,0.4094
995.0,0.4089
996.0,0.407
997.0,0.4077
998.0,0.4057
999.0,0.4043
1000.0,0.4013
1001.0,0.4064
1002.0,0.3947
1003.0,0.3992
1004.0,0.3893
1005.0,0.3753
1006.0,0.3898
1007.0,0.3981
1008.0,0.3959
1009.0,0.3936
1010.0,0.3919
1011.0,0.3961
1012.0,0.3926
1013.0,0.3952
1014.0,0.3924
1015.0,0.3898
1016.0,0.388
1017.0,0.389
1018.0,0.3876
1019.0,0.3791
1020.0,0.3855
1021.0,0.385
1022.0,0.382
1023.0,0.386
1024.0,0.3808
1025.0,0.3858
1026.0,0.3841
1027.0,0.3832
1028.0,0.3824
1029.0,0.3779
1030.0,0.3805
1031.0,0.379
1032.0,0.3779
1033.0,0.3722
1034.0,0.3722
1035.0,0.3734
1036.0,0.3753
1037.0,0.3692
1038.0,0.3708
1039.0,0.3706
1040.0,0.3691
1041.0,0.3706
1042.0,0.368
1043.0,0.3668
1044.0,0.3681
1045.0,0.3631
1046.0,0.359
1047.0,0.3623
1048.0,0.3642
1049.0,0.3629
1050.0,0.3612
1051.0,0.3607
1052.0,0.3592
1053.0,0.3563
1054.0,0.3571
1055.0,0.3572
1056.0,0.3559
1057.0,0.3548
1058.0,0.3461
1059.0,0.3464
1060.0,0.3459
1061.0,0.3454
1062.0,0.3472
1063.0,0.3437
1064.0,0.3478
1065.0,0.3452
1066.0,0.3385
1067.0,0.3428
1068.0,0.3353
1069.0,0.325
1070.0,0.3359
1071.0,0.3414
1072.0,0.3373
1073.0,0.3324
1074.0,0.3413
1075.0,0.3236
1076.0,0.3409
1077.0,0.3345
1078.0,0.3281
1079.0,0.3356
1080.0,0.3294
1081.0,0.3185
1082.0,0.3241
1083.0,0.3253
1084.0,0.3176
1085.0,0.3302
1086.0,0.3004
1087.0,0.3107
1088.0,0.3248
1089.0,0.3143
1090.0,0.3071
1091.0,0.3236
1092.0,0.3229
1093.0,0.2722
1094.0,0.2952
1095.0,0.2838
1096.0,0.2713
1097.0,0.3154
1098.0,0.2669
1099.0,0.2786
1100.0,0.2583
1101.0,0.2618
1102.0,0.2496
1103.0,0.2469
1104.0,0.2472
1105.0,0.2721
1106.0,0.2055
1107.0,0.2579
1108.0,0.2171
1109.0,0.2178
1110.0,0.2555
1111.0,0.1712
1112.0,0.2162
1113.0,0.1355
1114.0,0.1516
1115.0,0.1256
1116.0,0.09896
1117.0,0.03492
1118.0,0.1081
1119.0,0.05247
1120.0,0.06596
1121.0,0.08827
1122.0,0.03612
1123.0,0.05966
1124.0,0.05034
1125.0,0.06597
1126.0,0.02194
1127.0,0.07451
1128.0,0.04345
1129.0,0.04626
1130.0,0.03002
1131.0,0.144
1132.0,0.1125
1133.0,0.0698
1134.0,0.01701
1135.0,0.006422
1136.0,0.0577
1137.0,0.141
1138.0,0.09902
1139.0,0.1505
1140.0,0.1247
1141.0,0.09413
1142.0,0.1089
1143.0,0.1558
1144.0,0.05303
1145.0,0.06735
1146.0,0.07262
1147.0,0.02448
1148.0,0.1347
1149.0,0.1067
1150.0,0.05718
1151.0,0.09824
1152.0,0.1219
1153.0,0.1196
1154.0,0.06513
1155.0,0.157
1156.0,0.1408
1157.0,0.1589
1158.0,0.1572
1159.0,0.1702
1160.0,0.1447
1161.0,0.1797
1162.0,0.1805
1163.0,0.2459
1164.0,0.2101
1165.0,0.1975
1166.0,0.1967
1167.0,0.2146
1168.0,0.2168
1169.0,0.2222
1170.0,0.242
1171.0,0.2359
1172.0,0.2405
1173.0,0.2415
1174.0,0.1713
1175.0,0.2361
1176.0,0.2602
1177.0,0.2494
1178.0,0.1865
1179.0,0.2623
1180.0,0.2335
1181.0,0.241
1182.0,0.1654
1183.0,0.2375
1184.0,0.2222
1185.0,0.2142
1186.0,0.2548
1187.0,0.2424
1188.0,0.1681
1189.0,0.2258
1190.0,0.249
1191.0,0.236
1192.0,0.2525
1193.0,0.2418
1194.0,0.2494
1195.0,0.2356
1196.0,0.2267
1197.0,0.2496
1198.0,0.2282
1199.0,0.1936
1200.0,0.2388
1201.0,0.2301
1202.0,0.2289
1203.0,0.2269
1204.0,0.1982
1205.0,0.2344
1206.0,0.2592
1207.0,0.2283
1208.0,0.2248
1209.0,0.2295
1210.0,0.2392
1211.0,0.2276
1212.0,0.2247
1213.0,0.2505
1214.0,0.2301
1215.0,0.2257
1216.0,0.2497
1217.0,0.2431
1218.0,0.2477
1219.0,0.2446
1220.0,0.248
1221.0,0.2505
1222.0,0.2439
1223.0,0.2416
1224.0,0.2401
1225.0,0.2489
1226.0,0.2506
1227.0,0.231
1228.0,0.2519
1229.0,0.2506
1230.0,0.2463
1231.0,0.2534
1232.0,0.2519
1233.0,0.2431
1234.0,0.2532
1235.0,0.2516
1236.0,0.2535
1237.0,0.2499
1238.0,0.2526
1239.0,0.2494
1240.0,0.2503
1241.0,0.2491
1242.0,0.2486
1243.0,0.2466
1244.0,0.2483
1245.0,0.2494
1246.0,0.2479
1247.0,0.247
1248.0,0.2468
1249.0,0.2476
1250.0,0.2461
1251.0,0.2429
1252.0,0.2429
1253.0,0.2409
1254.0,0.2385
1255.0,0.2427
1256.0,0.2358
1257.0,0.2345
1258.0,0.2389
1259.0,0.2301
1260.0,0.2313
1261.0,0.2182
1262.0,0.2115
1263.0,0.2119
1264.0,0.1954
1265.0,0.2106
1266.0,0.2025
1267.0,0.2061
1268.0,0.1953
1269.0,0.1201
1270.0,0.2053
1271.0,0.2175
1272.0,0.2182
1273.0,0.2159
1274.0,0.2166
1275.0,0.2198
1276.0,0.2219
1277.0,0.2234
1278.0,0.2278
1279.0,0.2257
1280.0,0.2229
1281.0,0.2127
1282.0,0.205
1283.0,0.2208
1284.0,0.2261
1285.0,0.2276
1286.0,0.2307
1287.0,0.2271
1288.0,0.227
1289.0,0.2197
1290.0,0.225
1291.0,0.2282
1292.0,0.2142
1293.0,0.2237
1294.0,0.2221
1295.0,0.221
1296.0,0.2108
1297.0,0.1993
1298.0,0.2148
1299.0,0.224
1300.0,0.1892
1301.0,0.1951
1302.0,0.2141
1303.0,0.1868
1304.0,0.1589
1305.0,0.2096
1306.0,0.2096
1307.0,0.1625
1308.0,0.1871
1309.0,0.208
1310.0,0.1593
1311.0,0.1793
1312.0,0.1744
1313.0,0.1709
1314.0,0.1528
1315.0,0.1507
1316.0,0.1764
1317.0,0.167
1318.0,0.1817
1319.0,0.1414
1320.0,0.1372
1321.0,0.16
1322.0,0.1615
1323.0,0.1209
1324.0,0.1388
1325.0,0.1738
1326.0,0.1488
1327.0,0.1418
1328.0,0.1221
1329.0,0.09113
1330.0,0.1189
1331.0,0.07103
1332.0,0.07361
1333.0,0.1026
1334.0,0.08732
1335.0,0.1205
1336.0,0.09486
1337.0,0.08366
1338.0,0.09054
1339.0,0.09025
1340.0,0.088
1341.0,0.08542
1342.0,0.08977
1343.0,0.05973
1344.0,0.03583
1345.0,0.05173
1346.0,0.02501
1347.0,0.02531
1348.0,0.001549
1349.0,0.00566
1350.0,0.00595
1351.0,0.001373
1352.0,0.0003505
1353.0,1.689e-05
1354.0,6.05e-05
1355.0,4.331e-07
1356.0,8.222e-06
1357.0,1.254e-05
1358.0,5.155e-07
1359.0,5.945e-08
1360.0,2.286e-07
1361.0,2.115e-10
1362.0,5.352e-13
1363.0,3.011e-07
1364.0,1.242e-07
1365.0,1.695e-13
1366.0,1.349e-06
1367.0,5.619e-07
1368.0,1.073e-15
1369.0,4.624e-08
1370.0,2.198e-08
1371.0,1.193e-09
1372.0,3.094e-07
1373.0,6.648e-06
1374.0,3.225e-05
1375.0,5.85e-05
1376.0,5.457e-05
1377.0,2.477e-05
1378.0,0.0002472
1379.0,1.04e-05
1380.0,1.46e-05
1381.0,3.721e-07
1382.0,2.761e-07
1383.0,4.003e-09
1384.0,5.152e-08
1385.0,2.728e-07
1386.0,2.397e-07
1387.0,3.262e-05
1388.0,6.44e-07
1389.0,0.0001161
1390.0,9.986e-05
1391.0,6.604e-05
1392.0,4.237e-06
1393.0,2.303e-05
1394.0,1.111e-05
1395.0,7.786e-08
1396.0,3.129e-10
1397.0,9.018e-06
1398.0,0.0002765
1399.0,0.0001756
1400.0,1.286e-10
1401.0,5.736e-10
1402.0,0.0005205
1403.0,0.0006465
1404.0,0.000196
1405.0,3.67e-08
1406.0,0.0004998
1407.0,4.483e-05
1408.0,0.0004104
1409.0,0.0001327
1410.0,0.000109
1411.0,0.0005699
1412.0,0.0007833
1413.0,0.008559
1414.0,8.641e-05
1415.0,4.075e-05
1416.0,0.01468
1417.0,0.004221
1418.0,0.004767
1419.0,0.0007304
1420.0,0.002909
1421.0,0.003151
1422.0,0.01921
1423.0,0.003664
1424.0,0.006931
1425.0,0.01009
1426.0,0.01173
1427.0,0.02219
1428.0,0.001447
1429.0,0.01628
1430.0,0.02857
1431.0,0.0316
1432.0,0.001135
1433.0,0.0198
1434.0,0.009922
1435.0,0.009412
1436.0,0.01895
1437.0,0.01454
1438.0,0.005921
1439.0,0.02612
1440.0,0.01955
