interpolation:linear
wavelength,value
280.0,2.943e-21
280.5,9.223000000000001e-20
281.0,4.867e-19
281.5,3.255e-19
282.0,1.01e-18
282.5,2.693e-18
283.0,8.781e-18
283.5,1.442e-17
284.0,2.365e-16
284.5,6.837e-16
285.0,1.559e-15
285.5,7.574e-15
286.0,3.029e-14
286.5,1.336e-13
287.0,3.778e-13
287.5,1.428e-12
288.0,3.791e-12
288.5,1.262e-11
289.0,3.589e-11
289.5,1.138e-10
290.0,3.254e-10
290.5,6.773e-10
291.0,1.482e-09
291.5,4.335e-09
292.0,9.429e-09
292.5,1.421e-08
293.0,3.333e-08
293.5,9.168e-08
294.0,1.565e-07
294.5,2.025e-07
295.0,3.737e-07
295.5,9.814e-07
296.0,1.967e-06
296.5,2.869e-06
297.0,4.033e-06
297.5,1.151e-05
298.0,1.922e-05
298.5,2.029e-05
299.0,4.703e-05
299.5,8.566e-05
300.0,9.974e-05
300.5,0.0001539
301.0,0.0003118
301.5,0.0005625
302.0,0.0005191
302.5,0.001025
303.0,0.001866
303.5,0.002371
304.0,0.002242
304.5,0.003395
305.0,0.005248
305.5,0.006081
306.0,0.005912
306.5,0.007415
307.0,0.01116
307.5,0.01504
308.0,0.01592
308.5,0.01892
309.0,0.01866
309.5,0.02148
310.0,0.02165
310.5,0.03512
311.0,0.04419
311.5,0.04271
312.0,0.04292
312.5,0.05239
313.0,0.05692
313.5,0.05521
314.0,0.06928
314.5,0.06171
315.0,0.08117
315.5,0.06778
316.0,0.05941
316.5,0.08556
317.0,0.1062
317.5,0.1105
318.0,0.08638
318.5,0.1076
319.0,0.1279
319.5,0.104
320.0,0.1257
320.5,0.1578
321.0,0.1409
321.5,0.1352
322.0,0.1437
322.5,0.125
323.0,0.1248
323.5,0.1536
324.0,0.1793
324.5,0.182
325.0,0.1572
325.5,0.2024
326.0,0.2476
326.5,0.2481
327.0,0.2473
327.5,0.2388
328.0,0.2126
328.5,0.2236
329.0,0.2679
329.5,0.3042
330.0,0.3069
330.5,0.2456
331.0,0.2503
331.5,0.2545
332.0,0.2751
332.5,0.2722
333.0,0.2714
333.5,0.2457
334.0,0.2517
334.5,0.2906
335.0,0.2732
335.5,0.3191
336.0,0.2209
336.5,0.2587
337.0,0.2123
337.5,0.2641
338.0,0.2579
338.5,0.2978
339.0,0.2948
339.5,0.2837
340.0,0.3335
340.5,0.3006
341.0,0.2933
341.5,0.2694
342.0,0.322
342.5,0.3013
343.0,0.3315
343.5,0.3122
344.0,0.2308
344.5,0.2331
345.0,0.3086
345.5,0.3152
346.0,0.268
346.5,0.3035
347.0,0.3259
347.5,0.2636
348.0,0.3006
348.5,0.3005
349.0,0.2789
349.5,0.2762
350.0,0.3418
350.5,0.3606
351.0,0.3222
351.5,0.3132
352.0,0.3365
352.5,0.2627
353.0,0.331
353.5,0.354
354.0,0.3676
354.5,0.3729
355.0,0.3717
355.5,0.3359
356.0,0.3516
356.5,0.3003
357.0,0.2481
357.5,0.3038
358.0,0.2409
358.5,0.2059
359.0,0.288
359.5,0.3671
360.0,0.3892
360.5,0.3112
361.0,0.2838
361.5,0.3269
362.0,0.2828
362.5,0.3916
363.0,0.3519
363.5,0.3242
364.0,0.3967
364.5,0.3391
365.0,0.3455
365.5,0.4338
366.0,0.4597
366.5,0.4321
367.0,0.4209
367.5,0.437
368.0,0.3825
368.5,0.3861
369.0,0.4171
369.5,0.4447
370.0,0.4742
370.5,0.3682
371.0,0.3935
371.5,0.4924
372.0,0.3269
372.5,0.3921
373.0,0.399
373.5,0.2597
374.0,0.3774
374.5,0.3127
375.0,0.304
375.5,0.454
376.0,0.3765
376.5,0.3902
377.0,0.4133
377.5,0.4836
378.0,0.5244
378.5,0.4957
379.0,0.4092
379.5,0.3738
380.0,0.3888
380.5,0.471
381.0,0.4722
381.5,0.3745
382.0,0.3327
382.5,0.2837
383.0,0.2628
383.5,0.2532
384.0,0.2793
384.5,0.411
385.0,0.4077
385.5,0.3798
386.0,0.3254
386.5,0.4276
387.0,0.3554
387.5,0.3993
388.0,0.3687
388.5,0.3646
389.0,0.3937
389.5,0.477
390.0,0.4788
390.5,0.4408
391.0,0.519
391.5,0.5295
392.0,0.4461
392.5,0.3995
393.0,0.2224
393.5,0.1617
394.0,0.3291
394.5,0.4185
395.0,0.5108
395.5,0.519
396.0,0.4501
396.5,0.2632
397.0,0.1976
397.5,0.402
398.0,0.563
398.5,0.582
399.0,0.6305
399.5,0.6286
400.0,0.6528
401.0,0.6617
402.0,0.6985
403.0,0.6639
404.0,0.654
405.0,0.6541
406.0,0.6439
407.0,0.6338
408.0,0.6587
409.0,0.7053
410.0,0.6166
411.0,0.6682
412.0,0.718
413.0,0.7004
414.0,0.7093
415.0,0.7115
416.0,0.7243
417.0,0.7067
418.0,0.6939
419.0,0.7033
420.0,0.7004
421.0,0.733
422.0,0.6969
423.0,0.681
424.0,0.7205
425.0,0.7194
426.0,0.7011
427.0,0.6882
428.0,0.6706
429.0,0.6355
430.0,0.5563
431.0,0.5515
432.0,0.7123
433.0,0.7165
434.0,0.6654
435.0,0.695
436.0,0.7835
437.0,0.7732
438.0,0.7044
439.0,0.7284
440.0,0.7518
441.0,0.7793
442.0,0.836
443.0,0.8143
444.0,0.8322
445.0,0.8143
446.0,0.7774
447.0,0.8408
448.0,0.8538
449.0,0.8576
450.0,0.8818
451.0,0.9147
452.0,0.8814
453.0,0.8292
454.0,0.8659
455.0,0.8713
456.0,0.8922
457.0,0.9071
458.0,0.8761
459.0,0.8717
460.0,0.8741
461.0,0.8943
462.0,0.9014
463.0,0.8953
464.0,0.8808
465.0,0.8699
466.0,0.8786
467.0,0.8625
468.0,0.8727
469.0,0.8773
470.0,0.8494
471.0,0.8484
472.0,0.8939
473.0,0.8824
474.0,0.8835
475.0,0.8909
476.0,0.8641
477.0,0.8664
478.0,0.8905
479.0,0.8853
480.0,0.8872
481.0,0.9039
482.0,0.9089
483.0,0.8982
484.0,0.8799
485.0,0.8385
486.0,0.7331
487.0,0.7685
488.0,0.8431
489.0,0.8457
490.0,0.8899
491.0,0.8746
492.0,0.826
493.0,0.8531
494.0,0.8617
495.0,0.8691
496.0,0.8744
497.0,0.888
498.0,0.8465
499.0,0.8572
500.0,0.8322
501.0,0.8168
502.0,0.8051
503.0,0.8376
504.0,0.8155
505.0,0.8454
506.0,0.8727
507.0,0.8304
508.0,0.8048
509.0,0.8276
510.0,0.8234
511.0,0.8456
512.0,0.8549
513.0,0.8092
514.0,0.8037
515.0,0.7958
516.0,0.7938
517.0,0.7054
518.0,0.7416
519.0,0.7778
520.0,0.8061
521.0,0.8137
522.0,0.8144
523.0,0.7997
524.0,0.8282
525.0,0.8377
526.0,0.8002
527.0,0.7539
528.0,0.7972
529.0,0.8402
530.0,0.828
531.0,0.8402
532.0,0.8113
533.0,0.7876
534.0,0.8109
535.0,0.8287
536.0,0.8364
537.0,0.8035
538.0,0.8178
539.0,0.8109
540.0,0.7774
541.0,0.7823
542.0,0.8067
543.0,0.7984
544.0,0.812
545.0,0.8096
546.0,0.8129
547.0,0.8127
548.0,0.8031
549.0,0.8056
550.0,0.8152
551.0,0.8054
552.0,0.8109
553.0,0.7964
554.0,0.8154
555.0,0.817
556.0,0.8064
557.0,0.7812
558.0,0.7752
559.0,0.7606
560.0,0.77
561.0,0.7799
562.0,0.7741
563.0,0.795
564.0,0.7732
565.0,0.7664
566.0,0.7551
567.0,0.7692
568.0,0.7619
569.0,0.7429
570.0,0.7428
571.0,0.7386
572.0,0.7557
573.0,0.7637
574.0,0.7611
575.0,0.7467
576.0,0.7399
577.0,0.7481
578.0,0.7371
579.0,0.7404
580.0,0.7551
581.0,0.7595
582.0,0.7743
583.0,0.7766
584.0,0.7835
585.0,0.7645
586.0,0.7488
587.0,0.765
588.0,0.7453
589.0,0.6581
590.0,0.6884
591.0,0.7298
592.0,0.7198
593.0,0.7314
594.0,0.7259
595.0,0.7072
596.0,0.7369
597.0,0.7285
598.0,0.7271
599.0,0.728
600.0,0.7296
601.0,0.7239
602.0,0.7191
603.0,0.7311
604.0,0.7433
605.0,0.7396
606.0,0.7367
607.0,0.7442
608.0,0.7362
609.0,0.7376
610.0,0.7326
611.0,0.7365
612.0,0.7345
613.0,0.7253
614.0,0.7156
615.0,0.7313
616.0,0.7073
617.0,0.706
618.0,0.7333
619.0,0.7259
620.0,0.7305
621.0,0.731
622.0,0.7223
623.0,0.7112
624.0,0.6991
625.0,0.6976
626.0,0.7079
627.0,0.7154
628.0,0.6631
629.0,0.6967
630.0,0.6805
631.0,0.6976
632.0,0.6895
633.0,0.7112
634.0,0.7048
635.0,0.7161
636.0,0.7069
637.0,0.7187
638.0,0.726
639.0,0.7181
640.0,0.7113
641.0,0.7111
642.0,0.708
643.0,0.7176
644.0,0.7155
645.0,0.7165
646.0,0.6992
647.0,0.6895
648.0,0.6901
649.0,0.6766
650.0,0.6817
651.0,0.7115
652.0,0.6801
653.0,0.7022
654.0,0.6945
655.0,0.6677
656.0,0.5925
657.0,0.6085
658.0,0.6825
659.0,0.6876
660.0,0.6906
661.0,0.6955
662.0,0.6965
663.0,0.6829
664.0,0.6915
665.0,0.6924
666.0,0.6931
667.0,0.6927
668.0,0.6932
669.0,0.704
670.0,0.7011
671.0,0.701
672.0,0.6951
673.0,0.7056
674.0,0.7031
675.0,0.6968
676.0,0.7016
677.0,0.6947
678.0,0.6967
679.0,0.6856
680.0,0.6911
681.0,0.6866
682.0,0.6857
683.0,0.6844
684.0,0.681
685.0,0.6869
686.0,0.6827
687.0,0.4318
688.0,0.5161
689.0,0.5183
690.0,0.547
691.0,0.5797
692.0,0.6039
693.0,0.5987
694.0,0.5938
695.0,0.6211
696.0,0.622
697.0,0.6633
698.0,0.6529
699.0,0.6352
700.0,0.6274
701.0,0.6203
702.0,0.6254
703.0,0.6267
704.0,0.648
705.0,0.649
706.0,0.6489
707.0,0.6496
708.0,0.651
709.0,0.6527
710.0,0.6523
711.0,0.6517
712.0,0.6501
713.0,0.6432
714.0,0.6457
715.0,0.6245
716.0,0.6246
717.0,0.5339
718.0,0.4893
719.0,0.4475
720.0,0.4681
721.0,0.5215
722.0,0.6017
723.0,0.5575
724.0,0.4992
725.0,0.4901
726.0,0.5135
727.0,0.5228
728.0,0.4886
729.0,0.5097
730.0,0.5391
731.0,0.515
732.0,0.5538
733.0,0.5891
734.0,0.6039
735.0,0.5909
736.0,0.5902
737.0,0.5925
738.0,0.6035
739.0,0.5916
740.0,0.6077
741.0,0.602
742.0,0.6029
743.0,0.6184
744.0,0.6168
745.0,0.6171
746.0,0.62
747.0,0.6214
748.0,0.6201
749.0,0.613
750.0,0.6127
751.0,0.6065
752.0,0.6091
753.0,0.6122
754.0,0.6136
755.0,0.6101
756.0,0.6099
757.0,0.6108
758.0,0.6031
759.0,0.5897
760.0,0.07879
761.0,0.03816
762.0,0.2783
763.0,0.127
764.0,0.2013
765.0,0.2783
766.0,0.3524
767.0,0.4561
768.0,0.5357
769.0,0.5491
770.0,0.5702
771.0,0.5759
772.0,0.5774
773.0,0.5815
774.0,0.5788
775.0,0.5745
776.0,0.5815
777.0,0.5738
778.0,0.5703
779.0,0.5708
780.0,0.5676
781.0,0.5682
782.0,0.5718
783.0,0.5619
784.0,0.5646
785.0,0.5603
786.0,0.5664
787.0,0.5556
788.0,0.5482
789.0,0.5479
790.0,0.532
791.0,0.5379
792.0,0.5341
793.0,0.5253
794.0,0.5358
795.0,0.5444
796.0,0.5258
797.0,0.5264
798.0,0.5436
799.0,0.5397
800.0,0.5299
801.0,0.5278
802.0,0.5263
803.0,0.5221
804.0,0.523
805.0,0.5219
806.0,0.5375
807.0,0.5308
808.0,0.5314
809.0,0.5207
810.0,0.516
811.0,0.5156
812.0,0.4996
813.0,0.4885
814.0,0.4256
815.0,0.4232
816.0,0.3934
817.0,0.401
818.0,0.3851
819.0,0.4341
820.0,0.4074
821.0,0.4813
822.0,0.4667
823.0,0.3095
824.0,0.4513
825.0,0.4728
826.0,0.4533
827.0,0.48
828.0,0.4022
829.0,0.4509
830.0,0.4445
831.0,0.4462
832.0,0.4316
833.0,0.4616
834.0,0.4436
835.0,0.4908
836.0,0.4676
837.0,0.4923
838.0,0.4759
839.0,0.4851
840.0,0.4961
841.0,0.4885
842.0,0.4903
843.0,0.4908
844.0,0.4836
845.0,0.5005
846.0,0.4984
847.0,0.4894
848.0,0.486
849.0,0.4722
850.0,0.4524
851.0,0.4786
852.0,0.4754
853.0,0.4579
854.0,0.3951
855.0,0.4345
856.0,0.4747
857.0,0.4855
858.0,0.4818
859.0,0.4824
860.0,0.4834
861.0,0.4807
862.0,0.4883
863.0,0.4998
864.0,0.4749
865.0,0.4707
866.0,0.4233
867.0,0.4417
868.0,0.4807
869.0,0.4707
870.0,0.4842
871.0,0.4776
872.0,0.4759
873.0,0.475
874.0,0.4693
875.0,0.4598
876.0,0.4645
877.0,0.4693
878.0,0.4743
879.0,0.467
880.0,0.457
881.0,0.45
882.0,0.4596
883.0,0.4613
884.0,0.4591
885.0,0.4625
886.0,0.4401
887.0,0.4453
888.0,0.4516
889.0,0.4573
890.0,0.4528
891.0,0.4524
892.0,0.4384
893.0,0.4236
894.0,0.4066
895.0,0.3815
896.0,0.3584
897.0,0.3045
898.0,0.3341
899.0,0.2502
900.0,0.3443
901.0,0.2623
902.0,0.3132
903.0,0.3145
904.0,0.4035
905.0,0.3885
906.0,0.3627
907.0,0.2894
908.0,0.296
909.0,0.323
910.0,0.2813
911.0,0.3027
912.0,0.3172
913.0,0.2853
914.0,0.2837
915.0,0.3076
916.0,0.2594
917.0,0.3337
918.0,0.2657
919.0,0.3411
920.0,0.3473
921.0,0.3614
922.0,0.3199
923.0,0.3493
924.0,0.3273
925.0,0.3203
926.0,0.3235
927.0,0.3654
928.0,0.2589
929.0,0.2338
930.0,0.1797
931.0,0.1708
932.0,0.1188
933.0,0.09451
934.0,0.04753
935.0,0.09841
936.0,0.05868
937.0,0.05921
938.0,0.07388
939.0,0.1654
940.0,0.2019
941.0,0.1484
942.0,0.1743
943.0,0.1115
944.0,0.1204
945.0,0.1539
946.0,0.07411
947.0,0.1534
948.0,0.1122
949.0,0.2095
950.0,0.05205
951.0,0.2071
952.0,0.1058
953.0,0.1402
954.0,0.176
955.0,0.1423
956.0,0.1409
957.0,0.1055
958.0,0.205
959.0,0.1582
960.0,0.1773
961.0,0.2027
962.0,0.1914
963.0,0.2239
964.0,0.2041
965.0,0.2233
966.0,0.2226
967.0,0.2213
968.0,0.3084
969.0,0.3208
970.0,0.2933
971.0,0.3408
972.0,0.325
973.0,0.2778
974.0,0.263
975.0,0.275
976.0,0.2582
977.0,0.2995
978.0,0.2822
979.0,0.2972
980.0,0.2784
981.0,0.339
982.0,0.3223
983.0,0.3083
984.0,0.3515
985.0,0.321
986.0,0.3591
987.0,0.3504
988.0,0.3499
989.0,0.3588
990.0,0.3478
991.0,0.3597
992.0,0.362
993.0,0.3524
994.0,0.362
995.0,0.3618
996.0,0.3599
997.0,0.3606
998.0,0.3588
999.0,0.3576
1000.0,0.3547
1001.0,0.3595
1002.0,0.3481
1003.0,0.3531
1004.0,0.344
1005.0,0.332
1006.0,0.3447
1007.0,0.3521
1008.0,0.3499
1009.0,0.3478
1010.0,0.3461
1011.0,0.3504
1012.0,0.347
1013.0,0.3496
1014.0,0.3472
1015.0,0.3448
1016.0,0.3432
1017.0,0.344
1018.0,0.3429
1019.0,0.3351
1020.0,0.341
1021.0,0.3407
1022.0,0.3378
1023.0,0.3414
1024.0,0.3363
1025.0,0.3413
1026.0,0.3397
1027.0,0.339
1028.0,0.3382
1029.0,0.3341
1030.0,0.3366
1031.0,0.3352
1032.0,0.3343
1033.0,0.3293
1034.0,0.3293
1035.0,0.3303
1036.0,0.332
1037.0,0.3266
1038.0,0.328
1039.0,0.3278
1040.0,0.3265
1041.0,0.3277
1042.0,0.3254
1043.0,0.3244
1044.0,0.3255
1045.0,0.321
1046.0,0.3174
1047.0,0.3202
1048.0,0.3219
1049.0,0.3207
1050.0,0.3192
1051.0,0.3187
1052.0,0.3174
1053.0,0.3148
1054.0,0.3154
1055.0,0.3155
1056.0,0.3143
1057.0,0.3132
1058.0,0.3054
1059.0,0.3057
1060.0,0.3051
1061.0,0.3047
1062.0,0.3062
1063.0,0.3031
1064.0,0.3068
1065.0,0.3043
1066.0,0.2985
1067.0,0.3023
1068.0,0.2955
1069.0,0.2865
1070.0,0.2961
1071.0,0.3012
1072.0,0.2973
1073.0,0.2931
1074.0,0.3013
1075.0,0.2846
1076.0,0.301
1077.0,0.2947
1078.0,0.2887
1079.0,0.2964
1080.0,0.2902
1081.0,0.2801
1082.0,0.2859
1083.0,0.2872
1084.0,0.279
1085.0,0.291
1086.0,0.2633
1087.0,0.2733
1088.0,0.2866
1089.0,0.2763
1090.0,0.2693
1091.0,0.2852
1092.0,0.2848
1093.0,0.2373
1094.0,0.2601
1095.0,0.2477
1096.0,0.2359
1097.0,0.2783
1098.0,0.2317
1099.0,0.2424
1100.0,0.2235
1101.0,0.2269
1102.0,0.2155
1103.0,0.2126
1104.0,0.213
1105.0,0.2364
1106.0,0.1739
1107.0,0.2232
1108.0,0.185
1109.0,0.1862
1110.0,0.2206
1111.0,0.1441
1112.0,0.1851
1113.0,0.1122
1114.0,0.1259
1115.0,0.1041
1116.0,0.0798
1117.0,0.02598
1118.0,0.08788
1119.0,0.04079
1120.0,0.05108
1121.0,0.06945
1122.0,0.02685
1123.0,0.04629
1124.0,0.03903
1125.0,0.05161
1126.0,0.01566
1127.0,0.05844
1128.0,0.03239
1129.0,0.0347
1130.0,0.022
1131.0,0.1173
1132.0,0.09076
1133.0,0.05403
1134.0,0.01201
1135.0,0.004613
1136.0,0.04386
1137.0,0.1139
1138.0,0.07963
1139.0,0.1257
1140.0,0.1024
1141.0,0.07573
1142.0,0.08849
1143.0,0.1286
1144.0,0.04164
1145.0,0.05217
1146.0,0.05623
1147.0,0.01742
1148.0,0.1111
1149.0,0.08665
1150.0,0.04522
1151.0,0.07898
1152.0,0.09966
1153.0,0.09901
1154.0,0.05035
1155.0,0.1311
1156.0,0.1166
1157.0,0.1332
1158.0,0.1318
1159.0,0.1438
1160.0,0.1212
1161.0,0.1531
1162.0,0.1535
1163.0,0.2136
1164.0,0.181
1165.0,0.1685
1166.0,0.169
1167.0,0.1852
1168.0,0.1867
1169.0,0.1919
1170.0,0.2104
1171.0,0.2049
1172.0,0.2098
1173.0,0.2099
1174.0,0.1455
1175.0,0.206
1176.0,0.2287
1177.0,0.218
1178.0,0.1605
1179.0,0.2306
1180.0,0.2034
1181.0,0.21
1182.0,0.1414
1183.0,0.2074
1184.0,0.1931
1185.0,0.1853
1186.0,0.2232
1187.0,0.2115
1188.0,0.1433
1189.0,0.1968
1190.0,0.2183
1191.0,0.2053
1192.0,0.2215
1193.0,0.2116
1194.0,0.2185
1195.0,0.2053
1196.0,0.197
1197.0,0.2193
1198.0,0.1998
1199.0,0.1671
1200.0,0.2088
1201.0,0.2004
1202.0,0.2
1203.0,0.198
1204.0,0.1718
1205.0,0.2055
1206.0,0.2284
1207.0,0.1991
1208.0,0.1968
1209.0,0.2011
1210.0,0.2101
1211.0,0.1991
1212.0,0.1953
1213.0,0.2203
1214.0,0.2006
1215.0,0.1965
1216.0,0.2197
1217.0,0.2133
1218.0,0.2178
1219.0,0.2149
1220.0,0.2181
1221.0,0.2206
1222.0,0.2146
1223.0,0.2124
1224.0,0.2106
1225.0,0.2191
1226.0,0.221
1227.0,0.2024
1228.0,0.2224
1229.0,0.221
1230.0,0.217
1231.0,0.224
1232.0,0.2227
1233.0,0.2138
1234.0,0.2241
1235.0,0.2225
1236.0,0.2242
1237.0,0.2206
1238.0,0.2235
1239.0,0.2206
1240.0,0.2215
1241.0,0.2202
1242.0,0.22
1243.0,0.2182
1244.0,0.2197
1245.0,0.2206
1246.0,0.2194
1247.0,0.2184
1248.0,0.2181
1249.0,0.219
1250.0,0.2175
1251.0,0.2146
1252.0,0.2148
1253.0,0.2127
1254.0,0.2103
1255.0,0.2145
1256.0,0.2077
1257.0,0.2064
1258.0,0.2109
1259.0,0.2021
1260.0,0.2033
1261.0,0.1904
1262.0,0.184
1263.0,0.1843
1264.0,0.1683
1265.0,0.1831
1266.0,0.1751
1267.0,0.179
1268.0,0.1686
1269.0,0.09726
1270.0,0.178
1271.0,0.19
1272.0,0.1908
1273.0,0.1886
1274.0,0.1894
1275.0,0.1924
1276.0,0.1946
1277.0,0.1962
1278.0,0.2006
1279.0,0.1987
1280.0,0.1962
1281.0,0.1875
1282.0,0.1811
1283.0,0.195
1284.0,0.1996
1285.0,0.201
1286.0,0.2039
1287.0,0.2003
1288.0,0.2004
1289.0,0.1932
1290.0,0.1987
1291.0,0.2016
1292.0,0.1878
1293.0,0.1973
1294.0,0.1958
1295.0,0.1944
1296.0,0.1845
1297.0,0.1737
1298.0,0.1887
1299.0,0.1977
1300.0,0.1645
1301.0,0.1701
1302.0,0.1881
1303.0,0.1627
1304.0,0.1361
1305.0,0.1841
1306.0,0.1839
1307.0,0.14
1308.0,0.1634
1309.0,0.1821
1310.0,0.1371
1311.0,0.156
1312.0,0.1514
1313.0,0.1479
1314.0,0.1315
1315.0,0.1291
1316.0,0.153
1317.0,0.1447
1318.0,0.1583
1319.0,0.1205
1320.0,0.1175
1321.0,0.1379
1322.0,0.1387
1323.0,0.1017
1324.0,0.1183
1325.0,0.1506
1326.0,0.1276
1327.0,0.1212
1328.0,0.1036
1329.0,0.07538
1330.0,0.09936
1331.0,0.05714
1332.0,0.05994
1333.0,0.08405
1334.0,0.07273
1335.0,0.1012
1336.0,0.0785
1337.0,0.06872
1338.0,0.07432
1339.0,0.0744
1340.0,0.07317
1341.0,0.06958
1342.0,0.07327
1343.0,0.04608
1344.0,0.02786
1345.0,0.04024
1346.0,0.01789
1347.0,0.01783
1348.0,0.0009021
1349.0,0.00347
1350.0,0.003783
1351.0,0.0007332
1352.0,0.0001525
1353.0,6.055e-06
1354.0,2.486e-05
1355.0,1.164e-07
1356.0,2.916e-06
1357.0,4.46e-06
1358.0,1.41e-07
1359.0,1.169e-08
1360.0,5.56e-08
1361.0,2.622e-11
1362.0,5.108e-14
1363.0,6.478e-08
1364.0,2.684e-08
1365.0,1.119e-14
1366.0,3.161e-07
1367.0,1.425e-07
1368.0,3.673e-17
1369.0,9.876e-09
1370.0,4.082e-09
1371.0,1.895e-10
1372.0,7.894e-08
1373.0,2.097e-06
1374.0,1.181e-05
1375.0,2.1e-05
1376.0,2.263e-05
1377.0,9.964e-06
1378.0,0.0001046
1379.0,4.181e-06
1380.0,5.31e-06
1381.0,1.256e-07
1382.0,6.761e-08
1383.0,8.834e-10
1384.0,1.036e-08
1385.0,7.868e-08
1386.0,5.303e-08
1387.0,1.074e-05
1388.0,2.185e-07
1389.0,4.565e-05
1390.0,3.89e-05
1391.0,2.512e-05
1392.0,1.557e-06
1393.0,9.136e-06
1394.0,3.41e-06
1395.0,2.057e-08
1396.0,4.253e-11
1397.0,3.376e-06
1398.0,0.0001146
1399.0,7.34e-05
1400.0,1.454e-11
1401.0,8.317e-11
1402.0,0.0002712
1403.0,0.0003225
1404.0,9.583e-05
1405.0,8.606e-09
1406.0,0.0002268
1407.0,2.187e-05
1408.0,0.0001889
1409.0,5.413e-05
1410.0,4.88e-05
1411.0,0.0002868
1412.0,0.0004177
1413.0,0.005339
1414.0,3.936e-05
1415.0,1.759e-05
1416.0,0.01018
1417.0,0.002651
1418.0,0.00291
1419.0,0.0004356
1420.0,0.001768
1421.0,0.001943
1422.0,0.01336
1423.0,0.002486
1424.0,0.00479
1425.0,0.006809
1426.0,0.008282
1427.0,0.01646
1428.0,0.0008275
1429.0,0.01166
1430.0,0.02156
1431.0,0.02412
1432.0,0.000644
1433.0,0.01477
1434.0,0.007229
1435.0,0.006289
1436.0,0.01356
1437.0,0.01044
