interpolation:linear
wavelength,value
280.0,2.139e-22
280.5,7.06e-21
281.0,3.79e-20
281.5,3.881e-19
282.0,6.172e-19
282.5,1.529e-18
283.0,4.837e-18
283.5,7.88e-18
284.0,1.301e-16
284.5,3.801e-16
285.0,6.226e-16
285.5,3.109e-15
286.0,1.255e-14
286.5,5.659e-14
287.0,1.626e-13
287.5,6.28e-13
288.0,2.208e-12
288.5,6.598e-12
289.0,1.744e-11
289.5,5.241e-11
290.0,1.452e-10
290.5,2.957e-10
291.0,6.343e-10
291.5,1.821e-09
292.0,3.651e-09
292.5,5.126e-09
293.0,1.1e-08
293.5,2.682e-08
294.0,4.197e-08
294.5,5.741e-08
295.0,9.735e-08
295.5,1.611e-07
296.0,3.122e-07
296.5,4.388e-07
297.0,5.961e-07
297.5,1.611e-06
298.0,2.558e-06
298.5,2.588e-06
299.0,5.741e-06
299.5,9.652e-06
300.0,1.069e-05
300.5,1.56e-05
301.0,2.859e-05
301.5,4.606e-05
302.0,3.958e-05
302.5,7.959e-05
303.0,0.000149
303.5,0.0001943
304.0,0.0001893
304.5,0.0003115
305.0,0.0005443
305.5,0.0006836
306.0,0.0006859
306.5,0.0009077
307.0,0.001544
307.5,0.00235
308.0,0.002537
308.5,0.003207
309.0,0.003288
309.5,0.004227
310.0,0.004479
310.5,0.007447
311.0,0.00976
311.5,0.009599
312.0,0.01053
312.5,0.01362
313.0,0.01525
313.5,0.01438
314.0,0.01934
314.5,0.01888
315.0,0.02524
315.5,0.02016
316.0,0.01903
316.5,0.02921
317.0,0.03622
317.5,0.03699
318.0,0.0302
318.5,0.04089
319.0,0.0507
319.5,0.03852
320.0,0.04606
320.5,0.06297
321.0,0.0607
321.5,0.05867
322.0,0.05744
322.5,0.0502
323.0,0.05284
323.5,0.06853
324.0,0.08073
324.5,0.08012
325.0,0.06716
325.5,0.09033
326.0,0.1122
326.5,0.1157
327.0,0.1141
327.5,0.1087
328.0,0.09312
328.5,0.1026
329.0,0.1276
329.5,0.1465
330.0,0.1465
330.5,0.1139
331.0,0.115
331.5,0.1194
332.0,0.1332
332.5,0.1336
333.0,0.1322
333.5,0.1169
334.0,0.1194
334.5,0.1415
335.0,0.135
335.5,0.1584
336.0,0.1096
336.5,0.127
337.0,0.1031
337.5,0.1277
338.0,0.1275
338.5,0.1481
339.0,0.1469
339.5,0.1412
340.0,0.1651
340.5,0.1492
341.0,0.1462
341.5,0.1346
342.0,0.1611
342.5,0.1509
343.0,0.1657
343.5,0.156
344.0,0.1148
344.5,0.1163
345.0,0.1545
345.5,0.158
346.0,0.1345
346.5,0.1525
347.0,0.1636
347.5,0.1323
348.0,0.1511
348.5,0.1513
349.0,0.1405
349.5,0.1392
350.0,0.1723
350.5,0.1818
351.0,0.1624
351.5,0.1576
352.0,0.1696
352.5,0.1326
353.0,0.1672
353.5,0.179
354.0,0.186
354.5,0.1887
355.0,0.1881
355.5,0.1701
356.0,0.1781
356.5,0.1522
357.0,0.1258
357.5,0.1541
358.0,0.1222
358.5,0.1045
359.0,0.1462
359.5,0.1862
360.0,0.1975
360.5,0.158
361.0,0.1442
361.5,0.1663
362.0,0.144
362.5,0.1995
363.0,0.1794
363.5,0.1654
364.0,0.2024
364.5,0.1732
365.0,0.1765
365.5,0.2216
366.0,0.2351
366.5,0.2211
367.0,0.2155
367.5,0.2237
368.0,0.1959
368.5,0.1979
369.0,0.2138
369.5,0.2281
370.0,0.2434
370.5,0.189
371.0,0.2022
371.5,0.2531
372.0,0.1681
372.5,0.2017
373.0,0.2053
373.5,0.1337
374.0,0.1944
374.5,0.1612
375.0,0.1568
375.5,0.2342
376.0,0.1942
376.5,0.2014
377.0,0.2134
377.5,0.2499
378.0,0.271
378.5,0.2563
379.0,0.2116
379.5,0.1933
380.0,0.2011
380.5,0.2438
381.0,0.2446
381.5,0.1941
382.0,0.1726
382.5,0.1473
383.0,0.1365
383.5,0.1316
384.0,0.1452
384.5,0.2138
385.0,0.2122
385.5,0.1978
386.0,0.1695
386.5,0.2229
387.0,0.1854
387.5,0.2083
388.0,0.1925
388.5,0.1904
389.0,0.2057
389.5,0.2493
390.0,0.2504
390.5,0.2307
391.0,0.2717
391.5,0.2773
392.0,0.2337
392.5,0.2094
393.0,0.1167
393.5,0.08487
394.0,0.1728
394.5,0.2199
395.0,0.2685
395.5,0.2729
396.0,0.2368
396.5,0.1386
397.0,0.1041
397.5,0.2118
398.0,0.2967
398.5,0.3069
399.0,0.3327
399.5,0.3319
400.0,0.3447
401.0,0.3474
402.0,0.3671
403.0,0.3494
404.0,0.3444
405.0,0.3448
406.0,0.3398
407.0,0.3349
408.0,0.3482
409.0,0.3731
410.0,0.3265
411.0,0.3542
412.0,0.3811
413.0,0.372
414.0,0.3771
415.0,0.3787
416.0,0.3859
417.0,0.3768
418.0,0.3703
419.0,0.3756
420.0,0.3744
421.0,0.3921
422.0,0.3731
423.0,0.3649
424.0,0.3862
425.0,0.386
426.0,0.3767
427.0,0.37
428.0,0.3608
429.0,0.3424
430.0,0.3
431.0,0.2975
432.0,0.3847
433.0,0.3872
434.0,0.3598
435.0,0.3759
436.0,0.4243
437.0,0.4193
438.0,0.3823
439.0,0.395
440.0,0.4081
441.0,0.4235
442.0,0.4545
443.0,0.4426
444.0,0.4528
445.0,0.4431
446.0,0.4238
447.0,0.459
448.0,0.4659
449.0,0.4687
450.0,0.4824
451.0,0.5006
452.0,0.4828
453.0,0.4545
454.0,0.4752
455.0,0.4783
456.0,0.49
457.0,0.4983
458.0,0.481
459.0,0.4788
460.0,0.4799
461.0,0.4912
462.0,0.4957
463.0,0.4923
464.0,0.4852
465.0,0.48
466.0,0.4853
467.0,0.4763
468.0,0.482
469.0,0.4846
470.0,0.4691
471.0,0.4688
472.0,0.494
473.0,0.4876
474.0,0.4878
475.0,0.4914
476.0,0.4759
477.0,0.4767
478.0,0.4902
479.0,0.4877
480.0,0.4891
481.0,0.499
482.0,0.5024
483.0,0.4973
484.0,0.4877
485.0,0.4653
486.0,0.4074
487.0,0.4275
488.0,0.469
489.0,0.4703
490.0,0.4952
491.0,0.4871
492.0,0.4601
493.0,0.4753
494.0,0.4802
495.0,0.4845
496.0,0.4875
497.0,0.495
498.0,0.4717
499.0,0.4774
500.0,0.463
501.0,0.454
502.0,0.4466
503.0,0.4636
504.0,0.4487
505.0,0.4673
506.0,0.4823
507.0,0.4592
508.0,0.4459
509.0,0.4592
510.0,0.4574
511.0,0.4703
512.0,0.4758
513.0,0.4505
514.0,0.4477
515.0,0.4432
516.0,0.442
517.0,0.3929
518.0,0.413
519.0,0.4332
520.0,0.4488
521.0,0.453
522.0,0.4531
523.0,0.4447
524.0,0.4601
525.0,0.4646
526.0,0.4436
527.0,0.4173
528.0,0.4408
529.0,0.4642
530.0,0.4572
531.0,0.4637
532.0,0.4476
533.0,0.4345
534.0,0.4476
535.0,0.4578
536.0,0.4624
537.0,0.4445
538.0,0.4525
539.0,0.4487
540.0,0.43
541.0,0.4319
542.0,0.4449
543.0,0.441
544.0,0.4478
545.0,0.4466
546.0,0.4478
547.0,0.4483
548.0,0.4433
549.0,0.4449
550.0,0.4502
551.0,0.4449
552.0,0.448
553.0,0.4398
554.0,0.4503
555.0,0.4509
556.0,0.4449
557.0,0.4308
558.0,0.4271
559.0,0.4185
560.0,0.4234
561.0,0.4284
562.0,0.4247
563.0,0.4356
564.0,0.4232
565.0,0.419
566.0,0.4124
567.0,0.4196
568.0,0.4142
569.0,0.4012
570.0,0.4015
571.0,0.3998
572.0,0.4073
573.0,0.4112
574.0,0.4095
575.0,0.4011
576.0,0.3975
577.0,0.4021
578.0,0.397
579.0,0.4001
580.0,0.41
581.0,0.4139
582.0,0.4233
583.0,0.4257
584.0,0.4303
585.0,0.4203
586.0,0.4117
587.0,0.4197
588.0,0.4056
589.0,0.3517
590.0,0.3684
591.0,0.3944
592.0,0.3867
593.0,0.396
594.0,0.3918
595.0,0.3792
596.0,0.4005
597.0,0.3945
598.0,0.3954
599.0,0.3966
600.0,0.3988
601.0,0.3967
602.0,0.3942
603.0,0.4014
604.0,0.4084
605.0,0.4067
606.0,0.4057
607.0,0.4105
608.0,0.4066
609.0,0.4079
610.0,0.4058
611.0,0.4083
612.0,0.4075
613.0,0.4028
614.0,0.3979
615.0,0.4072
616.0,0.3942
617.0,0.3938
618.0,0.4093
619.0,0.4054
620.0,0.408
621.0,0.4078
622.0,0.4026
623.0,0.396
624.0,0.3897
625.0,0.3888
626.0,0.3944
627.0,0.3973
628.0,0.3531
629.0,0.3816
630.0,0.3722
631.0,0.3867
632.0,0.3833
633.0,0.3975
634.0,0.3956
635.0,0.4029
636.0,0.3987
637.0,0.4061
638.0,0.4114
639.0,0.4076
640.0,0.4045
641.0,0.4049
642.0,0.4038
643.0,0.4094
644.0,0.4089
645.0,0.4091
646.0,0.3974
647.0,0.3876
648.0,0.3882
649.0,0.38
650.0,0.3883
651.0,0.4063
652.0,0.383
653.0,0.4013
654.0,0.3973
655.0,0.3793
656.0,0.3385
657.0,0.348
658.0,0.392
659.0,0.3957
660.0,0.3978
661.0,0.4008
662.0,0.4005
663.0,0.393
664.0,0.3995
665.0,0.4012
666.0,0.4021
667.0,0.4024
668.0,0.4034
669.0,0.4101
670.0,0.4086
671.0,0.4089
672.0,0.4057
673.0,0.4121
674.0,0.4109
675.0,0.4075
676.0,0.4105
677.0,0.4067
678.0,0.4082
679.0,0.4018
680.0,0.4052
681.0,0.4026
682.0,0.4021
683.0,0.4014
684.0,0.3994
685.0,0.4032
686.0,0.4004
687.0,0.1927
688.0,0.2569
689.0,0.259
690.0,0.2832
691.0,0.3119
692.0,0.3348
693.0,0.3314
694.0,0.3303
695.0,0.3535
696.0,0.3546
697.0,0.3872
698.0,0.381
699.0,0.3643
700.0,0.3595
701.0,0.3529
702.0,0.3583
703.0,0.3597
704.0,0.3758
705.0,0.3763
706.0,0.3776
707.0,0.3787
708.0,0.3793
709.0,0.3829
710.0,0.3813
711.0,0.3819
712.0,0.3822
713.0,0.3769
714.0,0.3788
715.0,0.3637
716.0,0.3632
717.0,0.2879
718.0,0.2622
719.0,0.2381
720.0,0.2466
721.0,0.2875
722.0,0.3456
723.0,0.3135
724.0,0.2723
725.0,0.2648
726.0,0.2779
727.0,0.2887
728.0,0.2629
729.0,0.282
730.0,0.2963
731.0,0.2818
732.0,0.3114
733.0,0.3387
734.0,0.3497
735.0,0.3409
736.0,0.34
737.0,0.3414
738.0,0.354
739.0,0.3472
740.0,0.3584
741.0,0.3562
742.0,0.3579
743.0,0.3674
744.0,0.3672
745.0,0.3681
746.0,0.3697
747.0,0.3707
748.0,0.37
749.0,0.3659
750.0,0.3657
751.0,0.3621
752.0,0.3637
753.0,0.3657
754.0,0.3665
755.0,0.3644
756.0,0.3643
757.0,0.3648
758.0,0.3601
759.0,0.348
760.0,0.015
761.0,0.005186
762.0,0.1067
763.0,0.03102
764.0,0.06356
765.0,0.1064
766.0,0.1586
767.0,0.2345
768.0,0.3026
769.0,0.3167
770.0,0.3364
771.0,0.3431
772.0,0.3452
773.0,0.3479
774.0,0.3465
775.0,0.3441
776.0,0.3484
777.0,0.3438
778.0,0.3417
779.0,0.342
780.0,0.3402
781.0,0.3406
782.0,0.3428
783.0,0.3369
784.0,0.3387
785.0,0.3359
786.0,0.3393
787.0,0.3297
788.0,0.324
789.0,0.3237
790.0,0.3103
791.0,0.3178
792.0,0.3162
793.0,0.3106
794.0,0.3208
795.0,0.3249
796.0,0.3081
797.0,0.3079
798.0,0.3237
799.0,0.3204
800.0,0.3132
801.0,0.3106
802.0,0.3096
803.0,0.3063
804.0,0.3076
805.0,0.3086
806.0,0.3207
807.0,0.3161
808.0,0.3167
809.0,0.3081
810.0,0.304
811.0,0.3009
812.0,0.2875
813.0,0.2797
814.0,0.2336
815.0,0.2331
816.0,0.2154
817.0,0.22
818.0,0.2089
819.0,0.2442
820.0,0.2263
821.0,0.2804
822.0,0.2699
823.0,0.1599
824.0,0.2558
825.0,0.2757
826.0,0.2599
827.0,0.2796
828.0,0.2218
829.0,0.2594
830.0,0.2549
831.0,0.2558
832.0,0.2452
833.0,0.2678
834.0,0.2537
835.0,0.29
836.0,0.2698
837.0,0.291
838.0,0.2779
839.0,0.2871
840.0,0.2944
841.0,0.2886
842.0,0.2918
843.0,0.2944
844.0,0.2888
845.0,0.3005
846.0,0.2997
847.0,0.2949
848.0,0.2919
849.0,0.2836
850.0,0.2718
851.0,0.2865
852.0,0.2851
853.0,0.2754
854.0,0.237
855.0,0.2616
856.0,0.2853
857.0,0.2925
858.0,0.29
859.0,0.2908
860.0,0.2917
861.0,0.29
862.0,0.2947
863.0,0.3017
864.0,0.2867
865.0,0.2843
866.0,0.2556
867.0,0.2668
868.0,0.2904
869.0,0.2844
870.0,0.2925
871.0,0.2885
872.0,0.2876
873.0,0.287
874.0,0.2836
875.0,0.2778
876.0,0.2807
877.0,0.2836
878.0,0.2864
879.0,0.2821
880.0,0.2761
881.0,0.2713
882.0,0.2769
883.0,0.2785
884.0,0.2769
885.0,0.279
886.0,0.2637
887.0,0.2682
888.0,0.2713
889.0,0.2761
890.0,0.2715
891.0,0.2722
892.0,0.2614
893.0,0.2504
894.0,0.2353
895.0,0.2147
896.0,0.2003
897.0,0.1634
898.0,0.1824
899.0,0.1293
900.0,0.1925
901.0,0.1354
902.0,0.1716
903.0,0.1687
904.0,0.2334
905.0,0.2227
906.0,0.2059
907.0,0.1531
908.0,0.1591
909.0,0.1776
910.0,0.1467
911.0,0.1644
912.0,0.1723
913.0,0.1483
914.0,0.1493
915.0,0.1608
916.0,0.1348
917.0,0.1812
918.0,0.1373
919.0,0.1882
920.0,0.1981
921.0,0.2054
922.0,0.176
923.0,0.1994
924.0,0.1781
925.0,0.1748
926.0,0.1753
927.0,0.2038
928.0,0.1279
929.0,0.1112
930.0,0.07868
931.0,0.07459
932.0,0.04548
933.0,0.03363
934.0,0.01219
935.0,0.03698
936.0,0.01874
937.0,0.01885
938.0,0.02466
939.0,0.07203
940.0,0.09307
941.0,0.0623
942.0,0.07611
943.0,0.0442
944.0,0.05254
945.0,0.066
946.0,0.02601
947.0,0.06418
948.0,0.04645
949.0,0.09381
950.0,0.0161
951.0,0.09328
952.0,0.04066
953.0,0.05875
954.0,0.0793
955.0,0.06022
956.0,0.06622
957.0,0.04025
958.0,0.1018
959.0,0.07142
960.0,0.08009
961.0,0.09744
962.0,0.09186
963.0,0.1126
964.0,0.1013
965.0,0.1119
966.0,0.1112
967.0,0.1097
968.0,0.1744
969.0,0.1778
970.0,0.161
971.0,0.1964
972.0,0.1852
973.0,0.149
974.0,0.1405
975.0,0.1497
976.0,0.1352
977.0,0.1684
978.0,0.1539
979.0,0.1646
980.0,0.1531
981.0,0.1956
982.0,0.1825
983.0,0.1728
984.0,0.2073
985.0,0.1815
986.0,0.2146
987.0,0.2064
988.0,0.2063
989.0,0.2164
990.0,0.2049
991.0,0.2166
992.0,0.2183
993.0,0.2093
994.0,0.2187
995.0,0.219
996.0,0.2174
997.0,0.218
998.0,0.2167
999.0,0.2161
1000.0,0.2136
1001.0,0.2174
1002.0,0.2072
1003.0,0.2133
1004.0,0.207
1005.0,0.2009
1006.0,0.2081
1007.0,0.2128
1008.0,0.2109
1009.0,0.209
1010.0,0.2077
1011.0,0.2119
1012.0,0.2092
1013.0,0.2116
1014.0,0.2101
1015.0,0.2086
1016.0,0.2076
1017.0,0.2079
1018.0,0.2076
1019.0,0.2016
1020.0,0.2063
1021.0,0.2063
1022.0,0.2041
1023.0,0.2062
1024.0,0.2019
1025.0,0.2066
1026.0,0.2053
1027.0,0.2049
1028.0,0.2043
1029.0,0.2018
1030.0,0.2037
1031.0,0.2027
1032.0,0.2023
1033.0,0.1992
1034.0,0.1993
1035.0,0.1999
1036.0,0.2007
1037.0,0.1975
1038.0,0.1983
1039.0,0.1981
1040.0,0.1973
1041.0,0.1979
1042.0,0.1965
1043.0,0.1958
1044.0,0.1964
1045.0,0.1936
1046.0,0.1914
1047.0,0.193
1048.0,0.1939
1049.0,0.1931
1050.0,0.1921
1051.0,0.1916
1052.0,0.1907
1053.0,0.189
1054.0,0.1892
1055.0,0.189
1056.0,0.1881
1057.0,0.1873
1058.0,0.1825
1059.0,0.1824
1060.0,0.182
1061.0,0.1816
1062.0,0.1823
1063.0,0.1803
1064.0,0.1825
1065.0,0.1806
1066.0,0.1775
1067.0,0.1796
1068.0,0.1753
1069.0,0.1702
1070.0,0.1756
1071.0,0.1797
1072.0,0.1766
1073.0,0.1743
1074.0,0.1804
1075.0,0.1673
1076.0,0.18
1077.0,0.1746
1078.0,0.1701
1079.0,0.1779
1080.0,0.1719
1081.0,0.1643
1082.0,0.1704
1083.0,0.1719
1084.0,0.1632
1085.0,0.1726
1086.0,0.1522
1087.0,0.1606
1088.0,0.1711
1089.0,0.1618
1090.0,0.1564
1091.0,0.1695
1092.0,0.1698
1093.0,0.1338
1094.0,0.154
1095.0,0.1398
1096.0,0.1312
1097.0,0.1659
1098.0,0.1275
1099.0,0.1345
1100.0,0.1213
1101.0,0.1242
1102.0,0.1158
1103.0,0.1128
1104.0,0.1132
1105.0,0.1306
1106.0,0.08448
1107.0,0.1212
1108.0,0.09357
1109.0,0.0952
1110.0,0.1181
1111.0,0.06802
1112.0,0.09505
1113.0,0.04923
1114.0,0.05544
1115.0,0.04504
1116.0,0.03038
1117.0,0.006729
1118.0,0.03428
1119.0,0.01275
1120.0,0.01541
1121.0,0.02253
1122.0,0.006415
1123.0,0.01409
1124.0,0.01183
1125.0,0.01649
1126.0,0.003009
1127.0,0.01888
1128.0,0.007993
1129.0,0.008763
1130.0,0.005257
1131.0,0.04586
1132.0,0.0339
1133.0,0.01622
1134.0,0.002257
1135.0,0.0009704
1136.0,0.01188
1137.0,0.04292
1138.0,0.02919
1139.0,0.05616
1140.0,0.04201
1141.0,0.02791
1142.0,0.03428
1143.0,0.05437
1144.0,0.01374
1145.0,0.0156
1146.0,0.01677
1147.0,0.003302
1148.0,0.04619
1149.0,0.03346
1150.0,0.01594
1151.0,0.02898
1152.0,0.03977
1153.0,0.04214
1154.0,0.01553
1155.0,0.05843
1156.0,0.04995
1157.0,0.06176
1158.0,0.06086
1159.0,0.06838
1160.0,0.05632
1161.0,0.07691
1162.0,0.07645
1163.0,0.1176
1164.0,0.09581
1165.0,0.08526
1166.0,0.08898
1167.0,0.09933
1168.0,0.09931
1169.0,0.103
1170.0,0.1165
1171.0,0.1134
1172.0,0.1186
1173.0,0.1163
1174.0,0.07316
1175.0,0.1164
1176.0,0.1343
1177.0,0.1245
1178.0,0.08592
1179.0,0.1353
1180.0,0.1141
1181.0,0.118
1182.0,0.07269
1183.0,0.1175
1184.0,0.1071
1185.0,0.1006
1186.0,0.1285
1187.0,0.1194
1188.0,0.07226
1189.0,0.1108
1190.0,0.1263
1191.0,0.1139
1192.0,0.1286
1193.0,0.1213
1194.0,0.1263
1195.0,0.1154
1196.0,0.1089
1197.0,0.128
1198.0,0.1153
1199.0,0.08982
1200.0,0.1196
1201.0,0.1123
1202.0,0.1143
1203.0,0.1117
1204.0,0.09428
1205.0,0.1192
1206.0,0.1358
1207.0,0.1127
1208.0,0.1135
1209.0,0.1163
1210.0,0.1231
1211.0,0.1143
1212.0,0.1081
1213.0,0.129
1214.0,0.1125
1215.0,0.1099
1216.0,0.1291
1217.0,0.1241
1218.0,0.1279
1219.0,0.1253
1220.0,0.1282
1221.0,0.1305
1222.0,0.1264
1223.0,0.1245
1224.0,0.122
1225.0,0.1293
1226.0,0.1315
1227.0,0.1169
1228.0,0.1332
1229.0,0.1315
1230.0,0.1285
1231.0,0.1351
1232.0,0.1341
1233.0,0.1256
1234.0,0.1358
1235.0,0.1343
1236.0,0.1358
1237.0,0.1323
1238.0,0.1354
1239.0,0.1336
1240.0,0.1343
1241.0,0.1327
1242.0,0.1333
1243.0,0.1322
1244.0,0.1329
1245.0,0.1336
1246.0,0.1329
1247.0,0.1321
1248.0,0.1315
1249.0,0.1323
1250.0,0.1312
1251.0,0.1289
1252.0,0.1297
1253.0,0.1272
1254.0,0.1249
1255.0,0.1292
1256.0,0.1229
1257.0,0.1217
1258.0,0.1261
1259.0,0.1175
1260.0,0.1186
1261.0,0.107
1262.0,0.1013
1263.0,0.1013
1264.0,0.08799
1265.0,0.1008
1266.0,0.09366
1267.0,0.09762
1268.0,0.08893
1269.0,0.03615
1270.0,0.09635
1271.0,0.1073
1272.0,0.1082
1273.0,0.1065
1274.0,0.1076
1275.0,0.11
1276.0,0.1121
1277.0,0.1141
1278.0,0.1182
1279.0,0.117
1280.0,0.1157
1281.0,0.1113
1282.0,0.1088
1283.0,0.1169
1284.0,0.1194
1285.0,0.1204
1286.0,0.1229
1287.0,0.1194
1288.0,0.1199
1289.0,0.113
1290.0,0.119
1291.0,0.1213
1292.0,0.1084
1293.0,0.1176
1294.0,0.1166
1295.0,0.1141
1296.0,0.1056
1297.0,0.09758
1298.0,0.1102
1299.0,0.1183
1300.0,0.0917
1301.0,0.09592
1302.0,0.11
1303.0,0.09129
1304.0,0.07047
1305.0,0.1074
1306.0,0.1065
1307.0,0.07472
1308.0,0.09275
1309.0,0.1043
1310.0,0.07259
1311.0,0.08715
1312.0,0.08381
1313.0,0.08029
1314.0,0.06916
1315.0,0.06667
1316.0,0.08432
1317.0,0.07877
1318.0,0.08886
1319.0,0.06068
1320.0,0.06044
1321.0,0.07356
1322.0,0.0726
1323.0,0.04772
1324.0,0.05989
1325.0,0.08208
1326.0,0.06613
1327.0,0.0618
1328.0,0.05084
1329.0,0.03238
1330.0,0.04527
1331.0,0.02147
1332.0,0.02375
1333.0,0.03414
1334.0,0.03295
1335.0,0.04688
1336.0,0.03356
1337.0,0.02888
1338.0,0.03082
1339.0,0.03144
1340.0,0.03235
1341.0,0.02737
1342.0,0.02933
1343.0,0.01384
1344.0,0.008877
1345.0,0.0123
1346.0,0.003529
1347.0,0.003193
1348.0,6.951e-05
1349.0,0.000317
1350.0,0.0003879
1351.0,3.477e-05
1352.0,2.8e-06
1353.0,8.247e-08
1354.0,4.513e-07
1355.0,1.52e-09
1356.0,3.997e-08
1357.0,6.021e-08
1358.0,1.808e-09
1359.0,2.052e-10
1360.0,7.729e-10
1361.0,8.198e-13
1362.0,2.241e-15
1363.0,1e-09
1364.0,4.162e-10
1365.0,7.825e-16
1366.0,4.39e-09
1367.0,1.865e-09
1368.0,6.042e-18
1369.0,1.535e-10
1370.0,7.445e-11
1371.0,4.198e-12
1372.0,1.02e-09
1373.0,2.459e-08
1374.0,1.564e-07
1375.0,2.465e-07
1376.0,4.169e-07
1377.0,1.734e-07
1378.0,1.759e-06
1379.0,7.609e-08
1380.0,7.161e-08
1381.0,1.683e-09
1382.0,8.782e-10
1383.0,1.289e-11
1384.0,1.649e-10
1385.0,9.404e-10
1386.0,7.506e-10
1387.0,1.154e-07
1388.0,2.873e-09
1389.0,6.496e-07
1390.0,5.116e-07
1391.0,3.39e-07
1392.0,2.235e-08
1393.0,1.498e-07
1394.0,3.71e-08
1395.0,2.486e-10
1396.0,1.068e-12
1397.0,4.871e-08
1398.0,1.717e-06
1399.0,1.162e-06
1400.0,4.562e-13
1401.0,1.896e-12
1402.0,1.209e-05
1403.0,1.105e-05
1404.0,2.831e-06
1405.0,1.105e-10
1406.0,4.565e-06
1407.0,8.196e-07
1408.0,4.119e-06
1409.0,7.706e-07
1410.0,1.143e-06
1411.0,1.041e-05
1412.0,2.028e-05
1413.0,0.0004822
1414.0,1.014e-06
1415.0,3.747e-07
1416.0,0.001718
1417.0,0.0003036
1418.0,0.0002398
1419.0,3.292e-05
1420.0,0.000144
1421.0,0.0002073
1422.0,0.002235
1423.0,0.0003953
1424.0,0.0008686
1425.0,0.001035
1426.0,0.001636
1427.0,0.003872
1428.0,5.644e-05
1429.0,0.002292
