interpolation:linear
wavelength,value
280.0,3.9050000000000004e-21
280.5,1.213e-19
281.0,6.384e-19
281.5,4.243e-19
282.0,1.186e-18
282.5,3.094e-18
283.0,9.949e-18
283.5,1.625e-17
284.0,2.617e-16
284.5,7.52e-16
285.0,1.655e-15
285.5,8.167e-15
286.0,3.277e-14
286.5,1.449e-13
287.0,4.105e-13
287.5,1.552e-12
288.0,4.027e-12
288.5,1.364e-11
289.0,3.933e-11
289.5,1.261e-10
290.0,3.636e-10
290.5,7.611e-10
291.0,1.677e-09
291.5,5.191e-09
292.0,1.137e-08
292.5,1.732e-08
293.0,4.131e-08
293.5,1.164e-07
294.0,2.024e-07
294.5,2.626e-07
295.0,4.945e-07
295.5,1.334e-06
296.0,2.672e-06
296.5,3.893e-06
297.0,5.463e-06
297.5,1.553e-05
298.0,2.581e-05
298.5,2.712e-05
299.0,6.254e-05
299.5,0.0001127
300.0,0.0001303
300.5,0.0001995
301.0,0.0003984
301.5,0.0007068
302.0,0.0006454
302.5,0.001268
303.0,0.002293
303.5,0.002898
304.0,0.00273
304.5,0.004095
305.0,0.006246
305.5,0.007176
306.0,0.006954
306.5,0.008674
307.0,0.0129
307.5,0.01719
308.0,0.01816
308.5,0.02147
309.0,0.0211
309.5,0.02413
310.0,0.02424
310.5,0.03926
311.0,0.04926
311.5,0.04756
312.0,0.04751
312.5,0.05777
313.0,0.06264
313.5,0.06086
314.0,0.07602
314.5,0.0673
315.0,0.08842
315.5,0.07405
316.0,0.06458
316.5,0.0926
317.0,0.115
317.5,0.1197
318.0,0.09333
318.5,0.1156
319.0,0.1371
319.5,0.112
320.0,0.1354
320.5,0.169
321.0,0.1501
321.5,0.1439
322.0,0.1538
322.5,0.1338
323.0,0.133
323.5,0.1632
324.0,0.1905
324.5,0.1936
325.0,0.1674
325.5,0.215
326.0,0.2628
326.5,0.2629
327.0,0.2622
327.5,0.2534
328.0,0.2261
328.5,0.2372
329.0,0.2835
329.5,0.3217
330.0,0.3247
330.5,0.2603
331.0,0.2654
331.5,0.2695
332.0,0.2907
332.5,0.2874
333.0,0.2867
333.5,0.2599
334.0,0.2663
334.5,0.3069
335.0,0.2882
335.5,0.3367
336.0,0.233
336.5,0.2731
337.0,0.2242
337.5,0.279
338.0,0.2721
338.5,0.3141
339.0,0.311
339.5,0.2992
340.0,0.3517
340.5,0.3171
341.0,0.3093
341.5,0.284
342.0,0.3395
342.5,0.3177
343.0,0.3494
343.5,0.3291
344.0,0.2433
344.5,0.2458
345.0,0.3253
345.5,0.3322
346.0,0.2824
346.5,0.3199
347.0,0.3435
347.5,0.2778
348.0,0.3167
348.5,0.3167
349.0,0.2938
349.5,0.291
350.0,0.36
350.5,0.3798
351.0,0.3394
351.5,0.3299
352.0,0.3544
352.5,0.2767
353.0,0.3486
353.5,0.3728
354.0,0.3871
354.5,0.3926
355.0,0.3914
355.5,0.3537
356.0,0.3702
356.5,0.3161
357.0,0.2612
357.5,0.3199
358.0,0.2536
358.5,0.2167
359.0,0.3032
359.5,0.3864
360.0,0.4097
360.5,0.3275
361.0,0.2987
361.5,0.344
362.0,0.2976
362.5,0.412
363.0,0.3702
363.5,0.3411
364.0,0.4173
364.5,0.3568
365.0,0.3634
365.5,0.4563
366.0,0.4835
366.5,0.4545
367.0,0.4427
367.5,0.4595
368.0,0.4022
368.5,0.406
369.0,0.4385
369.5,0.4676
370.0,0.4986
370.5,0.3871
371.0,0.4137
371.5,0.5177
372.0,0.3436
372.5,0.4122
373.0,0.4194
373.5,0.2729
374.0,0.3967
374.5,0.3286
375.0,0.3195
375.5,0.4771
376.0,0.3956
376.5,0.41
377.0,0.4343
377.5,0.5082
378.0,0.551
378.5,0.5209
379.0,0.4299
379.5,0.3928
380.0,0.4084
380.5,0.4948
381.0,0.496
381.5,0.3933
382.0,0.3494
382.5,0.298
383.0,0.276
383.5,0.2659
384.0,0.2933
384.5,0.4316
385.0,0.4281
385.5,0.3988
386.0,0.3416
386.5,0.4489
387.0,0.3731
387.5,0.4192
388.0,0.3871
388.5,0.3827
389.0,0.4133
389.5,0.5006
390.0,0.5026
390.5,0.4626
391.0,0.5447
391.5,0.5557
392.0,0.4681
392.5,0.4192
393.0,0.2333
393.5,0.1697
394.0,0.3453
394.5,0.4391
395.0,0.536
395.5,0.5445
396.0,0.4722
396.5,0.2761
397.0,0.2073
397.5,0.4216
398.0,0.5905
398.5,0.6105
399.0,0.6613
399.5,0.6593
400.0,0.6847
401.0,0.6942
402.0,0.7328
403.0,0.6964
404.0,0.686
405.0,0.6861
406.0,0.6753
407.0,0.6646
408.0,0.6908
409.0,0.7396
410.0,0.6465
411.0,0.7005
412.0,0.7527
413.0,0.7342
414.0,0.7435
415.0,0.7457
416.0,0.7591
417.0,0.7406
418.0,0.7271
419.0,0.7369
420.0,0.7339
421.0,0.768
422.0,0.7301
423.0,0.7134
424.0,0.7547
425.0,0.7536
426.0,0.7343
427.0,0.7208
428.0,0.7023
429.0,0.6654
430.0,0.5825
431.0,0.5774
432.0,0.7458
433.0,0.7501
434.0,0.6966
435.0,0.7276
436.0,0.8201
437.0,0.8093
438.0,0.7372
439.0,0.7624
440.0,0.7869
441.0,0.8156
442.0,0.8748
443.0,0.8521
444.0,0.8708
445.0,0.8521
446.0,0.8134
447.0,0.8796
448.0,0.8933
449.0,0.8971
450.0,0.9224
451.0,0.9567
452.0,0.9219
453.0,0.8673
454.0,0.9056
455.0,0.9112
456.0,0.933
457.0,0.9486
458.0,0.9162
459.0,0.9116
460.0,0.9141
461.0,0.9352
462.0,0.9426
463.0,0.9361
464.0,0.9209
465.0,0.9094
466.0,0.9184
467.0,0.9016
468.0,0.9123
469.0,0.9171
470.0,0.8879
471.0,0.8868
472.0,0.9344
473.0,0.9223
474.0,0.9236
475.0,0.9314
476.0,0.9035
477.0,0.9059
478.0,0.9311
479.0,0.9256
480.0,0.9275
481.0,0.9449
482.0,0.95
483.0,0.9387
484.0,0.9196
485.0,0.8762
486.0,0.7661
487.0,0.803
488.0,0.8809
489.0,0.8837
490.0,0.9298
491.0,0.9138
492.0,0.863
493.0,0.8913
494.0,0.9002
495.0,0.9079
496.0,0.9136
497.0,0.9277
498.0,0.8843
499.0,0.8956
500.0,0.8695
501.0,0.8534
502.0,0.8413
503.0,0.8754
504.0,0.8526
505.0,0.8836
506.0,0.9121
507.0,0.868
508.0,0.8411
509.0,0.8648
510.0,0.8604
511.0,0.8835
512.0,0.8932
513.0,0.8454
514.0,0.8397
515.0,0.8313
516.0,0.8293
517.0,0.7369
518.0,0.7747
519.0,0.8126
520.0,0.8421
521.0,0.8501
522.0,0.8508
523.0,0.8355
524.0,0.8653
525.0,0.8754
526.0,0.8362
527.0,0.7879
528.0,0.8332
529.0,0.8781
530.0,0.8655
531.0,0.8783
532.0,0.8481
533.0,0.8232
534.0,0.8476
535.0,0.8662
536.0,0.8742
537.0,0.8398
538.0,0.8546
539.0,0.8475
540.0,0.8125
541.0,0.8177
542.0,0.8433
543.0,0.8345
544.0,0.8488
545.0,0.8462
546.0,0.8498
547.0,0.8496
548.0,0.8395
549.0,0.8421
550.0,0.8521
551.0,0.8418
552.0,0.8476
553.0,0.8324
554.0,0.8523
555.0,0.854
556.0,0.8429
557.0,0.8166
558.0,0.8104
559.0,0.7952
560.0,0.8051
561.0,0.8154
562.0,0.8094
563.0,0.8314
564.0,0.8086
565.0,0.8016
566.0,0.7897
567.0,0.8046
568.0,0.7971
569.0,0.7776
570.0,0.7774
571.0,0.7729
572.0,0.7911
573.0,0.7995
574.0,0.7968
575.0,0.7818
576.0,0.7747
577.0,0.7832
578.0,0.7716
579.0,0.7749
580.0,0.7901
581.0,0.7945
582.0,0.8098
583.0,0.812
584.0,0.8192
585.0,0.7993
586.0,0.7829
587.0,0.7999
588.0,0.7797
589.0,0.6893
590.0,0.721
591.0,0.7638
592.0,0.7536
593.0,0.7655
594.0,0.7599
595.0,0.7406
596.0,0.771
597.0,0.7623
598.0,0.7608
599.0,0.7616
600.0,0.763
601.0,0.757
602.0,0.7519
603.0,0.7645
604.0,0.7772
605.0,0.7732
606.0,0.7702
607.0,0.778
608.0,0.7695
609.0,0.7709
610.0,0.7655
611.0,0.7696
612.0,0.7674
613.0,0.7578
614.0,0.7476
615.0,0.764
616.0,0.7389
617.0,0.7375
618.0,0.7659
619.0,0.7582
620.0,0.763
621.0,0.7636
622.0,0.7546
623.0,0.743
624.0,0.7304
625.0,0.7287
626.0,0.7395
627.0,0.7475
628.0,0.6947
629.0,0.7286
630.0,0.7117
631.0,0.7289
632.0,0.7204
633.0,0.7428
634.0,0.736
635.0,0.7476
636.0,0.7379
637.0,0.7502
638.0,0.7576
639.0,0.7493
640.0,0.7422
641.0,0.7418
642.0,0.7386
643.0,0.7485
644.0,0.7463
645.0,0.7474
646.0,0.7295
647.0,0.72
648.0,0.7206
649.0,0.7065
650.0,0.7112
651.0,0.7422
652.0,0.71
653.0,0.7324
654.0,0.7244
655.0,0.6968
656.0,0.618
657.0,0.6347
658.0,0.7116
659.0,0.7169
660.0,0.72
661.0,0.7251
662.0,0.7263
663.0,0.712
664.0,0.7208
665.0,0.7216
666.0,0.7223
667.0,0.7218
668.0,0.7222
669.0,0.7335
670.0,0.7304
671.0,0.7303
672.0,0.7241
673.0,0.735
674.0,0.7323
675.0,0.7257
676.0,0.7307
677.0,0.7235
678.0,0.7256
679.0,0.714
680.0,0.7197
681.0,0.715
682.0,0.7141
683.0,0.7127
684.0,0.7092
685.0,0.7153
686.0,0.711
687.0,0.4573
688.0,0.5429
689.0,0.5451
690.0,0.574
691.0,0.6069
692.0,0.6311
693.0,0.6258
694.0,0.6206
695.0,0.6481
696.0,0.649
697.0,0.691
698.0,0.6802
699.0,0.6625
700.0,0.6544
701.0,0.6473
702.0,0.6523
703.0,0.6536
704.0,0.6754
705.0,0.6764
706.0,0.6762
707.0,0.6768
708.0,0.6782
709.0,0.6798
710.0,0.6794
711.0,0.6787
712.0,0.6769
713.0,0.6699
714.0,0.6725
715.0,0.6507
716.0,0.6509
717.0,0.5592
718.0,0.5128
719.0,0.4692
720.0,0.4911
721.0,0.5454
722.0,0.6274
723.0,0.5823
724.0,0.5225
725.0,0.5134
726.0,0.5377
727.0,0.5467
728.0,0.5119
729.0,0.533
730.0,0.5638
731.0,0.5389
732.0,0.5785
733.0,0.6143
734.0,0.6294
735.0,0.6161
736.0,0.6153
737.0,0.6177
738.0,0.6286
739.0,0.6162
740.0,0.6326
741.0,0.6266
742.0,0.6274
743.0,0.6435
744.0,0.6418
745.0,0.6421
746.0,0.645
747.0,0.6464
748.0,0.6451
749.0,0.6378
750.0,0.6374
751.0,0.6309
752.0,0.6337
753.0,0.6369
754.0,0.6383
755.0,0.6347
756.0,0.6344
757.0,0.6353
758.0,0.6274
759.0,0.6139
760.0,0.08821
761.0,0.04383
762.0,0.2975
763.0,0.1398
764.0,0.2178
765.0,0.2975
766.0,0.373
767.0,0.4788
768.0,0.5591
769.0,0.5724
770.0,0.5936
771.0,0.5991
772.0,0.6006
773.0,0.6049
774.0,0.602
775.0,0.5975
776.0,0.6048
777.0,0.5968
778.0,0.5932
779.0,0.5937
780.0,0.5904
781.0,0.591
782.0,0.5947
783.0,0.5844
784.0,0.5872
785.0,0.5828
786.0,0.5892
787.0,0.5782
788.0,0.5707
789.0,0.5704
790.0,0.5543
791.0,0.56
792.0,0.556
793.0,0.5469
794.0,0.5573
795.0,0.5664
796.0,0.5477
797.0,0.5483
798.0,0.5656
799.0,0.5617
800.0,0.5516
801.0,0.5496
802.0,0.5481
803.0,0.5437
804.0,0.5446
805.0,0.5433
806.0,0.5592
807.0,0.5523
808.0,0.5529
809.0,0.542
810.0,0.5372
811.0,0.5372
812.0,0.5209
813.0,0.5096
814.0,0.4454
815.0,0.4428
816.0,0.4118
817.0,0.4196
818.0,0.4032
819.0,0.4533
820.0,0.426
821.0,0.5015
822.0,0.4866
823.0,0.3253
824.0,0.4711
825.0,0.4927
826.0,0.4729
827.0,0.5002
828.0,0.4207
829.0,0.4703
830.0,0.4638
831.0,0.4655
832.0,0.4506
833.0,0.4811
834.0,0.4629
835.0,0.511
836.0,0.4875
837.0,0.5125
838.0,0.4958
839.0,0.505
840.0,0.5162
841.0,0.5086
842.0,0.5102
843.0,0.5105
844.0,0.5031
845.0,0.5205
846.0,0.5183
847.0,0.5088
848.0,0.5054
849.0,0.491
850.0,0.4705
851.0,0.4979
852.0,0.4945
853.0,0.4762
854.0,0.411
855.0,0.4518
856.0,0.4936
857.0,0.5048
858.0,0.501
859.0,0.5015
860.0,0.5025
861.0,0.4997
862.0,0.5076
863.0,0.5196
864.0,0.4937
865.0,0.4894
866.0,0.44
867.0,0.4592
868.0,0.4997
869.0,0.4894
870.0,0.5033
871.0,0.4965
872.0,0.4947
873.0,0.4937
874.0,0.4879
875.0,0.478
876.0,0.4829
877.0,0.4878
878.0,0.4931
879.0,0.4855
880.0,0.4751
881.0,0.4678
882.0,0.4779
883.0,0.4795
884.0,0.4773
885.0,0.4809
886.0,0.4578
887.0,0.4631
888.0,0.4696
889.0,0.4754
890.0,0.4709
891.0,0.4704
892.0,0.4561
893.0,0.441
894.0,0.4239
895.0,0.3985
896.0,0.3746
897.0,0.3192
898.0,0.3497
899.0,0.2629
900.0,0.3597
901.0,0.2756
902.0,0.3276
903.0,0.3295
904.0,0.4207
905.0,0.4054
906.0,0.3786
907.0,0.3036
908.0,0.3102
909.0,0.3379
910.0,0.2954
911.0,0.3171
912.0,0.3321
913.0,0.2996
914.0,0.2978
915.0,0.3228
916.0,0.2725
917.0,0.3494
918.0,0.2792
919.0,0.3568
920.0,0.3625
921.0,0.3772
922.0,0.3347
923.0,0.3645
924.0,0.3426
925.0,0.3352
926.0,0.3387
927.0,0.3817
928.0,0.2727
929.0,0.247
930.0,0.1909
931.0,0.1813
932.0,0.1272
933.0,0.1016
934.0,0.05218
935.0,0.1054
936.0,0.06354
937.0,0.06417
938.0,0.0798
939.0,0.1756
940.0,0.2136
941.0,0.158
942.0,0.1849
943.0,0.119
944.0,0.1278
945.0,0.1635
946.0,0.07979
947.0,0.1634
948.0,0.1196
949.0,0.2221
950.0,0.05658
951.0,0.2193
952.0,0.1133
953.0,0.1493
954.0,0.1864
955.0,0.1514
956.0,0.1492
957.0,0.1131
958.0,0.2159
959.0,0.1676
960.0,0.1879
961.0,0.214
962.0,0.2021
963.0,0.2356
964.0,0.215
965.0,0.2349
966.0,0.2344
967.0,0.2331
968.0,0.322
969.0,0.3354
970.0,0.3068
971.0,0.3554
972.0,0.3391
973.0,0.2911
974.0,0.2757
975.0,0.2878
976.0,0.271
977.0,0.313
978.0,0.2954
979.0,0.3107
980.0,0.2913
981.0,0.3535
982.0,0.3364
983.0,0.3221
984.0,0.366
985.0,0.3352
986.0,0.3735
987.0,0.3649
988.0,0.3643
989.0,0.3731
990.0,0.3621
991.0,0.374
992.0,0.3763
993.0,0.3667
994.0,0.3764
995.0,0.3761
996.0,0.3742
997.0,0.3749
998.0,0.373
999.0,0.3717
1000.0,0.3688
1001.0,0.3737
1002.0,0.3622
1003.0,0.367
1004.0,0.3577
1005.0,0.3451
1006.0,0.3583
1007.0,0.3661
1008.0,0.3639
1009.0,0.3617
1010.0,0.36
1011.0,0.3642
1012.0,0.3608
1013.0,0.3634
1014.0,0.3609
1015.0,0.3584
1016.0,0.3568
1017.0,0.3577
1018.0,0.3565
1019.0,0.3484
1020.0,0.3545
1021.0,0.3541
1022.0,0.3512
1023.0,0.3549
1024.0,0.3498
1025.0,0.3548
1026.0,0.3532
1027.0,0.3524
1028.0,0.3516
1029.0,0.3474
1030.0,0.3499
1031.0,0.3485
1032.0,0.3475
1033.0,0.3423
1034.0,0.3423
1035.0,0.3434
1036.0,0.3451
1037.0,0.3395
1038.0,0.341
1039.0,0.3408
1040.0,0.3394
1041.0,0.3407
1042.0,0.3383
1043.0,0.3372
1044.0,0.3384
1045.0,0.3337
1046.0,0.33
1047.0,0.333
1048.0,0.3348
1049.0,0.3335
1050.0,0.3319
1051.0,0.3314
1052.0,0.33
1053.0,0.3273
1054.0,0.328
1055.0,0.3281
1056.0,0.3269
1057.0,0.3258
1058.0,0.3177
1059.0,0.318
1060.0,0.3175
1061.0,0.3171
1062.0,0.3186
1063.0,0.3154
1064.0,0.3192
1065.0,0.3167
1066.0,0.3106
1067.0,0.3146
1068.0,0.3076
1069.0,0.2982
1070.0,0.3082
1071.0,0.3134
1072.0,0.3094
1073.0,0.305
1074.0,0.3134
1075.0,0.2964
1076.0,0.3131
1077.0,0.3067
1078.0,0.3006
1079.0,0.3083
1080.0,0.302
1081.0,0.2917
1082.0,0.2975
1083.0,0.2987
1084.0,0.2907
1085.0,0.3028
1086.0,0.2745
1087.0,0.2846
1088.0,0.2981
1089.0,0.2878
1090.0,0.2807
1091.0,0.2968
1092.0,0.2964
1093.0,0.2478
1094.0,0.2707
1095.0,0.2586
1096.0,0.2466
1097.0,0.2895
1098.0,0.2423
1099.0,0.2533
1100.0,0.234
1101.0,0.2374
1102.0,0.2258
1103.0,0.2229
1104.0,0.2233
1105.0,0.2472
1106.0,0.1834
1107.0,0.2337
1108.0,0.1947
1109.0,0.1957
1110.0,0.2311
1111.0,0.1522
1112.0,0.1944
1113.0,0.1191
1114.0,0.1336
1115.0,0.1105
1116.0,0.08548
1117.0,0.02856
1118.0,0.09391
1119.0,0.04422
1120.0,0.05546
1121.0,0.07502
1122.0,0.02955
1123.0,0.05022
1124.0,0.04235
1125.0,0.05584
1126.0,0.01746
1127.0,0.06317
1128.0,0.03561
1129.0,0.03807
1130.0,0.02431
1131.0,0.1252
1132.0,0.09721
1133.0,0.05867
1134.0,0.01344
1135.0,0.005131
1136.0,0.04791
1137.0,0.122
1138.0,0.08539
1139.0,0.1332
1140.0,0.109
1141.0,0.0812
1142.0,0.09456
1143.0,0.1367
1144.0,0.04499
1145.0,0.05664
1146.0,0.06105
1147.0,0.01945
1148.0,0.1182
1149.0,0.09263
1150.0,0.04874
1151.0,0.0847
1152.0,0.1063
1153.0,0.1052
1154.0,0.05468
1155.0,0.1388
1156.0,0.1239
1157.0,0.1409
1158.0,0.1394
1159.0,0.1517
1160.0,0.1282
1161.0,0.1611
1162.0,0.1616
1163.0,0.2234
1164.0,0.1898
1165.0,0.1772
1166.0,0.1773
1167.0,0.194
1168.0,0.1958
1169.0,0.201
1170.0,0.2199
1171.0,0.2143
1172.0,0.219
1173.0,0.2195
1174.0,0.1532
1175.0,0.2151
1176.0,0.2382
1177.0,0.2275
1178.0,0.1683
1179.0,0.2402
1180.0,0.2125
1181.0,0.2194
1182.0,0.1486
1183.0,0.2165
1184.0,0.2019
1185.0,0.194
1186.0,0.2327
1187.0,0.2209
1188.0,0.1508
1189.0,0.2056
1190.0,0.2276
1191.0,0.2146
1192.0,0.2309
1193.0,0.2207
1194.0,0.2279
1195.0,0.2145
1196.0,0.2059
1197.0,0.2285
1198.0,0.2084
1199.0,0.1751
1200.0,0.2179
1201.0,0.2094
1202.0,0.2087
1203.0,0.2067
1204.0,0.1797
1205.0,0.2142
1206.0,0.2377
1207.0,0.2079
1208.0,0.2053
1209.0,0.2097
1210.0,0.2189
1211.0,0.2077
1212.0,0.2042
1213.0,0.2294
1214.0,0.2095
1215.0,0.2053
1216.0,0.2288
1217.0,0.2223
1218.0,0.2269
1219.0,0.2239
1220.0,0.2271
1221.0,0.2296
1222.0,0.2235
1223.0,0.2212
1224.0,0.2195
1225.0,0.2281
1226.0,0.2299
1227.0,0.2111
1228.0,0.2313
1229.0,0.23
1230.0,0.2259
1231.0,0.2329
1232.0,0.2315
1233.0,0.2227
1234.0,0.2329
1235.0,0.2313
1236.0,0.2331
1237.0,0.2295
1238.0,0.2323
1239.0,0.2293
1240.0,0.2302
1241.0,0.2289
1242.0,0.2286
1243.0,0.2268
1244.0,0.2283
1245.0,0.2293
1246.0,0.228
1247.0,0.2271
1248.0,0.2268
1249.0,0.2276
1250.0,0.2262
1251.0,0.2231
1252.0,0.2233
1253.0,0.2213
1254.0,0.2188
1255.0,0.223
1256.0,0.2162
1257.0,0.2149
1258.0,0.2194
1259.0,0.2106
1260.0,0.2118
1261.0,0.1988
1262.0,0.1923
1263.0,0.1926
1264.0,0.1765
1265.0,0.1914
1266.0,0.1834
1267.0,0.1872
1268.0,0.1767
1269.0,0.1041
1270.0,0.1863
1271.0,0.1983
1272.0,0.1991
1273.0,0.1968
1274.0,0.1976
1275.0,0.2007
1276.0,0.2028
1277.0,0.2045
1278.0,0.2088
1279.0,0.2069
1280.0,0.2043
1281.0,0.1951
1282.0,0.1884
1283.0,0.2028
1284.0,0.2076
1285.0,0.209
1286.0,0.212
1287.0,0.2084
1288.0,0.2084
1289.0,0.2012
1290.0,0.2067
1291.0,0.2097
1292.0,0.1957
1293.0,0.2053
1294.0,0.2038
1295.0,0.2024
1296.0,0.1925
1297.0,0.1815
1298.0,0.1966
1299.0,0.2057
1300.0,0.172
1301.0,0.1777
1302.0,0.196
1303.0,0.1699
1304.0,0.1429
1305.0,0.1918
1306.0,0.1917
1307.0,0.1468
1308.0,0.1705
1309.0,0.19
1310.0,0.1438
1311.0,0.1631
1312.0,0.1583
1313.0,0.1549
1314.0,0.1379
1315.0,0.1356
1316.0,0.1601
1317.0,0.1514
1318.0,0.1654
1319.0,0.1268
1320.0,0.1234
1321.0,0.1446
1322.0,0.1456
1323.0,0.1075
1324.0,0.1244
1325.0,0.1576
1326.0,0.134
1327.0,0.1274
1328.0,0.1092
1329.0,0.08009
1330.0,0.1052
1331.0,0.06126
1332.0,0.06401
1333.0,0.08959
1334.0,0.07708
1335.0,0.107
1336.0,0.0834
1337.0,0.07317
1338.0,0.07915
1339.0,0.07913
1340.0,0.07761
1341.0,0.0743
1342.0,0.07818
1343.0,0.05008
1344.0,0.0302
1345.0,0.04363
1346.0,0.01994
1347.0,0.01997
1348.0,0.001074
1349.0,0.004065
1350.0,0.004382
1351.0,0.0008984
1352.0,0.0002
1353.0,8.443e-06
1354.0,3.316e-05
1355.0,1.781e-07
1356.0,4.077e-06
1357.0,6.234e-06
1358.0,2.144e-07
1359.0,1.98e-08
1360.0,8.785e-08
1361.0,5.136e-11
1362.0,1.082e-13
1363.0,1.069e-07
1364.0,4.409e-08
1365.0,2.654e-14
1366.0,5.072e-07
1367.0,2.223e-07
1368.0,1.036e-16
1369.0,1.627e-08
1370.0,7.038e-09
1371.0,3.43e-10
1372.0,1.228e-07
1373.0,3.049e-06
1374.0,1.636e-05
1375.0,2.933e-05
1376.0,3.009e-05
1377.0,1.338e-05
1378.0,0.0001384
1379.0,5.61e-06
1380.0,7.368e-06
1381.0,1.782e-07
1382.0,1.066e-07
1383.0,1.437e-09
1384.0,1.742e-08
1385.0,1.175e-07
1386.0,8.65e-08
1387.0,1.543e-05
1388.0,3.096e-07
1389.0,6.185e-05
1390.0,5.29e-05
1391.0,3.439e-05
1392.0,2.151e-06
1393.0,1.232e-05
1394.0,5.007e-06
1395.0,3.161e-08
1396.0,8.093e-11
1397.0,4.638e-06
1398.0,0.0001527
1399.0,9.752e-05
1400.0,2.935e-11
1401.0,1.551e-10
1402.0,0.0003348
1403.0,0.0004041
1404.0,0.0001209
1405.0,1.375e-08
1406.0,0.0002935
1407.0,2.755e-05
1408.0,0.0002432
1409.0,7.253e-05
1410.0,6.329e-05
1411.0,0.0003583
1412.0,0.0005119
1413.0,0.006224
1414.0,5.075e-05
1415.0,2.307e-05
1416.0,0.01145
1417.0,0.003079
1418.0,0.003416
1419.0,0.000515
1420.0,0.002078
1421.0,0.00227
1422.0,0.01503
1423.0,0.002817
1424.0,0.005394
1425.0,0.00773
1426.0,0.009261
1427.0,0.01812
1428.0,0.0009912
1429.0,0.01299
1430.0,0.02361
1431.0,0.02631
1432.0,0.0007732
1433.0,0.01623
1434.0,0.008004
1435.0,0.007163
1436.0,0.0151
1437.0,0.01161
