interpolation:linear
wavelength,value
280.0,3.673e-21
280.5,1.143e-19
281.0,6.02e-19
281.5,3.949e-19
282.0,1.139e-18
282.5,2.99e-18
283.0,9.653e-18
283.5,1.579e-17
284.0,2.555e-16
284.5,7.353e-16
285.0,1.636e-15
285.5,8.041e-15
286.0,3.224e-14
286.5,1.425e-13
287.0,4.034e-13
287.5,1.525e-12
288.0,3.969e-12
288.5,1.34e-11
289.0,3.852e-11
289.5,1.232e-10
290.0,3.546e-10
290.5,7.414e-10
291.0,1.631e-09
291.5,4.966e-09
292.0,1.09e-08
292.5,1.657e-08
293.0,3.938e-08
293.5,1.104e-07
294.0,1.912e-07
294.5,2.477e-07
295.0,4.645e-07
295.5,1.247e-06
296.0,2.5e-06
296.5,3.644e-06
297.0,5.116e-06
297.5,1.456e-05
298.0,2.422e-05
298.5,2.549e-05
299.0,5.883e-05
299.5,0.0001063
300.0,0.0001231
300.5,0.0001888
301.0,0.0003782
301.5,0.0006735
302.0,0.0006165
302.5,0.001213
303.0,0.002196
303.5,0.002779
304.0,0.002619
304.5,0.003937
305.0,0.006022
305.5,0.006931
306.0,0.006721
306.5,0.008393
307.0,0.01252
307.5,0.01671
308.0,0.01767
308.5,0.0209
309.0,0.02056
309.5,0.02355
310.0,0.02367
310.5,0.03835
311.0,0.04815
311.5,0.04649
312.0,0.0465
312.5,0.05659
313.0,0.06139
313.5,0.05963
314.0,0.07455
314.5,0.06608
315.0,0.08684
315.5,0.07268
316.0,0.06345
316.5,0.09107
317.0,0.1131
317.5,0.1177
318.0,0.09182
318.5,0.1139
319.0,0.1351
319.5,0.1102
320.0,0.1333
320.5,0.1666
321.0,0.1481
321.5,0.142
322.0,0.1516
322.5,0.1319
323.0,0.1313
323.5,0.1611
324.0,0.1881
324.5,0.1911
325.0,0.1652
325.5,0.2123
326.0,0.2595
326.5,0.2597
327.0,0.259
327.5,0.2503
328.0,0.2232
328.5,0.2342
329.0,0.2801
329.5,0.3179
330.0,0.3209
330.5,0.2571
331.0,0.2621
331.5,0.2662
332.0,0.2873
332.5,0.2841
333.0,0.2834
333.5,0.2568
334.0,0.2632
334.5,0.3034
335.0,0.285
335.5,0.3329
336.0,0.2304
336.5,0.27
337.0,0.2216
337.5,0.2758
338.0,0.2691
338.5,0.3106
339.0,0.3075
339.5,0.2959
340.0,0.3478
340.5,0.3135
341.0,0.3058
341.5,0.2808
342.0,0.3357
342.5,0.3142
343.0,0.3456
343.5,0.3255
344.0,0.2406
344.5,0.243
345.0,0.3217
345.5,0.3286
346.0,0.2793
346.5,0.3164
347.0,0.3397
347.5,0.2747
348.0,0.3133
348.5,0.3132
349.0,0.2906
349.5,0.2878
350.0,0.3561
350.5,0.3757
351.0,0.3357
351.5,0.3263
352.0,0.3506
352.5,0.2736
353.0,0.3448
353.5,0.3688
354.0,0.3829
354.5,0.3884
355.0,0.3872
355.5,0.3499
356.0,0.3662
356.5,0.3127
357.0,0.2584
357.5,0.3164
358.0,0.2508
358.5,0.2144
359.0,0.2999
359.5,0.3823
360.0,0.4053
360.5,0.324
361.0,0.2955
361.5,0.3403
362.0,0.2944
362.5,0.4076
363.0,0.3662
363.5,0.3375
364.0,0.4129
364.5,0.353
365.0,0.3596
365.5,0.4514
366.0,0.4784
366.5,0.4497
367.0,0.438
367.5,0.4547
368.0,0.398
368.5,0.4017
369.0,0.4339
369.5,0.4626
370.0,0.4933
370.5,0.383
371.0,0.4093
371.5,0.5122
372.0,0.34
372.5,0.4078
373.0,0.415
373.5,0.2701
374.0,0.3925
374.5,0.3252
375.0,0.3162
375.5,0.4722
376.0,0.3915
376.5,0.4058
377.0,0.4297
377.5,0.5029
378.0,0.5452
378.5,0.5155
379.0,0.4255
379.5,0.3887
380.0,0.4042
380.5,0.4897
381.0,0.4909
381.5,0.3893
382.0,0.3458
382.5,0.2949
383.0,0.2731
383.5,0.2631
384.0,0.2903
384.5,0.4272
385.0,0.4237
385.5,0.3947
386.0,0.3382
386.5,0.4443
387.0,0.3693
387.5,0.4149
388.0,0.3832
388.5,0.3789
389.0,0.409
389.5,0.4956
390.0,0.4975
390.5,0.4579
391.0,0.5392
391.5,0.5501
392.0,0.4634
392.5,0.415
393.0,0.231
393.5,0.1679
394.0,0.3418
394.5,0.4347
395.0,0.5306
395.5,0.539
396.0,0.4675
396.5,0.2734
397.0,0.2052
397.5,0.4174
398.0,0.5846
398.5,0.6044
399.0,0.6547
399.5,0.6527
400.0,0.6778
401.0,0.6873
402.0,0.7254
403.0,0.6895
404.0,0.6791
405.0,0.6792
406.0,0.6685
407.0,0.658
408.0,0.6839
409.0,0.7322
410.0,0.6401
411.0,0.6936
412.0,0.7453
413.0,0.727
414.0,0.7361
415.0,0.7384
416.0,0.7516
417.0,0.7333
418.0,0.72
419.0,0.7297
420.0,0.7267
421.0,0.7605
422.0,0.723
423.0,0.7065
424.0,0.7474
425.0,0.7462
426.0,0.7272
427.0,0.7138
428.0,0.6954
429.0,0.659
430.0,0.5769
431.0,0.5719
432.0,0.7386
433.0,0.7429
434.0,0.6899
435.0,0.7206
436.0,0.8122
437.0,0.8016
438.0,0.7301
439.0,0.7551
440.0,0.7793
441.0,0.8078
442.0,0.8665
443.0,0.844
444.0,0.8625
445.0,0.8439
446.0,0.8057
447.0,0.8713
448.0,0.8848
449.0,0.8886
450.0,0.9137
451.0,0.9477
452.0,0.9132
453.0,0.8591
454.0,0.897
455.0,0.9027
456.0,0.9242
457.0,0.9397
458.0,0.9076
459.0,0.9031
460.0,0.9055
461.0,0.9264
462.0,0.9337
463.0,0.9274
464.0,0.9123
465.0,0.901
466.0,0.9099
467.0,0.8932
468.0,0.9038
469.0,0.9086
470.0,0.8796
471.0,0.8786
472.0,0.9257
473.0,0.9138
474.0,0.915
475.0,0.9227
476.0,0.895
477.0,0.8974
478.0,0.9224
479.0,0.9169
480.0,0.9188
481.0,0.9361
482.0,0.9412
483.0,0.93
484.0,0.9111
485.0,0.8681
486.0,0.759
487.0,0.7956
488.0,0.8728
489.0,0.8755
490.0,0.9212
491.0,0.9054
492.0,0.855
493.0,0.8831
494.0,0.892
495.0,0.8996
496.0,0.9052
497.0,0.9192
498.0,0.8762
499.0,0.8874
500.0,0.8615
501.0,0.8456
502.0,0.8335
503.0,0.8673
504.0,0.8446
505.0,0.8754
506.0,0.9037
507.0,0.8599
508.0,0.8333
509.0,0.8568
510.0,0.8524
511.0,0.8754
512.0,0.885
513.0,0.8377
514.0,0.832
515.0,0.8237
516.0,0.8217
517.0,0.7302
518.0,0.7676
519.0,0.8051
520.0,0.8344
521.0,0.8423
522.0,0.843
523.0,0.8278
524.0,0.8573
525.0,0.8673
526.0,0.8285
527.0,0.7806
528.0,0.8254
529.0,0.87
530.0,0.8574
531.0,0.8701
532.0,0.8402
533.0,0.8156
534.0,0.8398
535.0,0.8581
536.0,0.8661
537.0,0.832
538.0,0.8467
539.0,0.8396
540.0,0.805
541.0,0.8101
542.0,0.8354
543.0,0.8267
544.0,0.8409
545.0,0.8384
546.0,0.8419
547.0,0.8417
548.0,0.8317
549.0,0.8342
550.0,0.8442
551.0,0.8339
552.0,0.8397
553.0,0.8247
554.0,0.8444
555.0,0.8461
556.0,0.835
557.0,0.809
558.0,0.8028
559.0,0.7878
560.0,0.7975
561.0,0.8078
562.0,0.8018
563.0,0.8236
564.0,0.801
565.0,0.794
566.0,0.7823
567.0,0.797
568.0,0.7895
569.0,0.7701
570.0,0.77
571.0,0.7655
572.0,0.7835
573.0,0.7918
574.0,0.7892
575.0,0.7743
576.0,0.7672
577.0,0.7756
578.0,0.7642
579.0,0.7675
580.0,0.7826
581.0,0.787
582.0,0.8022
583.0,0.8044
584.0,0.8116
585.0,0.7919
586.0,0.7756
587.0,0.7924
588.0,0.7723
589.0,0.6826
590.0,0.714
591.0,0.7565
592.0,0.7464
593.0,0.7582
594.0,0.7526
595.0,0.7334
596.0,0.7637
597.0,0.7551
598.0,0.7535
599.0,0.7544
600.0,0.7558
601.0,0.7499
602.0,0.7449
603.0,0.7573
604.0,0.7699
605.0,0.766
606.0,0.763
607.0,0.7707
608.0,0.7623
609.0,0.7638
610.0,0.7585
611.0,0.7625
612.0,0.7604
613.0,0.7509
614.0,0.7407
615.0,0.757
616.0,0.7321
617.0,0.7307
618.0,0.7589
619.0,0.7513
620.0,0.756
621.0,0.7566
622.0,0.7477
623.0,0.7362
624.0,0.7237
625.0,0.722
626.0,0.7327
627.0,0.7406
628.0,0.6879
629.0,0.7218
630.0,0.705
631.0,0.7222
632.0,0.7138
633.0,0.736
634.0,0.7293
635.0,0.7408
636.0,0.7313
637.0,0.7434
638.0,0.7509
639.0,0.7426
640.0,0.7355
641.0,0.7352
642.0,0.732
643.0,0.7419
644.0,0.7396
645.0,0.7408
646.0,0.723
647.0,0.7134
648.0,0.714
649.0,0.7001
650.0,0.7048
651.0,0.7356
652.0,0.7036
653.0,0.7259
654.0,0.718
655.0,0.6905
656.0,0.6125
657.0,0.6291
658.0,0.7054
659.0,0.7106
660.0,0.7137
661.0,0.7187
662.0,0.7199
663.0,0.7058
664.0,0.7145
665.0,0.7154
666.0,0.716
667.0,0.7155
668.0,0.716
669.0,0.7272
670.0,0.7241
671.0,0.724
672.0,0.7178
673.0,0.7287
674.0,0.726
675.0,0.7195
676.0,0.7245
677.0,0.7173
678.0,0.7194
679.0,0.7079
680.0,0.7136
681.0,0.7089
682.0,0.708
683.0,0.7066
684.0,0.7031
685.0,0.7092
686.0,0.7049
687.0,0.4518
688.0,0.5371
689.0,0.5393
690.0,0.5682
691.0,0.601
692.0,0.6253
693.0,0.6199
694.0,0.6149
695.0,0.6423
696.0,0.6432
697.0,0.6851
698.0,0.6744
699.0,0.6566
700.0,0.6486
701.0,0.6415
702.0,0.6466
703.0,0.6478
704.0,0.6695
705.0,0.6705
706.0,0.6703
707.0,0.671
708.0,0.6724
709.0,0.674
710.0,0.6736
711.0,0.6729
712.0,0.6712
713.0,0.6641
714.0,0.6667
715.0,0.6451
716.0,0.6452
717.0,0.5537
718.0,0.5078
719.0,0.4646
720.0,0.4861
721.0,0.5402
722.0,0.6219
723.0,0.577
724.0,0.5175
725.0,0.5084
726.0,0.5325
727.0,0.5416
728.0,0.5069
729.0,0.528
730.0,0.5585
731.0,0.5338
732.0,0.5732
733.0,0.6089
734.0,0.6239
735.0,0.6107
736.0,0.6099
737.0,0.6123
738.0,0.6232
739.0,0.6109
740.0,0.6273
741.0,0.6213
742.0,0.6222
743.0,0.6381
744.0,0.6365
745.0,0.6367
746.0,0.6396
747.0,0.6411
748.0,0.6397
749.0,0.6325
750.0,0.6321
751.0,0.6257
752.0,0.6284
753.0,0.6316
754.0,0.633
755.0,0.6294
756.0,0.6292
757.0,0.6301
758.0,0.6222
759.0,0.6087
760.0,0.08615
761.0,0.04258
762.0,0.2934
763.0,0.137
764.0,0.2142
765.0,0.2933
766.0,0.3686
767.0,0.4739
768.0,0.5541
769.0,0.5674
770.0,0.5886
771.0,0.5941
772.0,0.5957
773.0,0.5999
774.0,0.597
775.0,0.5925
776.0,0.5998
777.0,0.5919
778.0,0.5883
779.0,0.5888
780.0,0.5855
781.0,0.5861
782.0,0.5898
783.0,0.5795
784.0,0.5824
785.0,0.578
786.0,0.5843
787.0,0.5734
788.0,0.5659
789.0,0.5656
790.0,0.5495
791.0,0.5552
792.0,0.5513
793.0,0.5423
794.0,0.5526
795.0,0.5617
796.0,0.543
797.0,0.5436
798.0,0.5609
799.0,0.557
800.0,0.547
801.0,0.545
802.0,0.5434
803.0,0.5391
804.0,0.54
805.0,0.5387
806.0,0.5545
807.0,0.5477
808.0,0.5482
809.0,0.5374
810.0,0.5327
811.0,0.5325
812.0,0.5164
813.0,0.505
814.0,0.4411
815.0,0.4386
816.0,0.4078
817.0,0.4156
818.0,0.3993
819.0,0.4492
820.0,0.422
821.0,0.4972
822.0,0.4823
823.0,0.3219
824.0,0.4669
825.0,0.4884
826.0,0.4687
827.0,0.4959
828.0,0.4168
829.0,0.4661
830.0,0.4596
831.0,0.4613
832.0,0.4465
833.0,0.4769
834.0,0.4588
835.0,0.5067
836.0,0.4833
837.0,0.5082
838.0,0.4915
839.0,0.5007
840.0,0.5119
841.0,0.5043
842.0,0.5059
843.0,0.5063
844.0,0.4989
845.0,0.5162
846.0,0.514
847.0,0.5046
848.0,0.5012
849.0,0.487
850.0,0.4666
851.0,0.4937
852.0,0.4904
853.0,0.4723
854.0,0.4076
855.0,0.4481
856.0,0.4895
857.0,0.5007
858.0,0.4969
859.0,0.4974
860.0,0.4984
861.0,0.4957
862.0,0.5035
863.0,0.5154
864.0,0.4896
865.0,0.4854
866.0,0.4364
867.0,0.4555
868.0,0.4956
869.0,0.4854
870.0,0.4992
871.0,0.4924
872.0,0.4907
873.0,0.4897
874.0,0.4839
875.0,0.4741
876.0,0.479
877.0,0.4838
878.0,0.489
879.0,0.4815
880.0,0.4712
881.0,0.464
882.0,0.474
883.0,0.4756
884.0,0.4734
885.0,0.477
886.0,0.454
887.0,0.4593
888.0,0.4658
889.0,0.4716
890.0,0.467
891.0,0.4665
892.0,0.4523
893.0,0.4372
894.0,0.4202
895.0,0.3948
896.0,0.3711
897.0,0.316
898.0,0.3464
899.0,0.2602
900.0,0.3564
901.0,0.2727
902.0,0.3245
903.0,0.3262
904.0,0.417
905.0,0.4017
906.0,0.3752
907.0,0.3005
908.0,0.3072
909.0,0.3347
910.0,0.2924
911.0,0.314
912.0,0.3289
913.0,0.2966
914.0,0.2947
915.0,0.3196
916.0,0.2697
917.0,0.346
918.0,0.2763
919.0,0.3534
920.0,0.3592
921.0,0.3738
922.0,0.3315
923.0,0.3613
924.0,0.3394
925.0,0.332
926.0,0.3354
927.0,0.3782
928.0,0.2697
929.0,0.2441
930.0,0.1885
931.0,0.179
932.0,0.1254
933.0,0.1001
934.0,0.05117
935.0,0.1039
936.0,0.06249
937.0,0.06309
938.0,0.07852
939.0,0.1734
940.0,0.2111
941.0,0.1559
942.0,0.1826
943.0,0.1174
944.0,0.1262
945.0,0.1615
946.0,0.07856
947.0,0.1612
948.0,0.118
949.0,0.2194
950.0,0.05559
951.0,0.2167
952.0,0.1117
953.0,0.1474
954.0,0.1842
955.0,0.1494
956.0,0.1474
957.0,0.1114
958.0,0.2135
959.0,0.1656
960.0,0.1856
961.0,0.2115
962.0,0.1998
963.0,0.2331
964.0,0.2127
965.0,0.2324
966.0,0.2318
967.0,0.2305
968.0,0.3191
969.0,0.3323
970.0,0.3039
971.0,0.3523
972.0,0.3361
973.0,0.2882
974.0,0.273
975.0,0.285
976.0,0.2682
977.0,0.3101
978.0,0.2926
979.0,0.3078
980.0,0.2886
981.0,0.3504
982.0,0.3334
983.0,0.3192
984.0,0.3629
985.0,0.3321
986.0,0.3704
987.0,0.3618
988.0,0.3612
989.0,0.37
990.0,0.3591
991.0,0.371
992.0,0.3733
993.0,0.3636
994.0,0.3733
995.0,0.373
996.0,0.3711
997.0,0.3718
998.0,0.37
999.0,0.3687
1000.0,0.3658
1001.0,0.3707
1002.0,0.3592
1003.0,0.3641
1004.0,0.3548
1005.0,0.3423
1006.0,0.3554
1007.0,0.3631
1008.0,0.3609
1009.0,0.3587
1010.0,0.357
1011.0,0.3613
1012.0,0.3579
1013.0,0.3604
1014.0,0.3579
1015.0,0.3555
1016.0,0.3539
1017.0,0.3547
1018.0,0.3536
1019.0,0.3455
1020.0,0.3516
1021.0,0.3512
1022.0,0.3483
1023.0,0.352
1024.0,0.3469
1025.0,0.3519
1026.0,0.3503
1027.0,0.3495
1028.0,0.3487
1029.0,0.3445
1030.0,0.3471
1031.0,0.3456
1032.0,0.3447
1033.0,0.3395
1034.0,0.3395
1035.0,0.3406
1036.0,0.3423
1037.0,0.3367
1038.0,0.3382
1039.0,0.338
1040.0,0.3366
1041.0,0.3379
1042.0,0.3355
1043.0,0.3345
1044.0,0.3356
1045.0,0.331
1046.0,0.3273
1047.0,0.3302
1048.0,0.332
1049.0,0.3308
1050.0,0.3292
1051.0,0.3287
1052.0,0.3273
1053.0,0.3246
1054.0,0.3253
1055.0,0.3254
1056.0,0.3242
1057.0,0.3231
1058.0,0.3151
1059.0,0.3153
1060.0,0.3148
1061.0,0.3144
1062.0,0.316
1063.0,0.3128
1064.0,0.3165
1065.0,0.3141
1066.0,0.308
1067.0,0.3119
1068.0,0.305
1069.0,0.2957
1070.0,0.3056
1071.0,0.3108
1072.0,0.3068
1073.0,0.3025
1074.0,0.3108
1075.0,0.2939
1076.0,0.3105
1077.0,0.3042
1078.0,0.2981
1079.0,0.3057
1080.0,0.2995
1081.0,0.2892
1082.0,0.295
1083.0,0.2962
1084.0,0.2882
1085.0,0.3003
1086.0,0.2721
1087.0,0.2822
1088.0,0.2957
1089.0,0.2853
1090.0,0.2783
1091.0,0.2944
1092.0,0.2939
1093.0,0.2456
1094.0,0.2684
1095.0,0.2562
1096.0,0.2443
1097.0,0.2871
1098.0,0.24
1099.0,0.251
1100.0,0.2317
1101.0,0.2351
1102.0,0.2236
1103.0,0.2207
1104.0,0.2211
1105.0,0.2449
1106.0,0.1813
1107.0,0.2314
1108.0,0.1926
1109.0,0.1936
1110.0,0.2289
1111.0,0.1505
1112.0,0.1924
1113.0,0.1176
1114.0,0.1319
1115.0,0.1091
1116.0,0.08425
1117.0,0.028
1118.0,0.0926
1119.0,0.04348
1120.0,0.05451
1121.0,0.07381
1122.0,0.02896
1123.0,0.04937
1124.0,0.04163
1125.0,0.05492
1126.0,0.01707
1127.0,0.06215
1128.0,0.03491
1129.0,0.03734
1130.0,0.0238
1131.0,0.1235
1132.0,0.09582
1133.0,0.05766
1134.0,0.01313
1135.0,0.005018
1136.0,0.04703
1137.0,0.1203
1138.0,0.08414
1139.0,0.1316
1140.0,0.1076
1141.0,0.08001
1142.0,0.09325
1143.0,0.135
1144.0,0.04427
1145.0,0.05567
1146.0,0.06
1147.0,0.019
1148.0,0.1166
1149.0,0.09134
1150.0,0.04797
1151.0,0.08346
1152.0,0.1049
1153.0,0.1038
1154.0,0.05374
1155.0,0.1372
1156.0,0.1223
1157.0,0.1393
1158.0,0.1377
1159.0,0.15
1160.0,0.1267
1161.0,0.1593
1162.0,0.1599
1163.0,0.2213
1164.0,0.1879
1165.0,0.1754
1166.0,0.1755
1167.0,0.1921
1168.0,0.1938
1169.0,0.1991
1170.0,0.2179
1171.0,0.2123
1172.0,0.2171
1173.0,0.2174
1174.0,0.1516
1175.0,0.2131
1176.0,0.2362
1177.0,0.2255
1178.0,0.1666
1179.0,0.2382
1180.0,0.2105
1181.0,0.2174
1182.0,0.1471
1183.0,0.2145
1184.0,0.2
1185.0,0.1922
1186.0,0.2307
1187.0,0.2189
1188.0,0.1492
1189.0,0.2037
1190.0,0.2256
1191.0,0.2126
1192.0,0.2289
1193.0,0.2188
1194.0,0.2259
1195.0,0.2125
1196.0,0.204
1197.0,0.2265
1198.0,0.2066
1199.0,0.1733
1200.0,0.2159
1201.0,0.2075
1202.0,0.2068
1203.0,0.2049
1204.0,0.178
1205.0,0.2123
1206.0,0.2358
1207.0,0.206
1208.0,0.2035
1209.0,0.2078
1210.0,0.217
1211.0,0.2058
1212.0,0.2023
1213.0,0.2275
1214.0,0.2076
1215.0,0.2035
1216.0,0.2268
1217.0,0.2204
1218.0,0.2249
1219.0,0.2219
1220.0,0.2252
1221.0,0.2277
1222.0,0.2216
1223.0,0.2193
1224.0,0.2176
1225.0,0.2262
1226.0,0.228
1227.0,0.2092
1228.0,0.2294
1229.0,0.228
1230.0,0.2239
1231.0,0.231
1232.0,0.2296
1233.0,0.2208
1234.0,0.231
1235.0,0.2294
1236.0,0.2312
1237.0,0.2276
1238.0,0.2304
1239.0,0.2275
1240.0,0.2284
1241.0,0.2271
1242.0,0.2268
1243.0,0.2249
1244.0,0.2265
1245.0,0.2275
1246.0,0.2262
1247.0,0.2252
1248.0,0.225
1249.0,0.2258
1250.0,0.2243
1251.0,0.2213
1252.0,0.2215
1253.0,0.2194
1254.0,0.217
1255.0,0.2212
1256.0,0.2144
1257.0,0.2131
1258.0,0.2176
1259.0,0.2088
1260.0,0.21
1261.0,0.197
1262.0,0.1905
1263.0,0.1908
1264.0,0.1747
1265.0,0.1896
1266.0,0.1816
1267.0,0.1854
1268.0,0.1749
1269.0,0.1026
1270.0,0.1845
1271.0,0.1965
1272.0,0.1973
1273.0,0.1951
1274.0,0.1959
1275.0,0.1989
1276.0,0.2011
1277.0,0.2027
1278.0,0.207
1279.0,0.2051
1280.0,0.2026
1281.0,0.1935
1282.0,0.1868
1283.0,0.2011
1284.0,0.2059
1285.0,0.2073
1286.0,0.2103
1287.0,0.2067
1288.0,0.2067
1289.0,0.1995
1290.0,0.2049
1291.0,0.2079
1292.0,0.194
1293.0,0.2036
1294.0,0.2021
1295.0,0.2007
1296.0,0.1908
1297.0,0.1798
1298.0,0.1949
1299.0,0.2039
1300.0,0.1704
1301.0,0.176
1302.0,0.1943
1303.0,0.1684
1304.0,0.1415
1305.0,0.1902
1306.0,0.19
1307.0,0.1453
1308.0,0.169
1309.0,0.1883
1310.0,0.1424
1311.0,0.1615
1312.0,0.1568
1313.0,0.1534
1314.0,0.1365
1315.0,0.1342
1316.0,0.1586
1317.0,0.15
1318.0,0.1639
1319.0,0.1254
1320.0,0.1221
1321.0,0.1432
1322.0,0.1441
1323.0,0.1062
1324.0,0.1231
1325.0,0.1561
1326.0,0.1326
1327.0,0.1261
1328.0,0.108
1329.0,0.07907
1330.0,0.104
1331.0,0.06037
1332.0,0.06313
1333.0,0.0884
1334.0,0.07615
1335.0,0.1057
1336.0,0.08234
1337.0,0.07221
1338.0,0.07811
1339.0,0.07811
1340.0,0.07665
1341.0,0.07328
1342.0,0.07712
1343.0,0.04921
1344.0,0.02969
1345.0,0.0429
1346.0,0.01949
1347.0,0.0195
1348.0,0.001035
1349.0,0.003932
1350.0,0.004249
1351.0,0.000861
1352.0,0.000189
1353.0,7.875e-06
1354.0,3.122e-05
1355.0,1.629e-07
1356.0,3.801e-06
1357.0,5.812e-06
1358.0,1.964e-07
1359.0,1.773e-08
1360.0,7.982e-08
1361.0,4.459e-11
1362.0,9.236e-14
1363.0,9.624e-08
1364.0,3.973e-08
1365.0,2.21e-14
1366.0,4.595e-07
1367.0,2.025e-07
1368.0,8.268e-17
1369.0,1.465e-08
1370.0,6.278e-09
1371.0,3.028e-10
1372.0,1.12e-07
1373.0,2.82e-06
1374.0,1.528e-05
1375.0,2.735e-05
1376.0,2.835e-05
1377.0,1.258e-05
1378.0,0.0001306
1379.0,5.274e-06
1380.0,6.879e-06
1381.0,1.656e-07
1382.0,9.693e-08
1383.0,1.298e-09
1384.0,1.562e-08
1385.0,1.081e-07
1386.0,7.807e-08
1387.0,1.431e-05
1388.0,2.878e-07
1389.0,5.804e-05
1390.0,4.961e-05
1391.0,3.22e-05
1392.0,2.01e-06
1393.0,1.157e-05
1394.0,4.62e-06
1395.0,2.889e-08
1396.0,7.07e-11
1397.0,4.339e-06
1398.0,0.0001439
1399.0,9.19e-05
1400.0,2.532e-11
1401.0,1.361e-10
1402.0,0.0003203
1403.0,0.0003854
1404.0,0.0001152
1405.0,1.246e-08
1406.0,0.0002781
1407.0,2.625e-05
1408.0,0.0002307
1409.0,6.823e-05
1410.0,5.993e-05
1411.0,0.000342
1412.0,0.0004905
1413.0,0.006028
1414.0,4.812e-05
1415.0,2.179e-05
1416.0,0.01117
1417.0,0.002984
1418.0,0.003303
1419.0,0.0004973
1420.0,0.002009
1421.0,0.002197
1422.0,0.01466
1423.0,0.002744
1424.0,0.005261
1425.0,0.007527
1426.0,0.009046
1427.0,0.01776
1428.0,0.0009544
1429.0,0.0127
1430.0,0.02316
1431.0,0.02583
1432.0,0.0007441
1433.0,0.01591
1434.0,0.007835
1435.0,0.00697
1436.0,0.01477
1437.0,0.01135
1438.0,0.004435
1439.0,0.02065
1440.0,0.01548
