interpolation:linear
wavelength,value
280.0,1.601e-20
280.5,4.718e-19
281.0,2.44e-18
281.5,4.19e-19
282.0,1.575e-18
282.5,4.319e-18
283.0,1.418e-17
283.5,2.33e-17
284.0,3.704e-16
284.5,1.053e-15
285.0,1.92e-15
285.5,1.062e-14
286.0,4.382e-14
286.5,2.008e-13
287.0,5.782e-13
287.5,2.213e-12
288.0,6.109e-12
288.5,2.298e-11
289.0,7.291e-11
289.5,2.572e-10
290.0,7.98e-10
290.5,1.775e-09
291.0,4.198e-09
291.5,1.352e-08
292.0,3.598e-08
292.5,5.708e-08
293.0,1.436e-07
293.5,4.381e-07
294.0,8.12e-07
294.5,1.083e-06
295.0,2.169e-06
295.5,5.701e-06
296.0,1.116e-05
296.5,1.582e-05
297.0,2.166e-05
297.5,5.905e-05
298.0,9.436e-05
298.5,9.597e-05
299.0,0.0002139
299.5,0.0003614
300.0,0.000402
300.5,0.0005893
301.0,0.001089
301.5,0.001775
302.0,0.00154
302.5,0.002952
303.0,0.005168
303.5,0.006397
304.0,0.005935
304.5,0.008565
305.0,0.01238
305.5,0.01377
306.0,0.01317
306.5,0.01609
307.0,0.02287
307.5,0.0292
308.0,0.03064
308.5,0.03547
309.0,0.03447
309.5,0.03837
310.0,0.03805
310.5,0.06123
311.0,0.07603
311.5,0.07305
312.0,0.07133
312.5,0.08543
313.0,0.09188
313.5,0.08992
314.0,0.1103
314.5,0.09531
315.0,0.1247
315.5,0.1056
316.0,0.09032
316.5,0.1274
317.0,0.1582
317.5,0.1655
318.0,0.1275
318.5,0.1545
319.0,0.1812
319.5,0.1506
320.0,0.1825
320.5,0.2228
321.0,0.1941
321.5,0.1856
322.0,0.2027
322.5,0.1761
323.0,0.1726
323.5,0.2091
324.0,0.2434
324.5,0.2487
325.0,0.2166
325.5,0.2751
326.0,0.3351
326.5,0.3328
327.0,0.3327
327.5,0.3226
328.0,0.2905
328.5,0.3012
329.0,0.3567
329.5,0.4036
330.0,0.4082
330.5,0.3295
331.0,0.3367
331.5,0.34
332.0,0.364
332.5,0.3586
333.0,0.3584
333.5,0.3266
334.0,0.335
334.5,0.3836
335.0,0.3588
335.5,0.4191
336.0,0.29
336.5,0.3403
337.0,0.2801
337.5,0.3488
338.0,0.3385
338.5,0.3906
339.0,0.3865
339.5,0.3718
340.0,0.4371
340.5,0.3937
341.0,0.3841
341.5,0.3525
342.0,0.4213
342.5,0.3941
343.0,0.4335
343.5,0.4083
344.0,0.3017
344.5,0.3048
345.0,0.4033
345.5,0.4117
346.0,0.3498
346.5,0.3961
347.0,0.4253
347.5,0.3439
348.0,0.392
348.5,0.3918
349.0,0.3634
349.5,0.3599
350.0,0.4451
350.5,0.4695
351.0,0.4195
351.5,0.4078
352.0,0.4379
352.5,0.3417
353.0,0.4304
353.5,0.4602
354.0,0.4778
354.5,0.4845
355.0,0.483
355.5,0.4363
356.0,0.4565
356.5,0.3898
357.0,0.3221
357.5,0.3943
358.0,0.3125
358.5,0.2671
359.0,0.3736
359.5,0.4762
360.0,0.5048
360.5,0.4035
361.0,0.3678
361.5,0.4235
362.0,0.3662
362.5,0.5069
363.0,0.4553
363.5,0.4194
364.0,0.5129
364.5,0.4384
365.0,0.4466
365.5,0.5605
366.0,0.5939
366.5,0.558
367.0,0.5435
367.5,0.564
368.0,0.4936
368.5,0.4981
369.0,0.538
369.5,0.5734
370.0,0.6113
370.5,0.4745
371.0,0.5071
371.5,0.6344
372.0,0.4211
372.5,0.5049
373.0,0.5137
373.5,0.3342
374.0,0.4857
374.5,0.4023
375.0,0.3911
375.5,0.5839
376.0,0.4841
376.5,0.5017
377.0,0.5312
377.5,0.6215
378.0,0.6738
378.5,0.6369
379.0,0.5257
379.5,0.4802
380.0,0.4993
380.5,0.6048
381.0,0.6061
381.5,0.4805
382.0,0.4268
382.5,0.3638
383.0,0.3368
383.5,0.3245
384.0,0.3579
384.5,0.5265
385.0,0.5222
385.5,0.4863
386.0,0.4166
386.5,0.5472
387.0,0.4548
387.5,0.5108
388.0,0.4717
388.5,0.4663
389.0,0.5034
389.5,0.6097
390.0,0.612
390.5,0.5633
391.0,0.6631
391.5,0.6764
392.0,0.5697
392.5,0.5101
393.0,0.2839
393.5,0.2063
394.0,0.4199
394.5,0.5339
395.0,0.6516
395.5,0.662
396.0,0.574
396.5,0.3355
397.0,0.2518
397.5,0.5122
398.0,0.7173
398.5,0.7415
399.0,0.803
399.5,0.8004
400.0,0.8312
401.0,0.844
402.0,0.8905
403.0,0.846
404.0,0.8331
405.0,0.833
406.0,0.8196
407.0,0.8064
408.0,0.838
409.0,0.897
410.0,0.7838
411.0,0.8491
412.0,0.9119
413.0,0.8894
414.0,0.9004
415.0,0.9028
416.0,0.9186
417.0,0.8961
418.0,0.8796
419.0,0.8912
420.0,0.8873
421.0,0.9283
422.0,0.8824
423.0,0.862
424.0,0.9118
425.0,0.9101
426.0,0.8865
427.0,0.87
428.0,0.8475
429.0,0.8027
430.0,0.7025
431.0,0.6964
432.0,0.8991
433.0,0.9041
434.0,0.8395
435.0,0.8769
436.0,0.9879
437.0,0.9746
438.0,0.8874
439.0,0.9181
440.0,0.9473
441.0,0.9815
442.0,1.053
443.0,1.025
444.0,1.048
445.0,1.025
446.0,0.9781
447.0,1.057
448.0,1.074
449.0,1.078
450.0,1.108
451.0,1.149
452.0,1.107
453.0,1.041
454.0,1.087
455.0,1.094
456.0,1.12
457.0,1.138
458.0,1.1
459.0,1.094
460.0,1.097
461.0,1.122
462.0,1.131
463.0,1.123
464.0,1.104
465.0,1.09
466.0,1.1
467.0,1.08
468.0,1.093
469.0,1.099
470.0,1.064
471.0,1.063
472.0,1.12
473.0,1.105
474.0,1.107
475.0,1.117
476.0,1.083
477.0,1.087
478.0,1.117
479.0,1.11
480.0,1.112
481.0,1.132
482.0,1.138
483.0,1.124
484.0,1.101
485.0,1.049
486.0,0.9166
487.0,0.9605
488.0,1.054
489.0,1.057
490.0,1.112
491.0,1.093
492.0,1.032
493.0,1.066
494.0,1.076
495.0,1.085
496.0,1.092
497.0,1.109
498.0,1.057
499.0,1.071
500.0,1.04
501.0,1.021
502.0,1.007
503.0,1.048
504.0,1.022
505.0,1.058
506.0,1.093
507.0,1.04
508.0,1.007
509.0,1.035
510.0,1.029
511.0,1.057
512.0,1.068
513.0,1.011
514.0,1.004
515.0,0.9938
516.0,0.9914
517.0,0.8809
518.0,0.9261
519.0,0.9714
520.0,1.007
521.0,1.016
522.0,1.017
523.0,0.9991
524.0,1.035
525.0,1.047
526.0,1.001
527.0,0.9431
528.0,0.9976
529.0,1.052
530.0,1.037
531.0,1.052
532.0,1.016
533.0,0.9862
534.0,1.015
535.0,1.037
536.0,1.047
537.0,1.005
538.0,1.023
539.0,1.014
540.0,0.9727
541.0,0.9794
542.0,1.01
543.0,0.9993
544.0,1.017
545.0,1.014
546.0,1.018
547.0,1.018
548.0,1.005
549.0,1.008
550.0,1.02
551.0,1.008
552.0,1.015
553.0,0.9969
554.0,1.021
555.0,1.023
556.0,1.01
557.0,0.9783
558.0,0.971
559.0,0.9531
560.0,0.965
561.0,0.9777
562.0,0.9707
563.0,0.9974
564.0,0.9704
565.0,0.9622
566.0,0.9482
567.0,0.9663
568.0,0.9581
569.0,0.9361
570.0,0.9358
571.0,0.9299
572.0,0.9528
573.0,0.9631
574.0,0.9601
575.0,0.9424
576.0,0.9338
577.0,0.9439
578.0,0.9295
579.0,0.9328
580.0,0.9499
581.0,0.9544
582.0,0.9721
583.0,0.9741
584.0,0.9824
585.0,0.9583
586.0,0.9385
587.0,0.9594
588.0,0.9371
589.0,0.8322
590.0,0.8702
591.0,0.9196
592.0,0.9087
593.0,0.9212
594.0,0.9152
595.0,0.8933
596.0,0.9269
597.0,0.9173
598.0,0.9144
599.0,0.915
600.0,0.9159
601.0,0.9081
602.0,0.9019
603.0,0.9167
604.0,0.9318
605.0,0.9269
606.0,0.9229
607.0,0.9319
608.0,0.9214
609.0,0.9229
610.0,0.9161
611.0,0.9208
612.0,0.918
613.0,0.9064
614.0,0.8939
615.0,0.9132
616.0,0.883
617.0,0.8811
618.0,0.9149
619.0,0.9056
620.0,0.9114
621.0,0.9124
622.0,0.9018
623.0,0.8882
624.0,0.8729
625.0,0.8709
626.0,0.8838
627.0,0.8941
628.0,0.8392
629.0,0.8744
630.0,0.8544
631.0,0.8722
632.0,0.8615
633.0,0.8871
634.0,0.878
635.0,0.8915
636.0,0.8794
637.0,0.8936
638.0,0.9019
639.0,0.8916
640.0,0.8828
641.0,0.8821
642.0,0.8779
643.0,0.8897
644.0,0.8867
645.0,0.8882
646.0,0.868
647.0,0.8588
648.0,0.8597
649.0,0.8432
650.0,0.8458
651.0,0.8821
652.0,0.847
653.0,0.8704
654.0,0.8606
655.0,0.8293
656.0,0.7344
657.0,0.7542
658.0,0.8447
659.0,0.8506
660.0,0.854
661.0,0.86
662.0,0.862
663.0,0.8449
664.0,0.8545
665.0,0.8548
666.0,0.8553
667.0,0.8544
668.0,0.8546
669.0,0.8677
670.0,0.8639
671.0,0.8636
672.0,0.8562
673.0,0.869
674.0,0.8657
675.0,0.8578
676.0,0.8636
677.0,0.855
678.0,0.8573
679.0,0.8435
680.0,0.8502
681.0,0.8445
682.0,0.8435
683.0,0.8418
684.0,0.8376
685.0,0.8447
686.0,0.8398
687.0,0.5757
688.0,0.6661
689.0,0.6682
690.0,0.6979
691.0,0.7313
692.0,0.7553
693.0,0.7494
694.0,0.7431
695.0,0.7717
696.0,0.7727
697.0,0.8173
698.0,0.8046
699.0,0.7872
700.0,0.7777
701.0,0.7704
702.0,0.7751
703.0,0.7765
704.0,0.8002
705.0,0.8014
706.0,0.8003
707.0,0.8007
708.0,0.8025
709.0,0.803
710.0,0.8033
711.0,0.802
712.0,0.7993
713.0,0.7915
714.0,0.7944
715.0,0.77
716.0,0.7706
717.0,0.675
718.0,0.6211
719.0,0.5696
720.0,0.5972
721.0,0.6551
722.0,0.7451
723.0,0.6959
724.0,0.6296
725.0,0.6204
726.0,0.649
727.0,0.6567
728.0,0.6192
729.0,0.64
730.0,0.6772
731.0,0.6486
732.0,0.6913
733.0,0.7294
734.0,0.746
735.0,0.731
736.0,0.73
737.0,0.733
738.0,0.7426
739.0,0.728
740.0,0.7465
741.0,0.7388
742.0,0.7392
743.0,0.7579
744.0,0.7556
745.0,0.7556
746.0,0.759
747.0,0.7607
748.0,0.7591
749.0,0.7504
750.0,0.7499
751.0,0.7423
752.0,0.7455
753.0,0.7492
754.0,0.7509
755.0,0.7467
756.0,0.7463
757.0,0.7474
758.0,0.7382
759.0,0.7241
760.0,0.1371
761.0,0.07518
762.0,0.3879
763.0,0.2034
764.0,0.2974
765.0,0.388
766.0,0.4683
767.0,0.5828
768.0,0.6662
769.0,0.6788
770.0,0.7003
771.0,0.7052
772.0,0.7065
773.0,0.7114
774.0,0.7079
775.0,0.7025
776.0,0.711
777.0,0.7016
778.0,0.6974
779.0,0.6979
780.0,0.694
781.0,0.6947
782.0,0.699
783.0,0.6869
784.0,0.6901
785.0,0.6851
786.0,0.6927
787.0,0.6813
788.0,0.6731
789.0,0.6729
790.0,0.656
791.0,0.6607
792.0,0.6557
793.0,0.6452
794.0,0.6553
795.0,0.6666
796.0,0.6474
797.0,0.6483
798.0,0.6659
799.0,0.6619
800.0,0.6508
801.0,0.649
802.0,0.6471
803.0,0.6424
804.0,0.6431
805.0,0.6407
806.0,0.6581
807.0,0.6503
808.0,0.6508
809.0,0.6391
810.0,0.6342
811.0,0.6356
812.0,0.6184
813.0,0.606
814.0,0.5362
815.0,0.5328
816.0,0.4963
817.0,0.5051
818.0,0.4869
819.0,0.5417
820.0,0.5111
821.0,0.5938
822.0,0.5775
823.0,0.3984
824.0,0.5619
825.0,0.5837
826.0,0.5626
827.0,0.5926
828.0,0.5057
829.0,0.559
830.0,0.552
831.0,0.5538
832.0,0.5374
833.0,0.5702
834.0,0.551
835.0,0.6031
836.0,0.5787
837.0,0.6047
838.0,0.5865
839.0,0.5954
840.0,0.6083
841.0,0.5999
842.0,0.6008
843.0,0.6001
844.0,0.5919
845.0,0.6116
846.0,0.6089
847.0,0.5974
848.0,0.5939
849.0,0.577
850.0,0.5528
851.0,0.5855
852.0,0.5813
853.0,0.5594
854.0,0.4831
855.0,0.5306
856.0,0.5799
857.0,0.5927
858.0,0.5884
859.0,0.5889
860.0,0.5899
861.0,0.5866
862.0,0.5958
863.0,0.6099
864.0,0.5794
865.0,0.5743
866.0,0.5164
867.0,0.5389
868.0,0.5864
869.0,0.5743
870.0,0.5906
871.0,0.5826
872.0,0.5805
873.0,0.5794
874.0,0.5725
875.0,0.5609
876.0,0.5667
877.0,0.5724
878.0,0.5787
879.0,0.5698
880.0,0.5575
881.0,0.5493
882.0,0.5612
883.0,0.5629
884.0,0.5603
885.0,0.5645
886.0,0.5383
887.0,0.5438
888.0,0.5519
889.0,0.558
890.0,0.5536
891.0,0.5525
892.0,0.5369
893.0,0.5204
894.0,0.5029
895.0,0.4761
896.0,0.4489
897.0,0.3868
898.0,0.4214
899.0,0.322
900.0,0.4307
901.0,0.3375
902.0,0.3941
903.0,0.3986
904.0,0.4991
905.0,0.4823
906.0,0.4517
907.0,0.3688
908.0,0.3758
909.0,0.4063
910.0,0.3608
911.0,0.3836
912.0,0.4008
913.0,0.3662
914.0,0.3628
915.0,0.3933
916.0,0.3332
917.0,0.4214
918.0,0.3417
919.0,0.4286
920.0,0.4322
921.0,0.4494
922.0,0.4028
923.0,0.4341
924.0,0.4129
925.0,0.404
926.0,0.4084
927.0,0.4562
928.0,0.3373
929.0,0.3085
930.0,0.2434
931.0,0.2305
932.0,0.1668
933.0,0.136
934.0,0.07549
935.0,0.1389
936.0,0.08725
937.0,0.08849
938.0,0.1086
939.0,0.2233
940.0,0.268
941.0,0.2031
942.0,0.2347
943.0,0.1549
944.0,0.1626
945.0,0.2092
946.0,0.1072
947.0,0.2104
948.0,0.1546
949.0,0.2809
950.0,0.07908
951.0,0.2765
952.0,0.1494
953.0,0.1924
954.0,0.2353
955.0,0.1945
956.0,0.1885
957.0,0.1497
958.0,0.2662
959.0,0.2122
960.0,0.2378
961.0,0.2664
962.0,0.2521
963.0,0.2902
964.0,0.266
965.0,0.2891
966.0,0.2892
967.0,0.2881
968.0,0.3846
969.0,0.4019
970.0,0.3693
971.0,0.422
972.0,0.4039
973.0,0.3523
974.0,0.3345
975.0,0.3469
976.0,0.3298
977.0,0.3746
978.0,0.3561
979.0,0.3728
980.0,0.3506
981.0,0.4196
982.0,0.4014
983.0,0.3855
984.0,0.432
985.0,0.3999
986.0,0.4394
987.0,0.4311
988.0,0.4303
989.0,0.438
990.0,0.4277
991.0,0.4393
992.0,0.4419
993.0,0.4322
994.0,0.4417
995.0,0.4411
996.0,0.4392
997.0,0.4398
998.0,0.4378
999.0,0.4362
1000.0,0.4331
1001.0,0.4385
1002.0,0.4266
1003.0,0.4308
1004.0,0.4203
1005.0,0.4048
1006.0,0.4207
1007.0,0.4296
1008.0,0.4273
1009.0,0.425
1010.0,0.4232
1011.0,0.4274
1012.0,0.4237
1013.0,0.4263
1014.0,0.4233
1015.0,0.4205
1016.0,0.4187
1017.0,0.4197
1018.0,0.4181
1019.0,0.4093
1020.0,0.4159
1021.0,0.4154
1022.0,0.4121
1023.0,0.4165
1024.0,0.4112
1025.0,0.4162
1026.0,0.4144
1027.0,0.4135
1028.0,0.4126
1029.0,0.4078
1030.0,0.4105
1031.0,0.4089
1032.0,0.4077
1033.0,0.4016
1034.0,0.4016
1035.0,0.4028
1036.0,0.4049
1037.0,0.3983
1038.0,0.4001
1039.0,0.3999
1040.0,0.3983
1041.0,0.3999
1042.0,0.3971
1043.0,0.3958
1044.0,0.3972
1045.0,0.3918
1046.0,0.3875
1047.0,0.391
1048.0,0.3931
1049.0,0.3917
1050.0,0.3899
1051.0,0.3894
1052.0,0.3878
1053.0,0.3847
1054.0,0.3855
1055.0,0.3858
1056.0,0.3844
1057.0,0.3832
1058.0,0.3738
1059.0,0.3742
1060.0,0.3737
1061.0,0.3732
1062.0,0.3752
1063.0,0.3715
1064.0,0.3759
1065.0,0.3732
1066.0,0.3658
1067.0,0.3705
1068.0,0.3625
1069.0,0.3513
1070.0,0.3632
1071.0,0.3688
1072.0,0.3646
1073.0,0.3593
1074.0,0.3686
1075.0,0.3502
1076.0,0.3683
1077.0,0.3617
1078.0,0.3549
1079.0,0.3623
1080.0,0.3562
1081.0,0.3448
1082.0,0.3502
1083.0,0.3513
1084.0,0.344
1085.0,0.357
1086.0,0.326
1087.0,0.3363
1088.0,0.3509
1089.0,0.3403
1090.0,0.3329
1091.0,0.3498
1092.0,0.3489
1093.0,0.2963
1094.0,0.3193
1095.0,0.3086
1096.0,0.2956
1097.0,0.3408
1098.0,0.291
1099.0,0.3035
1100.0,0.2823
1101.0,0.2858
1102.0,0.2731
1103.0,0.2705
1104.0,0.2709
1105.0,0.2966
1106.0,0.2276
1107.0,0.2819
1108.0,0.2394
1109.0,0.2397
1110.0,0.2795
1111.0,0.1901
1112.0,0.2378
1113.0,0.1519
1114.0,0.1698
1115.0,0.1408
1116.0,0.1127
1117.0,0.04168
1118.0,0.1225
1119.0,0.06101
1120.0,0.07681
1121.0,0.1018
1122.0,0.04302
1123.0,0.0694
1124.0,0.05858
1125.0,0.07638
1126.0,0.02675
1127.0,0.08614
1128.0,0.05171
1129.0,0.05485
1130.0,0.03615
1131.0,0.1629
1132.0,0.1279
1133.0,0.08128
1134.0,0.02089
1135.0,0.007821
1136.0,0.06788
1137.0,0.1601
1138.0,0.1128
1139.0,0.1678
1140.0,0.1404
1141.0,0.1072
1142.0,0.1233
1143.0,0.1749
1144.0,0.0613
1145.0,0.07839
1146.0,0.08455
1147.0,0.0299
1148.0,0.1513
1149.0,0.121
1150.0,0.06591
1151.0,0.112
1152.0,0.1377
1153.0,0.134
1154.0,0.07599
1155.0,0.1751
1156.0,0.1578
1157.0,0.1768
1158.0,0.1749
1159.0,0.1885
1160.0,0.1613
1161.0,0.1982
1162.0,0.1993
1163.0,0.268
1164.0,0.2303
1165.0,0.2177
1166.0,0.2159
1167.0,0.2349
1168.0,0.2376
1169.0,0.2431
1170.0,0.2637
1171.0,0.2572
1172.0,0.2616
1173.0,0.2632
1174.0,0.1892
1175.0,0.2569
1176.0,0.2817
1177.0,0.2709
1178.0,0.2045
1179.0,0.2839
1180.0,0.2542
1181.0,0.2623
1182.0,0.1822
1183.0,0.2581
1184.0,0.2423
1185.0,0.2342
1186.0,0.2764
1187.0,0.2636
1188.0,0.1854
1189.0,0.2457
1190.0,0.2701
1191.0,0.2572
1192.0,0.2738
1193.0,0.2626
1194.0,0.2705
1195.0,0.2563
1196.0,0.2472
1197.0,0.2703
1198.0,0.2477
1199.0,0.2119
1200.0,0.2593
1201.0,0.2505
1202.0,0.2488
1203.0,0.2468
1204.0,0.2165
1205.0,0.2543
1206.0,0.2802
1207.0,0.2483
1208.0,0.244
1209.0,0.249
1210.0,0.2591
1211.0,0.2472
1212.0,0.2448
1213.0,0.2712
1214.0,0.2504
1215.0,0.2458
1216.0,0.2703
1217.0,0.2635
1218.0,0.2682
1219.0,0.265
1220.0,0.2684
1221.0,0.2709
1222.0,0.264
1223.0,0.2617
1224.0,0.2603
1225.0,0.2692
1226.0,0.2709
1227.0,0.2505
1228.0,0.2721
1229.0,0.2709
1230.0,0.2664
1231.0,0.2735
1232.0,0.2719
1233.0,0.2631
1234.0,0.2732
1235.0,0.2715
1236.0,0.2734
1237.0,0.2698
1238.0,0.2725
1239.0,0.269
1240.0,0.27
1241.0,0.2689
1242.0,0.2682
1243.0,0.266
1244.0,0.2679
1245.0,0.269
1246.0,0.2675
1247.0,0.2665
1248.0,0.2663
1249.0,0.2671
1250.0,0.2655
1251.0,0.2622
1252.0,0.2622
1253.0,0.2602
1254.0,0.2578
1255.0,0.2619
1256.0,0.2549
1257.0,0.2536
1258.0,0.2581
1259.0,0.2493
1260.0,0.2505
1261.0,0.2372
1262.0,0.2304
1263.0,0.2309
1264.0,0.2139
1265.0,0.2294
1266.0,0.2212
1267.0,0.2247
1268.0,0.2137
1269.0,0.1362
1270.0,0.2241
1271.0,0.2363
1272.0,0.237
1273.0,0.2345
1274.0,0.2352
1275.0,0.2384
1276.0,0.2406
1277.0,0.2421
1278.0,0.2464
1279.0,0.2442
1280.0,0.2411
1281.0,0.2299
1282.0,0.2213
1283.0,0.2384
1284.0,0.2442
1285.0,0.2458
1286.0,0.249
1287.0,0.2453
1288.0,0.2452
1289.0,0.2379
1290.0,0.243
1291.0,0.2463
1292.0,0.2323
1293.0,0.2418
1294.0,0.2401
1295.0,0.2391
1296.0,0.2288
1297.0,0.2168
1298.0,0.2326
1299.0,0.242
1300.0,0.2062
1301.0,0.2123
1302.0,0.2318
1303.0,0.2033
1304.0,0.1747
1305.0,0.2271
1306.0,0.2273
1307.0,0.178
1308.0,0.2034
1309.0,0.2256
1310.0,0.1747
1311.0,0.1953
1312.0,0.1902
1313.0,0.1868
1314.0,0.1676
1315.0,0.1657
1316.0,0.1924
1317.0,0.1824
1318.0,0.1978
1319.0,0.156
1320.0,0.1508
1321.0,0.1752
1322.0,0.1772
1323.0,0.1344
1324.0,0.153
1325.0,0.1898
1326.0,0.1636
1327.0,0.1562
1328.0,0.135
1329.0,0.1022
1330.0,0.1326
1331.0,0.08097
1332.0,0.08331
1333.0,0.1158
1334.0,0.09761
1335.0,0.1339
1336.0,0.1063
1337.0,0.09426
1338.0,0.102
1339.0,0.1014
1340.0,0.09843
1341.0,0.09663
1342.0,0.1015
1343.0,0.06971
1344.0,0.04169
1345.0,0.06006
1346.0,0.03045
1347.0,0.03107
1348.0,0.00213
1349.0,0.007536
1350.0,0.007741
1351.0,0.001978
1352.0,0.0005651
1353.0,3.069e-05
1354.0,0.0001016
1355.0,9.324e-07
1356.0,1.506e-05
1357.0,2.292e-05
1358.0,1.099e-06
1359.0,1.527e-07
1360.0,5.206e-07
1361.0,7.159e-10
1362.0,2.144e-12
1363.0,7.263e-07
1364.0,3.025e-07
1365.0,8.435e-13
1366.0,3.095e-06
1367.0,1.247e-06
1368.0,8.171e-15
1369.0,1.137e-07
1370.0,5.848e-08
1371.0,3.496e-09
1372.0,6.859e-07
1373.0,1.298e-05
1374.0,5.775e-05
1375.0,0.0001052
1376.0,9.123e-05
1377.0,4.222e-05
1378.0,0.0004056
1379.0,1.777e-05
1380.0,2.632e-05
1381.0,7.067e-07
1382.0,6.26e-07
1383.0,9.744e-09
1384.0,1.308e-07
1385.0,5.657e-07
1386.0,5.742e-07
1387.0,6.158e-05
1388.0,1.218e-06
1389.0,0.0001991
1390.0,0.0001715
1391.0,0.0001155
1392.0,7.627e-06
1393.0,3.954e-05
1394.0,2.195e-05
1395.0,1.7e-07
1396.0,1.004e-09
1397.0,1.603e-05
1398.0,0.0004578
1399.0,0.0002902
1400.0,4.58e-10
1401.0,1.771e-09
1402.0,0.0007628
1403.0,0.0009691
1404.0,0.0002968
1405.0,8.577e-08
1406.0,0.0007864
1407.0,6.86e-05
1408.0,0.0006413
1409.0,0.0002219
1410.0,0.0001743
1411.0,0.0008505
1412.0,0.001132
1413.0,0.01125
1414.0,0.000137
1415.0,6.672e-05
1416.0,0.0182
1417.0,0.005563
1418.0,0.006346
1419.0,0.0009872
1420.0,0.003884
1421.0,0.004201
1422.0,0.02375
1423.0,0.004613
1424.0,0.008638
1425.0,0.01273
1426.0,0.01442
1427.0,0.02648
1428.0,0.002009
1429.0,0.01981
1430.0,0.03376
1431.0,0.03709
1432.0,0.001583
1433.0,0.02357
1434.0,0.01198
1435.0,0.01194
1436.0,0.02311
1437.0,0.01771
1438.0,0.007456
1439.0,0.03146
1440.0,0.02356
1441.0,0.0179
1442.0,0.01987
1443.0,0.02504
1444.0,0.03476
1445.0,0.02709
1446.0,0.01215
