interpolation:linear
wavelength,value
280.0,3.588e-21
280.5,1.118e-19
281.0,5.886e-19
281.5,3.83e-19
282.0,1.12e-18
282.5,2.949e-18
283.0,9.536e-18
283.5,1.561e-17
284.0,2.53e-16
284.5,7.288e-16
285.0,1.629e-15
285.5,7.993e-15
286.0,3.203e-14
286.5,1.415e-13
287.0,4.006e-13
287.5,1.515e-12
288.0,3.949e-12
288.5,1.331e-11
289.0,3.822e-11
289.5,1.222e-10
290.0,3.513e-10
290.5,7.341e-10
291.0,1.614e-09
291.5,4.882e-09
292.0,1.073e-08
292.5,1.63e-08
293.0,3.867e-08
293.5,1.082e-07
294.0,1.87e-07
294.5,2.423e-07
295.0,4.536e-07
295.5,1.216e-06
296.0,2.437e-06
296.5,3.553e-06
297.0,4.989e-06
297.5,1.42e-05
298.0,2.364e-05
298.5,2.488e-05
299.0,5.747e-05
299.5,0.0001039
300.0,0.0001204
300.5,0.0001848
301.0,0.0003707
301.5,0.0006611
302.0,0.0006057
302.5,0.001192
303.0,0.002159
303.5,0.002734
304.0,0.002578
304.5,0.003878
305.0,0.005937
305.5,0.006838
306.0,0.006633
306.5,0.008287
307.0,0.01237
307.5,0.01653
308.0,0.01748
308.5,0.02069
309.0,0.02036
309.5,0.02333
310.0,0.02345
310.5,0.038
311.0,0.04773
311.5,0.04609
312.0,0.04612
312.5,0.05614
313.0,0.06091
313.5,0.05916
314.0,0.07399
314.5,0.06562
315.0,0.08624
315.5,0.07216
316.0,0.06302
316.5,0.09049
317.0,0.1124
317.5,0.117
318.0,0.09124
318.5,0.1132
319.0,0.1343
319.5,0.1096
320.0,0.1325
320.5,0.1656
321.0,0.1473
321.5,0.1413
322.0,0.1508
322.5,0.1312
323.0,0.1306
323.5,0.1603
324.0,0.1872
324.5,0.1901
325.0,0.1644
325.5,0.2112
326.0,0.2583
326.5,0.2585
327.0,0.2577
327.5,0.2491
328.0,0.2221
328.5,0.2331
329.0,0.2788
329.5,0.3165
330.0,0.3194
330.5,0.2559
331.0,0.2609
331.5,0.265
332.0,0.2861
332.5,0.2829
333.0,0.2822
333.5,0.2556
334.0,0.262
334.5,0.3021
335.0,0.2838
335.5,0.3315
336.0,0.2294
336.5,0.2688
337.0,0.2206
337.5,0.2745
338.0,0.2679
338.5,0.3093
339.0,0.3062
339.5,0.2946
340.0,0.3463
340.5,0.3122
341.0,0.3045
341.5,0.2796
342.0,0.3343
342.5,0.3128
343.0,0.3441
343.5,0.3241
344.0,0.2396
344.5,0.242
345.0,0.3203
345.5,0.3272
346.0,0.2781
346.5,0.315
347.0,0.3382
347.5,0.2735
348.0,0.3119
348.5,0.3119
349.0,0.2894
349.5,0.2866
350.0,0.3546
350.5,0.3741
351.0,0.3343
351.5,0.3249
352.0,0.3491
352.5,0.2725
353.0,0.3433
353.5,0.3672
354.0,0.3813
354.5,0.3868
355.0,0.3855
355.5,0.3484
356.0,0.3646
356.5,0.3114
357.0,0.2573
357.5,0.3151
358.0,0.2498
358.5,0.2135
359.0,0.2987
359.5,0.3807
360.0,0.4036
360.5,0.3227
361.0,0.2942
361.5,0.3389
362.0,0.2932
362.5,0.406
363.0,0.3647
363.5,0.3361
364.0,0.4112
364.5,0.3515
365.0,0.3581
365.5,0.4496
366.0,0.4765
366.5,0.4478
367.0,0.4362
367.5,0.4528
368.0,0.3964
368.5,0.4001
369.0,0.4322
369.5,0.4608
370.0,0.4913
370.5,0.3814
371.0,0.4077
371.5,0.5102
372.0,0.3387
372.5,0.4062
373.0,0.4133
373.5,0.269
374.0,0.391
374.5,0.3239
375.0,0.3149
375.5,0.4702
376.0,0.3899
376.5,0.4041
377.0,0.428
377.5,0.5009
378.0,0.5431
378.5,0.5134
379.0,0.4237
379.5,0.3871
380.0,0.4026
380.5,0.4878
381.0,0.489
381.5,0.3877
382.0,0.3445
382.5,0.2937
383.0,0.272
383.5,0.2621
384.0,0.2892
384.5,0.4255
385.0,0.422
385.5,0.3932
386.0,0.3368
386.5,0.4426
387.0,0.3678
387.5,0.4132
388.0,0.3816
388.5,0.3774
389.0,0.4074
389.5,0.4936
390.0,0.4955
390.5,0.4561
391.0,0.5371
391.5,0.5479
392.0,0.4616
392.5,0.4134
393.0,0.2301
393.5,0.1673
394.0,0.3405
394.5,0.433
395.0,0.5285
395.5,0.5369
396.0,0.4656
396.5,0.2723
397.0,0.2044
397.5,0.4158
398.0,0.5823
398.5,0.602
399.0,0.6522
399.5,0.6502
400.0,0.6752
401.0,0.6846
402.0,0.7226
403.0,0.6868
404.0,0.6764
405.0,0.6766
406.0,0.6659
407.0,0.6555
408.0,0.6812
409.0,0.7294
410.0,0.6376
411.0,0.6909
412.0,0.7424
413.0,0.7242
414.0,0.7333
415.0,0.7356
416.0,0.7487
417.0,0.7305
418.0,0.7173
419.0,0.7269
420.0,0.7239
421.0,0.7576
422.0,0.7203
423.0,0.7038
424.0,0.7445
425.0,0.7434
426.0,0.7245
427.0,0.7111
428.0,0.6928
429.0,0.6565
430.0,0.5747
431.0,0.5697
432.0,0.7358
433.0,0.7401
434.0,0.6873
435.0,0.7179
436.0,0.8092
437.0,0.7986
438.0,0.7274
439.0,0.7523
440.0,0.7765
441.0,0.8048
442.0,0.8633
443.0,0.8409
444.0,0.8594
445.0,0.8408
446.0,0.8027
447.0,0.8681
448.0,0.8816
449.0,0.8854
450.0,0.9103
451.0,0.9443
452.0,0.9099
453.0,0.856
454.0,0.8938
455.0,0.8994
456.0,0.9209
457.0,0.9363
458.0,0.9043
459.0,0.8998
460.0,0.9022
461.0,0.9231
462.0,0.9304
463.0,0.924
464.0,0.909
465.0,0.8977
466.0,0.9066
467.0,0.89
468.0,0.9005
469.0,0.9053
470.0,0.8764
471.0,0.8754
472.0,0.9224
473.0,0.9105
474.0,0.9117
475.0,0.9194
476.0,0.8918
477.0,0.8942
478.0,0.9191
479.0,0.9136
480.0,0.9155
481.0,0.9327
482.0,0.9378
483.0,0.9267
484.0,0.9078
485.0,0.865
486.0,0.7563
487.0,0.7927
488.0,0.8697
489.0,0.8724
490.0,0.9179
491.0,0.9022
492.0,0.852
493.0,0.8799
494.0,0.8888
495.0,0.8964
496.0,0.9019
497.0,0.9159
498.0,0.8731
499.0,0.8842
500.0,0.8584
501.0,0.8426
502.0,0.8305
503.0,0.8642
504.0,0.8416
505.0,0.8722
506.0,0.9004
507.0,0.8568
508.0,0.8303
509.0,0.8538
510.0,0.8494
511.0,0.8723
512.0,0.8818
513.0,0.8347
514.0,0.829
515.0,0.8208
516.0,0.8188
517.0,0.7276
518.0,0.7649
519.0,0.8023
520.0,0.8314
521.0,0.8393
522.0,0.84
523.0,0.8249
524.0,0.8543
525.0,0.8642
526.0,0.8255
527.0,0.7778
528.0,0.8225
529.0,0.8669
530.0,0.8544
531.0,0.867
532.0,0.8372
533.0,0.8127
534.0,0.8367
535.0,0.8551
536.0,0.863
537.0,0.829
538.0,0.8437
539.0,0.8366
540.0,0.8021
541.0,0.8072
542.0,0.8324
543.0,0.8238
544.0,0.8379
545.0,0.8354
546.0,0.8389
547.0,0.8386
548.0,0.8287
549.0,0.8312
550.0,0.8411
551.0,0.8309
552.0,0.8367
553.0,0.8217
554.0,0.8414
555.0,0.843
556.0,0.832
557.0,0.8061
558.0,0.7999
559.0,0.7849
560.0,0.7946
561.0,0.8048
562.0,0.7989
563.0,0.8206
564.0,0.7981
565.0,0.7911
566.0,0.7794
567.0,0.7941
568.0,0.7866
569.0,0.7673
570.0,0.7672
571.0,0.7627
572.0,0.7806
573.0,0.7888
574.0,0.7862
575.0,0.7714
576.0,0.7644
577.0,0.7727
578.0,0.7614
579.0,0.7647
580.0,0.7797
581.0,0.7841
582.0,0.7993
583.0,0.8015
584.0,0.8086
585.0,0.789
586.0,0.7728
587.0,0.7895
588.0,0.7695
589.0,0.68
590.0,0.7113
591.0,0.7537
592.0,0.7436
593.0,0.7553
594.0,0.7498
595.0,0.7307
596.0,0.7609
597.0,0.7523
598.0,0.7508
599.0,0.7516
600.0,0.7531
601.0,0.7472
602.0,0.7422
603.0,0.7546
604.0,0.7671
605.0,0.7632
606.0,0.7602
607.0,0.7679
608.0,0.7596
609.0,0.761
610.0,0.7557
611.0,0.7598
612.0,0.7576
613.0,0.7482
614.0,0.7381
615.0,0.7543
616.0,0.7295
617.0,0.7281
618.0,0.7562
619.0,0.7486
620.0,0.7533
621.0,0.754
622.0,0.745
623.0,0.7336
624.0,0.7211
625.0,0.7195
626.0,0.7301
627.0,0.738
628.0,0.6853
629.0,0.7192
630.0,0.7025
631.0,0.7196
632.0,0.7112
633.0,0.7334
634.0,0.7267
635.0,0.7382
636.0,0.7287
637.0,0.7408
638.0,0.7482
639.0,0.74
640.0,0.733
641.0,0.7327
642.0,0.7295
643.0,0.7393
644.0,0.7371
645.0,0.7382
646.0,0.7205
647.0,0.7109
648.0,0.7115
649.0,0.6977
650.0,0.7024
651.0,0.7331
652.0,0.7011
653.0,0.7234
654.0,0.7155
655.0,0.6881
656.0,0.6104
657.0,0.6269
658.0,0.703
659.0,0.7082
660.0,0.7112
661.0,0.7163
662.0,0.7175
663.0,0.7034
664.0,0.7121
665.0,0.713
666.0,0.7136
667.0,0.7131
668.0,0.7136
669.0,0.7247
670.0,0.7217
671.0,0.7216
672.0,0.7155
673.0,0.7263
674.0,0.7236
675.0,0.7171
676.0,0.7221
677.0,0.715
678.0,0.7171
679.0,0.7055
680.0,0.7112
681.0,0.7065
682.0,0.7056
683.0,0.7043
684.0,0.7008
685.0,0.7068
686.0,0.7026
687.0,0.4497
688.0,0.5349
689.0,0.5371
690.0,0.566
691.0,0.5988
692.0,0.6231
693.0,0.6177
694.0,0.6127
695.0,0.6401
696.0,0.641
697.0,0.6828
698.0,0.6721
699.0,0.6544
700.0,0.6464
701.0,0.6393
702.0,0.6443
703.0,0.6456
704.0,0.6673
705.0,0.6683
706.0,0.6681
707.0,0.6687
708.0,0.6701
709.0,0.6717
710.0,0.6714
711.0,0.6707
712.0,0.669
713.0,0.662
714.0,0.6645
715.0,0.6429
716.0,0.6431
717.0,0.5517
718.0,0.5058
719.0,0.4628
720.0,0.4842
721.0,0.5383
722.0,0.6198
723.0,0.5749
724.0,0.5156
725.0,0.5065
726.0,0.5305
727.0,0.5396
728.0,0.5049
729.0,0.526
730.0,0.5565
731.0,0.5318
732.0,0.5712
733.0,0.6068
734.0,0.6218
735.0,0.6086
736.0,0.6078
737.0,0.6102
738.0,0.6211
739.0,0.6089
740.0,0.6252
741.0,0.6193
742.0,0.6202
743.0,0.636
744.0,0.6344
745.0,0.6347
746.0,0.6376
747.0,0.639
748.0,0.6377
749.0,0.6304
750.0,0.63
751.0,0.6237
752.0,0.6264
753.0,0.6296
754.0,0.631
755.0,0.6274
756.0,0.6271
757.0,0.628
758.0,0.6202
759.0,0.6067
760.0,0.08536
761.0,0.0421
762.0,0.2918
763.0,0.136
764.0,0.2129
765.0,0.2918
766.0,0.3669
767.0,0.472
768.0,0.5522
769.0,0.5655
770.0,0.5866
771.0,0.5922
772.0,0.5937
773.0,0.598
774.0,0.5951
775.0,0.5906
776.0,0.5979
777.0,0.59
778.0,0.5864
779.0,0.5869
780.0,0.5836
781.0,0.5842
782.0,0.5879
783.0,0.5777
784.0,0.5805
785.0,0.5761
786.0,0.5824
787.0,0.5715
788.0,0.564
789.0,0.5637
790.0,0.5476
791.0,0.5534
792.0,0.5495
793.0,0.5405
794.0,0.5509
795.0,0.5599
796.0,0.5412
797.0,0.5418
798.0,0.559
799.0,0.5552
800.0,0.5452
801.0,0.5432
802.0,0.5416
803.0,0.5373
804.0,0.5382
805.0,0.5369
806.0,0.5527
807.0,0.5459
808.0,0.5465
809.0,0.5357
810.0,0.5309
811.0,0.5308
812.0,0.5146
813.0,0.5033
814.0,0.4395
815.0,0.437
816.0,0.4063
817.0,0.4141
818.0,0.3978
819.0,0.4476
820.0,0.4205
821.0,0.4955
822.0,0.4807
823.0,0.3206
824.0,0.4652
825.0,0.4868
826.0,0.4671
827.0,0.4942
828.0,0.4152
829.0,0.4645
830.0,0.458
831.0,0.4597
832.0,0.4449
833.0,0.4753
834.0,0.4572
835.0,0.505
836.0,0.4816
837.0,0.5065
838.0,0.4899
839.0,0.4991
840.0,0.5103
841.0,0.5026
842.0,0.5043
843.0,0.5047
844.0,0.4973
845.0,0.5145
846.0,0.5124
847.0,0.503
848.0,0.4996
849.0,0.4854
850.0,0.4651
851.0,0.4922
852.0,0.4888
853.0,0.4708
854.0,0.4063
855.0,0.4467
856.0,0.488
857.0,0.4991
858.0,0.4953
859.0,0.4959
860.0,0.4968
861.0,0.4941
862.0,0.5019
863.0,0.5138
864.0,0.4881
865.0,0.4838
866.0,0.4351
867.0,0.454
868.0,0.4941
869.0,0.4838
870.0,0.4976
871.0,0.4909
872.0,0.4891
873.0,0.4882
874.0,0.4824
875.0,0.4726
876.0,0.4775
877.0,0.4823
878.0,0.4875
879.0,0.48
880.0,0.4697
881.0,0.4625
882.0,0.4725
883.0,0.4741
884.0,0.4719
885.0,0.4754
886.0,0.4526
887.0,0.4578
888.0,0.4643
889.0,0.4701
890.0,0.4655
891.0,0.465
892.0,0.4508
893.0,0.4358
894.0,0.4187
895.0,0.3934
896.0,0.3698
897.0,0.3148
898.0,0.3451
899.0,0.2591
900.0,0.3551
901.0,0.2716
902.0,0.3233
903.0,0.325
904.0,0.4156
905.0,0.4004
906.0,0.3739
907.0,0.2994
908.0,0.306
909.0,0.3335
910.0,0.2912
911.0,0.3128
912.0,0.3277
913.0,0.2954
914.0,0.2936
915.0,0.3183
916.0,0.2686
917.0,0.3447
918.0,0.2752
919.0,0.3521
920.0,0.3579
921.0,0.3725
922.0,0.3303
923.0,0.36
924.0,0.3381
925.0,0.3308
926.0,0.3342
927.0,0.3768
928.0,0.2686
929.0,0.243
930.0,0.1876
931.0,0.1781
932.0,0.1247
933.0,0.09951
934.0,0.05078
935.0,0.1033
936.0,0.06209
937.0,0.06268
938.0,0.07803
939.0,0.1725
940.0,0.2101
941.0,0.1551
942.0,0.1817
943.0,0.1168
944.0,0.1256
945.0,0.1607
946.0,0.07809
947.0,0.1604
948.0,0.1174
949.0,0.2183
950.0,0.05522
951.0,0.2157
952.0,0.111
953.0,0.1466
954.0,0.1833
955.0,0.1487
956.0,0.1467
957.0,0.1108
958.0,0.2126
959.0,0.1648
960.0,0.1848
961.0,0.2106
962.0,0.1989
963.0,0.2321
964.0,0.2118
965.0,0.2315
966.0,0.2308
967.0,0.2296
968.0,0.318
969.0,0.3311
970.0,0.3028
971.0,0.3511
972.0,0.3349
973.0,0.2871
974.0,0.2719
975.0,0.284
976.0,0.2672
977.0,0.309
978.0,0.2915
979.0,0.3067
980.0,0.2875
981.0,0.3492
982.0,0.3322
983.0,0.318
984.0,0.3617
985.0,0.331
986.0,0.3692
987.0,0.3606
988.0,0.3601
989.0,0.3688
990.0,0.3579
991.0,0.3698
992.0,0.3721
993.0,0.3625
994.0,0.3721
995.0,0.3718
996.0,0.37
997.0,0.3706
998.0,0.3688
999.0,0.3675
1000.0,0.3646
1001.0,0.3695
1002.0,0.358
1003.0,0.3629
1004.0,0.3537
1005.0,0.3412
1006.0,0.3543
1007.0,0.3619
1008.0,0.3597
1009.0,0.3575
1010.0,0.3559
1011.0,0.3601
1012.0,0.3567
1013.0,0.3593
1014.0,0.3568
1015.0,0.3544
1016.0,0.3528
1017.0,0.3536
1018.0,0.3524
1019.0,0.3444
1020.0,0.3505
1021.0,0.3501
1022.0,0.3472
1023.0,0.3509
1024.0,0.3458
1025.0,0.3508
1026.0,0.3492
1027.0,0.3484
1028.0,0.3476
1029.0,0.3435
1030.0,0.346
1031.0,0.3445
1032.0,0.3436
1033.0,0.3384
1034.0,0.3384
1035.0,0.3395
1036.0,0.3412
1037.0,0.3357
1038.0,0.3371
1039.0,0.3369
1040.0,0.3355
1041.0,0.3368
1042.0,0.3345
1043.0,0.3334
1044.0,0.3345
1045.0,0.33
1046.0,0.3263
1047.0,0.3292
1048.0,0.331
1049.0,0.3297
1050.0,0.3282
1051.0,0.3277
1052.0,0.3263
1053.0,0.3236
1054.0,0.3242
1055.0,0.3244
1056.0,0.3231
1057.0,0.3221
1058.0,0.3141
1059.0,0.3143
1060.0,0.3138
1061.0,0.3134
1062.0,0.315
1063.0,0.3118
1064.0,0.3155
1065.0,0.313
1066.0,0.307
1067.0,0.3109
1068.0,0.304
1069.0,0.2947
1070.0,0.3046
1071.0,0.3098
1072.0,0.3058
1073.0,0.3015
1074.0,0.3098
1075.0,0.2929
1076.0,0.3095
1077.0,0.3032
1078.0,0.2971
1079.0,0.3048
1080.0,0.2985
1081.0,0.2883
1082.0,0.2941
1083.0,0.2953
1084.0,0.2872
1085.0,0.2993
1086.0,0.2712
1087.0,0.2813
1088.0,0.2947
1089.0,0.2844
1090.0,0.2773
1091.0,0.2934
1092.0,0.2929
1093.0,0.2447
1094.0,0.2676
1095.0,0.2553
1096.0,0.2434
1097.0,0.2862
1098.0,0.2392
1099.0,0.2501
1100.0,0.2309
1101.0,0.2343
1102.0,0.2228
1103.0,0.2199
1104.0,0.2202
1105.0,0.244
1106.0,0.1805
1107.0,0.2306
1108.0,0.1918
1109.0,0.1929
1110.0,0.228
1111.0,0.1498
1112.0,0.1917
1113.0,0.1171
1114.0,0.1313
1115.0,0.1086
1116.0,0.08379
1117.0,0.02778
1118.0,0.09211
1119.0,0.04319
1120.0,0.05414
1121.0,0.07335
1122.0,0.02874
1123.0,0.04904
1124.0,0.04136
1125.0,0.05457
1126.0,0.01692
1127.0,0.06176
1128.0,0.03464
1129.0,0.03706
1130.0,0.02361
1131.0,0.1229
1132.0,0.09529
1133.0,0.05728
1134.0,0.01301
1135.0,0.004974
1136.0,0.04669
1137.0,0.1196
1138.0,0.08367
1139.0,0.131
1140.0,0.1071
1141.0,0.07956
1142.0,0.09275
1143.0,0.1343
1144.0,0.04399
1145.0,0.0553
1146.0,0.0596
1147.0,0.01884
1148.0,0.1161
1149.0,0.09085
1150.0,0.04768
1151.0,0.08299
1152.0,0.1043
1153.0,0.1033
1154.0,0.05338
1155.0,0.1365
1156.0,0.1217
1157.0,0.1386
1158.0,0.1371
1159.0,0.1494
1160.0,0.1261
1161.0,0.1587
1162.0,0.1592
1163.0,0.2205
1164.0,0.1871
1165.0,0.1746
1166.0,0.1749
1167.0,0.1914
1168.0,0.1931
1169.0,0.1983
1170.0,0.2171
1171.0,0.2115
1172.0,0.2163
1173.0,0.2166
1174.0,0.151
1175.0,0.2124
1176.0,0.2354
1177.0,0.2247
1178.0,0.166
1179.0,0.2374
1180.0,0.2098
1181.0,0.2166
1182.0,0.1465
1183.0,0.2138
1184.0,0.1993
1185.0,0.1915
1186.0,0.2299
1187.0,0.2181
1188.0,0.1486
1189.0,0.203
1190.0,0.2248
1191.0,0.2118
1192.0,0.2281
1193.0,0.218
1194.0,0.2251
1195.0,0.2118
1196.0,0.2033
1197.0,0.2258
1198.0,0.2058
1199.0,0.1727
1200.0,0.2152
1201.0,0.2067
1202.0,0.2061
1203.0,0.2041
1204.0,0.1774
1205.0,0.2116
1206.0,0.235
1207.0,0.2053
1208.0,0.2028
1209.0,0.2071
1210.0,0.2163
1211.0,0.2051
1212.0,0.2015
1213.0,0.2267
1214.0,0.2068
1215.0,0.2027
1216.0,0.2261
1217.0,0.2197
1218.0,0.2242
1219.0,0.2212
1220.0,0.2245
1221.0,0.2269
1222.0,0.2208
1223.0,0.2186
1224.0,0.2169
1225.0,0.2255
1226.0,0.2273
1227.0,0.2085
1228.0,0.2287
1229.0,0.2273
1230.0,0.2232
1231.0,0.2303
1232.0,0.2289
1233.0,0.2201
1234.0,0.2303
1235.0,0.2287
1236.0,0.2305
1237.0,0.2268
1238.0,0.2297
1239.0,0.2267
1240.0,0.2276
1241.0,0.2263
1242.0,0.2261
1243.0,0.2242
1244.0,0.2258
1245.0,0.2268
1246.0,0.2254
1247.0,0.2245
1248.0,0.2242
1249.0,0.225
1250.0,0.2236
1251.0,0.2206
1252.0,0.2208
1253.0,0.2187
1254.0,0.2163
1255.0,0.2205
1256.0,0.2137
1257.0,0.2124
1258.0,0.2169
1259.0,0.2081
1260.0,0.2093
1261.0,0.1963
1262.0,0.1898
1263.0,0.1901
1264.0,0.1741
1265.0,0.1889
1266.0,0.181
1267.0,0.1847
1268.0,0.1742
1269.0,0.102
1270.0,0.1838
1271.0,0.1958
1272.0,0.1966
1273.0,0.1944
1274.0,0.1952
1275.0,0.1982
1276.0,0.2004
1277.0,0.202
1278.0,0.2064
1279.0,0.2045
1280.0,0.2019
1281.0,0.1929
1282.0,0.1862
1283.0,0.2005
1284.0,0.2052
1285.0,0.2066
1286.0,0.2096
1287.0,0.206
1288.0,0.2061
1289.0,0.1988
1290.0,0.2043
1291.0,0.2073
1292.0,0.1934
1293.0,0.2029
1294.0,0.2014
1295.0,0.2
1296.0,0.1901
1297.0,0.1792
1298.0,0.1942
1299.0,0.2033
1300.0,0.1697
1301.0,0.1754
1302.0,0.1936
1303.0,0.1678
1304.0,0.1409
1305.0,0.1895
1306.0,0.1894
1307.0,0.1447
1308.0,0.1684
1309.0,0.1876
1310.0,0.1418
1311.0,0.161
1312.0,0.1562
1313.0,0.1528
1314.0,0.136
1315.0,0.1337
1316.0,0.158
1317.0,0.1494
1318.0,0.1633
1319.0,0.1249
1320.0,0.1216
1321.0,0.1426
1322.0,0.1436
1323.0,0.1057
1324.0,0.1226
1325.0,0.1555
1326.0,0.1321
1327.0,0.1256
1328.0,0.1075
1329.0,0.07868
1330.0,0.1035
1331.0,0.06003
1332.0,0.06279
1333.0,0.08794
1334.0,0.07579
1335.0,0.1053
1336.0,0.08194
1337.0,0.07184
1338.0,0.07771
1339.0,0.07772
1340.0,0.07629
1341.0,0.07289
1342.0,0.07672
1343.0,0.04888
1344.0,0.0295
1345.0,0.04261
1346.0,0.01932
1347.0,0.01932
1348.0,0.001021
1349.0,0.003882
1350.0,0.004199
1351.0,0.0008469
1352.0,0.0001849
1353.0,7.666e-06
1354.0,3.05e-05
1355.0,1.574e-07
1356.0,3.699e-06
1357.0,5.656e-06
1358.0,1.898e-07
1359.0,1.699e-08
1360.0,7.691e-08
1361.0,4.222e-11
1362.0,8.688e-14
1363.0,9.241e-08
1364.0,3.816e-08
1365.0,2.059e-14
1366.0,4.422e-07
1367.0,1.954e-07
1368.0,7.583e-17
1369.0,1.407e-08
1370.0,6.007e-09
1371.0,2.886e-10
1372.0,1.08e-07
1373.0,2.735e-06
1374.0,1.489e-05
1375.0,2.662e-05
1376.0,2.77e-05
1377.0,1.228e-05
1378.0,0.0001277
1379.0,5.15e-06
1380.0,6.699e-06
1381.0,1.61e-07
1382.0,9.341e-08
1383.0,1.247e-09
1384.0,1.498e-08
1385.0,1.046e-07
1386.0,7.504e-08
1387.0,1.389e-05
1388.0,2.797e-07
1389.0,5.663e-05
1390.0,4.839e-05
1391.0,3.14e-05
1392.0,1.958e-06
1393.0,1.129e-05
1394.0,4.479e-06
1395.0,2.79e-08
1396.0,6.71e-11
1397.0,4.229e-06
1398.0,0.0001405
1399.0,8.981e-05
1400.0,2.392e-11
1401.0,1.293e-10
1402.0,0.0003149
1403.0,0.0003785
1404.0,0.000113
1405.0,1.2e-08
1406.0,0.0002724
1407.0,2.576e-05
1408.0,0.000226
1409.0,6.663e-05
1410.0,5.868e-05
1411.0,0.0003359
1412.0,0.0004825
1413.0,0.005953
1414.0,4.713e-05
1415.0,2.132e-05
1416.0,0.01107
1417.0,0.002948
1418.0,0.003261
1419.0,0.0004906
1420.0,0.001983
1421.0,0.002169
1422.0,0.01452
1423.0,0.002716
1424.0,0.00521
1425.0,0.00745
1426.0,0.008965
1427.0,0.01762
1428.0,0.0009405
1429.0,0.01259
1430.0,0.02299
1431.0,0.02565
1432.0,0.0007332
1433.0,0.01579
1434.0,0.00777
1435.0,0.006897
1436.0,0.01464
1437.0,0.01125
1438.0,0.00439
