interpolation:linear
wavelength,value
280.0,2.466e-21
280.5,7.767000000000001e-20
281.0,4.105e-19
281.5,3.672e-19
282.0,1.023e-18
282.5,2.677e-18
283.0,8.646e-18
283.5,1.415e-17
284.0,2.307e-16
284.5,6.667e-16
285.0,1.49e-15
285.5,7.189e-15
286.0,2.871e-14
286.5,1.265e-13
287.0,3.577e-13
287.5,1.353e-12
288.0,3.673e-12
288.5,1.209e-11
289.0,3.406e-11
289.5,1.072e-10
290.0,3.051e-10
290.5,6.326e-10
291.0,1.379e-09
291.5,4.018e-09
292.0,8.478e-09
292.5,1.268e-08
293.0,2.947e-08
293.5,7.988e-08
294.0,1.348e-07
294.5,1.745e-07
295.0,3.183e-07
295.5,8.128e-07
296.0,1.628e-06
296.5,2.374e-06
297.0,3.338e-06
297.5,9.539e-06
298.0,1.596e-05
298.5,1.689e-05
299.0,3.923e-05
299.5,7.185e-05
300.0,8.397e-05
300.5,0.0001301
301.0,0.0002658
301.5,0.0004839
302.0,0.0004492
302.5,0.0008898
303.0,0.001627
303.5,0.002074
304.0,0.001965
304.5,0.002995
305.0,0.004672
305.5,0.005443
306.0,0.005304
306.5,0.006676
307.0,0.01013
307.5,0.01375
308.0,0.01458
308.5,0.01739
309.0,0.01718
309.5,0.01988
310.0,0.02008
310.5,0.03261
311.0,0.0411
311.5,0.03976
312.0,0.04011
312.5,0.04909
313.0,0.05341
313.5,0.05174
314.0,0.06513
314.5,0.05826
315.0,0.07669
315.5,0.06391
316.0,0.05621
316.5,0.08118
317.0,0.1008
317.5,0.1048
318.0,0.08205
318.5,0.1026
319.0,0.1222
319.5,0.0991
320.0,0.1197
320.5,0.1508
321.0,0.1351
321.5,0.1297
322.0,0.1374
322.5,0.1196
323.0,0.1196
323.5,0.1475
324.0,0.1723
324.5,0.1747
325.0,0.1507
325.5,0.1944
326.0,0.238
326.5,0.2388
327.0,0.2379
327.5,0.2296
328.0,0.204
328.5,0.2151
329.0,0.2581
329.5,0.2932
330.0,0.2957
330.5,0.2364
331.0,0.2408
331.5,0.2451
332.0,0.2652
332.5,0.2626
333.0,0.2618
333.5,0.2367
334.0,0.2425
334.5,0.2803
335.0,0.2636
335.5,0.308
336.0,0.2132
336.5,0.2496
337.0,0.2047
337.5,0.2546
338.0,0.249
338.5,0.2875
339.0,0.2846
339.5,0.2739
340.0,0.3219
340.5,0.2903
341.0,0.2831
341.5,0.2601
342.0,0.3109
342.5,0.291
343.0,0.3201
343.5,0.3014
344.0,0.2228
344.5,0.2251
345.0,0.2981
345.5,0.3045
346.0,0.2588
346.5,0.2932
347.0,0.3148
347.5,0.2546
348.0,0.2904
348.5,0.2903
349.0,0.2695
349.5,0.2669
350.0,0.3302
350.5,0.3484
351.0,0.3113
351.5,0.3026
352.0,0.3251
352.5,0.2538
353.0,0.3198
353.5,0.3421
354.0,0.3553
354.5,0.3604
355.0,0.3593
355.5,0.3247
356.0,0.3398
356.5,0.2902
357.0,0.2398
357.5,0.2937
358.0,0.2328
358.5,0.199
359.0,0.2784
359.5,0.3548
360.0,0.3763
360.5,0.3008
361.0,0.2743
361.5,0.316
362.0,0.2735
362.5,0.3786
363.0,0.3402
363.5,0.3135
364.0,0.3836
364.5,0.328
365.0,0.3341
365.5,0.4195
366.0,0.4446
366.5,0.4179
367.0,0.4071
367.5,0.4226
368.0,0.37
368.5,0.3735
369.0,0.4034
369.5,0.4302
370.0,0.4587
370.5,0.3562
371.0,0.3807
371.5,0.4764
372.0,0.3163
372.5,0.3794
373.0,0.386
373.5,0.2513
374.0,0.3652
374.5,0.3026
375.0,0.2942
375.5,0.4393
376.0,0.3643
376.5,0.3776
377.0,0.3999
377.5,0.4681
378.0,0.5075
378.5,0.4798
379.0,0.396
379.5,0.3618
380.0,0.3763
380.5,0.4559
381.0,0.4571
381.5,0.3625
382.0,0.322
382.5,0.2747
383.0,0.2544
383.5,0.2451
384.0,0.2704
384.5,0.3979
385.0,0.3947
385.5,0.3677
386.0,0.3151
386.5,0.414
387.0,0.3441
387.5,0.3866
388.0,0.3571
388.5,0.3531
389.0,0.3812
389.5,0.4619
390.0,0.4637
390.5,0.4269
391.0,0.5027
391.5,0.5128
392.0,0.432
392.5,0.3869
393.0,0.2154
393.5,0.1566
394.0,0.3188
394.5,0.4054
395.0,0.4948
395.5,0.5028
396.0,0.436
396.5,0.255
397.0,0.1914
397.5,0.3894
398.0,0.5454
398.5,0.5639
399.0,0.6109
399.5,0.6091
400.0,0.6325
401.0,0.641
402.0,0.6767
403.0,0.6432
404.0,0.6336
405.0,0.6338
406.0,0.6239
407.0,0.6142
408.0,0.6383
409.0,0.6835
410.0,0.5976
411.0,0.6476
412.0,0.696
413.0,0.6789
414.0,0.6876
415.0,0.6897
416.0,0.7022
417.0,0.6852
418.0,0.6727
419.0,0.6819
420.0,0.6791
421.0,0.7108
422.0,0.6758
423.0,0.6604
424.0,0.6987
425.0,0.6977
426.0,0.68
427.0,0.6675
428.0,0.6504
429.0,0.6164
430.0,0.5396
431.0,0.5349
432.0,0.691
433.0,0.695
434.0,0.6455
435.0,0.6743
436.0,0.7601
437.0,0.7503
438.0,0.6834
439.0,0.7068
440.0,0.7295
441.0,0.7562
442.0,0.8112
443.0,0.7902
444.0,0.8076
445.0,0.7902
446.0,0.7545
447.0,0.816
448.0,0.8287
449.0,0.8324
450.0,0.8559
451.0,0.8879
452.0,0.8556
453.0,0.805
454.0,0.8406
455.0,0.8459
456.0,0.8662
457.0,0.8807
458.0,0.8506
459.0,0.8463
460.0,0.8486
461.0,0.8683
462.0,0.8752
463.0,0.8692
464.0,0.8552
465.0,0.8447
466.0,0.8532
467.0,0.8376
468.0,0.8475
469.0,0.852
470.0,0.8248
471.0,0.8239
472.0,0.8681
473.0,0.8569
474.0,0.858
475.0,0.8651
476.0,0.839
477.0,0.8412
478.0,0.8647
479.0,0.8596
480.0,0.8614
481.0,0.8778
482.0,0.8827
483.0,0.8723
484.0,0.8546
485.0,0.8144
486.0,0.7121
487.0,0.7465
488.0,0.819
489.0,0.8215
490.0,0.8644
491.0,0.8496
492.0,0.8024
493.0,0.8287
494.0,0.8371
495.0,0.8443
496.0,0.8495
497.0,0.8627
498.0,0.8223
499.0,0.8328
500.0,0.8084
501.0,0.7934
502.0,0.7819
503.0,0.8134
504.0,0.7918
505.0,0.821
506.0,0.8475
507.0,0.8065
508.0,0.7817
509.0,0.8038
510.0,0.7998
511.0,0.8215
512.0,0.8305
513.0,0.7861
514.0,0.7808
515.0,0.7731
516.0,0.7711
517.0,0.6853
518.0,0.7204
519.0,0.7556
520.0,0.7831
521.0,0.7905
522.0,0.7911
523.0,0.7768
524.0,0.8044
525.0,0.8137
526.0,0.7772
527.0,0.7322
528.0,0.7742
529.0,0.8159
530.0,0.8041
531.0,0.816
532.0,0.7879
533.0,0.7648
534.0,0.7875
535.0,0.8048
536.0,0.8123
537.0,0.7804
538.0,0.7942
539.0,0.7876
540.0,0.755
541.0,0.7597
542.0,0.7834
543.0,0.7754
544.0,0.7886
545.0,0.7862
546.0,0.7894
547.0,0.7893
548.0,0.7799
549.0,0.7824
550.0,0.7917
551.0,0.7821
552.0,0.7876
553.0,0.7734
554.0,0.7919
555.0,0.7934
556.0,0.7831
557.0,0.7586
558.0,0.7528
559.0,0.7385
560.0,0.7477
561.0,0.7572
562.0,0.7515
563.0,0.7719
564.0,0.7506
565.0,0.744
566.0,0.7329
567.0,0.7466
568.0,0.7394
569.0,0.7208
570.0,0.7207
571.0,0.7167
572.0,0.7332
573.0,0.7409
574.0,0.7384
575.0,0.7243
576.0,0.7177
577.0,0.7256
578.0,0.7151
579.0,0.7184
580.0,0.7328
581.0,0.7372
582.0,0.7517
583.0,0.7539
584.0,0.7608
585.0,0.7423
586.0,0.7271
587.0,0.7427
588.0,0.7233
589.0,0.6382
590.0,0.6676
591.0,0.708
592.0,0.6982
593.0,0.7097
594.0,0.7043
595.0,0.686
596.0,0.7151
597.0,0.7069
598.0,0.7057
599.0,0.7066
600.0,0.7082
601.0,0.7028
602.0,0.6981
603.0,0.7099
604.0,0.7217
605.0,0.7181
606.0,0.7154
607.0,0.7227
608.0,0.715
609.0,0.7164
610.0,0.7115
611.0,0.7154
612.0,0.7134
613.0,0.7045
614.0,0.6951
615.0,0.7104
616.0,0.6872
617.0,0.6859
618.0,0.7124
619.0,0.7053
620.0,0.7097
621.0,0.7103
622.0,0.7018
623.0,0.6909
624.0,0.6792
625.0,0.6777
626.0,0.6877
627.0,0.6949
628.0,0.643
629.0,0.6764
630.0,0.6606
631.0,0.6775
632.0,0.6698
633.0,0.691
634.0,0.6849
635.0,0.6959
636.0,0.6871
637.0,0.6987
638.0,0.7058
639.0,0.6982
640.0,0.6917
641.0,0.6914
642.0,0.6885
643.0,0.6978
644.0,0.6958
645.0,0.6968
646.0,0.6798
647.0,0.6701
648.0,0.6707
649.0,0.6575
650.0,0.6628
651.0,0.692
652.0,0.6609
653.0,0.6829
654.0,0.6755
655.0,0.6492
656.0,0.5762
657.0,0.5918
658.0,0.6638
659.0,0.6689
660.0,0.6718
661.0,0.6766
662.0,0.6776
663.0,0.6643
664.0,0.6728
665.0,0.6738
666.0,0.6745
667.0,0.6741
668.0,0.6746
669.0,0.6852
670.0,0.6824
671.0,0.6823
672.0,0.6766
673.0,0.6869
674.0,0.6844
675.0,0.6783
676.0,0.683
677.0,0.6763
678.0,0.6783
679.0,0.6674
680.0,0.6728
681.0,0.6684
682.0,0.6676
683.0,0.6663
684.0,0.663
685.0,0.6687
686.0,0.6647
687.0,0.4156
688.0,0.499
689.0,0.5012
690.0,0.5298
691.0,0.5623
692.0,0.5866
693.0,0.5815
694.0,0.5768
695.0,0.6038
696.0,0.6048
697.0,0.6457
698.0,0.6355
699.0,0.6178
700.0,0.6102
701.0,0.6031
702.0,0.6083
703.0,0.6095
704.0,0.6306
705.0,0.6315
706.0,0.6316
707.0,0.6323
708.0,0.6336
709.0,0.6355
710.0,0.6349
711.0,0.6344
712.0,0.633
713.0,0.6262
714.0,0.6286
715.0,0.6078
716.0,0.6079
717.0,0.5179
718.0,0.4744
719.0,0.4337
720.0,0.4535
721.0,0.5062
722.0,0.5852
723.0,0.5417
724.0,0.4844
725.0,0.4754
726.0,0.4981
727.0,0.5075
728.0,0.4737
729.0,0.4948
730.0,0.5233
731.0,0.4998
732.0,0.5381
733.0,0.573
734.0,0.5875
735.0,0.5749
736.0,0.5741
737.0,0.5763
738.0,0.5876
739.0,0.576
740.0,0.5917
741.0,0.5863
742.0,0.5873
743.0,0.6023
744.0,0.6009
745.0,0.6012
746.0,0.604
747.0,0.6054
748.0,0.6041
749.0,0.5973
750.0,0.5969
751.0,0.5909
752.0,0.5935
753.0,0.5965
754.0,0.5978
755.0,0.5944
756.0,0.5942
757.0,0.5951
758.0,0.5876
759.0,0.5742
760.0,0.07305
761.0,0.03476
762.0,0.2662
763.0,0.1192
764.0,0.191
765.0,0.2661
766.0,0.3394
767.0,0.4416
768.0,0.5207
769.0,0.5342
770.0,0.5552
771.0,0.561
772.0,0.5626
773.0,0.5666
774.0,0.564
775.0,0.5597
776.0,0.5666
777.0,0.5591
778.0,0.5557
779.0,0.5562
780.0,0.5531
781.0,0.5537
782.0,0.5572
783.0,0.5475
784.0,0.5502
785.0,0.546
786.0,0.5519
787.0,0.5412
788.0,0.5339
789.0,0.5336
790.0,0.5177
791.0,0.5238
792.0,0.5202
793.0,0.5116
794.0,0.522
795.0,0.5304
796.0,0.5119
797.0,0.5124
798.0,0.5295
799.0,0.5257
800.0,0.516
801.0,0.5139
802.0,0.5125
803.0,0.5083
804.0,0.5092
805.0,0.5083
806.0,0.5236
807.0,0.5171
808.0,0.5177
809.0,0.5071
810.0,0.5024
811.0,0.5018
812.0,0.486
813.0,0.475
814.0,0.4131
815.0,0.4108
816.0,0.3817
817.0,0.3892
818.0,0.3735
819.0,0.4218
820.0,0.3956
821.0,0.4684
822.0,0.454
823.0,0.2995
824.0,0.4387
825.0,0.4601
826.0,0.4408
827.0,0.4671
828.0,0.3905
829.0,0.4385
830.0,0.4322
831.0,0.4339
832.0,0.4195
833.0,0.4491
834.0,0.4314
835.0,0.4779
836.0,0.4549
837.0,0.4794
838.0,0.4632
839.0,0.4725
840.0,0.4832
841.0,0.4757
842.0,0.4776
843.0,0.4783
844.0,0.4711
845.0,0.4877
846.0,0.4857
847.0,0.477
848.0,0.4736
849.0,0.4601
850.0,0.4409
851.0,0.4664
852.0,0.4633
853.0,0.4463
854.0,0.385
855.0,0.4235
856.0,0.4626
857.0,0.4732
858.0,0.4696
859.0,0.4702
860.0,0.4711
861.0,0.4685
862.0,0.4759
863.0,0.4872
864.0,0.4628
865.0,0.4588
866.0,0.4126
867.0,0.4306
868.0,0.4685
869.0,0.4588
870.0,0.4719
871.0,0.4655
872.0,0.4639
873.0,0.463
874.0,0.4575
875.0,0.4482
876.0,0.4528
877.0,0.4574
878.0,0.4623
879.0,0.4552
880.0,0.4455
881.0,0.4386
882.0,0.448
883.0,0.4496
884.0,0.4474
885.0,0.4508
886.0,0.4289
887.0,0.434
888.0,0.4401
889.0,0.4458
890.0,0.4412
891.0,0.4409
892.0,0.427
893.0,0.4125
894.0,0.3956
895.0,0.3707
896.0,0.3481
897.0,0.2952
898.0,0.3242
899.0,0.2421
900.0,0.3344
901.0,0.2538
902.0,0.3039
903.0,0.3049
904.0,0.3926
905.0,0.3778
906.0,0.3526
907.0,0.2805
908.0,0.287
909.0,0.3135
910.0,0.2724
911.0,0.2936
912.0,0.3077
913.0,0.2762
914.0,0.2748
915.0,0.2979
916.0,0.2511
917.0,0.3238
918.0,0.2571
919.0,0.3311
920.0,0.3376
921.0,0.3513
922.0,0.3104
923.0,0.3397
924.0,0.3176
925.0,0.3108
926.0,0.3138
927.0,0.355
928.0,0.25
929.0,0.2254
930.0,0.1727
931.0,0.1642
932.0,0.1136
933.0,0.09004
934.0,0.04466
935.0,0.094
936.0,0.05565
937.0,0.05612
938.0,0.07018
939.0,0.159
940.0,0.1946
941.0,0.1424
942.0,0.1675
943.0,0.1067
944.0,0.1157
945.0,0.1477
946.0,0.07056
947.0,0.1472
948.0,0.1075
949.0,0.2016
950.0,0.04923
951.0,0.1993
952.0,0.1011
953.0,0.1345
954.0,0.1694
955.0,0.1365
956.0,0.1357
957.0,0.1007
958.0,0.1981
959.0,0.1522
960.0,0.1706
961.0,0.1956
962.0,0.1846
963.0,0.2164
964.0,0.1971
965.0,0.2158
966.0,0.2151
967.0,0.2138
968.0,0.2997
969.0,0.3116
970.0,0.2846
971.0,0.3315
972.0,0.316
973.0,0.2693
974.0,0.2549
975.0,0.2668
976.0,0.2501
977.0,0.291
978.0,0.2738
979.0,0.2885
980.0,0.2702
981.0,0.3298
982.0,0.3132
983.0,0.2995
984.0,0.3423
985.0,0.312
986.0,0.3498
987.0,0.3412
988.0,0.3407
989.0,0.3497
990.0,0.3386
991.0,0.3506
992.0,0.3528
993.0,0.3432
994.0,0.3529
995.0,0.3527
996.0,0.3508
997.0,0.3515
998.0,0.3497
999.0,0.3485
1000.0,0.3457
1001.0,0.3504
1002.0,0.3391
1003.0,0.3441
1004.0,0.3353
1005.0,0.3236
1006.0,0.3359
1007.0,0.3432
1008.0,0.3411
1009.0,0.3389
1010.0,0.3373
1011.0,0.3415
1012.0,0.3382
1013.0,0.3408
1014.0,0.3384
1015.0,0.3361
1016.0,0.3346
1017.0,0.3353
1018.0,0.3343
1019.0,0.3265
1020.0,0.3324
1021.0,0.3321
1022.0,0.3293
1023.0,0.3327
1024.0,0.3277
1025.0,0.3327
1026.0,0.3311
1027.0,0.3304
1028.0,0.3296
1029.0,0.3257
1030.0,0.3282
1031.0,0.3268
1032.0,0.3259
1033.0,0.321
1034.0,0.321
1035.0,0.322
1036.0,0.3236
1037.0,0.3184
1038.0,0.3197
1039.0,0.3195
1040.0,0.3182
1041.0,0.3194
1042.0,0.3172
1043.0,0.3161
1044.0,0.3172
1045.0,0.3129
1046.0,0.3094
1047.0,0.3121
1048.0,0.3138
1049.0,0.3126
1050.0,0.3111
1051.0,0.3106
1052.0,0.3093
1053.0,0.3067
1054.0,0.3073
1055.0,0.3074
1056.0,0.3062
1057.0,0.3052
1058.0,0.2976
1059.0,0.2978
1060.0,0.2973
1061.0,0.2969
1062.0,0.2983
1063.0,0.2953
1064.0,0.2988
1065.0,0.2964
1066.0,0.2908
1067.0,0.2944
1068.0,0.2878
1069.0,0.2791
1070.0,0.2884
1071.0,0.2935
1072.0,0.2896
1073.0,0.2855
1074.0,0.2936
1075.0,0.2771
1076.0,0.2932
1077.0,0.287
1078.0,0.2811
1079.0,0.2888
1080.0,0.2826
1081.0,0.2727
1082.0,0.2785
1083.0,0.2798
1084.0,0.2716
1085.0,0.2834
1086.0,0.2561
1087.0,0.2661
1088.0,0.2792
1089.0,0.269
1090.0,0.262
1091.0,0.2778
1092.0,0.2775
1093.0,0.2305
1094.0,0.2533
1095.0,0.2407
1096.0,0.2291
1097.0,0.2711
1098.0,0.2249
1099.0,0.2354
1100.0,0.2168
1101.0,0.2202
1102.0,0.209
1103.0,0.206
1104.0,0.2064
1105.0,0.2296
1106.0,0.1678
1107.0,0.2165
1108.0,0.1789
1109.0,0.1801
1110.0,0.2139
1111.0,0.1389
1112.0,0.1791
1113.0,0.1078
1114.0,0.121
1115.0,0.09999
1116.0,0.07624
1117.0,0.02438
1118.0,0.08408
1119.0,0.03865
1120.0,0.04835
1121.0,0.06597
1122.0,0.02519
1123.0,0.04383
1124.0,0.03695
1125.0,0.04897
1126.0,0.01455
1127.0,0.05547
1128.0,0.03041
1129.0,0.03261
1130.0,0.02058
1131.0,0.1122
1132.0,0.08669
1133.0,0.05114
1134.0,0.01115
1135.0,0.004297
1136.0,0.04134
1137.0,0.1089
1138.0,0.076
1139.0,0.121
1140.0,0.09818
1141.0,0.0723
1142.0,0.08467
1143.0,0.1235
1144.0,0.03955
1145.0,0.04939
1146.0,0.05322
1147.0,0.01618
1148.0,0.1066
1149.0,0.08289
1150.0,0.04303
1151.0,0.07538
1152.0,0.09547
1153.0,0.09511
1154.0,0.04766
1155.0,0.1261
1156.0,0.1121
1157.0,0.1284
1158.0,0.1269
1159.0,0.1388
1160.0,0.1167
1161.0,0.148
1162.0,0.1484
1163.0,0.2074
1164.0,0.1754
1165.0,0.1629
1166.0,0.1637
1167.0,0.1795
1168.0,0.181
1169.0,0.186
1170.0,0.2043
1171.0,0.199
1172.0,0.2039
1173.0,0.2039
1174.0,0.1406
1175.0,0.2002
1176.0,0.2227
1177.0,0.212
1178.0,0.1556
1179.0,0.2245
1180.0,0.1976
1181.0,0.2041
1182.0,0.1368
1183.0,0.2015
1184.0,0.1876
1185.0,0.1798
1186.0,0.2171
1187.0,0.2056
1188.0,0.1386
1189.0,0.1913
1190.0,0.2123
1191.0,0.1993
1192.0,0.2155
1193.0,0.2058
1194.0,0.2126
1195.0,0.1995
1196.0,0.1912
1197.0,0.2135
1198.0,0.1943
1199.0,0.162
1200.0,0.2031
1201.0,0.1947
1202.0,0.1944
1203.0,0.1924
1204.0,0.1667
1205.0,0.1999
1206.0,0.2225
1207.0,0.1935
1208.0,0.1914
1209.0,0.1956
1210.0,0.2045
1211.0,0.1936
1212.0,0.1896
1213.0,0.2144
1214.0,0.1949
1215.0,0.1909
1216.0,0.2138
1217.0,0.2076
1218.0,0.2121
1219.0,0.2091
1220.0,0.2123
1221.0,0.2148
1222.0,0.2089
1223.0,0.2067
1224.0,0.2049
1225.0,0.2134
1226.0,0.2152
1227.0,0.1969
1228.0,0.2167
1229.0,0.2153
1230.0,0.2113
1231.0,0.2183
1232.0,0.217
1233.0,0.2082
1234.0,0.2184
1235.0,0.2169
1236.0,0.2186
1237.0,0.215
1238.0,0.2179
1239.0,0.2151
1240.0,0.2159
1241.0,0.2146
1242.0,0.2144
1243.0,0.2127
1244.0,0.2141
1245.0,0.2151
1246.0,0.2138
1247.0,0.2129
1248.0,0.2126
1249.0,0.2134
1250.0,0.212
1251.0,0.2091
1252.0,0.2094
1253.0,0.2072
1254.0,0.2048
1255.0,0.2091
1256.0,0.2023
1257.0,0.201
1258.0,0.2055
1259.0,0.1967
1260.0,0.1979
1261.0,0.1851
1262.0,0.1786
1263.0,0.1789
1264.0,0.1631
1265.0,0.1778
1266.0,0.1699
1267.0,0.1737
1268.0,0.1634
1269.0,0.09296
1270.0,0.1728
1271.0,0.1847
1272.0,0.1855
1273.0,0.1833
1274.0,0.1841
1275.0,0.1871
1276.0,0.1893
1277.0,0.191
1278.0,0.1953
1279.0,0.1935
1280.0,0.1911
1281.0,0.1826
1282.0,0.1765
1283.0,0.19
1284.0,0.1944
1285.0,0.1958
1286.0,0.1987
1287.0,0.1951
1288.0,0.1952
1289.0,0.188
1290.0,0.1936
1291.0,0.1965
1292.0,0.1827
1293.0,0.1922
1294.0,0.1907
1295.0,0.1892
1296.0,0.1795
1297.0,0.1688
1298.0,0.1837
1299.0,0.1926
1300.0,0.1598
1301.0,0.1653
1302.0,0.1831
1303.0,0.158
1304.0,0.1317
1305.0,0.1791
1306.0,0.1789
1307.0,0.1357
1308.0,0.1588
1309.0,0.1772
1310.0,0.1329
1311.0,0.1516
1312.0,0.1469
1313.0,0.1435
1314.0,0.1274
1315.0,0.125
1316.0,0.1486
1317.0,0.1404
1318.0,0.1538
1319.0,0.1165
1320.0,0.1137
1321.0,0.1337
1322.0,0.1344
1323.0,0.09803
1324.0,0.1144
1325.0,0.1462
1326.0,0.1235
1327.0,0.1173
1328.0,0.1001
1329.0,0.07241
1330.0,0.09566
1331.0,0.05456
1332.0,0.05738
1333.0,0.08055
1334.0,0.06998
1335.0,0.09754
1336.0,0.07541
1337.0,0.06592
1338.0,0.07127
1339.0,0.07142
1340.0,0.07037
1341.0,0.0666
1342.0,0.07017
1343.0,0.04359
1344.0,0.02641
1345.0,0.03813
1346.0,0.01664
1347.0,0.01653
1348.0,0.0008027
1349.0,0.00312
1350.0,0.003427
1351.0,0.0006396
1352.0,0.000127
1353.0,4.844e-06
1354.0,2.049e-05
1355.0,8.755e-08
1356.0,2.328e-06
1357.0,3.562e-06
1358.0,1.064e-07
1359.0,8.218e-09
1360.0,4.091e-08
1361.0,1.68e-11
1362.0,3.125e-14
1363.0,4.626e-08
1364.0,1.924e-08
1365.0,6.436e-15
1366.0,2.298e-07
1367.0,1.058e-07
1368.0,2.01e-17
1369.0,7.07e-09
1370.0,2.836e-09
1371.0,1.276e-10
1372.0,5.869e-08
1373.0,1.631e-06
1374.0,9.487e-06
1375.0,1.675e-05
1376.0,1.869e-05
1377.0,8.178e-06
1378.0,8.662e-05
1379.0,3.434e-06
1380.0,4.262e-06
1381.0,9.943e-08
1382.0,4.981e-08
1383.0,6.383e-10
1384.0,7.319e-09
1385.0,6.014e-08
1386.0,3.819e-08
1387.0,8.409e-06
1388.0,1.731e-07
1389.0,3.72e-05
1390.0,3.161e-05
1391.0,2.033e-05
1392.0,1.254e-06
1393.0,7.476e-06
1394.0,2.633e-06
1395.0,1.543e-08
1396.0,2.773e-11
1397.0,2.728e-06
1398.0,9.438e-05
1399.0,6.059e-05
1400.0,9.133e-12
1401.0,5.493e-11
1402.0,0.0002355
1403.0,0.0002771
1404.0,8.195e-05
1405.0,6.29e-09
1406.0,0.0001906
1407.0,1.874e-05
1408.0,0.0001593
1409.0,4.442e-05
1410.0,4.098e-05
1411.0,0.000247
1412.0,0.0003644
1413.0,0.004814
1414.0,3.319e-05
1415.0,1.466e-05
1416.0,0.009403
1417.0,0.002399
1418.0,0.002612
1419.0,0.0003891
1420.0,0.001586
1421.0,0.001752
1422.0,0.01235
1423.0,0.002288
1424.0,0.004426
1425.0,0.006254
1426.0,0.007686
1427.0,0.01543
1428.0,0.0007331
1429.0,0.01085
1430.0,0.02029
1431.0,0.02275
1432.0,0.0005698
1433.0,0.01386
1434.0,0.006754
1435.0,0.005765
