interpolation:linear
wavelength,value
280.0,3.1240000000000002e-21
280.5,9.772e-20
281.0,5.153e-19
281.5,3.104e-19
282.0,1.001e-18
282.5,2.688e-18
283.0,8.8e-18
283.5,1.446e-17
284.0,2.379e-16
284.5,6.882e-16
285.0,1.581e-15
285.5,7.701e-15
286.0,3.082e-14
286.5,1.359e-13
287.0,3.846e-13
287.5,1.454e-12
288.0,3.835e-12
288.5,1.282e-11
289.0,3.656e-11
289.5,1.162e-10
290.0,3.328e-10
290.5,6.935e-10
291.0,1.52e-09
291.5,4.452e-09
292.0,9.794e-09
292.5,1.479e-08
293.0,3.482e-08
293.5,9.626e-08
294.0,1.649e-07
294.5,2.134e-07
295.0,3.956e-07
295.5,1.046e-06
296.0,2.097e-06
296.5,3.059e-06
297.0,4.299e-06
297.5,1.226e-05
298.0,2.046e-05
298.5,2.158e-05
299.0,4.997e-05
299.5,9.083e-05
300.0,0.0001056
300.5,0.0001627
301.0,0.0003287
301.5,0.0005909
302.0,0.0005442
302.5,0.001074
303.0,0.001952
303.5,0.002477
304.0,0.00234
304.5,0.003536
305.0,0.005451
305.5,0.006304
306.0,0.006125
306.5,0.007672
307.0,0.01152
307.5,0.01548
308.0,0.01638
308.5,0.01945
309.0,0.01916
309.5,0.02203
310.0,0.02219
310.5,0.03598
311.0,0.04524
311.5,0.04372
312.0,0.04387
312.5,0.05351
313.0,0.05812
313.5,0.05639
314.0,0.07069
314.5,0.06288
315.0,0.08269
315.5,0.06909
316.0,0.06049
316.5,0.08704
317.0,0.1081
317.5,0.1124
318.0,0.08784
318.5,0.1093
319.0,0.1299
319.5,0.1057
320.0,0.1277
320.5,0.1602
321.0,0.1428
321.5,0.137
322.0,0.1458
322.5,0.1269
323.0,0.1265
323.5,0.1556
324.0,0.1817
324.5,0.1844
325.0,0.1593
325.5,0.2051
326.0,0.2508
326.5,0.2512
327.0,0.2504
327.5,0.2419
328.0,0.2154
328.5,0.2265
329.0,0.2712
329.5,0.3079
330.0,0.3107
330.5,0.2487
331.0,0.2535
331.5,0.2577
332.0,0.2784
332.5,0.2754
333.0,0.2747
333.5,0.2487
334.0,0.2548
334.5,0.2941
335.0,0.2764
335.5,0.3229
336.0,0.2234
336.5,0.2617
337.0,0.2148
337.5,0.2672
338.0,0.2609
338.5,0.3013
339.0,0.2983
339.5,0.287
340.0,0.3373
340.5,0.3041
341.0,0.2967
341.5,0.2725
342.0,0.3257
342.5,0.3048
343.0,0.3353
343.5,0.3158
344.0,0.2334
344.5,0.2358
345.0,0.3122
345.5,0.3188
346.0,0.271
346.5,0.307
347.0,0.3296
347.5,0.2666
348.0,0.304
348.5,0.304
349.0,0.2821
349.5,0.2794
350.0,0.3456
350.5,0.3647
351.0,0.3258
351.5,0.3167
352.0,0.3403
352.5,0.2656
353.0,0.3347
353.5,0.358
354.0,0.3717
354.5,0.3771
355.0,0.3759
355.5,0.3397
356.0,0.3555
356.5,0.3036
357.0,0.2509
357.5,0.3072
358.0,0.2436
358.5,0.2082
359.0,0.2912
359.5,0.3712
360.0,0.3936
360.5,0.3147
361.0,0.2869
361.5,0.3305
362.0,0.286
362.5,0.3959
363.0,0.3557
363.5,0.3278
364.0,0.401
364.5,0.3429
365.0,0.3493
365.5,0.4385
366.0,0.4648
366.5,0.4369
367.0,0.4256
367.5,0.4417
368.0,0.3867
368.5,0.3903
369.0,0.4216
369.5,0.4495
370.0,0.4794
370.5,0.3722
371.0,0.3978
371.5,0.4978
372.0,0.3305
372.5,0.3964
373.0,0.4033
373.5,0.2625
374.0,0.3815
374.5,0.3161
375.0,0.3073
375.5,0.4589
376.0,0.3805
376.5,0.3944
377.0,0.4177
377.5,0.4889
378.0,0.53
378.5,0.5011
379.0,0.4136
379.5,0.3778
380.0,0.3929
380.5,0.4761
381.0,0.4773
381.5,0.3785
382.0,0.3362
382.5,0.2868
383.0,0.2656
383.5,0.2559
384.0,0.2823
384.5,0.4154
385.0,0.412
385.5,0.3838
386.0,0.3288
386.5,0.4321
387.0,0.3591
387.5,0.4035
388.0,0.3726
388.5,0.3685
389.0,0.3978
389.5,0.482
390.0,0.4839
390.5,0.4454
391.0,0.5245
391.5,0.5351
392.0,0.4508
392.5,0.4037
393.0,0.2247
393.5,0.1634
394.0,0.3325
394.5,0.4229
395.0,0.5162
395.5,0.5244
396.0,0.4548
396.5,0.266
397.0,0.1997
397.5,0.4061
398.0,0.5688
398.5,0.5881
399.0,0.6371
399.5,0.6351
400.0,0.6596
401.0,0.6686
402.0,0.7058
403.0,0.6708
404.0,0.6608
405.0,0.6609
406.0,0.6505
407.0,0.6404
408.0,0.6655
409.0,0.7126
410.0,0.6229
411.0,0.675
412.0,0.7254
413.0,0.7076
414.0,0.7166
415.0,0.7188
416.0,0.7317
417.0,0.7139
418.0,0.701
419.0,0.7104
420.0,0.7075
421.0,0.7404
422.0,0.704
423.0,0.6879
424.0,0.7277
425.0,0.7267
426.0,0.7082
427.0,0.6951
428.0,0.6773
429.0,0.6418
430.0,0.5619
431.0,0.557
432.0,0.7194
433.0,0.7236
434.0,0.672
435.0,0.702
436.0,0.7913
437.0,0.7809
438.0,0.7113
439.0,0.7356
440.0,0.7593
441.0,0.787
442.0,0.8443
443.0,0.8223
444.0,0.8404
445.0,0.8223
446.0,0.7851
447.0,0.849
448.0,0.8622
449.0,0.866
450.0,0.8904
451.0,0.9236
452.0,0.8901
453.0,0.8373
454.0,0.8743
455.0,0.8798
456.0,0.9009
457.0,0.9159
458.0,0.8847
459.0,0.8802
460.0,0.8826
461.0,0.903
462.0,0.9102
463.0,0.904
464.0,0.8893
465.0,0.8783
466.0,0.887
467.0,0.8708
468.0,0.8811
469.0,0.8858
470.0,0.8576
471.0,0.8566
472.0,0.9025
473.0,0.8909
474.0,0.892
475.0,0.8995
476.0,0.8725
477.0,0.8748
478.0,0.8992
479.0,0.8939
480.0,0.8957
481.0,0.9126
482.0,0.9176
483.0,0.9068
484.0,0.8883
485.0,0.8465
486.0,0.7402
487.0,0.7758
488.0,0.8512
489.0,0.8538
490.0,0.8983
491.0,0.883
492.0,0.8339
493.0,0.8612
494.0,0.8699
495.0,0.8773
496.0,0.8828
497.0,0.8965
498.0,0.8545
499.0,0.8654
500.0,0.8401
501.0,0.8246
502.0,0.8128
503.0,0.8456
504.0,0.8234
505.0,0.8535
506.0,0.8811
507.0,0.8384
508.0,0.8125
509.0,0.8355
510.0,0.8313
511.0,0.8537
512.0,0.8631
513.0,0.8169
514.0,0.8114
515.0,0.8033
516.0,0.8014
517.0,0.7121
518.0,0.7486
519.0,0.7852
520.0,0.8138
521.0,0.8215
522.0,0.8221
523.0,0.8073
524.0,0.8361
525.0,0.8457
526.0,0.8078
527.0,0.7611
528.0,0.8048
529.0,0.8482
530.0,0.836
531.0,0.8483
532.0,0.8191
533.0,0.7952
534.0,0.8187
535.0,0.8367
536.0,0.8445
537.0,0.8112
538.0,0.8256
539.0,0.8187
540.0,0.7849
541.0,0.7898
542.0,0.8145
543.0,0.8061
544.0,0.8199
545.0,0.8174
546.0,0.8208
547.0,0.8206
548.0,0.8109
549.0,0.8134
550.0,0.8231
551.0,0.8131
552.0,0.8187
553.0,0.8041
554.0,0.8233
555.0,0.8249
556.0,0.8141
557.0,0.7888
558.0,0.7827
559.0,0.768
560.0,0.7775
561.0,0.7874
562.0,0.7816
563.0,0.8028
564.0,0.7808
565.0,0.7739
566.0,0.7624
567.0,0.7767
568.0,0.7694
569.0,0.7503
570.0,0.7502
571.0,0.7459
572.0,0.7632
573.0,0.7713
574.0,0.7687
575.0,0.7542
576.0,0.7473
577.0,0.7555
578.0,0.7444
579.0,0.7477
580.0,0.7626
581.0,0.7669
582.0,0.7819
583.0,0.7841
584.0,0.7911
585.0,0.7719
586.0,0.7561
587.0,0.7724
588.0,0.7526
589.0,0.6647
590.0,0.6953
591.0,0.737
592.0,0.727
593.0,0.7387
594.0,0.7331
595.0,0.7143
596.0,0.7441
597.0,0.7357
598.0,0.7343
599.0,0.7352
600.0,0.7367
601.0,0.731
602.0,0.7261
603.0,0.7382
604.0,0.7505
605.0,0.7467
606.0,0.7438
607.0,0.7514
608.0,0.7433
609.0,0.7447
610.0,0.7396
611.0,0.7435
612.0,0.7415
613.0,0.7322
614.0,0.7224
615.0,0.7383
616.0,0.7141
617.0,0.7127
618.0,0.7402
619.0,0.7328
620.0,0.7374
621.0,0.738
622.0,0.7292
623.0,0.718
624.0,0.7058
625.0,0.7042
626.0,0.7146
627.0,0.7222
628.0,0.6699
629.0,0.7035
630.0,0.6872
631.0,0.7042
632.0,0.6961
633.0,0.7179
634.0,0.7114
635.0,0.7228
636.0,0.7135
637.0,0.7254
638.0,0.7327
639.0,0.7247
640.0,0.7179
641.0,0.7176
642.0,0.7145
643.0,0.7242
644.0,0.722
645.0,0.7231
646.0,0.7057
647.0,0.696
648.0,0.6966
649.0,0.683
650.0,0.6879
651.0,0.7181
652.0,0.6864
653.0,0.7086
654.0,0.7009
655.0,0.6739
656.0,0.5979
657.0,0.6141
658.0,0.6887
659.0,0.6938
660.0,0.6968
661.0,0.7018
662.0,0.7029
663.0,0.6891
664.0,0.6977
665.0,0.6986
666.0,0.6993
667.0,0.6989
668.0,0.6994
669.0,0.7103
670.0,0.7073
671.0,0.7072
672.0,0.7012
673.0,0.7119
674.0,0.7093
675.0,0.7029
676.0,0.7078
677.0,0.7008
678.0,0.7029
679.0,0.6916
680.0,0.6972
681.0,0.6926
682.0,0.6917
683.0,0.6904
684.0,0.687
685.0,0.6929
686.0,0.6887
687.0,0.4372
688.0,0.5218
689.0,0.524
690.0,0.5528
691.0,0.5855
692.0,0.6097
693.0,0.6045
694.0,0.5995
695.0,0.6268
696.0,0.6278
697.0,0.6692
698.0,0.6588
699.0,0.641
700.0,0.6332
701.0,0.6261
702.0,0.6312
703.0,0.6324
704.0,0.6539
705.0,0.6548
706.0,0.6547
707.0,0.6554
708.0,0.6568
709.0,0.6585
710.0,0.6581
711.0,0.6574
712.0,0.6558
713.0,0.6489
714.0,0.6514
715.0,0.6301
716.0,0.6302
717.0,0.5393
718.0,0.4943
719.0,0.4521
720.0,0.473
721.0,0.5265
722.0,0.6071
723.0,0.5628
724.0,0.5042
725.0,0.4951
726.0,0.5187
727.0,0.5279
728.0,0.4935
729.0,0.5146
730.0,0.5444
731.0,0.5201
732.0,0.5591
733.0,0.5944
734.0,0.6093
735.0,0.5963
736.0,0.5955
737.0,0.5978
738.0,0.6089
739.0,0.5969
740.0,0.613
741.0,0.6072
742.0,0.6081
743.0,0.6237
744.0,0.6222
745.0,0.6225
746.0,0.6253
747.0,0.6267
748.0,0.6254
749.0,0.6183
750.0,0.6179
751.0,0.6117
752.0,0.6143
753.0,0.6175
754.0,0.6189
755.0,0.6153
756.0,0.6151
757.0,0.616
758.0,0.6083
759.0,0.5948
760.0,0.08076
761.0,0.03933
762.0,0.2824
763.0,0.1297
764.0,0.2048
765.0,0.2823
766.0,0.3568
767.0,0.4609
768.0,0.5407
769.0,0.554
770.0,0.5752
771.0,0.5808
772.0,0.5824
773.0,0.5865
774.0,0.5837
775.0,0.5794
776.0,0.5864
777.0,0.5787
778.0,0.5752
779.0,0.5757
780.0,0.5725
781.0,0.5731
782.0,0.5767
783.0,0.5667
784.0,0.5694
785.0,0.5651
786.0,0.5713
787.0,0.5604
788.0,0.553
789.0,0.5527
790.0,0.5367
791.0,0.5426
792.0,0.5388
793.0,0.5299
794.0,0.5403
795.0,0.5491
796.0,0.5305
797.0,0.531
798.0,0.5483
799.0,0.5444
800.0,0.5345
801.0,0.5325
802.0,0.5309
803.0,0.5267
804.0,0.5276
805.0,0.5265
806.0,0.5421
807.0,0.5354
808.0,0.5359
809.0,0.5252
810.0,0.5205
811.0,0.5202
812.0,0.5041
813.0,0.493
814.0,0.4298
815.0,0.4274
816.0,0.3973
817.0,0.405
818.0,0.3889
819.0,0.4382
820.0,0.4114
821.0,0.4856
822.0,0.4709
823.0,0.3129
824.0,0.4555
825.0,0.477
826.0,0.4575
827.0,0.4843
828.0,0.4062
829.0,0.455
830.0,0.4486
831.0,0.4503
832.0,0.4357
833.0,0.4657
834.0,0.4477
835.0,0.4951
836.0,0.4718
837.0,0.4966
838.0,0.4802
839.0,0.4894
840.0,0.5004
841.0,0.4928
842.0,0.4946
843.0,0.495
844.0,0.4877
845.0,0.5047
846.0,0.5027
847.0,0.4935
848.0,0.4901
849.0,0.4762
850.0,0.4563
851.0,0.4827
852.0,0.4795
853.0,0.4618
854.0,0.3985
855.0,0.4382
856.0,0.4787
857.0,0.4896
858.0,0.4859
859.0,0.4865
860.0,0.4874
861.0,0.4847
862.0,0.4924
863.0,0.504
864.0,0.4789
865.0,0.4747
866.0,0.4268
867.0,0.4454
868.0,0.4847
869.0,0.4747
870.0,0.4882
871.0,0.4816
872.0,0.4799
873.0,0.479
874.0,0.4733
875.0,0.4637
876.0,0.4685
877.0,0.4732
878.0,0.4783
879.0,0.471
880.0,0.4609
881.0,0.4538
882.0,0.4635
883.0,0.4652
884.0,0.463
885.0,0.4664
886.0,0.4439
887.0,0.4491
888.0,0.4554
889.0,0.4612
890.0,0.4566
891.0,0.4562
892.0,0.4421
893.0,0.4273
894.0,0.4103
895.0,0.3851
896.0,0.3619
897.0,0.3076
898.0,0.3375
899.0,0.2529
900.0,0.3475
901.0,0.2651
902.0,0.3162
903.0,0.3176
904.0,0.4072
905.0,0.3921
906.0,0.3661
907.0,0.2924
908.0,0.299
909.0,0.3262
910.0,0.2843
911.0,0.3058
912.0,0.3204
913.0,0.2883
914.0,0.2867
915.0,0.3108
916.0,0.2622
917.0,0.3371
918.0,0.2686
919.0,0.3444
920.0,0.3505
921.0,0.3648
922.0,0.323
923.0,0.3526
924.0,0.3306
925.0,0.3235
926.0,0.3267
927.0,0.3688
928.0,0.2618
929.0,0.2366
930.0,0.1821
931.0,0.173
932.0,0.1206
933.0,0.09602
934.0,0.0485
935.0,0.09989
936.0,0.05971
937.0,0.06025
938.0,0.07512
939.0,0.1675
940.0,0.2044
941.0,0.1505
942.0,0.1765
943.0,0.1131
944.0,0.1219
945.0,0.1559
946.0,0.07531
947.0,0.1555
948.0,0.1137
949.0,0.2122
950.0,0.053
951.0,0.2097
952.0,0.1074
953.0,0.1422
954.0,0.1782
955.0,0.1442
956.0,0.1427
957.0,0.1071
958.0,0.2073
959.0,0.1602
960.0,0.1796
961.0,0.2051
962.0,0.1937
963.0,0.2264
964.0,0.2064
965.0,0.2257
966.0,0.2251
967.0,0.2238
968.0,0.3113
969.0,0.3239
970.0,0.2961
971.0,0.3439
972.0,0.328
973.0,0.2806
974.0,0.2657
975.0,0.2777
976.0,0.261
977.0,0.3024
978.0,0.285
979.0,0.3
980.0,0.2812
981.0,0.3421
982.0,0.3253
983.0,0.3112
984.0,0.3546
985.0,0.324
986.0,0.3621
987.0,0.3535
988.0,0.353
989.0,0.3619
990.0,0.3508
991.0,0.3628
992.0,0.365
993.0,0.3554
994.0,0.3651
995.0,0.3648
996.0,0.363
997.0,0.3636
998.0,0.3618
999.0,0.3606
1000.0,0.3577
1001.0,0.3625
1002.0,0.3511
1003.0,0.356
1004.0,0.347
1005.0,0.3348
1006.0,0.3476
1007.0,0.3551
1008.0,0.3529
1009.0,0.3507
1010.0,0.3491
1011.0,0.3533
1012.0,0.35
1013.0,0.3525
1014.0,0.3501
1015.0,0.3477
1016.0,0.3461
1017.0,0.3469
1018.0,0.3458
1019.0,0.3379
1020.0,0.3439
1021.0,0.3435
1022.0,0.3407
1023.0,0.3442
1024.0,0.3392
1025.0,0.3442
1026.0,0.3426
1027.0,0.3418
1028.0,0.341
1029.0,0.337
1030.0,0.3395
1031.0,0.338
1032.0,0.3371
1033.0,0.332
1034.0,0.3321
1035.0,0.3331
1036.0,0.3348
1037.0,0.3293
1038.0,0.3308
1039.0,0.3306
1040.0,0.3292
1041.0,0.3305
1042.0,0.3282
1043.0,0.3271
1044.0,0.3282
1045.0,0.3237
1046.0,0.3201
1047.0,0.3229
1048.0,0.3247
1049.0,0.3235
1050.0,0.3219
1051.0,0.3214
1052.0,0.3201
1053.0,0.3174
1054.0,0.3181
1055.0,0.3182
1056.0,0.3169
1057.0,0.3159
1058.0,0.308
1059.0,0.3083
1060.0,0.3078
1061.0,0.3074
1062.0,0.3089
1063.0,0.3058
1064.0,0.3094
1065.0,0.307
1066.0,0.3011
1067.0,0.3049
1068.0,0.2981
1069.0,0.289
1070.0,0.2987
1071.0,0.3038
1072.0,0.2999
1073.0,0.2957
1074.0,0.3039
1075.0,0.2871
1076.0,0.3035
1077.0,0.2973
1078.0,0.2913
1079.0,0.2989
1080.0,0.2927
1081.0,0.2826
1082.0,0.2884
1083.0,0.2896
1084.0,0.2815
1085.0,0.2935
1086.0,0.2656
1087.0,0.2757
1088.0,0.289
1089.0,0.2788
1090.0,0.2717
1091.0,0.2877
1092.0,0.2873
1093.0,0.2395
1094.0,0.2623
1095.0,0.25
1096.0,0.2382
1097.0,0.2807
1098.0,0.2339
1099.0,0.2447
1100.0,0.2257
1101.0,0.2291
1102.0,0.2177
1103.0,0.2148
1104.0,0.2152
1105.0,0.2387
1106.0,0.1759
1107.0,0.2254
1108.0,0.1871
1109.0,0.1882
1110.0,0.2228
1111.0,0.1458
1112.0,0.1871
1113.0,0.1137
1114.0,0.1275
1115.0,0.1054
1116.0,0.081
1117.0,0.02652
1118.0,0.08915
1119.0,0.04151
1120.0,0.052
1121.0,0.07063
1122.0,0.02742
1123.0,0.04711
1124.0,0.03973
1125.0,0.0525
1126.0,0.01603
1127.0,0.05944
1128.0,0.03307
1129.0,0.03541
1130.0,0.02248
1131.0,0.1189
1132.0,0.09212
1133.0,0.05501
1134.0,0.01231
1135.0,0.004721
1136.0,0.04471
1137.0,0.1156
1138.0,0.08084
1139.0,0.1273
1140.0,0.1038
1141.0,0.07689
1142.0,0.08978
1143.0,0.1303
1144.0,0.04235
1145.0,0.05311
1146.0,0.05724
1147.0,0.01784
1148.0,0.1126
1149.0,0.08792
1150.0,0.04596
1151.0,0.08019
1152.0,0.1011
1153.0,0.1003
1154.0,0.05126
1155.0,0.1327
1156.0,0.1182
1157.0,0.1349
1158.0,0.1334
1159.0,0.1455
1160.0,0.1227
1161.0,0.1548
1162.0,0.1552
1163.0,0.2157
1164.0,0.1828
1165.0,0.1704
1166.0,0.1708
1167.0,0.1871
1168.0,0.1886
1169.0,0.1938
1170.0,0.2124
1171.0,0.2069
1172.0,0.2117
1173.0,0.212
1174.0,0.1472
1175.0,0.2079
1176.0,0.2307
1177.0,0.22
1178.0,0.1622
1179.0,0.2327
1180.0,0.2053
1181.0,0.212
1182.0,0.1429
1183.0,0.2093
1184.0,0.195
1185.0,0.1872
1186.0,0.2252
1187.0,0.2135
1188.0,0.1449
1189.0,0.1987
1190.0,0.2202
1191.0,0.2072
1192.0,0.2235
1193.0,0.2135
1194.0,0.2205
1195.0,0.2073
1196.0,0.1989
1197.0,0.2213
1198.0,0.2016
1199.0,0.1688
1200.0,0.2108
1201.0,0.2023
1202.0,0.2018
1203.0,0.1998
1204.0,0.1735
1205.0,0.2073
1206.0,0.2304
1207.0,0.201
1208.0,0.1986
1209.0,0.2029
1210.0,0.212
1211.0,0.2009
1212.0,0.1972
1213.0,0.2222
1214.0,0.2025
1215.0,0.1984
1216.0,0.2216
1217.0,0.2152
1218.0,0.2198
1219.0,0.2168
1220.0,0.22
1221.0,0.2225
1222.0,0.2165
1223.0,0.2142
1224.0,0.2125
1225.0,0.221
1226.0,0.2229
1227.0,0.2043
1228.0,0.2243
1229.0,0.2229
1230.0,0.2189
1231.0,0.2259
1232.0,0.2245
1233.0,0.2157
1234.0,0.226
1235.0,0.2244
1236.0,0.2261
1237.0,0.2225
1238.0,0.2254
1239.0,0.2225
1240.0,0.2234
1241.0,0.222
1242.0,0.2218
1243.0,0.22
1244.0,0.2215
1245.0,0.2225
1246.0,0.2212
1247.0,0.2203
1248.0,0.22
1249.0,0.2208
1250.0,0.2194
1251.0,0.2164
1252.0,0.2166
1253.0,0.2145
1254.0,0.2121
1255.0,0.2163
1256.0,0.2095
1257.0,0.2082
1258.0,0.2127
1259.0,0.2039
1260.0,0.2051
1261.0,0.1922
1262.0,0.1857
1263.0,0.186
1264.0,0.1701
1265.0,0.1849
1266.0,0.1769
1267.0,0.1807
1268.0,0.1703
1269.0,0.09871
1270.0,0.1798
1271.0,0.1917
1272.0,0.1925
1273.0,0.1903
1274.0,0.1911
1275.0,0.1942
1276.0,0.1963
1277.0,0.198
1278.0,0.2023
1279.0,0.2004
1280.0,0.198
1281.0,0.1891
1282.0,0.1827
1283.0,0.1967
1284.0,0.2013
1285.0,0.2027
1286.0,0.2056
1287.0,0.202
1288.0,0.2021
1289.0,0.1949
1290.0,0.2004
1291.0,0.2033
1292.0,0.1895
1293.0,0.199
1294.0,0.1975
1295.0,0.1961
1296.0,0.1862
1297.0,0.1754
1298.0,0.1904
1299.0,0.1994
1300.0,0.1661
1301.0,0.1717
1302.0,0.1898
1303.0,0.1642
1304.0,0.1375
1305.0,0.1857
1306.0,0.1855
1307.0,0.1414
1308.0,0.1649
1309.0,0.1838
1310.0,0.1386
1311.0,0.1575
1312.0,0.1528
1313.0,0.1494
1314.0,0.1328
1315.0,0.1305
1316.0,0.1545
1317.0,0.1461
1318.0,0.1598
1319.0,0.1218
1320.0,0.1187
1321.0,0.1393
1322.0,0.1402
1323.0,0.1029
1324.0,0.1196
1325.0,0.1521
1326.0,0.1289
1327.0,0.1225
1328.0,0.1048
1329.0,0.07638
1330.0,0.1006
1331.0,0.05801
1332.0,0.0608
1333.0,0.08522
1334.0,0.07365
1335.0,0.1024
1336.0,0.07954
1337.0,0.06966
1338.0,0.07534
1339.0,0.07541
1340.0,0.07411
1341.0,0.07058
1342.0,0.07431
1343.0,0.04692
1344.0,0.02836
1345.0,0.04096
1346.0,0.01832
1347.0,0.01828
1348.0,0.000937
1349.0,0.003591
1350.0,0.003907
1351.0,0.0007664
1352.0,0.0001618
1353.0,6.511e-06
1354.0,2.647e-05
1355.0,1.277e-07
1356.0,3.137e-06
1357.0,4.798e-06
1358.0,1.545e-07
1359.0,1.311e-08
1360.0,6.142e-08
1361.0,3.034e-11
1362.0,6.008e-14
1363.0,7.226e-08
1364.0,2.99e-08
1365.0,1.347e-14
1366.0,3.505e-07
1367.0,1.57e-07
1368.0,4.556e-17
1369.0,1.101e-08
1370.0,4.596e-09
1371.0,2.156e-10
1372.0,8.692e-08
1373.0,2.276e-06
1374.0,1.268e-05
1375.0,2.259e-05
1376.0,2.408e-05
1377.0,1.062e-05
1378.0,0.0001112
1379.0,4.457e-06
1380.0,5.703e-06
1381.0,1.355e-07
1382.0,7.467e-08
1383.0,9.82e-10
1384.0,1.16e-08
1385.0,8.586e-08
1386.0,5.9e-08
1387.0,1.163e-05
1388.0,2.357e-07
1389.0,4.878e-05
1390.0,4.16e-05
1391.0,2.69e-05
1392.0,1.671e-06
1393.0,9.751e-06
1394.0,3.708e-06
1395.0,2.259e-08
1396.0,4.891e-11
1397.0,3.617e-06
1398.0,0.000122
1399.0,7.81e-05
1400.0,1.694e-11
1401.0,9.522e-11
1402.0,0.0002839
1403.0,0.0003388
1404.0,0.0001008
1405.0,9.53e-09
1406.0,0.00024
1407.0,2.3e-05
1408.0,0.0001996
1409.0,5.77e-05
1410.0,5.164e-05
1411.0,0.0003011
1412.0,0.0004366
1413.0,0.005521
1414.0,4.16e-05
1415.0,1.866e-05
1416.0,0.01044
1417.0,0.002739
1418.0,0.003014
1419.0,0.0004518
1420.0,0.001831
1421.0,0.00201
1422.0,0.01371
1423.0,0.002555
1424.0,0.004916
1425.0,0.007
1426.0,0.008486
1427.0,0.0168
1428.0,0.0008607
1429.0,0.01194
1430.0,0.02199
1431.0,0.02458
1432.0,0.0006702
1433.0,0.01507
1434.0,0.007391
1435.0,0.00647
1436.0,0.01388
1437.0,0.01068
