interpolation:linear
wavelength,value
280.0,7.938999999999999e-22
280.5,2.5680000000000003e-20
281.0,1.369e-19
281.5,5.226e-19
282.0,8.873e-19
282.5,2.196e-18
283.0,6.914e-18
283.5,1.123e-17
284.0,1.823e-16
284.5,5.28e-16
285.0,9.889e-16
285.5,4.81e-15
286.0,1.926e-14
286.5,8.561e-14
287.0,2.437e-13
287.5,9.303e-13
288.0,2.963e-12
288.5,9.157e-12
289.0,2.47e-11
289.5,7.52e-11
290.0,2.097e-10
290.5,4.285e-10
291.0,9.217e-10
291.5,2.649e-09
292.0,5.843e-09
292.5,8.26e-09
293.0,1.787e-08
293.5,4.392e-08
294.0,6.914e-08
294.5,9.151e-08
295.0,1.558e-07
295.5,3.26e-07
296.0,6.022e-07
296.5,8.661e-07
297.0,1.203e-06
297.5,3.384e-06
298.0,5.596e-06
298.5,5.872e-06
299.0,1.356e-05
299.5,2.471e-05
300.0,2.883e-05
300.5,4.464e-05
301.0,9.126e-05
301.5,0.0001656
302.0,0.0001529
302.5,0.0003079
303.0,0.000577
303.5,0.000749
304.0,0.0007215
304.5,0.001149
305.0,0.001908
305.5,0.002314
306.0,0.002291
306.5,0.002961
307.0,0.004767
307.5,0.006856
308.0,0.007336
308.5,0.009009
309.0,0.009117
309.5,0.01096
310.0,0.01127
310.5,0.01846
311.0,0.02361
311.5,0.02298
312.0,0.02392
312.5,0.02989
313.0,0.03288
313.5,0.03153
314.0,0.04069
314.5,0.03761
315.0,0.0498
315.5,0.04084
316.0,0.03689
316.5,0.05452
317.0,0.06766
317.5,0.06987
318.0,0.05558
318.5,0.07162
319.0,0.08661
319.5,0.06854
320.0,0.08247
320.5,0.1072
321.0,0.09868
321.5,0.09495
322.0,0.09768
322.5,0.08515
323.0,0.08682
323.5,0.1089
324.0,0.1277
324.5,0.1284
325.0,0.1098
325.5,0.1439
326.0,0.1767
326.5,0.1791
327.0,0.1778
327.5,0.1709
328.0,0.1498
328.5,0.1605
329.0,0.1951
329.5,0.2226
330.0,0.2238
330.5,0.1771
331.0,0.1798
331.5,0.1844
332.0,0.2018
332.5,0.2008
333.0,0.1996
333.5,0.179
334.0,0.1832
334.5,0.2137
335.0,0.2021
335.5,0.2363
336.0,0.1636
336.5,0.1909
337.0,0.156
337.5,0.1938
338.0,0.1909
338.5,0.2208
339.0,0.2187
339.5,0.2104
340.0,0.2471
340.5,0.223
341.0,0.2177
341.5,0.2001
342.0,0.2393
342.5,0.2241
343.0,0.2464
343.5,0.232
344.0,0.1714
344.5,0.1732
345.0,0.2296
345.5,0.2347
346.0,0.1996
346.5,0.2262
347.0,0.2428
347.5,0.1964
348.0,0.2241
348.5,0.2242
349.0,0.2081
349.5,0.2062
350.0,0.2551
350.5,0.2692
351.0,0.2405
351.5,0.2337
352.0,0.2513
352.5,0.1963
353.0,0.2474
353.5,0.2647
354.0,0.2749
354.5,0.2789
355.0,0.2781
355.5,0.2514
356.0,0.2632
356.5,0.2248
357.0,0.1858
357.5,0.2275
358.0,0.1804
358.5,0.1542
359.0,0.2158
359.5,0.275
360.0,0.2917
360.5,0.2332
361.0,0.2128
361.5,0.2452
362.0,0.2123
362.5,0.294
363.0,0.2643
363.5,0.2436
364.0,0.2981
364.5,0.2549
365.0,0.2598
365.5,0.3262
366.0,0.3458
366.5,0.3252
367.0,0.3168
367.5,0.3289
368.0,0.288
368.5,0.2908
369.0,0.3142
369.5,0.3351
370.0,0.3574
370.5,0.2776
371.0,0.2967
371.5,0.3714
372.0,0.2466
372.5,0.2959
373.0,0.3011
373.5,0.1961
374.0,0.285
374.5,0.2362
375.0,0.2297
375.5,0.3431
376.0,0.2845
376.5,0.2949
377.0,0.3125
377.5,0.3657
378.0,0.3966
378.5,0.375
379.0,0.3095
379.5,0.2828
380.0,0.2942
380.5,0.3565
381.0,0.3575
381.5,0.2836
382.0,0.2521
382.5,0.215
383.0,0.1992
383.5,0.192
384.0,0.2119
384.5,0.3118
385.0,0.3094
385.5,0.2883
386.0,0.2471
386.5,0.3248
387.0,0.27
387.5,0.3034
388.0,0.2802
388.5,0.2772
389.0,0.2993
389.5,0.3627
390.0,0.3642
390.5,0.3353
391.0,0.3949
391.5,0.403
392.0,0.3396
392.5,0.3042
393.0,0.1694
393.5,0.1232
394.0,0.2508
394.5,0.319
395.0,0.3894
395.5,0.3957
396.0,0.3433
396.5,0.2008
397.0,0.1508
397.5,0.3068
398.0,0.4297
398.5,0.4443
399.0,0.4815
399.5,0.4801
400.0,0.4987
401.0,0.5043
402.0,0.5327
403.0,0.5066
404.0,0.4991
405.0,0.4994
406.0,0.4919
407.0,0.4844
408.0,0.5036
409.0,0.5394
410.0,0.4717
411.0,0.5114
412.0,0.5499
413.0,0.5365
414.0,0.5436
415.0,0.5456
416.0,0.5557
417.0,0.5423
418.0,0.5326
419.0,0.5401
420.0,0.538
421.0,0.5633
422.0,0.5357
423.0,0.5237
424.0,0.5541
425.0,0.5535
426.0,0.5398
427.0,0.53
428.0,0.5165
429.0,0.4898
430.0,0.429
431.0,0.4253
432.0,0.5496
433.0,0.5529
434.0,0.5136
435.0,0.5366
436.0,0.6052
437.0,0.5976
438.0,0.5446
439.0,0.563
440.0,0.5813
441.0,0.6028
442.0,0.6468
443.0,0.6299
444.0,0.6441
445.0,0.6302
446.0,0.6021
447.0,0.6516
448.0,0.6616
449.0,0.665
450.0,0.684
451.0,0.7096
452.0,0.684
453.0,0.6437
454.0,0.6725
455.0,0.6768
456.0,0.6931
457.0,0.7048
458.0,0.6805
459.0,0.6773
460.0,0.679
461.0,0.6949
462.0,0.7007
463.0,0.6959
464.0,0.6851
465.0,0.6771
466.0,0.6841
467.0,0.6715
468.0,0.6795
469.0,0.6832
470.0,0.6614
471.0,0.6607
472.0,0.6962
473.0,0.6872
474.0,0.6879
475.0,0.6933
476.0,0.6721
477.0,0.6736
478.0,0.6925
479.0,0.6887
480.0,0.6903
481.0,0.7038
482.0,0.708
483.0,0.7001
484.0,0.6862
485.0,0.6541
486.0,0.5722
487.0,0.6001
488.0,0.6584
489.0,0.6602
490.0,0.6949
491.0,0.6832
492.0,0.6453
493.0,0.6665
494.0,0.6733
495.0,0.6791
496.0,0.6833
497.0,0.6939
498.0,0.6614
499.0,0.6697
500.0,0.6499
501.0,0.6376
502.0,0.628
503.0,0.6528
504.0,0.6341
505.0,0.6585
506.0,0.6798
507.0,0.647
508.0,0.6275
509.0,0.6456
510.0,0.6426
511.0,0.6603
512.0,0.6678
513.0,0.6321
514.0,0.628
515.0,0.6218
516.0,0.6202
517.0,0.5512
518.0,0.5794
519.0,0.6077
520.0,0.6298
521.0,0.6357
522.0,0.636
523.0,0.6245
524.0,0.6465
525.0,0.6535
526.0,0.6241
527.0,0.5877
528.0,0.6212
529.0,0.6545
530.0,0.6449
531.0,0.6542
532.0,0.6317
533.0,0.6132
534.0,0.6315
535.0,0.6455
536.0,0.6517
537.0,0.6262
538.0,0.6374
539.0,0.6321
540.0,0.6059
541.0,0.6092
542.0,0.628
543.0,0.6219
544.0,0.6322
545.0,0.6303
546.0,0.6326
547.0,0.6327
548.0,0.6254
549.0,0.6275
550.0,0.635
551.0,0.6274
552.0,0.6317
553.0,0.6203
554.0,0.6351
555.0,0.6363
556.0,0.6279
557.0,0.6082
558.0,0.6033
559.0,0.5916
560.0,0.5988
561.0,0.6062
562.0,0.6015
563.0,0.6174
564.0,0.6002
565.0,0.5947
566.0,0.5857
567.0,0.5963
568.0,0.5899
569.0,0.5737
570.0,0.5738
571.0,0.5709
572.0,0.5832
573.0,0.5891
574.0,0.5869
575.0,0.5755
576.0,0.5703
577.0,0.5767
578.0,0.5687
579.0,0.5719
580.0,0.5844
581.0,0.5886
582.0,0.6008
583.0,0.6032
584.0,0.609
585.0,0.5945
586.0,0.5823
587.0,0.5944
588.0,0.5772
589.0,0.506
590.0,0.5296
591.0,0.5637
592.0,0.5547
593.0,0.5653
594.0,0.5604
595.0,0.5446
596.0,0.5704
597.0,0.5631
598.0,0.563
599.0,0.5641
600.0,0.5661
601.0,0.5623
602.0,0.5586
603.0,0.5682
604.0,0.5779
605.0,0.5751
606.0,0.5732
607.0,0.5794
608.0,0.5735
609.0,0.5749
610.0,0.5713
611.0,0.5745
612.0,0.5732
613.0,0.5662
614.0,0.5588
615.0,0.5714
616.0,0.5529
617.0,0.552
618.0,0.5735
619.0,0.5678
620.0,0.5714
621.0,0.5716
622.0,0.5646
623.0,0.5557
624.0,0.5465
625.0,0.5453
626.0,0.5532
627.0,0.5584
628.0,0.5094
629.0,0.541
630.0,0.5281
631.0,0.5442
632.0,0.5384
633.0,0.5565
634.0,0.5524
635.0,0.5617
636.0,0.5551
637.0,0.5647
638.0,0.5711
639.0,0.5652
640.0,0.5603
641.0,0.5604
642.0,0.5583
643.0,0.5659
644.0,0.5646
645.0,0.5652
646.0,0.5506
647.0,0.5407
648.0,0.5412
649.0,0.5303
650.0,0.5372
651.0,0.5613
652.0,0.5335
653.0,0.554
654.0,0.5483
655.0,0.5256
656.0,0.4674
657.0,0.4802
658.0,0.5395
659.0,0.544
660.0,0.5465
661.0,0.5505
662.0,0.5508
663.0,0.5402
664.0,0.5479
665.0,0.5492
666.0,0.5501
667.0,0.55
668.0,0.5508
669.0,0.5596
670.0,0.5574
671.0,0.5575
672.0,0.5529
673.0,0.5614
674.0,0.5595
675.0,0.5547
676.0,0.5586
677.0,0.5533
678.0,0.555
679.0,0.5462
680.0,0.5507
681.0,0.5471
682.0,0.5464
683.0,0.5454
684.0,0.5427
685.0,0.5475
686.0,0.5441
687.0,0.3101
688.0,0.3864
689.0,0.3886
690.0,0.4158
691.0,0.4471
692.0,0.4711
693.0,0.4666
694.0,0.4634
695.0,0.489
696.0,0.49
697.0,0.5276
698.0,0.5192
699.0,0.5017
700.0,0.4954
701.0,0.4885
702.0,0.4939
703.0,0.4951
704.0,0.5141
705.0,0.5148
706.0,0.5156
707.0,0.5164
708.0,0.5174
709.0,0.5202
710.0,0.5191
711.0,0.5191
712.0,0.5185
713.0,0.5124
714.0,0.5146
715.0,0.4963
716.0,0.496
717.0,0.4115
718.0,0.3759
719.0,0.3427
720.0,0.3572
721.0,0.4053
722.0,0.4755
723.0,0.4367
724.0,0.3863
725.0,0.3777
726.0,0.3962
727.0,0.4065
728.0,0.3759
729.0,0.3966
730.0,0.4187
731.0,0.3991
732.0,0.4338
733.0,0.4657
734.0,0.4788
735.0,0.4678
736.0,0.4671
737.0,0.4689
738.0,0.4809
739.0,0.4715
740.0,0.4852
741.0,0.4813
742.0,0.4826
743.0,0.4952
744.0,0.4943
745.0,0.4949
746.0,0.4972
747.0,0.4984
748.0,0.4974
749.0,0.4918
750.0,0.4915
751.0,0.4866
752.0,0.4887
753.0,0.4912
754.0,0.4923
755.0,0.4895
756.0,0.4894
757.0,0.4901
758.0,0.4839
759.0,0.471
760.0,0.04028
761.0,0.01673
762.0,0.1886
763.0,0.07207
764.0,0.1265
765.0,0.1885
766.0,0.2541
767.0,0.3458
768.0,0.4209
769.0,0.4348
770.0,0.4554
771.0,0.4616
772.0,0.4634
773.0,0.4669
774.0,0.4648
775.0,0.4614
776.0,0.4671
777.0,0.461
778.0,0.4581
779.0,0.4585
780.0,0.456
781.0,0.4565
782.0,0.4594
783.0,0.4515
784.0,0.4538
785.0,0.4502
786.0,0.455
787.0,0.4447
788.0,0.4381
789.0,0.4377
790.0,0.4228
791.0,0.4297
792.0,0.427
793.0,0.4197
794.0,0.4303
795.0,0.4366
796.0,0.4187
797.0,0.419
798.0,0.4356
799.0,0.432
800.0,0.4234
801.0,0.421
802.0,0.4198
803.0,0.4161
804.0,0.4171
805.0,0.4171
806.0,0.4311
807.0,0.4254
808.0,0.426
809.0,0.4163
810.0,0.4118
811.0,0.4098
812.0,0.3952
813.0,0.3854
814.0,0.33
815.0,0.3285
816.0,0.3047
817.0,0.311
818.0,0.2973
819.0,0.3401
820.0,0.3175
821.0,0.3824
822.0,0.3696
823.0,0.2341
824.0,0.3547
825.0,0.3756
826.0,0.3577
827.0,0.3812
828.0,0.3126
829.0,0.3563
830.0,0.3507
831.0,0.3521
832.0,0.3394
833.0,0.3661
834.0,0.3497
835.0,0.392
836.0,0.3701
837.0,0.3933
838.0,0.3785
839.0,0.3879
840.0,0.397
841.0,0.3903
842.0,0.3929
843.0,0.3944
844.0,0.388
845.0,0.4024
846.0,0.4009
847.0,0.394
848.0,0.3907
849.0,0.3796
850.0,0.3638
851.0,0.3843
852.0,0.382
853.0,0.3684
854.0,0.3175
855.0,0.3496
856.0,0.3817
857.0,0.3908
858.0,0.3877
859.0,0.3884
860.0,0.3893
861.0,0.3871
862.0,0.3933
863.0,0.4026
864.0,0.3825
865.0,0.3793
866.0,0.341
867.0,0.3559
868.0,0.3873
869.0,0.3793
870.0,0.3902
871.0,0.3848
872.0,0.3835
873.0,0.3828
874.0,0.3782
875.0,0.3705
876.0,0.3743
877.0,0.3782
878.0,0.3821
879.0,0.3763
880.0,0.3682
881.0,0.3623
882.0,0.37
883.0,0.3716
884.0,0.3697
885.0,0.3725
886.0,0.3535
887.0,0.3584
888.0,0.363
889.0,0.3684
890.0,0.3638
891.0,0.364
892.0,0.3514
893.0,0.3384
894.0,0.3221
895.0,0.2989
896.0,0.2799
897.0,0.2339
898.0,0.2586
899.0,0.1893
900.0,0.269
901.0,0.1984
902.0,0.2429
903.0,0.2418
904.0,0.3196
905.0,0.3066
906.0,0.2851
907.0,0.2213
908.0,0.2275
909.0,0.2508
910.0,0.2136
911.0,0.2334
912.0,0.245
913.0,0.2164
914.0,0.2162
915.0,0.234
916.0,0.1967
917.0,0.2578
918.0,0.2011
919.0,0.2651
920.0,0.2734
921.0,0.2843
922.0,0.2482
923.0,0.2752
924.0,0.2531
925.0,0.2479
926.0,0.2498
927.0,0.2856
928.0,0.1925
929.0,0.1712
930.0,0.1275
931.0,0.1214
932.0,0.08026
933.0,0.062
934.0,0.02748
935.0,0.06604
936.0,0.03693
937.0,0.03714
938.0,0.04724
939.0,0.1174
940.0,0.1465
941.0,0.1038
942.0,0.1239
943.0,0.07634
944.0,0.08551
945.0,0.1085
946.0,0.04834
947.0,0.1071
948.0,0.07792
949.0,0.1501
950.0,0.03215
951.0,0.149
952.0,0.0713
953.0,0.09786
954.0,0.1266
955.0,0.09967
956.0,0.1023
957.0,0.07079
958.0,0.153
959.0,0.1136
960.0,0.1273
961.0,0.1492
962.0,0.1407
963.0,0.1677
964.0,0.152
965.0,0.1672
966.0,0.1662
967.0,0.1648
968.0,0.242
969.0,0.25
970.0,0.2275
971.0,0.2696
972.0,0.256
973.0,0.2135
974.0,0.2017
975.0,0.2127
976.0,0.1967
977.0,0.2344
978.0,0.2183
979.0,0.2314
980.0,0.216
981.0,0.2683
982.0,0.2531
983.0,0.2411
984.0,0.2806
985.0,0.252
986.0,0.2881
987.0,0.2794
988.0,0.2792
989.0,0.2889
990.0,0.2773
991.0,0.2895
992.0,0.2914
993.0,0.282
994.0,0.2917
995.0,0.2917
996.0,0.29
997.0,0.2906
998.0,0.2891
999.0,0.2882
1000.0,0.2854
1001.0,0.2898
1002.0,0.2789
1003.0,0.2845
1004.0,0.2768
1005.0,0.2677
1006.0,0.2776
1007.0,0.2838
1008.0,0.2817
1009.0,0.2796
1010.0,0.2782
1011.0,0.2824
1012.0,0.2794
1013.0,0.2819
1014.0,0.2799
1015.0,0.278
1016.0,0.2767
1017.0,0.2772
1018.0,0.2766
1019.0,0.2696
1020.0,0.2749
1021.0,0.2747
1022.0,0.2722
1023.0,0.275
1024.0,0.2703
1025.0,0.2752
1026.0,0.2737
1027.0,0.2732
1028.0,0.2725
1029.0,0.2692
1030.0,0.2714
1031.0,0.2702
1032.0,0.2695
1033.0,0.2654
1034.0,0.2655
1035.0,0.2663
1036.0,0.2676
1037.0,0.2633
1038.0,0.2644
1039.0,0.2642
1040.0,0.2631
1041.0,0.264
1042.0,0.2622
1043.0,0.2613
1044.0,0.2621
1045.0,0.2585
1046.0,0.2556
1047.0,0.2578
1048.0,0.2591
1049.0,0.2581
1050.0,0.2568
1051.0,0.2563
1052.0,0.2552
1053.0,0.253
1054.0,0.2534
1055.0,0.2534
1056.0,0.2523
1057.0,0.2514
1058.0,0.2451
1059.0,0.2451
1060.0,0.2447
1061.0,0.2443
1062.0,0.2454
1063.0,0.2428
1064.0,0.2458
1065.0,0.2436
1066.0,0.2391
1067.0,0.2421
1068.0,0.2365
1069.0,0.2294
1070.0,0.2369
1071.0,0.2416
1072.0,0.238
1073.0,0.2348
1074.0,0.2419
1075.0,0.2269
1076.0,0.2416
1077.0,0.2356
1078.0,0.2304
1079.0,0.2382
1080.0,0.232
1081.0,0.2231
1082.0,0.2292
1083.0,0.2306
1084.0,0.222
1085.0,0.2328
1086.0,0.2084
1087.0,0.2179
1088.0,0.2298
1089.0,0.22
1090.0,0.2136
1091.0,0.2284
1092.0,0.2283
1093.0,0.1859
1094.0,0.2079
1095.0,0.1944
1096.0,0.1839
1097.0,0.2231
1098.0,0.18
1099.0,0.1889
1100.0,0.1726
1101.0,0.1758
1102.0,0.1658
1103.0,0.1627
1104.0,0.1631
1105.0,0.184
1106.0,0.1285
1107.0,0.1724
1108.0,0.1389
1109.0,0.1405
1110.0,0.1696
1111.0,0.1054
1112.0,0.1399
1113.0,0.07965
1114.0,0.08962
1115.0,0.07371
1116.0,0.05371
1117.0,0.01497
1118.0,0.05986
1119.0,0.02548
1120.0,0.03155
1121.0,0.04419
1122.0,0.01522
1123.0,0.0287
1124.0,0.02416
1125.0,0.03257
1126.0,0.008168
1127.0,0.03705
1128.0,0.01853
1129.0,0.02006
1130.0,0.01229
1131.0,0.08001
1132.0,0.06086
1133.0,0.03333
1134.0,0.006182
1135.0,0.002471
1136.0,0.02604
1137.0,0.07658
1138.0,0.05302
1139.0,0.09033
1140.0,0.07114
1141.0,0.05051
1142.0,0.0602
1143.0,0.09033
1144.0,0.02655
1145.0,0.03218
1146.0,0.03464
1147.0,0.009039
1148.0,0.07768
1149.0,0.05884
1150.0,0.02943
1151.0,0.05259
1152.0,0.06855
1153.0,0.06983
1154.0,0.03119
1155.0,0.09405
1156.0,0.08241
1157.0,0.09679
1158.0,0.0956
1159.0,0.1057
1160.0,0.08794
1161.0,0.1147
1162.0,0.1146
1163.0,0.1661
1164.0,0.1384
1165.0,0.1266
1166.0,0.1289
1167.0,0.1423
1168.0,0.143
1169.0,0.1476
1170.0,0.1638
1171.0,0.1595
1172.0,0.1646
1173.0,0.1635
1174.0,0.1088
1175.0,0.1616
1176.0,0.1822
1177.0,0.1718
1178.0,0.123
1179.0,0.1837
1180.0,0.1591
1181.0,0.1644
1182.0,0.1068
1183.0,0.1629
1184.0,0.1505
1185.0,0.1431
1186.0,0.1765
1187.0,0.166
1188.0,0.1075
1189.0,0.1543
1190.0,0.1729
1191.0,0.16
1192.0,0.1757
1193.0,0.167
1194.0,0.173
1195.0,0.1608
1196.0,0.1532
1197.0,0.1744
1198.0,0.158
1199.0,0.1285
1200.0,0.1647
1201.0,0.1567
1202.0,0.1575
1203.0,0.1553
1204.0,0.1332
1205.0,0.1629
1206.0,0.1829
1207.0,0.1563
1208.0,0.1556
1209.0,0.1592
1210.0,0.1672
1211.0,0.1571
1212.0,0.1521
1213.0,0.1754
1214.0,0.157
1215.0,0.1536
1216.0,0.1751
1217.0,0.1693
1218.0,0.1736
1219.0,0.1708
1220.0,0.1739
1221.0,0.1762
1222.0,0.1712
1223.0,0.1691
1224.0,0.1669
1225.0,0.175
1226.0,0.177
1227.0,0.1602
1228.0,0.1786
1229.0,0.177
1230.0,0.1734
1231.0,0.1804
1232.0,0.1792
1233.0,0.1704
1234.0,0.1808
1235.0,0.1792
1236.0,0.1808
1237.0,0.1772
1238.0,0.1802
1239.0,0.1779
1240.0,0.1787
1241.0,0.1772
1242.0,0.1774
1243.0,0.176
1244.0,0.1771
1245.0,0.1779
1246.0,0.1769
1247.0,0.1761
1248.0,0.1756
1249.0,0.1764
1250.0,0.1752
1251.0,0.1725
1252.0,0.1731
1253.0,0.1707
1254.0,0.1683
1255.0,0.1726
1256.0,0.1661
1257.0,0.1648
1258.0,0.1693
1259.0,0.1605
1260.0,0.1617
1261.0,0.1494
1262.0,0.1432
1263.0,0.1434
1264.0,0.1285
1265.0,0.1425
1266.0,0.1348
1267.0,0.1388
1268.0,0.1291
1269.0,0.06537
1270.0,0.1377
1271.0,0.1492
1272.0,0.1501
1273.0,0.1481
1274.0,0.1491
1275.0,0.1519
1276.0,0.154
1277.0,0.1558
1278.0,0.1601
1279.0,0.1586
1280.0,0.1567
1281.0,0.1501
1282.0,0.1456
1283.0,0.1566
1284.0,0.1602
1285.0,0.1614
1286.0,0.1642
1287.0,0.1606
1288.0,0.1609
1289.0,0.1537
1290.0,0.1596
1291.0,0.1622
1292.0,0.1486
1293.0,0.1581
1294.0,0.1568
1295.0,0.1549
1296.0,0.1456
1297.0,0.1361
1298.0,0.1501
1299.0,0.1587
1300.0,0.1283
1301.0,0.1334
1302.0,0.1497
1303.0,0.1273
1304.0,0.1031
1305.0,0.1463
1306.0,0.1458
1307.0,0.1074
1308.0,0.1284
1309.0,0.1439
1310.0,0.1049
1311.0,0.1219
1312.0,0.1177
1313.0,0.1143
1314.0,0.1004
1315.0,0.09779
1316.0,0.1189
1317.0,0.1119
1318.0,0.124
1319.0,0.09034
1320.0,0.0889
1321.0,0.1058
1322.0,0.1057
1323.0,0.07424
1324.0,0.08885
1325.0,0.1166
1326.0,0.09676
1327.0,0.09137
1328.0,0.07698
1329.0,0.05324
1330.0,0.07166
1331.0,0.03826
1332.0,0.04105
1333.0,0.05811
1334.0,0.05228
1335.0,0.07364
1336.0,0.05541
1337.0,0.04801
1338.0,0.05172
1339.0,0.05221
1340.0,0.05225
1341.0,0.04757
1342.0,0.05036
1343.0,0.02832
1344.0,0.01749
1345.0,0.02503
1346.0,0.009407
1347.0,0.009057
1348.0,0.0003216
1349.0,0.001345
1350.0,0.001557
1351.0,0.0002169
1352.0,2.924e-05
1353.0,8.431e-07
1354.0,4.477e-06
1355.0,1e-08
1356.0,4.027e-07
1357.0,6.14e-07
1358.0,1.244e-08
1359.0,6.476e-10
1360.0,4.07e-09
1361.0,1.211e-12
1362.0,2.714e-15
1363.0,3.756e-09
1364.0,1.652e-09
1365.0,8.287e-16
1366.0,2.041e-08
1367.0,1.096e-08
1368.0,6.1e-18
1369.0,6.068e-10
1370.0,2.134e-10
1371.0,9.02e-12
1372.0,6.193e-09
1373.0,2.294e-07
1374.0,1.688e-06
1375.0,2.77e-06
1376.0,4.153e-06
1377.0,1.743e-06
1378.0,1.911e-05
1379.0,7.416e-07
1380.0,7.616e-07
1381.0,1.647e-08
1382.0,4.935e-09
1383.0,5.847e-11
1384.0,5.801e-10
1385.0,7.677e-09
1386.0,3.293e-09
1387.0,1.202e-06
1388.0,2.87e-08
1389.0,7.318e-06
1390.0,6.008e-06
1391.0,3.813e-06
1392.0,2.33e-07
1393.0,1.553e-06
1394.0,3.467e-07
1395.0,1.742e-09
1396.0,1.851e-12
1397.0,5.173e-07
1398.0,1.985e-05
1399.0,1.307e-05
1400.0,6.351e-13
1401.0,3.649e-12
1402.0,7.744e-05
1403.0,8.328e-05
1404.0,2.352e-05
1405.0,6e-10
1406.0,4.699e-05
1407.0,5.646e-06
1408.0,4.056e-05
1409.0,9.099e-06
1410.0,1.037e-05
1411.0,7.573e-05
1412.0,0.0001242
1413.0,0.002101
1414.0,8.713e-06
1415.0,3.52e-06
1416.0,0.005039
1417.0,0.001104
1418.0,0.001102
1419.0,0.0001586
1420.0,0.0006652
1421.0,0.0007833
1422.0,0.006614
1423.0,0.001193
1424.0,0.002397
1425.0,0.003212
1426.0,0.004303
1427.0,0.009283
1428.0,0.0002829
1429.0,0.006142
1430.0,0.01264
1431.0,0.01444
1432.0,0.0002178
