interpolation:linear
wavelength,value
280.0,5.176999999999999e-22
280.5,1.047e-20
281.0,4.782e-20
281.5,1.024e-18
282.0,6.556e-18
282.5,2.174e-17
283.0,8.239e-17
283.5,1.43e-16
284.0,2.698e-15
284.5,8.067e-15
285.0,2.299e-14
285.5,1.546e-13
286.0,6.782e-13
286.5,3.471e-12
287.0,1.068e-11
287.5,4.397e-11
288.0,1.518e-10
288.5,5.67e-10
289.0,1.787e-09
289.5,6.253e-09
290.0,1.927e-08
290.5,4.261e-08
291.0,1e-07
291.5,3.197e-07
292.0,7.244e-07
292.5,1.053e-06
293.0,2.353e-06
293.5,6.044e-06
294.0,9.845e-06
294.5,1.92e-05
295.0,3.406e-05
295.5,7.145e-05
296.0,0.0001268
296.5,0.0001634
297.0,0.0002068
297.5,0.0005019
298.0,0.0007269
298.5,0.0006853
299.0,0.001418
299.5,0.002108
300.0,0.002181
300.5,0.002967
301.0,0.004854
301.5,0.007064
302.0,0.005771
302.5,0.01055
303.0,0.01739
303.5,0.02077
304.0,0.01885
304.5,0.02571
305.0,0.03449
305.5,0.03661
306.0,0.03441
306.5,0.04084
307.0,0.05461
307.5,0.06588
308.0,0.06848
308.5,0.07715
309.0,0.0729
309.5,0.07799
310.0,0.07592
310.5,0.121
311.0,0.148
311.5,0.1412
312.0,0.1334
312.5,0.1562
313.0,0.1661
313.5,0.1642
314.0,0.1961
314.5,0.1638
315.0,0.2128
315.5,0.1832
316.0,0.1523
316.5,0.2098
317.0,0.2605
317.5,0.2742
318.0,0.2079
318.5,0.2443
319.0,0.2821
319.5,0.2401
320.0,0.2919
320.5,0.3456
321.0,0.2929
321.5,0.2793
322.0,0.3137
322.5,0.2721
323.0,0.2617
323.5,0.3109
324.0,0.3607
324.5,0.3713
325.0,0.3268
325.5,0.4087
326.0,0.4947
326.5,0.4862
327.0,0.4876
327.5,0.4749
328.0,0.4333
328.5,0.4418
329.0,0.5166
329.5,0.5821
330.0,0.5903
330.5,0.4808
331.0,0.4927
331.5,0.4939
332.0,0.5232
332.5,0.5129
333.0,0.5139
333.5,0.4716
334.0,0.4841
334.5,0.5494
335.0,0.5114
335.5,0.597
336.0,0.4129
336.5,0.4856
337.0,0.4009
337.5,0.4997
338.0,0.4814
338.5,0.5552
339.0,0.5492
339.5,0.5281
340.0,0.6207
340.5,0.5586
341.0,0.5449
341.5,0.5
342.0,0.5972
342.5,0.5585
343.0,0.6142
343.5,0.5783
344.0,0.427
344.5,0.4314
345.0,0.5704
345.5,0.5819
346.0,0.4943
346.5,0.5594
347.0,0.6005
347.5,0.4854
348.0,0.553
348.5,0.5525
349.0,0.5123
349.5,0.507
350.0,0.6269
350.5,0.661
351.0,0.5905
351.5,0.5739
352.0,0.6161
352.5,0.4805
353.0,0.6049
353.5,0.6466
354.0,0.671
354.5,0.6804
355.0,0.6781
355.5,0.6122
356.0,0.6403
356.5,0.5467
357.0,0.4517
357.5,0.5529
358.0,0.438
358.5,0.3743
359.0,0.5234
359.5,0.6671
360.0,0.707
360.5,0.5649
361.0,0.5148
361.5,0.5923
362.0,0.5119
362.5,0.7081
363.0,0.6356
363.5,0.5852
364.0,0.7155
364.5,0.6114
365.0,0.6226
365.5,0.7812
366.0,0.8273
366.5,0.777
367.0,0.7566
367.5,0.785
368.0,0.6868
368.5,0.6928
369.0,0.748
369.5,0.7971
370.0,0.8495
370.5,0.6591
371.0,0.7041
371.5,0.8807
372.0,0.5845
372.5,0.7007
373.0,0.7125
373.5,0.4634
374.0,0.6733
374.5,0.5574
375.0,0.5418
375.5,0.8088
376.0,0.6704
376.5,0.6947
377.0,0.7353
377.5,0.86
378.0,0.9322
378.5,0.8811
379.0,0.7271
379.5,0.6642
380.0,0.6905
380.5,0.8361
381.0,0.8375
381.5,0.6637
382.0,0.5892
382.5,0.5021
383.0,0.4647
383.5,0.4475
384.0,0.4935
384.5,0.7258
385.0,0.7196
385.5,0.67
386.0,0.5737
386.5,0.7534
387.0,0.626
387.5,0.703
388.0,0.649
388.5,0.6414
389.0,0.6923
389.5,0.8383
390.0,0.8412
390.5,0.774
391.0,0.9109
391.5,0.929
392.0,0.7824
392.5,0.7003
393.0,0.3896
393.5,0.2831
394.0,0.576
394.5,0.7322
395.0,0.8934
395.5,0.9075
396.0,0.7867
396.5,0.4597
397.0,0.3449
397.5,0.7014
398.0,0.9823
398.5,1.015
399.0,1.099
399.5,1.095
400.0,1.137
401.0,1.157
402.0,1.22
403.0,1.158
404.0,1.14
405.0,1.14
406.0,1.121
407.0,1.102
408.0,1.145
409.0,1.225
410.0,1.07
411.0,1.159
412.0,1.244
413.0,1.213
414.0,1.227
415.0,1.23
416.0,1.251
417.0,1.22
418.0,1.197
419.0,1.212
420.0,1.207
421.0,1.262
422.0,1.199
423.0,1.171
424.0,1.238
425.0,1.236
426.0,1.203
427.0,1.18
428.0,1.149
429.0,1.088
430.0,0.9517
431.0,0.9434
432.0,1.217
433.0,1.224
434.0,1.136
435.0,1.187
436.0,1.336
437.0,1.317
438.0,1.199
439.0,1.241
440.0,1.28
441.0,1.326
442.0,1.421
443.0,1.385
444.0,1.414
445.0,1.384
446.0,1.319
447.0,1.425
448.0,1.448
449.0,1.453
450.0,1.493
451.0,1.548
452.0,1.491
453.0,1.402
454.0,1.463
455.0,1.472
456.0,1.506
457.0,1.531
458.0,1.479
459.0,1.471
460.0,1.475
461.0,1.509
462.0,1.52
463.0,1.51
464.0,1.483
465.0,1.464
466.0,1.477
467.0,1.45
468.0,1.467
469.0,1.475
470.0,1.428
471.0,1.426
472.0,1.503
473.0,1.483
474.0,1.486
475.0,1.5
476.0,1.456
477.0,1.461
478.0,1.501
479.0,1.491
480.0,1.493
481.0,1.52
482.0,1.527
483.0,1.507
484.0,1.475
485.0,1.405
486.0,1.228
487.0,1.286
488.0,1.411
489.0,1.416
490.0,1.489
491.0,1.462
492.0,1.381
493.0,1.426
494.0,1.44
495.0,1.452
496.0,1.461
497.0,1.484
498.0,1.414
499.0,1.433
500.0,1.391
501.0,1.367
502.0,1.349
503.0,1.405
504.0,1.374
505.0,1.419
506.0,1.465
507.0,1.394
508.0,1.349
509.0,1.386
510.0,1.378
511.0,1.414
512.0,1.429
513.0,1.352
514.0,1.343
515.0,1.329
516.0,1.326
517.0,1.178
518.0,1.238
519.0,1.299
520.0,1.346
521.0,1.359
522.0,1.361
523.0,1.337
524.0,1.385
525.0,1.402
526.0,1.34
527.0,1.263
528.0,1.337
529.0,1.41
530.0,1.39
531.0,1.411
532.0,1.362
533.0,1.322
534.0,1.361
535.0,1.39
536.0,1.403
537.0,1.347
538.0,1.371
539.0,1.359
540.0,1.303
541.0,1.313
542.0,1.355
543.0,1.339
544.0,1.364
545.0,1.359
546.0,1.366
547.0,1.365
548.0,1.348
549.0,1.352
550.0,1.368
551.0,1.351
552.0,1.36
553.0,1.336
554.0,1.368
555.0,1.371
556.0,1.354
557.0,1.312
558.0,1.303
559.0,1.279
560.0,1.295
561.0,1.313
562.0,1.304
563.0,1.34
564.0,1.304
565.0,1.294
566.0,1.275
567.0,1.3
568.0,1.291
569.0,1.264
570.0,1.263
571.0,1.254
572.0,1.287
573.0,1.301
574.0,1.298
575.0,1.275
576.0,1.263
577.0,1.276
578.0,1.256
579.0,1.259
580.0,1.28
581.0,1.285
582.0,1.307
583.0,1.309
584.0,1.319
585.0,1.286
586.0,1.26
587.0,1.289
588.0,1.262
589.0,1.128
590.0,1.179
591.0,1.242
592.0,1.23
593.0,1.244
594.0,1.237
595.0,1.21
596.0,1.249
597.0,1.238
598.0,1.232
599.0,1.232
600.0,1.232
601.0,1.22
602.0,1.212
603.0,1.231
604.0,1.251
605.0,1.244
606.0,1.238
607.0,1.25
608.0,1.235
609.0,1.236
610.0,1.227
611.0,1.233
612.0,1.229
613.0,1.213
614.0,1.196
615.0,1.221
616.0,1.18
617.0,1.177
618.0,1.222
619.0,1.21
620.0,1.217
621.0,1.219
622.0,1.206
623.0,1.188
624.0,1.167
625.0,1.164
626.0,1.182
627.0,1.197
628.0,1.139
629.0,1.176
630.0,1.149
631.0,1.168
632.0,1.153
633.0,1.185
634.0,1.171
635.0,1.188
636.0,1.171
637.0,1.189
638.0,1.199
639.0,1.185
640.0,1.173
641.0,1.171
642.0,1.165
643.0,1.181
644.0,1.176
645.0,1.178
646.0,1.153
647.0,1.145
648.0,1.147
649.0,1.125
650.0,1.123
651.0,1.171
652.0,1.13
653.0,1.155
654.0,1.141
655.0,1.103
656.0,0.9745
657.0,1.0
658.0,1.119
659.0,1.126
660.0,1.13
661.0,1.138
662.0,1.142
663.0,1.119
664.0,1.13
665.0,1.129
666.0,1.129
667.0,1.127
668.0,1.127
669.0,1.144
670.0,1.139
671.0,1.138
672.0,1.128
673.0,1.145
674.0,1.14
675.0,1.13
676.0,1.137
677.0,1.125
678.0,1.128
679.0,1.11
680.0,1.119
681.0,1.111
682.0,1.11
683.0,1.108
684.0,1.102
685.0,1.111
686.0,1.105
687.0,0.827
688.0,0.9234
689.0,0.9252
690.0,0.9555
691.0,0.989
692.0,1.012
693.0,1.005
694.0,0.9972
695.0,1.027
696.0,1.029
697.0,1.077
698.0,1.061
699.0,1.045
700.0,1.032
701.0,1.025
702.0,1.028
703.0,1.03
704.0,1.058
705.0,1.059
706.0,1.056
707.0,1.056
708.0,1.059
709.0,1.057
710.0,1.058
711.0,1.056
712.0,1.051
713.0,1.042
714.0,1.046
715.0,1.016
716.0,1.018
717.0,0.9168
718.0,0.8488
719.0,0.7816
720.0,0.8209
721.0,0.8843
722.0,0.9879
723.0,0.9322
724.0,0.854
725.0,0.8452
726.0,0.8816
727.0,0.8865
728.0,0.8444
729.0,0.8635
730.0,0.9128
731.0,0.8777
732.0,0.9256
733.0,0.9671
734.0,0.9867
735.0,0.968
736.0,0.9665
737.0,0.9708
738.0,0.9777
739.0,0.9586
740.0,0.981
741.0,0.9698
742.0,0.9692
743.0,0.9935
744.0,0.9897
745.0,0.9892
746.0,0.9937
747.0,0.9957
748.0,0.9936
749.0,0.9822
750.0,0.9815
751.0,0.9715
752.0,0.9756
753.0,0.9805
754.0,0.9827
755.0,0.9772
756.0,0.9766
757.0,0.9781
758.0,0.9661
759.0,0.9511
760.0,0.263
761.0,0.1654
762.0,0.5843
763.0,0.3565
764.0,0.4773
765.0,0.5847
766.0,0.6698
767.0,0.7993
768.0,0.8872
769.0,0.8981
770.0,0.92
771.0,0.9236
772.0,0.9243
773.0,0.9305
774.0,0.9258
775.0,0.9185
776.0,0.9296
777.0,0.9173
778.0,0.9118
779.0,0.9125
780.0,0.9073
781.0,0.9082
782.0,0.9138
783.0,0.8978
784.0,0.902
785.0,0.8956
786.0,0.9058
787.0,0.8935
788.0,0.8841
789.0,0.8843
790.0,0.8661
791.0,0.8685
792.0,0.8614
793.0,0.8481
794.0,0.857
795.0,0.8729
796.0,0.8533
797.0,0.8545
798.0,0.8726
799.0,0.8684
800.0,0.8551
801.0,0.8539
802.0,0.8513
803.0,0.8457
804.0,0.8461
805.0,0.8414
806.0,0.8617
807.0,0.8521
808.0,0.8524
809.0,0.839
810.0,0.834
811.0,0.8384
812.0,0.8195
813.0,0.8058
814.0,0.7265
815.0,0.7216
816.0,0.6744
817.0,0.6844
818.0,0.6627
819.0,0.7253
820.0,0.6893
821.0,0.7847
822.0,0.7658
823.0,0.5551
824.0,0.7505
825.0,0.7722
826.0,0.7492
827.0,0.7838
828.0,0.6835
829.0,0.7433
830.0,0.7357
831.0,0.7375
832.0,0.7184
833.0,0.7542
834.0,0.7339
835.0,0.7928
836.0,0.7671
837.0,0.7945
838.0,0.7733
839.0,0.7817
840.0,0.7979
841.0,0.7882
842.0,0.7874
843.0,0.7845
844.0,0.775
845.0,0.7993
846.0,0.7954
847.0,0.7798
848.0,0.7761
849.0,0.7541
850.0,0.7223
851.0,0.7659
852.0,0.76
853.0,0.7306
854.0,0.6316
855.0,0.6928
856.0,0.7576
857.0,0.7738
858.0,0.7684
859.0,0.7686
860.0,0.7696
861.0,0.7655
862.0,0.7774
863.0,0.7957
864.0,0.7559
865.0,0.7492
866.0,0.6737
867.0,0.703
868.0,0.7649
869.0,0.749
870.0,0.7703
871.0,0.7599
872.0,0.7571
873.0,0.7556
874.0,0.7466
875.0,0.7315
876.0,0.7392
877.0,0.7466
878.0,0.7549
879.0,0.7432
880.0,0.7273
881.0,0.7169
882.0,0.7326
883.0,0.7344
884.0,0.7312
885.0,0.7367
886.0,0.704
887.0,0.71
888.0,0.7215
889.0,0.728
890.0,0.7238
891.0,0.7216
892.0,0.7032
893.0,0.6845
894.0,0.6664
895.0,0.6374
896.0,0.6043
897.0,0.53
898.0,0.5719
899.0,0.4486
900.0,0.579
901.0,0.4695
902.0,0.5332
903.0,0.544
904.0,0.6614
905.0,0.6421
906.0,0.6038
907.0,0.5066
908.0,0.5146
909.0,0.5495
910.0,0.4998
911.0,0.5245
912.0,0.5449
913.0,0.5079
914.0,0.5012
915.0,0.5415
916.0,0.4631
917.0,0.5718
918.0,0.4751
919.0,0.5788
920.0,0.578
921.0,0.5992
922.0,0.5456
923.0,0.5783
924.0,0.5596
925.0,0.5478
926.0,0.5537
927.0,0.6103
928.0,0.475
929.0,0.4411
930.0,0.3588
931.0,0.3377
932.0,0.2556
933.0,0.2148
934.0,0.1328
935.0,0.2139
936.0,0.1429
937.0,0.1463
938.0,0.176
939.0,0.3273
940.0,0.3853
941.0,0.3025
942.0,0.3425
943.0,0.2346
944.0,0.2389
945.0,0.3099
946.0,0.1704
947.0,0.3144
948.0,0.2333
949.0,0.4081
950.0,0.1339
951.0,0.3997
952.0,0.2318
953.0,0.2881
954.0,0.3411
955.0,0.2901
956.0,0.2765
957.0,0.2339
958.0,0.374
959.0,0.31
960.0,0.3469
961.0,0.3796
962.0,0.3606
963.0,0.4071
964.0,0.376
965.0,0.4045
966.0,0.4068
967.0,0.4058
968.0,0.5154
969.0,0.54
970.0,0.5002
971.0,0.5601
972.0,0.5381
973.0,0.481
974.0,0.4586
975.0,0.4709
976.0,0.4537
977.0,0.5035
978.0,0.4837
979.0,0.5024
980.0,0.4752
981.0,0.5562
982.0,0.5363
983.0,0.5176
984.0,0.5682
985.0,0.5341
986.0,0.5753
987.0,0.5671
988.0,0.5661
989.0,0.5717
990.0,0.5624
991.0,0.5738
992.0,0.5768
993.0,0.567
994.0,0.5763
995.0,0.5751
996.0,0.5731
997.0,0.5737
998.0,0.5711
999.0,0.5689
1000.0,0.5656
1001.0,0.5719
1002.0,0.5592
1003.0,0.562
1004.0,0.549
1005.0,0.5278
1006.0,0.549
1007.0,0.5603
1008.0,0.5578
1009.0,0.5555
1010.0,0.5534
1011.0,0.5574
1012.0,0.5532
1013.0,0.5559
1014.0,0.552
1015.0,0.5484
1016.0,0.546
1017.0,0.5475
1018.0,0.5451
1019.0,0.5346
1020.0,0.5424
1021.0,0.5415
1022.0,0.5377
1023.0,0.5434
1024.0,0.5376
1025.0,0.5427
1026.0,0.5407
1027.0,0.5393
1028.0,0.5383
1029.0,0.5321
1030.0,0.5353
1031.0,0.5333
1032.0,0.5316
1033.0,0.5236
1034.0,0.5236
1035.0,0.5253
1036.0,0.5281
1037.0,0.5195
1038.0,0.5218
1039.0,0.5216
1040.0,0.5195
1041.0,0.5217
1042.0,0.518
1043.0,0.5165
1044.0,0.5183
1045.0,0.5114
1046.0,0.5058
1047.0,0.5104
1048.0,0.5133
1049.0,0.5116
1050.0,0.5093
1051.0,0.5087
1052.0,0.5067
1053.0,0.5028
1054.0,0.5041
1055.0,0.5045
1056.0,0.503
1057.0,0.5015
1058.0,0.4894
1059.0,0.4901
1060.0,0.4894
1061.0,0.4889
1062.0,0.4917
1063.0,0.487
1064.0,0.4927
1065.0,0.4896
1066.0,0.4796
1067.0,0.4859
1068.0,0.4756
1069.0,0.4606
1070.0,0.4766
1071.0,0.483
1072.0,0.4782
1073.0,0.4711
1074.0,0.4821
1075.0,0.4612
1076.0,0.4819
1077.0,0.4751
1078.0,0.4668
1079.0,0.4737
1080.0,0.4679
1081.0,0.4543
1082.0,0.4589
1083.0,0.4597
1084.0,0.4542
1085.0,0.4686
1086.0,0.4329
1087.0,0.4428
1088.0,0.4598
1089.0,0.4487
1090.0,0.4411
1091.0,0.4591
1092.0,0.4573
1093.0,0.3972
1094.0,0.4195
1095.0,0.4123
1096.0,0.3977
1097.0,0.4465
1098.0,0.3925
1099.0,0.4078
1100.0,0.3836
1101.0,0.3871
1102.0,0.3722
1103.0,0.3706
1104.0,0.3708
1105.0,0.3994
1106.0,0.3222
1107.0,0.3826
1108.0,0.3344
1109.0,0.3331
1110.0,0.3804
1111.0,0.2718
1112.0,0.3297
1113.0,0.2245
1114.0,0.249
1115.0,0.2069
1116.0,0.1744
1117.0,0.07483
1118.0,0.186
1119.0,0.1006
1120.0,0.1268
1121.0,0.1628
1122.0,0.07587
1123.0,0.1143
1124.0,0.09657
1125.0,0.124
1126.0,0.05059
1127.0,0.1392
1128.0,0.0912
1129.0,0.09543
1130.0,0.06661
1131.0,0.2457
1132.0,0.1962
1133.0,0.134
1134.0,0.04073
1135.0,0.01499
1136.0,0.1153
1137.0,0.2439
1138.0,0.1742
1139.0,0.2421
1140.0,0.2091
1141.0,0.1655
1142.0,0.1866
1143.0,0.2576
1144.0,0.09936
1145.0,0.1289
1146.0,0.1391
1147.0,0.05685
1148.0,0.2231
1149.0,0.1838
1150.0,0.1066
1151.0,0.173
1152.0,0.2064
1153.0,0.1963
1154.0,0.1268
1155.0,0.2528
1156.0,0.2311
1157.0,0.2544
1158.0,0.2514
1159.0,0.2666
1160.0,0.2335
1161.0,0.2775
1162.0,0.2795
1163.0,0.3606
1164.0,0.3156
1165.0,0.3034
1166.0,0.2975
1167.0,0.3208
1168.0,0.3255
1169.0,0.331
1170.0,0.3549
1171.0,0.3469
1172.0,0.3504
1173.0,0.3541
1174.0,0.2667
1175.0,0.3439
1176.0,0.3716
1177.0,0.3609
1178.0,0.2816
1179.0,0.3743
1180.0,0.3414
1181.0,0.3515
1182.0,0.2539
1183.0,0.3444
1184.0,0.3266
1185.0,0.3184
1186.0,0.3665
1187.0,0.3525
1188.0,0.2591
1189.0,0.3292
1190.0,0.3582
1191.0,0.3457
1192.0,0.3625
1193.0,0.3495
1194.0,0.3588
1195.0,0.3433
1196.0,0.3332
1197.0,0.3567
1198.0,0.3296
1199.0,0.2895
1200.0,0.3454
1201.0,0.3362
1202.0,0.3325
1203.0,0.3298
1204.0,0.2937
1205.0,0.3375
1206.0,0.3677
1207.0,0.3325
1208.0,0.3246
1209.0,0.3306
1210.0,0.3423
1211.0,0.3295
1212.0,0.3293
1213.0,0.3575
1214.0,0.3353
1215.0,0.3299
1216.0,0.3562
1217.0,0.3485
1218.0,0.3535
1219.0,0.3499
1220.0,0.3536
1221.0,0.3561
1222.0,0.348
1223.0,0.3454
1224.0,0.3445
1225.0,0.3539
1226.0,0.3552
1227.0,0.3322
1228.0,0.356
1229.0,0.3552
1230.0,0.35
1231.0,0.3571
1232.0,0.3551
1233.0,0.3465
1234.0,0.3561
1235.0,0.3543
1236.0,0.3565
1237.0,0.3529
1238.0,0.3553
1239.0,0.3508
1240.0,0.3519
1241.0,0.3511
1242.0,0.3496
1243.0,0.3467
1244.0,0.3494
1245.0,0.3508
1246.0,0.3487
1247.0,0.3476
1248.0,0.3478
1249.0,0.3485
1250.0,0.3466
1251.0,0.3427
1252.0,0.3421
1253.0,0.3406
1254.0,0.3381
1255.0,0.342
1256.0,0.3347
1257.0,0.3333
1258.0,0.3378
1259.0,0.329
1260.0,0.3303
1261.0,0.3163
1262.0,0.3092
1263.0,0.3099
1264.0,0.2916
1265.0,0.3078
1266.0,0.2995
1267.0,0.3024
1268.0,0.2905
1269.0,0.2058
1270.0,0.3022
1271.0,0.3147
1272.0,0.3152
1273.0,0.3123
1274.0,0.3127
1275.0,0.3163
1276.0,0.3185
1277.0,0.3197
1278.0,0.3239
1279.0,0.3212
1280.0,0.317
1281.0,0.3017
1282.0,0.2893
1283.0,0.3118
1284.0,0.3196
1285.0,0.3215
1286.0,0.325
1287.0,0.3215
1288.0,0.321
1289.0,0.3136
1290.0,0.318
1291.0,0.3219
1292.0,0.3077
1293.0,0.317
1294.0,0.315
1295.0,0.3147
1296.0,0.3039
1297.0,0.2903
1298.0,0.307
1299.0,0.3168
1300.0,0.2777
1301.0,0.2842
1302.0,0.3058
1303.0,0.273
1304.0,0.2419
1305.0,0.3003
1306.0,0.3008
1307.0,0.244
1308.0,0.272
1309.0,0.2991
1310.0,0.2397
1311.0,0.2628
1312.0,0.2572
1313.0,0.2536
1314.0,0.2303
1315.0,0.2293
1316.0,0.2601
1317.0,0.2475
1318.0,0.2652
1319.0,0.2182
1320.0,0.209
1321.0,0.2397
1322.0,0.2436
1323.0,0.1924
1324.0,0.2139
1325.0,0.2569
1326.0,0.2262
1327.0,0.2172
1328.0,0.1903
1329.0,0.1506
1330.0,0.192
1331.0,0.1257
1332.0,0.1264
1333.0,0.1731
1334.0,0.1429
1335.0,0.1915
1336.0,0.1562
1337.0,0.1412
1338.0,0.1523
1339.0,0.1504
1340.0,0.1439
1341.0,0.146
1342.0,0.153
1343.0,0.1158
1344.0,0.06917
1345.0,0.09807
1346.0,0.05743
1347.0,0.05983
1348.0,0.005944
1349.0,0.01874
1350.0,0.01777
1351.0,0.006286
1352.0,0.002462
1353.0,0.0002005
1354.0,0.0005224
1355.0,1.042e-05
1356.0,0.0001022
1357.0,0.0001529
1358.0,1.191e-05
1359.0,2.875e-06
1360.0,6.875e-06
1361.0,3.211e-08
1362.0,1.716e-10
1363.0,1.068e-05
1364.0,4.846e-06
1365.0,1.25e-10
1366.0,3.897e-05
1367.0,1.503e-05
1368.0,4.254e-12
1369.0,1.912e-06
1370.0,1.236e-06
1371.0,1.022e-07
1372.0,8.36e-06
1373.0,0.000105
1374.0,0.0003573
1375.0,0.0006357
1376.0,0.0004635
1377.0,0.0002297
1378.0,0.001878
1379.0,9.895e-05
1380.0,0.0001687
1381.0,5.574e-06
1382.0,8.122e-06
1383.0,1.663e-07
1384.0,2.389e-06
1385.0,5.747e-06
1386.0,8.662e-06
1387.0,0.0004298
1388.0,9.418e-06
1389.0,0.001062
1390.0,0.000906
1391.0,0.0006591
1392.0,4.982e-05
1393.0,0.0002198
1394.0,0.0001806
1395.0,2.038e-06
1396.0,3.853e-08
1397.0,9.985e-05
1398.0,0.002152
1399.0,0.001373
1400.0,2.376e-08
1401.0,6.051e-08
1402.0,0.002584
1403.0,0.003471
1404.0,0.001095
1405.0,1.258e-06
1406.0,0.003175
1407.0,0.0002727
1408.0,0.002558
1409.0,0.001077
1410.0,0.0007732
1411.0,0.003019
1412.0,0.003658
1413.0,0.02642
1414.0,0.0005965
1415.0,0.0003215
1416.0,0.03651
1417.0,0.01369
1418.0,0.01561
1419.0,0.002572
1420.0,0.009679
1421.0,0.01074
1422.0,0.04677
1423.0,0.009842
1424.0,0.0178
1425.0,0.02694
1426.0,0.02839
1427.0,0.04699
1428.0,0.005747
1429.0,0.03734
1430.0,0.05828
1431.0,0.06266
1432.0,0.004611
1433.0,0.04183
1434.0,0.02229
1435.0,0.02568
1436.0,0.04402
1437.0,0.03384
1438.0,0.01586
1439.0,0.0574
1440.0,0.04339
1441.0,0.0356
1442.0,0.0388
1443.0,0.04489
1444.0,0.0607
1445.0,0.05047
1446.0,0.02365
1447.0,0.03728
1448.0,0.1039
1449.0,0.09327
1450.0,0.02758
1451.0,0.01192
1452.0,0.05898
1453.0,0.0756
1454.0,0.1195
1455.0,0.06022
1456.0,0.08253
1457.0,0.1045
1458.0,0.1174
1459.0,0.1396
1460.0,0.07596
1461.0,0.08177
1462.0,0.1149
1463.0,0.04072
