interpolation:linear
wavelength,value
280.0,5.351e-21
280.5,1.645e-19
281.0,8.627e-19
281.5,5.14e-19
282.0,1.364e-18
282.5,3.519e-18
283.0,1.122e-17
283.5,1.828e-17
284.0,2.9e-16
284.5,8.29e-16
285.0,1.74e-15
285.5,8.781e-15
286.0,3.542e-14
286.5,1.576e-13
287.0,4.472e-13
287.5,1.693e-12
288.0,4.382e-12
288.5,1.511e-11
289.0,4.419e-11
289.5,1.436e-10
290.0,4.176e-10
290.5,8.806e-10
291.0,1.956e-09
291.5,5.827e-09
292.0,1.416e-08
292.5,2.188e-08
293.0,5.313e-08
293.5,1.539e-07
294.0,2.736e-07
294.5,3.574e-07
295.0,6.882e-07
295.5,1.877e-06
296.0,3.752e-06
296.5,5.448e-06
297.0,7.617e-06
297.5,2.15e-05
298.0,3.548e-05
298.5,3.706e-05
299.0,8.487e-05
299.5,0.0001509
300.0,0.000173
300.5,0.0002623
301.0,0.0005147
301.5,0.0008952
302.0,0.0008074
302.5,0.001577
303.0,0.002829
303.5,0.003558
304.0,0.003339
304.5,0.004959
305.0,0.007459
305.5,0.008496
306.0,0.008206
306.5,0.01018
307.0,0.01496
307.5,0.01971
308.0,0.02079
308.5,0.02443
309.0,0.02395
309.5,0.02719
310.0,0.02722
310.5,0.04401
311.0,0.05508
311.5,0.0531
312.0,0.05273
312.5,0.06387
313.0,0.06911
313.5,0.06728
314.0,0.08363
314.5,0.07357
315.0,0.09655
315.5,0.0811
316.0,0.07037
316.5,0.1005
317.0,0.1248
317.5,0.1301
318.0,0.1011
318.5,0.1245
319.0,0.1472
319.5,0.1208
320.0,0.1461
320.5,0.1813
321.0,0.1602
321.5,0.1535
322.0,0.165
322.5,0.1435
323.0,0.1422
323.5,0.1738
324.0,0.2027
324.5,0.2063
325.0,0.1788
325.5,0.2289
326.0,0.2796
326.5,0.2791
327.0,0.2786
327.5,0.2695
328.0,0.241
328.5,0.252
329.0,0.3005
329.5,0.3407
330.0,0.3441
330.5,0.2764
331.0,0.2819
331.5,0.2859
332.0,0.3078
332.5,0.304
333.0,0.3034
333.5,0.2754
334.0,0.2823
334.5,0.3248
335.0,0.3047
335.5,0.3559
336.0,0.2463
336.5,0.2888
337.0,0.2372
337.5,0.2953
338.0,0.2876
338.5,0.332
339.0,0.3286
339.5,0.3162
340.0,0.3717
340.5,0.335
341.0,0.3267
341.5,0.3
342.0,0.3586
342.5,0.3355
343.0,0.3691
343.5,0.3476
344.0,0.257
344.5,0.2596
345.0,0.3435
345.5,0.3508
346.0,0.2982
346.5,0.3377
347.0,0.3626
347.5,0.2932
348.0,0.3343
348.5,0.3342
349.0,0.3101
349.5,0.3071
350.0,0.3799
350.5,0.4008
351.0,0.3581
351.5,0.3481
352.0,0.374
352.5,0.2919
353.0,0.3677
353.5,0.3933
354.0,0.4083
354.5,0.4142
355.0,0.4129
355.5,0.3731
356.0,0.3904
356.5,0.3334
357.0,0.2755
357.5,0.3373
358.0,0.2674
358.5,0.2285
359.0,0.3197
359.5,0.4075
360.0,0.432
360.5,0.3454
361.0,0.3149
361.5,0.3627
362.0,0.3137
362.5,0.4343
363.0,0.3902
363.5,0.3595
364.0,0.4397
364.5,0.3759
365.0,0.383
365.5,0.4807
366.0,0.5095
366.5,0.4788
367.0,0.4664
367.5,0.4841
368.0,0.4237
368.5,0.4276
369.0,0.4619
369.5,0.4924
370.0,0.5251
370.5,0.4076
371.0,0.4356
371.5,0.5451
372.0,0.3619
372.5,0.434
373.0,0.4415
373.5,0.2874
374.0,0.4176
374.5,0.3459
375.0,0.3364
375.5,0.5022
376.0,0.4164
376.5,0.4316
377.0,0.4571
377.5,0.5348
378.0,0.5799
378.5,0.5482
379.0,0.4524
379.5,0.4133
380.0,0.4298
380.5,0.5207
381.0,0.522
381.5,0.4139
382.0,0.3676
382.5,0.3135
383.0,0.2903
383.5,0.2797
384.0,0.3086
384.5,0.4539
385.0,0.4503
385.5,0.4194
386.0,0.3593
386.5,0.4721
387.0,0.3923
387.5,0.4408
388.0,0.407
388.5,0.4024
389.0,0.4345
389.5,0.5264
390.0,0.5284
390.5,0.4863
391.0,0.5726
391.5,0.5841
392.0,0.4921
392.5,0.4406
393.0,0.2452
393.5,0.1783
394.0,0.3629
394.5,0.4615
395.0,0.5632
395.5,0.5722
396.0,0.4962
396.5,0.2901
397.0,0.2178
397.5,0.443
398.0,0.6204
398.5,0.6414
399.0,0.6947
399.5,0.6926
400.0,0.7192
401.0,0.7296
402.0,0.77
403.0,0.7317
404.0,0.7207
405.0,0.7208
406.0,0.7093
407.0,0.6981
408.0,0.7255
409.0,0.7767
410.0,0.6789
411.0,0.7356
412.0,0.7903
413.0,0.7709
414.0,0.7805
415.0,0.7828
416.0,0.7968
417.0,0.7773
418.0,0.7631
419.0,0.7734
420.0,0.7701
421.0,0.8059
422.0,0.7661
423.0,0.7485
424.0,0.7918
425.0,0.7906
426.0,0.7703
427.0,0.756
428.0,0.7366
429.0,0.6979
430.0,0.6109
431.0,0.6056
432.0,0.782
433.0,0.7865
434.0,0.7304
435.0,0.7629
436.0,0.8598
437.0,0.8484
438.0,0.7727
439.0,0.7992
440.0,0.8248
441.0,0.8548
442.0,0.9169
443.0,0.8931
444.0,0.9127
445.0,0.893
446.0,0.8524
447.0,0.9216
448.0,0.936
449.0,0.9399
450.0,0.9663
451.0,1.002
452.0,0.9658
453.0,0.9085
454.0,0.9485
455.0,0.9544
456.0,0.9772
457.0,0.9935
458.0,0.9596
459.0,0.9548
460.0,0.9574
461.0,0.9795
462.0,0.9871
463.0,0.9803
464.0,0.9643
465.0,0.9522
466.0,0.9615
467.0,0.944
468.0,0.9551
469.0,0.9602
470.0,0.9296
471.0,0.9284
472.0,0.9783
473.0,0.9656
474.0,0.967
475.0,0.9753
476.0,0.9461
477.0,0.9487
478.0,0.9751
479.0,0.9692
480.0,0.9711
481.0,0.9893
482.0,0.9945
483.0,0.9826
484.0,0.9625
485.0,0.9171
486.0,0.8017
487.0,0.8403
488.0,0.9219
489.0,0.9248
490.0,0.9729
491.0,0.9562
492.0,0.903
493.0,0.9326
494.0,0.942
495.0,0.95
496.0,0.9559
497.0,0.9707
498.0,0.9253
499.0,0.9371
500.0,0.9098
501.0,0.8931
502.0,0.8805
503.0,0.9163
504.0,0.8928
505.0,0.925
506.0,0.9549
507.0,0.9086
508.0,0.8804
509.0,0.9051
510.0,0.9004
511.0,0.9246
512.0,0.9346
513.0,0.8846
514.0,0.8786
515.0,0.8698
516.0,0.8677
517.0,0.771
518.0,0.8106
519.0,0.8502
520.0,0.8812
521.0,0.8895
522.0,0.8903
523.0,0.8743
524.0,0.9055
525.0,0.9161
526.0,0.8752
527.0,0.8246
528.0,0.8721
529.0,0.9193
530.0,0.906
531.0,0.9195
532.0,0.8879
533.0,0.8618
534.0,0.8874
535.0,0.9067
536.0,0.9151
537.0,0.879
538.0,0.8946
539.0,0.887
540.0,0.8504
541.0,0.856
542.0,0.8828
543.0,0.8736
544.0,0.8887
545.0,0.8859
546.0,0.8898
547.0,0.8894
548.0,0.8788
549.0,0.8815
550.0,0.892
551.0,0.8811
552.0,0.8873
553.0,0.8714
554.0,0.8922
555.0,0.894
556.0,0.8824
557.0,0.8549
558.0,0.8485
559.0,0.8326
560.0,0.843
561.0,0.8538
562.0,0.8476
563.0,0.8707
564.0,0.847
565.0,0.8396
566.0,0.8273
567.0,0.8429
568.0,0.8352
569.0,0.8151
570.0,0.8149
571.0,0.8101
572.0,0.8294
573.0,0.8382
574.0,0.8355
575.0,0.8198
576.0,0.8124
577.0,0.8212
578.0,0.809
579.0,0.8123
580.0,0.828
581.0,0.8324
582.0,0.8482
583.0,0.8504
584.0,0.8579
585.0,0.837
586.0,0.8198
587.0,0.8377
588.0,0.817
589.0,0.7231
590.0,0.7563
591.0,0.8007
592.0,0.7903
593.0,0.8023
594.0,0.7966
595.0,0.7767
596.0,0.8079
597.0,0.799
598.0,0.7971
599.0,0.7979
600.0,0.7992
601.0,0.7928
602.0,0.7874
603.0,0.8005
604.0,0.8138
605.0,0.8096
606.0,0.8064
607.0,0.8144
608.0,0.8055
609.0,0.8069
610.0,0.8012
611.0,0.8054
612.0,0.8031
613.0,0.793
614.0,0.7823
615.0,0.7993
616.0,0.7731
617.0,0.7715
618.0,0.8012
619.0,0.7931
620.0,0.7982
621.0,0.7989
622.0,0.7895
623.0,0.7774
624.0,0.7641
625.0,0.7624
626.0,0.7737
627.0,0.7822
628.0,0.7289
629.0,0.7632
630.0,0.7455
631.0,0.7629
632.0,0.7539
633.0,0.777
634.0,0.7696
635.0,0.7817
636.0,0.7715
637.0,0.7842
638.0,0.7918
639.0,0.783
640.0,0.7755
641.0,0.7751
642.0,0.7716
643.0,0.782
644.0,0.7795
645.0,0.7808
646.0,0.7624
647.0,0.7529
648.0,0.7535
649.0,0.7389
650.0,0.7431
651.0,0.7754
652.0,0.7425
653.0,0.7651
654.0,0.7567
655.0,0.7282
656.0,0.6456
657.0,0.663
658.0,0.7432
659.0,0.7486
660.0,0.7518
661.0,0.757
662.0,0.7585
663.0,0.7435
664.0,0.7525
665.0,0.7532
666.0,0.7539
667.0,0.7532
668.0,0.7536
669.0,0.7653
670.0,0.762
671.0,0.7619
672.0,0.7554
673.0,0.7668
674.0,0.764
675.0,0.757
676.0,0.7622
677.0,0.7547
678.0,0.7569
679.0,0.7447
680.0,0.7506
681.0,0.7457
682.0,0.7448
683.0,0.7433
684.0,0.7396
685.0,0.746
686.0,0.7415
687.0,0.4851
688.0,0.5719
689.0,0.5741
690.0,0.6033
691.0,0.6363
692.0,0.6605
693.0,0.655
694.0,0.6496
695.0,0.6774
696.0,0.6783
697.0,0.721
698.0,0.7097
699.0,0.692
700.0,0.6836
701.0,0.6765
702.0,0.6814
703.0,0.6827
704.0,0.705
705.0,0.706
706.0,0.7056
707.0,0.7062
708.0,0.7077
709.0,0.709
710.0,0.7088
711.0,0.7079
712.0,0.7059
713.0,0.6987
714.0,0.7014
715.0,0.679
716.0,0.6793
717.0,0.5865
718.0,0.5383
719.0,0.4928
720.0,0.516
721.0,0.5713
722.0,0.6553
723.0,0.6092
724.0,0.5478
725.0,0.5386
726.0,0.564
727.0,0.5727
728.0,0.5372
729.0,0.5582
730.0,0.5906
731.0,0.5648
732.0,0.6052
733.0,0.6415
734.0,0.657
735.0,0.6433
736.0,0.6425
737.0,0.645
738.0,0.6556
739.0,0.6427
740.0,0.6596
741.0,0.6532
742.0,0.6539
743.0,0.6706
744.0,0.6688
745.0,0.669
746.0,0.672
747.0,0.6735
748.0,0.6721
749.0,0.6645
750.0,0.6641
751.0,0.6574
752.0,0.6602
753.0,0.6635
754.0,0.665
755.0,0.6613
756.0,0.661
757.0,0.6619
758.0,0.6537
759.0,0.64
760.0,0.09894
761.0,0.05046
762.0,0.3186
763.0,0.1541
764.0,0.2361
765.0,0.3185
766.0,0.3954
767.0,0.5033
768.0,0.5845
769.0,0.5976
770.0,0.6189
771.0,0.6243
772.0,0.6257
773.0,0.6302
774.0,0.6271
775.0,0.6224
776.0,0.63
777.0,0.6217
778.0,0.6179
779.0,0.6184
780.0,0.615
781.0,0.6156
782.0,0.6194
783.0,0.6087
784.0,0.6116
785.0,0.6071
786.0,0.6137
787.0,0.6026
788.0,0.595
789.0,0.5947
790.0,0.5784
791.0,0.5839
792.0,0.5796
793.0,0.5702
794.0,0.5805
795.0,0.5902
796.0,0.5713
797.0,0.572
798.0,0.5894
799.0,0.5855
800.0,0.5751
801.0,0.5732
802.0,0.5715
803.0,0.5671
804.0,0.568
805.0,0.5664
806.0,0.5826
807.0,0.5755
808.0,0.5761
809.0,0.565
810.0,0.5602
811.0,0.5605
812.0,0.544
813.0,0.5324
814.0,0.4668
815.0,0.464
816.0,0.4317
817.0,0.4398
818.0,0.4229
819.0,0.4742
820.0,0.4461
821.0,0.5234
822.0,0.5081
823.0,0.3424
824.0,0.4926
825.0,0.5142
826.0,0.4941
827.0,0.5221
828.0,0.4408
829.0,0.4912
830.0,0.4846
831.0,0.4864
832.0,0.4711
833.0,0.5022
834.0,0.4837
835.0,0.5328
836.0,0.5091
837.0,0.5344
838.0,0.5173
839.0,0.5264
840.0,0.5381
841.0,0.5302
842.0,0.5317
843.0,0.5317
844.0,0.5242
845.0,0.5421
846.0,0.5398
847.0,0.5298
848.0,0.5264
849.0,0.5114
850.0,0.49
851.0,0.5186
852.0,0.5151
853.0,0.4959
854.0,0.4281
855.0,0.4705
856.0,0.5141
857.0,0.5257
858.0,0.5217
859.0,0.5223
860.0,0.5232
861.0,0.5204
862.0,0.5286
863.0,0.541
864.0,0.514
865.0,0.5095
866.0,0.4582
867.0,0.4781
868.0,0.5203
869.0,0.5095
870.0,0.524
871.0,0.5169
872.0,0.5151
873.0,0.514
874.0,0.5079
875.0,0.4976
876.0,0.5028
877.0,0.5079
878.0,0.5134
879.0,0.5055
880.0,0.4947
881.0,0.4871
882.0,0.4976
883.0,0.4993
884.0,0.497
885.0,0.5007
886.0,0.4769
887.0,0.4822
888.0,0.4891
889.0,0.495
890.0,0.4905
891.0,0.4899
892.0,0.4752
893.0,0.4598
894.0,0.4426
895.0,0.4168
896.0,0.3921
897.0,0.3351
898.0,0.3666
899.0,0.2768
900.0,0.3765
901.0,0.2901
902.0,0.3433
903.0,0.3458
904.0,0.4392
905.0,0.4236
906.0,0.3959
907.0,0.3189
908.0,0.3257
909.0,0.354
910.0,0.3108
911.0,0.3328
912.0,0.3483
913.0,0.3153
914.0,0.313
915.0,0.3394
916.0,0.2867
917.0,0.3664
918.0,0.2938
919.0,0.3737
920.0,0.3789
921.0,0.3943
922.0,0.3507
923.0,0.381
924.0,0.3592
925.0,0.3514
926.0,0.3551
927.0,0.3993
928.0,0.2879
929.0,0.2614
930.0,0.2031
931.0,0.1927
932.0,0.1363
933.0,0.1095
934.0,0.0574
935.0,0.1131
936.0,0.06894
937.0,0.06969
938.0,0.08637
939.0,0.1867
940.0,0.2263
941.0,0.1684
942.0,0.1965
943.0,0.1273
944.0,0.1359
945.0,0.1742
946.0,0.08607
947.0,0.1743
948.0,0.1277
949.0,0.2358
950.0,0.06164
951.0,0.2327
952.0,0.1216
953.0,0.1593
954.0,0.1979
955.0,0.1614
956.0,0.1583
957.0,0.1215
958.0,0.2277
959.0,0.178
960.0,0.1996
961.0,0.2262
962.0,0.2138
963.0,0.2484
964.0,0.2269
965.0,0.2476
966.0,0.2472
967.0,0.246
968.0,0.3368
969.0,0.3511
970.0,0.3216
971.0,0.3712
972.0,0.3545
973.0,0.3055
974.0,0.2895
975.0,0.3017
976.0,0.2848
977.0,0.3275
978.0,0.3097
979.0,0.3254
980.0,0.3053
981.0,0.3691
982.0,0.3518
983.0,0.3371
984.0,0.3817
985.0,0.3505
986.0,0.3892
987.0,0.3806
988.0,0.38
989.0,0.3885
990.0,0.3777
991.0,0.3895
992.0,0.3919
993.0,0.3823
994.0,0.3919
995.0,0.3915
996.0,0.3896
997.0,0.3903
998.0,0.3884
999.0,0.387
1000.0,0.384
1001.0,0.3891
1002.0,0.3775
1003.0,0.3822
1004.0,0.3726
1005.0,0.3593
1006.0,0.3731
1007.0,0.3811
1008.0,0.3789
1009.0,0.3767
1010.0,0.375
1011.0,0.3792
1012.0,0.3757
1013.0,0.3783
1014.0,0.3757
1015.0,0.3732
1016.0,0.3715
1017.0,0.3724
1018.0,0.3711
1019.0,0.3628
1020.0,0.3691
1021.0,0.3686
1022.0,0.3656
1023.0,0.3695
1024.0,0.3643
1025.0,0.3694
1026.0,0.3677
1027.0,0.3669
1028.0,0.3661
1029.0,0.3617
1030.0,0.3643
1031.0,0.3628
1032.0,0.3618
1033.0,0.3563
1034.0,0.3564
1035.0,0.3575
1036.0,0.3593
1037.0,0.3535
1038.0,0.355
1039.0,0.3548
1040.0,0.3533
1041.0,0.3547
1042.0,0.3522
1043.0,0.3511
1044.0,0.3523
1045.0,0.3475
1046.0,0.3437
1047.0,0.3467
1048.0,0.3486
1049.0,0.3473
1050.0,0.3457
1051.0,0.3452
1052.0,0.3437
1053.0,0.341
1054.0,0.3416
1055.0,0.3418
1056.0,0.3405
1057.0,0.3394
1058.0,0.331
1059.0,0.3313
1060.0,0.3308
1061.0,0.3304
1062.0,0.332
1063.0,0.3287
1064.0,0.3326
1065.0,0.3301
1066.0,0.3237
1067.0,0.3278
1068.0,0.3206
1069.0,0.3108
1070.0,0.3212
1071.0,0.3265
1072.0,0.3225
1073.0,0.3179
1074.0,0.3265
1075.0,0.3092
1076.0,0.3262
1077.0,0.3198
1078.0,0.3135
1079.0,0.3211
1080.0,0.3149
1081.0,0.3043
1082.0,0.31
1083.0,0.3112
1084.0,0.3033
1085.0,0.3157
1086.0,0.2867
1087.0,0.2969
1088.0,0.3107
1089.0,0.3003
1090.0,0.2931
1091.0,0.3094
1092.0,0.3088
1093.0,0.2593
1094.0,0.2822
1095.0,0.2704
1096.0,0.2582
1097.0,0.3017
1098.0,0.2538
1099.0,0.2652
1100.0,0.2454
1101.0,0.2488
1102.0,0.237
1103.0,0.2342
1104.0,0.2345
1105.0,0.2589
1106.0,0.1937
1107.0,0.2451
1108.0,0.2051
1109.0,0.206
1110.0,0.2425
1111.0,0.1611
1112.0,0.2047
1113.0,0.1267
1114.0,0.142
1115.0,0.1175
1116.0,0.09174
1117.0,0.03147
1118.0,0.1005
1119.0,0.04803
1120.0,0.06032
1121.0,0.08117
1122.0,0.03257
1123.0,0.05459
1124.0,0.04605
1125.0,0.06053
1126.0,0.01951
1127.0,0.06842
1128.0,0.03921
1129.0,0.04184
1130.0,0.02692
1131.0,0.134
1132.0,0.1043
1133.0,0.06382
1134.0,0.01507
1135.0,0.00572
1136.0,0.05243
1137.0,0.1308
1138.0,0.09173
1139.0,0.1413
1140.0,0.1163
1141.0,0.08721
1142.0,0.1012
1143.0,0.1456
1144.0,0.04871
1145.0,0.0616
1146.0,0.06641
1147.0,0.02175
1148.0,0.1259
1149.0,0.0992
1150.0,0.05264
1151.0,0.09099
1152.0,0.1136
1153.0,0.1119
1154.0,0.0595
1155.0,0.1473
1156.0,0.1318
1157.0,0.1493
1158.0,0.1477
1159.0,0.1604
1160.0,0.1359
1161.0,0.1698
1162.0,0.1705
1163.0,0.2339
1164.0,0.1993
1165.0,0.1867
1166.0,0.1864
1167.0,0.2037
1168.0,0.2056
1169.0,0.2109
1170.0,0.2303
1171.0,0.2244
1172.0,0.2291
1173.0,0.2298
1174.0,0.1617
1175.0,0.225
1176.0,0.2485
1177.0,0.2378
1178.0,0.1768
1179.0,0.2506
1180.0,0.2223
1181.0,0.2295
1182.0,0.1565
1183.0,0.2263
1184.0,0.2115
1185.0,0.2035
1186.0,0.2431
1187.0,0.231
1188.0,0.1589
1189.0,0.2151
1190.0,0.2376
1191.0,0.2246
1192.0,0.241
1193.0,0.2306
1194.0,0.238
1195.0,0.2244
1196.0,0.2157
1197.0,0.2384
1198.0,0.2177
1199.0,0.1837
1200.0,0.2277
1201.0,0.2191
1202.0,0.2182
1203.0,0.2162
1204.0,0.1884
1205.0,0.2237
1206.0,0.2478
1207.0,0.2175
1208.0,0.2145
1209.0,0.219
1210.0,0.2284
1211.0,0.217
1212.0,0.2138
1213.0,0.2393
1214.0,0.2192
1215.0,0.2149
1216.0,0.2386
1217.0,0.2321
1218.0,0.2367
1219.0,0.2336
1220.0,0.2369
1221.0,0.2394
1222.0,0.2331
1223.0,0.2308
1224.0,0.2292
1225.0,0.2379
1226.0,0.2396
1227.0,0.2204
1228.0,0.241
1229.0,0.2397
1230.0,0.2355
1231.0,0.2426
1232.0,0.2411
1233.0,0.2323
1234.0,0.2425
1235.0,0.2408
1236.0,0.2427
1237.0,0.2391
1238.0,0.2418
1239.0,0.2387
1240.0,0.2397
1241.0,0.2384
1242.0,0.238
1243.0,0.2361
1244.0,0.2377
1245.0,0.2388
1246.0,0.2374
1247.0,0.2364
1248.0,0.2362
1249.0,0.237
1250.0,0.2355
1251.0,0.2324
1252.0,0.2325
1253.0,0.2305
1254.0,0.228
1255.0,0.2323
1256.0,0.2254
1257.0,0.2241
1258.0,0.2286
1259.0,0.2198
1260.0,0.221
1261.0,0.2079
1262.0,0.2013
1263.0,0.2017
1264.0,0.1853
1265.0,0.2004
1266.0,0.1924
1267.0,0.1961
1268.0,0.1854
1269.0,0.1115
1270.0,0.1952
1271.0,0.2073
1272.0,0.208
1273.0,0.2058
1274.0,0.2065
1275.0,0.2096
1276.0,0.2118
1277.0,0.2134
1278.0,0.2177
1279.0,0.2157
1280.0,0.213
1281.0,0.2034
1282.0,0.1962
1283.0,0.2113
1284.0,0.2163
1285.0,0.2177
1286.0,0.2208
1287.0,0.2172
1288.0,0.2172
1289.0,0.2099
1290.0,0.2153
1291.0,0.2184
1292.0,0.2044
1293.0,0.2139
1294.0,0.2124
1295.0,0.2111
1296.0,0.2011
1297.0,0.1898
1298.0,0.2051
1299.0,0.2143
1300.0,0.18
1301.0,0.1858
1302.0,0.2045
1303.0,0.1778
1304.0,0.1504
1305.0,0.2002
1306.0,0.2001
1307.0,0.1541
1308.0,0.1783
1309.0,0.1984
1310.0,0.1511
1311.0,0.1707
1312.0,0.1658
1313.0,0.1624
1314.0,0.1449
1315.0,0.1427
1316.0,0.1677
1317.0,0.1587
1318.0,0.1731
1319.0,0.1336
1320.0,0.1298
1321.0,0.1518
1322.0,0.153
1323.0,0.1138
1324.0,0.1311
1325.0,0.1652
1326.0,0.1409
1327.0,0.1342
1328.0,0.1152
1329.0,0.08524
1330.0,0.1116
1331.0,0.06579
1332.0,0.06848
1333.0,0.09567
1334.0,0.08185
1335.0,0.1133
1336.0,0.08875
1337.0,0.07805
1338.0,0.08446
1339.0,0.08432
1340.0,0.08246
1341.0,0.07948
1342.0,0.08358
1343.0,0.05454
1344.0,0.0328
1345.0,0.04738
1346.0,0.02226
1347.0,0.02241
1348.0,0.001283
1349.0,0.004774
1350.0,0.005085
1351.0,0.001104
1352.0,0.000263
1353.0,1.183e-05
1354.0,4.442e-05
1355.0,2.743e-07
1356.0,5.734e-06
1357.0,8.76e-06
1358.0,3.285e-07
1359.0,3.381e-08
1360.0,1.399e-07
1361.0,1.022e-10
1362.0,2.348e-13
1363.0,1.772e-07
1364.0,7.299e-08
1365.0,6.516e-14
1366.0,8.176e-07
1367.0,3.491e-07
1368.0,3.196e-16
1369.0,2.704e-08
1370.0,1.225e-08
1371.0,6.284e-10
1372.0,1.925e-07
1373.0,4.457e-06
1374.0,2.277e-05
1375.0,4.109e-05
1376.0,4.019e-05
1377.0,1.804e-05
1378.0,0.0001837
1379.0,7.569e-06
1380.0,1.027e-05
1381.0,2.547e-07
1382.0,1.694e-07
1383.0,2.363e-09
1384.0,2.952e-08
1385.0,1.769e-07
1386.0,1.421e-07
1387.0,2.224e-05
1388.0,4.417e-07
1389.0,8.408e-05
1390.0,7.213e-05
1391.0,4.726e-05
1392.0,2.99e-06
1393.0,1.67e-05
1394.0,7.383e-06
1395.0,4.897e-08
1396.0,1.561e-10
1397.0,6.406e-06
1398.0,0.0002041
1399.0,0.0001299
1400.0,6.018e-11
1401.0,2.928e-10
1402.0,0.0004148
1403.0,0.0005079
1404.0,0.000153
1405.0,2.215e-08
1406.0,0.0003806
1407.0,3.489e-05
1408.0,0.0003139
1409.0,9.741e-05
1410.0,8.242e-05
1411.0,0.000449
1412.0,0.0006294
1413.0,0.007269
1414.0,6.572e-05
1415.0,3.041e-05
1416.0,0.01292
1417.0,0.003587
1418.0,0.004018
1419.0,0.0006104
1420.0,0.002448
1421.0,0.002661
1422.0,0.01693
1423.0,0.003199
1424.0,0.00609
1425.0,0.008798
1426.0,0.01038
1427.0,0.01999
1428.0,0.001191
1429.0,0.01449
1430.0,0.02589
1431.0,0.02875
1432.0,0.0009314
1433.0,0.01787
1434.0,0.008882
1435.0,0.008178
1436.0,0.01686
1437.0,0.01294
1438.0,0.00517
1439.0,0.0234
