interpolation:linear
wavelength,value
280.0,3.881e-21
280.5,1.206e-19
281.0,6.346e-19
281.5,4.215e-19
282.0,1.181e-18
282.5,3.084e-18
283.0,9.92e-18
283.5,1.621e-17
284.0,2.611e-16
284.5,7.504e-16
285.0,1.653e-15
285.5,8.154e-15
286.0,3.271e-14
286.5,1.447e-13
287.0,4.098e-13
287.5,1.549e-12
288.0,4.021e-12
288.5,1.362e-11
289.0,3.924e-11
289.5,1.258e-10
290.0,3.626e-10
290.5,7.591e-10
291.0,1.672e-09
291.5,5.168e-09
292.0,1.132e-08
292.5,1.725e-08
293.0,4.111e-08
293.5,1.158e-07
294.0,2.013e-07
294.5,2.61e-07
295.0,4.914e-07
295.5,1.325e-06
296.0,2.654e-06
296.5,3.867e-06
297.0,5.427e-06
297.5,1.543e-05
298.0,2.564e-05
298.5,2.695e-05
299.0,6.216e-05
299.5,0.000112
300.0,0.0001296
300.5,0.0001984
301.0,0.0003963
301.5,0.0007034
302.0,0.0006425
302.5,0.001262
303.0,0.002283
303.5,0.002886
304.0,0.002719
304.5,0.004079
305.0,0.006223
305.5,0.007151
306.0,0.006931
306.5,0.008645
307.0,0.01287
307.5,0.01714
308.0,0.01811
308.5,0.02141
309.0,0.02105
309.5,0.02407
310.0,0.02418
310.5,0.03916
311.0,0.04915
311.5,0.04745
312.0,0.0474
312.5,0.05765
313.0,0.06251
313.5,0.06074
314.0,0.07587
314.5,0.06717
315.0,0.08826
315.5,0.07391
316.0,0.06446
316.5,0.09245
317.0,0.1148
317.5,0.1195
318.0,0.09317
318.5,0.1154
319.0,0.1369
319.5,0.1118
320.0,0.1351
320.5,0.1687
321.0,0.1499
321.5,0.1437
322.0,0.1536
322.5,0.1336
323.0,0.1329
323.5,0.163
324.0,0.1902
324.5,0.1933
325.0,0.1672
325.5,0.2147
326.0,0.2625
326.5,0.2626
327.0,0.2619
327.5,0.2531
328.0,0.2258
328.5,0.2369
329.0,0.2831
329.5,0.3213
330.0,0.3243
330.5,0.26
331.0,0.2651
331.5,0.2692
332.0,0.2904
332.5,0.2871
333.0,0.2864
333.5,0.2596
334.0,0.266
334.5,0.3066
335.0,0.2879
335.5,0.3363
336.0,0.2328
336.5,0.2727
337.0,0.2239
337.5,0.2787
338.0,0.2718
338.5,0.3138
339.0,0.3106
339.5,0.2989
340.0,0.3513
340.5,0.3167
341.0,0.3089
341.5,0.2837
342.0,0.3391
342.5,0.3173
343.0,0.3491
343.5,0.3287
344.0,0.243
344.5,0.2455
345.0,0.325
345.5,0.3319
346.0,0.2821
346.5,0.3195
347.0,0.3431
347.5,0.2775
348.0,0.3164
348.5,0.3163
349.0,0.2935
349.5,0.2907
350.0,0.3596
350.5,0.3794
351.0,0.339
351.5,0.3295
352.0,0.354
352.5,0.2764
353.0,0.3482
353.5,0.3724
354.0,0.3867
354.5,0.3922
355.0,0.391
355.5,0.3533
356.0,0.3697
356.5,0.3158
357.0,0.261
357.5,0.3195
358.0,0.2533
358.5,0.2165
359.0,0.3028
359.5,0.386
360.0,0.4093
360.5,0.3272
361.0,0.2984
361.5,0.3437
362.0,0.2973
362.5,0.4116
363.0,0.3698
363.5,0.3407
364.0,0.4168
364.5,0.3564
365.0,0.363
365.5,0.4558
366.0,0.483
366.5,0.454
367.0,0.4422
367.5,0.459
368.0,0.4018
368.5,0.4055
369.0,0.4381
369.5,0.4671
370.0,0.498
370.5,0.3866
371.0,0.4132
371.5,0.5171
372.0,0.3433
372.5,0.4117
373.0,0.4189
373.5,0.2727
374.0,0.3963
374.5,0.3283
375.0,0.3192
375.5,0.4766
376.0,0.3952
376.5,0.4096
377.0,0.4338
377.5,0.5076
378.0,0.5504
378.5,0.5203
379.0,0.4295
379.5,0.3923
380.0,0.408
380.5,0.4943
381.0,0.4955
381.5,0.3929
382.0,0.3491
382.5,0.2977
383.0,0.2757
383.5,0.2656
384.0,0.293
384.5,0.4311
385.0,0.4277
385.5,0.3984
386.0,0.3413
386.5,0.4485
387.0,0.3727
387.5,0.4187
388.0,0.3867
388.5,0.3824
389.0,0.4128
389.5,0.5001
390.0,0.5021
390.5,0.4622
391.0,0.5441
391.5,0.5551
392.0,0.4677
392.5,0.4188
393.0,0.2331
393.5,0.1695
394.0,0.3449
394.5,0.4387
395.0,0.5354
395.5,0.544
396.0,0.4717
396.5,0.2759
397.0,0.2071
397.5,0.4212
398.0,0.5899
398.5,0.6099
399.0,0.6606
399.5,0.6586
400.0,0.684
401.0,0.6935
402.0,0.7321
403.0,0.6957
404.0,0.6853
405.0,0.6854
406.0,0.6746
407.0,0.664
408.0,0.6901
409.0,0.7388
410.0,0.6458
411.0,0.6998
412.0,0.752
413.0,0.7335
414.0,0.7427
415.0,0.745
416.0,0.7583
417.0,0.7399
418.0,0.7264
419.0,0.7362
420.0,0.7331
421.0,0.7672
422.0,0.7294
423.0,0.7127
424.0,0.754
425.0,0.7528
426.0,0.7336
427.0,0.7201
428.0,0.7016
429.0,0.6648
430.0,0.5819
431.0,0.5769
432.0,0.7451
433.0,0.7493
434.0,0.6959
435.0,0.7269
436.0,0.8193
437.0,0.8085
438.0,0.7365
439.0,0.7617
440.0,0.7861
441.0,0.8148
442.0,0.874
443.0,0.8513
444.0,0.87
445.0,0.8512
446.0,0.8126
447.0,0.8788
448.0,0.8925
449.0,0.8963
450.0,0.9215
451.0,0.9558
452.0,0.9211
453.0,0.8664
454.0,0.9047
455.0,0.9104
456.0,0.9321
457.0,0.9477
458.0,0.9154
459.0,0.9107
460.0,0.9132
461.0,0.9343
462.0,0.9417
463.0,0.9352
464.0,0.92
465.0,0.9086
466.0,0.9175
467.0,0.9008
468.0,0.9114
469.0,0.9162
470.0,0.887
471.0,0.886
472.0,0.9336
473.0,0.9215
474.0,0.9227
475.0,0.9305
476.0,0.9026
477.0,0.9051
478.0,0.9303
479.0,0.9247
480.0,0.9266
481.0,0.944
482.0,0.9491
483.0,0.9378
484.0,0.9187
485.0,0.8754
486.0,0.7654
487.0,0.8022
488.0,0.8801
489.0,0.8828
490.0,0.9289
491.0,0.913
492.0,0.8622
493.0,0.8904
494.0,0.8994
495.0,0.9071
496.0,0.9127
497.0,0.9269
498.0,0.8835
499.0,0.8948
500.0,0.8687
501.0,0.8526
502.0,0.8405
503.0,0.8746
504.0,0.8518
505.0,0.8828
506.0,0.9113
507.0,0.8672
508.0,0.8403
509.0,0.864
510.0,0.8596
511.0,0.8827
512.0,0.8924
513.0,0.8447
514.0,0.8389
515.0,0.8306
516.0,0.8285
517.0,0.7362
518.0,0.774
519.0,0.8118
520.0,0.8414
521.0,0.8493
522.0,0.8501
523.0,0.8347
524.0,0.8645
525.0,0.8746
526.0,0.8354
527.0,0.7871
528.0,0.8324
529.0,0.8773
530.0,0.8647
531.0,0.8775
532.0,0.8473
533.0,0.8225
534.0,0.8468
535.0,0.8654
536.0,0.8734
537.0,0.839
538.0,0.8539
539.0,0.8467
540.0,0.8117
541.0,0.8169
542.0,0.8425
543.0,0.8337
544.0,0.848
545.0,0.8455
546.0,0.849
547.0,0.8488
548.0,0.8387
549.0,0.8413
550.0,0.8513
551.0,0.841
552.0,0.8468
553.0,0.8316
554.0,0.8515
555.0,0.8532
556.0,0.8421
557.0,0.8159
558.0,0.8096
559.0,0.7944
560.0,0.8043
561.0,0.8146
562.0,0.8086
563.0,0.8306
564.0,0.8079
565.0,0.8008
566.0,0.789
567.0,0.8038
568.0,0.7963
569.0,0.7768
570.0,0.7767
571.0,0.7722
572.0,0.7903
573.0,0.7987
574.0,0.7961
575.0,0.7811
576.0,0.7739
577.0,0.7824
578.0,0.7709
579.0,0.7742
580.0,0.7893
581.0,0.7937
582.0,0.809
583.0,0.8113
584.0,0.8185
585.0,0.7986
586.0,0.7822
587.0,0.7991
588.0,0.7789
589.0,0.6886
590.0,0.7203
591.0,0.7631
592.0,0.7529
593.0,0.7647
594.0,0.7591
595.0,0.7399
596.0,0.7702
597.0,0.7616
598.0,0.76
599.0,0.7609
600.0,0.7623
601.0,0.7563
602.0,0.7512
603.0,0.7637
604.0,0.7764
605.0,0.7725
606.0,0.7694
607.0,0.7772
608.0,0.7688
609.0,0.7702
610.0,0.7648
611.0,0.7689
612.0,0.7667
613.0,0.7571
614.0,0.7469
615.0,0.7633
616.0,0.7382
617.0,0.7368
618.0,0.7652
619.0,0.7575
620.0,0.7623
621.0,0.7629
622.0,0.7539
623.0,0.7423
624.0,0.7297
625.0,0.7281
626.0,0.7388
627.0,0.7468
628.0,0.694
629.0,0.7279
630.0,0.7111
631.0,0.7283
632.0,0.7198
633.0,0.7421
634.0,0.7353
635.0,0.7469
636.0,0.7373
637.0,0.7495
638.0,0.757
639.0,0.7486
640.0,0.7415
641.0,0.7411
642.0,0.7379
643.0,0.7479
644.0,0.7456
645.0,0.7467
646.0,0.7289
647.0,0.7193
648.0,0.7199
649.0,0.7059
650.0,0.7105
651.0,0.7415
652.0,0.7094
653.0,0.7317
654.0,0.7237
655.0,0.6961
656.0,0.6174
657.0,0.6341
658.0,0.711
659.0,0.7163
660.0,0.7193
661.0,0.7244
662.0,0.7256
663.0,0.7114
664.0,0.7202
665.0,0.721
666.0,0.7217
667.0,0.7211
668.0,0.7216
669.0,0.7328
670.0,0.7297
671.0,0.7296
672.0,0.7234
673.0,0.7344
674.0,0.7317
675.0,0.7251
676.0,0.7301
677.0,0.7229
678.0,0.725
679.0,0.7133
680.0,0.7191
681.0,0.7144
682.0,0.7135
683.0,0.7121
684.0,0.7086
685.0,0.7147
686.0,0.7104
687.0,0.4568
688.0,0.5423
689.0,0.5445
690.0,0.5735
691.0,0.6063
692.0,0.6305
693.0,0.6252
694.0,0.62
695.0,0.6475
696.0,0.6485
697.0,0.6904
698.0,0.6796
699.0,0.6619
700.0,0.6538
701.0,0.6467
702.0,0.6517
703.0,0.653
704.0,0.6748
705.0,0.6758
706.0,0.6756
707.0,0.6762
708.0,0.6776
709.0,0.6792
710.0,0.6789
711.0,0.6781
712.0,0.6764
713.0,0.6693
714.0,0.6719
715.0,0.6501
716.0,0.6503
717.0,0.5586
718.0,0.5123
719.0,0.4688
720.0,0.4906
721.0,0.5448
722.0,0.6269
723.0,0.5818
724.0,0.522
725.0,0.5129
726.0,0.5372
727.0,0.5462
728.0,0.5114
729.0,0.5325
730.0,0.5633
731.0,0.5384
732.0,0.5779
733.0,0.6137
734.0,0.6289
735.0,0.6156
736.0,0.6147
737.0,0.6172
738.0,0.628
739.0,0.6156
740.0,0.6321
741.0,0.6261
742.0,0.6269
743.0,0.6429
744.0,0.6413
745.0,0.6415
746.0,0.6444
747.0,0.6459
748.0,0.6446
749.0,0.6372
750.0,0.6368
751.0,0.6304
752.0,0.6331
753.0,0.6363
754.0,0.6378
755.0,0.6342
756.0,0.6339
757.0,0.6348
758.0,0.6269
759.0,0.6133
760.0,0.088
761.0,0.0437
762.0,0.2971
763.0,0.1395
764.0,0.2174
765.0,0.2971
766.0,0.3726
767.0,0.4783
768.0,0.5586
769.0,0.5719
770.0,0.5931
771.0,0.5986
772.0,0.6001
773.0,0.6044
774.0,0.6015
775.0,0.597
776.0,0.6043
777.0,0.5963
778.0,0.5927
779.0,0.5932
780.0,0.5899
781.0,0.5905
782.0,0.5942
783.0,0.5839
784.0,0.5867
785.0,0.5823
786.0,0.5887
787.0,0.5777
788.0,0.5702
789.0,0.5699
790.0,0.5538
791.0,0.5595
792.0,0.5555
793.0,0.5464
794.0,0.5568
795.0,0.5659
796.0,0.5472
797.0,0.5478
798.0,0.5651
799.0,0.5612
800.0,0.5512
801.0,0.5492
802.0,0.5476
803.0,0.5433
804.0,0.5441
805.0,0.5428
806.0,0.5587
807.0,0.5518
808.0,0.5524
809.0,0.5415
810.0,0.5368
811.0,0.5367
812.0,0.5205
813.0,0.5091
814.0,0.445
815.0,0.4424
816.0,0.4114
817.0,0.4192
818.0,0.4028
819.0,0.4529
820.0,0.4256
821.0,0.5011
822.0,0.4861
823.0,0.3249
824.0,0.4707
825.0,0.4923
826.0,0.4725
827.0,0.4998
828.0,0.4203
829.0,0.4698
830.0,0.4633
831.0,0.4651
832.0,0.4502
833.0,0.4806
834.0,0.4625
835.0,0.5106
836.0,0.4871
837.0,0.5121
838.0,0.4954
839.0,0.5045
840.0,0.5158
841.0,0.5081
842.0,0.5098
843.0,0.5101
844.0,0.5027
845.0,0.5201
846.0,0.5179
847.0,0.5084
848.0,0.505
849.0,0.4906
850.0,0.4701
851.0,0.4974
852.0,0.4941
853.0,0.4758
854.0,0.4106
855.0,0.4514
856.0,0.4932
857.0,0.5044
858.0,0.5006
859.0,0.5011
860.0,0.5021
861.0,0.4993
862.0,0.5072
863.0,0.5192
864.0,0.4933
865.0,0.489
866.0,0.4397
867.0,0.4588
868.0,0.4993
869.0,0.489
870.0,0.5029
871.0,0.4961
872.0,0.4943
873.0,0.4933
874.0,0.4875
875.0,0.4776
876.0,0.4825
877.0,0.4874
878.0,0.4927
879.0,0.4851
880.0,0.4747
881.0,0.4675
882.0,0.4775
883.0,0.4792
884.0,0.4769
885.0,0.4805
886.0,0.4574
887.0,0.4627
888.0,0.4692
889.0,0.4751
890.0,0.4705
891.0,0.47
892.0,0.4557
893.0,0.4406
894.0,0.4235
895.0,0.3981
896.0,0.3743
897.0,0.3189
898.0,0.3494
899.0,0.2626
900.0,0.3594
901.0,0.2753
902.0,0.3273
903.0,0.3291
904.0,0.4203
905.0,0.405
906.0,0.3783
907.0,0.3033
908.0,0.3099
909.0,0.3376
910.0,0.2951
911.0,0.3168
912.0,0.3318
913.0,0.2993
914.0,0.2974
915.0,0.3225
916.0,0.2722
917.0,0.3491
918.0,0.2789
919.0,0.3564
920.0,0.3621
921.0,0.3768
922.0,0.3344
923.0,0.3642
924.0,0.3423
925.0,0.3349
926.0,0.3384
927.0,0.3813
928.0,0.2724
929.0,0.2467
930.0,0.1906
931.0,0.181
932.0,0.127
933.0,0.1015
934.0,0.05208
935.0,0.1053
936.0,0.06344
937.0,0.06406
938.0,0.07967
939.0,0.1753
940.0,0.2133
941.0,0.1578
942.0,0.1847
943.0,0.1189
944.0,0.1276
945.0,0.1633
946.0,0.07966
947.0,0.1632
948.0,0.1194
949.0,0.2218
950.0,0.05648
951.0,0.219
952.0,0.1131
953.0,0.1491
954.0,0.1862
955.0,0.1512
956.0,0.149
957.0,0.1129
958.0,0.2156
959.0,0.1674
960.0,0.1877
961.0,0.2137
962.0,0.2019
963.0,0.2354
964.0,0.2148
965.0,0.2347
966.0,0.2341
967.0,0.2328
968.0,0.3217
969.0,0.3351
970.0,0.3065
971.0,0.3551
972.0,0.3388
973.0,0.2908
974.0,0.2754
975.0,0.2875
976.0,0.2707
977.0,0.3127
978.0,0.2951
979.0,0.3104
980.0,0.291
981.0,0.3532
982.0,0.3361
983.0,0.3218
984.0,0.3657
985.0,0.3349
986.0,0.3732
987.0,0.3646
988.0,0.364
989.0,0.3728
990.0,0.3618
991.0,0.3737
992.0,0.376
993.0,0.3664
994.0,0.376
995.0,0.3758
996.0,0.3739
997.0,0.3745
998.0,0.3727
999.0,0.3714
1000.0,0.3685
1001.0,0.3734
1002.0,0.3619
1003.0,0.3667
1004.0,0.3575
1005.0,0.3448
1006.0,0.358
1007.0,0.3658
1008.0,0.3636
1009.0,0.3614
1010.0,0.3597
1011.0,0.3639
1012.0,0.3605
1013.0,0.3631
1014.0,0.3606
1015.0,0.3581
1016.0,0.3565
1017.0,0.3574
1018.0,0.3562
1019.0,0.3481
1020.0,0.3542
1021.0,0.3538
1022.0,0.3509
1023.0,0.3546
1024.0,0.3495
1025.0,0.3545
1026.0,0.3529
1027.0,0.3521
1028.0,0.3513
1029.0,0.3471
1030.0,0.3497
1031.0,0.3482
1032.0,0.3472
1033.0,0.342
1034.0,0.342
1035.0,0.3431
1036.0,0.3448
1037.0,0.3392
1038.0,0.3407
1039.0,0.3405
1040.0,0.3391
1041.0,0.3404
1042.0,0.338
1043.0,0.3369
1044.0,0.3381
1045.0,0.3335
1046.0,0.3298
1047.0,0.3327
1048.0,0.3345
1049.0,0.3332
1050.0,0.3317
1051.0,0.3311
1052.0,0.3298
1053.0,0.3271
1054.0,0.3277
1055.0,0.3278
1056.0,0.3266
1057.0,0.3255
1058.0,0.3175
1059.0,0.3177
1060.0,0.3172
1061.0,0.3168
1062.0,0.3184
1063.0,0.3152
1064.0,0.3189
1065.0,0.3165
1066.0,0.3103
1067.0,0.3143
1068.0,0.3073
1069.0,0.2979
1070.0,0.3079
1071.0,0.3131
1072.0,0.3092
1073.0,0.3048
1074.0,0.3131
1075.0,0.2962
1076.0,0.3128
1077.0,0.3065
1078.0,0.3004
1079.0,0.308
1080.0,0.3018
1081.0,0.2915
1082.0,0.2973
1083.0,0.2984
1084.0,0.2905
1085.0,0.3026
1086.0,0.2743
1087.0,0.2844
1088.0,0.2979
1089.0,0.2876
1090.0,0.2805
1091.0,0.2966
1092.0,0.2961
1093.0,0.2476
1094.0,0.2705
1095.0,0.2584
1096.0,0.2464
1097.0,0.2893
1098.0,0.2421
1099.0,0.2531
1100.0,0.2338
1101.0,0.2372
1102.0,0.2256
1103.0,0.2227
1104.0,0.2231
1105.0,0.247
1106.0,0.1832
1107.0,0.2335
1108.0,0.1944
1109.0,0.1955
1110.0,0.2309
1111.0,0.152
1112.0,0.1942
1113.0,0.119
1114.0,0.1334
1115.0,0.1104
1116.0,0.08536
1117.0,0.0285
1118.0,0.09377
1119.0,0.04414
1120.0,0.05536
1121.0,0.0749
1122.0,0.02949
1123.0,0.05013
1124.0,0.04228
1125.0,0.05575
1126.0,0.01742
1127.0,0.06307
1128.0,0.03554
1129.0,0.03799
1130.0,0.02426
1131.0,0.1251
1132.0,0.09707
1133.0,0.05857
1134.0,0.01341
1135.0,0.005119
1136.0,0.04782
1137.0,0.1218
1138.0,0.08526
1139.0,0.133
1140.0,0.1089
1141.0,0.08108
1142.0,0.09443
1143.0,0.1365
1144.0,0.04492
1145.0,0.05654
1146.0,0.06094
1147.0,0.0194
1148.0,0.118
1149.0,0.0925
1150.0,0.04866
1151.0,0.08457
1152.0,0.1062
1153.0,0.105
1154.0,0.05458
1155.0,0.1387
1156.0,0.1237
1157.0,0.1408
1158.0,0.1392
1159.0,0.1516
1160.0,0.1281
1161.0,0.1609
1162.0,0.1614
1163.0,0.2232
1164.0,0.1896
1165.0,0.177
1166.0,0.1772
1167.0,0.1939
1168.0,0.1956
1169.0,0.2008
1170.0,0.2197
1171.0,0.2141
1172.0,0.2188
1173.0,0.2193
1174.0,0.1531
1175.0,0.2149
1176.0,0.238
1177.0,0.2273
1178.0,0.1681
1179.0,0.24
1180.0,0.2123
1181.0,0.2192
1182.0,0.1485
1183.0,0.2163
1184.0,0.2017
1185.0,0.1939
1186.0,0.2325
1187.0,0.2207
1188.0,0.1506
1189.0,0.2054
1190.0,0.2274
1191.0,0.2143
1192.0,0.2307
1193.0,0.2205
1194.0,0.2277
1195.0,0.2143
1196.0,0.2058
1197.0,0.2283
1198.0,0.2082
1199.0,0.1749
1200.0,0.2177
1201.0,0.2092
1202.0,0.2085
1203.0,0.2065
1204.0,0.1796
1205.0,0.214
1206.0,0.2375
1207.0,0.2077
1208.0,0.2051
1209.0,0.2095
1210.0,0.2187
1211.0,0.2075
1212.0,0.204
1213.0,0.2292
1214.0,0.2093
1215.0,0.2052
1216.0,0.2286
1217.0,0.2221
1218.0,0.2267
1219.0,0.2237
1220.0,0.2269
1221.0,0.2294
1222.0,0.2233
1223.0,0.221
1224.0,0.2193
1225.0,0.2279
1226.0,0.2297
1227.0,0.2109
1228.0,0.2311
1229.0,0.2298
1230.0,0.2257
1231.0,0.2327
1232.0,0.2313
1233.0,0.2225
1234.0,0.2327
1235.0,0.2311
1236.0,0.2329
1237.0,0.2293
1238.0,0.2321
1239.0,0.2291
1240.0,0.23
1241.0,0.2287
1242.0,0.2284
1243.0,0.2266
1244.0,0.2281
1245.0,0.2292
1246.0,0.2278
1247.0,0.2269
1248.0,0.2266
1249.0,0.2274
1250.0,0.226
1251.0,0.223
1252.0,0.2232
1253.0,0.2211
1254.0,0.2186
1255.0,0.2228
1256.0,0.216
1257.0,0.2147
1258.0,0.2192
1259.0,0.2104
1260.0,0.2116
1261.0,0.1986
1262.0,0.1921
1263.0,0.1924
1264.0,0.1763
1265.0,0.1912
1266.0,0.1832
1267.0,0.187
1268.0,0.1765
1269.0,0.1039
1270.0,0.1861
1271.0,0.1981
1272.0,0.1989
1273.0,0.1966
1274.0,0.1974
1275.0,0.2005
1276.0,0.2027
1277.0,0.2043
1278.0,0.2086
1279.0,0.2067
1280.0,0.2041
1281.0,0.195
1282.0,0.1882
1283.0,0.2026
1284.0,0.2074
1285.0,0.2088
1286.0,0.2118
1287.0,0.2082
1288.0,0.2083
1289.0,0.201
1290.0,0.2065
1291.0,0.2095
1292.0,0.1956
1293.0,0.2051
1294.0,0.2036
1295.0,0.2023
1296.0,0.1923
1297.0,0.1813
1298.0,0.1964
1299.0,0.2055
1300.0,0.1718
1301.0,0.1775
1302.0,0.1958
1303.0,0.1698
1304.0,0.1428
1305.0,0.1916
1306.0,0.1915
1307.0,0.1466
1308.0,0.1704
1309.0,0.1898
1310.0,0.1437
1311.0,0.1629
1312.0,0.1581
1313.0,0.1547
1314.0,0.1378
1315.0,0.1355
1316.0,0.1599
1317.0,0.1513
1318.0,0.1653
1319.0,0.1266
1320.0,0.1233
1321.0,0.1444
1322.0,0.1454
1323.0,0.1073
1324.0,0.1243
1325.0,0.1575
1326.0,0.1338
1327.0,0.1273
1328.0,0.109
1329.0,0.07998
1330.0,0.1051
1331.0,0.06117
1332.0,0.06392
1333.0,0.08947
1334.0,0.07699
1335.0,0.1069
1336.0,0.08329
1337.0,0.07307
1338.0,0.07905
1339.0,0.07903
1340.0,0.07751
1341.0,0.0742
1342.0,0.07808
1343.0,0.04999
1344.0,0.03015
1345.0,0.04355
1346.0,0.01989
1347.0,0.01992
1348.0,0.00107
1349.0,0.004051
1350.0,0.004369
1351.0,0.0008946
1352.0,0.0001989
1353.0,8.385e-06
1354.0,3.296e-05
1355.0,1.765e-07
1356.0,4.049e-06
1357.0,6.191e-06
1358.0,2.126e-07
1359.0,1.958e-08
1360.0,8.701e-08
1361.0,5.064e-11
1362.0,1.065e-13
1363.0,1.057e-07
1364.0,4.363e-08
1365.0,2.606e-14
1366.0,5.022e-07
1367.0,2.202e-07
1368.0,1.013e-16
1369.0,1.61e-08
1370.0,6.958e-09
1371.0,3.387e-10
1372.0,1.217e-07
1373.0,3.026e-06
1374.0,1.625e-05
1375.0,2.913e-05
1376.0,2.991e-05
1377.0,1.329e-05
1378.0,0.0001376
1379.0,5.575e-06
1380.0,7.317e-06
1381.0,1.769e-07
1382.0,1.056e-07
1383.0,1.423e-09
1384.0,1.723e-08
1385.0,1.166e-07
1386.0,8.562e-08
1387.0,1.532e-05
1388.0,3.073e-07
1389.0,6.146e-05
1390.0,5.256e-05
1391.0,3.417e-05
1392.0,2.137e-06
1393.0,1.224e-05
1394.0,4.967e-06
1395.0,3.133e-08
1396.0,7.984e-11
1397.0,4.607e-06
1398.0,0.0001518
1399.0,9.694e-05
1400.0,2.892e-11
1401.0,1.53e-10
1402.0,0.0003333
1403.0,0.0004022
1404.0,0.0001203
1405.0,1.361e-08
1406.0,0.0002919
1407.0,2.742e-05
1408.0,0.0002419
1409.0,7.208e-05
1410.0,6.294e-05
1411.0,0.0003566
1412.0,0.0005097
1413.0,0.006204
1414.0,5.048e-05
1415.0,2.294e-05
1416.0,0.01143
1417.0,0.003069
1418.0,0.003404
1419.0,0.0005132
1420.0,0.002071
1421.0,0.002262
1422.0,0.01499
1423.0,0.002809
1424.0,0.00538
1425.0,0.00771
1426.0,0.009239
1427.0,0.01809
1428.0,0.0009874
1429.0,0.01296
1430.0,0.02356
1431.0,0.02626
1432.0,0.0007702
1433.0,0.01619
1434.0,0.007987
1435.0,0.007143
1436.0,0.01507
