interpolation:linear
wavelength,value
280.0,2.702e-21
280.5,8.49e-20
281.0,4.483e-19
281.5,3.453e-19
282.0,1.018e-18
282.5,2.688e-18
283.0,8.723e-18
283.5,1.43e-17
284.0,2.338e-16
284.5,6.758e-16
285.0,1.526e-15
285.5,7.389e-15
286.0,2.953e-14
286.5,1.301e-13
287.0,3.681e-13
287.5,1.392e-12
288.0,3.732e-12
288.5,1.236e-11
289.0,3.498e-11
289.5,1.105e-10
290.0,3.153e-10
290.5,6.551e-10
291.0,1.431e-09
291.5,4.177e-09
292.0,8.946e-09
292.5,1.343e-08
293.0,3.137e-08
293.5,8.567e-08
294.0,1.454e-07
294.5,1.882e-07
295.0,3.453e-07
295.5,8.957e-07
296.0,1.794e-06
296.5,2.618e-06
297.0,3.68e-06
297.5,1.051e-05
298.0,1.758e-05
298.5,1.857e-05
299.0,4.31e-05
299.5,7.872e-05
300.0,9.183e-05
300.5,0.000142
301.0,0.0002889
301.5,0.0005235
302.0,0.0004845
302.5,0.0009583
303.0,0.001748
303.5,0.002224
304.0,0.002105
304.5,0.003199
305.0,0.004965
305.5,0.005769
306.0,0.005615
306.5,0.007054
307.0,0.01066
307.5,0.01441
308.0,0.01527
308.5,0.01817
309.0,0.01794
309.5,0.0207
310.0,0.02089
310.5,0.0339
311.0,0.04269
311.5,0.04128
312.0,0.04156
312.5,0.05079
313.0,0.05522
313.5,0.05353
314.0,0.06727
314.5,0.06004
315.0,0.07901
315.5,0.06591
316.0,0.05786
316.5,0.08345
317.0,0.1036
317.5,0.1077
318.0,0.08429
318.5,0.1052
319.0,0.1252
319.5,0.1017
320.0,0.1228
320.5,0.1544
321.0,0.1381
321.5,0.1325
322.0,0.1406
322.5,0.1224
323.0,0.1223
323.5,0.1507
324.0,0.176
324.5,0.1785
325.0,0.154
325.5,0.1986
326.0,0.243
326.5,0.2436
327.0,0.2428
327.5,0.2344
328.0,0.2085
328.5,0.2195
329.0,0.2632
329.5,0.2989
330.0,0.3015
330.5,0.2412
331.0,0.2457
331.5,0.25
332.0,0.2704
332.5,0.2676
333.0,0.2668
333.5,0.2414
334.0,0.2473
334.5,0.2856
335.0,0.2686
335.5,0.3138
336.0,0.2172
336.5,0.2543
337.0,0.2086
337.5,0.2595
338.0,0.2536
338.5,0.2928
339.0,0.2899
339.5,0.279
340.0,0.3279
340.5,0.2957
341.0,0.2884
341.5,0.2649
342.0,0.3167
342.5,0.2964
343.0,0.326
343.5,0.307
344.0,0.227
344.5,0.2293
345.0,0.3035
345.5,0.31
346.0,0.2636
346.5,0.2986
347.0,0.3206
347.5,0.2593
348.0,0.2957
348.5,0.2956
349.0,0.2744
349.5,0.2717
350.0,0.3362
350.5,0.3547
351.0,0.317
351.5,0.3081
352.0,0.331
352.5,0.2584
353.0,0.3256
353.5,0.3483
354.0,0.3617
354.5,0.3669
355.0,0.3657
355.5,0.3305
356.0,0.3459
356.5,0.2954
357.0,0.2442
357.5,0.299
358.0,0.237
358.5,0.2026
359.0,0.2834
359.5,0.3612
360.0,0.383
360.5,0.3062
361.0,0.2792
361.5,0.3217
362.0,0.2783
362.5,0.3854
363.0,0.3463
363.5,0.3191
364.0,0.3904
364.5,0.3338
365.0,0.34
365.5,0.4269
366.0,0.4525
366.5,0.4253
367.0,0.4143
367.5,0.4301
368.0,0.3765
368.5,0.38
369.0,0.4105
369.5,0.4377
370.0,0.4668
370.5,0.3624
371.0,0.3873
371.5,0.4847
372.0,0.3218
372.5,0.386
373.0,0.3928
373.5,0.2556
374.0,0.3716
374.5,0.3078
375.0,0.2993
375.5,0.447
376.0,0.3706
376.5,0.3842
377.0,0.4069
377.5,0.4761
378.0,0.5163
378.5,0.4881
379.0,0.4029
379.5,0.368
380.0,0.3827
380.5,0.4638
381.0,0.4649
381.5,0.3687
382.0,0.3276
382.5,0.2794
383.0,0.2587
383.5,0.2493
384.0,0.2751
384.5,0.4047
385.0,0.4015
385.5,0.374
386.0,0.3204
386.5,0.4211
387.0,0.35
387.5,0.3932
388.0,0.3631
388.5,0.3591
389.0,0.3877
389.5,0.4697
390.0,0.4716
390.5,0.4341
391.0,0.5111
391.5,0.5215
392.0,0.4393
392.5,0.3935
393.0,0.219
393.5,0.1592
394.0,0.3241
394.5,0.4122
395.0,0.5031
395.5,0.5112
396.0,0.4433
396.5,0.2593
397.0,0.1946
397.5,0.3959
398.0,0.5545
398.5,0.5733
399.0,0.6211
399.5,0.6192
400.0,0.6431
401.0,0.6517
402.0,0.688
403.0,0.654
404.0,0.6442
405.0,0.6444
406.0,0.6343
407.0,0.6244
408.0,0.6489
409.0,0.6948
410.0,0.6074
411.0,0.6583
412.0,0.7074
413.0,0.6901
414.0,0.6989
415.0,0.701
416.0,0.7137
417.0,0.6964
418.0,0.6837
419.0,0.693
420.0,0.6902
421.0,0.7223
422.0,0.6868
423.0,0.6711
424.0,0.71
425.0,0.709
426.0,0.691
427.0,0.6783
428.0,0.6609
429.0,0.6263
430.0,0.5483
431.0,0.5435
432.0,0.7021
433.0,0.7062
434.0,0.6559
435.0,0.6851
436.0,0.7722
437.0,0.7622
438.0,0.6943
439.0,0.718
440.0,0.7411
441.0,0.7682
442.0,0.8241
443.0,0.8027
444.0,0.8204
445.0,0.8027
446.0,0.7664
447.0,0.8289
448.0,0.8418
449.0,0.8455
450.0,0.8694
451.0,0.9018
452.0,0.869
453.0,0.8176
454.0,0.8537
455.0,0.8591
456.0,0.8797
457.0,0.8944
458.0,0.8638
459.0,0.8595
460.0,0.8618
461.0,0.8818
462.0,0.8888
463.0,0.8828
464.0,0.8685
465.0,0.8578
466.0,0.8664
467.0,0.8505
468.0,0.8606
469.0,0.8651
470.0,0.8376
471.0,0.8366
472.0,0.8815
473.0,0.8701
474.0,0.8712
475.0,0.8785
476.0,0.8521
477.0,0.8543
478.0,0.8781
479.0,0.873
480.0,0.8748
481.0,0.8914
482.0,0.8963
483.0,0.8857
484.0,0.8677
485.0,0.8269
486.0,0.723
487.0,0.7579
488.0,0.8315
489.0,0.8341
490.0,0.8776
491.0,0.8626
492.0,0.8147
493.0,0.8414
494.0,0.8499
495.0,0.8571
496.0,0.8625
497.0,0.8758
498.0,0.8349
499.0,0.8455
500.0,0.8207
501.0,0.8055
502.0,0.794
503.0,0.826
504.0,0.8041
505.0,0.8336
506.0,0.8606
507.0,0.8189
508.0,0.7937
509.0,0.8162
510.0,0.8121
511.0,0.834
512.0,0.8432
513.0,0.7981
514.0,0.7927
515.0,0.7849
516.0,0.7829
517.0,0.6957
518.0,0.7314
519.0,0.7672
520.0,0.795
521.0,0.8026
522.0,0.8032
523.0,0.7887
524.0,0.8168
525.0,0.8262
526.0,0.7891
527.0,0.7434
528.0,0.7861
529.0,0.8285
530.0,0.8165
531.0,0.8286
532.0,0.8001
533.0,0.7766
534.0,0.7997
535.0,0.8172
536.0,0.8248
537.0,0.7924
538.0,0.8065
539.0,0.7997
540.0,0.7666
541.0,0.7715
542.0,0.7955
543.0,0.7873
544.0,0.8008
545.0,0.7983
546.0,0.8016
547.0,0.8015
548.0,0.792
549.0,0.7945
550.0,0.8039
551.0,0.7942
552.0,0.7997
553.0,0.7854
554.0,0.8041
555.0,0.8057
556.0,0.7952
557.0,0.7704
558.0,0.7644
559.0,0.75
560.0,0.7593
561.0,0.769
562.0,0.7633
563.0,0.7839
564.0,0.7624
565.0,0.7557
566.0,0.7444
567.0,0.7583
568.0,0.7511
569.0,0.7323
570.0,0.7322
571.0,0.728
572.0,0.7449
573.0,0.7527
574.0,0.7502
575.0,0.7359
576.0,0.7293
577.0,0.7373
578.0,0.7265
579.0,0.7298
580.0,0.7444
581.0,0.7488
582.0,0.7634
583.0,0.7657
584.0,0.7726
585.0,0.7539
586.0,0.7384
587.0,0.7543
588.0,0.7347
589.0,0.6485
590.0,0.6784
591.0,0.7193
592.0,0.7094
593.0,0.721
594.0,0.7155
595.0,0.697
596.0,0.7264
597.0,0.7181
598.0,0.7168
599.0,0.7177
600.0,0.7193
601.0,0.7138
602.0,0.709
603.0,0.7209
604.0,0.7329
605.0,0.7293
606.0,0.7265
607.0,0.7339
608.0,0.726
609.0,0.7274
610.0,0.7224
611.0,0.7263
612.0,0.7243
613.0,0.7153
614.0,0.7057
615.0,0.7213
616.0,0.6977
617.0,0.6964
618.0,0.7233
619.0,0.716
620.0,0.7205
621.0,0.7211
622.0,0.7125
623.0,0.7015
624.0,0.6896
625.0,0.688
626.0,0.6982
627.0,0.7055
628.0,0.6535
629.0,0.687
630.0,0.671
631.0,0.6879
632.0,0.68
633.0,0.7015
634.0,0.6953
635.0,0.7064
636.0,0.6974
637.0,0.7091
638.0,0.7163
639.0,0.7085
640.0,0.7019
641.0,0.7016
642.0,0.6987
643.0,0.7081
644.0,0.706
645.0,0.707
646.0,0.6899
647.0,0.6802
648.0,0.6808
649.0,0.6675
650.0,0.6726
651.0,0.7021
652.0,0.6709
653.0,0.6929
654.0,0.6854
655.0,0.6588
656.0,0.5846
657.0,0.6005
658.0,0.6735
659.0,0.6786
660.0,0.6816
661.0,0.6864
662.0,0.6874
663.0,0.674
664.0,0.6825
665.0,0.6835
666.0,0.6842
667.0,0.6838
668.0,0.6843
669.0,0.695
670.0,0.6921
671.0,0.692
672.0,0.6862
673.0,0.6966
674.0,0.6941
675.0,0.6879
676.0,0.6927
677.0,0.6859
678.0,0.6879
679.0,0.6768
680.0,0.6823
681.0,0.6778
682.0,0.677
683.0,0.6757
684.0,0.6723
685.0,0.6782
686.0,0.674
687.0,0.424
688.0,0.5079
689.0,0.5101
690.0,0.5388
691.0,0.5714
692.0,0.5956
693.0,0.5904
694.0,0.5857
695.0,0.6128
696.0,0.6137
697.0,0.6548
698.0,0.6446
699.0,0.6268
700.0,0.6192
701.0,0.6121
702.0,0.6172
703.0,0.6185
704.0,0.6397
705.0,0.6406
706.0,0.6406
707.0,0.6413
708.0,0.6426
709.0,0.6444
710.0,0.6439
711.0,0.6434
712.0,0.6419
713.0,0.635
714.0,0.6375
715.0,0.6165
716.0,0.6166
717.0,0.5262
718.0,0.4821
719.0,0.4409
720.0,0.4611
721.0,0.5141
722.0,0.5938
723.0,0.5499
724.0,0.4921
725.0,0.483
726.0,0.5061
727.0,0.5155
728.0,0.4814
729.0,0.5025
730.0,0.5315
731.0,0.5077
732.0,0.5463
733.0,0.5813
734.0,0.596
735.0,0.5832
736.0,0.5824
737.0,0.5847
738.0,0.5959
739.0,0.5841
740.0,0.6
741.0,0.5944
742.0,0.5954
743.0,0.6107
744.0,0.6092
745.0,0.6095
746.0,0.6123
747.0,0.6137
748.0,0.6124
749.0,0.6055
750.0,0.6051
751.0,0.599
752.0,0.6016
753.0,0.6047
754.0,0.606
755.0,0.6026
756.0,0.6024
757.0,0.6032
758.0,0.5957
759.0,0.5823
760.0,0.07601
761.0,0.0365
762.0,0.2725
763.0,0.1232
764.0,0.1963
765.0,0.2724
766.0,0.3462
767.0,0.4491
768.0,0.5285
769.0,0.5419
770.0,0.563
771.0,0.5687
772.0,0.5703
773.0,0.5744
774.0,0.5717
775.0,0.5674
776.0,0.5743
777.0,0.5668
778.0,0.5633
779.0,0.5638
780.0,0.5607
781.0,0.5613
782.0,0.5648
783.0,0.555
784.0,0.5577
785.0,0.5535
786.0,0.5595
787.0,0.5487
788.0,0.5413
789.0,0.541
790.0,0.5251
791.0,0.5311
792.0,0.5274
793.0,0.5187
794.0,0.5292
795.0,0.5377
796.0,0.5191
797.0,0.5196
798.0,0.5368
799.0,0.533
800.0,0.5232
801.0,0.5212
802.0,0.5197
803.0,0.5155
804.0,0.5164
805.0,0.5154
806.0,0.5308
807.0,0.5242
808.0,0.5248
809.0,0.5142
810.0,0.5094
811.0,0.509
812.0,0.4931
813.0,0.482
814.0,0.4196
815.0,0.4172
816.0,0.3878
817.0,0.3953
818.0,0.3795
819.0,0.4282
820.0,0.4018
821.0,0.4751
822.0,0.4606
823.0,0.3047
824.0,0.4452
825.0,0.4667
826.0,0.4473
827.0,0.4738
828.0,0.3966
829.0,0.4449
830.0,0.4386
831.0,0.4403
832.0,0.4258
833.0,0.4556
834.0,0.4377
835.0,0.4846
836.0,0.4615
837.0,0.4861
838.0,0.4698
839.0,0.4791
840.0,0.4899
841.0,0.4824
842.0,0.4842
843.0,0.4848
844.0,0.4776
845.0,0.4944
846.0,0.4923
847.0,0.4834
848.0,0.48
849.0,0.4664
850.0,0.4469
851.0,0.4727
852.0,0.4696
853.0,0.4523
854.0,0.3903
855.0,0.4292
856.0,0.4689
857.0,0.4796
858.0,0.4759
859.0,0.4765
860.0,0.4775
861.0,0.4748
862.0,0.4824
863.0,0.4937
864.0,0.4691
865.0,0.465
866.0,0.4181
867.0,0.4364
868.0,0.4749
869.0,0.465
870.0,0.4783
871.0,0.4718
872.0,0.4701
873.0,0.4692
874.0,0.4636
875.0,0.4542
876.0,0.4589
877.0,0.4636
878.0,0.4685
879.0,0.4613
880.0,0.4515
881.0,0.4445
882.0,0.454
883.0,0.4557
884.0,0.4535
885.0,0.4569
886.0,0.4347
887.0,0.4399
888.0,0.446
889.0,0.4518
890.0,0.4472
891.0,0.4468
892.0,0.4329
893.0,0.4182
894.0,0.4013
895.0,0.3763
896.0,0.3535
897.0,0.3001
898.0,0.3294
899.0,0.2463
900.0,0.3395
901.0,0.2582
902.0,0.3087
903.0,0.3099
904.0,0.3982
905.0,0.3834
906.0,0.3578
907.0,0.2851
908.0,0.2917
909.0,0.3185
910.0,0.277
911.0,0.2983
912.0,0.3127
913.0,0.2809
914.0,0.2794
915.0,0.3029
916.0,0.2554
917.0,0.3289
918.0,0.2616
919.0,0.3363
920.0,0.3426
921.0,0.3566
922.0,0.3153
923.0,0.3447
924.0,0.3227
925.0,0.3157
926.0,0.3189
927.0,0.3604
928.0,0.2546
929.0,0.2298
930.0,0.1764
931.0,0.1676
932.0,0.1163
933.0,0.09236
934.0,0.04614
935.0,0.09629
936.0,0.05722
937.0,0.05772
938.0,0.07209
939.0,0.1623
940.0,0.1984
941.0,0.1455
942.0,0.171
943.0,0.1092
944.0,0.1181
945.0,0.1509
946.0,0.0724
947.0,0.1504
948.0,0.1099
949.0,0.2057
950.0,0.05069
951.0,0.2033
952.0,0.1035
953.0,0.1375
954.0,0.1728
955.0,0.1395
956.0,0.1384
957.0,0.1032
958.0,0.2017
959.0,0.1553
960.0,0.1741
961.0,0.1993
962.0,0.1882
963.0,0.2203
964.0,0.2007
965.0,0.2197
966.0,0.219
967.0,0.2177
968.0,0.3042
969.0,0.3164
970.0,0.2891
971.0,0.3363
972.0,0.3207
973.0,0.2737
974.0,0.2591
975.0,0.271
976.0,0.2543
977.0,0.2954
978.0,0.2782
979.0,0.293
980.0,0.2745
981.0,0.3346
982.0,0.3179
983.0,0.3041
984.0,0.3471
985.0,0.3167
986.0,0.3546
987.0,0.346
988.0,0.3455
989.0,0.3545
990.0,0.3434
991.0,0.3553
992.0,0.3576
993.0,0.348
994.0,0.3576
995.0,0.3574
996.0,0.3556
997.0,0.3562
998.0,0.3544
999.0,0.3532
1000.0,0.3503
1001.0,0.3552
1002.0,0.3438
1003.0,0.3488
1004.0,0.3398
1005.0,0.328
1006.0,0.3405
1007.0,0.3478
1008.0,0.3457
1009.0,0.3435
1010.0,0.3419
1011.0,0.3461
1012.0,0.3428
1013.0,0.3454
1014.0,0.3429
1015.0,0.3406
1016.0,0.3391
1017.0,0.3399
1018.0,0.3388
1019.0,0.331
1020.0,0.3369
1021.0,0.3366
1022.0,0.3337
1023.0,0.3372
1024.0,0.3322
1025.0,0.3372
1026.0,0.3356
1027.0,0.3348
1028.0,0.3341
1029.0,0.3301
1030.0,0.3326
1031.0,0.3312
1032.0,0.3303
1033.0,0.3253
1034.0,0.3253
1035.0,0.3263
1036.0,0.3279
1037.0,0.3226
1038.0,0.324
1039.0,0.3238
1040.0,0.3225
1041.0,0.3237
1042.0,0.3215
1043.0,0.3204
1044.0,0.3215
1045.0,0.3171
1046.0,0.3136
1047.0,0.3163
1048.0,0.318
1049.0,0.3168
1050.0,0.3153
1051.0,0.3148
1052.0,0.3135
1053.0,0.3109
1054.0,0.3115
1055.0,0.3116
1056.0,0.3104
1057.0,0.3093
1058.0,0.3016
1059.0,0.3019
1060.0,0.3014
1061.0,0.301
1062.0,0.3024
1063.0,0.2994
1064.0,0.3029
1065.0,0.3005
1066.0,0.2948
1067.0,0.2985
1068.0,0.2918
1069.0,0.2829
1070.0,0.2924
1071.0,0.2975
1072.0,0.2936
1073.0,0.2895
1074.0,0.2976
1075.0,0.281
1076.0,0.2972
1077.0,0.291
1078.0,0.2851
1079.0,0.2928
1080.0,0.2865
1081.0,0.2765
1082.0,0.2824
1083.0,0.2836
1084.0,0.2755
1085.0,0.2873
1086.0,0.2598
1087.0,0.2699
1088.0,0.283
1089.0,0.2728
1090.0,0.2658
1091.0,0.2817
1092.0,0.2813
1093.0,0.234
1094.0,0.2568
1095.0,0.2443
1096.0,0.2326
1097.0,0.2748
1098.0,0.2284
1099.0,0.239
1100.0,0.2203
1101.0,0.2236
1102.0,0.2124
1103.0,0.2094
1104.0,0.2098
1105.0,0.2331
1106.0,0.171
1107.0,0.22
1108.0,0.1821
1109.0,0.1833
1110.0,0.2174
1111.0,0.1416
1112.0,0.1822
1113.0,0.1101
1114.0,0.1235
1115.0,0.1021
1116.0,0.07809
1117.0,0.02521
1118.0,0.08605
1119.0,0.03976
1120.0,0.04977
1121.0,0.06777
1122.0,0.02605
1123.0,0.0451
1124.0,0.03803
1125.0,0.05034
1126.0,0.01512
1127.0,0.05701
1128.0,0.03143
1129.0,0.03369
1130.0,0.02131
1131.0,0.1148
1132.0,0.0888
1133.0,0.05264
1134.0,0.01159
1135.0,0.00446
1136.0,0.04264
1137.0,0.1115
1138.0,0.07788
1139.0,0.1235
1140.0,0.1004
1141.0,0.07408
1142.0,0.08665
1143.0,0.1261
1144.0,0.04063
1145.0,0.05083
1146.0,0.05477
1147.0,0.01682
1148.0,0.1089
1149.0,0.08484
1150.0,0.04416
1151.0,0.07724
1152.0,0.09764
1153.0,0.09713
1154.0,0.04905
1155.0,0.1287
1156.0,0.1144
1157.0,0.1309
1158.0,0.1294
1159.0,0.1414
1160.0,0.119
1161.0,0.1506
1162.0,0.151
1163.0,0.2106
1164.0,0.1783
1165.0,0.1658
1166.0,0.1665
1167.0,0.1825
1168.0,0.1839
1169.0,0.1891
1170.0,0.2074
1171.0,0.2021
1172.0,0.2069
1173.0,0.207
1174.0,0.1432
1175.0,0.2032
1176.0,0.2258
1177.0,0.2151
1178.0,0.1581
1179.0,0.2277
1180.0,0.2006
1181.0,0.2072
1182.0,0.1392
1183.0,0.2046
1184.0,0.1905
1185.0,0.1827
1186.0,0.2203
1187.0,0.2087
1188.0,0.141
1189.0,0.1942
1190.0,0.2154
1191.0,0.2024
1192.0,0.2187
1193.0,0.2088
1194.0,0.2157
1195.0,0.2025
1196.0,0.1942
1197.0,0.2165
1198.0,0.1972
1199.0,0.1646
1200.0,0.2061
1201.0,0.1977
1202.0,0.1973
1203.0,0.1953
1204.0,0.1693
1205.0,0.2028
1206.0,0.2256
1207.0,0.1964
1208.0,0.1942
1209.0,0.1985
1210.0,0.2074
1211.0,0.1964
1212.0,0.1926
1213.0,0.2175
1214.0,0.1978
1215.0,0.1938
1216.0,0.2169
1217.0,0.2106
1218.0,0.2151
1219.0,0.2121
1220.0,0.2153
1221.0,0.2178
1222.0,0.2119
1223.0,0.2096
1224.0,0.2078
1225.0,0.2164
1226.0,0.2182
1227.0,0.1998
1228.0,0.2196
1229.0,0.2182
1230.0,0.2142
1231.0,0.2213
1232.0,0.2199
1233.0,0.2111
1234.0,0.2214
1235.0,0.2198
1236.0,0.2215
1237.0,0.2179
1238.0,0.2208
1239.0,0.2179
1240.0,0.2188
1241.0,0.2175
1242.0,0.2173
1243.0,0.2156
1244.0,0.217
1245.0,0.218
1246.0,0.2167
1247.0,0.2158
1248.0,0.2155
1249.0,0.2163
1250.0,0.2149
1251.0,0.2119
1252.0,0.2122
1253.0,0.2101
1254.0,0.2076
1255.0,0.2119
1256.0,0.2051
1257.0,0.2038
1258.0,0.2083
1259.0,0.1995
1260.0,0.2007
1261.0,0.1879
1262.0,0.1814
1263.0,0.1817
1264.0,0.1658
1265.0,0.1806
1266.0,0.1726
1267.0,0.1764
1268.0,0.1661
1269.0,0.09519
1270.0,0.1755
1271.0,0.1874
1272.0,0.1882
1273.0,0.186
1274.0,0.1869
1275.0,0.1899
1276.0,0.192
1277.0,0.1937
1278.0,0.198
1279.0,0.1962
1280.0,0.1938
1281.0,0.1852
1282.0,0.1789
1283.0,0.1926
1284.0,0.1971
1285.0,0.1985
1286.0,0.2014
1287.0,0.1978
1288.0,0.1979
1289.0,0.1907
1290.0,0.1962
1291.0,0.1992
1292.0,0.1853
1293.0,0.1948
1294.0,0.1934
1295.0,0.1919
1296.0,0.1821
1297.0,0.1714
1298.0,0.1863
1299.0,0.1953
1300.0,0.1622
1301.0,0.1678
1302.0,0.1857
1303.0,0.1604
1304.0,0.134
1305.0,0.1817
1306.0,0.1815
1307.0,0.1379
1308.0,0.1612
1309.0,0.1798
1310.0,0.1351
1311.0,0.1539
1312.0,0.1492
1313.0,0.1458
1314.0,0.1295
1315.0,0.1271
1316.0,0.1509
1317.0,0.1426
1318.0,0.1562
1319.0,0.1186
1320.0,0.1157
1321.0,0.1359
1322.0,0.1366
1323.0,0.09993
1324.0,0.1164
1325.0,0.1485
1326.0,0.1256
1327.0,0.1193
1328.0,0.1019
1329.0,0.07395
1330.0,0.09758
1331.0,0.0559
1332.0,0.05871
1333.0,0.08236
1334.0,0.07141
1335.0,0.09944
1336.0,0.07701
1337.0,0.06737
1338.0,0.07285
1339.0,0.07297
1340.0,0.07182
1341.0,0.06814
1342.0,0.07177
1343.0,0.04487
1344.0,0.02716
1345.0,0.03922
1346.0,0.01729
1347.0,0.0172
1348.0,0.0008534
1349.0,0.003299
1350.0,0.00361
1351.0,0.0006871
1352.0,0.0001398
1353.0,5.446e-06
1354.0,2.268e-05
1355.0,1.017e-07
1356.0,2.62e-06
1357.0,4.008e-06
1358.0,1.233e-07
1359.0,9.887e-09
1360.0,4.805e-08
1361.0,2.12e-11
1362.0,4.037e-14
1363.0,5.52e-08
1364.0,2.291e-08
1365.0,8.572e-15
1366.0,2.717e-07
1367.0,1.237e-07
1368.0,2.722e-17
1369.0,8.424e-09
1370.0,3.432e-09
1371.0,1.57e-10
1372.0,6.856e-08
1373.0,1.861e-06
1374.0,1.064e-05
1375.0,1.886e-05
1376.0,2.066e-05
1377.0,9.071e-06
1378.0,9.565e-05
1379.0,3.807e-06
1380.0,4.783e-06
1381.0,1.124e-07
1382.0,5.847e-08
1383.0,7.568e-10
1384.0,8.783e-09
1385.0,6.924e-08
1386.0,4.537e-08
1387.0,9.562e-06
1388.0,1.956e-07
1389.0,4.142e-05
1390.0,3.525e-05
1391.0,2.272e-05
1392.0,1.405e-06
1393.0,8.305e-06
1394.0,3.016e-06
1395.0,1.794e-08
1396.0,3.468e-11
1397.0,3.051e-06
1398.0,0.0001045
1399.0,6.701e-05
1400.0,1.165e-11
1401.0,6.825e-11
1402.0,0.0002536
1403.0,0.0003001
1404.0,8.897e-05
1405.0,7.414e-09
1406.0,0.0002088
1407.0,2.032e-05
1408.0,0.0001742
1409.0,4.928e-05
1410.0,4.491e-05
1411.0,0.0002672
1412.0,0.0003914
1413.0,0.005083
1414.0,3.63e-05
1415.0,1.613e-05
1416.0,0.009802
1417.0,0.002528
1418.0,0.002765
1419.0,0.0004128
1420.0,0.001679
1421.0,0.00185
1422.0,0.01287
1423.0,0.00239
1424.0,0.004613
1425.0,0.006539
1426.0,0.007993
1427.0,0.01596
1428.0,0.0007812
1429.0,0.01127
1430.0,0.02095
1431.0,0.02346
1432.0,0.0006076
1433.0,0.01433
1434.0,0.006999
1435.0,0.006034
1436.0,0.0131
1437.0,0.01009
