interpolation:linear
wavelength,value
280.0,1.6000000000000002e-20
280.5,4.715e-19
281.0,2.439e-18
281.5,4.19e-19
282.0,1.575e-18
282.5,4.318e-18
283.0,1.418e-17
283.5,2.33e-17
284.0,3.704e-16
284.5,1.053e-15
285.0,1.92e-15
285.5,1.061e-14
286.0,4.381e-14
286.5,2.008e-13
287.0,5.781e-13
287.5,2.213e-12
288.0,6.108e-12
288.5,2.297e-11
289.0,7.288e-11
289.5,2.571e-10
290.0,7.976e-10
290.5,1.774e-09
291.0,4.196e-09
291.5,1.351e-08
292.0,3.595e-08
292.5,5.703e-08
293.0,1.435e-07
293.5,4.378e-07
294.0,8.114e-07
294.5,1.082e-06
295.0,2.168e-06
295.5,5.697e-06
296.0,1.115e-05
296.5,1.581e-05
297.0,2.165e-05
297.5,5.901e-05
298.0,9.43e-05
298.5,9.592e-05
299.0,0.0002138
299.5,0.0003612
300.0,0.0004018
300.5,0.000589
301.0,0.001088
301.5,0.001774
302.0,0.00154
302.5,0.002951
303.0,0.005166
303.5,0.006395
304.0,0.005933
304.5,0.008562
305.0,0.01238
305.5,0.01376
306.0,0.01317
306.5,0.01608
307.0,0.02287
307.5,0.02919
308.0,0.03063
308.5,0.03546
309.0,0.03447
309.5,0.03836
310.0,0.03804
310.5,0.06122
311.0,0.07601
311.5,0.07304
312.0,0.07131
312.5,0.08541
313.0,0.09187
313.5,0.08991
314.0,0.1103
314.5,0.0953
315.0,0.1247
315.5,0.1056
316.0,0.0903
316.5,0.1273
317.0,0.1582
317.5,0.1654
318.0,0.1275
318.5,0.1545
319.0,0.1811
319.5,0.1506
320.0,0.1825
320.5,0.2228
321.0,0.194
321.5,0.1856
322.0,0.2026
322.5,0.1761
323.0,0.1726
323.5,0.2091
324.0,0.2434
324.5,0.2487
325.0,0.2166
325.5,0.2751
326.0,0.3351
326.5,0.3327
327.0,0.3327
327.5,0.3226
328.0,0.2905
328.5,0.3012
329.0,0.3567
329.5,0.4036
330.0,0.4082
330.5,0.3295
331.0,0.3366
331.5,0.34
332.0,0.364
332.5,0.3586
333.0,0.3584
333.5,0.3266
334.0,0.3349
334.5,0.3835
335.0,0.3588
335.5,0.4191
336.0,0.29
336.5,0.3403
337.0,0.2801
337.5,0.3488
338.0,0.3384
338.5,0.3905
339.0,0.3865
339.5,0.3718
340.0,0.437
340.5,0.3937
341.0,0.384
341.5,0.3525
342.0,0.4213
342.5,0.3941
343.0,0.4335
343.5,0.4083
344.0,0.3017
344.5,0.3048
345.0,0.4032
345.5,0.4116
346.0,0.3498
346.5,0.3961
347.0,0.4253
347.5,0.3439
348.0,0.3919
348.5,0.3917
349.0,0.3634
349.5,0.3598
350.0,0.445
350.5,0.4694
351.0,0.4194
351.5,0.4077
352.0,0.4379
352.5,0.3417
353.0,0.4303
353.5,0.4602
354.0,0.4777
354.5,0.4845
355.0,0.4829
355.5,0.4363
356.0,0.4565
356.5,0.3898
357.0,0.3221
357.5,0.3943
358.0,0.3125
358.5,0.2671
359.0,0.3736
359.5,0.4761
360.0,0.5048
360.5,0.4035
361.0,0.3678
361.5,0.4235
362.0,0.3662
362.5,0.5068
363.0,0.4552
363.5,0.4193
364.0,0.5129
364.5,0.4384
365.0,0.4465
365.5,0.5604
366.0,0.5938
366.5,0.558
367.0,0.5434
367.5,0.564
368.0,0.4936
368.5,0.4981
369.0,0.5379
369.5,0.5734
370.0,0.6113
370.5,0.4745
371.0,0.507
371.5,0.6344
372.0,0.4211
372.5,0.5049
373.0,0.5136
373.5,0.3342
374.0,0.4857
374.5,0.4022
375.0,0.391
375.5,0.5839
376.0,0.484
376.5,0.5016
377.0,0.5312
377.5,0.6215
378.0,0.6737
378.5,0.6368
379.0,0.5256
379.5,0.4802
380.0,0.4993
380.5,0.6048
381.0,0.6061
381.5,0.4805
382.0,0.4267
382.5,0.3638
383.0,0.3368
383.5,0.3244
384.0,0.3579
384.5,0.5265
385.0,0.5221
385.5,0.4863
386.0,0.4165
386.5,0.5472
387.0,0.4547
387.5,0.5108
388.0,0.4716
388.5,0.4663
389.0,0.5033
389.5,0.6097
390.0,0.6119
390.5,0.5632
391.0,0.663
391.5,0.6763
392.0,0.5697
392.5,0.51
393.0,0.2838
393.5,0.2063
394.0,0.4199
394.5,0.5339
395.0,0.6515
395.5,0.6619
396.0,0.5739
396.5,0.3355
397.0,0.2518
397.5,0.5121
398.0,0.7173
398.5,0.7414
399.0,0.8029
399.5,0.8003
400.0,0.8311
401.0,0.8439
402.0,0.8904
403.0,0.8459
404.0,0.833
405.0,0.833
406.0,0.8195
407.0,0.8063
408.0,0.8379
409.0,0.8969
410.0,0.7838
411.0,0.849
412.0,0.9119
413.0,0.8894
414.0,0.9003
415.0,0.9027
416.0,0.9185
417.0,0.896
418.0,0.8795
419.0,0.8911
420.0,0.8873
421.0,0.9282
422.0,0.8823
423.0,0.8619
424.0,0.9117
425.0,0.9101
426.0,0.8864
427.0,0.8699
428.0,0.8474
429.0,0.8027
430.0,0.7025
431.0,0.6963
432.0,0.899
433.0,0.904
434.0,0.8395
435.0,0.8768
436.0,0.9878
437.0,0.9745
438.0,0.8874
439.0,0.918
440.0,0.9472
441.0,0.9814
442.0,1.053
443.0,1.025
444.0,1.048
445.0,1.025
446.0,0.978
447.0,1.057
448.0,1.074
449.0,1.078
450.0,1.108
451.0,1.149
452.0,1.107
453.0,1.041
454.0,1.087
455.0,1.094
456.0,1.12
457.0,1.138
458.0,1.1
459.0,1.094
460.0,1.097
461.0,1.122
462.0,1.131
463.0,1.123
464.0,1.104
465.0,1.09
466.0,1.1
467.0,1.08
468.0,1.093
469.0,1.099
470.0,1.064
471.0,1.062
472.0,1.12
473.0,1.105
474.0,1.107
475.0,1.116
476.0,1.083
477.0,1.087
478.0,1.117
479.0,1.11
480.0,1.112
481.0,1.132
482.0,1.138
483.0,1.124
484.0,1.101
485.0,1.049
486.0,0.9165
487.0,0.9604
488.0,1.054
489.0,1.057
490.0,1.112
491.0,1.093
492.0,1.032
493.0,1.066
494.0,1.076
495.0,1.085
496.0,1.092
497.0,1.109
498.0,1.057
499.0,1.071
500.0,1.04
501.0,1.021
502.0,1.007
503.0,1.048
504.0,1.022
505.0,1.058
506.0,1.092
507.0,1.039
508.0,1.007
509.0,1.035
510.0,1.029
511.0,1.057
512.0,1.068
513.0,1.011
514.0,1.004
515.0,0.9938
516.0,0.9914
517.0,0.8808
518.0,0.9261
519.0,0.9713
520.0,1.007
521.0,1.016
522.0,1.017
523.0,0.999
524.0,1.035
525.0,1.047
526.0,1.001
527.0,0.943
528.0,0.9975
529.0,1.052
530.0,1.037
531.0,1.052
532.0,1.016
533.0,0.9861
534.0,1.015
535.0,1.037
536.0,1.047
537.0,1.005
538.0,1.023
539.0,1.014
540.0,0.9726
541.0,0.9793
542.0,1.01
543.0,0.9993
544.0,1.017
545.0,1.014
546.0,1.018
547.0,1.018
548.0,1.005
549.0,1.008
550.0,1.02
551.0,1.008
552.0,1.015
553.0,0.9968
554.0,1.021
555.0,1.023
556.0,1.01
557.0,0.9782
558.0,0.971
559.0,0.953
560.0,0.965
561.0,0.9776
562.0,0.9707
563.0,0.9974
564.0,0.9703
565.0,0.9621
566.0,0.9481
567.0,0.9662
568.0,0.958
569.0,0.9361
570.0,0.9357
571.0,0.9298
572.0,0.9527
573.0,0.963
574.0,0.9601
575.0,0.9423
576.0,0.9337
577.0,0.9438
578.0,0.9294
579.0,0.9327
580.0,0.9499
581.0,0.9543
582.0,0.972
583.0,0.974
584.0,0.9823
585.0,0.9582
586.0,0.9385
587.0,0.9593
588.0,0.937
589.0,0.8322
590.0,0.8701
591.0,0.9195
592.0,0.9086
593.0,0.9211
594.0,0.9151
595.0,0.8932
596.0,0.9268
597.0,0.9172
598.0,0.9144
599.0,0.9149
600.0,0.9159
601.0,0.9081
602.0,0.9019
603.0,0.9166
604.0,0.9317
605.0,0.9268
606.0,0.9228
607.0,0.9318
608.0,0.9213
609.0,0.9228
610.0,0.916
611.0,0.9207
612.0,0.9179
613.0,0.9063
614.0,0.8938
615.0,0.9131
616.0,0.8829
617.0,0.881
618.0,0.9149
619.0,0.9056
620.0,0.9113
621.0,0.9123
622.0,0.9018
623.0,0.8882
624.0,0.8728
625.0,0.8708
626.0,0.8838
627.0,0.894
628.0,0.8391
629.0,0.8743
630.0,0.8543
631.0,0.8722
632.0,0.8615
633.0,0.8871
634.0,0.878
635.0,0.8914
636.0,0.8794
637.0,0.8936
638.0,0.9018
639.0,0.8916
640.0,0.8827
641.0,0.882
642.0,0.8779
643.0,0.8897
644.0,0.8866
645.0,0.8881
646.0,0.8679
647.0,0.8588
648.0,0.8597
649.0,0.8431
650.0,0.8457
651.0,0.8821
652.0,0.847
653.0,0.8703
654.0,0.8605
655.0,0.8293
656.0,0.7344
657.0,0.7541
658.0,0.8446
659.0,0.8505
660.0,0.8539
661.0,0.8599
662.0,0.8619
663.0,0.8448
664.0,0.8544
665.0,0.8548
666.0,0.8553
667.0,0.8543
668.0,0.8545
669.0,0.8677
670.0,0.8638
671.0,0.8636
672.0,0.8561
673.0,0.869
674.0,0.8656
675.0,0.8577
676.0,0.8635
677.0,0.8549
678.0,0.8573
679.0,0.8434
680.0,0.8501
681.0,0.8445
682.0,0.8434
683.0,0.8418
684.0,0.8376
685.0,0.8447
686.0,0.8397
687.0,0.5757
688.0,0.666
689.0,0.6681
690.0,0.6979
691.0,0.7312
692.0,0.7552
693.0,0.7493
694.0,0.7431
695.0,0.7716
696.0,0.7727
697.0,0.8172
698.0,0.8046
699.0,0.7871
700.0,0.7777
701.0,0.7704
702.0,0.775
703.0,0.7764
704.0,0.8002
705.0,0.8014
706.0,0.8002
707.0,0.8007
708.0,0.8024
709.0,0.8029
710.0,0.8032
711.0,0.8019
712.0,0.7992
713.0,0.7914
714.0,0.7943
715.0,0.7699
716.0,0.7706
717.0,0.675
718.0,0.621
719.0,0.5695
720.0,0.5971
721.0,0.6551
722.0,0.745
723.0,0.6959
724.0,0.6296
725.0,0.6204
726.0,0.649
727.0,0.6567
728.0,0.6191
729.0,0.6399
730.0,0.6772
731.0,0.6486
732.0,0.6913
733.0,0.7293
734.0,0.746
735.0,0.7309
736.0,0.7299
737.0,0.7329
738.0,0.7426
739.0,0.728
740.0,0.7464
741.0,0.7387
742.0,0.7391
743.0,0.7579
744.0,0.7555
745.0,0.7555
746.0,0.759
747.0,0.7606
748.0,0.759
749.0,0.7503
750.0,0.7499
751.0,0.7423
752.0,0.7454
753.0,0.7492
754.0,0.7509
755.0,0.7466
756.0,0.7463
757.0,0.7474
758.0,0.7381
759.0,0.7241
760.0,0.137
761.0,0.07516
762.0,0.3878
763.0,0.2034
764.0,0.2973
765.0,0.3879
766.0,0.4682
767.0,0.5828
768.0,0.6662
769.0,0.6787
770.0,0.7002
771.0,0.7052
772.0,0.7064
773.0,0.7113
774.0,0.7078
775.0,0.7024
776.0,0.7109
777.0,0.7016
778.0,0.6973
779.0,0.6979
780.0,0.694
781.0,0.6947
782.0,0.699
783.0,0.6868
784.0,0.6901
785.0,0.685
786.0,0.6926
787.0,0.6812
788.0,0.6731
789.0,0.6729
790.0,0.656
791.0,0.6607
792.0,0.6557
793.0,0.6452
794.0,0.6552
795.0,0.6665
796.0,0.6474
797.0,0.6483
798.0,0.6659
799.0,0.6619
800.0,0.6507
801.0,0.649
802.0,0.6471
803.0,0.6423
804.0,0.6431
805.0,0.6407
806.0,0.658
807.0,0.6502
808.0,0.6507
809.0,0.639
810.0,0.6341
811.0,0.6356
812.0,0.6183
813.0,0.606
814.0,0.5362
815.0,0.5328
816.0,0.4963
817.0,0.505
818.0,0.4868
819.0,0.5416
820.0,0.5111
821.0,0.5938
822.0,0.5774
823.0,0.3984
824.0,0.5619
825.0,0.5836
826.0,0.5626
827.0,0.5926
828.0,0.5056
829.0,0.5589
830.0,0.552
831.0,0.5538
832.0,0.5374
833.0,0.5701
834.0,0.551
835.0,0.603
836.0,0.5786
837.0,0.6046
838.0,0.5864
839.0,0.5954
840.0,0.6083
841.0,0.5999
842.0,0.6008
843.0,0.6
844.0,0.5919
845.0,0.6116
846.0,0.6088
847.0,0.5974
848.0,0.5939
849.0,0.577
850.0,0.5528
851.0,0.5854
852.0,0.5812
853.0,0.5593
854.0,0.4831
855.0,0.5306
856.0,0.5799
857.0,0.5927
858.0,0.5884
859.0,0.5888
860.0,0.5898
861.0,0.5866
862.0,0.5958
863.0,0.6099
864.0,0.5794
865.0,0.5743
866.0,0.5164
867.0,0.5389
868.0,0.5864
869.0,0.5742
870.0,0.5906
871.0,0.5825
872.0,0.5805
873.0,0.5793
874.0,0.5724
875.0,0.5608
876.0,0.5667
877.0,0.5724
878.0,0.5786
879.0,0.5697
880.0,0.5575
881.0,0.5492
882.0,0.5611
883.0,0.5628
884.0,0.5603
885.0,0.5645
886.0,0.5383
887.0,0.5438
888.0,0.5519
889.0,0.558
890.0,0.5535
891.0,0.5525
892.0,0.5368
893.0,0.5204
894.0,0.5028
895.0,0.4761
896.0,0.4488
897.0,0.3868
898.0,0.4214
899.0,0.322
900.0,0.4307
901.0,0.3374
902.0,0.3941
903.0,0.3986
904.0,0.499
905.0,0.4823
906.0,0.4516
907.0,0.3688
908.0,0.3758
909.0,0.4063
910.0,0.3608
911.0,0.3836
912.0,0.4007
913.0,0.3662
914.0,0.3628
915.0,0.3932
916.0,0.3332
917.0,0.4214
918.0,0.3417
919.0,0.4286
920.0,0.4322
921.0,0.4494
922.0,0.4028
923.0,0.434
924.0,0.4129
925.0,0.4039
926.0,0.4083
927.0,0.4562
928.0,0.3372
929.0,0.3085
930.0,0.2433
931.0,0.2304
932.0,0.1668
933.0,0.136
934.0,0.07547
935.0,0.1388
936.0,0.08724
937.0,0.08848
938.0,0.1086
939.0,0.2233
940.0,0.268
941.0,0.203
942.0,0.2346
943.0,0.1549
944.0,0.1626
945.0,0.2092
946.0,0.1072
947.0,0.2103
948.0,0.1546
949.0,0.2809
950.0,0.07907
951.0,0.2765
952.0,0.1494
953.0,0.1924
954.0,0.2353
955.0,0.1945
956.0,0.1885
957.0,0.1497
958.0,0.2662
959.0,0.2122
960.0,0.2378
961.0,0.2664
962.0,0.2521
963.0,0.2902
964.0,0.266
965.0,0.2891
966.0,0.2892
967.0,0.288
968.0,0.3846
969.0,0.4019
970.0,0.3693
971.0,0.422
972.0,0.4038
973.0,0.3523
974.0,0.3344
975.0,0.3469
976.0,0.3298
977.0,0.3745
978.0,0.3561
979.0,0.3728
980.0,0.3506
981.0,0.4195
982.0,0.4014
983.0,0.3855
984.0,0.432
985.0,0.3999
986.0,0.4394
987.0,0.431
988.0,0.4302
989.0,0.438
990.0,0.4276
991.0,0.4393
992.0,0.4418
993.0,0.4322
994.0,0.4417
995.0,0.4411
996.0,0.4392
997.0,0.4398
998.0,0.4377
999.0,0.4361
1000.0,0.4331
1001.0,0.4385
1002.0,0.4265
1003.0,0.4307
1004.0,0.4202
1005.0,0.4048
1006.0,0.4206
1007.0,0.4295
1008.0,0.4272
1009.0,0.425
1010.0,0.4232
1011.0,0.4273
1012.0,0.4237
1013.0,0.4263
1014.0,0.4233
1015.0,0.4205
1016.0,0.4186
1017.0,0.4197
1018.0,0.4181
1019.0,0.4092
1020.0,0.4159
1021.0,0.4153
1022.0,0.4121
1023.0,0.4165
1024.0,0.4111
1025.0,0.4162
1026.0,0.4144
1027.0,0.4135
1028.0,0.4126
1029.0,0.4077
1030.0,0.4105
1031.0,0.4089
1032.0,0.4077
1033.0,0.4015
1034.0,0.4015
1035.0,0.4028
1036.0,0.4049
1037.0,0.3983
1038.0,0.4001
1039.0,0.3998
1040.0,0.3982
1041.0,0.3998
1042.0,0.397
1043.0,0.3958
1044.0,0.3972
1045.0,0.3918
1046.0,0.3875
1047.0,0.3909
1048.0,0.3931
1049.0,0.3917
1050.0,0.3899
1051.0,0.3893
1052.0,0.3878
1053.0,0.3847
1054.0,0.3855
1055.0,0.3857
1056.0,0.3844
1057.0,0.3832
1058.0,0.3738
1059.0,0.3742
1060.0,0.3736
1061.0,0.3732
1062.0,0.3752
1063.0,0.3715
1064.0,0.3759
1065.0,0.3732
1066.0,0.3658
1067.0,0.3705
1068.0,0.3624
1069.0,0.3512
1070.0,0.3632
1071.0,0.3688
1072.0,0.3645
1073.0,0.3593
1074.0,0.3685
1075.0,0.3502
1076.0,0.3682
1077.0,0.3617
1078.0,0.3549
1079.0,0.3623
1080.0,0.3561
1081.0,0.3448
1082.0,0.3502
1083.0,0.3513
1084.0,0.344
1085.0,0.3569
1086.0,0.3259
1087.0,0.3363
1088.0,0.3509
1089.0,0.3403
1090.0,0.3329
1091.0,0.3498
1092.0,0.3489
1093.0,0.2962
1094.0,0.3193
1095.0,0.3086
1096.0,0.2956
1097.0,0.3408
1098.0,0.291
1099.0,0.3035
1100.0,0.2823
1101.0,0.2858
1102.0,0.2731
1103.0,0.2705
1104.0,0.2709
1105.0,0.2966
1106.0,0.2276
1107.0,0.2818
1108.0,0.2393
1109.0,0.2397
1110.0,0.2794
1111.0,0.1901
1112.0,0.2378
1113.0,0.1519
1114.0,0.1698
1115.0,0.1407
1116.0,0.1127
1117.0,0.04167
1118.0,0.1225
1119.0,0.061
1120.0,0.0768
1121.0,0.1018
1122.0,0.04302
1123.0,0.06939
1124.0,0.05857
1125.0,0.07636
1126.0,0.02674
1127.0,0.08613
1128.0,0.0517
1129.0,0.05484
1130.0,0.03614
1131.0,0.1629
1132.0,0.1279
1133.0,0.08127
1134.0,0.02088
1135.0,0.00782
1136.0,0.06787
1137.0,0.1601
1138.0,0.1128
1139.0,0.1678
1140.0,0.1404
1141.0,0.1072
1142.0,0.1233
1143.0,0.1748
1144.0,0.06129
1145.0,0.07838
1146.0,0.08453
1147.0,0.02989
1148.0,0.1513
1149.0,0.121
1150.0,0.0659
1151.0,0.112
1152.0,0.1376
1153.0,0.134
1154.0,0.07598
1155.0,0.1751
1156.0,0.1577
1157.0,0.1768
1158.0,0.1749
1159.0,0.1885
1160.0,0.1613
1161.0,0.1982
1162.0,0.1993
1163.0,0.268
1164.0,0.2303
1165.0,0.2177
1166.0,0.2158
1167.0,0.2349
1168.0,0.2376
1169.0,0.243
1170.0,0.2637
1171.0,0.2572
1172.0,0.2616
1173.0,0.2632
1174.0,0.1892
1175.0,0.2569
1176.0,0.2817
1177.0,0.2709
1178.0,0.2045
1179.0,0.2839
1180.0,0.2542
1181.0,0.2623
1182.0,0.1821
1183.0,0.2581
1184.0,0.2423
1185.0,0.2341
1186.0,0.2763
1187.0,0.2636
1188.0,0.1854
1189.0,0.2457
1190.0,0.2701
1191.0,0.2571
1192.0,0.2737
1193.0,0.2626
1194.0,0.2705
1195.0,0.2563
1196.0,0.2472
1197.0,0.2703
1198.0,0.2477
1199.0,0.2119
1200.0,0.2593
1201.0,0.2505
1202.0,0.2488
1203.0,0.2468
1204.0,0.2164
1205.0,0.2542
1206.0,0.2801
1207.0,0.2483
1208.0,0.244
1209.0,0.2489
1210.0,0.2591
1211.0,0.2472
1212.0,0.2448
1213.0,0.2712
1214.0,0.2504
1215.0,0.2458
1216.0,0.2703
1217.0,0.2634
1218.0,0.2682
1219.0,0.265
1220.0,0.2684
1221.0,0.2709
1222.0,0.264
1223.0,0.2617
1224.0,0.2603
1225.0,0.2692
1226.0,0.2708
1227.0,0.2505
1228.0,0.272
1229.0,0.2709
1230.0,0.2664
1231.0,0.2735
1232.0,0.2719
1233.0,0.2631
1234.0,0.2732
1235.0,0.2715
1236.0,0.2734
1237.0,0.2698
1238.0,0.2725
1239.0,0.269
1240.0,0.27
1241.0,0.2688
1242.0,0.2682
1243.0,0.266
1244.0,0.2679
1245.0,0.269
1246.0,0.2674
1247.0,0.2664
1248.0,0.2663
1249.0,0.2671
1250.0,0.2655
1251.0,0.2622
1252.0,0.2621
1253.0,0.2602
1254.0,0.2578
1255.0,0.2619
1256.0,0.2549
1257.0,0.2536
1258.0,0.2581
1259.0,0.2493
1260.0,0.2505
1261.0,0.2371
1262.0,0.2304
1263.0,0.2308
1264.0,0.2139
1265.0,0.2293
1266.0,0.2212
1267.0,0.2247
1268.0,0.2137
1269.0,0.1361
1270.0,0.224
1271.0,0.2363
1272.0,0.2369
1273.0,0.2345
1274.0,0.2352
1275.0,0.2384
1276.0,0.2406
1277.0,0.242
1278.0,0.2464
1279.0,0.2442
1280.0,0.2411
1281.0,0.2299
1282.0,0.2213
1283.0,0.2384
1284.0,0.2442
1285.0,0.2457
1286.0,0.2489
1287.0,0.2453
1288.0,0.2452
1289.0,0.2379
1290.0,0.243
1291.0,0.2463
1292.0,0.2322
1293.0,0.2417
1294.0,0.2401
1295.0,0.2391
1296.0,0.2288
1297.0,0.2168
1298.0,0.2326
1299.0,0.242
1300.0,0.2062
1301.0,0.2122
1302.0,0.2318
1303.0,0.2033
1304.0,0.1747
1305.0,0.2271
1306.0,0.2272
1307.0,0.178
1308.0,0.2034
1309.0,0.2256
1310.0,0.1747
1311.0,0.1953
1312.0,0.1902
1313.0,0.1867
1314.0,0.1676
1315.0,0.1657
1316.0,0.1924
1317.0,0.1824
1318.0,0.1978
1319.0,0.156
1320.0,0.1508
1321.0,0.1752
1322.0,0.1772
1323.0,0.1344
1324.0,0.153
1325.0,0.1897
1326.0,0.1635
1327.0,0.1562
1328.0,0.135
1329.0,0.1022
1330.0,0.1326
1331.0,0.08096
1332.0,0.0833
1333.0,0.1157
1334.0,0.0976
1335.0,0.1339
1336.0,0.1063
1337.0,0.09425
1338.0,0.102
1339.0,0.1014
1340.0,0.09841
1341.0,0.09662
1342.0,0.1014
1343.0,0.0697
1344.0,0.04168
1345.0,0.06006
1346.0,0.03045
1347.0,0.03106
1348.0,0.00213
1349.0,0.007534
1350.0,0.007739
1351.0,0.001978
1352.0,0.0005649
1353.0,3.067e-05
1354.0,0.0001016
1355.0,9.317e-07
1356.0,1.506e-05
1357.0,2.29e-05
1358.0,1.098e-06
1359.0,1.526e-07
1360.0,5.202e-07
1361.0,7.151e-10
1362.0,2.141e-12
1363.0,7.257e-07
1364.0,3.023e-07
1365.0,8.422e-13
1366.0,3.092e-06
1367.0,1.246e-06
1368.0,8.156e-15
1369.0,1.136e-07
1370.0,5.843e-08
1371.0,3.492e-09
1372.0,6.854e-07
1373.0,1.297e-05
1374.0,5.772e-05
1375.0,0.0001051
1376.0,9.119e-05
1377.0,4.219e-05
1378.0,0.0004054
1379.0,1.776e-05
1380.0,2.63e-05
1381.0,7.063e-07
1382.0,6.255e-07
1383.0,9.736e-09
1384.0,1.307e-07
1385.0,5.653e-07
1386.0,5.737e-07
1387.0,6.154e-05
1388.0,1.217e-06
1389.0,0.000199
1390.0,0.0001714
1391.0,0.0001154
1392.0,7.623e-06
1393.0,3.952e-05
1394.0,2.194e-05
1395.0,1.699e-07
1396.0,1.003e-09
1397.0,1.602e-05
1398.0,0.0004576
1399.0,0.00029
1400.0,4.574e-10
1401.0,1.769e-09
1402.0,0.0007625
1403.0,0.0009687
1404.0,0.0002966
1405.0,8.57e-08
1406.0,0.000786
1407.0,6.857e-05
1408.0,0.000641
1409.0,0.0002218
1410.0,0.0001742
1411.0,0.0008502
1412.0,0.001132
1413.0,0.01124
1414.0,0.000137
1415.0,6.669e-05
1416.0,0.0182
1417.0,0.005562
1418.0,0.006344
1419.0,0.0009869
1420.0,0.003883
1421.0,0.0042
1422.0,0.02375
1423.0,0.004612
1424.0,0.008636
1425.0,0.01273
1426.0,0.01442
1427.0,0.02647
1428.0,0.002008
1429.0,0.01981
1430.0,0.03376
1431.0,0.03709
1432.0,0.001582
1433.0,0.02357
1434.0,0.01198
1435.0,0.01193
1436.0,0.0231
1437.0,0.0177
1438.0,0.007454
1439.0,0.03145
1440.0,0.02356
1441.0,0.0179
1442.0,0.01986
1443.0,0.02504
1444.0,0.03475
1445.0,0.02709
1446.0,0.01215
