interpolation:linear
wavelength,value
280.0,1.7119999999999997e-22
280.5,5.666e-21
281.0,3.0460000000000005e-20
281.5,3.89e-19
282.0,5.863e-19
282.5,1.448e-18
283.0,4.576e-18
283.5,7.455e-18
284.0,1.232e-16
284.5,3.603e-16
285.0,5.956e-16
285.5,2.961e-15
286.0,1.194e-14
286.5,5.384e-14
287.0,1.547e-13
287.5,5.98e-13
288.0,2.121e-12
288.5,6.293e-12
289.0,1.657e-11
289.5,4.967e-11
290.0,1.374e-10
290.5,2.798e-10
291.0,6.002e-10
291.5,1.723e-09
292.0,3.455e-09
292.5,4.844e-09
293.0,1.038e-08
293.5,2.524e-08
294.0,3.948e-08
294.5,5.365e-08
295.0,9.088e-08
295.5,1.504e-07
296.0,2.902e-07
296.5,4.059e-07
297.0,5.491e-07
297.5,1.473e-06
298.0,2.32e-06
298.5,2.333e-06
299.0,5.138e-06
299.5,8.517e-06
300.0,9.349e-06
300.5,1.351e-05
301.0,2.431e-05
301.5,3.848e-05
302.0,3.274e-05
302.5,6.528e-05
303.0,0.0001208
303.5,0.0001562
304.0,0.0001518
304.5,0.0002482
305.0,0.0004296
305.5,0.0005363
306.0,0.0005367
306.5,0.0007073
307.0,0.001192
307.5,0.001795
308.0,0.001935
308.5,0.002432
309.0,0.002665
309.5,0.003473
310.0,0.003702
310.5,0.006174
311.0,0.008132
311.5,0.008015
312.0,0.00889
312.5,0.01158
313.0,0.01302
313.5,0.01223
314.0,0.01659
314.5,0.01638
315.0,0.02194
315.5,0.01742
316.0,0.0166
316.5,0.02568
317.0,0.03184
317.5,0.03243
318.0,0.02662
318.5,0.03643
319.0,0.0454
319.5,0.03421
320.0,0.04084
320.5,0.05644
321.0,0.05493
321.5,0.05313
322.0,0.05148
322.5,0.04501
323.0,0.0477
323.5,0.06242
324.0,0.07361
324.5,0.07283
325.0,0.06069
325.5,0.08207
326.0,0.1023
326.5,0.106
327.0,0.1043
327.5,0.09924
328.0,0.08456
328.5,0.09377
329.0,0.1172
329.5,0.1348
330.0,0.1346
330.5,0.1042
331.0,0.1051
331.5,0.1094
332.0,0.1225
332.5,0.1232
333.0,0.1217
333.5,0.1073
334.0,0.1095
334.5,0.1302
335.0,0.1245
335.5,0.1462
336.0,0.1012
336.5,0.117
337.0,0.09483
337.5,0.1175
338.0,0.1175
338.5,0.1368
339.0,0.1356
339.5,0.1304
340.0,0.1522
340.5,0.1376
341.0,0.135
341.5,0.1243
342.0,0.1488
342.5,0.1394
343.0,0.1531
343.5,0.144
344.0,0.1059
344.5,0.1074
345.0,0.1427
345.5,0.146
346.0,0.1243
346.5,0.1409
347.0,0.1511
347.5,0.1222
348.0,0.1396
348.5,0.1398
349.0,0.1298
349.5,0.1286
350.0,0.1592
350.5,0.1681
351.0,0.1501
351.5,0.1456
352.0,0.1567
352.5,0.1225
353.0,0.1545
353.5,0.1654
354.0,0.1719
354.5,0.1744
355.0,0.1738
355.5,0.1572
356.0,0.1647
356.5,0.1407
357.0,0.1163
357.5,0.1424
358.0,0.1129
358.5,0.09657
359.0,0.1351
359.5,0.1721
360.0,0.1826
360.5,0.1461
361.0,0.1333
361.5,0.1537
362.0,0.1331
362.5,0.1844
363.0,0.1658
363.5,0.1529
364.0,0.1872
364.5,0.1601
365.0,0.1632
365.5,0.2049
366.0,0.2174
366.5,0.2045
367.0,0.1993
367.5,0.2069
368.0,0.1812
368.5,0.183
369.0,0.1978
369.5,0.211
370.0,0.2251
370.5,0.1749
371.0,0.187
371.5,0.2341
372.0,0.1555
372.5,0.1866
373.0,0.19
373.5,0.1237
374.0,0.1799
374.5,0.1491
375.0,0.145
375.5,0.2167
376.0,0.1797
376.5,0.1863
377.0,0.1975
377.5,0.2312
378.0,0.2508
378.5,0.2371
379.0,0.1958
379.5,0.1789
380.0,0.1861
380.5,0.2256
381.0,0.2264
381.5,0.1796
382.0,0.1597
382.5,0.1363
383.0,0.1263
383.5,0.1218
384.0,0.1345
384.5,0.1979
385.0,0.1965
385.5,0.1831
386.0,0.157
386.5,0.2064
387.0,0.1716
387.5,0.1929
388.0,0.1783
388.5,0.1764
389.0,0.1905
389.5,0.2309
390.0,0.232
390.5,0.2136
391.0,0.2517
391.5,0.2569
392.0,0.2165
392.5,0.194
393.0,0.1081
393.5,0.07863
394.0,0.1601
394.5,0.2038
395.0,0.2488
395.5,0.2529
396.0,0.2194
396.5,0.1284
397.0,0.09646
397.5,0.1963
398.0,0.275
398.5,0.2844
399.0,0.3084
399.5,0.3076
400.0,0.3195
401.0,0.3218
402.0,0.3401
403.0,0.3237
404.0,0.3191
405.0,0.3195
406.0,0.3149
407.0,0.3104
408.0,0.3227
409.0,0.3459
410.0,0.3027
411.0,0.3284
412.0,0.3534
413.0,0.3449
414.0,0.3497
415.0,0.3512
416.0,0.358
417.0,0.3496
418.0,0.3435
419.0,0.3486
420.0,0.3474
421.0,0.364
422.0,0.3463
423.0,0.3387
424.0,0.3585
425.0,0.3583
426.0,0.3498
427.0,0.3436
428.0,0.335
429.0,0.318
430.0,0.2787
431.0,0.2763
432.0,0.3574
433.0,0.3598
434.0,0.3343
435.0,0.3493
436.0,0.3944
437.0,0.3898
438.0,0.3554
439.0,0.3672
440.0,0.3794
441.0,0.3937
442.0,0.4226
443.0,0.4115
444.0,0.4211
445.0,0.4121
446.0,0.3942
447.0,0.427
448.0,0.4334
449.0,0.4361
450.0,0.4488
451.0,0.4659
452.0,0.4493
453.0,0.423
454.0,0.4423
455.0,0.4452
456.0,0.4561
457.0,0.4639
458.0,0.4477
459.0,0.4457
460.0,0.4468
461.0,0.4573
462.0,0.4615
463.0,0.4584
464.0,0.4518
465.0,0.4471
466.0,0.4521
467.0,0.4437
468.0,0.449
469.0,0.4515
470.0,0.437
471.0,0.4367
472.0,0.4602
473.0,0.4543
474.0,0.4545
475.0,0.4577
476.0,0.4432
477.0,0.4438
478.0,0.4564
479.0,0.4542
480.0,0.4555
481.0,0.4648
482.0,0.4681
483.0,0.4634
484.0,0.4545
485.0,0.4337
486.0,0.3798
487.0,0.3986
488.0,0.4373
489.0,0.4385
490.0,0.4618
491.0,0.4543
492.0,0.4292
493.0,0.4434
494.0,0.448
495.0,0.4519
496.0,0.4547
497.0,0.4617
498.0,0.44
499.0,0.4453
500.0,0.4318
501.0,0.4233
502.0,0.4162
503.0,0.432
504.0,0.4178
505.0,0.4354
506.0,0.4494
507.0,0.4278
508.0,0.4155
509.0,0.428
510.0,0.4264
511.0,0.4386
512.0,0.4437
513.0,0.4201
514.0,0.4175
515.0,0.4134
516.0,0.4122
517.0,0.3665
518.0,0.3852
519.0,0.404
520.0,0.4185
521.0,0.4224
522.0,0.4225
523.0,0.4146
524.0,0.4289
525.0,0.4331
526.0,0.4134
527.0,0.3888
528.0,0.4107
529.0,0.4324
530.0,0.4259
531.0,0.4319
532.0,0.4169
533.0,0.4047
534.0,0.4169
535.0,0.4264
536.0,0.4307
537.0,0.4141
538.0,0.4216
539.0,0.418
540.0,0.4006
541.0,0.4022
542.0,0.4143
543.0,0.4107
544.0,0.417
545.0,0.4159
546.0,0.417
547.0,0.4175
548.0,0.4128
549.0,0.4144
550.0,0.4193
551.0,0.4144
552.0,0.4173
553.0,0.4097
554.0,0.4194
555.0,0.42
556.0,0.4144
557.0,0.4012
558.0,0.3976
559.0,0.3896
560.0,0.3941
561.0,0.3987
562.0,0.3952
563.0,0.4053
564.0,0.3936
565.0,0.3897
566.0,0.3835
567.0,0.3901
568.0,0.3849
569.0,0.3725
570.0,0.3728
571.0,0.3714
572.0,0.3781
573.0,0.3817
574.0,0.38
575.0,0.3721
576.0,0.3688
577.0,0.3731
578.0,0.3685
579.0,0.3715
580.0,0.381
581.0,0.3848
582.0,0.3937
583.0,0.3961
584.0,0.4004
585.0,0.3912
586.0,0.3832
587.0,0.3906
588.0,0.377
589.0,0.3261
590.0,0.3416
591.0,0.3663
592.0,0.3589
593.0,0.3678
594.0,0.3638
595.0,0.3517
596.0,0.3722
597.0,0.3664
598.0,0.3675
599.0,0.3687
600.0,0.3709
601.0,0.3691
602.0,0.3668
603.0,0.3735
604.0,0.3801
605.0,0.3785
606.0,0.3777
607.0,0.3822
608.0,0.3787
609.0,0.38
610.0,0.3781
611.0,0.3805
612.0,0.3798
613.0,0.3754
614.0,0.3709
615.0,0.3796
616.0,0.3676
617.0,0.3673
618.0,0.3818
619.0,0.3782
620.0,0.3806
621.0,0.3804
622.0,0.3755
623.0,0.3693
624.0,0.3635
625.0,0.3626
626.0,0.3678
627.0,0.3703
628.0,0.3272
629.0,0.355
630.0,0.3462
631.0,0.3604
632.0,0.3573
633.0,0.3708
634.0,0.3693
635.0,0.3762
636.0,0.3724
637.0,0.3795
638.0,0.3846
639.0,0.3811
640.0,0.3783
641.0,0.3787
642.0,0.3778
643.0,0.383
644.0,0.3826
645.0,0.3828
646.0,0.3716
647.0,0.3619
648.0,0.3626
649.0,0.3548
650.0,0.3633
651.0,0.3802
652.0,0.3578
653.0,0.3756
654.0,0.3719
655.0,0.3547
656.0,0.3168
657.0,0.3257
658.0,0.3672
659.0,0.3707
660.0,0.3727
661.0,0.3756
662.0,0.3752
663.0,0.3682
664.0,0.3745
665.0,0.3763
666.0,0.3771
667.0,0.3775
668.0,0.3785
669.0,0.3848
670.0,0.3835
671.0,0.3838
672.0,0.3808
673.0,0.3869
674.0,0.3858
675.0,0.3826
676.0,0.3855
677.0,0.382
678.0,0.3833
679.0,0.3774
680.0,0.3806
681.0,0.3782
682.0,0.3778
683.0,0.3771
684.0,0.3752
685.0,0.3787
686.0,0.3761
687.0,0.1742
688.0,0.2358
689.0,0.2378
690.0,0.2613
691.0,0.2894
692.0,0.312
693.0,0.3088
694.0,0.3081
695.0,0.3308
696.0,0.3319
697.0,0.3635
698.0,0.3576
699.0,0.3412
700.0,0.3367
701.0,0.3301
702.0,0.3355
703.0,0.337
704.0,0.3525
705.0,0.3529
706.0,0.3544
707.0,0.3554
708.0,0.356
709.0,0.3598
710.0,0.358
711.0,0.3587
712.0,0.3592
713.0,0.354
714.0,0.3559
715.0,0.3414
716.0,0.3408
717.0,0.2675
718.0,0.2436
719.0,0.2209
720.0,0.2285
721.0,0.2679
722.0,0.3237
723.0,0.2929
724.0,0.2534
725.0,0.2461
726.0,0.2584
727.0,0.2692
728.0,0.2443
729.0,0.263
730.0,0.2759
731.0,0.2623
732.0,0.2909
733.0,0.3173
734.0,0.328
735.0,0.3195
736.0,0.3186
737.0,0.32
738.0,0.3326
739.0,0.3262
740.0,0.337
741.0,0.335
742.0,0.3368
743.0,0.3458
744.0,0.3457
745.0,0.3466
746.0,0.3481
747.0,0.3491
748.0,0.3485
749.0,0.3446
750.0,0.3444
751.0,0.341
752.0,0.3426
753.0,0.3444
754.0,0.3452
755.0,0.3432
756.0,0.3431
757.0,0.3436
758.0,0.3392
759.0,0.3272
760.0,0.01224
761.0,0.004146
762.0,0.09435
763.0,0.02592
764.0,0.05481
765.0,0.09412
766.0,0.1435
767.0,0.2161
768.0,0.2827
769.0,0.2967
770.0,0.3162
771.0,0.3231
772.0,0.3251
773.0,0.3277
774.0,0.3264
775.0,0.3242
776.0,0.3282
777.0,0.324
778.0,0.322
779.0,0.3222
780.0,0.3205
781.0,0.3209
782.0,0.323
783.0,0.3175
784.0,0.3192
785.0,0.3165
786.0,0.3197
787.0,0.3102
788.0,0.3047
789.0,0.3044
790.0,0.2913
791.0,0.2989
792.0,0.2975
793.0,0.2922
794.0,0.3022
795.0,0.3059
796.0,0.2894
797.0,0.2891
798.0,0.3047
799.0,0.3015
800.0,0.2946
801.0,0.2919
802.0,0.291
803.0,0.2878
804.0,0.2891
805.0,0.2903
806.0,0.3021
807.0,0.2976
808.0,0.2982
809.0,0.2898
810.0,0.2858
811.0,0.2826
812.0,0.2694
813.0,0.262
814.0,0.2177
815.0,0.2174
816.0,0.2006
817.0,0.205
818.0,0.1943
819.0,0.2281
820.0,0.2111
821.0,0.2633
822.0,0.2531
823.0,0.1478
824.0,0.2393
825.0,0.2589
826.0,0.2435
827.0,0.2625
828.0,0.2067
829.0,0.2432
830.0,0.2388
831.0,0.2397
832.0,0.2294
833.0,0.2513
834.0,0.2376
835.0,0.2728
836.0,0.253
837.0,0.2737
838.0,0.261
839.0,0.2701
840.0,0.2771
841.0,0.2714
842.0,0.2747
843.0,0.2774
844.0,0.2721
845.0,0.2833
846.0,0.2825
847.0,0.2781
848.0,0.2751
849.0,0.2673
850.0,0.2562
851.0,0.2699
852.0,0.2687
853.0,0.2597
854.0,0.2233
855.0,0.2466
856.0,0.269
857.0,0.2759
858.0,0.2734
859.0,0.2743
860.0,0.2751
861.0,0.2735
862.0,0.278
863.0,0.2846
864.0,0.2704
865.0,0.2682
866.0,0.2412
867.0,0.2517
868.0,0.2739
869.0,0.2683
870.0,0.276
871.0,0.2722
872.0,0.2713
873.0,0.2708
874.0,0.2676
875.0,0.2621
876.0,0.2648
877.0,0.2676
878.0,0.2702
879.0,0.2661
880.0,0.2605
881.0,0.2559
882.0,0.2612
883.0,0.2627
884.0,0.2612
885.0,0.2632
886.0,0.2485
887.0,0.253
888.0,0.2557
889.0,0.2605
890.0,0.2559
891.0,0.2567
892.0,0.2461
893.0,0.2356
894.0,0.2207
895.0,0.2006
896.0,0.187
897.0,0.1518
898.0,0.1698
899.0,0.1195
900.0,0.1797
901.0,0.1252
902.0,0.1597
903.0,0.1566
904.0,0.2188
905.0,0.2086
906.0,0.1927
907.0,0.1419
908.0,0.1478
909.0,0.1655
910.0,0.1358
911.0,0.1531
912.0,0.1603
913.0,0.1373
914.0,0.1384
915.0,0.1488
916.0,0.1247
917.0,0.1685
918.0,0.1269
919.0,0.1754
920.0,0.1855
921.0,0.1922
922.0,0.164
923.0,0.1867
924.0,0.1657
925.0,0.1627
926.0,0.163
927.0,0.1901
928.0,0.1175
929.0,0.1016
930.0,0.07109
931.0,0.06727
932.0,0.04027
933.0,0.0295
934.0,0.01022
935.0,0.03264
936.0,0.01619
937.0,0.0163
938.0,0.02145
939.0,0.06494
940.0,0.08458
941.0,0.05591
942.0,0.06861
943.0,0.03932
944.0,0.04738
945.0,0.05941
946.0,0.02277
947.0,0.05758
948.0,0.04163
949.0,0.08497
950.0,0.0139
951.0,0.08448
952.0,0.0361
953.0,0.05274
954.0,0.07183
955.0,0.05415
956.0,0.06056
957.0,0.03574
958.0,0.09349
959.0,0.06479
960.0,0.07268
961.0,0.08915
962.0,0.08406
963.0,0.1037
964.0,0.0931
965.0,0.1029
966.0,0.1023
967.0,0.1008
968.0,0.1631
969.0,0.1658
970.0,0.15
971.0,0.1842
972.0,0.1733
973.0,0.1384
974.0,0.1305
975.0,0.1393
976.0,0.1251
977.0,0.1575
978.0,0.1433
979.0,0.1534
980.0,0.1426
981.0,0.1834
982.0,0.1707
983.0,0.1614
984.0,0.1949
985.0,0.1697
986.0,0.2022
987.0,0.1941
988.0,0.1941
989.0,0.2041
990.0,0.1928
991.0,0.2042
992.0,0.2059
993.0,0.1971
994.0,0.2063
995.0,0.2067
996.0,0.2051
997.0,0.2057
998.0,0.2045
999.0,0.2039
1000.0,0.2015
1001.0,0.2052
1002.0,0.1951
1003.0,0.2013
1004.0,0.1952
1005.0,0.1896
1006.0,0.1963
1007.0,0.2008
1008.0,0.199
1009.0,0.197
1010.0,0.1958
1011.0,0.1999
1012.0,0.1974
1013.0,0.1997
1014.0,0.1983
1015.0,0.1968
1016.0,0.1958
1017.0,0.1962
1018.0,0.196
1019.0,0.1901
1020.0,0.1947
1021.0,0.1947
1022.0,0.1926
1023.0,0.1945
1024.0,0.1903
1025.0,0.195
1026.0,0.1937
1027.0,0.1933
1028.0,0.1928
1029.0,0.1903
1030.0,0.1923
1031.0,0.1912
1032.0,0.1909
1033.0,0.188
1034.0,0.188
1035.0,0.1886
1036.0,0.1894
1037.0,0.1864
1038.0,0.1872
1039.0,0.1869
1040.0,0.1861
1041.0,0.1867
1042.0,0.1854
1043.0,0.1847
1044.0,0.1853
1045.0,0.1827
1046.0,0.1805
1047.0,0.182
1048.0,0.1829
1049.0,0.1821
1050.0,0.1811
1051.0,0.1807
1052.0,0.1798
1053.0,0.1781
1054.0,0.1783
1055.0,0.1781
1056.0,0.1772
1057.0,0.1764
1058.0,0.1718
1059.0,0.1718
1060.0,0.1714
1061.0,0.171
1062.0,0.1716
1063.0,0.1697
1064.0,0.1718
1065.0,0.1699
1066.0,0.1671
1067.0,0.169
1068.0,0.1649
1069.0,0.1602
1070.0,0.1652
1071.0,0.1693
1072.0,0.1662
1073.0,0.164
1074.0,0.17
1075.0,0.1573
1076.0,0.1696
1077.0,0.1642
1078.0,0.16
1079.0,0.1676
1080.0,0.1618
1081.0,0.1544
1082.0,0.1605
1083.0,0.162
1084.0,0.1532
1085.0,0.1625
1086.0,0.1428
1087.0,0.1509
1088.0,0.1612
1089.0,0.152
1090.0,0.1468
1091.0,0.1596
1092.0,0.1599
1093.0,0.1251
1094.0,0.1449
1095.0,0.1307
1096.0,0.1224
1097.0,0.1562
1098.0,0.1188
1099.0,0.1254
1100.0,0.1128
1101.0,0.1157
1102.0,0.1076
1103.0,0.1046
1104.0,0.105
1105.0,0.1217
1106.0,0.07744
1107.0,0.1127
1108.0,0.08625
1109.0,0.08782
1110.0,0.1096
1111.0,0.06204
1112.0,0.08771
1113.0,0.04449
1114.0,0.05009
1115.0,0.04056
1116.0,0.02689
1117.0,0.005673
1118.0,0.0304
1119.0,0.01097
1120.0,0.01318
1121.0,0.01945
1122.0,0.005299
1123.0,0.01206
1124.0,0.01012
1125.0,0.01422
1126.0,0.002413
1127.0,0.0163
1128.0,0.006646
1129.0,0.007303
1130.0,0.004382
1131.0,0.04068
1132.0,0.02986
1133.0,0.01386
1134.0,0.001809
1135.0,0.0007909
1136.0,0.009997
1137.0,0.0379
1138.0,0.02565
1139.0,0.05074
1140.0,0.03752
1141.0,0.02455
1142.0,0.03036
1143.0,0.04879
1144.0,0.01192
1145.0,0.01331
1146.0,0.0143
1147.0,0.002641
1148.0,0.0413
1149.0,0.02962
1150.0,0.01399
1151.0,0.02547
1152.0,0.03537
1153.0,0.03782
1154.0,0.01336
1155.0,0.05279
1156.0,0.04488
1157.0,0.05619
1158.0,0.05535
1159.0,0.06235
1160.0,0.05133
1161.0,0.07078
1162.0,0.07026
1163.0,0.1095
1164.0,0.08879
1165.0,0.07857
1166.0,0.08244
1167.0,0.09224
1168.0,0.09215
1169.0,0.09563
1170.0,0.1086
1171.0,0.1058
1172.0,0.1109
1173.0,0.1085
1174.0,0.06742
1175.0,0.1089
1176.0,0.1262
1177.0,0.1166
1178.0,0.07984
1179.0,0.1272
1180.0,0.1066
1181.0,0.1102
1182.0,0.06713
1183.0,0.1099
1184.0,0.09991
1185.0,0.09357
1186.0,0.1205
1187.0,0.1116
1188.0,0.06653
1189.0,0.1036
1190.0,0.1185
1191.0,0.1062
1192.0,0.1207
1193.0,0.1136
1194.0,0.1185
1195.0,0.1078
1196.0,0.1015
1197.0,0.1202
1198.0,0.1082
1199.0,0.08345
1200.0,0.1121
1201.0,0.1049
1202.0,0.1071
1203.0,0.1044
1204.0,0.08784
1205.0,0.1119
1206.0,0.1278
1207.0,0.1055
1208.0,0.1065
1209.0,0.1091
1210.0,0.1156
1211.0,0.1071
1212.0,0.1008
1213.0,0.1212
1214.0,0.105
1215.0,0.1026
1216.0,0.1214
1217.0,0.1165
1218.0,0.1202
1219.0,0.1177
1220.0,0.1205
1221.0,0.1228
1222.0,0.1189
1223.0,0.117
1224.0,0.1144
1225.0,0.1216
1226.0,0.1239
1227.0,0.1096
1228.0,0.1255
1229.0,0.1239
1230.0,0.1209
1231.0,0.1274
1232.0,0.1265
1233.0,0.1181
1234.0,0.1282
1235.0,0.1267
1236.0,0.1282
1237.0,0.1248
1238.0,0.1277
1239.0,0.1261
1240.0,0.1268
1241.0,0.1251
1242.0,0.1258
1243.0,0.1248
1244.0,0.1254
1245.0,0.1261
1246.0,0.1254
1247.0,0.1246
1248.0,0.124
1249.0,0.1249
1250.0,0.1238
1251.0,0.1215
1252.0,0.1224
1253.0,0.1199
1254.0,0.1175
1255.0,0.1219
1256.0,0.1156
1257.0,0.1144
1258.0,0.1188
1259.0,0.1102
1260.0,0.1113
1261.0,0.0999
1262.0,0.09426
1263.0,0.09431
1264.0,0.08127
1265.0,0.0938
1266.0,0.08679
1267.0,0.09072
1268.0,0.08225
1269.0,0.03175
1270.0,0.08944
1271.0,0.1002
1272.0,0.1011
1273.0,0.09944
1274.0,0.1006
1275.0,0.1029
1276.0,0.105
1277.0,0.1071
1278.0,0.1111
1279.0,0.11
1280.0,0.1088
1281.0,0.1048
1282.0,0.1026
1283.0,0.1101
1284.0,0.1125
1285.0,0.1135
1286.0,0.1159
1287.0,0.1125
1288.0,0.113
1289.0,0.1061
1290.0,0.1122
1291.0,0.1143
1292.0,0.1016
1293.0,0.1108
1294.0,0.1098
1295.0,0.1072
1296.0,0.09889
1297.0,0.09115
1298.0,0.1035
1299.0,0.1114
1300.0,0.08562
1301.0,0.08967
1302.0,0.1033
1303.0,0.0853
1304.0,0.06516
1305.0,0.1008
1306.0,0.09987
1307.0,0.06936
1308.0,0.08678
1309.0,0.09767
1310.0,0.06727
1311.0,0.08136
1312.0,0.0782
1313.0,0.07466
1314.0,0.06402
1315.0,0.06158
1316.0,0.07858
1317.0,0.07327
1318.0,0.08299
1319.0,0.05586
1320.0,0.05578
1321.0,0.06823
1322.0,0.06717
1323.0,0.04349
1324.0,0.05519
1325.0,0.07634
1326.0,0.06112
1327.0,0.05698
1328.0,0.0466
1329.0,0.02912
1330.0,0.04111
1331.0,0.01898
1332.0,0.02112
1333.0,0.03047
1334.0,0.02991
1335.0,0.0426
1336.0,0.03015
1337.0,0.02594
1338.0,0.02761
1339.0,0.02822
1340.0,0.02922
1341.0,0.0243
1342.0,0.02612
1343.0,0.01186
1344.0,0.007671
1345.0,0.01052
1346.0,0.002841
1347.0,0.002533
1348.0,5.022e-05
1349.0,0.0002314
1350.0,0.0002846
1351.0,2.38e-05
1352.0,1.94e-06
1353.0,6.55e-08
1354.0,3.22e-07
1355.0,1.428e-09
1356.0,3.18e-08
1357.0,4.797e-08
1358.0,1.687e-09
1359.0,2.031e-10
1360.0,7.463e-10
1361.0,8.182e-13
1362.0,2.238e-15
1363.0,9.881e-10
1364.0,4.092e-10
1365.0,7.813e-16
1366.0,4.3e-09
1367.0,1.785e-09
1368.0,6.033e-18
1369.0,1.508e-10
1370.0,7.387e-11
1371.0,4.18e-12
1372.0,9.724e-10
1373.0,2.144e-08
1374.0,1.214e-07
1375.0,1.99e-07
1376.0,2.929e-07
1377.0,1.239e-07
1378.0,1.224e-06
1379.0,5.423e-08
1380.0,5.533e-08
1381.0,1.353e-09
1382.0,8.453e-10
1383.0,1.255e-11
1384.0,1.629e-10
1385.0,8.464e-10
1386.0,7.358e-10
1387.0,9.959e-08
1388.0,2.299e-09
1389.0,4.747e-07
1390.0,3.797e-07
1391.0,2.536e-07
1392.0,1.686e-08
1393.0,1.072e-07
1394.0,3.298e-08
1395.0,2.318e-10
1396.0,1.065e-12
1397.0,3.626e-08
1398.0,1.206e-06
1399.0,8.085e-07
1400.0,4.554e-13
1401.0,1.89e-12
1402.0,8.256e-06
1403.0,7.376e-06
1404.0,1.864e-06
1405.0,1.066e-10
1406.0,3.026e-06
1407.0,5.612e-07
1408.0,2.717e-06
1409.0,5.449e-07
1410.0,7.696e-07
1411.0,6.977e-06
1412.0,1.39e-05
1413.0,0.0003471
1414.0,6.817e-07
1415.0,2.55e-07
1416.0,0.001352
1417.0,0.0002301
1418.0,0.0001709
1419.0,2.327e-05
1420.0,0.0001025
1421.0,0.0001561
1422.0,0.001756
1423.0,0.0003099
1424.0,0.0006983
1425.0,0.0008076
