interpolation:linear
wavelength,value
280.0,1.152e-21
280.5,3.699e-20
281.0,1.966e-19
281.5,5.174e-19
282.0,9.637e-19
282.5,2.402e-18
283.0,7.579e-18
283.5,1.231e-17
284.0,1.992e-16
284.5,5.76e-16
285.0,1.15e-15
285.5,5.536e-15
286.0,2.211e-14
286.5,9.777e-14
287.0,2.774e-13
287.5,1.055e-12
288.0,3.216e-12
288.5,1.009e-11
289.0,2.749e-11
289.5,8.43e-11
290.0,2.36e-10
290.5,4.838e-10
291.0,1.043e-09
291.5,3.004e-09
292.0,6.167e-09
292.5,8.922e-09
293.0,1.985e-08
293.5,5.061e-08
294.0,8.161e-08
294.5,1.072e-07
295.0,1.865e-07
295.5,4.329e-07
296.0,7.827e-07
296.5,1.133e-06
297.0,1.583e-06
297.5,4.496e-06
298.0,7.501e-06
298.5,7.928e-06
299.0,1.844e-05
299.5,3.4e-05
300.0,3.996e-05
300.5,6.237e-05
301.0,0.0001294
301.5,0.0002391
302.0,0.0002237
302.5,0.0004487
303.0,0.0008352
303.5,0.001078
304.0,0.001033
304.5,0.001621
305.0,0.002636
305.5,0.003154
306.0,0.003105
306.5,0.003977
307.0,0.006272
307.5,0.008839
308.0,0.009426
308.5,0.01146
309.0,0.01148
309.5,0.0136
310.0,0.01389
310.5,0.02269
311.0,0.02886
311.5,0.02803
312.0,0.02884
312.5,0.03576
313.0,0.03918
313.5,0.03771
314.0,0.04822
314.5,0.04404
315.0,0.05819
315.5,0.04801
316.0,0.04294
316.5,0.06293
317.0,0.07811
317.5,0.08085
318.0,0.06395
318.5,0.08151
319.0,0.09801
319.5,0.07827
320.0,0.0943
320.5,0.1212
321.0,0.1105
321.5,0.1062
322.0,0.1104
322.5,0.0962
323.0,0.09739
323.5,0.1214
324.0,0.1421
324.5,0.1434
325.0,0.123
325.5,0.1603
326.0,0.1966
326.5,0.1985
327.0,0.1974
327.5,0.19
328.0,0.1674
328.5,0.1783
329.0,0.2157
329.5,0.2456
330.0,0.2473
330.5,0.1964
331.0,0.1997
331.5,0.2042
332.0,0.2225
332.5,0.221
333.0,0.2199
333.5,0.1979
334.0,0.2026
334.5,0.2355
335.0,0.2222
335.5,0.2598
336.0,0.1798
336.5,0.2101
337.0,0.172
337.5,0.2137
338.0,0.2099
338.5,0.2426
339.0,0.2403
339.5,0.2312
340.0,0.2716
340.5,0.245
341.0,0.2391
341.5,0.2198
342.0,0.2628
342.5,0.246
343.0,0.2705
343.5,0.2548
344.0,0.1883
344.5,0.1903
345.0,0.2521
345.5,0.2576
346.0,0.219
346.5,0.2482
347.0,0.2664
347.5,0.2155
348.0,0.2459
348.5,0.2459
349.0,0.2283
349.5,0.2261
350.0,0.2798
350.5,0.2953
351.0,0.2638
351.5,0.2563
352.0,0.2755
352.5,0.2152
353.0,0.2712
353.5,0.2902
354.0,0.3014
354.5,0.3057
355.0,0.3048
355.5,0.2755
356.0,0.2884
356.5,0.2463
357.0,0.2036
357.5,0.2493
358.0,0.1977
358.5,0.169
359.0,0.2364
359.5,0.3013
360.0,0.3195
360.5,0.2555
361.0,0.2331
361.5,0.2686
362.0,0.2324
362.5,0.3219
363.0,0.2893
363.5,0.2667
364.0,0.3263
364.5,0.279
365.0,0.2843
365.5,0.357
366.0,0.3784
366.5,0.3558
367.0,0.3466
367.5,0.3599
368.0,0.3151
368.5,0.3181
369.0,0.3437
369.5,0.3665
370.0,0.3909
370.5,0.3035
371.0,0.3245
371.5,0.4061
372.0,0.2696
372.5,0.3235
373.0,0.3292
373.5,0.2143
374.0,0.3115
374.5,0.2581
375.0,0.251
375.5,0.3749
376.0,0.3109
376.5,0.3223
377.0,0.3414
377.5,0.3996
378.0,0.4333
378.5,0.4097
379.0,0.3382
379.5,0.309
380.0,0.3213
380.5,0.3894
381.0,0.3905
381.5,0.3097
382.0,0.2752
382.5,0.2348
383.0,0.2175
383.5,0.2096
384.0,0.2313
384.5,0.3403
385.0,0.3377
385.5,0.3146
386.0,0.2696
386.5,0.3543
387.0,0.2945
387.5,0.331
388.0,0.3057
388.5,0.3023
389.0,0.3265
389.5,0.3956
390.0,0.3972
390.5,0.3657
391.0,0.4307
391.5,0.4394
392.0,0.3702
392.5,0.3316
393.0,0.1846
393.5,0.1343
394.0,0.2733
394.5,0.3477
395.0,0.4244
395.5,0.4313
396.0,0.374
396.5,0.2188
397.0,0.1643
397.5,0.3342
398.0,0.4681
398.5,0.484
399.0,0.5245
399.5,0.523
400.0,0.5431
401.0,0.5497
402.0,0.5805
403.0,0.5519
404.0,0.5438
405.0,0.5441
406.0,0.5357
407.0,0.5275
408.0,0.5484
409.0,0.5873
410.0,0.5136
411.0,0.5567
412.0,0.5985
413.0,0.5839
414.0,0.5915
415.0,0.5935
416.0,0.6044
417.0,0.5898
418.0,0.5793
419.0,0.5873
420.0,0.585
421.0,0.6124
422.0,0.5823
423.0,0.5692
424.0,0.6022
425.0,0.6015
426.0,0.5865
427.0,0.5758
428.0,0.5611
429.0,0.532
430.0,0.4658
431.0,0.4618
432.0,0.5967
433.0,0.6003
434.0,0.5576
435.0,0.5825
436.0,0.6568
437.0,0.6485
438.0,0.5909
439.0,0.6109
440.0,0.6307
441.0,0.654
442.0,0.7016
443.0,0.6834
444.0,0.6986
445.0,0.6836
446.0,0.6529
447.0,0.7064
448.0,0.7173
449.0,0.7208
450.0,0.7413
451.0,0.7691
452.0,0.7413
453.0,0.6975
454.0,0.7286
455.0,0.7332
456.0,0.7509
457.0,0.7635
458.0,0.7373
459.0,0.7337
460.0,0.7356
461.0,0.7527
462.0,0.7589
463.0,0.7538
464.0,0.7419
465.0,0.7331
466.0,0.7406
467.0,0.7269
468.0,0.7356
469.0,0.7395
470.0,0.7159
471.0,0.7152
472.0,0.7536
473.0,0.7438
474.0,0.7446
475.0,0.7507
476.0,0.7278
477.0,0.7295
478.0,0.75
479.0,0.7457
480.0,0.7475
481.0,0.7619
482.0,0.7663
483.0,0.7576
484.0,0.7424
485.0,0.7076
486.0,0.619
487.0,0.649
488.0,0.712
489.0,0.7141
490.0,0.7515
491.0,0.7388
492.0,0.6978
493.0,0.7207
494.0,0.728
495.0,0.7343
496.0,0.7388
497.0,0.7503
498.0,0.7152
499.0,0.7242
500.0,0.7028
501.0,0.6896
502.0,0.6794
503.0,0.7064
504.0,0.6867
505.0,0.7128
506.0,0.7358
507.0,0.7002
508.0,0.679
509.0,0.6985
510.0,0.6951
511.0,0.7142
512.0,0.7221
513.0,0.6836
514.0,0.679
515.0,0.6723
516.0,0.6706
517.0,0.596
518.0,0.6265
519.0,0.6571
520.0,0.681
521.0,0.6874
522.0,0.6879
523.0,0.6754
524.0,0.6992
525.0,0.707
526.0,0.6752
527.0,0.6359
528.0,0.6723
529.0,0.7084
530.0,0.6981
531.0,0.7083
532.0,0.6839
533.0,0.6638
534.0,0.6836
535.0,0.6987
536.0,0.7054
537.0,0.6777
538.0,0.6898
539.0,0.684
540.0,0.6557
541.0,0.6595
542.0,0.6799
543.0,0.6732
544.0,0.6844
545.0,0.6824
546.0,0.685
547.0,0.685
548.0,0.677
549.0,0.6792
550.0,0.6873
551.0,0.6791
552.0,0.6838
553.0,0.6715
554.0,0.6875
555.0,0.6888
556.0,0.6797
557.0,0.6584
558.0,0.6532
559.0,0.6407
560.0,0.6485
561.0,0.6567
562.0,0.6516
563.0,0.669
564.0,0.6504
565.0,0.6446
566.0,0.6348
567.0,0.6465
568.0,0.6398
569.0,0.6228
570.0,0.6228
571.0,0.6196
572.0,0.6332
573.0,0.6398
574.0,0.6375
575.0,0.6251
576.0,0.6195
577.0,0.6264
578.0,0.6175
579.0,0.6208
580.0,0.6339
581.0,0.6382
582.0,0.6512
583.0,0.6535
584.0,0.6597
585.0,0.6439
586.0,0.6307
587.0,0.6439
588.0,0.626
589.0,0.5501
590.0,0.5756
591.0,0.6118
592.0,0.6025
593.0,0.6135
594.0,0.6084
595.0,0.5917
596.0,0.6187
597.0,0.6111
598.0,0.6106
599.0,0.6117
600.0,0.6135
601.0,0.6092
602.0,0.6052
603.0,0.6155
604.0,0.6259
605.0,0.6229
606.0,0.6207
607.0,0.6273
608.0,0.6208
609.0,0.6222
610.0,0.6181
611.0,0.6216
612.0,0.62
613.0,0.6124
614.0,0.6044
615.0,0.6179
616.0,0.5978
617.0,0.5968
618.0,0.62
619.0,0.6138
620.0,0.6177
621.0,0.618
622.0,0.6104
623.0,0.6009
624.0,0.5908
625.0,0.5895
626.0,0.5982
627.0,0.604
628.0,0.5539
629.0,0.5862
630.0,0.5723
631.0,0.5887
632.0,0.5823
633.0,0.6015
634.0,0.5967
635.0,0.6066
636.0,0.5992
637.0,0.6095
638.0,0.6162
639.0,0.6097
640.0,0.6042
641.0,0.6042
642.0,0.6019
643.0,0.61
644.0,0.6085
645.0,0.6092
646.0,0.5938
647.0,0.584
648.0,0.5844
649.0,0.5728
650.0,0.5792
651.0,0.605
652.0,0.576
653.0,0.5971
654.0,0.5908
655.0,0.5669
656.0,0.5038
657.0,0.5175
658.0,0.5811
659.0,0.5858
660.0,0.5885
661.0,0.5927
662.0,0.5932
663.0,0.5817
664.0,0.5897
665.0,0.5909
666.0,0.5917
667.0,0.5916
668.0,0.5922
669.0,0.6017
670.0,0.5992
671.0,0.5993
672.0,0.5943
673.0,0.6034
674.0,0.6013
675.0,0.596
676.0,0.6003
677.0,0.5944
678.0,0.5963
679.0,0.5868
680.0,0.5916
681.0,0.5877
682.0,0.587
683.0,0.5859
684.0,0.583
685.0,0.5881
686.0,0.5844
687.0,0.3448
688.0,0.4238
689.0,0.426
690.0,0.4537
691.0,0.4855
692.0,0.5097
693.0,0.505
694.0,0.5012
695.0,0.5274
696.0,0.5283
697.0,0.5671
698.0,0.5582
699.0,0.5405
700.0,0.5338
701.0,0.5268
702.0,0.5321
703.0,0.5334
704.0,0.553
705.0,0.5538
706.0,0.5544
707.0,0.5552
708.0,0.5563
709.0,0.5588
710.0,0.5579
711.0,0.5577
712.0,0.5568
713.0,0.5505
714.0,0.5528
715.0,0.5336
716.0,0.5334
717.0,0.4469
718.0,0.4086
719.0,0.3729
720.0,0.3892
721.0,0.4389
722.0,0.5122
723.0,0.4717
724.0,0.419
725.0,0.4102
726.0,0.4301
727.0,0.4402
728.0,0.4084
729.0,0.4293
730.0,0.4536
731.0,0.4326
732.0,0.4686
733.0,0.5016
734.0,0.5151
735.0,0.5036
736.0,0.5029
737.0,0.5048
738.0,0.5166
739.0,0.5064
740.0,0.5209
741.0,0.5164
742.0,0.5177
743.0,0.5311
744.0,0.53
745.0,0.5305
746.0,0.5329
747.0,0.5342
748.0,0.5331
749.0,0.5271
750.0,0.5268
751.0,0.5215
752.0,0.5238
753.0,0.5265
754.0,0.5277
755.0,0.5247
756.0,0.5245
757.0,0.5252
758.0,0.5186
759.0,0.5056
760.0,0.05012
761.0,0.02188
762.0,0.2139
763.0,0.08667
764.0,0.1471
765.0,0.2137
766.0,0.2822
767.0,0.3777
768.0,0.4542
769.0,0.4681
770.0,0.4888
771.0,0.4949
772.0,0.4966
773.0,0.5003
774.0,0.498
775.0,0.4943
776.0,0.5004
777.0,0.4938
778.0,0.4908
779.0,0.4912
780.0,0.4885
781.0,0.4891
782.0,0.4922
783.0,0.4837
784.0,0.4861
785.0,0.4823
786.0,0.4874
787.0,0.477
788.0,0.4701
789.0,0.4698
790.0,0.4546
791.0,0.4612
792.0,0.4582
793.0,0.4505
794.0,0.461
795.0,0.468
796.0,0.4499
797.0,0.4502
798.0,0.467
799.0,0.4633
800.0,0.4544
801.0,0.4521
802.0,0.4508
803.0,0.4469
804.0,0.448
805.0,0.4476
806.0,0.4621
807.0,0.4561
808.0,0.4567
809.0,0.4467
810.0,0.4421
811.0,0.4406
812.0,0.4255
813.0,0.4153
814.0,0.3576
815.0,0.3558
816.0,0.3303
817.0,0.337
818.0,0.3226
819.0,0.3674
820.0,0.3435
821.0,0.4111
822.0,0.3978
823.0,0.2558
824.0,0.3827
825.0,0.4038
826.0,0.3855
827.0,0.4099
828.0,0.3385
829.0,0.3838
830.0,0.3779
831.0,0.3794
832.0,0.3661
833.0,0.3939
834.0,0.377
835.0,0.4207
836.0,0.3984
837.0,0.4221
838.0,0.4068
839.0,0.4162
840.0,0.4259
841.0,0.4189
842.0,0.4212
843.0,0.4225
844.0,0.4158
845.0,0.4309
846.0,0.4293
847.0,0.4217
848.0,0.4185
849.0,0.4066
850.0,0.3896
851.0,0.4118
852.0,0.4092
853.0,0.3945
854.0,0.3401
855.0,0.3744
856.0,0.4088
857.0,0.4184
858.0,0.4151
859.0,0.4158
860.0,0.4167
861.0,0.4144
862.0,0.421
863.0,0.4309
864.0,0.4094
865.0,0.4059
866.0,0.365
867.0,0.3809
868.0,0.4145
869.0,0.4059
870.0,0.4175
871.0,0.4118
872.0,0.4104
873.0,0.4096
874.0,0.4048
875.0,0.3965
876.0,0.4006
877.0,0.4047
878.0,0.409
879.0,0.4027
880.0,0.3941
881.0,0.3878
882.0,0.3961
883.0,0.3977
884.0,0.3957
885.0,0.3987
886.0,0.3788
887.0,0.3837
888.0,0.3888
889.0,0.3943
890.0,0.3897
891.0,0.3897
892.0,0.3767
893.0,0.3631
894.0,0.3466
895.0,0.3228
896.0,0.3027
897.0,0.2543
898.0,0.2805
899.0,0.2068
900.0,0.2908
901.0,0.2167
902.0,0.2632
903.0,0.2628
904.0,0.344
905.0,0.3303
906.0,0.3076
907.0,0.2409
908.0,0.2473
909.0,0.2717
910.0,0.233
911.0,0.2534
912.0,0.2659
913.0,0.2362
914.0,0.2356
915.0,0.2552
916.0,0.2147
917.0,0.2797
918.0,0.2196
919.0,0.2871
920.0,0.2948
921.0,0.3067
922.0,0.2689
923.0,0.2967
924.0,0.2746
925.0,0.2688
926.0,0.2711
927.0,0.3088
928.0,0.2115
929.0,0.189
930.0,0.1423
931.0,0.1354
932.0,0.09105
933.0,0.07101
934.0,0.03282
935.0,0.07509
936.0,0.04288
937.0,0.04316
938.0,0.05456
939.0,0.131
940.0,0.1623
941.0,0.1164
942.0,0.1382
943.0,0.08621
944.0,0.09539
945.0,0.1213
946.0,0.05547
947.0,0.1201
948.0,0.08755
949.0,0.167
950.0,0.03753
951.0,0.1655
952.0,0.08089
953.0,0.1098
954.0,0.1406
955.0,0.1117
956.0,0.1132
957.0,0.08042
958.0,0.1679
959.0,0.1262
960.0,0.1415
961.0,0.1645
962.0,0.1552
963.0,0.1838
964.0,0.1669
965.0,0.1833
966.0,0.1824
967.0,0.181
968.0,0.2612
969.0,0.2706
970.0,0.2465
971.0,0.2903
972.0,0.276
973.0,0.232
974.0,0.2193
975.0,0.2307
976.0,0.2145
977.0,0.2533
978.0,0.2368
979.0,0.2504
980.0,0.2341
981.0,0.2889
982.0,0.2731
983.0,0.2605
984.0,0.3013
985.0,0.2721
986.0,0.3088
987.0,0.3001
988.0,0.2997
989.0,0.3093
990.0,0.2978
991.0,0.3099
992.0,0.312
993.0,0.3025
994.0,0.3122
995.0,0.3121
996.0,0.3104
997.0,0.311
998.0,0.3094
999.0,0.3084
1000.0,0.3056
1001.0,0.3101
1002.0,0.2991
1003.0,0.3045
1004.0,0.2964
1005.0,0.2864
1006.0,0.2971
1007.0,0.3037
1008.0,0.3016
1009.0,0.2995
1010.0,0.298
1011.0,0.3022
1012.0,0.2991
1013.0,0.3016
1014.0,0.2995
1015.0,0.2974
1016.0,0.296
1017.0,0.2967
1018.0,0.2959
1019.0,0.2886
1020.0,0.2942
1021.0,0.2939
1022.0,0.2913
1023.0,0.2943
1024.0,0.2895
1025.0,0.2945
1026.0,0.293
1027.0,0.2923
1028.0,0.2916
1029.0,0.2881
1030.0,0.2904
1031.0,0.2891
1032.0,0.2884
1033.0,0.284
1034.0,0.2841
1035.0,0.285
1036.0,0.2863
1037.0,0.2817
1038.0,0.2829
1039.0,0.2827
1040.0,0.2815
1041.0,0.2826
1042.0,0.2806
1043.0,0.2797
1044.0,0.2806
1045.0,0.2767
1046.0,0.2736
1047.0,0.276
1048.0,0.2774
1049.0,0.2763
1050.0,0.275
1051.0,0.2745
1052.0,0.2733
1053.0,0.271
1054.0,0.2715
1055.0,0.2715
1056.0,0.2704
1057.0,0.2694
1058.0,0.2626
1059.0,0.2628
1060.0,0.2623
1061.0,0.2619
1062.0,0.2631
1063.0,0.2604
1064.0,0.2635
1065.0,0.2613
1066.0,0.2564
1067.0,0.2596
1068.0,0.2537
1069.0,0.246
1070.0,0.2541
1071.0,0.2589
1072.0,0.2553
1073.0,0.2518
1074.0,0.2592
1075.0,0.2437
1076.0,0.2589
1077.0,0.2528
1078.0,0.2474
1079.0,0.2552
1080.0,0.249
1081.0,0.2397
1082.0,0.2457
1083.0,0.247
1084.0,0.2385
1085.0,0.2497
1086.0,0.2243
1087.0,0.234
1088.0,0.2464
1089.0,0.2364
1090.0,0.2298
1091.0,0.2449
1092.0,0.2448
1093.0,0.2008
1094.0,0.2231
1095.0,0.2098
1096.0,0.199
1097.0,0.2392
1098.0,0.195
1099.0,0.2044
1100.0,0.1873
1101.0,0.1905
1102.0,0.1801
1103.0,0.1771
1104.0,0.1775
1105.0,0.1992
1106.0,0.1414
1107.0,0.1871
1108.0,0.1521
1109.0,0.1536
1110.0,0.1843
1111.0,0.1165
1112.0,0.1529
1113.0,0.08884
1114.0,0.09989
1115.0,0.08232
1116.0,0.06099
1117.0,0.01788
1118.0,0.06773
1119.0,0.02966
1120.0,0.03688
1121.0,0.05117
1122.0,0.01832
1123.0,0.03351
1124.0,0.02823
1125.0,0.0378
1126.0,0.01011
1127.0,0.04294
1128.0,0.02222
1129.0,0.02398
1130.0,0.01483
1131.0,0.09049
1132.0,0.06923
1133.0,0.03898
1134.0,0.007677
1135.0,0.003026
1136.0,0.03085
1137.0,0.08705
1138.0,0.06046
1139.0,0.1004
1140.0,0.07997
1141.0,0.05756
1142.0,0.06816
1143.0,0.1012
1144.0,0.0307
1145.0,0.03764
1146.0,0.04054
1147.0,0.0112
1148.0,0.08716
1149.0,0.06666
1150.0,0.03377
1151.0,0.05996
1152.0,0.07733
1153.0,0.07812
1154.0,0.03639
1155.0,0.1046
1156.0,0.09213
1157.0,0.1072
1158.0,0.1059
1159.0,0.1167
1160.0,0.09737
1161.0,0.1257
1162.0,0.1258
1163.0,0.1799
1164.0,0.1507
1165.0,0.1386
1166.0,0.1404
1167.0,0.1547
1168.0,0.1556
1169.0,0.1604
1170.0,0.1773
1171.0,0.1727
1172.0,0.1777
1173.0,0.177
1174.0,0.1193
1175.0,0.1745
1176.0,0.1957
1177.0,0.1852
1178.0,0.1338
1179.0,0.1974
1180.0,0.1719
1181.0,0.1776
1182.0,0.1167
1183.0,0.1758
1184.0,0.1628
1185.0,0.1553
1186.0,0.1901
1187.0,0.1792
1188.0,0.1178
1189.0,0.1666
1190.0,0.1861
1191.0,0.1731
1192.0,0.189
1193.0,0.1799
1194.0,0.1863
1195.0,0.1737
1196.0,0.1659
1197.0,0.1875
1198.0,0.1701
1199.0,0.1396
1200.0,0.1775
1201.0,0.1694
1202.0,0.1698
1203.0,0.1677
1204.0,0.1443
1205.0,0.1752
1206.0,0.1962
1207.0,0.1687
1208.0,0.1676
1209.0,0.1714
1210.0,0.1797
1211.0,0.1693
1212.0,0.1646
1213.0,0.1884
1214.0,0.1696
1215.0,0.166
1216.0,0.188
1217.0,0.1821
1218.0,0.1864
1219.0,0.1836
1220.0,0.1867
1221.0,0.1891
1222.0,0.1838
1223.0,0.1816
1224.0,0.1796
1225.0,0.1878
1226.0,0.1898
1227.0,0.1725
1228.0,0.1913
1229.0,0.1898
1230.0,0.1861
1231.0,0.1931
1232.0,0.1919
1233.0,0.1831
1234.0,0.1934
1235.0,0.1918
1236.0,0.1935
1237.0,0.1898
1238.0,0.1928
1239.0,0.1903
1240.0,0.1912
1241.0,0.1897
1242.0,0.1898
1243.0,0.1883
1244.0,0.1895
1245.0,0.1904
1246.0,0.1893
1247.0,0.1884
1248.0,0.188
1249.0,0.1888
1250.0,0.1875
1251.0,0.1848
1252.0,0.1852
1253.0,0.183
1254.0,0.1805
1255.0,0.1848
1256.0,0.1782
1257.0,0.1769
1258.0,0.1814
1259.0,0.1726
1260.0,0.1738
1261.0,0.1613
1262.0,0.155
1263.0,0.1552
1264.0,0.14
1265.0,0.1543
1266.0,0.1465
1267.0,0.1505
1268.0,0.1406
1269.0,0.07435
1270.0,0.1494
1271.0,0.1611
1272.0,0.1619
1273.0,0.1599
1274.0,0.1608
1275.0,0.1637
1276.0,0.1658
1277.0,0.1676
1278.0,0.1719
1279.0,0.1702
1280.0,0.1682
1281.0,0.161
1282.0,0.156
1283.0,0.1678
1284.0,0.1717
1285.0,0.1729
1286.0,0.1757
1287.0,0.1722
1288.0,0.1724
1289.0,0.1652
1290.0,0.1709
1291.0,0.1737
1292.0,0.16
1293.0,0.1695
1294.0,0.1682
1295.0,0.1664
1296.0,0.1569
1297.0,0.147
1298.0,0.1613
1299.0,0.17
1300.0,0.1388
1301.0,0.144
1302.0,0.1608
1303.0,0.1375
1304.0,0.1126
1305.0,0.1573
1306.0,0.1569
1307.0,0.1168
1308.0,0.1386
1309.0,0.155
1310.0,0.1142
1311.0,0.1318
1312.0,0.1274
1313.0,0.124
1314.0,0.1093
1315.0,0.1068
1316.0,0.1288
1317.0,0.1214
1318.0,0.1339
1319.0,0.09899
1320.0,0.09712
1321.0,0.1151
1322.0,0.1152
1323.0,0.08207
1324.0,0.09729
1325.0,0.1265
1326.0,0.1056
1327.0,0.09994
1328.0,0.08461
1329.0,0.05952
1330.0,0.07953
1331.0,0.04352
1332.0,0.04636
1333.0,0.06542
1334.0,0.05807
1335.0,0.08152
1336.0,0.06196
1337.0,0.05384
1338.0,0.05809
1339.0,0.05848
1340.0,0.05819
1341.0,0.05376
1342.0,0.05681
1343.0,0.03314
1344.0,0.02031
1345.0,0.0292
1346.0,0.01161
1347.0,0.01131
1348.0,0.0004498
1349.0,0.001835
1350.0,0.002086
1351.0,0.0003232
1352.0,5.04e-05
1353.0,1.595e-06
1354.0,7.818e-06
1355.0,2.161e-08
1356.0,7.626e-07
1357.0,1.165e-06
1358.0,2.672e-08
1359.0,1.506e-09
1360.0,9.13e-09
1361.0,2.368e-12
1362.0,4.386e-15
1363.0,8.878e-09
1364.0,3.824e-09
1365.0,1.047e-15
1366.0,4.763e-08
1367.0,2.441e-08
1368.0,6.346e-18
1369.0,1.401e-09
1370.0,4.969e-10
1371.0,2.024e-11
1372.0,1.371e-08
1373.0,4.673e-07
1374.0,3.177e-06
1375.0,5.376e-06
1376.0,7.209e-06
1377.0,3.067e-06
1378.0,3.344e-05
1379.0,1.297e-06
1380.0,1.428e-06
1381.0,3.152e-08
1382.0,1.113e-08
1383.0,1.329e-10
1384.0,1.363e-09
1385.0,1.605e-08
1386.0,7.682e-09
1387.0,2.454e-06
1388.0,5.496e-08
1389.0,1.332e-05
1390.0,1.11e-05
1391.0,7.055e-06
1392.0,4.299e-07
1393.0,2.759e-06
1394.0,7.245e-07
1395.0,3.779e-09
1396.0,3.963e-12
1397.0,9.488e-07
1398.0,3.54e-05
1399.0,2.306e-05
1400.0,1.211e-12
1401.0,8.1e-12
1402.0,0.0001165
1403.0,0.0001298
1404.0,3.735e-05
1405.0,1.364e-09
1406.0,7.906e-05
1407.0,8.747e-06
1408.0,6.74e-05
1409.0,1.638e-05
1410.0,1.718e-05
1411.0,0.0001171
1412.0,0.0001846
1413.0,0.002859
1414.0,1.423e-05
1415.0,5.936e-06
1416.0,0.00634
1417.0,0.001466
1418.0,0.001518
1419.0,0.0002211
1420.0,0.000918
1421.0,0.001051
1422.0,0.008329
1423.0,0.001515
1424.0,0.002998
1425.0,0.004102
1426.0,0.005319
1427.0,0.01119
1428.0,0.0004015
1429.0,0.007575
1430.0,0.01503
1431.0,0.01706
1432.0,0.00031
1433.0,0.01015
1434.0,0.004826
1435.0,0.00374
