interpolation:linear
wavelength,value
280.0,9.002e-23
280.5,3.004e-21
281.0,1.621e-20
281.5,5.229e-19
282.0,5.257e-19
282.5,1.268e-18
283.0,3.97e-18
283.5,6.459e-18
284.0,1.065e-16
284.5,3.12e-16
285.0,5.827e-16
285.5,2.769e-15
286.0,1.108e-14
286.5,4.942e-14
287.0,1.415e-13
287.5,5.454e-13
288.0,1.908e-12
288.5,5.538e-12
289.0,1.441e-11
289.5,4.289e-11
290.0,1.184e-10
290.5,2.409e-10
291.0,5.169e-10
291.5,1.485e-09
292.0,3.012e-09
292.5,4.203e-09
293.0,8.956e-09
293.5,2.163e-08
294.0,3.374e-08
294.5,4.403e-08
295.0,7.426e-08
295.5,1.258e-07
296.0,2.39e-07
296.5,3.288e-07
297.0,4.382e-07
297.5,1.147e-06
298.0,1.766e-06
298.5,1.742e-06
299.0,3.762e-06
299.5,6.001e-06
300.0,6.436e-06
300.5,9.07e-06
301.0,1.564e-05
301.5,2.376e-05
302.0,1.979e-05
302.5,3.835e-05
303.0,6.865e-05
303.5,8.704e-05
304.0,8.386e-05
304.5,0.0001342
305.0,0.0002255
305.5,0.0002763
306.0,0.0002745
306.5,0.0003576
307.0,0.0005876
307.5,0.000864
308.0,0.0009274
308.5,0.001152
309.0,0.001361
309.5,0.001845
310.0,0.002003
310.5,0.003371
311.0,0.004506
311.5,0.00447
312.0,0.005124
312.5,0.006823
313.0,0.007758
313.5,0.007207
314.0,0.01004
314.5,0.01027
315.0,0.01384
315.5,0.0108
316.0,0.01059
316.5,0.01681
317.0,0.02083
317.5,0.02106
318.0,0.01758
318.5,0.02488
319.0,0.03152
319.5,0.02311
320.0,0.02747
320.5,0.03928
321.0,0.03943
321.5,0.03825
322.0,0.03584
322.5,0.03138
323.0,0.03398
323.5,0.04613
324.0,0.05463
324.5,0.05345
325.0,0.04337
325.5,0.0597
326.0,0.07613
326.5,0.07988
327.0,0.07825
327.5,0.07393
328.0,0.06184
328.5,0.07009
329.0,0.08907
329.5,0.103
330.0,0.1024
330.5,0.07825
331.0,0.07849
331.5,0.08256
332.0,0.09371
332.5,0.0948
333.0,0.09332
333.5,0.08144
334.0,0.08295
334.5,0.09978
335.0,0.09604
335.5,0.1132
336.0,0.07837
336.5,0.08988
337.0,0.07249
337.5,0.08961
338.0,0.09054
338.5,0.1059
339.0,0.1051
339.5,0.101
340.0,0.1173
340.5,0.1061
341.0,0.1046
341.5,0.09642
342.0,0.1154
342.5,0.1081
343.0,0.1187
343.5,0.1116
344.0,0.08164
344.5,0.08311
345.0,0.1106
345.5,0.1132
346.0,0.09638
346.5,0.1093
347.0,0.1171
347.5,0.09467
348.0,0.1083
348.5,0.1084
349.0,0.1007
349.5,0.09978
350.0,0.1235
350.5,0.1303
351.0,0.1163
351.5,0.1127
352.0,0.1214
352.5,0.09497
353.0,0.1198
353.5,0.1283
354.0,0.1333
354.5,0.1353
355.0,0.1348
355.5,0.1219
356.0,0.1277
356.5,0.1091
357.0,0.09017
357.5,0.1105
358.0,0.0876
358.5,0.07491
359.0,0.1048
359.5,0.1334
360.0,0.1416
360.5,0.1133
361.0,0.1034
361.5,0.1192
362.0,0.1032
362.5,0.1431
363.0,0.1286
363.5,0.1186
364.0,0.1452
364.5,0.1242
365.0,0.1266
365.5,0.159
366.0,0.1686
366.5,0.1586
367.0,0.1546
367.5,0.1605
368.0,0.1406
368.5,0.142
369.0,0.1535
369.5,0.1637
370.0,0.1747
370.5,0.1357
371.0,0.1451
371.5,0.1817
372.0,0.1207
372.5,0.1448
373.0,0.1474
373.5,0.09602
374.0,0.1396
374.5,0.1157
375.0,0.1126
375.5,0.1682
376.0,0.1395
376.5,0.1447
377.0,0.1533
377.5,0.1795
378.0,0.1947
378.5,0.1841
379.0,0.152
379.5,0.1389
380.0,0.1445
380.5,0.1753
381.0,0.1758
381.5,0.1396
382.0,0.1241
382.5,0.1059
383.0,0.09818
383.5,0.09466
384.0,0.1045
384.5,0.1539
385.0,0.1527
385.5,0.1424
386.0,0.1221
386.5,0.1605
387.0,0.1335
387.5,0.15
388.0,0.1387
388.5,0.1372
389.0,0.1482
389.5,0.1797
390.0,0.1805
390.5,0.1663
391.0,0.1959
391.5,0.2
392.0,0.1685
392.5,0.1511
393.0,0.08415
393.5,0.06123
394.0,0.1247
394.5,0.1587
395.0,0.1938
395.5,0.197
396.0,0.171
396.5,0.1001
397.0,0.07518
397.5,0.153
398.0,0.2144
398.5,0.2217
399.0,0.2405
399.5,0.2399
400.0,0.2492
401.0,0.2503
402.0,0.2646
403.0,0.2519
404.0,0.2484
405.0,0.2488
406.0,0.2453
407.0,0.2418
408.0,0.2514
409.0,0.2695
410.0,0.236
411.0,0.2561
412.0,0.2757
413.0,0.2691
414.0,0.273
415.0,0.2742
416.0,0.2796
417.0,0.2731
418.0,0.2684
419.0,0.2724
420.0,0.2716
421.0,0.2846
422.0,0.2709
423.0,0.265
424.0,0.2805
425.0,0.2804
426.0,0.2739
427.0,0.2691
428.0,0.2625
429.0,0.2493
430.0,0.2185
431.0,0.2167
432.0,0.2803
433.0,0.2823
434.0,0.2624
435.0,0.2742
436.0,0.3097
437.0,0.3062
438.0,0.2793
439.0,0.2884
440.0,0.2981
441.0,0.3095
442.0,0.3322
443.0,0.3235
444.0,0.3312
445.0,0.3241
446.0,0.3103
447.0,0.3363
448.0,0.3412
449.0,0.3436
450.0,0.3537
451.0,0.3672
452.0,0.3543
453.0,0.3337
454.0,0.3491
455.0,0.3513
456.0,0.36
457.0,0.3662
458.0,0.3533
459.0,0.3517
460.0,0.3525
461.0,0.3609
462.0,0.3643
463.0,0.3619
464.0,0.357
465.0,0.3535
466.0,0.3577
467.0,0.3509
468.0,0.3552
469.0,0.3571
470.0,0.3457
471.0,0.3455
472.0,0.3641
473.0,0.3595
474.0,0.3595
475.0,0.3619
476.0,0.3502
477.0,0.3505
478.0,0.3605
479.0,0.3588
480.0,0.36
481.0,0.3675
482.0,0.3703
483.0,0.3668
484.0,0.3599
485.0,0.3436
486.0,0.3011
487.0,0.3162
488.0,0.3469
489.0,0.3478
490.0,0.3664
491.0,0.3606
492.0,0.3407
493.0,0.352
494.0,0.3557
495.0,0.359
496.0,0.3613
497.0,0.3668
498.0,0.3496
499.0,0.3537
500.0,0.3429
501.0,0.3359
502.0,0.33
503.0,0.3422
504.0,0.3301
505.0,0.3446
506.0,0.3557
507.0,0.3387
508.0,0.3292
509.0,0.3393
510.0,0.3383
511.0,0.3481
512.0,0.3523
513.0,0.3335
514.0,0.3315
515.0,0.3282
516.0,0.3273
517.0,0.291
518.0,0.3059
519.0,0.3207
520.0,0.3323
521.0,0.3353
522.0,0.3352
523.0,0.329
524.0,0.3401
525.0,0.3431
526.0,0.3274
527.0,0.3078
528.0,0.3249
529.0,0.3419
530.0,0.3367
531.0,0.3413
532.0,0.3294
533.0,0.3198
534.0,0.3295
535.0,0.3372
536.0,0.3406
537.0,0.3276
538.0,0.3336
539.0,0.3307
540.0,0.3169
541.0,0.3179
542.0,0.3273
543.0,0.3247
544.0,0.3294
545.0,0.3285
546.0,0.3292
547.0,0.3298
548.0,0.3262
549.0,0.3275
550.0,0.3314
551.0,0.3275
552.0,0.3298
553.0,0.3238
554.0,0.3314
555.0,0.3318
556.0,0.3273
557.0,0.3168
558.0,0.3139
559.0,0.3074
560.0,0.3108
561.0,0.3143
562.0,0.3113
563.0,0.319
564.0,0.3097
565.0,0.3065
566.0,0.3015
567.0,0.3064
568.0,0.3018
569.0,0.2912
570.0,0.2915
571.0,0.2906
572.0,0.2952
573.0,0.2979
574.0,0.2965
575.0,0.2901
576.0,0.2875
577.0,0.291
578.0,0.2876
579.0,0.2904
580.0,0.2986
581.0,0.3021
582.0,0.3096
583.0,0.3118
584.0,0.3155
585.0,0.3084
586.0,0.3021
587.0,0.3077
588.0,0.2959
589.0,0.2538
590.0,0.266
591.0,0.2866
592.0,0.28
593.0,0.288
594.0,0.2845
595.0,0.2741
596.0,0.2919
597.0,0.2868
598.0,0.2883
599.0,0.2894
600.0,0.2916
601.0,0.2905
602.0,0.2888
603.0,0.2943
604.0,0.2996
605.0,0.2984
606.0,0.298
607.0,0.3018
608.0,0.2992
609.0,0.3004
610.0,0.2991
611.0,0.3012
612.0,0.3008
613.0,0.2974
614.0,0.2941
615.0,0.3012
616.0,0.2918
617.0,0.2916
618.0,0.3033
619.0,0.3004
620.0,0.3023
621.0,0.3021
622.0,0.2981
623.0,0.2932
624.0,0.2887
625.0,0.2879
626.0,0.2919
627.0,0.2935
628.0,0.254
629.0,0.2794
630.0,0.2722
631.0,0.2853
632.0,0.2832
633.0,0.2947
634.0,0.2942
635.0,0.2999
636.0,0.2973
637.0,0.3032
638.0,0.3077
639.0,0.3052
640.0,0.3032
641.0,0.3038
642.0,0.3033
643.0,0.3075
644.0,0.3075
645.0,0.3075
646.0,0.2978
647.0,0.2885
648.0,0.2894
649.0,0.2827
650.0,0.2916
651.0,0.3055
652.0,0.2857
653.0,0.302
654.0,0.2991
655.0,0.2844
656.0,0.2546
657.0,0.2619
658.0,0.296
659.0,0.299
660.0,0.3009
661.0,0.3034
662.0,0.3028
663.0,0.2973
664.0,0.3028
665.0,0.3046
666.0,0.3055
667.0,0.306
668.0,0.307
669.0,0.3123
670.0,0.3113
671.0,0.3117
672.0,0.3093
673.0,0.3144
674.0,0.3135
675.0,0.3111
676.0,0.3135
677.0,0.3107
678.0,0.3119
679.0,0.3072
680.0,0.3098
681.0,0.3079
682.0,0.3076
683.0,0.3071
684.0,0.3055
685.0,0.3085
686.0,0.3062
687.0,0.124
688.0,0.1768
689.0,0.1786
690.0,0.1998
691.0,0.2255
692.0,0.2469
693.0,0.2443
694.0,0.245
695.0,0.2659
696.0,0.267
697.0,0.2953
698.0,0.2905
699.0,0.2751
700.0,0.2713
701.0,0.2649
702.0,0.2702
703.0,0.2718
704.0,0.2856
705.0,0.2859
706.0,0.2875
707.0,0.2886
708.0,0.289
709.0,0.293
710.0,0.291
711.0,0.292
712.0,0.2929
713.0,0.2882
714.0,0.2899
715.0,0.2771
716.0,0.2764
717.0,0.2098
718.0,0.1908
719.0,0.1725
720.0,0.1775
721.0,0.2123
722.0,0.261
723.0,0.2342
724.0,0.1999
725.0,0.1935
726.0,0.2032
727.0,0.2136
728.0,0.1917
729.0,0.209
730.0,0.2182
731.0,0.2072
732.0,0.2327
733.0,0.2561
734.0,0.2656
735.0,0.2582
736.0,0.2572
737.0,0.2585
738.0,0.2709
739.0,0.2659
740.0,0.2753
741.0,0.2741
742.0,0.276
743.0,0.2835
744.0,0.2837
745.0,0.2846
746.0,0.2859
747.0,0.2868
748.0,0.2863
749.0,0.2831
750.0,0.283
751.0,0.2802
752.0,0.2815
753.0,0.2831
754.0,0.2837
755.0,0.282
756.0,0.2821
757.0,0.2824
758.0,0.2787
759.0,0.2673
760.0,0.006508
761.0,0.002256
762.0,0.06227
763.0,0.01442
764.0,0.03328
765.0,0.06205
766.0,0.1021
767.0,0.1644
768.0,0.2257
769.0,0.2395
770.0,0.2583
771.0,0.2652
772.0,0.2673
773.0,0.2696
774.0,0.2686
775.0,0.2668
776.0,0.2702
777.0,0.2667
778.0,0.2651
779.0,0.2653
780.0,0.2639
781.0,0.2643
782.0,0.266
783.0,0.2615
784.0,0.263
785.0,0.2606
786.0,0.2631
787.0,0.2542
788.0,0.2491
789.0,0.249
790.0,0.2369
791.0,0.2445
792.0,0.2436
793.0,0.2391
794.0,0.2488
795.0,0.2514
796.0,0.2358
797.0,0.2353
798.0,0.2501
799.0,0.2471
800.0,0.241
801.0,0.2383
802.0,0.2374
803.0,0.2345
804.0,0.2358
805.0,0.2374
806.0,0.2482
807.0,0.2444
808.0,0.2448
809.0,0.2371
810.0,0.2334
811.0,0.2303
812.0,0.2175
813.0,0.2113
814.0,0.1726
815.0,0.1728
816.0,0.1588
817.0,0.1621
818.0,0.1531
819.0,0.1823
820.0,0.168
821.0,0.214
822.0,0.205
823.0,0.114
824.0,0.1921
825.0,0.2106
826.0,0.1965
827.0,0.2135
828.0,0.1638
829.0,0.1966
830.0,0.193
831.0,0.1935
832.0,0.1845
833.0,0.2039
834.0,0.1918
835.0,0.2236
836.0,0.2047
837.0,0.2242
838.0,0.2126
839.0,0.221
840.0,0.227
841.0,0.2219
842.0,0.2254
843.0,0.2286
844.0,0.2237
845.0,0.2335
846.0,0.2331
847.0,0.2297
848.0,0.2268
849.0,0.2204
850.0,0.2113
851.0,0.2222
852.0,0.2214
853.0,0.2142
854.0,0.184
855.0,0.2036
856.0,0.2219
857.0,0.2278
858.0,0.2256
859.0,0.2265
860.0,0.2274
861.0,0.226
862.0,0.2298
863.0,0.2352
864.0,0.2236
865.0,0.2217
866.0,0.1994
867.0,0.2081
868.0,0.2265
869.0,0.2219
870.0,0.2283
871.0,0.2251
872.0,0.2244
873.0,0.224
874.0,0.2214
875.0,0.2168
876.0,0.219
877.0,0.2213
878.0,0.2234
879.0,0.2201
880.0,0.2154
881.0,0.2114
882.0,0.2157
883.0,0.2172
884.0,0.2158
885.0,0.2174
886.0,0.2047
887.0,0.2089
888.0,0.2109
889.0,0.2154
890.0,0.2109
891.0,0.2119
892.0,0.2023
893.0,0.193
894.0,0.179
895.0,0.1606
896.0,0.1493
897.0,0.1191
898.0,0.134
899.0,0.09217
900.0,0.1432
901.0,0.09658
902.0,0.126
903.0,0.1224
904.0,0.1772
905.0,0.1684
906.0,0.1549
907.0,0.1103
908.0,0.116
909.0,0.1309
910.0,0.1052
911.0,0.1211
912.0,0.1263
913.0,0.1062
914.0,0.1077
915.0,0.1153
916.0,0.09651
917.0,0.1327
918.0,0.09789
919.0,0.1391
920.0,0.1496
921.0,0.1545
922.0,0.1302
923.0,0.1503
924.0,0.1306
925.0,0.1285
926.0,0.1281
927.0,0.151
928.0,0.08863
929.0,0.07546
930.0,0.05054
931.0,0.04744
932.0,0.02665
933.0,0.0189
934.0,0.005641
935.0,0.02134
936.0,0.009855
937.0,0.00996
938.0,0.01335
939.0,0.04571
940.0,0.06125
941.0,0.03875
942.0,0.04826
943.0,0.02643
944.0,0.03338
945.0,0.04164
946.0,0.01449
947.0,0.03991
948.0,0.02875
949.0,0.06097
950.0,0.008478
951.0,0.06047
952.0,0.02418
953.0,0.03666
954.0,0.05143
955.0,0.03788
956.0,0.04507
957.0,0.02397
958.0,0.0703
959.0,0.04672
960.0,0.0525
961.0,0.06623
962.0,0.06253
963.0,0.07881
964.0,0.07038
965.0,0.0778
966.0,0.07759
967.0,0.07603
968.0,0.1309
969.0,0.1315
970.0,0.1187
971.0,0.1489
972.0,0.1393
973.0,0.1083
974.0,0.1022
975.0,0.1097
976.0,0.09671
977.0,0.1262
978.0,0.1131
979.0,0.1218
980.0,0.113
981.0,0.1484
982.0,0.137
983.0,0.1291
984.0,0.1593
985.0,0.136
986.0,0.1663
987.0,0.1591
988.0,0.1591
989.0,0.1687
990.0,0.158
991.0,0.1686
992.0,0.1701
993.0,0.162
994.0,0.1706
995.0,0.1711
996.0,0.1696
997.0,0.1702
998.0,0.1691
999.0,0.1687
1000.0,0.1664
1001.0,0.1698
1002.0,0.1602
1003.0,0.1665
1004.0,0.1611
1005.0,0.157
1006.0,0.1623
1007.0,0.1661
1008.0,0.1644
1009.0,0.1625
1010.0,0.1614
1011.0,0.1654
1012.0,0.1631
1013.0,0.1653
1014.0,0.1641
1015.0,0.1629
1016.0,0.1621
1017.0,0.1623
1018.0,0.1623
1019.0,0.1569
1020.0,0.1611
1021.0,0.1613
1022.0,0.1593
1023.0,0.1609
1024.0,0.1569
1025.0,0.1614
1026.0,0.1602
1027.0,0.16
1028.0,0.1595
1029.0,0.1574
1030.0,0.1592
1031.0,0.1583
1032.0,0.158
1033.0,0.1556
1034.0,0.1557
1035.0,0.1561
1036.0,0.1567
1037.0,0.1543
1038.0,0.1549
1039.0,0.1546
1040.0,0.154
1041.0,0.1544
1042.0,0.1533
1043.0,0.1527
1044.0,0.1531
1045.0,0.151
1046.0,0.1492
1047.0,0.1504
1048.0,0.151
1049.0,0.1503
1050.0,0.1495
1051.0,0.1491
1052.0,0.1483
1053.0,0.1468
1054.0,0.1469
1055.0,0.1467
1056.0,0.1458
1057.0,0.1451
1058.0,0.1413
1059.0,0.1411
1060.0,0.1407
1061.0,0.1404
1062.0,0.1408
1063.0,0.1392
1064.0,0.1409
1065.0,0.1392
1066.0,0.137
1067.0,0.1386
1068.0,0.135
1069.0,0.1313
1070.0,0.1353
1071.0,0.1391
1072.0,0.1362
1073.0,0.1345
1074.0,0.1399
1075.0,0.1286
1076.0,0.1395
1077.0,0.1346
1078.0,0.1308
1079.0,0.1382
1080.0,0.1325
1081.0,0.1259
1082.0,0.1318
1083.0,0.1334
1084.0,0.1248
1085.0,0.1332
1086.0,0.1158
1087.0,0.1232
1088.0,0.1326
1089.0,0.1238
1090.0,0.1192
1091.0,0.131
1092.0,0.1313
1093.0,0.1003
1094.0,0.1187
1095.0,0.1047
1096.0,0.09743
1097.0,0.1284
1098.0,0.09407
1099.0,0.09961
1100.0,0.08877
1101.0,0.0915
1102.0,0.08434
1103.0,0.08143
1104.0,0.08192
1105.0,0.09633
1106.0,0.05803
1107.0,0.08873
1108.0,0.06586
1109.0,0.06713
1110.0,0.08545
1111.0,0.04553
1112.0,0.06714
1113.0,0.03167
1114.0,0.03558
1115.0,0.02844
1116.0,0.01776
1117.0,0.003188
1118.0,0.02018
1119.0,0.006562
1120.0,0.007697
1121.0,0.0117
1122.0,0.002735
1123.0,0.007055
1124.0,0.005909
1125.0,0.008552
1126.0,0.001127
1127.0,0.009837
1128.0,0.003519
1129.0,0.003893
1130.0,0.002369
1131.0,0.02702
1132.0,0.01934
1133.0,0.008063
1134.0,0.0008463
1135.0,0.0003918
1136.0,0.005515
1137.0,0.02484
1138.0,0.01646
1139.0,0.03591
1140.0,0.0255
1141.0,0.01581
1142.0,0.02001
1143.0,0.03376
1144.0,0.00732
1145.0,0.007682
1146.0,0.008255
1147.0,0.001225
1148.0,0.02817
1149.0,0.01951
1150.0,0.008995
1151.0,0.01638
1152.0,0.02369
1153.0,0.02613
1154.0,0.008022
1155.0,0.03738
1156.0,0.03117
1157.0,0.0409
1158.0,0.04024
1159.0,0.04566
1160.0,0.03764
1161.0,0.05368
1162.0,0.05302
1163.0,0.08648
1164.0,0.06898
1165.0,0.05991
1166.0,0.06402
1167.0,0.07218
1168.0,0.07202
1169.0,0.0749
1170.0,0.08618
1171.0,0.08402
1172.0,0.08897
1173.0,0.08611
1174.0,0.05149
1175.0,0.08739
1176.0,0.103
1177.0,0.09402
1178.0,0.06273
1179.0,0.1037
1180.0,0.08519
1181.0,0.0881
1182.0,0.05155
1183.0,0.08817
1184.0,0.07937
1185.0,0.07364
1186.0,0.09735
1187.0,0.08939
1188.0,0.05051
1189.0,0.08286
1190.0,0.09605
1191.0,0.08436
1192.0,0.09806
1193.0,0.09163
1194.0,0.09601
1195.0,0.08616
1196.0,0.08059
1197.0,0.09773
1198.0,0.08775
1199.0,0.06544
1200.0,0.09052
1201.0,0.08373
1202.0,0.08655
1203.0,0.08354
1204.0,0.06958
1205.0,0.09093
1206.0,0.1049
1207.0,0.08481
1208.0,0.08632
1209.0,0.08839
1210.0,0.09431
1211.0,0.08671
1212.0,0.08003
1213.0,0.09865
1214.0,0.08387
1215.0,0.08193
1216.0,0.09909
1217.0,0.09473
1218.0,0.09809
1219.0,0.09568
1220.0,0.0984
1221.0,0.1007
1222.0,0.09729
1223.0,0.09551
1224.0,0.09278
1225.0,0.09953
1226.0,0.1018
1227.0,0.08872
1228.0,0.1033
1229.0,0.1019
1230.0,0.09916
1231.0,0.1052
1232.0,0.1045
1233.0,0.09652
1234.0,0.1062
1235.0,0.1048
1236.0,0.1061
1237.0,0.103
1238.0,0.1058
1239.0,0.1044
1240.0,0.105
1241.0,0.1033
1242.0,0.1042
1243.0,0.1034
1244.0,0.1038
1245.0,0.1044
1246.0,0.1039
1247.0,0.1031
1248.0,0.1024
1249.0,0.1033
1250.0,0.1023
1251.0,0.1002
1252.0,0.1012
1253.0,0.09863
1254.0,0.09635
1255.0,0.1006
1256.0,0.0946
1257.0,0.09342
1258.0,0.09773
1259.0,0.08931
1260.0,0.09037
1261.0,0.07949
1262.0,0.07419
1263.0,0.07419
1264.0,0.06221
1265.0,0.07381
1266.0,0.06724
1267.0,0.07105
1268.0,0.06327
1269.0,0.02028
1270.0,0.06975
1271.0,0.08003
1272.0,0.08083
1273.0,0.07932
1274.0,0.08048
1275.0,0.08267
1276.0,0.08465
1277.0,0.0868
1278.0,0.09072
1279.0,0.08988
1280.0,0.08883
1281.0,0.08588
1282.0,0.0846
1283.0,0.09073
1284.0,0.09258
1285.0,0.09352
1286.0,0.09578
1287.0,0.09243
1288.0,0.09305
1289.0,0.0864
1290.0,0.09237
1291.0,0.09436
1292.0,0.08219
1293.0,0.09106
1294.0,0.09017
1295.0,0.08737
1296.0,0.07968
1297.0,0.07284
1298.0,0.0842
1299.0,0.09171
1300.0,0.06834
1301.0,0.07183
1302.0,0.0842
1303.0,0.06819
1304.0,0.05028
1305.0,0.08202
1306.0,0.08087
1307.0,0.0542
1308.0,0.06969
1309.0,0.0786
1310.0,0.05228
1311.0,0.06487
1312.0,0.06227
1313.0,0.05867
1314.0,0.04949
1315.0,0.0473
1316.0,0.06228
1317.0,0.05766
1318.0,0.06624
1319.0,0.04243
1320.0,0.04266
1321.0,0.05319
1322.0,0.05185
1323.0,0.03182
1324.0,0.04207
1325.0,0.05999
1326.0,0.04703
1327.0,0.04346
1328.0,0.03479
1329.0,0.02032
1330.0,0.02975
1331.0,0.01247
1332.0,0.01415
1333.0,0.0207
1334.0,0.0216
1335.0,0.03081
1336.0,0.02093
1337.0,0.01804
1338.0,0.01903
1339.0,0.01955
1340.0,0.02069
1341.0,0.01616
1342.0,0.0176
1343.0,0.007008
1344.0,0.004651
1345.0,0.006122
1346.0,0.001343
1347.0,0.001136
1348.0,1.771e-05
1349.0,8.157e-05
1350.0,9.963e-05
1351.0,7.953e-06
1352.0,1.064e-06
1353.0,5.041e-08
1354.0,1.863e-07
1355.0,1.362e-09
1356.0,2.444e-08
1357.0,3.707e-08
1358.0,1.6e-09
1359.0,2.011e-10
1360.0,7.273e-10
1361.0,8.131e-13
1362.0,2.224e-15
1363.0,9.774e-10
1364.0,4.036e-10
1365.0,7.765e-16
1366.0,4.236e-09
1367.0,1.73e-09
1368.0,5.996e-18
1369.0,1.487e-10
1370.0,7.322e-11
1371.0,4.151e-12
1372.0,9.386e-10
1373.0,1.902e-08
1374.0,9.021e-08
1375.0,1.611e-07
1376.0,1.604e-07
1377.0,7.189e-08
1378.0,6.929e-07
1379.0,3.058e-08
1380.0,4.044e-08
1381.0,1.048e-09
1382.0,8.223e-10
1383.0,1.229e-11
1384.0,1.611e-10
1385.0,7.741e-10
1386.0,7.246e-10
1387.0,8.812e-08
1388.0,1.773e-09
1389.0,3.111e-07
1390.0,2.631e-07
1391.0,1.757e-07
1392.0,1.153e-08
1393.0,6.343e-08
1394.0,3.001e-08
1395.0,2.195e-10
1396.0,1.058e-12
1397.0,2.415e-08
1398.0,7.207e-07
1399.0,4.623e-07
1400.0,4.526e-13
1401.0,1.878e-12
1402.0,2.732e-06
1403.0,2.54e-06
1404.0,6.674e-07
1405.0,1.038e-10
1406.0,1.374e-06
1407.0,2.004e-07
1408.0,1.162e-06
1409.0,3.345e-07
1410.0,3.286e-07
1411.0,2.351e-06
1412.0,4.489e-06
1413.0,0.0001139
1414.0,2.749e-07
1415.0,1.17e-07
1416.0,0.0005889
1417.0,9.072e-05
1418.0,5.484e-05
