interpolation:linear
wavelength,value
280.0,2.175e-21
280.5,6.875000000000001e-20
281.0,3.637e-19
281.5,3.976e-19
282.0,1.025e-18
282.5,2.653e-18
283.0,8.518e-18
283.5,1.391e-17
284.0,2.262e-16
284.5,6.534e-16
285.0,1.437e-15
285.5,6.913e-15
286.0,2.759e-14
286.5,1.215e-13
287.0,3.437e-13
287.5,1.301e-12
288.0,3.597e-12
288.5,1.173e-11
289.0,3.286e-11
289.5,1.029e-10
290.0,2.918e-10
290.5,6.038e-10
291.0,1.313e-09
291.5,3.816e-09
292.0,7.916e-09
292.5,1.178e-08
293.0,2.719e-08
293.5,7.299e-08
294.0,1.222e-07
294.5,1.584e-07
295.0,2.865e-07
295.5,7.131e-07
296.0,1.427e-06
296.5,2.08e-06
297.0,2.924e-06
297.5,8.359e-06
298.0,1.4e-05
298.5,1.482e-05
299.0,3.448e-05
299.5,6.336e-05
300.0,7.421e-05
300.5,0.0001153
301.0,0.0002367
301.5,0.0004334
302.0,0.0004037
302.5,0.0008016
303.0,0.001471
303.5,0.001878
304.0,0.001783
304.5,0.00273
305.0,0.004286
305.5,0.005014
306.0,0.004894
306.5,0.006176
307.0,0.009428
307.5,0.01287
308.0,0.01366
308.5,0.01633
309.0,0.01617
309.5,0.01877
310.0,0.01899
310.5,0.03087
311.0,0.03897
311.5,0.03771
312.0,0.03816
312.5,0.04679
313.0,0.05096
313.5,0.04932
314.0,0.06223
314.5,0.05584
315.0,0.07355
315.5,0.0612
316.0,0.05396
316.5,0.0781
317.0,0.09697
317.5,0.1007
318.0,0.07901
318.5,0.09908
319.0,0.1182
319.5,0.0956
320.0,0.1154
320.5,0.1459
321.0,0.131
321.5,0.1258
322.0,0.1329
322.5,0.1157
323.0,0.1159
323.5,0.1432
324.0,0.1673
324.5,0.1695
325.0,0.1461
325.5,0.1888
326.0,0.2311
326.5,0.2321
327.0,0.2312
327.5,0.2231
328.0,0.198
328.5,0.209
329.0,0.2511
329.5,0.2854
330.0,0.2878
330.5,0.2298
331.0,0.234
331.5,0.2383
332.0,0.2582
332.5,0.2558
333.0,0.2549
333.5,0.2303
334.0,0.236
334.5,0.2729
335.0,0.2569
335.5,0.3001
336.0,0.2077
336.5,0.2431
337.0,0.1993
337.5,0.2479
338.0,0.2426
338.5,0.2801
339.0,0.2774
339.5,0.2669
340.0,0.3137
340.5,0.2829
341.0,0.2759
341.5,0.2535
342.0,0.303
342.5,0.2836
343.0,0.312
343.5,0.2938
344.0,0.2172
344.5,0.2194
345.0,0.2905
345.5,0.2968
346.0,0.2523
346.5,0.2858
347.0,0.3069
347.5,0.2482
348.0,0.2831
348.5,0.2831
349.0,0.2627
349.5,0.2602
350.0,0.322
350.5,0.3397
351.0,0.3035
351.5,0.295
352.0,0.317
352.5,0.2475
353.0,0.3119
353.5,0.3336
354.0,0.3465
354.5,0.3514
355.0,0.3503
355.5,0.3166
356.0,0.3314
356.5,0.2831
357.0,0.2339
357.5,0.2864
358.0,0.2271
358.5,0.1941
359.0,0.2715
359.5,0.3461
360.0,0.367
360.5,0.2934
361.0,0.2676
361.5,0.3083
362.0,0.2668
362.5,0.3694
363.0,0.3319
363.5,0.3059
364.0,0.3742
364.5,0.32
365.0,0.326
365.5,0.4093
366.0,0.4338
366.5,0.4078
367.0,0.3973
367.5,0.4124
368.0,0.361
368.5,0.3644
369.0,0.3937
369.5,0.4198
370.0,0.4477
370.5,0.3476
371.0,0.3715
371.5,0.465
372.0,0.3087
372.5,0.3702
373.0,0.3768
373.5,0.2452
374.0,0.3565
374.5,0.2953
375.0,0.2872
375.5,0.4288
376.0,0.3556
376.5,0.3686
377.0,0.3904
377.5,0.4569
378.0,0.4954
378.5,0.4684
379.0,0.3866
379.5,0.3532
380.0,0.3673
380.5,0.4451
381.0,0.4462
381.5,0.3539
382.0,0.3144
382.5,0.2682
383.0,0.2484
383.5,0.2393
384.0,0.2641
384.5,0.3885
385.0,0.3854
385.5,0.3591
386.0,0.3077
386.5,0.4043
387.0,0.3361
387.5,0.3776
388.0,0.3487
388.5,0.3448
389.0,0.3723
389.5,0.4511
390.0,0.4529
390.5,0.4169
391.0,0.491
391.5,0.5009
392.0,0.422
392.5,0.378
393.0,0.2104
393.5,0.153
394.0,0.3114
394.5,0.3961
395.0,0.4834
395.5,0.4912
396.0,0.426
396.5,0.2491
397.0,0.187
397.5,0.3805
398.0,0.5329
398.5,0.5509
399.0,0.5969
399.5,0.5951
400.0,0.618
401.0,0.6262
402.0,0.6611
403.0,0.6284
404.0,0.619
405.0,0.6192
406.0,0.6096
407.0,0.6001
408.0,0.6237
409.0,0.6679
410.0,0.5839
411.0,0.6328
412.0,0.6801
413.0,0.6635
414.0,0.672
415.0,0.6741
416.0,0.6863
417.0,0.6697
418.0,0.6576
419.0,0.6665
420.0,0.6639
421.0,0.6948
422.0,0.6606
423.0,0.6456
424.0,0.683
425.0,0.6821
426.0,0.6648
427.0,0.6526
428.0,0.6359
429.0,0.6027
430.0,0.5277
431.0,0.5231
432.0,0.6757
433.0,0.6797
434.0,0.6313
435.0,0.6594
436.0,0.7434
437.0,0.7338
438.0,0.6684
439.0,0.6912
440.0,0.7135
441.0,0.7397
442.0,0.7935
443.0,0.7729
444.0,0.79
445.0,0.7729
446.0,0.7381
447.0,0.7983
448.0,0.8107
449.0,0.8143
450.0,0.8374
451.0,0.8686
452.0,0.8371
453.0,0.7876
454.0,0.8225
455.0,0.8277
456.0,0.8475
457.0,0.8617
458.0,0.8322
459.0,0.8281
460.0,0.8303
461.0,0.8496
462.0,0.8564
463.0,0.8505
464.0,0.8369
465.0,0.8267
466.0,0.835
467.0,0.8197
468.0,0.8294
469.0,0.8338
470.0,0.8072
471.0,0.8063
472.0,0.8496
473.0,0.8386
474.0,0.8396
475.0,0.8466
476.0,0.821
477.0,0.8231
478.0,0.8461
479.0,0.8412
480.0,0.843
481.0,0.859
482.0,0.8638
483.0,0.8538
484.0,0.8365
485.0,0.7971
486.0,0.6971
487.0,0.7307
488.0,0.8017
489.0,0.8041
490.0,0.8461
491.0,0.8317
492.0,0.7855
493.0,0.8113
494.0,0.8195
495.0,0.8265
496.0,0.8316
497.0,0.8445
498.0,0.805
499.0,0.8152
500.0,0.7913
501.0,0.7766
502.0,0.7654
503.0,0.7961
504.0,0.7748
505.0,0.8035
506.0,0.8294
507.0,0.7893
508.0,0.7651
509.0,0.7868
510.0,0.7829
511.0,0.8041
512.0,0.813
513.0,0.7695
514.0,0.7644
515.0,0.7568
516.0,0.7549
517.0,0.6708
518.0,0.7052
519.0,0.7397
520.0,0.7666
521.0,0.7738
522.0,0.7744
523.0,0.7604
524.0,0.7874
525.0,0.7964
526.0,0.7607
527.0,0.7166
528.0,0.7577
529.0,0.7985
530.0,0.787
531.0,0.7985
532.0,0.7711
533.0,0.7485
534.0,0.7707
535.0,0.7877
536.0,0.795
537.0,0.7638
538.0,0.7774
539.0,0.7708
540.0,0.739
541.0,0.7435
542.0,0.7666
543.0,0.7588
544.0,0.7717
545.0,0.7694
546.0,0.7725
547.0,0.7724
548.0,0.7633
549.0,0.7657
550.0,0.7748
551.0,0.7655
552.0,0.7708
553.0,0.757
554.0,0.775
555.0,0.7765
556.0,0.7664
557.0,0.7424
558.0,0.7367
559.0,0.7227
560.0,0.7316
561.0,0.7409
562.0,0.7354
563.0,0.7552
564.0,0.7344
565.0,0.7279
566.0,0.7171
567.0,0.7304
568.0,0.7233
569.0,0.7049
570.0,0.7049
571.0,0.701
572.0,0.717
573.0,0.7245
574.0,0.722
575.0,0.7083
576.0,0.7018
577.0,0.7096
578.0,0.6993
579.0,0.7026
580.0,0.7168
581.0,0.7212
582.0,0.7354
583.0,0.7377
584.0,0.7444
585.0,0.7264
586.0,0.7115
587.0,0.7267
588.0,0.7075
589.0,0.6239
590.0,0.6527
591.0,0.6925
592.0,0.6827
593.0,0.6941
594.0,0.6887
595.0,0.6707
596.0,0.6995
597.0,0.6914
598.0,0.6903
599.0,0.6913
600.0,0.6929
601.0,0.6877
602.0,0.6831
603.0,0.6946
604.0,0.7062
605.0,0.7027
606.0,0.7001
607.0,0.7073
608.0,0.6997
609.0,0.7012
610.0,0.6964
611.0,0.7002
612.0,0.6983
613.0,0.6897
614.0,0.6805
615.0,0.6955
616.0,0.6728
617.0,0.6715
618.0,0.6975
619.0,0.6905
620.0,0.6949
621.0,0.6953
622.0,0.687
623.0,0.6764
624.0,0.6649
625.0,0.6635
626.0,0.6732
627.0,0.6802
628.0,0.6286
629.0,0.6618
630.0,0.6463
631.0,0.6632
632.0,0.6557
633.0,0.6765
634.0,0.6707
635.0,0.6815
636.0,0.6729
637.0,0.6843
638.0,0.6913
639.0,0.6839
640.0,0.6775
641.0,0.6773
642.0,0.6745
643.0,0.6836
644.0,0.6817
645.0,0.6827
646.0,0.6659
647.0,0.6562
648.0,0.6567
649.0,0.6438
650.0,0.6493
651.0,0.6779
652.0,0.6472
653.0,0.669
654.0,0.6618
655.0,0.6359
656.0,0.5645
657.0,0.5798
658.0,0.6505
659.0,0.6555
660.0,0.6584
661.0,0.663
662.0,0.6639
663.0,0.651
664.0,0.6594
665.0,0.6604
666.0,0.6611
667.0,0.6608
668.0,0.6613
669.0,0.6717
670.0,0.6689
671.0,0.6689
672.0,0.6633
673.0,0.6734
674.0,0.671
675.0,0.665
676.0,0.6696
677.0,0.6631
678.0,0.6651
679.0,0.6544
680.0,0.6597
681.0,0.6554
682.0,0.6546
683.0,0.6533
684.0,0.6501
685.0,0.6557
686.0,0.6517
687.0,0.4041
688.0,0.4868
689.0,0.489
690.0,0.5175
691.0,0.5499
692.0,0.5742
693.0,0.5691
694.0,0.5646
695.0,0.5915
696.0,0.5924
697.0,0.633
698.0,0.623
699.0,0.6053
700.0,0.5979
701.0,0.5908
702.0,0.596
703.0,0.5972
704.0,0.6181
705.0,0.619
706.0,0.6191
707.0,0.6198
708.0,0.6211
709.0,0.6231
710.0,0.6225
711.0,0.622
712.0,0.6207
713.0,0.6139
714.0,0.6164
715.0,0.5958
716.0,0.5959
717.0,0.5063
718.0,0.4637
719.0,0.4238
720.0,0.443
721.0,0.4953
722.0,0.5734
723.0,0.5304
724.0,0.4738
725.0,0.4648
726.0,0.4871
727.0,0.4966
728.0,0.4631
729.0,0.4842
730.0,0.512
731.0,0.4889
732.0,0.5269
733.0,0.5614
734.0,0.5758
735.0,0.5634
736.0,0.5626
737.0,0.5648
738.0,0.5761
739.0,0.5648
740.0,0.5803
741.0,0.575
742.0,0.576
743.0,0.5908
744.0,0.5895
745.0,0.5898
746.0,0.5925
747.0,0.5939
748.0,0.5927
749.0,0.5859
750.0,0.5856
751.0,0.5797
752.0,0.5822
753.0,0.5852
754.0,0.5865
755.0,0.5832
756.0,0.583
757.0,0.5838
758.0,0.5765
759.0,0.5631
760.0,0.06905
761.0,0.03244
762.0,0.2576
763.0,0.1136
764.0,0.1836
765.0,0.2575
766.0,0.3301
767.0,0.4312
768.0,0.51
769.0,0.5235
770.0,0.5445
771.0,0.5503
772.0,0.5519
773.0,0.5559
774.0,0.5533
775.0,0.5492
776.0,0.5559
777.0,0.5486
778.0,0.5453
779.0,0.5457
780.0,0.5427
781.0,0.5433
782.0,0.5467
783.0,0.5372
784.0,0.5398
785.0,0.5357
786.0,0.5415
787.0,0.5308
788.0,0.5236
789.0,0.5233
790.0,0.5075
791.0,0.5137
792.0,0.5102
793.0,0.5017
794.0,0.5122
795.0,0.5203
796.0,0.5018
797.0,0.5023
798.0,0.5194
799.0,0.5156
800.0,0.5061
801.0,0.5039
802.0,0.5025
803.0,0.4984
804.0,0.4993
805.0,0.4985
806.0,0.5137
807.0,0.5072
808.0,0.5078
809.0,0.4974
810.0,0.4927
811.0,0.4919
812.0,0.4762
813.0,0.4654
814.0,0.4041
815.0,0.4019
816.0,0.3734
817.0,0.3807
818.0,0.3653
819.0,0.413
820.0,0.3872
821.0,0.4591
822.0,0.4449
823.0,0.2924
824.0,0.4296
825.0,0.451
826.0,0.4319
827.0,0.4579
828.0,0.3821
829.0,0.4297
830.0,0.4234
831.0,0.4251
832.0,0.4109
833.0,0.4402
834.0,0.4226
835.0,0.4687
836.0,0.4457
837.0,0.4702
838.0,0.4541
839.0,0.4634
840.0,0.4739
841.0,0.4666
842.0,0.4685
843.0,0.4693
844.0,0.4622
845.0,0.4786
846.0,0.4766
847.0,0.468
848.0,0.4647
849.0,0.4515
850.0,0.4326
851.0,0.4576
852.0,0.4546
853.0,0.4379
854.0,0.3778
855.0,0.4155
856.0,0.4539
857.0,0.4643
858.0,0.4608
859.0,0.4614
860.0,0.4623
861.0,0.4598
862.0,0.4671
863.0,0.4781
864.0,0.4542
865.0,0.4503
866.0,0.4049
867.0,0.4225
868.0,0.4598
869.0,0.4503
870.0,0.4632
871.0,0.4568
872.0,0.4553
873.0,0.4543
874.0,0.4489
875.0,0.4398
876.0,0.4444
877.0,0.4489
878.0,0.4537
879.0,0.4467
880.0,0.4372
881.0,0.4304
882.0,0.4396
883.0,0.4412
884.0,0.4391
885.0,0.4424
886.0,0.4208
887.0,0.4259
888.0,0.4318
889.0,0.4375
890.0,0.4329
891.0,0.4326
892.0,0.4189
893.0,0.4045
894.0,0.3876
895.0,0.3629
896.0,0.3408
897.0,0.2886
898.0,0.3171
899.0,0.2364
900.0,0.3273
901.0,0.2478
902.0,0.2973
903.0,0.2981
904.0,0.3847
905.0,0.3701
906.0,0.3453
907.0,0.274
908.0,0.2805
909.0,0.3068
910.0,0.266
911.0,0.287
912.0,0.3009
913.0,0.2697
914.0,0.2684
915.0,0.2909
916.0,0.2451
917.0,0.3166
918.0,0.251
919.0,0.324
920.0,0.3306
921.0,0.3441
922.0,0.3037
923.0,0.3327
924.0,0.3106
925.0,0.304
926.0,0.3069
927.0,0.3475
928.0,0.2438
929.0,0.2195
930.0,0.1677
931.0,0.1594
932.0,0.1098
933.0,0.08687
934.0,0.04264
935.0,0.09087
936.0,0.05351
937.0,0.05394
938.0,0.06756
939.0,0.1544
940.0,0.1893
941.0,0.1381
942.0,0.1627
943.0,0.1033
944.0,0.1124
945.0,0.1434
946.0,0.06805
947.0,0.1427
948.0,0.1042
949.0,0.1959
950.0,0.04726
951.0,0.1938
952.0,0.09771
953.0,0.1304
954.0,0.1647
955.0,0.1324
956.0,0.132
957.0,0.09734
958.0,0.1932
959.0,0.1479
960.0,0.1658
961.0,0.1905
962.0,0.1798
963.0,0.2111
964.0,0.1922
965.0,0.2105
966.0,0.2097
967.0,0.2084
968.0,0.2934
969.0,0.3049
970.0,0.2784
971.0,0.3249
972.0,0.3095
973.0,0.2633
974.0,0.2491
975.0,0.2609
976.0,0.2443
977.0,0.2849
978.0,0.2678
979.0,0.2824
980.0,0.2644
981.0,0.3232
982.0,0.3067
983.0,0.2932
984.0,0.3357
985.0,0.3056
986.0,0.3432
987.0,0.3346
988.0,0.3341
989.0,0.3432
990.0,0.332
991.0,0.344
992.0,0.3462
993.0,0.3366
994.0,0.3463
995.0,0.3461
996.0,0.3443
997.0,0.345
998.0,0.3432
999.0,0.342
1000.0,0.3392
1001.0,0.3439
1002.0,0.3327
1003.0,0.3377
1004.0,0.329
1005.0,0.3176
1006.0,0.3297
1007.0,0.3368
1008.0,0.3347
1009.0,0.3325
1010.0,0.3309
1011.0,0.3352
1012.0,0.3319
1013.0,0.3345
1014.0,0.3321
1015.0,0.3299
1016.0,0.3283
1017.0,0.3291
1018.0,0.3281
1019.0,0.3204
1020.0,0.3263
1021.0,0.3259
1022.0,0.3231
1023.0,0.3265
1024.0,0.3216
1025.0,0.3265
1026.0,0.325
1027.0,0.3243
1028.0,0.3235
1029.0,0.3196
1030.0,0.3221
1031.0,0.3207
1032.0,0.3198
1033.0,0.315
1034.0,0.315
1035.0,0.316
1036.0,0.3176
1037.0,0.3124
1038.0,0.3138
1039.0,0.3136
1040.0,0.3123
1041.0,0.3135
1042.0,0.3113
1043.0,0.3103
1044.0,0.3113
1045.0,0.307
1046.0,0.3036
1047.0,0.3063
1048.0,0.3079
1049.0,0.3067
1050.0,0.3053
1051.0,0.3048
1052.0,0.3035
1053.0,0.301
1054.0,0.3015
1055.0,0.3016
1056.0,0.3004
1057.0,0.2994
1058.0,0.2919
1059.0,0.2921
1060.0,0.2916
1061.0,0.2912
1062.0,0.2926
1063.0,0.2897
1064.0,0.2931
1065.0,0.2907
1066.0,0.2852
1067.0,0.2888
1068.0,0.2823
1069.0,0.2738
1070.0,0.2829
1071.0,0.2879
1072.0,0.2841
1073.0,0.2801
1074.0,0.288
1075.0,0.2717
1076.0,0.2877
1077.0,0.2815
1078.0,0.2757
1079.0,0.2834
1080.0,0.2772
1081.0,0.2674
1082.0,0.2732
1083.0,0.2745
1084.0,0.2663
1085.0,0.278
1086.0,0.2509
1087.0,0.2609
1088.0,0.2739
1089.0,0.2637
1090.0,0.2568
1091.0,0.2725
1092.0,0.2722
1093.0,0.2257
1094.0,0.2484
1095.0,0.2357
1096.0,0.2242
1097.0,0.2659
1098.0,0.2201
1099.0,0.2304
1100.0,0.212
1101.0,0.2154
1102.0,0.2043
1103.0,0.2013
1104.0,0.2017
1105.0,0.2246
1106.0,0.1635
1107.0,0.2117
1108.0,0.1745
1109.0,0.1758
1110.0,0.2091
1111.0,0.1353
1112.0,0.1748
1113.0,0.1047
1114.0,0.1175
1115.0,0.09709
1116.0,0.07371
1117.0,0.02327
1118.0,0.08138
1119.0,0.03714
1120.0,0.04643
1121.0,0.0635
1122.0,0.02402
1123.0,0.0421
1124.0,0.03549
1125.0,0.0471
1126.0,0.01378
1127.0,0.05338
1128.0,0.02901
1129.0,0.03115
1130.0,0.01959
1131.0,0.1086
1132.0,0.08381
1133.0,0.0491
1134.0,0.01054
1135.0,0.004077
1136.0,0.03957
1137.0,0.1053
1138.0,0.07343
1139.0,0.1177
1140.0,0.09519
1141.0,0.06986
1142.0,0.08195
1143.0,0.1198
1144.0,0.03807
1145.0,0.04742
1146.0,0.05109
1147.0,0.01532
1148.0,0.1034
1149.0,0.08021
1150.0,0.04148
1151.0,0.07283
1152.0,0.09248
1153.0,0.09232
1154.0,0.04576
1155.0,0.1226
1156.0,0.1088
1157.0,0.1249
1158.0,0.1235
1159.0,0.1352
1160.0,0.1135
1161.0,0.1443
1162.0,0.1447
1163.0,0.203
1164.0,0.1714
1165.0,0.159
1166.0,0.1599
1167.0,0.1755
1168.0,0.1768
1169.0,0.1819
1170.0,0.1999
1171.0,0.1947
1172.0,0.1996
1173.0,0.1995
1174.0,0.1372
1175.0,0.196
1176.0,0.2183
1177.0,0.2077
1178.0,0.152
1179.0,0.2201
1180.0,0.1934
1181.0,0.1998
1182.0,0.1336
1183.0,0.1974
1184.0,0.1835
1185.0,0.1758
1186.0,0.2127
1187.0,0.2013
1188.0,0.1352
1189.0,0.1873
1190.0,0.2081
1191.0,0.1951
1192.0,0.2113
1193.0,0.2016
1194.0,0.2083
1195.0,0.1953
1196.0,0.1871
1197.0,0.2093
1198.0,0.1904
1199.0,0.1584
1200.0,0.1989
1201.0,0.1906
1202.0,0.1904
1203.0,0.1884
1204.0,0.1631
1205.0,0.1959
1206.0,0.2183
1207.0,0.1895
1208.0,0.1876
1209.0,0.1917
1210.0,0.2005
1211.0,0.1896
1212.0,0.1856
1213.0,0.2102
1214.0,0.1908
1215.0,0.1869
1216.0,0.2097
1217.0,0.2035
1218.0,0.2079
1219.0,0.205
1220.0,0.2082
1221.0,0.2107
1222.0,0.2049
1223.0,0.2027
1224.0,0.2008
1225.0,0.2092
1226.0,0.2111
1227.0,0.193
1228.0,0.2126
1229.0,0.2111
1230.0,0.2072
1231.0,0.2143
1232.0,0.2129
1233.0,0.2041
1234.0,0.2144
1235.0,0.2128
1236.0,0.2145
1237.0,0.2109
1238.0,0.2138
1239.0,0.2111
1240.0,0.2119
1241.0,0.2106
1242.0,0.2104
1243.0,0.2088
1244.0,0.2101
1245.0,0.2111
1246.0,0.2099
1247.0,0.209
1248.0,0.2086
1249.0,0.2094
1250.0,0.2081
1251.0,0.2052
1252.0,0.2055
1253.0,0.2033
1254.0,0.2009
1255.0,0.2051
1256.0,0.1984
1257.0,0.1971
1258.0,0.2016
1259.0,0.1928
1260.0,0.194
1261.0,0.1812
1262.0,0.1748
1263.0,0.1751
1264.0,0.1594
1265.0,0.174
1266.0,0.1661
1267.0,0.17
1268.0,0.1597
1269.0,0.0899
1270.0,0.169
1271.0,0.1809
1272.0,0.1817
1273.0,0.1795
1274.0,0.1804
1275.0,0.1833
1276.0,0.1855
1277.0,0.1872
1278.0,0.1915
1279.0,0.1897
1280.0,0.1874
1281.0,0.1791
1282.0,0.1732
1283.0,0.1864
1284.0,0.1908
1285.0,0.1921
1286.0,0.195
1287.0,0.1914
1288.0,0.1915
1289.0,0.1843
1290.0,0.1899
1291.0,0.1928
1292.0,0.179
1293.0,0.1885
1294.0,0.1871
1295.0,0.1856
1296.0,0.1758
1297.0,0.1653
1298.0,0.1801
1299.0,0.189
1300.0,0.1564
1301.0,0.1619
1302.0,0.1795
1303.0,0.1547
1304.0,0.1286
1305.0,0.1756
1306.0,0.1754
1307.0,0.1326
1308.0,0.1555
1309.0,0.1736
1310.0,0.1299
1311.0,0.1483
1312.0,0.1438
1313.0,0.1403
1314.0,0.1244
1315.0,0.122
1316.0,0.1454
1317.0,0.1373
1318.0,0.1506
1319.0,0.1136
1320.0,0.111
1321.0,0.1307
1322.0,0.1313
1323.0,0.09542
1324.0,0.1116
1325.0,0.143
1326.0,0.1206
1327.0,0.1144
1328.0,0.09755
1329.0,0.07029
1330.0,0.09301
1331.0,0.05273
1332.0,0.05556
1333.0,0.07806
1334.0,0.06803
1335.0,0.09492
1336.0,0.0732
1337.0,0.06393
1338.0,0.0691
1339.0,0.06929
1340.0,0.06837
1341.0,0.06449
1342.0,0.06796
1343.0,0.04183
1344.0,0.02539
1345.0,0.03664
1346.0,0.01577
1347.0,0.01562
1348.0,0.0007361
1349.0,0.002882
1350.0,0.003184
1351.0,0.0005779
1352.0,0.0001108
1353.0,4.103e-06
1354.0,1.774e-05
1355.0,7.088e-08
1356.0,1.97e-06
1357.0,3.014e-06
1358.0,8.64e-08
1359.0,6.331e-09
1360.0,3.26e-08
1361.0,1.213e-11
1362.0,2.193e-14
1363.0,3.601e-08
1364.0,1.504e-08
1365.0,4.369e-15
1366.0,1.813e-07
1367.0,8.476e-08
1368.0,1.39e-17
1369.0,5.521e-09
1370.0,2.166e-09
1371.0,9.541e-11
1372.0,4.711e-08
1373.0,1.353e-06
1374.0,8.059e-06
1375.0,1.416e-05
1376.0,1.621e-05
1377.0,7.063e-06
1378.0,7.524e-05
1379.0,2.968e-06
1380.0,3.62e-06
1381.0,8.362e-08
1382.0,3.971e-08
1383.0,5.02e-10
1384.0,5.658e-09
1385.0,4.927e-08
1386.0,2.994e-08
1387.0,7.006e-06
1388.0,1.456e-07
1389.0,3.194e-05
1390.0,2.708e-05
1391.0,1.737e-05
1392.0,1.068e-06
1393.0,6.441e-06
1394.0,2.172e-06
1395.0,1.248e-08
1396.0,2.025e-11
1397.0,2.329e-06
1398.0,8.165e-05
1399.0,5.252e-05
1400.0,6.502e-12
1401.0,4.048e-11
1402.0,0.000212
1403.0,0.0002476
1404.0,7.294e-05
1405.0,4.987e-09
1406.0,0.0001674
1407.0,1.671e-05
1408.0,0.0001403
1409.0,3.833e-05
1410.0,3.6e-05
1411.0,0.0002211
1412.0,0.0003293
1413.0,0.004457
1414.0,2.925e-05
1415.0,1.281e-05
1416.0,0.008866
1417.0,0.002228
1418.0,0.00241
1419.0,0.0003578
1420.0,0.001462
1421.0,0.001622
1422.0,0.01165
1423.0,0.002151
1424.0,0.004174
1425.0,0.005872
1426.0,0.007273
1427.0,0.0147
1428.0,0.0006701
1429.0,0.01029
1430.0,0.0194
1431.0,0.02179
1432.0,0.0005203
1433.0,0.01323
1434.0,0.006422
1435.0,0.005404
