interpolation:linear
wavelength,value
280.0,4.506e-21
280.5,1.394e-19
281.0,7.321e-19
281.5,4.799e-19
282.0,1.279e-18
282.5,3.309e-18
283.0,1.058e-17
283.5,1.724e-17
284.0,2.753e-16
284.5,7.887e-16
285.0,1.697e-15
285.5,8.452e-15
286.0,3.399e-14
286.5,1.507e-13
287.0,4.272e-13
287.5,1.616e-12
288.0,4.177e-12
288.5,1.426e-11
289.0,4.138e-11
289.5,1.335e-10
290.0,3.862e-10
290.5,8.109e-10
291.0,1.795e-09
291.5,5.754e-09
292.0,1.255e-08
292.5,1.925e-08
293.0,4.628e-08
293.5,1.321e-07
294.0,2.319e-07
294.5,3.016e-07
295.0,5.739e-07
295.5,1.558e-06
296.0,3.119e-06
296.5,4.54e-06
297.0,6.361e-06
297.5,1.803e-05
298.0,2.987e-05
298.5,3.131e-05
299.0,7.198e-05
299.5,0.0001289
300.0,0.0001486
300.5,0.0002264
301.0,0.0004486
301.5,0.0007887
302.0,0.0007163
302.5,0.001403
303.0,0.002528
303.5,0.003189
304.0,0.002998
304.5,0.004477
305.0,0.006784
305.5,0.007763
306.0,0.007512
306.5,0.009345
307.0,0.01383
307.5,0.01832
308.0,0.01934
308.5,0.0228
309.0,0.02238
309.5,0.02551
310.0,0.02558
310.5,0.0414
311.0,0.05189
311.5,0.05006
312.0,0.04987
312.5,0.06053
313.0,0.06557
313.5,0.06377
314.0,0.07947
314.5,0.07014
315.0,0.09211
315.5,0.07725
316.0,0.06721
316.5,0.09618
317.0,0.1194
317.5,0.1244
318.0,0.09685
318.5,0.1197
319.0,0.1417
319.5,0.116
320.0,0.1402
320.5,0.1746
321.0,0.1547
321.5,0.1483
322.0,0.1589
322.5,0.1382
323.0,0.1372
323.5,0.1681
324.0,0.1961
324.5,0.1994
325.0,0.1726
325.5,0.2214
326.0,0.2705
326.5,0.2703
327.0,0.2697
327.5,0.2608
328.0,0.2329
328.5,0.244
329.0,0.2913
329.5,0.3304
330.0,0.3336
330.5,0.2676
331.0,0.2729
331.5,0.277
332.0,0.2985
332.5,0.295
333.0,0.2944
333.5,0.267
334.0,0.2736
334.5,0.3151
335.0,0.2958
335.5,0.3455
336.0,0.2391
336.5,0.2802
337.0,0.2302
337.5,0.2864
338.0,0.2792
338.5,0.3223
339.0,0.319
339.5,0.307
340.0,0.3608
340.5,0.3253
341.0,0.3172
341.5,0.2913
342.0,0.3482
342.5,0.3259
343.0,0.3584
343.5,0.3376
344.0,0.2495
344.5,0.2521
345.0,0.3336
345.5,0.3407
346.0,0.2896
346.5,0.328
347.0,0.3522
347.5,0.2848
348.0,0.3248
348.5,0.3247
349.0,0.3013
349.5,0.2984
350.0,0.3691
350.5,0.3894
351.0,0.348
351.5,0.3382
352.0,0.3634
352.5,0.2836
353.0,0.3573
353.5,0.3822
354.0,0.3968
354.5,0.4025
355.0,0.4012
355.5,0.3626
356.0,0.3794
356.5,0.324
357.0,0.2678
357.5,0.3279
358.0,0.2599
358.5,0.2221
359.0,0.3107
359.5,0.396
360.0,0.4199
360.5,0.3357
361.0,0.3061
361.5,0.3526
362.0,0.305
362.5,0.4222
363.0,0.3793
363.5,0.3495
364.0,0.4276
364.5,0.3655
365.0,0.3724
365.5,0.4675
366.0,0.4954
366.5,0.4656
367.0,0.4535
367.5,0.4708
368.0,0.4121
368.5,0.4159
369.0,0.4492
369.5,0.4789
370.0,0.5107
370.5,0.3965
371.0,0.4237
371.5,0.5302
372.0,0.352
372.5,0.4221
373.0,0.4295
373.5,0.2795
374.0,0.4063
374.5,0.3366
375.0,0.3272
375.5,0.4886
376.0,0.4051
376.5,0.4199
377.0,0.4447
377.5,0.5204
378.0,0.5642
378.5,0.5334
379.0,0.4402
379.5,0.4022
380.0,0.4182
380.5,0.5067
381.0,0.5079
381.5,0.4027
382.0,0.3578
382.5,0.3051
383.0,0.2825
383.5,0.2722
384.0,0.3003
384.5,0.4418
385.0,0.4382
385.5,0.4082
386.0,0.3497
386.5,0.4595
387.0,0.3819
387.5,0.4291
388.0,0.3962
388.5,0.3918
389.0,0.423
389.5,0.5124
390.0,0.5144
390.5,0.4735
391.0,0.5575
391.5,0.5687
392.0,0.4791
392.5,0.429
393.0,0.2388
393.5,0.1736
394.0,0.3534
394.5,0.4494
395.0,0.5484
395.5,0.5572
396.0,0.4832
396.5,0.2826
397.0,0.2121
397.5,0.4314
398.0,0.6042
398.5,0.6247
399.0,0.6766
399.5,0.6745
400.0,0.7005
401.0,0.7104
402.0,0.7498
403.0,0.7126
404.0,0.7019
405.0,0.702
406.0,0.6909
407.0,0.68
408.0,0.7067
409.0,0.7566
410.0,0.6613
411.0,0.7166
412.0,0.7699
413.0,0.751
414.0,0.7605
415.0,0.7627
416.0,0.7763
417.0,0.7574
418.0,0.7436
419.0,0.7536
420.0,0.7505
421.0,0.7853
422.0,0.7466
423.0,0.7295
424.0,0.7717
425.0,0.7705
426.0,0.7508
427.0,0.7369
428.0,0.718
429.0,0.6803
430.0,0.5955
431.0,0.5903
432.0,0.7624
433.0,0.7668
434.0,0.7121
435.0,0.7438
436.0,0.8383
437.0,0.8272
438.0,0.7535
439.0,0.7793
440.0,0.8043
441.0,0.8336
442.0,0.8941
443.0,0.8709
444.0,0.89
445.0,0.8708
446.0,0.8313
447.0,0.8989
448.0,0.9129
449.0,0.9167
450.0,0.9425
451.0,0.9776
452.0,0.942
453.0,0.8861
454.0,0.9252
455.0,0.931
456.0,0.9532
457.0,0.9692
458.0,0.9361
459.0,0.9314
460.0,0.9339
461.0,0.9555
462.0,0.963
463.0,0.9564
464.0,0.9408
465.0,0.929
466.0,0.9382
467.0,0.921
468.0,0.9319
469.0,0.9368
470.0,0.907
471.0,0.9059
472.0,0.9545
473.0,0.9422
474.0,0.9435
475.0,0.9515
476.0,0.923
477.0,0.9255
478.0,0.9513
479.0,0.9456
480.0,0.9475
481.0,0.9653
482.0,0.9704
483.0,0.9588
484.0,0.9392
485.0,0.8949
486.0,0.7824
487.0,0.8201
488.0,0.8997
489.0,0.9025
490.0,0.9495
491.0,0.9332
492.0,0.8813
493.0,0.9102
494.0,0.9194
495.0,0.9272
496.0,0.9329
497.0,0.9474
498.0,0.9031
499.0,0.9147
500.0,0.888
501.0,0.8716
502.0,0.8593
503.0,0.8941
504.0,0.8711
505.0,0.9026
506.0,0.9317
507.0,0.8866
508.0,0.8591
509.0,0.8833
510.0,0.8787
511.0,0.9023
512.0,0.9122
513.0,0.8634
514.0,0.8575
515.0,0.849
516.0,0.8469
517.0,0.7526
518.0,0.7912
519.0,0.8299
520.0,0.86
521.0,0.8682
522.0,0.8689
523.0,0.8533
524.0,0.8837
525.0,0.8941
526.0,0.8541
527.0,0.8047
528.0,0.851
529.0,0.897
530.0,0.8841
531.0,0.8972
532.0,0.8663
533.0,0.8409
534.0,0.8658
535.0,0.8848
536.0,0.8929
537.0,0.8578
538.0,0.8729
539.0,0.8656
540.0,0.8299
541.0,0.8353
542.0,0.8614
543.0,0.8524
544.0,0.8671
545.0,0.8644
546.0,0.8681
547.0,0.8678
548.0,0.8575
549.0,0.8601
550.0,0.8704
551.0,0.8598
552.0,0.8658
553.0,0.8503
554.0,0.8706
555.0,0.8723
556.0,0.861
557.0,0.8342
558.0,0.8278
559.0,0.8123
560.0,0.8224
561.0,0.833
562.0,0.8269
563.0,0.8494
564.0,0.8262
565.0,0.819
566.0,0.8069
567.0,0.8221
568.0,0.8146
569.0,0.7948
570.0,0.7946
571.0,0.79
572.0,0.8086
573.0,0.8172
574.0,0.8146
575.0,0.7992
576.0,0.792
577.0,0.8006
578.0,0.7887
579.0,0.7921
580.0,0.8075
581.0,0.8119
582.0,0.8274
583.0,0.8296
584.0,0.837
585.0,0.8166
586.0,0.7998
587.0,0.8172
588.0,0.7968
589.0,0.7048
590.0,0.7372
591.0,0.7807
592.0,0.7705
593.0,0.7824
594.0,0.7767
595.0,0.7572
596.0,0.7879
597.0,0.7792
598.0,0.7774
599.0,0.7782
600.0,0.7796
601.0,0.7734
602.0,0.7682
603.0,0.781
604.0,0.794
605.0,0.7899
606.0,0.7868
607.0,0.7947
608.0,0.786
609.0,0.7874
610.0,0.7819
611.0,0.786
612.0,0.7838
613.0,0.774
614.0,0.7635
615.0,0.7802
616.0,0.7546
617.0,0.7531
618.0,0.7821
619.0,0.7742
620.0,0.7791
621.0,0.7798
622.0,0.7706
623.0,0.7588
624.0,0.7458
625.0,0.7442
626.0,0.7552
627.0,0.7634
628.0,0.7104
629.0,0.7445
630.0,0.7272
631.0,0.7445
632.0,0.7357
633.0,0.7585
634.0,0.7514
635.0,0.7632
636.0,0.7533
637.0,0.7658
638.0,0.7733
639.0,0.7648
640.0,0.7575
641.0,0.7571
642.0,0.7537
643.0,0.7639
644.0,0.7615
645.0,0.7627
646.0,0.7446
647.0,0.735
648.0,0.7357
649.0,0.7214
650.0,0.7258
651.0,0.7574
652.0,0.7249
653.0,0.7474
654.0,0.7392
655.0,0.7112
656.0,0.6306
657.0,0.6477
658.0,0.7261
659.0,0.7314
660.0,0.7345
661.0,0.7397
662.0,0.741
663.0,0.7265
664.0,0.7353
665.0,0.7361
666.0,0.7368
667.0,0.7362
668.0,0.7366
669.0,0.7481
670.0,0.7449
671.0,0.7448
672.0,0.7384
673.0,0.7496
674.0,0.7468
675.0,0.7401
676.0,0.7452
677.0,0.7378
678.0,0.74
679.0,0.728
680.0,0.7339
681.0,0.7291
682.0,0.7281
683.0,0.7268
684.0,0.7231
685.0,0.7294
686.0,0.725
687.0,0.47
688.0,0.5562
689.0,0.5584
690.0,0.5875
691.0,0.6204
692.0,0.6446
693.0,0.6392
694.0,0.6339
695.0,0.6615
696.0,0.6625
697.0,0.7047
698.0,0.6937
699.0,0.676
700.0,0.6678
701.0,0.6607
702.0,0.6657
703.0,0.6669
704.0,0.689
705.0,0.69
706.0,0.6897
707.0,0.6903
708.0,0.6917
709.0,0.6931
710.0,0.6929
711.0,0.6921
712.0,0.6902
713.0,0.6831
714.0,0.6857
715.0,0.6636
716.0,0.6639
717.0,0.5717
718.0,0.5245
719.0,0.48
720.0,0.5025
721.0,0.5572
722.0,0.6402
723.0,0.5946
724.0,0.5341
725.0,0.5249
726.0,0.5498
727.0,0.5586
728.0,0.5234
729.0,0.5445
730.0,0.5761
731.0,0.5508
732.0,0.5907
733.0,0.6268
734.0,0.6421
735.0,0.6286
736.0,0.6278
737.0,0.6302
738.0,0.641
739.0,0.6283
740.0,0.645
741.0,0.6388
742.0,0.6396
743.0,0.6559
744.0,0.6542
745.0,0.6544
746.0,0.6574
747.0,0.6589
748.0,0.6575
749.0,0.65
750.0,0.6496
751.0,0.643
752.0,0.6458
753.0,0.6491
754.0,0.6506
755.0,0.6469
756.0,0.6466
757.0,0.6475
758.0,0.6395
759.0,0.6258
760.0,0.09306
761.0,0.04681
762.0,0.3071
763.0,0.1463
764.0,0.2261
765.0,0.3071
766.0,0.3832
767.0,0.49
768.0,0.5708
769.0,0.584
770.0,0.6052
771.0,0.6107
772.0,0.6121
773.0,0.6165
774.0,0.6135
775.0,0.6089
776.0,0.6163
777.0,0.6082
778.0,0.6045
779.0,0.605
780.0,0.6016
781.0,0.6023
782.0,0.606
783.0,0.5955
784.0,0.5984
785.0,0.5939
786.0,0.6004
787.0,0.5894
788.0,0.5818
789.0,0.5815
790.0,0.5653
791.0,0.5709
792.0,0.5668
793.0,0.5576
794.0,0.5679
795.0,0.5773
796.0,0.5585
797.0,0.5592
798.0,0.5765
799.0,0.5726
800.0,0.5624
801.0,0.5604
802.0,0.5588
803.0,0.5544
804.0,0.5553
805.0,0.5539
806.0,0.5699
807.0,0.5629
808.0,0.5635
809.0,0.5525
810.0,0.5478
811.0,0.5479
812.0,0.5315
813.0,0.52
814.0,0.4552
815.0,0.4525
816.0,0.4209
817.0,0.4288
818.0,0.4123
819.0,0.4629
820.0,0.4352
821.0,0.5115
822.0,0.4964
823.0,0.3331
824.0,0.481
825.0,0.5026
826.0,0.4826
827.0,0.5103
828.0,0.4299
829.0,0.4799
830.0,0.4733
831.0,0.475
832.0,0.46
833.0,0.4907
834.0,0.4725
835.0,0.521
836.0,0.4974
837.0,0.5226
838.0,0.5057
839.0,0.5148
840.0,0.5263
841.0,0.5185
842.0,0.5201
843.0,0.5202
844.0,0.5127
845.0,0.5304
846.0,0.5281
847.0,0.5185
848.0,0.515
849.0,0.5004
850.0,0.4794
851.0,0.5074
852.0,0.5039
853.0,0.4852
854.0,0.4188
855.0,0.4604
856.0,0.503
857.0,0.5144
858.0,0.5105
859.0,0.511
860.0,0.512
861.0,0.5092
862.0,0.5172
863.0,0.5295
864.0,0.503
865.0,0.4986
866.0,0.4483
867.0,0.4679
868.0,0.5091
869.0,0.4986
870.0,0.5128
871.0,0.5058
872.0,0.5041
873.0,0.5031
874.0,0.4971
875.0,0.487
876.0,0.492
877.0,0.497
878.0,0.5024
879.0,0.4947
880.0,0.4841
881.0,0.4767
882.0,0.4869
883.0,0.4886
884.0,0.4863
885.0,0.49
886.0,0.4666
887.0,0.4718
888.0,0.4786
889.0,0.4844
890.0,0.4799
891.0,0.4793
892.0,0.4649
893.0,0.4496
894.0,0.4324
895.0,0.4069
896.0,0.3826
897.0,0.3265
898.0,0.3575
899.0,0.2692
900.0,0.3674
901.0,0.2822
902.0,0.3348
903.0,0.3369
904.0,0.4292
905.0,0.4137
906.0,0.3866
907.0,0.3106
908.0,0.3173
909.0,0.3453
910.0,0.3024
911.0,0.3243
912.0,0.3395
913.0,0.3068
914.0,0.3048
915.0,0.3304
916.0,0.279
917.0,0.3572
918.0,0.2859
919.0,0.3645
920.0,0.37
921.0,0.385
922.0,0.342
923.0,0.3721
924.0,0.3502
925.0,0.3427
926.0,0.3462
927.0,0.3898
928.0,0.2797
929.0,0.2536
930.0,0.1964
931.0,0.1865
932.0,0.1313
933.0,0.1052
934.0,0.05455
935.0,0.1089
936.0,0.066
937.0,0.06668
938.0,0.08279
939.0,0.1806
940.0,0.2194
941.0,0.1628
942.0,0.1902
943.0,0.1228
944.0,0.1315
945.0,0.1684
946.0,0.08265
947.0,0.1683
948.0,0.1233
949.0,0.2284
950.0,0.05888
951.0,0.2254
952.0,0.1171
953.0,0.1539
954.0,0.1917
955.0,0.156
956.0,0.1533
957.0,0.1169
958.0,0.2213
959.0,0.1724
960.0,0.1932
961.0,0.2196
962.0,0.2074
963.0,0.2415
964.0,0.2205
965.0,0.2408
966.0,0.2402
967.0,0.239
968.0,0.3288
969.0,0.3426
970.0,0.3136
971.0,0.3626
972.0,0.3462
973.0,0.2977
974.0,0.282
975.0,0.2942
976.0,0.2773
977.0,0.3196
978.0,0.3019
979.0,0.3174
980.0,0.2977
981.0,0.3607
982.0,0.3435
983.0,0.329
984.0,0.3732
985.0,0.3422
986.0,0.3807
987.0,0.3721
988.0,0.3715
989.0,0.3801
990.0,0.3693
991.0,0.3811
992.0,0.3835
993.0,0.3738
994.0,0.3835
995.0,0.3831
996.0,0.3813
997.0,0.3819
998.0,0.3801
999.0,0.3787
1000.0,0.3758
1001.0,0.3808
1002.0,0.3692
1003.0,0.374
1004.0,0.3645
1005.0,0.3516
1006.0,0.3651
1007.0,0.373
1008.0,0.3707
1009.0,0.3685
1010.0,0.3669
1011.0,0.3711
1012.0,0.3677
1013.0,0.3703
1014.0,0.3677
1015.0,0.3652
1016.0,0.3635
1017.0,0.3644
1018.0,0.3632
1019.0,0.355
1020.0,0.3612
1021.0,0.3608
1022.0,0.3578
1023.0,0.3616
1024.0,0.3565
1025.0,0.3615
1026.0,0.3598
1027.0,0.359
1028.0,0.3582
1029.0,0.354
1030.0,0.3565
1031.0,0.355
1032.0,0.3541
1033.0,0.3487
1034.0,0.3487
1035.0,0.3498
1036.0,0.3516
1037.0,0.3459
1038.0,0.3474
1039.0,0.3472
1040.0,0.3458
1041.0,0.3471
1042.0,0.3447
1043.0,0.3436
1044.0,0.3448
1045.0,0.3401
1046.0,0.3363
1047.0,0.3393
1048.0,0.3411
1049.0,0.3398
1050.0,0.3382
1051.0,0.3377
1052.0,0.3363
1053.0,0.3336
1054.0,0.3343
1055.0,0.3344
1056.0,0.3331
1057.0,0.332
1058.0,0.3238
1059.0,0.3241
1060.0,0.3236
1061.0,0.3232
1062.0,0.3248
1063.0,0.3215
1064.0,0.3254
1065.0,0.3229
1066.0,0.3166
1067.0,0.3206
1068.0,0.3135
1069.0,0.3039
1070.0,0.3141
1071.0,0.3194
1072.0,0.3154
1073.0,0.3109
1074.0,0.3194
1075.0,0.3023
1076.0,0.3191
1077.0,0.3127
1078.0,0.3065
1079.0,0.3142
1080.0,0.3079
1081.0,0.2975
1082.0,0.3032
1083.0,0.3044
1084.0,0.2965
1085.0,0.3087
1086.0,0.2801
1087.0,0.2903
1088.0,0.3039
1089.0,0.2935
1090.0,0.2864
1091.0,0.3026
1092.0,0.3021
1093.0,0.2531
1094.0,0.276
1095.0,0.264
1096.0,0.2519
1097.0,0.2951
1098.0,0.2476
1099.0,0.2588
1100.0,0.2392
1101.0,0.2426
1102.0,0.2309
1103.0,0.2281
1104.0,0.2284
1105.0,0.2526
1106.0,0.1881
1107.0,0.2389
1108.0,0.1995
1109.0,0.2004
1110.0,0.2363
1111.0,0.1563
1112.0,0.1991
1113.0,0.1226
1114.0,0.1374
1115.0,0.1137
1116.0,0.08834
1117.0,0.02988
1118.0,0.09693
1119.0,0.04596
1120.0,0.05767
1121.0,0.07782
1122.0,0.03092
1123.0,0.05221
1124.0,0.04404
1125.0,0.05798
1126.0,0.01839
1127.0,0.06557
1128.0,0.03724
1129.0,0.03978
1130.0,0.02549
1131.0,0.1292
1132.0,0.1005
1133.0,0.06101
1134.0,0.01417
1135.0,0.005397
1136.0,0.04996
1137.0,0.126
1138.0,0.08828
1139.0,0.1369
1140.0,0.1124
1141.0,0.08394
1142.0,0.09761
1143.0,0.1408
1144.0,0.04669
1145.0,0.0589
1146.0,0.06349
1147.0,0.02049
1148.0,0.1217
1149.0,0.09563
1150.0,0.05051
1151.0,0.08757
1152.0,0.1096
1153.0,0.1083
1154.0,0.05687
1155.0,0.1427
1156.0,0.1275
1157.0,0.1448
1158.0,0.1432
1159.0,0.1557
1160.0,0.1317
1161.0,0.1651
1162.0,0.1657
1163.0,0.2282
1164.0,0.1941
1165.0,0.1816
1166.0,0.1815
1167.0,0.1985
1168.0,0.2003
1169.0,0.2056
1170.0,0.2247
1171.0,0.2189
1172.0,0.2237
1173.0,0.2242
1174.0,0.1571
1175.0,0.2196
1176.0,0.2429
1177.0,0.2322
1178.0,0.1722
1179.0,0.245
1180.0,0.217
1181.0,0.224
1182.0,0.1522
1183.0,0.221
1184.0,0.2063
1185.0,0.1984
1186.0,0.2375
1187.0,0.2255
1188.0,0.1545
1189.0,0.2099
1190.0,0.2322
1191.0,0.2192
1192.0,0.2356
1193.0,0.2253
1194.0,0.2325
1195.0,0.219
1196.0,0.2104
1197.0,0.233
1198.0,0.2127
1199.0,0.179
1200.0,0.2224
1201.0,0.2138
1202.0,0.2131
1203.0,0.2111
1204.0,0.1837
1205.0,0.2186
1206.0,0.2424
1207.0,0.2123
1208.0,0.2095
1209.0,0.2139
1210.0,0.2233
1211.0,0.212
1212.0,0.2086
1213.0,0.234
1214.0,0.2139
1215.0,0.2097
1216.0,0.2333
1217.0,0.2268
1218.0,0.2314
1219.0,0.2283
1220.0,0.2316
1221.0,0.2341
1222.0,0.2279
1223.0,0.2256
1224.0,0.2239
1225.0,0.2326
1226.0,0.2344
1227.0,0.2154
1228.0,0.2357
1229.0,0.2344
1230.0,0.2303
1231.0,0.2373
1232.0,0.2359
1233.0,0.2271
1234.0,0.2373
1235.0,0.2357
1236.0,0.2375
1237.0,0.2339
1238.0,0.2367
1239.0,0.2336
1240.0,0.2346
1241.0,0.2333
1242.0,0.2329
1243.0,0.231
1244.0,0.2326
1245.0,0.2337
1246.0,0.2323
1247.0,0.2314
1248.0,0.2311
1249.0,0.2319
1250.0,0.2305
1251.0,0.2274
1252.0,0.2276
1253.0,0.2255
1254.0,0.223
1255.0,0.2273
1256.0,0.2204
1257.0,0.2191
1258.0,0.2236
1259.0,0.2148
1260.0,0.216
1261.0,0.203
1262.0,0.1964
1263.0,0.1968
1264.0,0.1806
1265.0,0.1955
1266.0,0.1875
1267.0,0.1913
1268.0,0.1807
1269.0,0.1075
1270.0,0.1904
1271.0,0.2024
1272.0,0.2032
1273.0,0.2009
1274.0,0.2017
1275.0,0.2048
1276.0,0.2069
1277.0,0.2085
1278.0,0.2129
1279.0,0.211
1280.0,0.2083
1281.0,0.1989
1282.0,0.1919
1283.0,0.2067
1284.0,0.2116
1285.0,0.213
1286.0,0.216
1287.0,0.2124
1288.0,0.2124
1289.0,0.2052
1290.0,0.2106
1291.0,0.2137
1292.0,0.1997
1293.0,0.2093
1294.0,0.2077
1295.0,0.2064
1296.0,0.1964
1297.0,0.1853
1298.0,0.2005
1299.0,0.2096
1300.0,0.1757
1301.0,0.1814
1302.0,0.1999
1303.0,0.1736
1304.0,0.1463
1305.0,0.1956
1306.0,0.1955
1307.0,0.1501
1308.0,0.1741
1309.0,0.1938
1310.0,0.1471
1311.0,0.1665
1312.0,0.1617
1313.0,0.1583
1314.0,0.1411
1315.0,0.1388
1316.0,0.1636
1317.0,0.1548
1318.0,0.1689
1319.0,0.1299
1320.0,0.1264
1321.0,0.1479
1322.0,0.149
1323.0,0.1103
1324.0,0.1275
1325.0,0.1611
1326.0,0.1371
1327.0,0.1305
1328.0,0.1119
1329.0,0.08244
1330.0,0.1081
1331.0,0.06333
1332.0,0.06605
1333.0,0.09237
1334.0,0.07926
1335.0,0.1099
1336.0,0.08584
1337.0,0.0754
1338.0,0.08158
1339.0,0.0815
1340.0,0.07982
1341.0,0.07666
1342.0,0.08065
1343.0,0.05211
1344.0,0.03138
1345.0,0.04534
1346.0,0.02099
1347.0,0.02107
1348.0,0.001167
1349.0,0.004382
1350.0,0.004697
1351.0,0.0009891
1352.0,0.0002273
1353.0,9.883e-06
1354.0,3.8e-05
1355.0,2.178e-07
1356.0,4.78e-06
1357.0,7.306e-06
1358.0,2.616e-07
1359.0,2.541e-08
1360.0,1.091e-07
1361.0,7.076e-11
1362.0,1.552e-13
1363.0,1.353e-07
1364.0,5.578e-08
1365.0,4.03e-14
1366.0,6.34e-07
1367.0,2.744e-07
1368.0,1.744e-16
1369.0,2.062e-08
1370.0,9.113e-09
1371.0,4.548e-10
1372.0,1.515e-07
1373.0,3.64e-06
1374.0,1.909e-05
1375.0,3.433e-05
1376.0,3.444e-05
1377.0,1.538e-05
1378.0,0.000158
1379.0,6.45e-06
1380.0,8.604e-06
1381.0,2.104e-07
1382.0,1.323e-07
1383.0,1.812e-09
1384.0,2.228e-08
1385.0,1.422e-07
1386.0,1.09e-07
1387.0,1.831e-05
1388.0,3.653e-07
1389.0,7.139e-05
1390.0,6.115e-05
1391.0,3.989e-05
1392.0,2.508e-06
1393.0,1.42e-05
1394.0,6.003e-06
1395.0,3.877e-08
1396.0,1.099e-10
1397.0,5.392e-06
1398.0,0.0001749
1399.0,0.0001115
1400.0,4.102e-11
1401.0,2.085e-10
1402.0,0.00037
1403.0,0.0004496
1404.0,0.0001349
1405.0,1.717e-08
1406.0,0.0003314
1407.0,3.075e-05
1408.0,0.000274
1409.0,8.325e-05
1410.0,7.158e-05
1411.0,0.0003981
1412.0,0.0005637
1413.0,0.006692
1414.0,5.725e-05
1415.0,2.624e-05
1416.0,0.01211
1417.0,0.003306
1418.0,0.003685
1419.0,0.0005575
1420.0,0.002243
1421.0,0.002444
1422.0,0.01589
1423.0,0.002989
1424.0,0.005707
1425.0,0.008211
1426.0,0.009767
1427.0,0.01897
1428.0,0.00108
1429.0,0.01367
1430.0,0.02464
1431.0,0.02742
1432.0,0.0008433
1433.0,0.01697
1434.0,0.008401
1435.0,0.007619
1436.0,0.0159
1437.0,0.01221
1438.0,0.00483
