interpolation:linear
wavelength,value
280.0,1.341e-21
280.5,4.292e-20
281.0,2.279e-19
281.5,4.99e-19
282.0,9.884e-19
282.5,2.478e-18
283.0,7.837e-18
283.5,1.274e-17
284.0,2.061e-16
284.5,5.955e-16
285.0,1.219e-15
285.5,5.855e-15
286.0,2.337e-14
286.5,1.032e-13
287.0,2.924e-13
287.5,1.11e-12
288.0,3.313e-12
288.5,1.048e-11
289.0,2.87e-11
289.5,8.837e-11
290.0,2.48e-10
290.5,5.093e-10
291.0,1.1e-09
291.5,3.172e-09
292.0,6.449e-09
292.5,9.402e-09
293.0,2.112e-08
293.5,5.455e-08
294.0,8.877e-08
294.5,1.162e-07
295.0,2.039e-07
295.5,4.86e-07
296.0,8.913e-07
296.5,1.293e-06
297.0,1.811e-06
297.5,5.156e-06
298.0,8.62e-06
298.5,9.125e-06
299.0,2.125e-05
299.5,3.925e-05
300.0,4.616e-05
300.5,7.208e-05
301.0,0.0001496
301.5,0.000277
302.0,0.0002596
302.5,0.0005195
303.0,0.0009639
303.5,0.001241
304.0,0.001187
304.5,0.001851
305.0,0.002984
305.5,0.003551
306.0,0.003488
306.5,0.004451
307.0,0.006962
307.5,0.009733
308.0,0.01037
308.5,0.01255
309.0,0.01253
309.5,0.01477
310.0,0.01505
310.5,0.02454
311.0,0.03116
311.5,0.03023
312.0,0.03097
312.5,0.0383
313.0,0.04189
313.5,0.04038
314.0,0.05146
314.5,0.04678
315.0,0.06176
315.5,0.05107
316.0,0.04551
316.5,0.06648
317.0,0.08253
317.5,0.08549
318.0,0.06748
318.5,0.08565
319.0,0.1028
319.5,0.08234
320.0,0.09926
320.5,0.127
321.0,0.1153
321.5,0.1108
322.0,0.1157
322.5,0.1008
323.0,0.1018
323.5,0.1266
324.0,0.1481
324.5,0.1496
325.0,0.1285
325.5,0.1671
326.0,0.2048
326.5,0.2066
327.0,0.2054
327.5,0.1978
328.0,0.1747
328.5,0.1856
329.0,0.2241
329.5,0.2551
330.0,0.2569
330.5,0.2044
331.0,0.2078
331.5,0.2123
332.0,0.231
332.5,0.2293
333.0,0.2283
333.5,0.2056
334.0,0.2106
334.5,0.2444
335.0,0.2305
335.5,0.2694
336.0,0.1865
336.5,0.218
337.0,0.1785
337.5,0.2219
338.0,0.2178
338.5,0.2516
339.0,0.2492
339.5,0.2398
340.0,0.2817
340.5,0.2541
341.0,0.248
341.5,0.2278
342.0,0.2724
342.5,0.255
343.0,0.2805
343.5,0.2641
344.0,0.1952
344.5,0.1972
345.0,0.2613
345.5,0.267
346.0,0.227
346.5,0.2572
347.0,0.2761
347.5,0.2233
348.0,0.2548
348.5,0.2548
349.0,0.2365
349.5,0.2343
350.0,0.2899
350.5,0.3059
351.0,0.2733
351.5,0.2656
352.0,0.2855
352.5,0.2229
353.0,0.281
353.5,0.3006
354.0,0.3122
354.5,0.3167
355.0,0.3157
355.5,0.2854
356.0,0.2987
356.5,0.2552
357.0,0.2109
357.5,0.2582
358.0,0.2047
358.5,0.175
359.0,0.2449
359.5,0.3121
360.0,0.3309
360.5,0.2646
361.0,0.2414
361.5,0.2781
362.0,0.2407
362.5,0.3333
363.0,0.2996
363.5,0.2761
364.0,0.3378
364.5,0.2889
365.0,0.2943
365.5,0.3696
366.0,0.3918
366.5,0.3683
367.0,0.3588
367.5,0.3725
368.0,0.3261
368.5,0.3292
369.0,0.3557
369.5,0.3793
370.0,0.4045
370.5,0.3141
371.0,0.3358
371.5,0.4203
372.0,0.279
372.5,0.3347
373.0,0.3407
373.5,0.2218
374.0,0.3224
374.5,0.2671
375.0,0.2597
375.5,0.3879
376.0,0.3217
376.5,0.3334
377.0,0.3532
377.5,0.4134
378.0,0.4482
378.5,0.4238
379.0,0.3498
379.5,0.3196
380.0,0.3324
380.5,0.4028
381.0,0.4039
381.5,0.3204
382.0,0.2847
382.5,0.2428
383.0,0.2249
383.5,0.2167
384.0,0.2392
384.5,0.352
385.0,0.3492
385.5,0.3254
386.0,0.2788
386.5,0.3664
387.0,0.3046
387.5,0.3422
388.0,0.3161
388.5,0.3126
389.0,0.3375
389.5,0.409
390.0,0.4106
390.5,0.3781
391.0,0.4452
391.5,0.4543
392.0,0.3827
392.5,0.3428
393.0,0.1908
393.5,0.1388
394.0,0.2825
394.5,0.3594
395.0,0.4386
395.5,0.4457
396.0,0.3866
396.5,0.2261
397.0,0.1698
397.5,0.3454
398.0,0.4837
398.5,0.5002
399.0,0.542
399.5,0.5404
400.0,0.5612
401.0,0.5682
402.0,0.5999
403.0,0.5704
404.0,0.562
405.0,0.5622
406.0,0.5536
407.0,0.5451
408.0,0.5666
409.0,0.6068
410.0,0.5306
411.0,0.5751
412.0,0.6182
413.0,0.6031
414.0,0.6109
415.0,0.613
416.0,0.6242
417.0,0.6091
418.0,0.5982
419.0,0.6064
420.0,0.604
421.0,0.6323
422.0,0.6013
423.0,0.5877
424.0,0.6218
425.0,0.621
426.0,0.6054
427.0,0.5944
428.0,0.5792
429.0,0.5491
430.0,0.4808
431.0,0.4766
432.0,0.6158
433.0,0.6195
434.0,0.5754
435.0,0.6011
436.0,0.6778
437.0,0.6691
438.0,0.6096
439.0,0.6303
440.0,0.6508
441.0,0.6747
442.0,0.7239
443.0,0.705
444.0,0.7207
445.0,0.7052
446.0,0.6736
447.0,0.7287
448.0,0.7399
449.0,0.7435
450.0,0.7646
451.0,0.7932
452.0,0.7645
453.0,0.7193
454.0,0.7513
455.0,0.7561
456.0,0.7743
457.0,0.7873
458.0,0.7603
459.0,0.7566
460.0,0.7586
461.0,0.7762
462.0,0.7825
463.0,0.7772
464.0,0.7649
465.0,0.7557
466.0,0.7634
467.0,0.7494
468.0,0.7583
469.0,0.7623
470.0,0.738
471.0,0.7372
472.0,0.7768
473.0,0.7668
474.0,0.7676
475.0,0.7739
476.0,0.7504
477.0,0.7522
478.0,0.7732
479.0,0.7688
480.0,0.7706
481.0,0.7854
482.0,0.79
483.0,0.7809
484.0,0.7652
485.0,0.7293
486.0,0.6379
487.0,0.6688
488.0,0.7337
489.0,0.7359
490.0,0.7744
491.0,0.7613
492.0,0.719
493.0,0.7426
494.0,0.7502
495.0,0.7566
496.0,0.7613
497.0,0.7731
498.0,0.7369
499.0,0.7462
500.0,0.7243
501.0,0.7107
502.0,0.7002
503.0,0.7282
504.0,0.708
505.0,0.7348
506.0,0.7585
507.0,0.7218
508.0,0.6998
509.0,0.7199
510.0,0.7164
511.0,0.736
512.0,0.7441
513.0,0.7044
514.0,0.6997
515.0,0.6928
516.0,0.691
517.0,0.6141
518.0,0.6456
519.0,0.6772
520.0,0.7017
521.0,0.7083
522.0,0.7088
523.0,0.696
524.0,0.7206
525.0,0.7287
526.0,0.696
527.0,0.6555
528.0,0.693
529.0,0.7302
530.0,0.7196
531.0,0.7301
532.0,0.705
533.0,0.6843
534.0,0.7047
535.0,0.7203
536.0,0.7271
537.0,0.6986
538.0,0.711
539.0,0.705
540.0,0.6759
541.0,0.6799
542.0,0.7009
543.0,0.6939
544.0,0.7056
545.0,0.7035
546.0,0.7062
547.0,0.7062
548.0,0.6979
549.0,0.7002
550.0,0.7085
551.0,0.7
552.0,0.7049
553.0,0.6922
554.0,0.7087
555.0,0.71
556.0,0.7007
557.0,0.6788
558.0,0.6734
559.0,0.6606
560.0,0.6687
561.0,0.6771
562.0,0.6719
563.0,0.6899
564.0,0.6708
565.0,0.6648
566.0,0.6548
567.0,0.6668
568.0,0.66
569.0,0.6426
570.0,0.6427
571.0,0.6393
572.0,0.6535
573.0,0.6603
574.0,0.6579
575.0,0.6452
576.0,0.6394
577.0,0.6465
578.0,0.6373
579.0,0.6406
580.0,0.654
581.0,0.6583
582.0,0.6716
583.0,0.6739
584.0,0.6802
585.0,0.6639
586.0,0.6503
587.0,0.664
588.0,0.6457
589.0,0.568
590.0,0.5943
591.0,0.6314
592.0,0.6219
593.0,0.633
594.0,0.6278
595.0,0.6108
596.0,0.6383
597.0,0.6305
598.0,0.6299
599.0,0.631
600.0,0.6328
601.0,0.6282
602.0,0.6241
603.0,0.6347
604.0,0.6454
605.0,0.6422
606.0,0.64
607.0,0.6467
608.0,0.6399
609.0,0.6413
610.0,0.6371
611.0,0.6406
612.0,0.639
613.0,0.6311
614.0,0.6228
615.0,0.6367
616.0,0.616
617.0,0.6149
618.0,0.6387
619.0,0.6324
620.0,0.6364
621.0,0.6367
622.0,0.629
623.0,0.6192
624.0,0.6088
625.0,0.6074
626.0,0.6164
627.0,0.6225
628.0,0.572
629.0,0.6045
630.0,0.5903
631.0,0.6068
632.0,0.6001
633.0,0.6197
634.0,0.6147
635.0,0.6248
636.0,0.6171
637.0,0.6276
638.0,0.6344
639.0,0.6277
640.0,0.622
641.0,0.6219
642.0,0.6195
643.0,0.6279
644.0,0.6263
645.0,0.627
646.0,0.6113
647.0,0.6015
648.0,0.6019
649.0,0.59
650.0,0.5962
651.0,0.6227
652.0,0.5933
653.0,0.6146
654.0,0.608
655.0,0.5836
656.0,0.5185
657.0,0.5326
658.0,0.5979
659.0,0.6027
660.0,0.6054
661.0,0.6097
662.0,0.6103
663.0,0.5985
664.0,0.6066
665.0,0.6078
666.0,0.6086
667.0,0.6084
668.0,0.609
669.0,0.6187
670.0,0.6161
671.0,0.6162
672.0,0.611
673.0,0.6204
674.0,0.6182
675.0,0.6128
676.0,0.6171
677.0,0.6111
678.0,0.613
679.0,0.6032
680.0,0.6081
681.0,0.6041
682.0,0.6034
683.0,0.6022
684.0,0.5992
685.0,0.6045
686.0,0.6008
687.0,0.3591
688.0,0.439
689.0,0.4412
690.0,0.4692
691.0,0.5011
692.0,0.5253
693.0,0.5205
694.0,0.5166
695.0,0.5429
696.0,0.5438
697.0,0.5831
698.0,0.5739
699.0,0.5562
700.0,0.5493
701.0,0.5423
702.0,0.5476
703.0,0.5488
704.0,0.5688
705.0,0.5696
706.0,0.5701
707.0,0.5709
708.0,0.572
709.0,0.5744
710.0,0.5736
711.0,0.5733
712.0,0.5723
713.0,0.5659
714.0,0.5682
715.0,0.5487
716.0,0.5486
717.0,0.4613
718.0,0.4219
719.0,0.3852
720.0,0.4022
721.0,0.4526
722.0,0.527
723.0,0.4859
724.0,0.4322
725.0,0.4234
726.0,0.4439
727.0,0.4538
728.0,0.4216
729.0,0.4426
730.0,0.4677
731.0,0.4462
732.0,0.4827
733.0,0.5161
734.0,0.5299
735.0,0.5181
736.0,0.5173
737.0,0.5194
738.0,0.5311
739.0,0.5206
740.0,0.5353
741.0,0.5306
742.0,0.5318
743.0,0.5456
744.0,0.5445
745.0,0.5449
746.0,0.5474
747.0,0.5487
748.0,0.5476
749.0,0.5414
750.0,0.5411
751.0,0.5356
752.0,0.538
753.0,0.5407
754.0,0.5419
755.0,0.5389
756.0,0.5387
757.0,0.5394
758.0,0.5327
759.0,0.5195
760.0,0.05443
761.0,0.02421
762.0,0.2243
763.0,0.09292
764.0,0.1557
765.0,0.2242
766.0,0.2937
767.0,0.3906
768.0,0.4678
769.0,0.4815
770.0,0.5023
771.0,0.5084
772.0,0.5101
773.0,0.5138
774.0,0.5114
775.0,0.5076
776.0,0.5139
777.0,0.5071
778.0,0.504
779.0,0.5045
780.0,0.5017
781.0,0.5022
782.0,0.5054
783.0,0.4966
784.0,0.4991
785.0,0.4952
786.0,0.5006
787.0,0.49
788.0,0.4831
789.0,0.4828
790.0,0.4674
791.0,0.4739
792.0,0.4708
793.0,0.4629
794.0,0.4734
795.0,0.4807
796.0,0.4625
797.0,0.4629
798.0,0.4798
799.0,0.476
800.0,0.4669
801.0,0.4647
802.0,0.4634
803.0,0.4594
804.0,0.4604
805.0,0.46
806.0,0.4746
807.0,0.4685
808.0,0.4691
809.0,0.459
810.0,0.4544
811.0,0.453
812.0,0.4378
813.0,0.4275
814.0,0.3688
815.0,0.367
816.0,0.3407
817.0,0.3476
818.0,0.3329
819.0,0.3784
820.0,0.3541
821.0,0.4228
822.0,0.4092
823.0,0.2646
824.0,0.394
825.0,0.4153
826.0,0.3967
827.0,0.4216
828.0,0.349
829.0,0.3949
830.0,0.3889
831.0,0.3904
832.0,0.3769
833.0,0.4051
834.0,0.388
835.0,0.4324
836.0,0.4099
837.0,0.4338
838.0,0.4183
839.0,0.4276
840.0,0.4375
841.0,0.4305
842.0,0.4327
843.0,0.4338
844.0,0.4271
845.0,0.4425
846.0,0.4408
847.0,0.433
848.0,0.4297
849.0,0.4175
850.0,0.4
851.0,0.4229
852.0,0.4202
853.0,0.405
854.0,0.3493
855.0,0.3843
856.0,0.4197
857.0,0.4295
858.0,0.4262
859.0,0.4268
860.0,0.4278
861.0,0.4254
862.0,0.4322
863.0,0.4424
864.0,0.4203
865.0,0.4167
866.0,0.3747
867.0,0.391
868.0,0.4255
869.0,0.4167
870.0,0.4286
871.0,0.4228
872.0,0.4213
873.0,0.4205
874.0,0.4155
875.0,0.407
876.0,0.4112
877.0,0.4154
878.0,0.4198
879.0,0.4134
880.0,0.4046
881.0,0.3982
882.0,0.4066
883.0,0.4083
884.0,0.4063
885.0,0.4093
886.0,0.389
887.0,0.394
888.0,0.3992
889.0,0.4048
890.0,0.4002
891.0,0.4001
892.0,0.387
893.0,0.3732
894.0,0.3566
895.0,0.3325
896.0,0.3119
897.0,0.2625
898.0,0.2893
899.0,0.2139
900.0,0.2996
901.0,0.2242
902.0,0.2715
903.0,0.2713
904.0,0.3539
905.0,0.34
906.0,0.3167
907.0,0.2489
908.0,0.2553
909.0,0.2802
910.0,0.241
911.0,0.2615
912.0,0.2743
913.0,0.2442
914.0,0.2435
915.0,0.2638
916.0,0.222
917.0,0.2886
918.0,0.2272
919.0,0.296
920.0,0.3034
921.0,0.3158
922.0,0.2773
923.0,0.3054
924.0,0.2833
925.0,0.2773
926.0,0.2798
927.0,0.3182
928.0,0.2193
929.0,0.1964
930.0,0.1484
931.0,0.1411
932.0,0.09552
933.0,0.07476
934.0,0.0351
935.0,0.07884
936.0,0.04538
937.0,0.04569
938.0,0.05762
939.0,0.1366
940.0,0.1688
941.0,0.1216
942.0,0.1441
943.0,0.0903
944.0,0.09946
945.0,0.1266
946.0,0.05844
947.0,0.1255
948.0,0.09153
949.0,0.1739
950.0,0.0398
951.0,0.1723
952.0,0.08488
953.0,0.1147
954.0,0.1464
955.0,0.1166
956.0,0.1177
957.0,0.08443
958.0,0.174
959.0,0.1314
960.0,0.1473
961.0,0.1707
962.0,0.1611
963.0,0.1904
964.0,0.173
965.0,0.1899
966.0,0.1889
967.0,0.1876
968.0,0.269
969.0,0.2789
970.0,0.2542
971.0,0.2987
972.0,0.2841
973.0,0.2396
974.0,0.2265
975.0,0.238
976.0,0.2217
977.0,0.2609
978.0,0.2443
979.0,0.2582
980.0,0.2414
981.0,0.2972
982.0,0.2813
983.0,0.2684
984.0,0.3096
985.0,0.2802
986.0,0.3171
987.0,0.3084
988.0,0.3081
989.0,0.3175
990.0,0.3061
991.0,0.3182
992.0,0.3203
993.0,0.3107
994.0,0.3204
995.0,0.3204
996.0,0.3186
997.0,0.3192
998.0,0.3176
999.0,0.3165
1000.0,0.3138
1001.0,0.3183
1002.0,0.3072
1003.0,0.3125
1004.0,0.3043
1005.0,0.294
1006.0,0.305
1007.0,0.3117
1008.0,0.3096
1009.0,0.3075
1010.0,0.306
1011.0,0.3102
1012.0,0.3071
1013.0,0.3096
1014.0,0.3074
1015.0,0.3053
1016.0,0.3039
1017.0,0.3046
1018.0,0.3037
1019.0,0.2963
1020.0,0.302
1021.0,0.3017
1022.0,0.299
1023.0,0.3022
1024.0,0.2973
1025.0,0.3023
1026.0,0.3007
1027.0,0.3001
1028.0,0.2994
1029.0,0.2957
1030.0,0.2981
1031.0,0.2968
1032.0,0.296
1033.0,0.2915
1034.0,0.2916
1035.0,0.2925
1036.0,0.2939
1037.0,0.2892
1038.0,0.2904
1039.0,0.2902
1040.0,0.289
1041.0,0.2901
1042.0,0.288
1043.0,0.2871
1044.0,0.288
1045.0,0.2841
1046.0,0.2809
1047.0,0.2833
1048.0,0.2848
1049.0,0.2837
1050.0,0.2823
1051.0,0.2819
1052.0,0.2806
1053.0,0.2783
1054.0,0.2788
1055.0,0.2788
1056.0,0.2776
1057.0,0.2767
1058.0,0.2697
1059.0,0.2699
1060.0,0.2694
1061.0,0.269
1062.0,0.2703
1063.0,0.2675
1064.0,0.2707
1065.0,0.2684
1066.0,0.2634
1067.0,0.2667
1068.0,0.2606
1069.0,0.2528
1070.0,0.2611
1071.0,0.266
1072.0,0.2623
1073.0,0.2586
1074.0,0.2662
1075.0,0.2505
1076.0,0.2659
1077.0,0.2598
1078.0,0.2542
1079.0,0.262
1080.0,0.2558
1081.0,0.2464
1082.0,0.2524
1083.0,0.2537
1084.0,0.2453
1085.0,0.2566
1086.0,0.2308
1087.0,0.2405
1088.0,0.253
1089.0,0.243
1090.0,0.2363
1091.0,0.2516
1092.0,0.2514
1093.0,0.2068
1094.0,0.2292
1095.0,0.2161
1096.0,0.2051
1097.0,0.2457
1098.0,0.201
1099.0,0.2107
1100.0,0.1933
1101.0,0.1965
1102.0,0.186
1103.0,0.1829
1104.0,0.1833
1105.0,0.2053
1106.0,0.1467
1107.0,0.193
1108.0,0.1575
1109.0,0.159
1110.0,0.1903
1111.0,0.121
1112.0,0.1582
1113.0,0.09262
1114.0,0.1041
1115.0,0.08585
1116.0,0.06401
1117.0,0.01913
1118.0,0.07098
1119.0,0.03142
1120.0,0.03913
1121.0,0.05408
1122.0,0.01964
1123.0,0.03553
1124.0,0.02993
1125.0,0.03999
1126.0,0.01095
1127.0,0.0454
1128.0,0.0238
1129.0,0.02564
1130.0,0.01593
1131.0,0.09482
1132.0,0.0727
1133.0,0.04136
1134.0,0.00833
1135.0,0.003266
1136.0,0.03289
1137.0,0.09139
1138.0,0.06354
1139.0,0.1046
1140.0,0.08361
1141.0,0.06048
1142.0,0.07145
1143.0,0.1056
1144.0,0.03243
1145.0,0.03994
1146.0,0.04302
1147.0,0.01215
1148.0,0.09106
1149.0,0.06989
1150.0,0.03558
1151.0,0.06302
1152.0,0.08095
1153.0,0.08153
1154.0,0.03859
1155.0,0.1089
1156.0,0.09612
1157.0,0.1114
1158.0,0.1101
1159.0,0.1211
1160.0,0.1012
1161.0,0.1302
1162.0,0.1303
1163.0,0.1855
1164.0,0.1557
1165.0,0.1435
1166.0,0.1451
1167.0,0.1597
1168.0,0.1607
1169.0,0.1656
1170.0,0.1828
1171.0,0.178
1172.0,0.183
1173.0,0.1824
1174.0,0.1236
1175.0,0.1797
1176.0,0.2012
1177.0,0.1907
1178.0,0.1382
1179.0,0.2029
1180.0,0.1771
1181.0,0.183
1182.0,0.1208
1183.0,0.1811
1184.0,0.1678
1185.0,0.1603
1186.0,0.1956
1187.0,0.1845
1188.0,0.122
1189.0,0.1716
1190.0,0.1914
1191.0,0.1784
1192.0,0.1944
1193.0,0.1852
1194.0,0.1916
1195.0,0.179
1196.0,0.171
1197.0,0.1928
1198.0,0.1751
1199.0,0.1441
1200.0,0.1827
1201.0,0.1745
1202.0,0.1748
1203.0,0.1727
1204.0,0.1488
1205.0,0.1802
1206.0,0.2015
1207.0,0.1737
1208.0,0.1724
1209.0,0.1763
1210.0,0.1847
1211.0,0.1742
1212.0,0.1697
1213.0,0.1937
1214.0,0.1747
1215.0,0.1711
1216.0,0.1933
1217.0,0.1873
1218.0,0.1916
1219.0,0.1888
1220.0,0.1919
1221.0,0.1944
1222.0,0.1889
1223.0,0.1867
1224.0,0.1847
1225.0,0.193
1226.0,0.195
1227.0,0.1775
1228.0,0.1965
1229.0,0.195
1230.0,0.1912
1231.0,0.1982
1232.0,0.197
1233.0,0.1882
1234.0,0.1985
1235.0,0.1969
1236.0,0.1986
1237.0,0.195
1238.0,0.1979
1239.0,0.1954
1240.0,0.1962
1241.0,0.1948
1242.0,0.1948
1243.0,0.1933
1244.0,0.1945
1245.0,0.1954
1246.0,0.1943
1247.0,0.1934
1248.0,0.193
1249.0,0.1938
1250.0,0.1925
1251.0,0.1897
1252.0,0.1901
1253.0,0.1879
1254.0,0.1855
1255.0,0.1898
1256.0,0.1831
1257.0,0.1818
1258.0,0.1863
1259.0,0.1775
1260.0,0.1787
1261.0,0.1661
1262.0,0.1598
1263.0,0.16
1264.0,0.1447
1265.0,0.1591
1266.0,0.1513
1267.0,0.1552
1268.0,0.1452
1269.0,0.07806
1270.0,0.1541
1271.0,0.1659
1272.0,0.1667
1273.0,0.1647
1274.0,0.1656
1275.0,0.1684
1276.0,0.1706
1277.0,0.1723
1278.0,0.1767
1279.0,0.175
1280.0,0.1729
1281.0,0.1654
1282.0,0.1602
1283.0,0.1723
1284.0,0.1763
1285.0,0.1776
1286.0,0.1804
1287.0,0.1768
1288.0,0.177
1289.0,0.1698
1290.0,0.1756
1291.0,0.1783
1292.0,0.1646
1293.0,0.1741
1294.0,0.1728
1295.0,0.1711
1296.0,0.1615
1297.0,0.1514
1298.0,0.1659
1299.0,0.1746
1300.0,0.143
1301.0,0.1483
1302.0,0.1654
1303.0,0.1417
1304.0,0.1164
1305.0,0.1617
1306.0,0.1613
1307.0,0.1206
1308.0,0.1427
1309.0,0.1595
1310.0,0.118
1311.0,0.1358
1312.0,0.1314
1313.0,0.1279
1314.0,0.113
1315.0,0.1105
1316.0,0.1328
1317.0,0.1252
1318.0,0.138
1319.0,0.1025
1320.0,0.1005
1321.0,0.1188
1322.0,0.1191
1323.0,0.08528
1324.0,0.1007
1325.0,0.1305
1326.0,0.1092
1327.0,0.1034
1328.0,0.08773
1329.0,0.06209
1330.0,0.08276
1331.0,0.04571
1332.0,0.04855
1333.0,0.06844
1334.0,0.06045
1335.0,0.08474
1336.0,0.06465
1337.0,0.05624
1338.0,0.06072
1339.0,0.06107
1340.0,0.06063
1341.0,0.05632
1342.0,0.05947
1343.0,0.03518
1344.0,0.0215
1345.0,0.03095
1346.0,0.01256
1347.0,0.01229
1348.0,0.0005105
1349.0,0.002061
1350.0,0.002327
1351.0,0.0003755
1352.0,6.18e-05
1353.0,2.033e-06
1354.0,9.653e-06
1355.0,2.922e-08
1356.0,9.726e-07
1357.0,1.487e-06
1358.0,3.6e-08
1359.0,2.15e-09
1360.0,1.259e-08
1361.0,3.41e-12
1362.0,6.04e-15
1363.0,1.262e-08
1364.0,5.388e-09
1365.0,1.3e-15
1366.0,6.684e-08
1367.0,3.348e-08
1368.0,6.722e-18
1369.0,1.975e-09
1370.0,7.14e-10
1371.0,2.934e-11
1372.0,1.875e-08
1373.0,6.136e-07
1374.0,4.036e-06
1375.0,6.905e-06
1376.0,8.88e-06
1377.0,3.8e-06
1378.0,4.125e-05
1379.0,1.603e-06
1380.0,1.814e-06
1381.0,4.043e-08
1382.0,1.536e-08
1383.0,1.854e-10
1384.0,1.943e-09
1385.0,2.135e-08
1386.0,1.082e-08
1387.0,3.217e-06
1388.0,7.049e-08
1389.0,1.67e-05
1390.0,1.398e-05
1391.0,8.9e-06
1392.0,5.427e-07
1393.0,3.431e-06
1394.0,9.605e-07
1395.0,5.116e-09
1396.0,5.79e-12
1397.0,1.195e-06
1398.0,4.396e-05
1399.0,2.854e-05
1400.0,1.75e-12
1401.0,1.185e-11
1402.0,0.0001359
1403.0,0.0001533
1404.0,4.441e-05
1405.0,1.892e-09
1406.0,9.604e-05
1407.0,1.033e-05
1408.0,8.15e-05
1409.0,2.042e-05
1410.0,2.079e-05
1411.0,0.000138
1412.0,0.0002143
1413.0,0.003208
1414.0,1.713e-05
1415.0,7.233e-06
1416.0,0.006912
1417.0,0.001632
1418.0,0.001711
1419.0,0.0002504
1420.0,0.001036
1421.0,0.001174
1422.0,0.009082
1423.0,0.001657
1424.0,0.003263
1425.0,0.004499
1426.0,0.005763
1427.0,0.012
1428.0,0.0004581
1429.0,0.008197
1430.0,0.01605
1431.0,0.01817
1432.0,0.0003542
1433.0,0.01086
1434.0,0.005193
1435.0,0.004111
1436.0,0.009545
1437.0,0.007381
