interpolation:linear
wavelength,value
280.0,6.004999999999999e-22
280.5,1.249e-20
281.0,5.746000000000001e-20
281.5,1.245e-18
282.0,8.007e-18
282.5,2.66e-17
283.0,1.009e-16
283.5,1.752e-16
284.0,3.292e-15
284.5,9.815e-15
285.0,2.759e-14
285.5,1.845e-13
286.0,8.074e-13
286.5,4.113e-12
287.0,1.262e-11
287.5,5.17e-11
288.0,1.774e-10
288.5,6.588e-10
289.0,2.063e-09
289.5,7.167e-09
290.0,2.195e-08
290.5,4.83e-08
291.0,1.127e-07
291.5,3.574e-07
292.0,8.053e-07
292.5,1.164e-06
293.0,2.586e-06
293.5,6.588e-06
294.0,1.066e-05
294.5,2.077e-05
295.0,3.666e-05
295.5,7.646e-05
296.0,0.0001353
296.5,0.0001738
297.0,0.0002193
297.5,0.0005305
298.0,0.0007662
298.5,0.0007208
299.0,0.001489
299.5,0.002205
300.0,0.002278
300.5,0.003093
301.0,0.005046
301.5,0.007326
302.0,0.005979
302.5,0.01091
303.0,0.01796
303.5,0.02142
304.0,0.01943
304.5,0.02647
305.0,0.03544
305.5,0.03757
306.0,0.0353
306.5,0.04187
307.0,0.05591
307.5,0.06734
308.0,0.06999
308.5,0.0788
309.0,0.07439
309.5,0.0795
310.0,0.07734
310.5,0.1233
311.0,0.1506
311.5,0.1437
312.0,0.1356
312.5,0.1588
313.0,0.1688
313.5,0.1669
314.0,0.1992
314.5,0.1662
315.0,0.216
315.5,0.1859
316.0,0.1545
316.5,0.2126
317.0,0.2641
317.5,0.2781
318.0,0.2107
318.5,0.2474
319.0,0.2855
319.5,0.2432
320.0,0.2957
320.5,0.3498
321.0,0.2962
321.5,0.2825
322.0,0.3175
322.5,0.2753
323.0,0.2647
323.5,0.3143
324.0,0.3647
324.5,0.3755
325.0,0.3306
325.5,0.4132
326.0,0.5001
326.5,0.4913
327.0,0.4929
327.5,0.48
328.0,0.4381
328.5,0.4466
329.0,0.522
329.5,0.5881
330.0,0.5964
330.5,0.4859
331.0,0.498
331.5,0.4991
332.0,0.5286
332.5,0.5181
333.0,0.5191
333.5,0.4764
334.0,0.4891
334.5,0.555
335.0,0.5165
335.5,0.6029
336.0,0.417
336.5,0.4905
337.0,0.405
337.5,0.5048
338.0,0.4862
338.5,0.5607
339.0,0.5546
339.5,0.5333
340.0,0.6268
340.5,0.5641
341.0,0.5502
341.5,0.5049
342.0,0.6031
342.5,0.5639
343.0,0.6202
343.5,0.5839
344.0,0.4311
344.5,0.4356
345.0,0.5759
345.5,0.5876
346.0,0.4991
346.5,0.5649
347.0,0.6063
347.5,0.4901
348.0,0.5584
348.5,0.5579
349.0,0.5173
349.5,0.5119
350.0,0.6329
350.5,0.6674
351.0,0.5962
351.5,0.5795
352.0,0.622
352.5,0.4851
353.0,0.6107
353.5,0.6527
354.0,0.6774
354.5,0.6869
355.0,0.6845
355.5,0.6181
356.0,0.6464
356.5,0.5519
357.0,0.456
357.5,0.5581
358.0,0.4422
358.5,0.3778
359.0,0.5284
359.5,0.6734
360.0,0.7137
360.5,0.5703
361.0,0.5197
361.5,0.5979
362.0,0.5167
362.5,0.7147
363.0,0.6416
363.5,0.5907
364.0,0.7222
364.5,0.6171
365.0,0.6284
365.5,0.7885
366.0,0.835
366.5,0.7843
367.0,0.7636
367.5,0.7923
368.0,0.6931
368.5,0.6992
369.0,0.7549
369.5,0.8044
370.0,0.8573
370.5,0.6652
371.0,0.7106
371.5,0.8889
372.0,0.5899
372.5,0.7071
373.0,0.719
373.5,0.4677
374.0,0.6795
374.5,0.5625
375.0,0.5468
375.5,0.8162
376.0,0.6765
376.5,0.701
377.0,0.742
377.5,0.8679
378.0,0.9407
378.5,0.8891
379.0,0.7337
379.5,0.6703
380.0,0.6968
380.5,0.8437
381.0,0.8452
381.5,0.6697
382.0,0.5946
382.5,0.5067
383.0,0.4689
383.5,0.4515
384.0,0.498
384.5,0.7323
385.0,0.7261
385.5,0.676
386.0,0.5789
386.5,0.7602
387.0,0.6316
387.5,0.7093
388.0,0.6548
388.5,0.6471
389.0,0.6985
389.5,0.8458
390.0,0.8487
390.5,0.7809
391.0,0.919
391.5,0.9373
392.0,0.7894
392.5,0.7065
393.0,0.393
393.5,0.2856
394.0,0.5811
394.5,0.7387
395.0,0.9013
395.5,0.9155
396.0,0.7937
396.5,0.4638
397.0,0.348
397.5,0.7076
398.0,0.991
398.5,1.024
399.0,1.109
399.5,1.105
400.0,1.147
401.0,1.167
402.0,1.231
403.0,1.169
404.0,1.15
405.0,1.15
406.0,1.131
407.0,1.112
408.0,1.155
409.0,1.236
410.0,1.08
411.0,1.169
412.0,1.255
413.0,1.224
414.0,1.238
415.0,1.241
416.0,1.262
417.0,1.23
418.0,1.207
419.0,1.223
420.0,1.217
421.0,1.273
422.0,1.209
423.0,1.181
424.0,1.249
425.0,1.246
426.0,1.213
427.0,1.19
428.0,1.159
429.0,1.097
430.0,0.9599
431.0,0.9515
432.0,1.228
433.0,1.234
434.0,1.146
435.0,1.197
436.0,1.348
437.0,1.329
438.0,1.209
439.0,1.252
440.0,1.291
441.0,1.337
442.0,1.433
443.0,1.397
444.0,1.426
445.0,1.395
446.0,1.331
447.0,1.438
448.0,1.461
449.0,1.465
450.0,1.505
451.0,1.561
452.0,1.503
453.0,1.414
454.0,1.475
455.0,1.484
456.0,1.519
457.0,1.544
458.0,1.492
459.0,1.484
460.0,1.488
461.0,1.522
462.0,1.533
463.0,1.522
464.0,1.496
465.0,1.476
466.0,1.489
467.0,1.463
468.0,1.48
469.0,1.487
470.0,1.44
471.0,1.438
472.0,1.515
473.0,1.496
474.0,1.498
475.0,1.512
476.0,1.468
477.0,1.473
478.0,1.513
479.0,1.503
480.0,1.505
481.0,1.532
482.0,1.539
483.0,1.519
484.0,1.488
485.0,1.417
486.0,1.238
487.0,1.297
488.0,1.422
489.0,1.427
490.0,1.501
491.0,1.474
492.0,1.392
493.0,1.438
494.0,1.452
495.0,1.464
496.0,1.473
497.0,1.496
498.0,1.426
499.0,1.444
500.0,1.403
501.0,1.378
502.0,1.36
503.0,1.417
504.0,1.385
505.0,1.431
506.0,1.477
507.0,1.405
508.0,1.36
509.0,1.397
510.0,1.389
511.0,1.426
512.0,1.441
513.0,1.363
514.0,1.354
515.0,1.34
516.0,1.337
517.0,1.188
518.0,1.249
519.0,1.31
520.0,1.358
521.0,1.371
522.0,1.372
523.0,1.348
524.0,1.397
525.0,1.414
526.0,1.351
527.0,1.274
528.0,1.348
529.0,1.421
530.0,1.401
531.0,1.422
532.0,1.374
533.0,1.333
534.0,1.373
535.0,1.402
536.0,1.414
537.0,1.358
538.0,1.382
539.0,1.37
540.0,1.314
541.0,1.324
542.0,1.366
543.0,1.351
544.0,1.375
545.0,1.371
546.0,1.378
547.0,1.376
548.0,1.359
549.0,1.363
550.0,1.379
551.0,1.362
552.0,1.372
553.0,1.347
554.0,1.38
555.0,1.383
556.0,1.365
557.0,1.323
558.0,1.313
559.0,1.29
560.0,1.306
561.0,1.323
562.0,1.315
563.0,1.351
564.0,1.315
565.0,1.305
566.0,1.286
567.0,1.311
568.0,1.302
569.0,1.275
570.0,1.274
571.0,1.265
572.0,1.298
573.0,1.313
574.0,1.309
575.0,1.285
576.0,1.274
577.0,1.287
578.0,1.267
579.0,1.27
580.0,1.291
581.0,1.295
582.0,1.318
583.0,1.32
584.0,1.33
585.0,1.297
586.0,1.27
587.0,1.299
588.0,1.273
589.0,1.138
590.0,1.189
591.0,1.252
592.0,1.24
593.0,1.254
594.0,1.247
595.0,1.22
596.0,1.26
597.0,1.248
598.0,1.242
599.0,1.242
600.0,1.242
601.0,1.23
602.0,1.222
603.0,1.241
604.0,1.261
605.0,1.254
606.0,1.248
607.0,1.26
608.0,1.245
609.0,1.247
610.0,1.237
611.0,1.243
612.0,1.239
613.0,1.223
614.0,1.205
615.0,1.231
616.0,1.19
617.0,1.187
618.0,1.232
619.0,1.22
620.0,1.227
621.0,1.229
622.0,1.216
623.0,1.198
624.0,1.177
625.0,1.174
626.0,1.191
627.0,1.206
628.0,1.148
629.0,1.185
630.0,1.159
631.0,1.178
632.0,1.162
633.0,1.195
634.0,1.181
635.0,1.198
636.0,1.181
637.0,1.199
638.0,1.209
639.0,1.195
640.0,1.182
641.0,1.181
642.0,1.174
643.0,1.19
644.0,1.185
645.0,1.188
646.0,1.163
647.0,1.155
648.0,1.157
649.0,1.135
650.0,1.132
651.0,1.18
652.0,1.139
653.0,1.164
654.0,1.15
655.0,1.112
656.0,0.9824
657.0,1.009
658.0,1.128
659.0,1.135
660.0,1.139
661.0,1.147
662.0,1.151
663.0,1.127
664.0,1.139
665.0,1.138
666.0,1.138
667.0,1.136
668.0,1.136
669.0,1.153
670.0,1.148
671.0,1.147
672.0,1.137
673.0,1.154
674.0,1.149
675.0,1.138
676.0,1.146
677.0,1.134
678.0,1.137
679.0,1.119
680.0,1.127
681.0,1.12
682.0,1.118
683.0,1.116
684.0,1.111
685.0,1.12
686.0,1.114
687.0,0.8353
688.0,0.9319
689.0,0.9337
690.0,0.9639
691.0,0.9974
692.0,1.02
693.0,1.014
694.0,1.006
695.0,1.036
696.0,1.037
697.0,1.086
698.0,1.069
699.0,1.053
700.0,1.041
701.0,1.033
702.0,1.037
703.0,1.039
704.0,1.066
705.0,1.068
706.0,1.065
707.0,1.064
708.0,1.067
709.0,1.065
710.0,1.067
711.0,1.064
712.0,1.059
713.0,1.05
714.0,1.054
715.0,1.024
716.0,1.026
717.0,0.9248
718.0,0.8563
719.0,0.7887
720.0,0.8283
721.0,0.8918
722.0,0.9958
723.0,0.94
724.0,0.8614
725.0,0.8526
726.0,0.8893
727.0,0.8941
728.0,0.8519
729.0,0.8708
730.0,0.9205
731.0,0.8852
732.0,0.9333
733.0,0.9749
734.0,0.9946
735.0,0.9758
736.0,0.9742
737.0,0.9786
738.0,0.9853
739.0,0.9662
740.0,0.9887
741.0,0.9773
742.0,0.9768
743.0,1.001
744.0,0.9974
745.0,0.9968
746.0,1.001
747.0,1.003
748.0,1.001
749.0,0.9897
750.0,0.9891
751.0,0.979
752.0,0.9831
753.0,0.988
754.0,0.9903
755.0,0.9847
756.0,0.9841
757.0,0.9856
758.0,0.9735
759.0,0.9585
760.0,0.2676
761.0,0.1689
762.0,0.5909
763.0,0.3619
764.0,0.4835
765.0,0.5913
766.0,0.6765
767.0,0.8064
768.0,0.8944
769.0,0.9052
770.0,0.9271
771.0,0.9307
772.0,0.9315
773.0,0.9377
774.0,0.9329
775.0,0.9256
776.0,0.9367
777.0,0.9243
778.0,0.9188
779.0,0.9195
780.0,0.9143
781.0,0.9152
782.0,0.9208
783.0,0.9047
784.0,0.9089
785.0,0.9025
786.0,0.9127
787.0,0.9004
788.0,0.891
789.0,0.8912
790.0,0.873
791.0,0.8753
792.0,0.8682
793.0,0.8547
794.0,0.8636
795.0,0.8796
796.0,0.86
797.0,0.8612
798.0,0.8793
799.0,0.8751
800.0,0.8618
801.0,0.8606
802.0,0.858
803.0,0.8524
804.0,0.8527
805.0,0.848
806.0,0.8683
807.0,0.8587
808.0,0.859
809.0,0.8455
810.0,0.8406
811.0,0.845
812.0,0.8261
813.0,0.8124
814.0,0.7328
815.0,0.7278
816.0,0.6803
817.0,0.6903
818.0,0.6686
819.0,0.7314
820.0,0.6952
821.0,0.7909
822.0,0.7719
823.0,0.5603
824.0,0.7567
825.0,0.7784
826.0,0.7553
827.0,0.7901
828.0,0.6894
829.0,0.7494
830.0,0.7417
831.0,0.7435
832.0,0.7243
833.0,0.7603
834.0,0.7399
835.0,0.799
836.0,0.7733
837.0,0.8007
838.0,0.7794
839.0,0.7878
840.0,0.8041
841.0,0.7943
842.0,0.7935
843.0,0.7906
844.0,0.781
845.0,0.8054
846.0,0.8015
847.0,0.7858
848.0,0.782
849.0,0.7598
850.0,0.7278
851.0,0.7718
852.0,0.7658
853.0,0.7362
854.0,0.6365
855.0,0.6981
856.0,0.7634
857.0,0.7797
858.0,0.7743
859.0,0.7744
860.0,0.7755
861.0,0.7714
862.0,0.7833
863.0,0.8018
864.0,0.7617
865.0,0.7549
866.0,0.6788
867.0,0.7083
868.0,0.7708
869.0,0.7547
870.0,0.7762
871.0,0.7657
872.0,0.7629
873.0,0.7614
874.0,0.7523
875.0,0.7371
876.0,0.7448
877.0,0.7523
878.0,0.7606
879.0,0.7489
880.0,0.7328
881.0,0.7223
882.0,0.7382
883.0,0.74
884.0,0.7368
885.0,0.7423
886.0,0.7094
887.0,0.7155
888.0,0.727
889.0,0.7335
890.0,0.7294
891.0,0.7271
892.0,0.7087
893.0,0.6899
894.0,0.6717
895.0,0.6427
896.0,0.6094
897.0,0.5347
898.0,0.5768
899.0,0.4529
900.0,0.5839
901.0,0.4739
902.0,0.5378
903.0,0.5488
904.0,0.6667
905.0,0.6474
906.0,0.6088
907.0,0.5112
908.0,0.5192
909.0,0.5542
910.0,0.5045
911.0,0.5292
912.0,0.5497
913.0,0.5126
914.0,0.5058
915.0,0.5464
916.0,0.4675
917.0,0.5768
918.0,0.4796
919.0,0.5838
920.0,0.5828
921.0,0.6041
922.0,0.5503
923.0,0.5831
924.0,0.5644
925.0,0.5526
926.0,0.5584
927.0,0.6153
928.0,0.4796
929.0,0.4455
930.0,0.3627
931.0,0.3414
932.0,0.2586
933.0,0.2175
934.0,0.1349
935.0,0.2165
936.0,0.1448
937.0,0.1483
938.0,0.1784
939.0,0.3308
940.0,0.3892
941.0,0.3058
942.0,0.3461
943.0,0.2373
944.0,0.2415
945.0,0.3133
946.0,0.1726
947.0,0.3179
948.0,0.236
949.0,0.4124
950.0,0.1359
951.0,0.4038
952.0,0.2346
953.0,0.2914
954.0,0.3447
955.0,0.2933
956.0,0.2795
957.0,0.2368
958.0,0.3776
959.0,0.3133
960.0,0.3506
961.0,0.3834
962.0,0.3643
963.0,0.411
964.0,0.3797
965.0,0.4083
966.0,0.4107
967.0,0.4097
968.0,0.5197
969.0,0.5446
970.0,0.5045
971.0,0.5646
972.0,0.5425
973.0,0.4853
974.0,0.4628
975.0,0.475
976.0,0.4578
977.0,0.5077
978.0,0.4879
979.0,0.5067
980.0,0.4793
981.0,0.5607
982.0,0.5407
983.0,0.5219
984.0,0.5727
985.0,0.5385
986.0,0.5797
987.0,0.5715
988.0,0.5705
989.0,0.5761
990.0,0.5668
991.0,0.5782
992.0,0.5812
993.0,0.5714
994.0,0.5807
995.0,0.5795
996.0,0.5774
997.0,0.578
998.0,0.5755
999.0,0.5733
1000.0,0.57
1001.0,0.5762
1002.0,0.5635
1003.0,0.5662
1004.0,0.5532
1005.0,0.5318
1006.0,0.5532
1007.0,0.5646
1008.0,0.5621
1009.0,0.5597
1010.0,0.5577
1011.0,0.5617
1012.0,0.5574
1013.0,0.5601
1014.0,0.5562
1015.0,0.5526
1016.0,0.5502
1017.0,0.5517
1018.0,0.5493
1019.0,0.5387
1020.0,0.5465
1021.0,0.5456
1022.0,0.5418
1023.0,0.5476
1024.0,0.5417
1025.0,0.5468
1026.0,0.5448
1027.0,0.5434
1028.0,0.5424
1029.0,0.5361
1030.0,0.5394
1031.0,0.5374
1032.0,0.5357
1033.0,0.5276
1034.0,0.5276
1035.0,0.5293
1036.0,0.5321
1037.0,0.5234
1038.0,0.5258
1039.0,0.5256
1040.0,0.5235
1041.0,0.5257
1042.0,0.522
1043.0,0.5204
1044.0,0.5223
1045.0,0.5153
1046.0,0.5097
1047.0,0.5143
1048.0,0.5172
1049.0,0.5155
1050.0,0.5132
1051.0,0.5126
1052.0,0.5106
1053.0,0.5067
1054.0,0.5079
1055.0,0.5084
1056.0,0.5068
1057.0,0.5054
1058.0,0.4931
1059.0,0.4939
1060.0,0.4932
1061.0,0.4927
1062.0,0.4955
1063.0,0.4907
1064.0,0.4965
1065.0,0.4934
1066.0,0.4833
1067.0,0.4896
1068.0,0.4792
1069.0,0.4642
1070.0,0.4803
1071.0,0.4867
1072.0,0.4819
1073.0,0.4748
1074.0,0.4859
1075.0,0.4648
1076.0,0.4856
1077.0,0.4789
1078.0,0.4705
1079.0,0.4774
1080.0,0.4715
1081.0,0.4579
1082.0,0.4625
1083.0,0.4632
1084.0,0.4578
1085.0,0.4722
1086.0,0.4364
1087.0,0.4463
1088.0,0.4633
1089.0,0.4522
1090.0,0.4446
1091.0,0.4627
1092.0,0.4608
1093.0,0.4006
1094.0,0.4228
1095.0,0.4157
1096.0,0.4011
1097.0,0.45
1098.0,0.3958
1099.0,0.4113
1100.0,0.3869
1101.0,0.3904
1102.0,0.3755
1103.0,0.3739
1104.0,0.3741
1105.0,0.4028
1106.0,0.3253
1107.0,0.3859
1108.0,0.3376
1109.0,0.3362
1110.0,0.3838
1111.0,0.2746
1112.0,0.3328
1113.0,0.2269
1114.0,0.2516
1115.0,0.2091
1116.0,0.1765
1117.0,0.07604
1118.0,0.1882
1119.0,0.102
1120.0,0.1285
1121.0,0.1649
1122.0,0.07704
1123.0,0.1159
1124.0,0.0979
1125.0,0.1256
1126.0,0.05146
1127.0,0.141
1128.0,0.09261
1129.0,0.09687
1130.0,0.06773
1131.0,0.2485
1132.0,0.1985
1133.0,0.1358
1134.0,0.04147
1135.0,0.01526
1136.0,0.1169
1137.0,0.2468
1138.0,0.1763
1139.0,0.2446
1140.0,0.2114
1141.0,0.1675
1142.0,0.1887
1143.0,0.2604
1144.0,0.1007
1145.0,0.1307
1146.0,0.141
1147.0,0.05784
1148.0,0.2255
1149.0,0.1859
1150.0,0.108
1151.0,0.1751
1152.0,0.2087
1153.0,0.1984
1154.0,0.1286
1155.0,0.2554
1156.0,0.2335
1157.0,0.257
1158.0,0.254
1159.0,0.2692
1160.0,0.236
1161.0,0.2801
1162.0,0.2822
1163.0,0.3636
1164.0,0.3184
1165.0,0.3063
1166.0,0.3002
1167.0,0.3236
1168.0,0.3284
1169.0,0.3339
1170.0,0.3579
1171.0,0.3498
1172.0,0.3533
1173.0,0.3571
1174.0,0.2693
1175.0,0.3468
1176.0,0.3746
1177.0,0.3638
1178.0,0.2841
1179.0,0.3773
1180.0,0.3442
1181.0,0.3544
1182.0,0.2563
1183.0,0.3473
1184.0,0.3294
1185.0,0.3211
1186.0,0.3695
1187.0,0.3554
1188.0,0.2616
1189.0,0.3319
1190.0,0.3611
1191.0,0.3486
1192.0,0.3654
1193.0,0.3523
1194.0,0.3617
1195.0,0.3461
1196.0,0.336
1197.0,0.3596
1198.0,0.3323
1199.0,0.2921
1200.0,0.3482
1201.0,0.339
1202.0,0.3353
1203.0,0.3325
1204.0,0.2963
1205.0,0.3403
1206.0,0.3705
1207.0,0.3353
1208.0,0.3272
1209.0,0.3332
1210.0,0.345
1211.0,0.3322
1212.0,0.3321
1213.0,0.3603
1214.0,0.3381
1215.0,0.3327
1216.0,0.359
1217.0,0.3513
1218.0,0.3563
1219.0,0.3527
1220.0,0.3564
1221.0,0.3589
1222.0,0.3507
1223.0,0.3482
1224.0,0.3473
1225.0,0.3567
1226.0,0.3579
1227.0,0.3349
1228.0,0.3588
1229.0,0.358
1230.0,0.3527
1231.0,0.3599
1232.0,0.3578
1233.0,0.3492
1234.0,0.3588
1235.0,0.357
1236.0,0.3592
1237.0,0.3557
1238.0,0.358
1239.0,0.3534
1240.0,0.3546
1241.0,0.3538
1242.0,0.3523
1243.0,0.3493
1244.0,0.3521
1245.0,0.3534
1246.0,0.3513
1247.0,0.3502
1248.0,0.3504
1249.0,0.3511
1250.0,0.3493
1251.0,0.3453
1252.0,0.3447
1253.0,0.3432
1254.0,0.3407
1255.0,0.3447
1256.0,0.3373
1257.0,0.3359
1258.0,0.3404
1259.0,0.3317
1260.0,0.3329
1261.0,0.3189
1262.0,0.3117
1263.0,0.3125
1264.0,0.2942
1265.0,0.3104
1266.0,0.302
1267.0,0.305
1268.0,0.293
1269.0,0.2082
1270.0,0.3048
1271.0,0.3172
1272.0,0.3177
1273.0,0.3149
1274.0,0.3152
1275.0,0.3189
1276.0,0.3211
1277.0,0.3222
1278.0,0.3264
1279.0,0.3237
1280.0,0.3195
1281.0,0.304
1282.0,0.2915
1283.0,0.3142
1284.0,0.3221
1285.0,0.324
1286.0,0.3275
1287.0,0.3239
1288.0,0.3235
1289.0,0.3161
1290.0,0.3204
1291.0,0.3244
1292.0,0.3101
1293.0,0.3194
1294.0,0.3175
1295.0,0.3172
1296.0,0.3064
1297.0,0.2927
1298.0,0.3094
1299.0,0.3193
1300.0,0.2801
1301.0,0.2866
1302.0,0.3082
1303.0,0.2753
1304.0,0.2441
1305.0,0.3027
1306.0,0.3032
1307.0,0.2462
1308.0,0.2743
1309.0,0.3015
1310.0,0.2419
1311.0,0.265
1312.0,0.2594
1313.0,0.2558
1314.0,0.2323
1315.0,0.2314
1316.0,0.2624
1317.0,0.2496
1318.0,0.2674
1319.0,0.2203
1320.0,0.2109
1321.0,0.2418
1322.0,0.2458
1323.0,0.1944
1324.0,0.216
1325.0,0.2591
1326.0,0.2283
1327.0,0.2193
1328.0,0.1921
1329.0,0.1523
1330.0,0.194
1331.0,0.1272
1332.0,0.1278
1333.0,0.1751
1334.0,0.1445
1335.0,0.1934
1336.0,0.1579
1337.0,0.1428
1338.0,0.154
1339.0,0.1521
1340.0,0.1454
1341.0,0.1476
1342.0,0.1547
1343.0,0.1174
1344.0,0.07015
1345.0,0.09939
1346.0,0.05841
1347.0,0.06088
1348.0,0.006109
1349.0,0.0192
1350.0,0.01816
1351.0,0.00648
1352.0,0.002557
1353.0,0.0002106
1354.0,0.0005453
1355.0,1.11e-05
1356.0,0.0001075
1357.0,0.0001607
1358.0,1.268e-05
1359.0,3.102e-06
1360.0,7.355e-06
1361.0,3.544e-08
1362.0,1.925e-10
1363.0,1.143e-05
1364.0,5.208e-06
1365.0,1.424e-10
1366.0,4.157e-05
1367.0,1.604e-05
1368.0,4.995e-12
1369.0,2.058e-06
1370.0,1.338e-06
1371.0,1.116e-07
1372.0,8.925e-06
1373.0,0.0001109
1374.0,0.0003746
1375.0,0.0006657
1376.0,0.0004838
1377.0,0.0002402
1378.0,0.001954
1379.0,0.0001036
1380.0,0.0001772
1381.0,5.89e-06
1382.0,8.684e-06
1383.0,1.793e-07
1384.0,2.576e-06
1385.0,6.11e-06
1386.0,9.293e-06
1387.0,0.0004517
1388.0,9.945e-06
1389.0,0.001109
1390.0,0.0009456
1391.0,0.0006896
1392.0,5.236e-05
1393.0,0.00023
1394.0,0.0001907
1395.0,2.177e-06
1396.0,4.237e-08
1397.0,0.0001048
1398.0,0.00224
1399.0,0.00143
1400.0,2.631e-08
1401.0,6.634e-08
1402.0,0.002669
1403.0,0.00359
1404.0,0.001133
1405.0,1.35e-06
1406.0,0.003292
1407.0,0.000283
1408.0,0.002651
1409.0,0.001121
1410.0,0.0008042
1411.0,0.003121
1412.0,0.003773
1413.0,0.02702
1414.0,0.0006202
1415.0,0.0003352
1416.0,0.0372
1417.0,0.01403
1418.0,0.01598
1419.0,0.002639
1420.0,0.009914
1421.0,0.01102
1422.0,0.04762
1423.0,0.01005
1424.0,0.01816
1425.0,0.02749
1426.0,0.02891
1427.0,0.04772
1428.0,0.00591
1429.0,0.03798
1430.0,0.05915
1431.0,0.06356
1432.0,0.004745
1433.0,0.04249
1434.0,0.02267
1435.0,0.02621
1436.0,0.04479
1437.0,0.03444
1438.0,0.01619
1439.0,0.05833
1440.0,0.04411
1441.0,0.03627
1442.0,0.03949
1443.0,0.04559
1444.0,0.06163
1445.0,0.05132
1446.0,0.02407
1447.0,0.03796
1448.0,0.1052
1449.0,0.09453
1450.0,0.02808
1451.0,0.01216
1452.0,0.05987
1453.0,0.07667
1454.0,0.1209
1455.0,0.06105
1456.0,0.08371
1457.0,0.1058
1458.0,0.1187
1459.0,0.1412
1460.0,0.07692
