interpolation:linear
wavelength,value
280.0,2.33e-21
280.5,7.351e-20
281.0,3.887e-19
281.5,3.809e-19
282.0,1.025e-18
282.5,2.668e-18
283.0,8.591e-18
283.5,1.405e-17
284.0,2.287e-16
284.5,6.608e-16
285.0,1.466e-15
285.5,7.064e-15
286.0,2.82e-14
286.5,1.242e-13
287.0,3.513e-13
287.5,1.329e-12
288.0,3.639e-12
288.5,1.192e-11
289.0,3.351e-11
289.5,1.052e-10
290.0,2.99e-10
290.5,6.193e-10
291.0,1.349e-09
291.5,3.924e-09
292.0,8.213e-09
292.5,1.226e-08
293.0,2.84e-08
293.5,7.663e-08
294.0,1.289e-07
294.5,1.669e-07
295.0,3.032e-07
295.5,7.659e-07
296.0,1.533e-06
296.5,2.236e-06
297.0,3.143e-06
297.5,8.985e-06
298.0,1.504e-05
298.5,1.592e-05
299.0,3.701e-05
299.5,6.789e-05
300.0,7.942e-05
300.5,0.0001232
301.0,0.0002523
301.5,0.0004606
302.0,0.0004282
302.5,0.0008492
303.0,0.001555
303.5,0.001984
304.0,0.001881
304.5,0.002874
305.0,0.004495
305.5,0.005247
306.0,0.005117
306.5,0.006448
307.0,0.00981
307.5,0.01335
308.0,0.01416
308.5,0.01691
309.0,0.01672
309.5,0.01938
310.0,0.01958
310.5,0.03182
311.0,0.04013
311.5,0.03883
312.0,0.03922
312.5,0.04805
313.0,0.0523
313.5,0.05065
314.0,0.06382
314.5,0.05716
315.0,0.07527
315.5,0.06268
316.0,0.05519
316.5,0.07979
317.0,0.09907
317.5,0.1029
318.0,0.08067
318.5,0.101
319.0,0.1204
319.5,0.09752
320.0,0.1177
320.5,0.1486
321.0,0.1333
321.5,0.1279
322.0,0.1353
322.5,0.1178
323.0,0.1179
323.5,0.1456
324.0,0.1701
324.5,0.1724
325.0,0.1486
325.5,0.1919
326.0,0.2349
326.5,0.2358
327.0,0.2349
327.5,0.2267
328.0,0.2013
328.5,0.2123
329.0,0.255
329.5,0.2897
330.0,0.2921
330.5,0.2334
331.0,0.2377
331.5,0.242
332.0,0.2621
332.5,0.2595
333.0,0.2587
333.5,0.2338
334.0,0.2396
334.5,0.277
335.0,0.2606
335.5,0.3044
336.0,0.2107
336.5,0.2467
337.0,0.2023
337.5,0.2516
338.0,0.2461
338.5,0.2842
339.0,0.2814
339.5,0.2707
340.0,0.3182
340.5,0.2869
341.0,0.2799
341.5,0.2571
342.0,0.3074
342.5,0.2877
343.0,0.3164
343.5,0.298
344.0,0.2203
344.5,0.2225
345.0,0.2947
345.5,0.301
346.0,0.2559
346.5,0.2899
347.0,0.3112
347.5,0.2517
348.0,0.2871
348.5,0.2871
349.0,0.2664
349.5,0.2639
350.0,0.3265
350.5,0.3445
351.0,0.3078
351.5,0.2992
352.0,0.3215
352.5,0.251
353.0,0.3163
353.5,0.3383
354.0,0.3513
354.5,0.3563
355.0,0.3552
355.5,0.3211
356.0,0.336
356.5,0.287
357.0,0.2372
357.5,0.2904
358.0,0.2302
358.5,0.1968
359.0,0.2753
359.5,0.3509
360.0,0.3721
360.5,0.2975
361.0,0.2713
361.5,0.3126
362.0,0.2704
362.5,0.3745
363.0,0.3365
363.5,0.3101
364.0,0.3794
364.5,0.3244
365.0,0.3305
365.5,0.4149
366.0,0.4398
366.5,0.4134
367.0,0.4027
367.5,0.418
368.0,0.3659
368.5,0.3694
369.0,0.3991
369.5,0.4255
370.0,0.4537
370.5,0.3523
371.0,0.3766
371.5,0.4712
372.0,0.3129
372.5,0.3752
373.0,0.3819
373.5,0.2485
374.0,0.3613
374.5,0.2993
375.0,0.291
375.5,0.4346
376.0,0.3604
376.5,0.3735
377.0,0.3956
377.5,0.463
378.0,0.502
378.5,0.4746
379.0,0.3918
379.5,0.3579
380.0,0.3722
380.5,0.451
381.0,0.4522
381.5,0.3586
382.0,0.3186
382.5,0.2717
383.0,0.2517
383.5,0.2425
384.0,0.2676
384.5,0.3937
385.0,0.3905
385.5,0.3638
386.0,0.3117
386.5,0.4097
387.0,0.3405
387.5,0.3825
388.0,0.3533
388.5,0.3494
389.0,0.3772
389.5,0.457
390.0,0.4588
390.5,0.4224
391.0,0.4974
391.5,0.5074
392.0,0.4275
392.5,0.3829
393.0,0.2131
393.5,0.155
394.0,0.3154
394.5,0.4012
395.0,0.4897
395.5,0.4975
396.0,0.4315
396.5,0.2524
397.0,0.1894
397.5,0.3854
398.0,0.5398
398.5,0.5581
399.0,0.6046
399.5,0.6028
400.0,0.626
401.0,0.6343
402.0,0.6697
403.0,0.6365
404.0,0.627
405.0,0.6272
406.0,0.6174
407.0,0.6078
408.0,0.6318
409.0,0.6765
410.0,0.5914
411.0,0.6409
412.0,0.6888
413.0,0.6719
414.0,0.6805
415.0,0.6827
416.0,0.695
417.0,0.6782
418.0,0.6659
419.0,0.675
420.0,0.6722
421.0,0.7036
422.0,0.669
423.0,0.6537
424.0,0.6916
425.0,0.6906
426.0,0.6731
427.0,0.6608
428.0,0.6439
429.0,0.6102
430.0,0.5343
431.0,0.5296
432.0,0.6841
433.0,0.6881
434.0,0.6391
435.0,0.6676
436.0,0.7526
437.0,0.7428
438.0,0.6767
439.0,0.6998
440.0,0.7223
441.0,0.7488
442.0,0.8033
443.0,0.7824
444.0,0.7997
445.0,0.7824
446.0,0.7471
447.0,0.808
448.0,0.8206
449.0,0.8243
450.0,0.8476
451.0,0.8792
452.0,0.8473
453.0,0.7971
454.0,0.8324
455.0,0.8377
456.0,0.8578
457.0,0.8721
458.0,0.8423
459.0,0.8381
460.0,0.8404
461.0,0.8598
462.0,0.8667
463.0,0.8608
464.0,0.8469
465.0,0.8366
466.0,0.845
467.0,0.8295
468.0,0.8393
469.0,0.8438
470.0,0.8169
471.0,0.8159
472.0,0.8598
473.0,0.8486
474.0,0.8497
475.0,0.8568
476.0,0.8309
477.0,0.8331
478.0,0.8563
479.0,0.8513
480.0,0.8531
481.0,0.8693
482.0,0.8742
483.0,0.8639
484.0,0.8464
485.0,0.8066
486.0,0.7053
487.0,0.7394
488.0,0.8112
489.0,0.8137
490.0,0.8562
491.0,0.8416
492.0,0.7948
493.0,0.8209
494.0,0.8291
495.0,0.8362
496.0,0.8414
497.0,0.8545
498.0,0.8145
499.0,0.8249
500.0,0.8007
501.0,0.7858
502.0,0.7745
503.0,0.8056
504.0,0.7841
505.0,0.8131
506.0,0.8393
507.0,0.7987
508.0,0.7742
509.0,0.7962
510.0,0.7922
511.0,0.8136
512.0,0.8226
513.0,0.7786
514.0,0.7734
515.0,0.7657
516.0,0.7638
517.0,0.6788
518.0,0.7136
519.0,0.7485
520.0,0.7756
521.0,0.783
522.0,0.7836
523.0,0.7694
524.0,0.7968
525.0,0.8059
526.0,0.7698
527.0,0.7252
528.0,0.7668
529.0,0.8081
530.0,0.7964
531.0,0.8081
532.0,0.7803
533.0,0.7575
534.0,0.7799
535.0,0.7971
536.0,0.8045
537.0,0.7729
538.0,0.7866
539.0,0.78
540.0,0.7478
541.0,0.7524
542.0,0.7758
543.0,0.7679
544.0,0.781
545.0,0.7786
546.0,0.7818
547.0,0.7817
548.0,0.7724
549.0,0.7749
550.0,0.7841
551.0,0.7746
552.0,0.78
553.0,0.766
554.0,0.7843
555.0,0.7858
556.0,0.7755
557.0,0.7513
558.0,0.7455
559.0,0.7314
560.0,0.7404
561.0,0.7499
562.0,0.7443
563.0,0.7644
564.0,0.7433
565.0,0.7368
566.0,0.7258
567.0,0.7393
568.0,0.7321
569.0,0.7136
570.0,0.7136
571.0,0.7096
572.0,0.7259
573.0,0.7335
574.0,0.731
575.0,0.7171
576.0,0.7106
577.0,0.7184
578.0,0.708
579.0,0.7113
580.0,0.7256
581.0,0.73
582.0,0.7443
583.0,0.7466
584.0,0.7534
585.0,0.7352
586.0,0.7201
587.0,0.7355
588.0,0.7162
589.0,0.6318
590.0,0.6609
591.0,0.701
592.0,0.6912
593.0,0.7027
594.0,0.6973
595.0,0.6791
596.0,0.7081
597.0,0.6999
598.0,0.6988
599.0,0.6997
600.0,0.7013
601.0,0.696
602.0,0.6913
603.0,0.703
604.0,0.7147
605.0,0.7112
606.0,0.7085
607.0,0.7158
608.0,0.7081
609.0,0.7095
610.0,0.7047
611.0,0.7085
612.0,0.7066
613.0,0.6978
614.0,0.6885
615.0,0.7037
616.0,0.6807
617.0,0.6794
618.0,0.7057
619.0,0.6986
620.0,0.703
621.0,0.7035
622.0,0.6951
623.0,0.6844
624.0,0.6728
625.0,0.6713
626.0,0.6812
627.0,0.6883
628.0,0.6365
629.0,0.6698
630.0,0.6542
631.0,0.6711
632.0,0.6634
633.0,0.6845
634.0,0.6785
635.0,0.6894
636.0,0.6807
637.0,0.6922
638.0,0.6993
639.0,0.6917
640.0,0.6853
641.0,0.6851
642.0,0.6822
643.0,0.6914
644.0,0.6895
645.0,0.6904
646.0,0.6736
647.0,0.6639
648.0,0.6644
649.0,0.6514
650.0,0.6567
651.0,0.6856
652.0,0.6547
653.0,0.6766
654.0,0.6693
655.0,0.6432
656.0,0.5709
657.0,0.5864
658.0,0.6578
659.0,0.6628
660.0,0.6658
661.0,0.6705
662.0,0.6714
663.0,0.6583
664.0,0.6667
665.0,0.6678
666.0,0.6685
667.0,0.6681
668.0,0.6687
669.0,0.6791
670.0,0.6763
671.0,0.6763
672.0,0.6706
673.0,0.6808
674.0,0.6783
675.0,0.6723
676.0,0.677
677.0,0.6703
678.0,0.6723
679.0,0.6616
680.0,0.6669
681.0,0.6625
682.0,0.6617
683.0,0.6604
684.0,0.6572
685.0,0.6629
686.0,0.6588
687.0,0.4104
688.0,0.4935
689.0,0.4957
690.0,0.5243
691.0,0.5567
692.0,0.581
693.0,0.5759
694.0,0.5713
695.0,0.5983
696.0,0.5992
697.0,0.6399
698.0,0.6299
699.0,0.6122
700.0,0.6046
701.0,0.5976
702.0,0.6027
703.0,0.604
704.0,0.6249
705.0,0.6259
706.0,0.626
707.0,0.6267
708.0,0.628
709.0,0.6299
710.0,0.6293
711.0,0.6288
712.0,0.6274
713.0,0.6207
714.0,0.6231
715.0,0.6024
716.0,0.6025
717.0,0.5127
718.0,0.4696
719.0,0.4292
720.0,0.4488
721.0,0.5013
722.0,0.5799
723.0,0.5366
724.0,0.4796
725.0,0.4706
726.0,0.4931
727.0,0.5026
728.0,0.469
729.0,0.49
730.0,0.5182
731.0,0.4949
732.0,0.5331
733.0,0.5678
734.0,0.5823
735.0,0.5697
736.0,0.5689
737.0,0.5711
738.0,0.5824
739.0,0.5709
740.0,0.5866
741.0,0.5812
742.0,0.5822
743.0,0.5972
744.0,0.5958
745.0,0.5961
746.0,0.5988
747.0,0.6002
748.0,0.599
749.0,0.5922
750.0,0.5918
751.0,0.5858
752.0,0.5884
753.0,0.5914
754.0,0.5927
755.0,0.5894
756.0,0.5891
757.0,0.59
758.0,0.5826
759.0,0.5692
760.0,0.07124
761.0,0.03371
762.0,0.2623
763.0,0.1166
764.0,0.1876
765.0,0.2623
766.0,0.3352
767.0,0.4369
768.0,0.5159
769.0,0.5294
770.0,0.5504
771.0,0.5562
772.0,0.5578
773.0,0.5618
774.0,0.5592
775.0,0.555
776.0,0.5618
777.0,0.5544
778.0,0.551
779.0,0.5515
780.0,0.5484
781.0,0.549
782.0,0.5525
783.0,0.5429
784.0,0.5455
785.0,0.5414
786.0,0.5472
787.0,0.5365
788.0,0.5292
789.0,0.5289
790.0,0.5131
791.0,0.5192
792.0,0.5157
793.0,0.5071
794.0,0.5176
795.0,0.5259
796.0,0.5073
797.0,0.5079
798.0,0.525
799.0,0.5212
800.0,0.5116
801.0,0.5094
802.0,0.508
803.0,0.5038
804.0,0.5048
805.0,0.5039
806.0,0.5192
807.0,0.5126
808.0,0.5132
809.0,0.5027
810.0,0.498
811.0,0.4974
812.0,0.4816
813.0,0.4707
814.0,0.409
815.0,0.4067
816.0,0.378
817.0,0.3854
818.0,0.3698
819.0,0.4178
820.0,0.3918
821.0,0.4642
822.0,0.4499
823.0,0.2963
824.0,0.4346
825.0,0.456
826.0,0.4368
827.0,0.463
828.0,0.3867
829.0,0.4345
830.0,0.4283
831.0,0.4299
832.0,0.4156
833.0,0.4451
834.0,0.4274
835.0,0.4738
836.0,0.4508
837.0,0.4753
838.0,0.4591
839.0,0.4684
840.0,0.479
841.0,0.4716
842.0,0.4735
843.0,0.4742
844.0,0.4671
845.0,0.4836
846.0,0.4816
847.0,0.4729
848.0,0.4696
849.0,0.4562
850.0,0.4372
851.0,0.4624
852.0,0.4594
853.0,0.4425
854.0,0.3818
855.0,0.4199
856.0,0.4587
857.0,0.4692
858.0,0.4656
859.0,0.4662
860.0,0.4672
861.0,0.4646
862.0,0.4719
863.0,0.4831
864.0,0.459
865.0,0.455
866.0,0.4091
867.0,0.4269
868.0,0.4646
869.0,0.455
870.0,0.468
871.0,0.4616
872.0,0.46
873.0,0.4591
874.0,0.4536
875.0,0.4444
876.0,0.449
877.0,0.4536
878.0,0.4584
879.0,0.4514
880.0,0.4417
881.0,0.4349
882.0,0.4442
883.0,0.4458
884.0,0.4437
885.0,0.447
886.0,0.4252
887.0,0.4304
888.0,0.4363
889.0,0.442
890.0,0.4374
891.0,0.4371
892.0,0.4234
893.0,0.4089
894.0,0.392
895.0,0.3672
896.0,0.3448
897.0,0.2922
898.0,0.321
899.0,0.2395
900.0,0.3312
901.0,0.2511
902.0,0.301
903.0,0.3018
904.0,0.389
905.0,0.3744
906.0,0.3493
907.0,0.2776
908.0,0.2841
909.0,0.3105
910.0,0.2695
911.0,0.2906
912.0,0.3047
913.0,0.2732
914.0,0.2719
915.0,0.2947
916.0,0.2484
917.0,0.3205
918.0,0.2544
919.0,0.3279
920.0,0.3345
921.0,0.3481
922.0,0.3074
923.0,0.3365
924.0,0.3145
925.0,0.3077
926.0,0.3107
927.0,0.3516
928.0,0.2472
929.0,0.2228
930.0,0.1705
931.0,0.162
932.0,0.1119
933.0,0.08861
934.0,0.04374
935.0,0.09259
936.0,0.05468
937.0,0.05514
938.0,0.069
939.0,0.1569
940.0,0.1922
941.0,0.1405
942.0,0.1654
943.0,0.1052
944.0,0.1142
945.0,0.1458
946.0,0.06942
947.0,0.1452
948.0,0.1061
949.0,0.199
950.0,0.04834
951.0,0.1968
952.0,0.09954
953.0,0.1327
954.0,0.1673
955.0,0.1347
956.0,0.134
957.0,0.09919
958.0,0.1959
959.0,0.1503
960.0,0.1685
961.0,0.1933
962.0,0.1825
963.0,0.214
964.0,0.1949
965.0,0.2134
966.0,0.2127
967.0,0.2114
968.0,0.2969
969.0,0.3086
970.0,0.2818
971.0,0.3285
972.0,0.3131
973.0,0.2666
974.0,0.2523
975.0,0.2641
976.0,0.2475
977.0,0.2882
978.0,0.2711
979.0,0.2858
980.0,0.2676
981.0,0.3268
982.0,0.3103
983.0,0.2966
984.0,0.3393
985.0,0.3091
986.0,0.3468
987.0,0.3382
988.0,0.3377
989.0,0.3468
990.0,0.3356
991.0,0.3476
992.0,0.3498
993.0,0.3402
994.0,0.3499
995.0,0.3497
996.0,0.3479
997.0,0.3485
998.0,0.3468
999.0,0.3456
1000.0,0.3428
1001.0,0.3475
1002.0,0.3362
1003.0,0.3413
1004.0,0.3325
1005.0,0.3209
1006.0,0.3331
1007.0,0.3404
1008.0,0.3382
1009.0,0.336
1010.0,0.3344
1011.0,0.3387
1012.0,0.3354
1013.0,0.3379
1014.0,0.3356
1015.0,0.3333
1016.0,0.3318
1017.0,0.3325
1018.0,0.3315
1019.0,0.3238
1020.0,0.3296
1021.0,0.3293
1022.0,0.3265
1023.0,0.3299
1024.0,0.325
1025.0,0.3299
1026.0,0.3284
1027.0,0.3276
1028.0,0.3269
1029.0,0.323
1030.0,0.3254
1031.0,0.324
1032.0,0.3232
1033.0,0.3183
1034.0,0.3183
1035.0,0.3193
1036.0,0.3209
1037.0,0.3157
1038.0,0.3171
1039.0,0.3168
1040.0,0.3155
1041.0,0.3167
1042.0,0.3145
1043.0,0.3135
1044.0,0.3145
1045.0,0.3102
1046.0,0.3068
1047.0,0.3095
1048.0,0.3111
1049.0,0.31
1050.0,0.3085
1051.0,0.308
1052.0,0.3066
1053.0,0.3041
1054.0,0.3047
1055.0,0.3048
1056.0,0.3036
1057.0,0.3026
1058.0,0.295
1059.0,0.2952
1060.0,0.2947
1061.0,0.2943
1062.0,0.2957
1063.0,0.2928
1064.0,0.2963
1065.0,0.2939
1066.0,0.2883
1067.0,0.2919
1068.0,0.2853
1069.0,0.2767
1070.0,0.2859
1071.0,0.2909
1072.0,0.2871
1073.0,0.2831
1074.0,0.2911
1075.0,0.2747
1076.0,0.2907
1077.0,0.2845
1078.0,0.2787
1079.0,0.2864
1080.0,0.2802
1081.0,0.2703
1082.0,0.2762
1083.0,0.2774
1084.0,0.2692
1085.0,0.281
1086.0,0.2538
1087.0,0.2638
1088.0,0.2768
1089.0,0.2666
1090.0,0.2597
1091.0,0.2754
1092.0,0.2751
1093.0,0.2284
1094.0,0.2511
1095.0,0.2384
1096.0,0.2269
1097.0,0.2688
1098.0,0.2227
1099.0,0.2331
1100.0,0.2147
1101.0,0.218
1102.0,0.2069
1103.0,0.2039
1104.0,0.2043
1105.0,0.2273
1106.0,0.1659
1107.0,0.2144
1108.0,0.1769
1109.0,0.1782
1110.0,0.2117
1111.0,0.1373
1112.0,0.1772
1113.0,0.1064
1114.0,0.1194
1115.0,0.09868
1116.0,0.0751
1117.0,0.02388
1118.0,0.08286
1119.0,0.03797
1120.0,0.04748
1121.0,0.06486
1122.0,0.02466
1123.0,0.04305
1124.0,0.03629
1125.0,0.04812
1126.0,0.0142
1127.0,0.05453
1128.0,0.02977
1129.0,0.03195
1130.0,0.02013
1131.0,0.1106
1132.0,0.08539
1133.0,0.05022
1134.0,0.01087
1135.0,0.004197
1136.0,0.04054
1137.0,0.1072
1138.0,0.07484
1139.0,0.1195
1140.0,0.09683
1141.0,0.07119
1142.0,0.08344
1143.0,0.1218
1144.0,0.03888
1145.0,0.0485
1146.0,0.05225
1147.0,0.01579
1148.0,0.1052
1149.0,0.08168
1150.0,0.04232
1151.0,0.07423
1152.0,0.09412
1153.0,0.09385
1154.0,0.0468
1155.0,0.1245
1156.0,0.1106
1157.0,0.1268
1158.0,0.1254
1159.0,0.1371
1160.0,0.1153
1161.0,0.1463
1162.0,0.1467
1163.0,0.2054
1164.0,0.1736
1165.0,0.1612
1166.0,0.162
1167.0,0.1777
1168.0,0.1791
1169.0,0.1842
1170.0,0.2023
1171.0,0.1971
1172.0,0.2019
1173.0,0.2019
1174.0,0.1391
1175.0,0.1983
1176.0,0.2207
1177.0,0.21
1178.0,0.154
1179.0,0.2225
1180.0,0.1957
1181.0,0.2021
1182.0,0.1353
1183.0,0.1997
1184.0,0.1857
1185.0,0.178
1186.0,0.2151
1187.0,0.2036
1188.0,0.1371
1189.0,0.1895
1190.0,0.2104
1191.0,0.1974
1192.0,0.2136
1193.0,0.2039
1194.0,0.2107
1195.0,0.1976
1196.0,0.1894
1197.0,0.2116
1198.0,0.1926
1199.0,0.1604
1200.0,0.2012
1201.0,0.1928
1202.0,0.1926
1203.0,0.1906
1204.0,0.1651
1205.0,0.1981
1206.0,0.2206
1207.0,0.1917
1208.0,0.1897
1209.0,0.1939
1210.0,0.2027
1211.0,0.1918
1212.0,0.1878
1213.0,0.2125
1214.0,0.193
1215.0,0.1891
1216.0,0.212
1217.0,0.2057
1218.0,0.2102
1219.0,0.2073
1220.0,0.2105
1221.0,0.2129
1222.0,0.2071
1223.0,0.2049
1224.0,0.203
1225.0,0.2115
1226.0,0.2134
1227.0,0.1951
1228.0,0.2148
1229.0,0.2134
1230.0,0.2095
1231.0,0.2165
1232.0,0.2152
1233.0,0.2064
1234.0,0.2166
1235.0,0.215
1236.0,0.2168
1237.0,0.2131
1238.0,0.216
1239.0,0.2133
1240.0,0.2141
1241.0,0.2128
1242.0,0.2126
1243.0,0.2109
1244.0,0.2123
1245.0,0.2133
1246.0,0.2121
1247.0,0.2111
1248.0,0.2108
1249.0,0.2116
1250.0,0.2102
1251.0,0.2073
1252.0,0.2076
1253.0,0.2055
1254.0,0.203
1255.0,0.2073
1256.0,0.2006
1257.0,0.1993
1258.0,0.2037
1259.0,0.1949
1260.0,0.1961
1261.0,0.1833
1262.0,0.1769
1263.0,0.1772
1264.0,0.1614
1265.0,0.1761
1266.0,0.1682
1267.0,0.172
1268.0,0.1617
1269.0,0.09158
1270.0,0.1711
1271.0,0.1829
1272.0,0.1838
1273.0,0.1816
1274.0,0.1824
1275.0,0.1854
1276.0,0.1876
1277.0,0.1893
1278.0,0.1936
1279.0,0.1918
1280.0,0.1894
1281.0,0.1811
1282.0,0.175
1283.0,0.1884
1284.0,0.1928
1285.0,0.1941
1286.0,0.1971
1287.0,0.1935
1288.0,0.1936
1289.0,0.1864
1290.0,0.1919
1291.0,0.1948
1292.0,0.181
1293.0,0.1905
1294.0,0.1891
1295.0,0.1876
1296.0,0.1778
1297.0,0.1672
1298.0,0.182
1299.0,0.191
1300.0,0.1582
1301.0,0.1638
1302.0,0.1815
1303.0,0.1565
1304.0,0.1303
1305.0,0.1776
1306.0,0.1773
1307.0,0.1343
1308.0,0.1573
1309.0,0.1755
1310.0,0.1315
1311.0,0.1501
1312.0,0.1455
1313.0,0.1421
1314.0,0.126
1315.0,0.1236
1316.0,0.1471
1317.0,0.139
1318.0,0.1524
1319.0,0.1152
1320.0,0.1125
1321.0,0.1323
1322.0,0.133
1323.0,0.09685
1324.0,0.1131
1325.0,0.1447
1326.0,0.1222
1327.0,0.116
1328.0,0.09894
1329.0,0.07145
1330.0,0.09446
1331.0,0.05373
1332.0,0.05656
1333.0,0.07942
1334.0,0.0691
1335.0,0.09636
1336.0,0.07441
1337.0,0.06502
1338.0,0.07029
1339.0,0.07046
1340.0,0.06947
1341.0,0.06565
1342.0,0.06917
1343.0,0.04279
1344.0,0.02595
1345.0,0.03745
1346.0,0.01625
1347.0,0.01611
1348.0,0.0007722
1349.0,0.003011
1350.0,0.003316
1351.0,0.0006113
1352.0,0.0001195
1353.0,4.497e-06
1354.0,1.921e-05
1355.0,7.966e-08
1356.0,2.16e-06
1357.0,3.306e-06
1358.0,9.696e-08
1359.0,7.313e-09
1360.0,3.696e-08
1361.0,1.451e-11
1362.0,2.664e-14
1363.0,4.136e-08
1364.0,1.723e-08
1365.0,5.396e-15
1366.0,2.067e-07
1367.0,9.58e-08
1368.0,1.688e-17
1369.0,6.33e-09
1370.0,2.514e-09
1371.0,1.12e-10
1372.0,5.32e-08
1373.0,1.5e-06
1374.0,8.82e-06
1375.0,1.554e-05
1376.0,1.754e-05
1377.0,7.66e-06
1378.0,8.134e-05
1379.0,3.217e-06
1380.0,3.962e-06
1381.0,9.202e-08
1382.0,4.501e-08
1383.0,5.733e-10
1384.0,6.523e-09
1385.0,5.501e-08
1386.0,3.425e-08
1387.0,7.75e-06
1388.0,1.602e-07
1389.0,3.475e-05
1390.0,2.95e-05
1391.0,1.895e-05
1392.0,1.167e-06
1393.0,6.994e-06
1394.0,2.416e-06
1395.0,1.403e-08
1396.0,2.408e-11
1397.0,2.542e-06
1398.0,8.847e-05
1399.0,5.685e-05
1400.0,7.841e-12
1401.0,4.791e-11
1402.0,0.0002247
1403.0,0.0002635
1404.0,7.78e-05
1405.0,5.67e-09
1406.0,0.0001798
1407.0,1.781e-05
1408.0,0.0001505
1409.0,4.159e-05
1410.0,3.868e-05
1411.0,0.0002351
1412.0,0.0003483
1413.0,0.004651
1414.0,3.137e-05
1415.0,1.38e-05
1416.0,0.009159
1417.0,0.002321
1418.0,0.00252
1419.0,0.0003748
1420.0,0.001529
1421.0,0.001693
1422.0,0.01203
1423.0,0.002225
1424.0,0.004311
1425.0,0.006081
1426.0,0.007498
1427.0,0.0151
1428.0,0.0007043
1429.0,0.0106
1430.0,0.01989
1431.0,0.02232
1432.0,0.0005471
1433.0,0.01358
1434.0,0.006604
1435.0,0.0056
1436.0,0.01232
1437.0,0.009492
