interpolation:linear
wavelength,value
280.0,1.052e-21
280.5,3.3840000000000005e-20
281.0,1.801e-19
281.5,5.239e-19
282.0,9.468e-19
282.5,2.354e-18
283.0,7.421e-18
283.5,1.205e-17
284.0,1.951e-16
284.5,5.643e-16
285.0,1.109e-15
285.5,5.351e-15
286.0,2.138e-14
286.5,9.467e-14
287.0,2.688e-13
287.5,1.023e-12
288.0,3.156e-12
288.5,9.861e-12
289.0,2.679e-11
289.5,8.197e-11
290.0,2.292e-10
290.5,4.694e-10
291.0,1.011e-09
291.5,2.911e-09
292.0,6.04e-09
292.5,8.696e-09
293.0,1.923e-08
293.5,4.863e-08
294.0,7.797e-08
294.5,1.027e-07
295.0,1.777e-07
295.5,4.04e-07
296.0,7.29e-07
296.5,1.053e-06
297.0,1.47e-06
297.5,4.165e-06
298.0,6.936e-06
298.5,7.322e-06
299.0,1.701e-05
299.5,3.131e-05
300.0,3.676e-05
300.5,5.731e-05
301.0,0.0001187
301.5,0.0002188
302.0,0.0002043
302.5,0.0004102
303.0,0.000765
303.5,0.000989
304.0,0.0009489
304.5,0.001494
305.0,0.002442
305.5,0.002932
306.0,0.002891
306.5,0.00371
307.0,0.00588
307.5,0.008328
308.0,0.008888
308.5,0.01083
309.0,0.01087
309.5,0.01293
310.0,0.01323
310.5,0.02162
311.0,0.02753
311.5,0.02675
312.0,0.0276
312.5,0.03429
313.0,0.0376
313.5,0.03616
314.0,0.04634
314.5,0.04243
315.0,0.0561
315.5,0.04622
316.0,0.04143
316.5,0.06084
317.0,0.07552
317.5,0.07812
318.0,0.06188
318.5,0.07906
319.0,0.0952
319.5,0.07586
320.0,0.09137
320.5,0.1177
321.0,0.1076
321.5,0.1034
322.0,0.1073
322.5,0.09347
323.0,0.09479
323.5,0.1184
324.0,0.1386
324.5,0.1397
325.0,0.1197
325.5,0.1563
326.0,0.1917
326.5,0.1938
327.0,0.1926
327.5,0.1853
328.0,0.1631
328.5,0.1739
329.0,0.2106
329.5,0.24
330.0,0.2415
330.5,0.1917
331.0,0.1948
331.5,0.1993
332.0,0.2174
332.5,0.216
333.0,0.2149
333.5,0.1933
334.0,0.1978
334.5,0.2302
335.0,0.2173
335.5,0.254
336.0,0.1758
336.5,0.2054
337.0,0.1681
337.5,0.2089
338.0,0.2053
338.5,0.2373
339.0,0.235
339.5,0.2261
340.0,0.2656
340.5,0.2396
341.0,0.2339
341.5,0.215
342.0,0.2571
342.5,0.2406
343.0,0.2646
343.5,0.2492
344.0,0.1842
344.5,0.1861
345.0,0.2466
345.5,0.252
346.0,0.2143
346.5,0.2428
347.0,0.2607
347.5,0.2108
348.0,0.2405
348.5,0.2406
349.0,0.2233
349.5,0.2212
350.0,0.2738
350.5,0.2889
351.0,0.2581
351.5,0.2508
352.0,0.2696
352.5,0.2106
353.0,0.2654
353.5,0.284
354.0,0.2949
354.5,0.2992
355.0,0.2983
355.5,0.2696
356.0,0.2823
356.5,0.2411
357.0,0.1992
357.5,0.244
358.0,0.1935
358.5,0.1654
359.0,0.2314
359.5,0.2949
360.0,0.3127
360.5,0.2501
361.0,0.2281
361.5,0.2629
362.0,0.2275
362.5,0.3151
363.0,0.2832
363.5,0.261
364.0,0.3194
364.5,0.2731
365.0,0.2783
365.5,0.3495
366.0,0.3705
366.5,0.3483
367.0,0.3394
367.5,0.3523
368.0,0.3085
368.5,0.3114
369.0,0.3365
369.5,0.3588
370.0,0.3827
370.5,0.2972
371.0,0.3177
371.5,0.3977
372.0,0.264
372.5,0.3167
373.0,0.3224
373.5,0.2099
374.0,0.3051
374.5,0.2528
375.0,0.2458
375.5,0.3671
376.0,0.3045
376.5,0.3156
377.0,0.3343
377.5,0.3913
378.0,0.4243
378.5,0.4012
379.0,0.3312
379.5,0.3026
380.0,0.3147
380.5,0.3814
381.0,0.3824
381.5,0.3034
382.0,0.2696
382.5,0.23
383.0,0.213
383.5,0.2053
384.0,0.2266
384.5,0.3334
385.0,0.3308
385.5,0.3082
386.0,0.2641
386.5,0.3471
387.0,0.2886
387.5,0.3242
388.0,0.2995
388.5,0.2962
389.0,0.3199
389.5,0.3876
390.0,0.3892
390.5,0.3583
391.0,0.422
391.5,0.4306
392.0,0.3628
392.5,0.325
393.0,0.1809
393.5,0.1316
394.0,0.2678
394.5,0.3407
395.0,0.4159
395.5,0.4226
396.0,0.3666
396.5,0.2144
397.0,0.161
397.5,0.3275
398.0,0.4588
398.5,0.4744
399.0,0.514
399.5,0.5125
400.0,0.5323
401.0,0.5387
402.0,0.5689
403.0,0.5409
404.0,0.5329
405.0,0.5332
406.0,0.5251
407.0,0.5171
408.0,0.5375
409.0,0.5756
410.0,0.5034
411.0,0.5457
412.0,0.5867
413.0,0.5724
414.0,0.5798
415.0,0.5818
416.0,0.5925
417.0,0.5783
418.0,0.5679
419.0,0.5758
420.0,0.5736
421.0,0.6004
422.0,0.571
423.0,0.5581
424.0,0.5905
425.0,0.5898
426.0,0.5751
427.0,0.5647
428.0,0.5503
429.0,0.5217
430.0,0.4569
431.0,0.4529
432.0,0.5852
433.0,0.5888
434.0,0.5469
435.0,0.5713
436.0,0.6443
437.0,0.6361
438.0,0.5796
439.0,0.5992
440.0,0.6187
441.0,0.6415
442.0,0.6883
443.0,0.6704
444.0,0.6854
445.0,0.6706
446.0,0.6406
447.0,0.6931
448.0,0.7038
449.0,0.7072
450.0,0.7274
451.0,0.7546
452.0,0.7274
453.0,0.6844
454.0,0.715
455.0,0.7195
456.0,0.7368
457.0,0.7492
458.0,0.7235
459.0,0.72
460.0,0.7219
461.0,0.7387
462.0,0.7448
463.0,0.7397
464.0,0.7281
465.0,0.7195
466.0,0.7269
467.0,0.7135
468.0,0.722
469.0,0.7258
470.0,0.7027
471.0,0.702
472.0,0.7397
473.0,0.7301
474.0,0.7309
475.0,0.7368
476.0,0.7143
477.0,0.7159
478.0,0.736
479.0,0.7319
480.0,0.7336
481.0,0.7478
482.0,0.7522
483.0,0.7437
484.0,0.7288
485.0,0.6947
486.0,0.6076
487.0,0.6371
488.0,0.699
489.0,0.701
490.0,0.7378
491.0,0.7253
492.0,0.685
493.0,0.7075
494.0,0.7147
495.0,0.7209
496.0,0.7254
497.0,0.7366
498.0,0.7021
499.0,0.7109
500.0,0.69
501.0,0.677
502.0,0.6669
503.0,0.6934
504.0,0.6739
505.0,0.6996
506.0,0.7222
507.0,0.6873
508.0,0.6665
509.0,0.6856
510.0,0.6824
511.0,0.7011
512.0,0.7089
513.0,0.6711
514.0,0.6667
515.0,0.66
516.0,0.6584
517.0,0.5851
518.0,0.6151
519.0,0.6451
520.0,0.6686
521.0,0.6748
522.0,0.6753
523.0,0.663
524.0,0.6864
525.0,0.694
526.0,0.6628
527.0,0.6242
528.0,0.6599
529.0,0.6953
530.0,0.6851
531.0,0.6951
532.0,0.6712
533.0,0.6515
534.0,0.671
535.0,0.6858
536.0,0.6923
537.0,0.6652
538.0,0.6771
539.0,0.6714
540.0,0.6436
541.0,0.6473
542.0,0.6673
543.0,0.6607
544.0,0.6717
545.0,0.6697
546.0,0.6722
547.0,0.6723
548.0,0.6645
549.0,0.6667
550.0,0.6746
551.0,0.6665
552.0,0.6712
553.0,0.6591
554.0,0.6748
555.0,0.676
556.0,0.6671
557.0,0.6462
558.0,0.6411
559.0,0.6288
560.0,0.6365
561.0,0.6444
562.0,0.6394
563.0,0.6565
564.0,0.6383
565.0,0.6325
566.0,0.6229
567.0,0.6343
568.0,0.6277
569.0,0.6108
570.0,0.6109
571.0,0.6078
572.0,0.6211
573.0,0.6275
574.0,0.6252
575.0,0.6131
576.0,0.6075
577.0,0.6143
578.0,0.6057
579.0,0.6089
580.0,0.6219
581.0,0.6262
582.0,0.639
583.0,0.6413
584.0,0.6474
585.0,0.6319
586.0,0.6189
587.0,0.6319
588.0,0.6141
589.0,0.5394
590.0,0.5645
591.0,0.6001
592.0,0.5909
593.0,0.6018
594.0,0.5967
595.0,0.5803
596.0,0.607
597.0,0.5995
598.0,0.5991
599.0,0.6001
600.0,0.602
601.0,0.5978
602.0,0.5939
603.0,0.6041
604.0,0.6142
605.0,0.6113
606.0,0.6092
607.0,0.6157
608.0,0.6093
609.0,0.6107
610.0,0.6068
611.0,0.6102
612.0,0.6086
613.0,0.6012
614.0,0.5933
615.0,0.6066
616.0,0.5869
617.0,0.5859
618.0,0.6087
619.0,0.6026
620.0,0.6064
621.0,0.6067
622.0,0.5993
623.0,0.5899
624.0,0.5801
625.0,0.5788
626.0,0.5873
627.0,0.5929
628.0,0.5431
629.0,0.5752
630.0,0.5616
631.0,0.5779
632.0,0.5717
633.0,0.5905
634.0,0.586
635.0,0.5957
636.0,0.5885
637.0,0.5987
638.0,0.6052
639.0,0.5989
640.0,0.5936
641.0,0.5936
642.0,0.5913
643.0,0.5993
644.0,0.5978
645.0,0.5986
646.0,0.5833
647.0,0.5735
648.0,0.5739
649.0,0.5625
650.0,0.569
651.0,0.5944
652.0,0.5657
653.0,0.5867
654.0,0.5805
655.0,0.5569
656.0,0.495
657.0,0.5085
658.0,0.571
659.0,0.5756
660.0,0.5783
661.0,0.5824
662.0,0.5829
663.0,0.5717
664.0,0.5795
665.0,0.5808
666.0,0.5816
667.0,0.5815
668.0,0.5822
669.0,0.5915
670.0,0.5891
671.0,0.5892
672.0,0.5843
673.0,0.5932
674.0,0.5912
675.0,0.586
676.0,0.5902
677.0,0.5845
678.0,0.5863
679.0,0.5769
680.0,0.5816
681.0,0.5779
682.0,0.5771
683.0,0.5761
684.0,0.5732
685.0,0.5783
686.0,0.5746
687.0,0.3363
688.0,0.4147
689.0,0.4169
690.0,0.4445
691.0,0.4762
692.0,0.5003
693.0,0.4957
694.0,0.492
695.0,0.5181
696.0,0.519
697.0,0.5575
698.0,0.5487
699.0,0.5311
700.0,0.5245
701.0,0.5175
702.0,0.5228
703.0,0.5241
704.0,0.5436
705.0,0.5444
706.0,0.545
707.0,0.5458
708.0,0.5469
709.0,0.5494
710.0,0.5485
711.0,0.5484
712.0,0.5475
713.0,0.5412
714.0,0.5435
715.0,0.5245
716.0,0.5244
717.0,0.4383
718.0,0.4006
719.0,0.3656
720.0,0.3814
721.0,0.4308
722.0,0.5033
723.0,0.4632
724.0,0.411
725.0,0.4023
726.0,0.4218
727.0,0.432
728.0,0.4005
729.0,0.4213
730.0,0.4451
731.0,0.4244
732.0,0.4601
733.0,0.4929
734.0,0.5063
735.0,0.4949
736.0,0.4942
737.0,0.4961
738.0,0.508
739.0,0.498
740.0,0.5122
741.0,0.5079
742.0,0.5092
743.0,0.5224
744.0,0.5214
745.0,0.5219
746.0,0.5242
747.0,0.5255
748.0,0.5245
749.0,0.5185
750.0,0.5182
751.0,0.513
752.0,0.5153
753.0,0.5179
754.0,0.5191
755.0,0.5161
756.0,0.516
757.0,0.5167
758.0,0.5102
759.0,0.4972
760.0,0.04763
761.0,0.02055
762.0,0.2077
763.0,0.08302
764.0,0.142
765.0,0.2075
766.0,0.2753
767.0,0.3699
768.0,0.4461
769.0,0.46
770.0,0.4807
771.0,0.4868
772.0,0.4886
773.0,0.4922
774.0,0.49
775.0,0.4864
776.0,0.4923
777.0,0.4859
778.0,0.4829
779.0,0.4833
780.0,0.4806
781.0,0.4812
782.0,0.4842
783.0,0.4759
784.0,0.4782
785.0,0.4745
786.0,0.4796
787.0,0.4691
788.0,0.4624
789.0,0.462
790.0,0.4469
791.0,0.4535
792.0,0.4506
793.0,0.443
794.0,0.4535
795.0,0.4604
796.0,0.4423
797.0,0.4426
798.0,0.4594
799.0,0.4557
800.0,0.4469
801.0,0.4446
802.0,0.4433
803.0,0.4394
804.0,0.4405
805.0,0.4403
806.0,0.4546
807.0,0.4486
808.0,0.4492
809.0,0.4393
810.0,0.4347
811.0,0.4331
812.0,0.4182
813.0,0.4081
814.0,0.3509
815.0,0.3492
816.0,0.324
817.0,0.3307
818.0,0.3164
819.0,0.3608
820.0,0.3372
821.0,0.4041
822.0,0.391
823.0,0.2505
824.0,0.3759
825.0,0.397
826.0,0.3787
827.0,0.403
828.0,0.3322
829.0,0.3771
830.0,0.3713
831.0,0.3727
832.0,0.3596
833.0,0.3871
834.0,0.3704
835.0,0.4137
836.0,0.3915
837.0,0.4151
838.0,0.4
839.0,0.4093
840.0,0.4189
841.0,0.412
842.0,0.4144
843.0,0.4157
844.0,0.4091
845.0,0.424
846.0,0.4224
847.0,0.415
848.0,0.4118
849.0,0.4
850.0,0.3834
851.0,0.4051
852.0,0.4026
853.0,0.3881
854.0,0.3346
855.0,0.3684
856.0,0.4022
857.0,0.4117
858.0,0.4084
859.0,0.4091
860.0,0.4101
861.0,0.4078
862.0,0.4143
863.0,0.4241
864.0,0.4029
865.0,0.3994
866.0,0.3592
867.0,0.3748
868.0,0.4079
869.0,0.3995
870.0,0.4109
871.0,0.4053
872.0,0.4039
873.0,0.4031
874.0,0.3983
875.0,0.3902
876.0,0.3942
877.0,0.3983
878.0,0.4025
879.0,0.3963
880.0,0.3878
881.0,0.3817
882.0,0.3898
883.0,0.3914
884.0,0.3894
885.0,0.3923
886.0,0.3726
887.0,0.3776
888.0,0.3826
889.0,0.388
890.0,0.3834
891.0,0.3835
892.0,0.3706
893.0,0.3571
894.0,0.3407
895.0,0.317
896.0,0.2971
897.0,0.2493
898.0,0.2752
899.0,0.2025
900.0,0.2855
901.0,0.2122
902.0,0.2583
903.0,0.2577
904.0,0.3381
905.0,0.3246
906.0,0.3022
907.0,0.2361
908.0,0.2425
909.0,0.2666
910.0,0.2283
911.0,0.2485
912.0,0.2608
913.0,0.2313
914.0,0.2309
915.0,0.25
916.0,0.2103
917.0,0.2744
918.0,0.2151
919.0,0.2818
920.0,0.2896
921.0,0.3013
922.0,0.2638
923.0,0.2915
924.0,0.2693
925.0,0.2637
926.0,0.2659
927.0,0.3032
928.0,0.2069
929.0,0.1847
930.0,0.1387
931.0,0.1319
932.0,0.0884
933.0,0.06879
934.0,0.03148
935.0,0.07287
936.0,0.04141
937.0,0.04167
938.0,0.05275
939.0,0.1277
940.0,0.1585
941.0,0.1133
942.0,0.1347
943.0,0.08379
944.0,0.09298
945.0,0.1182
946.0,0.05371
947.0,0.1169
948.0,0.08519
949.0,0.1629
950.0,0.03619
951.0,0.1615
952.0,0.07853
953.0,0.1069
954.0,0.1372
955.0,0.1087
956.0,0.1105
957.0,0.07805
958.0,0.1643
959.0,0.1232
960.0,0.138
961.0,0.1608
962.0,0.1516
963.0,0.1799
964.0,0.1632
965.0,0.1794
966.0,0.1784
967.0,0.177
968.0,0.2566
969.0,0.2656
970.0,0.2418
971.0,0.2853
972.0,0.2711
973.0,0.2275
974.0,0.215
975.0,0.2263
976.0,0.2101
977.0,0.2487
978.0,0.2323
979.0,0.2458
980.0,0.2297
981.0,0.2839
982.0,0.2683
983.0,0.2558
984.0,0.2963
985.0,0.2672
986.0,0.3038
987.0,0.2951
988.0,0.2947
989.0,0.3043
990.0,0.2928
991.0,0.305
992.0,0.307
993.0,0.2975
994.0,0.3072
995.0,0.3072
996.0,0.3054
997.0,0.3061
998.0,0.3045
999.0,0.3035
1000.0,0.3007
1001.0,0.3052
1002.0,0.2942
1003.0,0.2996
1004.0,0.2916
1005.0,0.2819
1006.0,0.2924
1007.0,0.2988
1008.0,0.2968
1009.0,0.2947
1010.0,0.2932
1011.0,0.2974
1012.0,0.2943
1013.0,0.2968
1014.0,0.2947
1015.0,0.2927
1016.0,0.2913
1017.0,0.292
1018.0,0.2912
1019.0,0.284
1020.0,0.2895
1021.0,0.2893
1022.0,0.2867
1023.0,0.2897
1024.0,0.2849
1025.0,0.2898
1026.0,0.2883
1027.0,0.2877
1028.0,0.287
1029.0,0.2835
1030.0,0.2858
1031.0,0.2845
1032.0,0.2838
1033.0,0.2795
1034.0,0.2796
1035.0,0.2804
1036.0,0.2818
1037.0,0.2772
1038.0,0.2784
1039.0,0.2782
1040.0,0.2771
1041.0,0.2781
1042.0,0.2761
1043.0,0.2752
1044.0,0.2761
1045.0,0.2723
1046.0,0.2692
1047.0,0.2716
1048.0,0.273
1049.0,0.2719
1050.0,0.2706
1051.0,0.2701
1052.0,0.2689
1053.0,0.2666
1054.0,0.2671
1055.0,0.2671
1056.0,0.266
1057.0,0.265
1058.0,0.2584
1059.0,0.2585
1060.0,0.258
1061.0,0.2576
1062.0,0.2588
1063.0,0.2561
1064.0,0.2592
1065.0,0.257
1066.0,0.2522
1067.0,0.2553
1068.0,0.2495
1069.0,0.242
1070.0,0.25
1071.0,0.2547
1072.0,0.2511
1073.0,0.2476
1074.0,0.255
1075.0,0.2396
1076.0,0.2547
1077.0,0.2486
1078.0,0.2433
1079.0,0.2511
1080.0,0.2449
1081.0,0.2357
1082.0,0.2417
1083.0,0.2431
1084.0,0.2345
1085.0,0.2456
1086.0,0.2205
1087.0,0.2301
1088.0,0.2423
1089.0,0.2324
1090.0,0.2259
1091.0,0.2409
1092.0,0.2408
1093.0,0.1972
1094.0,0.2194
1095.0,0.2061
1096.0,0.1953
1097.0,0.2353
1098.0,0.1913
1099.0,0.2007
1100.0,0.1837
1101.0,0.1869
1102.0,0.1767
1103.0,0.1736
1104.0,0.174
1105.0,0.1955
1106.0,0.1383
1107.0,0.1835
1108.0,0.1489
1109.0,0.1504
1110.0,0.1807
1111.0,0.1138
1112.0,0.1497
1113.0,0.08659
1114.0,0.09738
1115.0,0.08021
1116.0,0.0592
1117.0,0.01715
1118.0,0.0658
1119.0,0.02862
1120.0,0.03556
1121.0,0.04945
1122.0,0.01754
1123.0,0.03232
1124.0,0.02722
1125.0,0.03651
1126.0,0.009617
1127.0,0.04148
1128.0,0.0213
1129.0,0.023
1130.0,0.0142
1131.0,0.08792
1132.0,0.06718
1133.0,0.03758
1134.0,0.007299
1135.0,0.002886
1136.0,0.02965
1137.0,0.08448
1138.0,0.05863
1139.0,0.09797
1140.0,0.07781
1141.0,0.05582
1142.0,0.0662
1143.0,0.09852
1144.0,0.02967
1145.0,0.03629
1146.0,0.03908
1147.0,0.01066
1148.0,0.08484
1149.0,0.06474
1150.0,0.03269
1151.0,0.05814
1152.0,0.07518
1153.0,0.0761
1154.0,0.0351
1155.0,0.102
1156.0,0.08975
1157.0,0.1046
1158.0,0.1034
1159.0,0.114
1160.0,0.09507
1161.0,0.123
1162.0,0.1231
1163.0,0.1765
1164.0,0.1477
1165.0,0.1357
1166.0,0.1376
1167.0,0.1517
1168.0,0.1525
1169.0,0.1572
1170.0,0.174
1171.0,0.1695
1172.0,0.1745
1173.0,0.1737
1174.0,0.1167
1175.0,0.1713
1176.0,0.1924
1177.0,0.182
1178.0,0.1312
1179.0,0.1941
1180.0,0.1688
1181.0,0.1744
1182.0,0.1143
1183.0,0.1727
1184.0,0.1598
1185.0,0.1524
1186.0,0.1868
1187.0,0.176
1188.0,0.1153
1189.0,0.1636
1190.0,0.1829
1191.0,0.1699
1192.0,0.1858
1193.0,0.1768
1194.0,0.183
1195.0,0.1706
1196.0,0.1628
1197.0,0.1843
1198.0,0.1672
1199.0,0.1369
1200.0,0.1744
1201.0,0.1663
1202.0,0.1668
1203.0,0.1647
1204.0,0.1416
1205.0,0.1722
1206.0,0.1929
1207.0,0.1657
1208.0,0.1647
1209.0,0.1684
1210.0,0.1767
1211.0,0.1663
1212.0,0.1616
1213.0,0.1853
1214.0,0.1665
1215.0,0.163
1216.0,0.1849
1217.0,0.179
1218.0,0.1833
1219.0,0.1805
1220.0,0.1836
1221.0,0.186
1222.0,0.1807
1223.0,0.1786
1224.0,0.1765
1225.0,0.1847
1226.0,0.1867
1227.0,0.1695
1228.0,0.1882
1229.0,0.1867
1230.0,0.183
1231.0,0.19
1232.0,0.1888
1233.0,0.18
1234.0,0.1903
1235.0,0.1888
1236.0,0.1904
1237.0,0.1868
1238.0,0.1898
1239.0,0.1873
1240.0,0.1881
1241.0,0.1867
1242.0,0.1868
1243.0,0.1853
1244.0,0.1865
1245.0,0.1874
1246.0,0.1863
1247.0,0.1854
1248.0,0.185
1249.0,0.1858
1250.0,0.1845
1251.0,0.1818
1252.0,0.1823
1253.0,0.18
1254.0,0.1776
1255.0,0.1819
1256.0,0.1753
1257.0,0.174
1258.0,0.1785
1259.0,0.1697
1260.0,0.1709
1261.0,0.1584
1262.0,0.1521
1263.0,0.1524
1264.0,0.1372
1265.0,0.1514
1266.0,0.1437
1267.0,0.1476
1268.0,0.1378
1269.0,0.07215
1270.0,0.1465
1271.0,0.1582
1272.0,0.1591
1273.0,0.157
1274.0,0.158
1275.0,0.1608
1276.0,0.1629
1277.0,0.1647
1278.0,0.169
1279.0,0.1674
1280.0,0.1654
1281.0,0.1584
1282.0,0.1535
1283.0,0.1651
1284.0,0.1689
1285.0,0.1701
1286.0,0.1729
1287.0,0.1693
1288.0,0.1696
1289.0,0.1624
1290.0,0.1682
1291.0,0.1709
1292.0,0.1572
1293.0,0.1668
1294.0,0.1654
1295.0,0.1636
1296.0,0.1542
1297.0,0.1443
1298.0,0.1586
1299.0,0.1673
1300.0,0.1362
1301.0,0.1414
1302.0,0.1581
1303.0,0.135
1304.0,0.1103
1305.0,0.1546
1306.0,0.1542
1307.0,0.1145
1308.0,0.1361
1309.0,0.1523
1310.0,0.1119
1311.0,0.1294
1312.0,0.1251
1313.0,0.1216
1314.0,0.1071
1315.0,0.1046
1316.0,0.1264
1317.0,0.1191
1318.0,0.1315
1319.0,0.09688
1320.0,0.09512
1321.0,0.1128
1322.0,0.1129
1323.0,0.08016
1324.0,0.09523
1325.0,0.1241
1326.0,0.1035
1327.0,0.09785
1328.0,0.08275
1329.0,0.05798
1330.0,0.07761
1331.0,0.04223
1332.0,0.04505
1333.0,0.06363
1334.0,0.05665
1335.0,0.0796
1336.0,0.06036
1337.0,0.05241
1338.0,0.05653
1339.0,0.05695
1340.0,0.05673
1341.0,0.05224
1342.0,0.05523
1343.0,0.03194
1344.0,0.01961
1345.0,0.02817
1346.0,0.01105
1347.0,0.01074
1348.0,0.0004159
1349.0,0.001707
1350.0,0.001949
1351.0,0.0002945
1352.0,4.44e-05
1353.0,1.373e-06
1354.0,6.862e-06
1355.0,1.797e-08
1356.0,6.563e-07
1357.0,1.002e-06
1358.0,2.226e-08
1359.0,1.218e-09
1360.0,7.51e-09
1361.0,1.944e-12
1362.0,3.747e-15
1363.0,7.181e-09
1364.0,3.11e-09
1365.0,9.573e-16
1366.0,3.877e-08
1367.0,2.014e-08
1368.0,6.233e-18
1369.0,1.14e-09
1370.0,4.009e-10
1371.0,1.633e-11
1372.0,1.133e-08
1373.0,3.951e-07
1374.0,2.739e-06
1375.0,4.604e-06
1376.0,6.336e-06
1377.0,2.687e-06
1378.0,2.936e-05
1379.0,1.138e-06
1380.0,1.232e-06
1381.0,2.704e-08
1382.0,9.149e-09
1383.0,1.087e-10
1384.0,1.102e-09
1385.0,1.347e-08
1386.0,6.245e-09
1387.0,2.076e-06
1388.0,4.715e-08
1389.0,1.158e-05
1390.0,9.621e-06
1391.0,6.11e-06
1392.0,3.723e-07
1393.0,2.412e-06
1394.0,6.089e-07
1395.0,3.14e-09
1396.0,3.204e-12
1397.0,8.23e-07
1398.0,3.094e-05
1399.0,2.02e-05
1400.0,9.961e-13
1401.0,6.521e-12
1402.0,0.0001059
1403.0,0.000117
1404.0,3.354e-05
1405.0,1.118e-09
1406.0,7.006e-05
1407.0,7.895e-06
1408.0,5.99e-05
1409.0,1.428e-05
1410.0,1.527e-05
1411.0,0.0001058
1412.0,0.0001683
1413.0,0.002662
1414.0,1.269e-05
1415.0,5.253e-06
1416.0,0.00601
1417.0,0.001372
1418.0,0.001409
1419.0,0.0002047
1420.0,0.0008518
1421.0,0.000981
1422.0,0.007894
1423.0,0.001433
1424.0,0.002845
1425.0,0.003874
1426.0,0.005062
1427.0,0.01071
1428.0,0.00037
1429.0,0.007214
1430.0,0.01444
1431.0,0.01641
1432.0,0.0002855
1433.0,0.009731
1434.0,0.004611
1435.0,0.003527
