interpolation:linear
wavelength,value
280.0,2.459e-22
280.5,8.1e-21
281.0,4.3450000000000004e-20
281.5,3.94e-19
282.0,6.392e-19
282.5,1.585e-18
283.0,5.016e-18
283.5,8.169e-18
284.0,1.347e-16
284.5,3.933e-16
285.0,6.448e-16
285.5,3.222e-15
286.0,1.3e-14
286.5,5.862e-14
287.0,1.684e-13
287.5,6.498e-13
288.0,2.268e-12
288.5,6.805e-12
289.0,1.803e-11
289.5,5.426e-11
290.0,1.504e-10
290.5,3.063e-10
291.0,6.572e-10
291.5,1.886e-09
292.0,3.79e-09
292.5,5.326e-09
293.0,1.144e-08
293.5,2.792e-08
294.0,4.372e-08
294.5,5.991e-08
295.0,1.016e-07
295.5,1.695e-07
296.0,3.295e-07
296.5,4.645e-07
297.0,6.329e-07
297.5,1.719e-06
298.0,2.743e-06
298.5,2.788e-06
299.0,6.214e-06
299.5,1.055e-05
300.0,1.176e-05
300.5,1.728e-05
301.0,3.208e-05
301.5,5.237e-05
302.0,4.534e-05
302.5,9.139e-05
303.0,0.0001718
303.5,0.0002243
304.0,0.0002186
304.5,0.0003598
305.0,0.0006287
305.5,0.0007895
306.0,0.0007922
306.5,0.001048
307.0,0.001783
307.5,0.002713
308.0,0.002929
308.5,0.003702
309.0,0.003728
309.5,0.004753
310.0,0.005017
310.5,0.008327
311.0,0.01088
311.5,0.01069
312.0,0.01165
312.5,0.01501
313.0,0.01677
313.5,0.01584
314.0,0.02119
314.5,0.02055
315.0,0.02744
315.5,0.02198
316.0,0.02064
316.5,0.03153
317.0,0.03911
317.5,0.03999
318.0,0.03254
318.5,0.0438
319.0,0.05413
319.5,0.04135
320.0,0.04948
320.5,0.06721
321.0,0.06442
321.5,0.06223
322.0,0.0613
322.5,0.05356
323.0,0.05615
323.5,0.07247
324.0,0.08532
324.5,0.08483
325.0,0.07133
325.5,0.09563
326.0,0.1185
326.5,0.1219
327.0,0.1204
327.5,0.1148
328.0,0.09865
328.5,0.1083
329.0,0.1343
329.5,0.1541
330.0,0.1541
330.5,0.1202
331.0,0.1214
331.5,0.1258
332.0,0.14
332.5,0.1403
333.0,0.1389
333.5,0.1231
334.0,0.1257
334.5,0.1487
335.0,0.1417
335.5,0.1661
336.0,0.115
336.5,0.1334
337.0,0.1083
337.5,0.1343
338.0,0.1338
338.5,0.1554
339.0,0.154
339.5,0.1482
340.0,0.1733
340.5,0.1566
341.0,0.1533
341.5,0.1412
342.0,0.1689
342.5,0.1582
343.0,0.1738
343.5,0.1636
344.0,0.1205
344.5,0.1221
345.0,0.162
345.5,0.1657
346.0,0.141
346.5,0.1599
347.0,0.1715
347.5,0.1387
348.0,0.1585
348.5,0.1586
349.0,0.1473
349.5,0.1459
350.0,0.1806
350.5,0.1906
351.0,0.1703
351.5,0.1653
352.0,0.1778
352.5,0.139
353.0,0.1753
353.5,0.1876
354.0,0.195
354.5,0.1978
355.0,0.1972
355.5,0.1783
356.0,0.1867
356.5,0.1595
357.0,0.1318
357.5,0.1615
358.0,0.1281
358.5,0.1095
359.0,0.1532
359.5,0.1952
360.0,0.2071
360.5,0.1656
361.0,0.1511
361.5,0.1743
362.0,0.1509
362.5,0.2091
363.0,0.188
363.5,0.1733
364.0,0.2122
364.5,0.1815
365.0,0.1849
365.5,0.2323
366.0,0.2463
366.5,0.2317
367.0,0.2258
367.5,0.2344
368.0,0.2053
368.5,0.2073
369.0,0.2241
369.5,0.239
370.0,0.255
370.5,0.1981
371.0,0.2118
371.5,0.2652
372.0,0.1761
372.5,0.2113
373.0,0.2151
373.5,0.1401
374.0,0.2037
374.5,0.1688
375.0,0.1642
375.5,0.2453
376.0,0.2035
376.5,0.211
377.0,0.2235
377.5,0.2617
378.0,0.2838
378.5,0.2684
379.0,0.2216
379.5,0.2025
380.0,0.2106
380.5,0.2554
381.0,0.2562
381.5,0.2033
382.0,0.1807
382.5,0.1542
383.0,0.1429
383.5,0.1378
384.0,0.1521
384.5,0.2239
385.0,0.2222
385.5,0.2071
386.0,0.1775
386.5,0.2334
387.0,0.1941
387.5,0.2181
388.0,0.2015
388.5,0.1994
389.0,0.2153
389.5,0.261
390.0,0.2622
390.5,0.2414
391.0,0.2844
391.5,0.2903
392.0,0.2446
392.5,0.2192
393.0,0.1221
393.5,0.08882
394.0,0.1809
394.5,0.2301
395.0,0.281
395.5,0.2856
396.0,0.2478
396.5,0.145
397.0,0.1089
397.5,0.2216
398.0,0.3104
398.5,0.3211
399.0,0.3481
399.5,0.3472
400.0,0.3606
401.0,0.3636
402.0,0.3842
403.0,0.3656
404.0,0.3604
405.0,0.3608
406.0,0.3555
407.0,0.3503
408.0,0.3642
409.0,0.3903
410.0,0.3415
411.0,0.3705
412.0,0.3986
413.0,0.389
414.0,0.3943
415.0,0.396
416.0,0.4036
417.0,0.394
418.0,0.3871
419.0,0.3927
420.0,0.3914
421.0,0.4099
422.0,0.39
423.0,0.3814
424.0,0.4036
425.0,0.4034
426.0,0.3937
427.0,0.3867
428.0,0.377
429.0,0.3578
430.0,0.3135
431.0,0.3108
432.0,0.4019
433.0,0.4045
434.0,0.3758
435.0,0.3927
436.0,0.4432
437.0,0.438
438.0,0.3993
439.0,0.4126
440.0,0.4262
441.0,0.4422
442.0,0.4746
443.0,0.4622
444.0,0.4728
445.0,0.4627
446.0,0.4425
447.0,0.4792
448.0,0.4864
449.0,0.4893
450.0,0.5035
451.0,0.5225
452.0,0.5039
453.0,0.4743
454.0,0.4959
455.0,0.4991
456.0,0.5113
457.0,0.5199
458.0,0.5019
459.0,0.4996
460.0,0.5008
461.0,0.5126
462.0,0.5172
463.0,0.5137
464.0,0.5061
465.0,0.5007
466.0,0.5062
467.0,0.4968
468.0,0.5027
469.0,0.5054
470.0,0.4893
471.0,0.4889
472.0,0.5152
473.0,0.5086
474.0,0.5088
475.0,0.5126
476.0,0.4965
477.0,0.4973
478.0,0.5114
479.0,0.5088
480.0,0.5102
481.0,0.5205
482.0,0.524
483.0,0.5186
484.0,0.5085
485.0,0.4851
486.0,0.4247
487.0,0.4457
488.0,0.4889
489.0,0.4903
490.0,0.5162
491.0,0.5077
492.0,0.4796
493.0,0.4954
494.0,0.5005
495.0,0.5049
496.0,0.5081
497.0,0.5159
498.0,0.4917
499.0,0.4976
500.0,0.4827
501.0,0.4733
502.0,0.4656
503.0,0.4835
504.0,0.4681
505.0,0.4874
506.0,0.5031
507.0,0.4789
508.0,0.4649
509.0,0.4787
510.0,0.4769
511.0,0.4903
512.0,0.496
513.0,0.4696
514.0,0.4666
515.0,0.462
516.0,0.4608
517.0,0.4096
518.0,0.4305
519.0,0.4515
520.0,0.4678
521.0,0.4722
522.0,0.4723
523.0,0.4636
524.0,0.4797
525.0,0.4845
526.0,0.4625
527.0,0.4352
528.0,0.4598
529.0,0.4842
530.0,0.4769
531.0,0.4837
532.0,0.4669
533.0,0.4533
534.0,0.4669
535.0,0.4775
536.0,0.4823
537.0,0.4636
538.0,0.472
539.0,0.468
540.0,0.4485
541.0,0.4505
542.0,0.4642
543.0,0.46
544.0,0.4672
545.0,0.4659
546.0,0.4672
547.0,0.4677
548.0,0.4624
549.0,0.4641
550.0,0.4696
551.0,0.4641
552.0,0.4673
553.0,0.4588
554.0,0.4697
555.0,0.4704
556.0,0.4642
557.0,0.4494
558.0,0.4456
559.0,0.4367
560.0,0.4418
561.0,0.4471
562.0,0.4433
563.0,0.4547
564.0,0.4417
565.0,0.4375
566.0,0.4306
567.0,0.4381
568.0,0.4326
569.0,0.4192
570.0,0.4195
571.0,0.4177
572.0,0.4257
573.0,0.4299
574.0,0.428
575.0,0.4193
576.0,0.4155
577.0,0.4204
578.0,0.415
579.0,0.4181
580.0,0.4283
581.0,0.4322
582.0,0.442
583.0,0.4443
584.0,0.449
585.0,0.4386
586.0,0.4296
587.0,0.4381
588.0,0.4236
589.0,0.3678
590.0,0.3852
591.0,0.4121
592.0,0.4043
593.0,0.4137
594.0,0.4094
595.0,0.3965
596.0,0.4183
597.0,0.4122
598.0,0.413
599.0,0.4142
600.0,0.4163
601.0,0.4141
602.0,0.4115
603.0,0.4189
604.0,0.4262
605.0,0.4243
606.0,0.4233
607.0,0.4282
608.0,0.4242
609.0,0.4255
610.0,0.4232
611.0,0.4258
612.0,0.425
613.0,0.42
614.0,0.4148
615.0,0.4244
616.0,0.4109
617.0,0.4105
618.0,0.4266
619.0,0.4225
620.0,0.4252
621.0,0.4251
622.0,0.4196
623.0,0.4128
624.0,0.4062
625.0,0.4053
626.0,0.4111
627.0,0.4143
628.0,0.3695
629.0,0.3984
630.0,0.3886
631.0,0.4033
632.0,0.3996
633.0,0.4142
634.0,0.4122
635.0,0.4196
636.0,0.4152
637.0,0.4229
638.0,0.4283
639.0,0.4242
640.0,0.421
641.0,0.4213
642.0,0.4202
643.0,0.4259
644.0,0.4253
645.0,0.4256
646.0,0.4135
647.0,0.4038
648.0,0.4043
649.0,0.3958
650.0,0.404
651.0,0.4226
652.0,0.3988
653.0,0.4174
654.0,0.4133
655.0,0.3947
656.0,0.3521
657.0,0.3619
658.0,0.4076
659.0,0.4113
660.0,0.4135
661.0,0.4166
662.0,0.4163
663.0,0.4086
664.0,0.4152
665.0,0.4169
666.0,0.4178
667.0,0.4181
668.0,0.419
669.0,0.4259
670.0,0.4244
671.0,0.4247
672.0,0.4213
673.0,0.4279
674.0,0.4266
675.0,0.4231
676.0,0.4262
677.0,0.4223
678.0,0.4237
679.0,0.4171
680.0,0.4206
681.0,0.4179
682.0,0.4174
683.0,0.4167
684.0,0.4146
685.0,0.4184
686.0,0.4156
687.0,0.2045
688.0,0.2703
689.0,0.2724
690.0,0.297
691.0,0.326
692.0,0.3492
693.0,0.3456
694.0,0.3443
695.0,0.3678
696.0,0.3689
697.0,0.4021
698.0,0.3956
699.0,0.3788
700.0,0.3739
701.0,0.3672
702.0,0.3726
703.0,0.374
704.0,0.3904
705.0,0.3909
706.0,0.3922
707.0,0.3933
708.0,0.3939
709.0,0.3975
710.0,0.3959
711.0,0.3964
712.0,0.3967
713.0,0.3913
714.0,0.3932
715.0,0.3777
716.0,0.3772
717.0,0.3008
718.0,0.274
719.0,0.249
720.0,0.2581
721.0,0.2998
722.0,0.3593
723.0,0.3264
724.0,0.2842
725.0,0.2765
726.0,0.2902
727.0,0.3011
728.0,0.2746
729.0,0.294
730.0,0.3091
731.0,0.294
732.0,0.3242
733.0,0.3521
734.0,0.3633
735.0,0.3543
736.0,0.3534
737.0,0.3549
738.0,0.3675
739.0,0.3603
740.0,0.3719
741.0,0.3694
742.0,0.3711
743.0,0.381
744.0,0.3807
745.0,0.3815
746.0,0.3832
747.0,0.3843
748.0,0.3835
749.0,0.3792
750.0,0.3791
751.0,0.3753
752.0,0.377
753.0,0.379
754.0,0.3798
755.0,0.3776
756.0,0.3776
757.0,0.3781
758.0,0.3733
759.0,0.3611
760.0,0.01696
761.0,0.005956
762.0,0.1146
763.0,0.03449
764.0,0.06936
765.0,0.1144
766.0,0.1683
767.0,0.2461
768.0,0.315
769.0,0.3291
770.0,0.349
771.0,0.3557
772.0,0.3577
773.0,0.3605
774.0,0.359
775.0,0.3565
776.0,0.361
777.0,0.3562
778.0,0.354
779.0,0.3543
780.0,0.3524
781.0,0.3529
782.0,0.3552
783.0,0.3491
784.0,0.3509
785.0,0.348
786.0,0.3515
787.0,0.3419
788.0,0.336
789.0,0.3358
790.0,0.3222
791.0,0.3296
792.0,0.3279
793.0,0.3221
794.0,0.3324
795.0,0.3367
796.0,0.3198
797.0,0.3196
798.0,0.3355
799.0,0.3322
800.0,0.3249
801.0,0.3223
802.0,0.3213
803.0,0.3179
804.0,0.3192
805.0,0.3201
806.0,0.3324
807.0,0.3277
808.0,0.3283
809.0,0.3196
810.0,0.3154
811.0,0.3124
812.0,0.2989
813.0,0.2909
814.0,0.2437
815.0,0.2431
816.0,0.2247
817.0,0.2295
818.0,0.2181
819.0,0.2542
820.0,0.2358
821.0,0.2912
822.0,0.2804
823.0,0.1676
824.0,0.2662
825.0,0.2862
826.0,0.2702
827.0,0.2903
828.0,0.2313
829.0,0.2696
830.0,0.2649
831.0,0.2659
832.0,0.2551
833.0,0.2782
834.0,0.2638
835.0,0.3008
836.0,0.2804
837.0,0.3018
838.0,0.2886
839.0,0.2978
840.0,0.3053
841.0,0.2994
842.0,0.3025
843.0,0.305
844.0,0.2993
845.0,0.3113
846.0,0.3104
847.0,0.3054
848.0,0.3024
849.0,0.2938
850.0,0.2816
851.0,0.2969
852.0,0.2954
853.0,0.2853
854.0,0.2455
855.0,0.2709
856.0,0.2955
857.0,0.3029
858.0,0.3003
859.0,0.3011
860.0,0.302
861.0,0.3003
862.0,0.3052
863.0,0.3124
864.0,0.2968
865.0,0.2944
866.0,0.2647
867.0,0.2763
868.0,0.3007
869.0,0.2945
870.0,0.3029
871.0,0.2988
872.0,0.2978
873.0,0.2972
874.0,0.2937
875.0,0.2877
876.0,0.2906
877.0,0.2936
878.0,0.2966
879.0,0.2921
880.0,0.2859
881.0,0.281
882.0,0.2868
883.0,0.2883
884.0,0.2868
885.0,0.2889
886.0,0.2732
887.0,0.2778
888.0,0.281
889.0,0.2859
890.0,0.2813
891.0,0.282
892.0,0.2709
893.0,0.2597
894.0,0.2445
895.0,0.2235
896.0,0.2086
897.0,0.1707
898.0,0.1904
899.0,0.1355
900.0,0.2005
901.0,0.1419
902.0,0.179
903.0,0.1763
904.0,0.2425
905.0,0.2315
906.0,0.2143
907.0,0.1602
908.0,0.1662
909.0,0.1853
910.0,0.1536
911.0,0.1716
912.0,0.1799
913.0,0.1553
914.0,0.1562
915.0,0.1684
916.0,0.1412
917.0,0.1891
918.0,0.1439
919.0,0.1962
920.0,0.206
921.0,0.2137
922.0,0.1835
923.0,0.2073
924.0,0.1859
925.0,0.1824
926.0,0.1831
927.0,0.2124
928.0,0.1345
929.0,0.1172
930.0,0.08355
931.0,0.07927
932.0,0.04885
933.0,0.03633
934.0,0.01351
935.0,0.03979
936.0,0.02042
937.0,0.02053
938.0,0.02677
939.0,0.07658
940.0,0.09849
941.0,0.06641
942.0,0.08091
943.0,0.04734
944.0,0.05584
945.0,0.07023
946.0,0.02812
947.0,0.06842
948.0,0.04955
949.0,0.09946
950.0,0.01756
951.0,0.0989
952.0,0.04361
953.0,0.06261
954.0,0.08406
955.0,0.06412
956.0,0.06983
957.0,0.04318
958.0,0.1071
959.0,0.07566
960.0,0.08483
961.0,0.1027
962.0,0.09682
963.0,0.1183
964.0,0.1065
965.0,0.1176
966.0,0.1168
967.0,0.1153
968.0,0.1815
969.0,0.1854
970.0,0.1679
971.0,0.2042
972.0,0.1926
973.0,0.1557
974.0,0.1469
975.0,0.1563
976.0,0.1416
977.0,0.1753
978.0,0.1607
979.0,0.1716
980.0,0.1596
981.0,0.2033
982.0,0.1899
983.0,0.1799
984.0,0.2151
985.0,0.1889
986.0,0.2224
987.0,0.2141
988.0,0.214
989.0,0.2241
990.0,0.2126
991.0,0.2243
992.0,0.226
993.0,0.217
994.0,0.2264
995.0,0.2267
996.0,0.2251
997.0,0.2257
998.0,0.2244
999.0,0.2238
1000.0,0.2212
1001.0,0.2251
1002.0,0.2148
1003.0,0.2209
1004.0,0.2144
1005.0,0.208
1006.0,0.2154
1007.0,0.2203
1008.0,0.2185
1009.0,0.2165
1010.0,0.2152
1011.0,0.2193
1012.0,0.2167
1013.0,0.219
1014.0,0.2175
1015.0,0.2159
1016.0,0.2149
1017.0,0.2153
1018.0,0.215
1019.0,0.2088
1020.0,0.2136
1021.0,0.2136
1022.0,0.2113
1023.0,0.2135
1024.0,0.2091
1025.0,0.2139
1026.0,0.2125
1027.0,0.2122
1028.0,0.2116
1029.0,0.2089
1030.0,0.2109
1031.0,0.2098
1032.0,0.2094
1033.0,0.2062
1034.0,0.2063
1035.0,0.2069
1036.0,0.2078
1037.0,0.2045
1038.0,0.2054
1039.0,0.2051
1040.0,0.2043
1041.0,0.2049
1042.0,0.2035
1043.0,0.2028
1044.0,0.2034
1045.0,0.2005
1046.0,0.1982
1047.0,0.1999
1048.0,0.2008
1049.0,0.2
1050.0,0.1989
1051.0,0.1985
1052.0,0.1975
1053.0,0.1958
1054.0,0.196
1055.0,0.1959
1056.0,0.1949
1057.0,0.1941
1058.0,0.1891
1059.0,0.189
1060.0,0.1886
1061.0,0.1883
1062.0,0.189
1063.0,0.1869
1064.0,0.1892
1065.0,0.1873
1066.0,0.184
1067.0,0.1862
1068.0,0.1817
1069.0,0.1765
1070.0,0.1821
1071.0,0.1863
1072.0,0.1831
1073.0,0.1807
1074.0,0.1869
1075.0,0.1736
1076.0,0.1865
1077.0,0.181
1078.0,0.1765
1079.0,0.1843
1080.0,0.1783
1081.0,0.1705
1082.0,0.1767
1083.0,0.1781
1084.0,0.1694
1085.0,0.179
1086.0,0.1581
1087.0,0.1666
1088.0,0.1773
1089.0,0.168
1090.0,0.1624
1091.0,0.1757
1092.0,0.176
1093.0,0.1393
1094.0,0.1598
1095.0,0.1456
1096.0,0.1367
1097.0,0.172
1098.0,0.133
1099.0,0.1402
1100.0,0.1266
1101.0,0.1296
1102.0,0.121
1103.0,0.1179
1104.0,0.1184
1105.0,0.1362
1106.0,0.08895
1107.0,0.1265
1108.0,0.09822
1109.0,0.09987
1110.0,0.1234
1111.0,0.07183
1112.0,0.09968
1113.0,0.05226
1114.0,0.05886
1115.0,0.04791
1116.0,0.03263
1117.0,0.007442
1118.0,0.03678
1119.0,0.01392
1120.0,0.01689
1121.0,0.02456
1122.0,0.007172
1123.0,0.01543
1124.0,0.01296
1125.0,0.01798
1126.0,0.003424
1127.0,0.02057
1128.0,0.008903
1129.0,0.009747
1130.0,0.005852
1131.0,0.0492
1132.0,0.03651
1133.0,0.01778
1134.0,0.00257
1135.0,0.001094
1136.0,0.01314
1137.0,0.04617
1138.0,0.03149
1139.0,0.05962
1140.0,0.04489
1141.0,0.03009
1142.0,0.03682
1143.0,0.05795
1144.0,0.01493
1145.0,0.01711
1146.0,0.0184
1147.0,0.003761
1148.0,0.04933
1149.0,0.03594
1150.0,0.01721
1151.0,0.03125
1152.0,0.04261
1153.0,0.04492
1154.0,0.01696
1155.0,0.06203
1156.0,0.0532
1157.0,0.06531
1158.0,0.06438
1159.0,0.0722
1160.0,0.05951
1161.0,0.08079
1162.0,0.08037
1163.0,0.1227
1164.0,0.1002
1165.0,0.0895
1166.0,0.09311
1167.0,0.1038
1168.0,0.1038
1169.0,0.1076
1170.0,0.1214
1171.0,0.1183
1172.0,0.1234
1173.0,0.1213
1174.0,0.0768
1175.0,0.1212
1176.0,0.1393
1177.0,0.1295
1178.0,0.08976
1179.0,0.1405
1180.0,0.1188
1181.0,0.1228
1182.0,0.07621
1183.0,0.1223
1184.0,0.1117
1185.0,0.105
1186.0,0.1336
1187.0,0.1243
1188.0,0.07589
1189.0,0.1154
1190.0,0.1312
1191.0,0.1187
1192.0,0.1336
1193.0,0.1261
1194.0,0.1313
1195.0,0.1201
1196.0,0.1135
1197.0,0.1329
1198.0,0.1198
1199.0,0.09384
1200.0,0.1244
1201.0,0.1169
1202.0,0.1189
1203.0,0.1163
1204.0,0.09834
1205.0,0.1238
1206.0,0.1408
1207.0,0.1173
1208.0,0.1179
1209.0,0.1208
1210.0,0.1277
1211.0,0.1188
1212.0,0.1127
1213.0,0.1339
1214.0,0.1171
1215.0,0.1145
1216.0,0.134
1217.0,0.1289
1218.0,0.1327
1219.0,0.1301
1220.0,0.133
1221.0,0.1353
1222.0,0.1312
1223.0,0.1292
1224.0,0.1267
1225.0,0.1342
1226.0,0.1363
1227.0,0.1214
1228.0,0.138
1229.0,0.1363
1230.0,0.1332
1231.0,0.1399
1232.0,0.1389
1233.0,0.1304
1234.0,0.1406
1235.0,0.1391
1236.0,0.1406
1237.0,0.1371
1238.0,0.1401
1239.0,0.1383
1240.0,0.139
1241.0,0.1374
1242.0,0.1379
1243.0,0.1369
1244.0,0.1375
1245.0,0.1383
1246.0,0.1375
1247.0,0.1367
1248.0,0.1361
1249.0,0.137
1250.0,0.1359
1251.0,0.1335
1252.0,0.1343
1253.0,0.1319
1254.0,0.1295
1255.0,0.1338
1256.0,0.1275
1257.0,0.1263
1258.0,0.1307
1259.0,0.122
1260.0,0.1232
1261.0,0.1115
1262.0,0.1057
1263.0,0.1058
1264.0,0.09223
1265.0,0.1052
1266.0,0.09798
1267.0,0.1019
1268.0,0.09314
1269.0,0.039
1270.0,0.1007
1271.0,0.1117
1272.0,0.1126
1273.0,0.1109
1274.0,0.1119
1275.0,0.1144
1276.0,0.1165
1277.0,0.1185
1278.0,0.1227
1279.0,0.1214
1280.0,0.12
1281.0,0.1154
1282.0,0.1127
1283.0,0.1211
1284.0,0.1237
1285.0,0.1248
1286.0,0.1273
1287.0,0.1238
1288.0,0.1243
1289.0,0.1173
1290.0,0.1233
1291.0,0.1256
1292.0,0.1126
1293.0,0.1219
1294.0,0.1208
1295.0,0.1184
1296.0,0.1098
1297.0,0.1016
1298.0,0.1144
1299.0,0.1225
1300.0,0.09553
1301.0,0.09985
1302.0,0.1142
1303.0,0.09507
1304.0,0.07383
1305.0,0.1115
1306.0,0.1106
1307.0,0.07811
1308.0,0.0965
1309.0,0.1085
1310.0,0.07594
1311.0,0.09079
1312.0,0.08735
1313.0,0.08384
1314.0,0.0724
1315.0,0.06988
1316.0,0.08793
1317.0,0.08223
1318.0,0.09254
1319.0,0.06372
1320.0,0.06339
1321.0,0.07691
1322.0,0.07603
1323.0,0.05041
1324.0,0.06287
1325.0,0.0857
1326.0,0.0693
1327.0,0.06486
1328.0,0.05352
1329.0,0.03446
1330.0,0.04793
1331.0,0.02309
1332.0,0.02545
1333.0,0.0365
1334.0,0.03489
1335.0,0.0496
1336.0,0.03575
1337.0,0.03077
1338.0,0.03288
1339.0,0.03351
1340.0,0.03435
1341.0,0.02935
1342.0,0.03139
1343.0,0.01516
1344.0,0.009672
1345.0,0.01347
1346.0,0.004005
1347.0,0.003654
1348.0,8.429e-05
1349.0,0.0003814
1350.0,0.0004647
1351.0,4.368e-05
1352.0,3.607e-06
1353.0,9.954e-08
1354.0,5.718e-07
1355.0,1.626e-09
1356.0,4.815e-08
1357.0,7.255e-08
1358.0,1.945e-09
1359.0,2.077e-10
1360.0,8.052e-10
1361.0,8.212e-13
1362.0,2.244e-15
1363.0,1.017e-09
1364.0,4.252e-10
1365.0,7.831e-16
1366.0,4.506e-09
1367.0,1.96e-09
1368.0,6.047e-18
1369.0,1.569e-10
1370.0,7.519e-11
1371.0,4.219e-12
1372.0,1.077e-09
1373.0,2.801e-08
1374.0,1.915e-07
1375.0,2.965e-07
1376.0,5.316e-07
1377.0,2.196e-07
1378.0,2.265e-06
1379.0,9.628e-08
1380.0,8.78e-08
1381.0,2.013e-09
1382.0,9.182e-10
1383.0,1.33e-11
1384.0,1.675e-10
1385.0,1.044e-09
1386.0,7.695e-10
1387.0,1.33e-07
1388.0,3.446e-09
1389.0,8.207e-07
1390.0,6.436e-07
1391.0,4.235e-07
1392.0,2.768e-08
1393.0,1.899e-07
1394.0,4.171e-08
1395.0,2.678e-10
1396.0,1.071e-12
1397.0,6.076e-08
1398.0,2.212e-06
1399.0,1.501e-06
1400.0,4.568e-13
1401.0,1.903e-12
1402.0,1.522e-05
1403.0,1.415e-05
1404.0,3.667e-06
1405.0,1.152e-10
1406.0,5.976e-06
1407.0,1.034e-06
1408.0,5.385e-06
1409.0,9.908e-07
1410.0,1.474e-06
1411.0,1.329e-05
1412.0,2.544e-05
1413.0,0.0005843
1414.0,1.303e-06
1415.0,4.82e-07
1416.0,0.001974
1417.0,0.0003574
1418.0,0.0002924
1419.0,4.035e-05
1420.0,0.0001756
1421.0,0.0002451
1422.0,0.002573
1423.0,0.0004556
1424.0,0.0009875
1425.0,0.001196
1426.0,0.00185
1427.0,0.004336
