interpolation:linear
wavelength,value
280.0,5.111999999999999e-22
280.5,1.666e-20
281.0,8.904e-20
281.5,4.753e-19
282.0,7.859e-19
282.5,1.945e-18
283.0,6.134e-18
283.5,9.97e-18
284.0,1.629e-16
284.5,4.732e-16
285.0,8.272e-16
285.5,4.081e-15
286.0,1.64e-14
286.5,7.338e-14
287.0,2.097e-13
287.5,8.046e-13
288.0,2.666e-12
288.5,8.141e-12
289.0,2.18e-11
289.5,6.603e-11
290.0,1.836e-10
290.5,3.746e-10
291.0,8.045e-10
291.5,2.31e-09
292.0,5.01e-09
292.5,7.022e-09
293.0,1.504e-08
293.5,3.655e-08
294.0,5.709e-08
294.5,7.694e-08
295.0,1.302e-07
295.5,2.359e-07
296.0,4.634e-07
296.5,6.617e-07
297.0,9.128e-07
297.5,2.535e-06
298.0,4.139e-06
298.5,4.295e-06
299.0,9.799e-06
299.5,1.745e-05
300.0,2.006e-05
300.5,3.055e-05
301.0,6.054e-05
301.5,0.000106
302.0,9.559e-05
302.5,0.0001931
303.0,0.0003636
303.5,0.0004742
304.0,0.0004594
304.5,0.0007431
305.0,0.001263
305.5,0.001557
306.0,0.00155
306.5,0.002025
307.0,0.003339
307.5,0.004921
308.0,0.005287
308.5,0.006573
309.0,0.006728
309.5,0.00825
310.0,0.008557
310.5,0.01408
311.0,0.01814
311.5,0.01771
312.0,0.01872
312.5,0.02363
313.0,0.02613
313.5,0.02493
314.0,0.03257
314.5,0.03059
315.0,0.04062
315.5,0.03306
316.0,0.03025
316.5,0.04521
317.0,0.05609
317.5,0.05773
318.0,0.04628
318.5,0.06052
319.0,0.07372
319.5,0.05765
320.0,0.06924
320.5,0.09133
321.0,0.08524
321.5,0.08213
322.0,0.08327
322.5,0.07264
323.0,0.07477
323.5,0.09463
324.0,0.1111
324.5,0.1113
325.0,0.09469
325.5,0.1251
326.0,0.1539
326.5,0.1568
327.0,0.1554
327.5,0.1489
328.0,0.1298
328.5,0.1401
329.0,0.1714
329.5,0.1959
330.0,0.1967
330.5,0.1549
331.0,0.157
331.5,0.1616
332.0,0.1778
332.5,0.1773
333.0,0.176
333.5,0.1573
334.0,0.1609
334.5,0.1885
335.0,0.1787
335.5,0.2091
336.0,0.1447
336.5,0.1686
337.0,0.1375
337.5,0.1707
338.0,0.1688
338.5,0.1954
339.0,0.1937
339.5,0.1863
340.0,0.2185
340.5,0.1973
341.0,0.1928
341.5,0.1773
342.0,0.2121
342.5,0.1986
343.0,0.2183
343.5,0.2056
344.0,0.1518
344.5,0.1535
345.0,0.2035
345.5,0.208
346.0,0.177
346.5,0.2006
347.0,0.2153
347.5,0.1741
348.0,0.1988
348.5,0.1989
349.0,0.1846
349.5,0.1829
350.0,0.2264
350.5,0.2389
351.0,0.2134
351.5,0.2073
352.0,0.223
352.5,0.1742
353.0,0.2196
353.5,0.235
354.0,0.2441
354.5,0.2477
355.0,0.2469
355.5,0.2233
356.0,0.2338
356.5,0.1997
357.0,0.165
357.5,0.2021
358.0,0.1603
358.5,0.137
359.0,0.1917
359.5,0.2443
360.0,0.2591
360.5,0.2073
361.0,0.1891
361.5,0.218
362.0,0.1887
362.5,0.2614
363.0,0.235
363.5,0.2166
364.0,0.2651
364.5,0.2267
365.0,0.231
365.5,0.2902
366.0,0.3077
366.5,0.2893
367.0,0.2819
367.5,0.2927
368.0,0.2563
368.5,0.2588
369.0,0.2797
369.5,0.2983
370.0,0.3182
370.5,0.2471
371.0,0.2642
371.5,0.3307
372.0,0.2196
372.5,0.2635
373.0,0.2682
373.5,0.1746
374.0,0.2539
374.5,0.2104
375.0,0.2047
375.5,0.3057
376.0,0.2535
376.5,0.2628
377.0,0.2785
377.5,0.326
378.0,0.3535
378.5,0.3343
379.0,0.2759
379.5,0.2521
380.0,0.2622
380.5,0.3179
381.0,0.3188
381.5,0.2529
382.0,0.2248
382.5,0.1918
383.0,0.1777
383.5,0.1713
384.0,0.1891
384.5,0.2783
385.0,0.2761
385.5,0.2573
386.0,0.2205
386.5,0.2899
387.0,0.241
387.5,0.2709
388.0,0.2502
388.5,0.2475
389.0,0.2673
389.5,0.324
390.0,0.3253
390.5,0.2996
391.0,0.3529
391.5,0.3601
392.0,0.3034
392.5,0.2718
393.0,0.1514
393.5,0.1101
394.0,0.2242
394.5,0.2852
395.0,0.3482
395.5,0.3538
396.0,0.3069
396.5,0.1796
397.0,0.1348
397.5,0.2744
398.0,0.3843
398.5,0.3975
399.0,0.4308
399.5,0.4296
400.0,0.4462
401.0,0.4508
402.0,0.4762
403.0,0.453
404.0,0.4464
405.0,0.4468
406.0,0.4401
407.0,0.4335
408.0,0.4507
409.0,0.4828
410.0,0.4223
411.0,0.4579
412.0,0.4925
413.0,0.4806
414.0,0.487
415.0,0.4888
416.0,0.498
417.0,0.4861
418.0,0.4775
419.0,0.4842
420.0,0.4825
421.0,0.5052
422.0,0.4805
423.0,0.4698
424.0,0.4971
425.0,0.4967
426.0,0.4845
427.0,0.4758
428.0,0.4637
429.0,0.4399
430.0,0.3853
431.0,0.3819
432.0,0.4937
433.0,0.4968
434.0,0.4615
435.0,0.4822
436.0,0.5439
437.0,0.5373
438.0,0.4897
439.0,0.5061
440.0,0.5227
441.0,0.5421
442.0,0.5818
443.0,0.5665
444.0,0.5794
445.0,0.5669
446.0,0.5418
447.0,0.5865
448.0,0.5954
449.0,0.5986
450.0,0.6158
451.0,0.639
452.0,0.616
453.0,0.5798
454.0,0.6059
455.0,0.6097
456.0,0.6245
457.0,0.6351
458.0,0.6131
459.0,0.6103
460.0,0.6118
461.0,0.6261
462.0,0.6315
463.0,0.6272
464.0,0.6176
465.0,0.6106
466.0,0.6171
467.0,0.6056
468.0,0.6129
469.0,0.6162
470.0,0.5965
471.0,0.596
472.0,0.628
473.0,0.6199
474.0,0.6204
475.0,0.6252
476.0,0.6059
477.0,0.6071
478.0,0.6242
479.0,0.6208
480.0,0.6224
481.0,0.6347
482.0,0.6387
483.0,0.6317
484.0,0.6193
485.0,0.5905
486.0,0.5167
487.0,0.5419
488.0,0.5945
489.0,0.5962
490.0,0.6276
491.0,0.6171
492.0,0.5828
493.0,0.602
494.0,0.6082
495.0,0.6135
496.0,0.6173
497.0,0.6268
498.0,0.5975
499.0,0.6049
500.0,0.5869
501.0,0.5757
502.0,0.5668
503.0,0.589
504.0,0.5715
505.0,0.594
506.0,0.6132
507.0,0.5836
508.0,0.5662
509.0,0.5827
510.0,0.5802
511.0,0.5963
512.0,0.6031
513.0,0.5709
514.0,0.5672
515.0,0.5616
516.0,0.5601
517.0,0.4979
518.0,0.5234
519.0,0.5489
520.0,0.5688
521.0,0.5741
522.0,0.5744
523.0,0.5639
524.0,0.5836
525.0,0.5899
526.0,0.5632
527.0,0.5302
528.0,0.5604
529.0,0.5903
530.0,0.5816
531.0,0.59
532.0,0.5696
533.0,0.5529
534.0,0.5695
535.0,0.5823
536.0,0.5879
537.0,0.565
538.0,0.5751
539.0,0.5702
540.0,0.5466
541.0,0.5494
542.0,0.5663
543.0,0.5609
544.0,0.57
545.0,0.5684
546.0,0.5703
547.0,0.5706
548.0,0.564
549.0,0.5659
550.0,0.5727
551.0,0.5659
552.0,0.5698
553.0,0.5595
554.0,0.5728
555.0,0.5738
556.0,0.5662
557.0,0.5484
558.0,0.5438
559.0,0.5333
560.0,0.5397
561.0,0.5463
562.0,0.5418
563.0,0.5561
564.0,0.5405
565.0,0.5354
566.0,0.5272
567.0,0.5367
568.0,0.5305
569.0,0.5154
570.0,0.5156
571.0,0.5131
572.0,0.5237
573.0,0.529
574.0,0.5269
575.0,0.5165
576.0,0.5118
577.0,0.5177
578.0,0.5106
579.0,0.5139
580.0,0.5255
581.0,0.5297
582.0,0.5409
583.0,0.5433
584.0,0.5487
585.0,0.5357
586.0,0.5248
587.0,0.5355
588.0,0.5192
589.0,0.4538
590.0,0.4751
591.0,0.5065
592.0,0.4979
593.0,0.5081
594.0,0.5034
595.0,0.4886
596.0,0.513
597.0,0.5062
598.0,0.5064
599.0,0.5076
600.0,0.5096
601.0,0.5064
602.0,0.5031
603.0,0.512
604.0,0.5207
605.0,0.5183
606.0,0.5167
607.0,0.5225
608.0,0.5173
609.0,0.5186
610.0,0.5155
611.0,0.5185
612.0,0.5174
613.0,0.5111
614.0,0.5046
615.0,0.5161
616.0,0.4995
617.0,0.4988
618.0,0.5182
619.0,0.5131
620.0,0.5164
621.0,0.5165
622.0,0.51
623.0,0.5019
624.0,0.4937
625.0,0.4926
626.0,0.4997
627.0,0.5041
628.0,0.4565
629.0,0.4872
630.0,0.4755
631.0,0.4911
632.0,0.4862
633.0,0.503
634.0,0.4997
635.0,0.5083
636.0,0.5025
637.0,0.5114
638.0,0.5174
639.0,0.5122
640.0,0.5079
641.0,0.5081
642.0,0.5064
643.0,0.5133
644.0,0.5123
645.0,0.5128
646.0,0.4991
647.0,0.4892
648.0,0.4896
649.0,0.4797
650.0,0.4871
651.0,0.5092
652.0,0.4828
653.0,0.5027
654.0,0.4976
655.0,0.4764
656.0,0.4241
657.0,0.4358
658.0,0.49
659.0,0.4942
660.0,0.4966
661.0,0.5002
662.0,0.5003
663.0,0.4908
664.0,0.498
665.0,0.4995
666.0,0.5004
667.0,0.5005
668.0,0.5013
669.0,0.5094
670.0,0.5075
671.0,0.5077
672.0,0.5035
673.0,0.5113
674.0,0.5097
675.0,0.5053
676.0,0.509
677.0,0.5041
678.0,0.5057
679.0,0.4978
680.0,0.5019
681.0,0.4986
682.0,0.498
683.0,0.4971
684.0,0.4946
685.0,0.4991
686.0,0.4959
687.0,0.2694
688.0,0.3423
689.0,0.3444
690.0,0.3708
691.0,0.4014
692.0,0.4252
693.0,0.421
694.0,0.4185
695.0,0.4434
696.0,0.4444
697.0,0.4805
698.0,0.4728
699.0,0.4555
700.0,0.4497
701.0,0.4429
702.0,0.4483
703.0,0.4496
704.0,0.4676
705.0,0.4683
706.0,0.4693
707.0,0.4702
708.0,0.471
709.0,0.4741
710.0,0.4729
711.0,0.4731
712.0,0.4728
713.0,0.4669
714.0,0.469
715.0,0.4518
716.0,0.4514
717.0,0.3696
718.0,0.3372
719.0,0.3071
720.0,0.3196
721.0,0.3655
722.0,0.4318
723.0,0.3951
724.0,0.3477
725.0,0.3394
726.0,0.356
727.0,0.3667
728.0,0.3375
729.0,0.3578
730.0,0.3773
731.0,0.3593
732.0,0.3925
733.0,0.423
734.0,0.4354
735.0,0.4251
736.0,0.4244
737.0,0.426
738.0,0.4383
739.0,0.4298
740.0,0.4427
741.0,0.4393
742.0,0.4408
743.0,0.4524
744.0,0.4517
745.0,0.4524
746.0,0.4544
747.0,0.4556
748.0,0.4547
749.0,0.4496
750.0,0.4493
751.0,0.4448
752.0,0.4468
753.0,0.4492
754.0,0.4502
755.0,0.4476
756.0,0.4475
757.0,0.4481
758.0,0.4424
759.0,0.4298
760.0,0.03009
761.0,0.01173
762.0,0.1596
763.0,0.05631
764.0,0.1035
765.0,0.1594
766.0,0.2211
767.0,0.308
768.0,0.3811
769.0,0.3951
770.0,0.4155
771.0,0.4219
772.0,0.4238
773.0,0.427
774.0,0.4252
775.0,0.4221
776.0,0.4273
777.0,0.4217
778.0,0.4191
779.0,0.4195
780.0,0.4172
781.0,0.4177
782.0,0.4203
783.0,0.4131
784.0,0.4152
785.0,0.4119
786.0,0.4162
787.0,0.4061
788.0,0.3998
789.0,0.3995
790.0,0.385
791.0,0.3921
792.0,0.3898
793.0,0.3831
794.0,0.3936
795.0,0.3992
796.0,0.3816
797.0,0.3817
798.0,0.3981
799.0,0.3945
800.0,0.3864
801.0,0.384
802.0,0.3828
803.0,0.3792
804.0,0.3804
805.0,0.3807
806.0,0.3941
807.0,0.3887
808.0,0.3893
809.0,0.38
810.0,0.3756
811.0,0.3732
812.0,0.359
813.0,0.3498
814.0,0.2973
815.0,0.2961
816.0,0.2744
817.0,0.2802
818.0,0.2673
819.0,0.3078
820.0,0.2866
821.0,0.3481
822.0,0.336
823.0,0.2088
824.0,0.3213
825.0,0.342
826.0,0.3248
827.0,0.3471
828.0,0.2819
829.0,0.3237
830.0,0.3184
831.0,0.3196
832.0,0.3076
833.0,0.3331
834.0,0.3173
835.0,0.3577
836.0,0.3363
837.0,0.3589
838.0,0.3447
839.0,0.3541
840.0,0.3626
841.0,0.3562
842.0,0.359
843.0,0.3609
844.0,0.3547
845.0,0.3682
846.0,0.367
847.0,0.3608
848.0,0.3576
849.0,0.3474
850.0,0.333
851.0,0.3515
852.0,0.3495
853.0,0.3372
854.0,0.2905
855.0,0.3201
856.0,0.3494
857.0,0.3579
858.0,0.3549
859.0,0.3557
860.0,0.3566
861.0,0.3546
862.0,0.3603
863.0,0.3688
864.0,0.3504
865.0,0.3474
866.0,0.3124
867.0,0.326
868.0,0.3548
869.0,0.3475
870.0,0.3574
871.0,0.3526
872.0,0.3514
873.0,0.3507
874.0,0.3465
875.0,0.3395
876.0,0.3429
877.0,0.3465
878.0,0.3501
879.0,0.3447
880.0,0.3374
881.0,0.3318
882.0,0.3388
883.0,0.3404
884.0,0.3386
885.0,0.3412
886.0,0.3234
887.0,0.3282
888.0,0.3323
889.0,0.3375
890.0,0.3329
891.0,0.3332
892.0,0.3212
893.0,0.3088
894.0,0.2929
895.0,0.2704
896.0,0.253
897.0,0.21
898.0,0.2328
899.0,0.1688
900.0,0.2432
901.0,0.1769
902.0,0.2188
903.0,0.217
904.0,0.2906
905.0,0.2783
906.0,0.2584
907.0,0.1981
908.0,0.2043
909.0,0.226
910.0,0.1907
911.0,0.2099
912.0,0.2204
913.0,0.1931
914.0,0.1934
915.0,0.209
916.0,0.1755
917.0,0.2318
918.0,0.1793
919.0,0.2391
920.0,0.2479
921.0,0.2577
922.0,0.2237
923.0,0.2497
924.0,0.2277
925.0,0.2231
926.0,0.2246
927.0,0.2581
928.0,0.1703
929.0,0.1504
930.0,0.1105
931.0,0.1051
932.0,0.06791
933.0,0.0518
934.0,0.02168
935.0,0.05571
936.0,0.03028
937.0,0.03043
938.0,0.03904
939.0,0.1016
940.0,0.1281
941.0,0.08926
942.0,0.1073
943.0,0.065
944.0,0.07403
945.0,0.09363
946.0,0.0403
947.0,0.09203
948.0,0.06685
949.0,0.1306
950.0,0.02622
951.0,0.1297
952.0,0.06038
953.0,0.08413
954.0,0.1102
955.0,0.08583
956.0,0.08973
957.0,0.05987
958.0,0.1355
959.0,0.09895
960.0,0.1109
961.0,0.1314
962.0,0.1239
963.0,0.1488
964.0,0.1346
965.0,0.1483
966.0,0.1473
967.0,0.1459
968.0,0.2192
969.0,0.2257
970.0,0.2049
971.0,0.245
972.0,0.2321
973.0,0.1916
974.0,0.1809
975.0,0.1914
976.0,0.1758
977.0,0.2121
978.0,0.1965
979.0,0.2088
980.0,0.1947
981.0,0.2439
982.0,0.2293
983.0,0.218
984.0,0.256
985.0,0.2283
986.0,0.2635
987.0,0.2548
988.0,0.2547
989.0,0.2646
990.0,0.253
991.0,0.265
992.0,0.2669
993.0,0.2576
994.0,0.2672
995.0,0.2674
996.0,0.2657
997.0,0.2663
998.0,0.2648
999.0,0.264
1000.0,0.2614
1001.0,0.2655
1002.0,0.2549
1003.0,0.2606
1004.0,0.2534
1005.0,0.2453
1006.0,0.2543
1007.0,0.26
1008.0,0.258
1009.0,0.256
1010.0,0.2545
1011.0,0.2588
1012.0,0.2559
1013.0,0.2583
1014.0,0.2565
1015.0,0.2547
1016.0,0.2535
1017.0,0.254
1018.0,0.2535
1019.0,0.2468
1020.0,0.2519
1021.0,0.2518
1022.0,0.2494
1023.0,0.252
1024.0,0.2474
1025.0,0.2522
1026.0,0.2508
1027.0,0.2503
1028.0,0.2497
1029.0,0.2466
1030.0,0.2487
1031.0,0.2476
1032.0,0.247
1033.0,0.2432
1034.0,0.2433
1035.0,0.2441
1036.0,0.2452
1037.0,0.2412
1038.0,0.2423
1039.0,0.242
1040.0,0.241
1041.0,0.2419
1042.0,0.2402
1043.0,0.2393
1044.0,0.2401
1045.0,0.2368
1046.0,0.2341
1047.0,0.2361
1048.0,0.2373
1049.0,0.2363
1050.0,0.2351
1051.0,0.2347
1052.0,0.2336
1053.0,0.2316
1054.0,0.2319
1055.0,0.2318
1056.0,0.2308
1057.0,0.2299
1058.0,0.2241
1059.0,0.2241
1060.0,0.2237
1061.0,0.2233
1062.0,0.2242
1063.0,0.2219
1064.0,0.2246
1065.0,0.2224
1066.0,0.2184
1067.0,0.2211
1068.0,0.2159
1069.0,0.2096
1070.0,0.2163
1071.0,0.2208
1072.0,0.2174
1073.0,0.2145
1074.0,0.2213
1075.0,0.2068
1076.0,0.2209
1077.0,0.2151
1078.0,0.2102
1079.0,0.218
1080.0,0.2119
1081.0,0.2033
1082.0,0.2095
1083.0,0.2109
1084.0,0.2022
1085.0,0.2126
1086.0,0.1895
1087.0,0.1986
1088.0,0.2101
1089.0,0.2004
1090.0,0.1943
1091.0,0.2086
1092.0,0.2087
1093.0,0.1683
1094.0,0.1899
1095.0,0.176
1096.0,0.1661
1097.0,0.2039
1098.0,0.1622
1099.0,0.1706
1100.0,0.1552
1101.0,0.1583
1102.0,0.1488
1103.0,0.1457
1104.0,0.1461
1105.0,0.1659
1106.0,0.1133
1107.0,0.155
1108.0,0.1233
1109.0,0.125
1110.0,0.1521
1111.0,0.09255
1112.0,0.1246
1113.0,0.06903
1114.0,0.07772
1115.0,0.06373
1116.0,0.04541
1117.0,0.01183
1118.0,0.05082
1119.0,0.02082
1120.0,0.02562
1121.0,0.03634
1122.0,0.01187
1123.0,0.02334
1124.0,0.01964
1125.0,0.02671
1126.0,0.00613
1127.0,0.03044
1128.0,0.01453
1129.0,0.01579
1130.0,0.009581
1131.0,0.06796
1132.0,0.05129
1133.0,0.02703
1134.0,0.004621
1135.0,0.001884
1136.0,0.02074
1137.0,0.06461
1138.0,0.04454
1139.0,0.07852
1140.0,0.06094
1141.0,0.04246
1142.0,0.05105
1143.0,0.07777
1144.0,0.02189
1145.0,0.02608
1146.0,0.02807
1147.0,0.006767
1148.0,0.0667
1149.0,0.04987
1150.0,0.02455
1151.0,0.04418
1152.0,0.05844
1153.0,0.0602
1154.0,0.02542
1155.0,0.08174
1156.0,0.07111
1157.0,0.08468
1158.0,0.08359
1159.0,0.09293
1160.0,0.07698
1161.0,0.1017
1162.0,0.1016
1163.0,0.1497
1164.0,0.124
1165.0,0.1124
1166.0,0.1153
1167.0,0.1277
1168.0,0.1281
1169.0,0.1324
1170.0,0.1478
1171.0,0.1439
1172.0,0.1491
1173.0,0.1476
1174.0,0.09655
1175.0,0.1463
1176.0,0.1661
1177.0,0.1559
1178.0,0.1104
1179.0,0.1675
1180.0,0.1439
1181.0,0.1487
1182.0,0.09515
1183.0,0.1476
1184.0,0.1358
1185.0,0.1287
1186.0,0.1604
1187.0,0.1503
1188.0,0.09547
1189.0,0.1396
1190.0,0.1572
1191.0,0.1444
1192.0,0.1599
1193.0,0.1516
1194.0,0.1573
1195.0,0.1455
1196.0,0.1382
1197.0,0.1588
1198.0,0.1436
1199.0,0.1153
1200.0,0.1495
1201.0,0.1417
1202.0,0.1429
1203.0,0.1406
1204.0,0.12
1205.0,0.1482
1206.0,0.1671
1207.0,0.1416
1208.0,0.1414
1209.0,0.1448
1210.0,0.1524
1211.0,0.1426
1212.0,0.1372
1213.0,0.1598
1214.0,0.142
1215.0,0.1388
1216.0,0.1596
1217.0,0.1541
1218.0,0.1582
1219.0,0.1555
1220.0,0.1585
1221.0,0.1609
1222.0,0.1561
1223.0,0.1541
1224.0,0.1518
1225.0,0.1597
1226.0,0.1617
1227.0,0.1456
1228.0,0.1633
1229.0,0.1617
1230.0,0.1583
1231.0,0.1652
1232.0,0.1641
1233.0,0.1554
1234.0,0.1657
1235.0,0.1642
1236.0,0.1657
1237.0,0.1621
1238.0,0.1652
1239.0,0.163
1240.0,0.1638
1241.0,0.1623
1242.0,0.1626
1243.0,0.1613
1244.0,0.1622
1245.0,0.1631
1246.0,0.1622
1247.0,0.1613
1248.0,0.1608
1249.0,0.1617
1250.0,0.1604
1251.0,0.1579
1252.0,0.1585
1253.0,0.1562
1254.0,0.1538
1255.0,0.1581
1256.0,0.1516
1257.0,0.1504
1258.0,0.1548
1259.0,0.1461
1260.0,0.1472
1261.0,0.1351
1262.0,0.1291
1263.0,0.1292
1264.0,0.1148
1265.0,0.1285
1266.0,0.1209
1267.0,0.1249
1268.0,0.1155
1269.0,0.05504
1270.0,0.1237
1271.0,0.1351
1272.0,0.136
1273.0,0.1341
1274.0,0.1352
1275.0,0.1378
1276.0,0.1399
1277.0,0.1418
1278.0,0.1461
1279.0,0.1446
1280.0,0.1429
1281.0,0.1371
1282.0,0.1333
1283.0,0.1433
1284.0,0.1465
1285.0,0.1477
1286.0,0.1503
1287.0,0.1468
1288.0,0.1471
1289.0,0.1401
1290.0,0.146
1291.0,0.1485
1292.0,0.1351
1293.0,0.1445
1294.0,0.1433
1295.0,0.1412
1296.0,0.1321
1297.0,0.1231
1298.0,0.1367
1299.0,0.1451
1300.0,0.1159
1301.0,0.1207
1302.0,0.1363
1303.0,0.1151
1304.0,0.09195
1305.0,0.1332
1306.0,0.1326
1307.0,0.09626
1308.0,0.1164
1309.0,0.1306
1310.0,0.0939
1311.0,0.1101
1312.0,0.1062
1313.0,0.1028
1314.0,0.08976
1315.0,0.08717
1316.0,0.1072
1317.0,0.1007
1318.0,0.1121
1319.0,0.08019
1320.0,0.0792
1321.0,0.09486
1322.0,0.09442
1323.0,0.06509
1324.0,0.07893
1325.0,0.1049
1326.0,0.08632
1327.0,0.08127
1328.0,0.06803
1329.0,0.04597
1330.0,0.0625
1331.0,0.03228
1332.0,0.03495
1333.0,0.04969
1334.0,0.04556
1335.0,0.06442
1336.0,0.0478
1337.0,0.04129
1338.0,0.04438
1339.0,0.04495
1340.0,0.04534
1341.0,0.04045
1342.0,0.04296
1343.0,0.02297
1344.0,0.01433
1345.0,0.02037
1346.0,0.007092
1347.0,0.006714
1348.0,0.0002054
1349.0,0.000886
1350.0,0.001047
1351.0,0.0001269
1352.0,1.41e-05
1353.0,3.706e-07
1354.0,2.148e-06
1355.0,4.091e-09
1356.0,1.774e-07
1357.0,2.693e-07
1358.0,5.079e-09
1359.0,3.058e-10
1360.0,1.686e-09
1361.0,8.817e-13
1362.0,2.308e-15
1363.0,1.642e-09
1364.0,7.222e-10
1365.0,7.892e-16
1366.0,8.409e-09
1367.0,4.453e-09
1368.0,6.068e-18
1369.0,2.664e-10
1370.0,1.048e-10
1371.0,5.14e-12
1372.0,2.516e-09
1373.0,9.416e-08
1374.0,7.421e-07
1375.0,1.167e-06
1376.0,2.006e-06
1377.0,8.297e-07
1378.0,9.05e-06
1379.0,3.569e-07
1380.0,3.371e-07
1381.0,7.227e-09
1382.0,2.006e-09
1383.0,2.502e-11
1384.0,2.619e-10
1385.0,3.14e-09
1386.0,1.388e-09
1387.0,4.833e-07
1388.0,1.255e-08
1389.0,3.315e-06
1390.0,2.663e-06
1391.0,1.699e-06
1392.0,1.054e-07
1393.0,7.3e-07
1394.0,1.383e-07
1395.0,7.046e-10
1396.0,1.202e-12
1397.0,2.349e-07
1398.0,9.159e-06
1399.0,6.115e-06
1400.0,4.824e-13
1401.0,2.212e-12
1402.0,4.482e-05
1403.0,4.589e-05
1404.0,1.261e-05
1405.0,2.449e-10
1406.0,2.328e-05
1407.0,3.163e-06
1408.0,2.045e-05
1409.0,4.148e-06
1410.0,5.301e-06
1411.0,4.22e-05
1412.0,7.306e-05
1413.0,0.001382
1414.0,4.54e-06
1415.0,1.763e-06
1416.0,0.003698
1417.0,0.0007566
1418.0,0.000713
1419.0,0.0001011
1420.0,0.0004296
1421.0,0.0005302
1422.0,0.004845
1423.0,0.0008669
1424.0,0.00178
1425.0,0.002313
1426.0,0.003245
1427.0,0.007219
1428.0,0.0001769
1429.0,0.004629
1430.0,0.01001
1431.0,0.01154
