interpolation:linear
wavelength,value
280.0,3.6670000000000005e-20
280.5,1.041e-18
281.0,5.318e-18
281.5,4.378e-19
282.0,1.871e-18
282.5,5.275e-18
283.0,1.755e-17
283.5,2.894e-17
284.0,4.572e-16
284.5,1.291e-15
285.0,2.301e-15
285.5,1.385e-14
286.0,5.868e-14
286.5,2.803e-13
287.0,8.279e-13
287.5,3.26e-12
288.0,9.779e-12
288.5,3.835e-11
289.0,1.281e-10
289.5,4.787e-10
290.0,1.56e-09
290.5,3.618e-09
291.0,8.987e-09
291.5,3.072e-08
292.0,8.43e-08
292.5,1.331e-07
293.0,3.319e-07
293.5,9.972e-07
294.0,1.83e-06
294.5,2.403e-06
295.0,4.728e-06
295.5,1.161e-05
296.0,2.223e-05
296.5,3.083e-05
297.0,4.142e-05
297.5,0.0001097
298.0,0.0001709
298.5,0.0001704
299.0,0.0003723
299.5,0.0006071
300.0,0.0006614
300.5,0.0009484
301.0,0.001687
301.5,0.002649
302.0,0.002251
302.5,0.004261
303.0,0.007341
303.5,0.008998
304.0,0.008294
304.5,0.01177
305.0,0.01664
305.5,0.01825
306.0,0.01737
306.5,0.02103
307.0,0.02935
307.5,0.03682
308.0,0.03853
308.5,0.04423
309.0,0.04272
309.5,0.047
310.0,0.04636
310.5,0.0744
311.0,0.09197
311.5,0.08818
312.0,0.08527
312.5,0.1015
313.0,0.1088
313.5,0.1068
314.0,0.1299
314.5,0.1112
315.0,0.1451
315.5,0.1235
316.0,0.1048
316.5,0.1467
317.0,0.1822
317.5,0.1909
318.0,0.1464
318.5,0.1758
319.0,0.2052
319.5,0.1718
320.0,0.2084
320.5,0.2521
321.0,0.2178
321.5,0.2081
322.0,0.2292
322.5,0.199
323.0,0.194
323.5,0.2336
324.0,0.2718
324.5,0.2783
325.0,0.2431
325.5,0.3073
326.0,0.3737
326.5,0.37
327.0,0.3703
327.5,0.3595
328.0,0.325
328.5,0.3353
329.0,0.3956
329.5,0.447
330.0,0.4525
330.5,0.3662
331.0,0.3745
331.5,0.3775
332.0,0.4028
332.5,0.3962
333.0,0.3963
333.5,0.3619
334.0,0.3713
334.5,0.424
335.0,0.3961
335.5,0.4626
336.0,0.32
336.5,0.3758
337.0,0.3096
337.5,0.3857
338.0,0.3734
338.5,0.4308
339.0,0.4263
339.5,0.4101
340.0,0.482
340.5,0.4341
341.0,0.4234
341.5,0.3886
342.0,0.4644
342.5,0.4344
343.0,0.4778
343.5,0.4499
344.0,0.3324
344.5,0.3358
345.0,0.4442
345.5,0.4534
346.0,0.3852
346.5,0.4361
347.0,0.4683
347.5,0.3786
348.0,0.4315
348.5,0.4312
349.0,0.3999
349.5,0.396
350.0,0.4897
350.5,0.5165
351.0,0.4614
351.5,0.4486
352.0,0.4817
352.5,0.3758
353.0,0.4732
353.5,0.506
354.0,0.5252
354.5,0.5327
355.0,0.5309
355.5,0.4795
356.0,0.5017
356.5,0.4284
357.0,0.354
357.5,0.4333
358.0,0.3434
358.5,0.2934
359.0,0.4105
359.5,0.5231
360.0,0.5545
360.5,0.4432
361.0,0.404
361.5,0.4651
362.0,0.4021
362.5,0.5564
363.0,0.4997
363.5,0.4602
364.0,0.5628
364.5,0.4811
365.0,0.4899
365.5,0.6149
366.0,0.6514
366.5,0.612
367.0,0.596
367.5,0.6185
368.0,0.5412
368.5,0.5461
369.0,0.5898
369.5,0.6286
370.0,0.6701
370.5,0.5201
371.0,0.5557
371.5,0.6952
372.0,0.4614
372.5,0.5532
373.0,0.5627
373.5,0.3661
374.0,0.532
374.5,0.4406
375.0,0.4283
375.5,0.6394
376.0,0.5301
376.5,0.5494
377.0,0.5816
377.5,0.6804
378.0,0.7376
378.5,0.6972
379.0,0.5754
379.5,0.5257
380.0,0.5465
380.5,0.6619
381.0,0.6633
381.5,0.5258
382.0,0.4669
382.5,0.398
383.0,0.3685
383.5,0.3549
384.0,0.3915
384.5,0.5758
385.0,0.571
385.5,0.5318
386.0,0.4554
386.5,0.5982
387.0,0.4971
387.5,0.5584
388.0,0.5156
388.5,0.5096
389.0,0.5501
389.5,0.6663
390.0,0.6687
390.5,0.6154
391.0,0.7244
391.5,0.7389
392.0,0.6224
392.5,0.5572
393.0,0.31
393.5,0.2254
394.0,0.4586
394.5,0.583
395.0,0.7115
395.5,0.7228
396.0,0.6266
396.5,0.3663
397.0,0.2749
397.5,0.5591
398.0,0.783
398.5,0.8093
399.0,0.8763
399.5,0.8734
400.0,0.907
401.0,0.9215
402.0,0.9721
403.0,0.9234
404.0,0.9092
405.0,0.9091
406.0,0.8942
407.0,0.8797
408.0,0.9141
409.0,0.9784
410.0,0.8548
411.0,0.9259
412.0,0.9942
413.0,0.9697
414.0,0.9815
415.0,0.9839
416.0,1.001
417.0,0.9764
418.0,0.9583
419.0,0.9709
420.0,0.9666
421.0,1.011
422.0,0.961
423.0,0.9387
424.0,0.9928
425.0,0.9909
426.0,0.965
427.0,0.947
428.0,0.9225
429.0,0.8735
430.0,0.7644
431.0,0.7577
432.0,0.9782
433.0,0.9835
434.0,0.9132
435.0,0.9538
436.0,1.074
437.0,1.06
438.0,0.9649
439.0,0.9983
440.0,1.03
441.0,1.067
442.0,1.144
443.0,1.115
444.0,1.139
445.0,1.114
446.0,1.063
447.0,1.149
448.0,1.167
449.0,1.171
450.0,1.204
451.0,1.248
452.0,1.203
453.0,1.131
454.0,1.18
455.0,1.188
456.0,1.216
457.0,1.236
458.0,1.194
459.0,1.188
460.0,1.191
461.0,1.218
462.0,1.227
463.0,1.219
464.0,1.199
465.0,1.183
466.0,1.194
467.0,1.173
468.0,1.186
469.0,1.192
470.0,1.155
471.0,1.153
472.0,1.215
473.0,1.199
474.0,1.201
475.0,1.212
476.0,1.176
477.0,1.18
478.0,1.212
479.0,1.205
480.0,1.207
481.0,1.229
482.0,1.235
483.0,1.219
484.0,1.194
485.0,1.137
486.0,0.994
487.0,1.041
488.0,1.143
489.0,1.146
490.0,1.206
491.0,1.185
492.0,1.119
493.0,1.155
494.0,1.167
495.0,1.177
496.0,1.184
497.0,1.202
498.0,1.146
499.0,1.161
500.0,1.127
501.0,1.107
502.0,1.092
503.0,1.137
504.0,1.11
505.0,1.148
506.0,1.185
507.0,1.128
508.0,1.092
509.0,1.122
510.0,1.116
511.0,1.146
512.0,1.158
513.0,1.096
514.0,1.088
515.0,1.077
516.0,1.075
517.0,0.9549
518.0,1.004
519.0,1.053
520.0,1.091
521.0,1.102
522.0,1.103
523.0,1.083
524.0,1.122
525.0,1.136
526.0,1.085
527.0,1.023
528.0,1.082
529.0,1.141
530.0,1.125
531.0,1.141
532.0,1.102
533.0,1.07
534.0,1.101
535.0,1.125
536.0,1.135
537.0,1.09
538.0,1.11
539.0,1.1
540.0,1.055
541.0,1.062
542.0,1.096
543.0,1.084
544.0,1.103
545.0,1.1
546.0,1.105
547.0,1.104
548.0,1.091
549.0,1.094
550.0,1.107
551.0,1.093
552.0,1.101
553.0,1.081
554.0,1.107
555.0,1.11
556.0,1.095
557.0,1.061
558.0,1.054
559.0,1.034
560.0,1.047
561.0,1.061
562.0,1.054
563.0,1.083
564.0,1.054
565.0,1.045
566.0,1.03
567.0,1.049
568.0,1.041
569.0,1.018
570.0,1.017
571.0,1.011
572.0,1.036
573.0,1.047
574.0,1.044
575.0,1.025
576.0,1.016
577.0,1.027
578.0,1.011
579.0,1.014
580.0,1.032
581.0,1.037
582.0,1.055
583.0,1.057
584.0,1.066
585.0,1.04
586.0,1.019
587.0,1.041
588.0,1.018
589.0,0.9059
590.0,0.947
591.0,0.9998
592.0,0.9885
593.0,1.001
594.0,0.9952
595.0,0.972
596.0,1.007
597.0,0.997
598.0,0.9935
599.0,0.9939
600.0,0.9946
601.0,0.9858
602.0,0.9791
603.0,0.995
604.0,1.011
605.0,1.006
606.0,1.001
607.0,1.011
608.0,0.9995
609.0,1.001
610.0,0.9935
611.0,0.9985
612.0,0.9954
613.0,0.9827
614.0,0.969
615.0,0.9898
616.0,0.957
617.0,0.9549
618.0,0.9915
619.0,0.9814
620.0,0.9876
621.0,0.9888
622.0,0.9775
623.0,0.9629
624.0,0.9461
625.0,0.944
626.0,0.958
627.0,0.9694
628.0,0.9137
629.0,0.9494
630.0,0.9277
631.0,0.9459
632.0,0.9341
633.0,0.9613
634.0,0.951
635.0,0.9654
636.0,0.9521
637.0,0.9673
638.0,0.976
639.0,0.9647
640.0,0.955
641.0,0.9541
642.0,0.9495
643.0,0.9622
644.0,0.9588
645.0,0.9605
646.0,0.9391
647.0,0.9302
648.0,0.9313
649.0,0.9134
650.0,0.9149
651.0,0.954
652.0,0.9175
653.0,0.9413
654.0,0.9305
655.0,0.8974
656.0,0.7943
657.0,0.8155
658.0,0.913
659.0,0.9192
660.0,0.9228
661.0,0.9293
662.0,0.9317
663.0,0.913
664.0,0.9231
665.0,0.9232
666.0,0.9236
667.0,0.9224
668.0,0.9225
669.0,0.9366
670.0,0.9324
671.0,0.9321
672.0,0.924
673.0,0.9378
674.0,0.9341
675.0,0.9255
676.0,0.9317
677.0,0.9224
678.0,0.9249
679.0,0.9099
680.0,0.9171
681.0,0.911
682.0,0.9098
683.0,0.9081
684.0,0.9036
685.0,0.9112
686.0,0.9059
687.0,0.6376
688.0,0.7298
689.0,0.7319
690.0,0.7619
691.0,0.7953
692.0,0.8192
693.0,0.813
694.0,0.8063
695.0,0.8353
696.0,0.8364
697.0,0.8821
698.0,0.8685
699.0,0.8513
700.0,0.8411
701.0,0.8337
702.0,0.8381
703.0,0.8396
704.0,0.8643
705.0,0.8656
706.0,0.864
707.0,0.8644
708.0,0.8663
709.0,0.8662
710.0,0.8668
711.0,0.8652
712.0,0.862
713.0,0.8539
714.0,0.857
715.0,0.8313
716.0,0.8321
717.0,0.735
718.0,0.6773
719.0,0.6218
720.0,0.6523
721.0,0.7119
722.0,0.8055
723.0,0.7545
724.0,0.6851
725.0,0.676
726.0,0.7066
727.0,0.7136
728.0,0.6748
729.0,0.6953
730.0,0.7357
731.0,0.7054
732.0,0.7495
733.0,0.7886
734.0,0.806
735.0,0.79
736.0,0.7889
737.0,0.7922
738.0,0.8012
739.0,0.7855
740.0,0.8049
741.0,0.7963
742.0,0.7965
743.0,0.8166
744.0,0.8139
745.0,0.8138
746.0,0.8175
747.0,0.8193
748.0,0.8175
749.0,0.8082
750.0,0.8076
751.0,0.7995
752.0,0.8028
753.0,0.8069
754.0,0.8087
755.0,0.8041
756.0,0.8037
757.0,0.8049
758.0,0.795
759.0,0.7807
760.0,0.1656
761.0,0.0946
762.0,0.4357
763.0,0.2391
764.0,0.3405
765.0,0.4359
766.0,0.5179
767.0,0.6366
768.0,0.7212
769.0,0.7334
770.0,0.755
771.0,0.7596
772.0,0.7608
773.0,0.766
774.0,0.7622
775.0,0.7563
776.0,0.7655
777.0,0.7554
778.0,0.7508
779.0,0.7514
780.0,0.7472
781.0,0.7479
782.0,0.7526
783.0,0.7394
784.0,0.7429
785.0,0.7376
786.0,0.7458
787.0,0.7342
788.0,0.7257
789.0,0.7256
790.0,0.7083
791.0,0.7125
792.0,0.707
793.0,0.6958
794.0,0.7055
795.0,0.718
796.0,0.6987
797.0,0.6997
798.0,0.7174
799.0,0.7134
800.0,0.7017
801.0,0.7001
802.0,0.698
803.0,0.693
804.0,0.6937
805.0,0.6907
806.0,0.7088
807.0,0.7005
808.0,0.701
809.0,0.6889
810.0,0.684
811.0,0.6862
812.0,0.6684
813.0,0.6557
814.0,0.5833
815.0,0.5795
816.0,0.5403
817.0,0.5494
818.0,0.5303
819.0,0.5872
820.0,0.5552
821.0,0.6413
822.0,0.6243
823.0,0.4368
824.0,0.6087
825.0,0.6305
826.0,0.6089
827.0,0.6401
828.0,0.5496
829.0,0.6047
830.0,0.5976
831.0,0.5994
832.0,0.5823
833.0,0.616
834.0,0.5965
835.0,0.6504
836.0,0.6256
837.0,0.652
838.0,0.633
839.0,0.6418
840.0,0.6555
841.0,0.6468
842.0,0.6473
843.0,0.646
844.0,0.6376
845.0,0.6584
846.0,0.6554
847.0,0.6429
848.0,0.6393
849.0,0.6211
850.0,0.595
851.0,0.6304
852.0,0.6258
853.0,0.6021
854.0,0.5201
855.0,0.571
856.0,0.6242
857.0,0.6379
858.0,0.6333
859.0,0.6337
860.0,0.6347
861.0,0.6312
862.0,0.6411
863.0,0.6562
864.0,0.6234
865.0,0.6179
866.0,0.5556
867.0,0.5798
868.0,0.6309
869.0,0.6178
870.0,0.6354
871.0,0.6268
872.0,0.6245
873.0,0.6233
874.0,0.6159
875.0,0.6034
876.0,0.6097
877.0,0.6158
878.0,0.6226
879.0,0.613
880.0,0.5999
881.0,0.591
882.0,0.6039
883.0,0.6056
884.0,0.6029
885.0,0.6074
886.0,0.5796
887.0,0.5852
888.0,0.5942
889.0,0.6004
890.0,0.596
891.0,0.5947
892.0,0.5783
893.0,0.5613
894.0,0.5435
895.0,0.5162
896.0,0.4873
897.0,0.4221
898.0,0.4586
899.0,0.353
900.0,0.4675
901.0,0.3699
902.0,0.4285
903.0,0.4345
904.0,0.5394
905.0,0.522
906.0,0.4894
907.0,0.4027
908.0,0.41
909.0,0.4417
910.0,0.3949
911.0,0.4183
912.0,0.4364
913.0,0.401
914.0,0.3968
915.0,0.4298
916.0,0.3651
917.0,0.4586
918.0,0.3744
919.0,0.4658
920.0,0.4683
921.0,0.4866
922.0,0.4381
923.0,0.4699
924.0,0.4493
925.0,0.4395
926.0,0.4444
927.0,0.4946
928.0,0.3711
929.0,0.3409
930.0,0.2713
931.0,0.2565
932.0,0.1882
933.0,0.1547
934.0,0.08868
935.0,0.1568
936.0,0.1003
937.0,0.102
938.0,0.1245
939.0,0.2486
940.0,0.2966
941.0,0.2271
942.0,0.2609
943.0,0.1741
944.0,0.1811
945.0,0.2336
946.0,0.1222
947.0,0.2355
948.0,0.1735
949.0,0.312
950.0,0.09173
951.0,0.3066
952.0,0.169
953.0,0.2155
954.0,0.2611
955.0,0.2176
956.0,0.2096
957.0,0.1697
958.0,0.2926
959.0,0.2359
960.0,0.2643
961.0,0.2941
962.0,0.2785
963.0,0.3188
964.0,0.2928
965.0,0.3174
966.0,0.318
967.0,0.3169
968.0,0.417
969.0,0.4362
970.0,0.4017
971.0,0.4564
972.0,0.4372
973.0,0.3841
974.0,0.365
975.0,0.3776
976.0,0.3603
977.0,0.4065
978.0,0.3877
979.0,0.4049
980.0,0.3814
981.0,0.4536
982.0,0.4349
983.0,0.4183
984.0,0.466
985.0,0.4333
986.0,0.4733
987.0,0.465
988.0,0.4641
989.0,0.4713
990.0,0.4613
991.0,0.4728
992.0,0.4755
993.0,0.4658
994.0,0.4752
995.0,0.4745
996.0,0.4726
997.0,0.4732
998.0,0.471
999.0,0.4693
1000.0,0.4662
1001.0,0.4717
1002.0,0.4596
1003.0,0.4635
1004.0,0.4523
1005.0,0.4355
1006.0,0.4526
1007.0,0.4621
1008.0,0.4598
1009.0,0.4575
1010.0,0.4557
1011.0,0.4598
1012.0,0.456
1013.0,0.4586
1014.0,0.4554
1015.0,0.4524
1016.0,0.4504
1017.0,0.4516
1018.0,0.4498
1019.0,0.4405
1020.0,0.4474
1021.0,0.4468
1022.0,0.4434
1023.0,0.4481
1024.0,0.4426
1025.0,0.4477
1026.0,0.4459
1027.0,0.4448
1028.0,0.4439
1029.0,0.4387
1030.0,0.4416
1031.0,0.4399
1032.0,0.4386
1033.0,0.432
1034.0,0.432
1035.0,0.4333
1036.0,0.4356
1037.0,0.4285
1038.0,0.4304
1039.0,0.4302
1040.0,0.4285
1041.0,0.4302
1042.0,0.4272
1043.0,0.4259
1044.0,0.4274
1045.0,0.4216
1046.0,0.417
1047.0,0.4207
1048.0,0.4231
1049.0,0.4216
1050.0,0.4197
1051.0,0.4191
1052.0,0.4174
1053.0,0.4142
1054.0,0.4151
1055.0,0.4154
1056.0,0.414
1057.0,0.4127
1058.0,0.4026
1059.0,0.4031
1060.0,0.4025
1061.0,0.4021
1062.0,0.4042
1063.0,0.4003
1064.0,0.405
1065.0,0.4022
1066.0,0.3942
1067.0,0.3993
1068.0,0.3906
1069.0,0.3785
1070.0,0.3914
1071.0,0.3972
1072.0,0.3929
1073.0,0.3872
1074.0,0.3969
1075.0,0.3779
1076.0,0.3966
1077.0,0.39
1078.0,0.3828
1079.0,0.3901
1080.0,0.384
1081.0,0.3721
1082.0,0.3773
1083.0,0.3783
1084.0,0.3714
1085.0,0.3848
1086.0,0.3525
1087.0,0.3628
1088.0,0.3781
1089.0,0.3673
1090.0,0.3598
1091.0,0.377
1092.0,0.3759
1093.0,0.3213
1094.0,0.3442
1095.0,0.3344
1096.0,0.3209
1097.0,0.3672
1098.0,0.3162
1099.0,0.3294
1100.0,0.3074
1101.0,0.3109
1102.0,0.2976
1103.0,0.2952
1104.0,0.2956
1105.0,0.3221
1106.0,0.2508
1107.0,0.3068
1108.0,0.2627
1109.0,0.2627
1110.0,0.3045
1111.0,0.2101
1112.0,0.2604
1113.0,0.1694
1114.0,0.189
1115.0,0.1568
1116.0,0.1274
1117.0,0.04921
1118.0,0.1378
1119.0,0.07029
1120.0,0.08857
1121.0,0.1164
1122.0,0.05062
1123.0,0.07997
1124.0,0.06752
1125.0,0.08763
1126.0,0.03214
1127.0,0.0987
1128.0,0.06081
1129.0,0.06427
1130.0,0.04301
1131.0,0.183
1132.0,0.1444
1133.0,0.09372
1134.0,0.02529
1135.0,0.009407
1136.0,0.07898
1137.0,0.1805
1138.0,0.1276
1139.0,0.186
1140.0,0.1571
1141.0,0.1212
1142.0,0.1386
1143.0,0.195
1144.0,0.07026
1145.0,0.09033
1146.0,0.09745
1147.0,0.03598
1148.0,0.1688
1149.0,0.1361
1150.0,0.07541
1151.0,0.1266
1152.0,0.1543
1153.0,0.1492
1154.0,0.08785
1155.0,0.1941
1156.0,0.1756
1157.0,0.1958
1158.0,0.1936
1159.0,0.2077
1160.0,0.1788
1161.0,0.2177
1162.0,0.219
1163.0,0.291
1164.0,0.2514
1165.0,0.2388
1166.0,0.2359
1167.0,0.2561
1168.0,0.2593
1169.0,0.2648
1170.0,0.2864
1171.0,0.2794
1172.0,0.2836
1173.0,0.2857
1174.0,0.2081
1175.0,0.2785
1176.0,0.3041
1177.0,0.2932
1178.0,0.2234
1179.0,0.3064
1180.0,0.2758
1181.0,0.2844
1182.0,0.1997
1183.0,0.2796
1184.0,0.2631
1185.0,0.255
1186.0,0.2988
1187.0,0.2857
1188.0,0.2035
1189.0,0.2664
1190.0,0.292
1191.0,0.2791
1192.0,0.2958
1193.0,0.2842
1194.0,0.2924
1195.0,0.2779
1196.0,0.2685
1197.0,0.2919
1198.0,0.268
1199.0,0.2311
1200.0,0.2807
1201.0,0.2718
1202.0,0.2696
1203.0,0.2674
1204.0,0.2355
1205.0,0.2749
1206.0,0.302
1207.0,0.2692
1208.0,0.264
1209.0,0.2692
1210.0,0.2797
1211.0,0.2676
1212.0,0.2658
1213.0,0.2927
1214.0,0.2715
1215.0,0.2667
1216.0,0.2917
1217.0,0.2846
1218.0,0.2894
1219.0,0.2861
1220.0,0.2896
1221.0,0.2921
1222.0,0.2849
1223.0,0.2825
1224.0,0.2812
1225.0,0.2903
1226.0,0.2919
1227.0,0.2709
1228.0,0.293
1229.0,0.2919
1230.0,0.2872
1231.0,0.2944
1232.0,0.2926
1233.0,0.2839
1234.0,0.2938
1235.0,0.2922
1236.0,0.2941
1237.0,0.2906
1238.0,0.2931
1239.0,0.2894
1240.0,0.2904
1241.0,0.2894
1242.0,0.2885
1243.0,0.2861
1244.0,0.2882
1245.0,0.2894
1246.0,0.2877
1247.0,0.2867
1248.0,0.2866
1249.0,0.2874
1250.0,0.2857
1251.0,0.2823
1252.0,0.2821
1253.0,0.2803
1254.0,0.2778
1255.0,0.2819
1256.0,0.2748
1257.0,0.2735
1258.0,0.2779
1259.0,0.2692
1260.0,0.2704
1261.0,0.2568
1262.0,0.25
1263.0,0.2505
1264.0,0.2332
1265.0,0.2489
1266.0,0.2407
1267.0,0.2441
1268.0,0.2328
1269.0,0.1531
1270.0,0.2435
1271.0,0.2558
1272.0,0.2564
1273.0,0.2539
1274.0,0.2545
1275.0,0.2578
1276.0,0.26
1277.0,0.2614
1278.0,0.2657
1279.0,0.2634
1280.0,0.26
1281.0,0.2478
1282.0,0.2383
1283.0,0.2567
1284.0,0.263
1285.0,0.2646
1286.0,0.2679
1287.0,0.2643
1288.0,0.2641
1289.0,0.2568
1290.0,0.2617
1291.0,0.2652
1292.0,0.251
1293.0,0.2605
1294.0,0.2587
1295.0,0.258
1296.0,0.2475
1297.0,0.2351
1298.0,0.2511
1299.0,0.2606
1300.0,0.2239
1301.0,0.2301
1302.0,0.2502
1303.0,0.2206
1304.0,0.1912
1305.0,0.2453
1306.0,0.2456
1307.0,0.1943
1308.0,0.2204
1309.0,0.2439
1310.0,0.1907
1311.0,0.212
1312.0,0.2068
1313.0,0.2033
1314.0,0.183
1315.0,0.1813
1316.0,0.2092
1317.0,0.1985
1318.0,0.2145
1319.0,0.1712
1320.0,0.1651
1321.0,0.1911
1322.0,0.1936
1323.0,0.1486
1324.0,0.1679
1325.0,0.2064
1326.0,0.179
1327.0,0.1712
1328.0,0.1485
1329.0,0.1139
1330.0,0.1471
1331.0,0.09164
1332.0,0.09366
1333.0,0.1297
1334.0,0.1086
1335.0,0.148
1336.0,0.1185
1337.0,0.1056
1338.0,0.1142
1339.0,0.1133
1340.0,0.1095
1341.0,0.1085
1342.0,0.1139
1343.0,0.08055
1344.0,0.04808
1345.0,0.06906
1346.0,0.03655
1347.0,0.03755
1348.0,0.002863
1349.0,0.009814
1350.0,0.009858
1351.0,0.00277
1352.0,0.0008727
1353.0,5.31e-05
1354.0,0.0001637
1355.0,1.886e-06
1356.0,2.631e-05
1357.0,3.987e-05
1358.0,2.202e-06
1359.0,3.619e-07
1360.0,1.108e-06
1361.0,2.186e-09
1362.0,7.694e-12
1363.0,1.613e-06
1364.0,6.829e-07
1365.0,3.663e-12
1366.0,6.567e-06
1367.0,2.586e-06
1368.0,5.193e-14
1369.0,2.597e-07
1370.0,1.432e-07
1371.0,9.381e-09
1372.0,1.425e-06
1373.0,2.396e-05
1374.0,9.848e-05
1375.0,0.0001792
1376.0,0.0001464
1377.0,6.903e-05
1378.0,0.0006368
1379.0,2.919e-05
1380.0,4.524e-05
1381.0,1.282e-06
1382.0,1.326e-06
1383.0,2.218e-08
1384.0,3.068e-07
1385.0,1.109e-06
1386.0,1.275e-06
1387.0,0.0001096
1388.0,2.199e-06
1389.0,0.0003258
1390.0,0.0002804
1391.0,0.0001926
1392.0,1.313e-05
1393.0,6.509e-05
1394.0,4.084e-05
1395.0,3.497e-07
1396.0,2.922e-09
1397.0,2.727e-05
1398.0,0.0007238
1399.0,0.0004586
1400.0,1.463e-09
1401.0,4.982e-09
1402.0,0.001086
1403.0,0.001406
1404.0,0.0004343
1405.0,1.874e-07
1406.0,0.001187
1407.0,0.0001019
1408.0,0.0009635
1409.0,0.000354
1410.0,0.0002687
1411.0,0.00123
1412.0,0.00159
1413.0,0.01444
1414.0,0.0002099
1415.0,0.0001052
1416.0,0.02224
1417.0,0.007198
1418.0,0.008252
1419.0,0.001303
1420.0,0.005067
1421.0,0.005495
1422.0,0.0289
1423.0,0.005723
1424.0,0.01061
1425.0,0.01579
1426.0,0.0175
1427.0,0.03121
1428.0,0.002722
1429.0,0.02377
1430.0,0.03945
1431.0,0.04308
1432.0,0.002155
1433.0,0.02775
1434.0,0.01429
1435.0,0.01488
1436.0,0.02779
1437.0,0.02129
1438.0,0.009248
1439.0,0.03739
1440.0,0.02804
1441.0,0.02181
1442.0,0.02412
1443.0,0.02963
1444.0,0.04075
1445.0,0.03241
1446.0,0.01473
1447.0,0.02319
1448.0,0.07493
1449.0,0.06554
1450.0,0.01717
