interpolation:linear
wavelength,value
280.0,5.465000000000001e-20
280.5,1.522e-18
281.0,7.726e-18
281.5,4.688e-19
282.0,2.091e-18
282.5,5.958e-18
283.0,1.991e-17
283.5,3.289e-17
284.0,5.181e-16
284.5,1.46e-15
285.0,2.942e-15
285.5,1.837e-14
286.0,7.882e-14
286.5,3.85e-13
287.0,1.154e-12
287.5,4.618e-12
288.0,1.357e-11
288.5,5.41e-11
289.0,1.827e-10
289.5,6.905e-10
290.0,2.273e-09
290.5,5.32e-09
291.0,1.335e-08
291.5,4.624e-08
292.0,1.236e-07
292.5,1.941e-07
293.0,4.804e-07
293.5,1.426e-06
294.0,2.595e-06
294.5,3.378e-06
295.0,6.568e-06
295.5,1.571e-05
296.0,2.975e-05
296.5,4.081e-05
297.0,5.432e-05
297.5,0.000142
298.0,0.0002187
298.5,0.0002161
299.0,0.000468
299.5,0.0007514
300.0,0.0008115
300.5,0.001153
301.0,0.00202
301.5,0.003125
302.0,0.002634
302.5,0.00496
303.0,0.008487
303.5,0.01036
304.0,0.009523
304.5,0.01342
305.0,0.01881
305.5,0.0205
306.0,0.01947
306.5,0.02349
307.0,0.03255
307.5,0.04055
308.0,0.04239
308.5,0.0485
309.0,0.0467
309.5,0.05114
310.0,0.05033
310.5,0.08068
311.0,0.09954
311.5,0.09536
312.0,0.09185
312.5,0.109
313.0,0.1167
313.5,0.1147
314.0,0.1391
314.5,0.1185
315.0,0.1546
315.5,0.1318
316.0,0.1115
316.5,0.1556
317.0,0.1933
317.5,0.2027
318.0,0.1551
318.5,0.1856
319.0,0.2162
319.5,0.1815
320.0,0.2203
320.5,0.2655
321.0,0.2286
321.5,0.2184
322.0,0.2413
322.5,0.2095
323.0,0.2038
323.5,0.2448
324.0,0.2846
324.5,0.2917
325.0,0.2552
325.5,0.322
326.0,0.3913
326.5,0.3868
327.0,0.3873
327.5,0.3762
328.0,0.3406
328.5,0.3508
329.0,0.4132
329.5,0.4667
330.0,0.4726
330.5,0.3829
331.0,0.3917
331.5,0.3944
332.0,0.4204
332.5,0.4133
333.0,0.4135
333.5,0.3779
334.0,0.3877
334.5,0.4423
335.0,0.4129
335.5,0.4822
336.0,0.3336
336.5,0.3918
337.0,0.323
337.5,0.4023
338.0,0.3892
338.5,0.449
339.0,0.4443
339.5,0.4273
340.0,0.5023
340.5,0.4523
341.0,0.4412
341.5,0.4049
342.0,0.4838
342.5,0.4525
343.0,0.4977
343.5,0.4687
344.0,0.3462
344.5,0.3498
345.0,0.4627
345.5,0.4722
346.0,0.4012
346.5,0.4542
347.0,0.4876
347.5,0.3943
348.0,0.4493
348.5,0.449
349.0,0.4164
349.5,0.4122
350.0,0.5098
350.5,0.5377
351.0,0.4804
351.5,0.467
352.0,0.5014
352.5,0.3912
353.0,0.4925
353.5,0.5266
354.0,0.5466
354.5,0.5543
355.0,0.5525
355.5,0.499
356.0,0.522
356.5,0.4457
357.0,0.3683
357.5,0.4509
358.0,0.3573
358.5,0.3053
359.0,0.427
359.5,0.5443
360.0,0.5769
360.5,0.4611
361.0,0.4203
361.5,0.4838
362.0,0.4182
362.5,0.5787
363.0,0.5197
363.5,0.4786
364.0,0.5852
364.5,0.5002
365.0,0.5094
365.5,0.6393
366.0,0.6773
366.5,0.6363
367.0,0.6196
367.5,0.643
368.0,0.5626
368.5,0.5677
369.0,0.613
369.5,0.6534
370.0,0.6965
370.5,0.5405
371.0,0.5775
371.5,0.7225
372.0,0.4795
372.5,0.5749
373.0,0.5848
373.5,0.3805
374.0,0.5528
374.5,0.4578
375.0,0.445
375.5,0.6644
376.0,0.5508
376.5,0.5708
377.0,0.6042
377.5,0.7069
378.0,0.7663
378.5,0.7243
379.0,0.5978
379.5,0.5461
380.0,0.5677
380.5,0.6876
381.0,0.689
381.5,0.5461
382.0,0.4849
382.5,0.4133
383.0,0.3827
383.5,0.3685
384.0,0.4065
384.5,0.5979
385.0,0.5929
385.5,0.5522
386.0,0.4729
386.5,0.6211
387.0,0.5161
387.5,0.5797
388.0,0.5352
388.5,0.5291
389.0,0.5711
389.5,0.6917
390.0,0.6942
390.5,0.6388
391.0,0.7519
391.5,0.7669
392.0,0.646
392.5,0.5783
393.0,0.3218
393.5,0.2339
394.0,0.4759
394.5,0.6051
395.0,0.7383
395.5,0.75
396.0,0.6503
396.5,0.3801
397.0,0.2852
397.5,0.5801
398.0,0.8124
398.5,0.8397
399.0,0.9092
399.5,0.9062
400.0,0.941
401.0,0.9563
402.0,1.009
403.0,0.9581
404.0,0.9433
405.0,0.9432
406.0,0.9277
407.0,0.9126
408.0,0.9483
409.0,1.015
410.0,0.8866
411.0,0.9603
412.0,1.031
413.0,1.006
414.0,1.018
415.0,1.02
416.0,1.038
417.0,1.012
418.0,0.9936
419.0,1.007
420.0,1.002
421.0,1.048
422.0,0.9962
423.0,0.973
424.0,1.029
425.0,1.027
426.0,1.0
427.0,0.9814
428.0,0.956
429.0,0.9053
430.0,0.7921
431.0,0.7852
432.0,1.014
433.0,1.019
434.0,0.9462
435.0,0.9883
436.0,1.113
437.0,1.098
438.0,0.9996
439.0,1.034
440.0,1.067
441.0,1.105
442.0,1.185
443.0,1.155
444.0,1.179
445.0,1.154
446.0,1.101
447.0,1.19
448.0,1.209
449.0,1.213
450.0,1.247
451.0,1.293
452.0,1.245
453.0,1.171
454.0,1.222
455.0,1.23
456.0,1.259
457.0,1.28
458.0,1.236
459.0,1.23
460.0,1.233
461.0,1.261
462.0,1.271
463.0,1.262
464.0,1.241
465.0,1.225
466.0,1.236
467.0,1.214
468.0,1.228
469.0,1.234
470.0,1.195
471.0,1.193
472.0,1.257
473.0,1.241
474.0,1.243
475.0,1.254
476.0,1.218
477.0,1.221
478.0,1.255
479.0,1.247
480.0,1.249
481.0,1.272
482.0,1.278
483.0,1.262
484.0,1.236
485.0,1.177
486.0,1.029
487.0,1.078
488.0,1.182
489.0,1.186
490.0,1.248
491.0,1.226
492.0,1.158
493.0,1.195
494.0,1.207
495.0,1.218
496.0,1.225
497.0,1.244
498.0,1.186
499.0,1.201
500.0,1.167
501.0,1.145
502.0,1.13
503.0,1.177
504.0,1.149
505.0,1.188
506.0,1.227
507.0,1.167
508.0,1.13
509.0,1.161
510.0,1.155
511.0,1.185
512.0,1.198
513.0,1.134
514.0,1.126
515.0,1.115
516.0,1.112
517.0,0.9879
518.0,1.039
519.0,1.089
520.0,1.129
521.0,1.14
522.0,1.141
523.0,1.121
524.0,1.161
525.0,1.175
526.0,1.123
527.0,1.059
528.0,1.12
529.0,1.181
530.0,1.164
531.0,1.181
532.0,1.141
533.0,1.107
534.0,1.14
535.0,1.165
536.0,1.175
537.0,1.128
538.0,1.148
539.0,1.139
540.0,1.092
541.0,1.1
542.0,1.134
543.0,1.122
544.0,1.142
545.0,1.138
546.0,1.144
547.0,1.143
548.0,1.129
549.0,1.132
550.0,1.146
551.0,1.132
552.0,1.139
553.0,1.119
554.0,1.146
555.0,1.148
556.0,1.134
557.0,1.098
558.0,1.091
559.0,1.07
560.0,1.084
561.0,1.098
562.0,1.091
563.0,1.121
564.0,1.091
565.0,1.082
566.0,1.066
567.0,1.087
568.0,1.078
569.0,1.054
570.0,1.054
571.0,1.047
572.0,1.073
573.0,1.085
574.0,1.082
575.0,1.062
576.0,1.052
577.0,1.064
578.0,1.047
579.0,1.05
580.0,1.069
581.0,1.073
582.0,1.093
583.0,1.095
584.0,1.104
585.0,1.076
586.0,1.054
587.0,1.078
588.0,1.054
589.0,0.9388
590.0,0.9814
591.0,1.036
592.0,1.024
593.0,1.037
594.0,1.031
595.0,1.007
596.0,1.043
597.0,1.033
598.0,1.029
599.0,1.029
600.0,1.03
601.0,1.021
602.0,1.014
603.0,1.03
604.0,1.047
605.0,1.041
606.0,1.037
607.0,1.046
608.0,1.034
609.0,1.036
610.0,1.028
611.0,1.033
612.0,1.03
613.0,1.017
614.0,1.003
615.0,1.024
616.0,0.9901
617.0,0.9879
618.0,1.026
619.0,1.015
620.0,1.022
621.0,1.023
622.0,1.011
623.0,0.9962
624.0,0.9789
625.0,0.9766
626.0,0.9912
627.0,1.003
628.0,0.947
629.0,0.9829
630.0,0.9606
631.0,0.9788
632.0,0.9665
633.0,0.9944
634.0,0.9837
635.0,0.9984
636.0,0.9846
637.0,1.0
638.0,1.009
639.0,0.9974
640.0,0.9873
641.0,0.9863
642.0,0.9814
643.0,0.9946
644.0,0.991
645.0,0.9928
646.0,0.9709
647.0,0.9621
648.0,0.9633
649.0,0.9448
650.0,0.9458
651.0,0.9861
652.0,0.949
653.0,0.9729
654.0,0.9617
655.0,0.9279
656.0,0.821
657.0,0.8429
658.0,0.9436
659.0,0.9498
660.0,0.9536
661.0,0.9602
662.0,0.9628
663.0,0.9435
664.0,0.9537
665.0,0.9537
666.0,0.9541
667.0,0.9528
668.0,0.9529
669.0,0.9674
670.0,0.963
671.0,0.9626
672.0,0.9543
673.0,0.9685
674.0,0.9647
675.0,0.9558
676.0,0.9622
677.0,0.9525
678.0,0.9551
679.0,0.9396
680.0,0.947
681.0,0.9407
682.0,0.9395
683.0,0.9377
684.0,0.933
685.0,0.9408
686.0,0.9354
687.0,0.6654
688.0,0.7584
689.0,0.7604
690.0,0.7905
691.0,0.824
692.0,0.8477
693.0,0.8415
694.0,0.8345
695.0,0.8637
696.0,0.8649
697.0,0.911
698.0,0.897
699.0,0.88
700.0,0.8695
701.0,0.862
702.0,0.8663
703.0,0.8679
704.0,0.893
705.0,0.8943
706.0,0.8925
707.0,0.8928
708.0,0.8948
709.0,0.8945
710.0,0.8952
711.0,0.8935
712.0,0.8901
713.0,0.8818
714.0,0.8849
715.0,0.8587
716.0,0.8596
717.0,0.7618
718.0,0.7025
719.0,0.6453
720.0,0.6771
721.0,0.7373
722.0,0.8325
723.0,0.7808
724.0,0.71
725.0,0.7009
726.0,0.7324
727.0,0.7391
728.0,0.6998
729.0,0.7201
730.0,0.7619
731.0,0.7308
732.0,0.7755
733.0,0.815
734.0,0.8327
735.0,0.8164
736.0,0.8152
737.0,0.8186
738.0,0.8273
739.0,0.8111
740.0,0.831
741.0,0.8221
742.0,0.8221
743.0,0.8429
744.0,0.84
745.0,0.8398
746.0,0.8437
747.0,0.8454
748.0,0.8436
749.0,0.834
750.0,0.8334
751.0,0.825
752.0,0.8285
753.0,0.8326
754.0,0.8345
755.0,0.8298
756.0,0.8294
757.0,0.8306
758.0,0.8203
759.0,0.806
760.0,0.179
761.0,0.104
762.0,0.4574
763.0,0.2557
764.0,0.3602
765.0,0.4576
766.0,0.5403
767.0,0.6606
768.0,0.7458
769.0,0.7578
770.0,0.7795
771.0,0.784
772.0,0.785
773.0,0.7904
774.0,0.7864
775.0,0.7804
776.0,0.7898
777.0,0.7794
778.0,0.7747
779.0,0.7753
780.0,0.7709
781.0,0.7717
782.0,0.7765
783.0,0.7629
784.0,0.7665
785.0,0.761
786.0,0.7695
787.0,0.7578
788.0,0.7492
789.0,0.7491
790.0,0.7317
791.0,0.7356
792.0,0.7299
793.0,0.7183
794.0,0.728
795.0,0.741
796.0,0.7216
797.0,0.7226
798.0,0.7404
799.0,0.7364
800.0,0.7244
801.0,0.7229
802.0,0.7207
803.0,0.7157
804.0,0.7163
805.0,0.7131
806.0,0.7315
807.0,0.723
808.0,0.7235
809.0,0.7111
810.0,0.7062
811.0,0.7088
812.0,0.6908
813.0,0.6779
814.0,0.6044
815.0,0.6004
816.0,0.56
817.0,0.5693
818.0,0.5498
819.0,0.6076
820.0,0.575
821.0,0.6626
822.0,0.6452
823.0,0.4541
824.0,0.6297
825.0,0.6515
826.0,0.6297
827.0,0.6614
828.0,0.5694
829.0,0.6252
830.0,0.618
831.0,0.6198
832.0,0.6024
833.0,0.6365
834.0,0.6168
835.0,0.6715
836.0,0.6465
837.0,0.6731
838.0,0.6538
839.0,0.6626
840.0,0.6767
841.0,0.6678
842.0,0.6681
843.0,0.6666
844.0,0.6579
845.0,0.6793
846.0,0.6761
847.0,0.6632
848.0,0.6596
849.0,0.6409
850.0,0.6139
851.0,0.6505
852.0,0.6457
853.0,0.6211
854.0,0.5366
855.0,0.5891
856.0,0.644
857.0,0.658
858.0,0.6533
859.0,0.6537
860.0,0.6547
861.0,0.6511
862.0,0.6613
863.0,0.6769
864.0,0.6431
865.0,0.6374
866.0,0.5731
867.0,0.5981
868.0,0.6508
869.0,0.6373
870.0,0.6554
871.0,0.6465
872.0,0.6442
873.0,0.6429
874.0,0.6352
875.0,0.6224
876.0,0.6289
877.0,0.6352
878.0,0.6422
879.0,0.6323
880.0,0.6187
881.0,0.6097
882.0,0.623
883.0,0.6247
884.0,0.6219
885.0,0.6266
886.0,0.598
887.0,0.6037
888.0,0.613
889.0,0.6193
890.0,0.615
891.0,0.6135
892.0,0.5969
893.0,0.5795
894.0,0.5617
895.0,0.5341
896.0,0.5046
897.0,0.4379
898.0,0.4753
899.0,0.367
900.0,0.4839
901.0,0.3844
902.0,0.4439
903.0,0.4506
904.0,0.5575
905.0,0.5398
906.0,0.5063
907.0,0.418
908.0,0.4253
909.0,0.4576
910.0,0.4103
911.0,0.4339
912.0,0.4523
913.0,0.4167
914.0,0.4121
915.0,0.4463
916.0,0.3794
917.0,0.4753
918.0,0.3892
919.0,0.4825
920.0,0.4845
921.0,0.5033
922.0,0.454
923.0,0.486
924.0,0.4656
925.0,0.4555
926.0,0.4605
927.0,0.5117
928.0,0.3863
929.0,0.3556
930.0,0.284
931.0,0.2683
932.0,0.1979
933.0,0.1633
934.0,0.09482
935.0,0.165
936.0,0.1063
937.0,0.1082
938.0,0.1318
939.0,0.26
940.0,0.3096
941.0,0.238
942.0,0.2728
943.0,0.1828
944.0,0.1895
945.0,0.2446
946.0,0.129
947.0,0.2469
948.0,0.1821
949.0,0.326
950.0,0.09761
951.0,0.3202
952.0,0.178
953.0,0.2259
954.0,0.2727
955.0,0.2281
956.0,0.2192
957.0,0.1788
958.0,0.3045
959.0,0.2466
960.0,0.2763
961.0,0.3065
962.0,0.2905
963.0,0.3318
964.0,0.305
965.0,0.3302
966.0,0.331
967.0,0.3299
968.0,0.4315
969.0,0.4516
970.0,0.4162
971.0,0.4717
972.0,0.4521
973.0,0.3984
974.0,0.3788
975.0,0.3913
976.0,0.3741
977.0,0.4208
978.0,0.4018
979.0,0.4193
980.0,0.3952
981.0,0.4688
982.0,0.4499
983.0,0.433
984.0,0.4811
985.0,0.4482
986.0,0.4884
987.0,0.4801
988.0,0.4792
989.0,0.4862
990.0,0.4763
991.0,0.4878
992.0,0.4905
993.0,0.4808
994.0,0.4902
995.0,0.4895
996.0,0.4875
997.0,0.4881
998.0,0.4859
999.0,0.484
1000.0,0.4809
1001.0,0.4866
1002.0,0.4744
1003.0,0.4781
1004.0,0.4667
1005.0,0.4492
1006.0,0.4669
1007.0,0.4767
1008.0,0.4743
1009.0,0.472
1010.0,0.4701
1011.0,0.4743
1012.0,0.4704
1013.0,0.473
1014.0,0.4697
1015.0,0.4667
1016.0,0.4646
1017.0,0.4658
1018.0,0.4639
1019.0,0.4544
1020.0,0.4615
1021.0,0.4608
1022.0,0.4574
1023.0,0.4623
1024.0,0.4567
1025.0,0.4618
1026.0,0.46
1027.0,0.4589
1028.0,0.4579
1029.0,0.4526
1030.0,0.4555
1031.0,0.4537
1032.0,0.4524
1033.0,0.4456
1034.0,0.4456
1035.0,0.447
1036.0,0.4493
1037.0,0.442
1038.0,0.444
1039.0,0.4438
1040.0,0.442
1041.0,0.4438
1042.0,0.4407
1043.0,0.4393
1044.0,0.4409
1045.0,0.4349
1046.0,0.4301
1047.0,0.434
1048.0,0.4365
1049.0,0.4349
1050.0,0.433
1051.0,0.4324
1052.0,0.4307
1053.0,0.4273
1054.0,0.4283
1055.0,0.4286
1056.0,0.4272
1057.0,0.4259
1058.0,0.4155
1059.0,0.416
1060.0,0.4154
1061.0,0.4149
1062.0,0.4172
1063.0,0.4131
1064.0,0.418
1065.0,0.4151
1066.0,0.4068
1067.0,0.4121
1068.0,0.4032
1069.0,0.3907
1070.0,0.4041
1071.0,0.41
1072.0,0.4055
1073.0,0.3996
1074.0,0.4095
1075.0,0.3902
1076.0,0.4092
1077.0,0.4026
1078.0,0.3953
1079.0,0.4025
1080.0,0.3964
1081.0,0.3843
1082.0,0.3894
1083.0,0.3904
1084.0,0.3837
1085.0,0.3972
1086.0,0.3644
1087.0,0.3747
1088.0,0.3902
1089.0,0.3794
1090.0,0.3718
1091.0,0.3892
1092.0,0.388
1093.0,0.3325
1094.0,0.3554
1095.0,0.3459
1096.0,0.3323
1097.0,0.3789
1098.0,0.3275
1099.0,0.341
1100.0,0.3186
1101.0,0.3221
1102.0,0.3086
1103.0,0.3063
1104.0,0.3067
1105.0,0.3336
1106.0,0.2613
1107.0,0.318
1108.0,0.2732
1109.0,0.273
1110.0,0.3157
1111.0,0.2191
1112.0,0.2706
1113.0,0.1774
1114.0,0.1977
1115.0,0.1641
1116.0,0.1341
1117.0,0.05274
1118.0,0.1448
1119.0,0.07458
1120.0,0.09399
1121.0,0.123
1122.0,0.05415
1123.0,0.08483
1124.0,0.07164
1125.0,0.0928
1126.0,0.03467
1127.0,0.1045
1128.0,0.06505
1129.0,0.06864
1130.0,0.04625
1131.0,0.1921
1132.0,0.1518
1133.0,0.09944
1134.0,0.02738
1135.0,0.01016
1136.0,0.0841
1137.0,0.1897
1138.0,0.1343
1139.0,0.1942
1140.0,0.1646
1141.0,0.1276
1142.0,0.1455
1143.0,0.2041
1144.0,0.07438
1145.0,0.09581
1146.0,0.1034
1147.0,0.03884
1148.0,0.1767
1149.0,0.143
1150.0,0.07979
1151.0,0.1333
1152.0,0.1619
1153.0,0.1561
1154.0,0.09334
1155.0,0.2027
1156.0,0.1837
1157.0,0.2043
1158.0,0.202
1159.0,0.2163
1160.0,0.1868
1161.0,0.2264
1162.0,0.2278
1163.0,0.3013
1164.0,0.2608
1165.0,0.2483
1166.0,0.245
1167.0,0.2656
1168.0,0.269
1169.0,0.2746
1170.0,0.2965
1171.0,0.2894
1172.0,0.2935
1173.0,0.2959
1174.0,0.2167
1175.0,0.2881
1176.0,0.3141
1177.0,0.3032
1178.0,0.2319
1179.0,0.3165
1180.0,0.2855
1181.0,0.2943
1182.0,0.2077
1183.0,0.2892
1184.0,0.2725
1185.0,0.2643
1186.0,0.3088
1187.0,0.2956
1188.0,0.2116
1189.0,0.2757
1190.0,0.3018
1191.0,0.289
1192.0,0.3057
1193.0,0.2938
1194.0,0.3022
1195.0,0.2876
1196.0,0.2781
1197.0,0.3015
1198.0,0.2771
1199.0,0.2397
1200.0,0.2903
1201.0,0.2813
1202.0,0.2789
1203.0,0.2766
1204.0,0.2441
1205.0,0.2842
1206.0,0.3117
1207.0,0.2785
1208.0,0.273
1209.0,0.2783
1210.0,0.289
1211.0,0.2768
1212.0,0.2752
1213.0,0.3023
1214.0,0.2809
1215.0,0.276
1216.0,0.3013
1217.0,0.2941
1218.0,0.2989
1219.0,0.2956
1220.0,0.2991
1221.0,0.3016
1222.0,0.2943
1223.0,0.2918
1224.0,0.2906
1225.0,0.2997
1226.0,0.3013
1227.0,0.2799
1228.0,0.3023
1229.0,0.3013
1230.0,0.2965
1231.0,0.3037
1232.0,0.3019
1233.0,0.2932
1234.0,0.3031
1235.0,0.3014
1236.0,0.3034
1237.0,0.2998
1238.0,0.3024
1239.0,0.2985
1240.0,0.2995
1241.0,0.2985
1242.0,0.2975
1243.0,0.2951
1244.0,0.2973
1245.0,0.2985
1246.0,0.2967
1247.0,0.2957
1248.0,0.2957
1249.0,0.2964
1250.0,0.2948
1251.0,0.2912
1252.0,0.291
1253.0,0.2892
1254.0,0.2867
1255.0,0.2908
1256.0,0.2837
1257.0,0.2824
1258.0,0.2868
1259.0,0.278
1260.0,0.2793
1261.0,0.2657
1262.0,0.2588
1263.0,0.2593
1264.0,0.2419
1265.0,0.2576
1266.0,0.2494
1267.0,0.2527
1268.0,0.2413
1269.0,0.1608
1270.0,0.2522
1271.0,0.2645
1272.0,0.2651
1273.0,0.2626
1274.0,0.2631
1275.0,0.2665
1276.0,0.2687
1277.0,0.27
1278.0,0.2744
1279.0,0.272
1280.0,0.2685
1281.0,0.2558
1282.0,0.2458
1283.0,0.2649
1284.0,0.2714
1285.0,0.2731
1286.0,0.2764
1287.0,0.2728
1288.0,0.2725
1289.0,0.2652
1290.0,0.27
1291.0,0.2736
1292.0,0.2594
1293.0,0.2689
1294.0,0.2671
1295.0,0.2664
1296.0,0.2559
1297.0,0.2433
1298.0,0.2594
1299.0,0.2689
1300.0,0.2318
1301.0,0.2381
1302.0,0.2585
1303.0,0.2283
1304.0,0.1987
1305.0,0.2535
1306.0,0.2537
1307.0,0.2016
1308.0,0.2281
1309.0,0.2521
1310.0,0.1979
1311.0,0.2195
1312.0,0.2142
1313.0,0.2107
1314.0,0.19
1315.0,0.1884
1316.0,0.2167
1317.0,0.2057
1318.0,0.222
1319.0,0.1781
1320.0,0.1716
1321.0,0.1983
1322.0,0.2009
1323.0,0.155
1324.0,0.1747
1325.0,0.2138
1326.0,0.1859
1327.0,0.1779
1328.0,0.1546
1329.0,0.1193
1330.0,0.1537
1331.0,0.09652
1332.0,0.09837
1333.0,0.136
1334.0,0.1135
1335.0,0.1544
1336.0,0.124
1337.0,0.1107
1338.0,0.1197
1339.0,0.1187
1340.0,0.1145
1341.0,0.114
1342.0,0.1195
1343.0,0.08555
1344.0,0.05104
1345.0,0.0732
1346.0,0.03942
1347.0,0.0406
1348.0,0.003235
1349.0,0.01094
1350.0,0.01089
1351.0,0.003181
1352.0,0.001042
1353.0,6.65e-05
1354.0,0.0001992
1355.0,2.519e-06
1356.0,3.308e-05
1357.0,5.005e-05
1358.0,2.93e-06
1359.0,5.151e-07
1360.0,1.51e-06
1361.0,3.453e-09
1362.0,1.301e-11
1363.0,2.231e-06
1364.0,9.53e-07
1365.0,6.681e-12
1366.0,8.917e-06
1367.0,3.488e-06
1368.0,1.104e-13
1369.0,3.643e-07
1370.0,2.066e-07
1371.0,1.406e-08
1372.0,1.923e-06
1373.0,3.08e-05
1374.0,0.0001226
1375.0,0.0002226
1376.0,0.0001779
1377.0,8.453e-05
1378.0,0.0007657
1379.0,3.583e-05
1380.0,5.652e-05
1381.0,1.639e-06
1382.0,1.803e-06
1383.0,3.112e-08
1384.0,4.35e-07
1385.0,1.463e-06
1386.0,1.768e-06
1387.0,0.0001385
1388.0,2.806e-06
1389.0,0.0003984
1390.0,0.0003427
1391.0,0.0002374
1392.0,1.643e-05
1393.0,7.992e-05
1394.0,5.263e-05
1395.0,4.706e-07
1396.0,4.528e-09
1397.0,3.393e-05
1398.0,0.0008723
1399.0,0.0005528
1400.0,2.351e-09
1401.0,7.611e-09
1402.0,0.001256
1403.0,0.001638
1404.0,0.0005078
1405.0,2.585e-07
1406.0,0.001405
1407.0,0.0001201
1408.0,0.001138
1409.0,0.0004282
1410.0,0.0003211
1411.0,0.001431
1412.0,0.00183
1413.0,0.016
1414.0,0.0002502
1415.0,0.000127
1416.0,0.02416
1417.0,0.008011
1418.0,0.009191
1419.0,0.001461
1420.0,0.005652
1421.0,0.006143
1422.0,0.03133
1423.0,0.00626
1424.0,0.01157
1425.0,0.01727
1426.0,0.01896
1427.0,0.03341
1428.0,0.003086
1429.0,0.02563
1430.0,0.04209
1431.0,0.04584
1432.0,0.002448
1433.0,0.0297
1434.0,0.01538
1435.0,0.0163
1436.0,0.03
1437.0,0.02299
1438.0,0.01011
1439.0,0.04016
1440.0,0.03015
1441.0,0.02367
1442.0,0.02612
1443.0,0.03176
1444.0,0.04354
1445.0,0.0349
1446.0,0.01595
1447.0,0.02509
1448.0,0.0791
1449.0,0.06948
1450.0,0.01858
1451.0,0.007657
1452.0,0.04258
1453.0,0.05546
1454.0,0.09254
1455.0,0.04462
