interpolation:linear
wavelength,value
280.0,2.884e-21
280.5,9.043000000000001e-20
281.0,4.772e-19
281.5,3.302e-19
282.0,1.012e-18
282.5,2.692e-18
283.0,8.769e-18
283.5,1.439e-17
284.0,2.359e-16
284.5,6.819e-16
285.0,1.551e-15
285.5,7.53e-15
286.0,3.011e-14
286.5,1.327e-13
287.0,3.755e-13
287.5,1.42e-12
288.0,3.777e-12
288.5,1.256e-11
289.0,3.567e-11
289.5,1.13e-10
290.0,3.23e-10
290.5,6.719e-10
291.0,1.47e-09
291.5,4.297e-09
292.0,9.31e-09
292.5,1.401e-08
293.0,3.285e-08
293.5,9.019e-08
294.0,1.537e-07
294.5,1.989e-07
295.0,3.666e-07
295.5,9.601e-07
296.0,1.924e-06
296.5,2.807e-06
297.0,3.946e-06
297.5,1.126e-05
298.0,1.882e-05
298.5,1.987e-05
299.0,4.606e-05
299.5,8.396e-05
300.0,9.78e-05
300.5,0.0001509
301.0,0.0003062
301.5,0.000553
302.0,0.0005107
302.5,0.001009
303.0,0.001838
303.5,0.002335
304.0,0.002209
304.5,0.003348
305.0,0.00518
305.5,0.006006
306.0,0.005841
306.5,0.007328
307.0,0.01104
307.5,0.01489
308.0,0.01576
308.5,0.01874
309.0,0.01848
309.5,0.0213
310.0,0.02147
310.5,0.03483
311.0,0.04383
311.5,0.04237
312.0,0.04259
312.5,0.05201
313.0,0.05652
313.5,0.05481
314.0,0.0688
314.5,0.06131
315.0,0.08066
315.5,0.06733
316.0,0.05904
316.5,0.08506
317.0,0.1056
317.5,0.1098
318.0,0.08588
318.5,0.107
319.0,0.1273
319.5,0.1035
320.0,0.125
320.5,0.157
321.0,0.1402
321.5,0.1345
322.0,0.143
322.5,0.1244
323.0,0.1242
323.5,0.1529
324.0,0.1785
324.5,0.1812
325.0,0.1564
325.5,0.2015
326.0,0.2465
326.5,0.247
327.0,0.2462
327.5,0.2378
328.0,0.2116
328.5,0.2226
329.0,0.2668
329.5,0.303
330.0,0.3057
330.5,0.2446
331.0,0.2492
331.5,0.2534
332.0,0.274
332.5,0.2711
333.0,0.2703
333.5,0.2446
334.0,0.2507
334.5,0.2894
335.0,0.2721
335.5,0.3179
336.0,0.22
336.5,0.2576
337.0,0.2114
337.5,0.263
338.0,0.2569
338.5,0.2966
339.0,0.2937
339.5,0.2826
340.0,0.3321
340.5,0.2995
341.0,0.2921
341.5,0.2683
342.0,0.3207
342.5,0.3002
343.0,0.3302
343.5,0.3109
344.0,0.2299
344.5,0.2322
345.0,0.3074
345.5,0.314
346.0,0.2669
346.5,0.3024
347.0,0.3247
347.5,0.2626
348.0,0.2994
348.5,0.2994
349.0,0.2778
349.5,0.2752
350.0,0.3405
350.5,0.3592
351.0,0.3209
351.5,0.312
352.0,0.3352
352.5,0.2617
353.0,0.3297
353.5,0.3527
354.0,0.3662
354.5,0.3714
355.0,0.3703
355.5,0.3346
356.0,0.3502
356.5,0.2991
357.0,0.2472
357.5,0.3027
358.0,0.2399
358.5,0.2051
359.0,0.2869
359.5,0.3657
360.0,0.3878
360.5,0.31
361.0,0.2827
361.5,0.3257
362.0,0.2818
362.5,0.3901
363.0,0.3505
363.5,0.323
364.0,0.3952
364.5,0.3379
365.0,0.3442
365.5,0.4321
366.0,0.458
366.5,0.4305
367.0,0.4194
367.5,0.4353
368.0,0.3811
368.5,0.3846
369.0,0.4155
369.5,0.443
370.0,0.4724
370.5,0.3668
371.0,0.392
371.5,0.4906
372.0,0.3257
372.5,0.3906
373.0,0.3975
373.5,0.2587
374.0,0.376
374.5,0.3115
375.0,0.3029
375.5,0.4523
376.0,0.3751
376.5,0.3888
377.0,0.4117
377.5,0.4819
378.0,0.5224
378.5,0.4939
379.0,0.4077
379.5,0.3725
380.0,0.3873
380.5,0.4693
381.0,0.4705
381.5,0.3731
382.0,0.3315
382.5,0.2827
383.0,0.2618
383.5,0.2522
384.0,0.2783
384.5,0.4095
385.0,0.4062
385.5,0.3784
386.0,0.3242
386.5,0.426
387.0,0.3541
387.5,0.3978
388.0,0.3674
388.5,0.3633
389.0,0.3923
389.5,0.4752
390.0,0.4771
390.5,0.4392
391.0,0.5171
391.5,0.5276
392.0,0.4445
392.5,0.3981
393.0,0.2216
393.5,0.1611
394.0,0.3279
394.5,0.417
395.0,0.509
395.5,0.5172
396.0,0.4485
396.5,0.2623
397.0,0.1969
397.5,0.4005
398.0,0.561
398.5,0.58
399.0,0.6283
399.5,0.6264
400.0,0.6505
401.0,0.6593
402.0,0.696
403.0,0.6616
404.0,0.6516
405.0,0.6518
406.0,0.6416
407.0,0.6316
408.0,0.6564
409.0,0.7028
410.0,0.6144
411.0,0.6658
412.0,0.7155
413.0,0.698
414.0,0.7068
415.0,0.709
416.0,0.7218
417.0,0.7043
418.0,0.6915
419.0,0.7008
420.0,0.698
421.0,0.7305
422.0,0.6945
423.0,0.6787
424.0,0.718
425.0,0.7169
426.0,0.6987
427.0,0.6858
428.0,0.6683
429.0,0.6333
430.0,0.5544
431.0,0.5496
432.0,0.7099
433.0,0.714
434.0,0.6631
435.0,0.6927
436.0,0.7808
437.0,0.7706
438.0,0.702
439.0,0.7259
440.0,0.7493
441.0,0.7767
442.0,0.8332
443.0,0.8115
444.0,0.8294
445.0,0.8115
446.0,0.7748
447.0,0.838
448.0,0.851
449.0,0.8547
450.0,0.8789
451.0,0.9116
452.0,0.8785
453.0,0.8264
454.0,0.863
455.0,0.8684
456.0,0.8892
457.0,0.9041
458.0,0.8732
459.0,0.8688
460.0,0.8712
461.0,0.8913
462.0,0.8984
463.0,0.8923
464.0,0.8779
465.0,0.8671
466.0,0.8757
467.0,0.8597
468.0,0.8698
469.0,0.8744
470.0,0.8466
471.0,0.8456
472.0,0.891
473.0,0.8795
474.0,0.8806
475.0,0.888
476.0,0.8613
477.0,0.8635
478.0,0.8876
479.0,0.8824
480.0,0.8842
481.0,0.9009
482.0,0.9059
483.0,0.8952
484.0,0.877
485.0,0.8357
486.0,0.7307
487.0,0.766
488.0,0.8404
489.0,0.8429
490.0,0.8869
491.0,0.8718
492.0,0.8233
493.0,0.8503
494.0,0.8589
495.0,0.8662
496.0,0.8716
497.0,0.8851
498.0,0.8437
499.0,0.8544
500.0,0.8295
501.0,0.8141
502.0,0.8024
503.0,0.8348
504.0,0.8128
505.0,0.8426
506.0,0.8698
507.0,0.8277
508.0,0.8022
509.0,0.8249
510.0,0.8207
511.0,0.8429
512.0,0.8521
513.0,0.8066
514.0,0.8011
515.0,0.7932
516.0,0.7912
517.0,0.7031
518.0,0.7392
519.0,0.7753
520.0,0.8035
521.0,0.8111
522.0,0.8117
523.0,0.7971
524.0,0.8254
525.0,0.835
526.0,0.7976
527.0,0.7514
528.0,0.7945
529.0,0.8374
530.0,0.8253
531.0,0.8375
532.0,0.8087
533.0,0.785
534.0,0.8083
535.0,0.826
536.0,0.8337
537.0,0.8009
538.0,0.8151
539.0,0.8082
540.0,0.7748
541.0,0.7797
542.0,0.804
543.0,0.7958
544.0,0.8094
545.0,0.8069
546.0,0.8102
547.0,0.8101
548.0,0.8005
549.0,0.803
550.0,0.8125
551.0,0.8027
552.0,0.8083
553.0,0.7938
554.0,0.8128
555.0,0.8143
556.0,0.8037
557.0,0.7786
558.0,0.7727
559.0,0.7581
560.0,0.7675
561.0,0.7773
562.0,0.7715
563.0,0.7924
564.0,0.7706
565.0,0.7639
566.0,0.7525
567.0,0.7666
568.0,0.7593
569.0,0.7404
570.0,0.7403
571.0,0.7361
572.0,0.7531
573.0,0.7611
574.0,0.7585
575.0,0.7441
576.0,0.7374
577.0,0.7455
578.0,0.7346
579.0,0.7379
580.0,0.7526
581.0,0.757
582.0,0.7717
583.0,0.774
584.0,0.7809
585.0,0.762
586.0,0.7464
587.0,0.7624
588.0,0.7427
589.0,0.6558
590.0,0.686
591.0,0.7273
592.0,0.7173
593.0,0.7289
594.0,0.7234
595.0,0.7048
596.0,0.7344
597.0,0.726
598.0,0.7247
599.0,0.7256
600.0,0.7271
601.0,0.7215
602.0,0.7167
603.0,0.7287
604.0,0.7408
605.0,0.7371
606.0,0.7343
607.0,0.7418
608.0,0.7338
609.0,0.7352
610.0,0.7302
611.0,0.7341
612.0,0.7321
613.0,0.7229
614.0,0.7132
615.0,0.7289
616.0,0.705
617.0,0.7037
618.0,0.7309
619.0,0.7235
620.0,0.7281
621.0,0.7287
622.0,0.72
623.0,0.7089
624.0,0.6969
625.0,0.6953
626.0,0.7056
627.0,0.713
628.0,0.6608
629.0,0.6944
630.0,0.6782
631.0,0.6953
632.0,0.6873
633.0,0.7089
634.0,0.7025
635.0,0.7138
636.0,0.7046
637.0,0.7164
638.0,0.7237
639.0,0.7158
640.0,0.7091
641.0,0.7088
642.0,0.7058
643.0,0.7153
644.0,0.7132
645.0,0.7143
646.0,0.697
647.0,0.6873
648.0,0.6879
649.0,0.6744
650.0,0.6795
651.0,0.7093
652.0,0.6779
653.0,0.7
654.0,0.6923
655.0,0.6656
656.0,0.5906
657.0,0.6066
658.0,0.6803
659.0,0.6855
660.0,0.6884
661.0,0.6933
662.0,0.6944
663.0,0.6808
664.0,0.6894
665.0,0.6903
666.0,0.691
667.0,0.6906
668.0,0.6911
669.0,0.7019
670.0,0.6989
671.0,0.6989
672.0,0.693
673.0,0.7035
674.0,0.7009
675.0,0.6946
676.0,0.6995
677.0,0.6926
678.0,0.6946
679.0,0.6835
680.0,0.689
681.0,0.6845
682.0,0.6836
683.0,0.6823
684.0,0.6789
685.0,0.6848
686.0,0.6806
687.0,0.43
688.0,0.5141
689.0,0.5163
690.0,0.5451
691.0,0.5777
692.0,0.602
693.0,0.5967
694.0,0.5919
695.0,0.6191
696.0,0.62
697.0,0.6613
698.0,0.651
699.0,0.6332
700.0,0.6255
701.0,0.6184
702.0,0.6235
703.0,0.6247
704.0,0.646
705.0,0.647
706.0,0.647
707.0,0.6476
708.0,0.649
709.0,0.6508
710.0,0.6503
711.0,0.6497
712.0,0.6482
713.0,0.6413
714.0,0.6438
715.0,0.6226
716.0,0.6227
717.0,0.5321
718.0,0.4876
719.0,0.4459
720.0,0.4664
721.0,0.5197
722.0,0.5998
723.0,0.5557
724.0,0.4975
725.0,0.4885
726.0,0.5118
727.0,0.5211
728.0,0.4869
729.0,0.508
730.0,0.5373
731.0,0.5133
732.0,0.552
733.0,0.5872
734.0,0.602
735.0,0.5891
736.0,0.5883
737.0,0.5906
738.0,0.6017
739.0,0.5899
740.0,0.6059
741.0,0.6002
742.0,0.6011
743.0,0.6165
744.0,0.615
745.0,0.6153
746.0,0.6181
747.0,0.6195
748.0,0.6183
749.0,0.6112
750.0,0.6109
751.0,0.6047
752.0,0.6073
753.0,0.6104
754.0,0.6118
755.0,0.6083
756.0,0.6081
757.0,0.609
758.0,0.6013
759.0,0.5879
760.0,0.07813
761.0,0.03776
762.0,0.277
763.0,0.1261
764.0,0.2001
765.0,0.2769
766.0,0.3509
767.0,0.4544
768.0,0.534
769.0,0.5474
770.0,0.5685
771.0,0.5742
772.0,0.5757
773.0,0.5798
774.0,0.5771
775.0,0.5728
776.0,0.5798
777.0,0.5721
778.0,0.5687
779.0,0.5691
780.0,0.566
781.0,0.5666
782.0,0.5701
783.0,0.5602
784.0,0.563
785.0,0.5587
786.0,0.5648
787.0,0.5539
788.0,0.5466
789.0,0.5463
790.0,0.5303
791.0,0.5363
792.0,0.5325
793.0,0.5238
794.0,0.5342
795.0,0.5428
796.0,0.5242
797.0,0.5248
798.0,0.542
799.0,0.5381
800.0,0.5283
801.0,0.5262
802.0,0.5247
803.0,0.5205
804.0,0.5214
805.0,0.5204
806.0,0.5359
807.0,0.5292
808.0,0.5298
809.0,0.5191
810.0,0.5144
811.0,0.514
812.0,0.498
813.0,0.4869
814.0,0.4242
815.0,0.4218
816.0,0.3921
817.0,0.3997
818.0,0.3838
819.0,0.4327
820.0,0.4061
821.0,0.4798
822.0,0.4652
823.0,0.3084
824.0,0.4499
825.0,0.4713
826.0,0.4519
827.0,0.4785
828.0,0.4009
829.0,0.4495
830.0,0.4431
831.0,0.4448
832.0,0.4302
833.0,0.4601
834.0,0.4422
835.0,0.4894
836.0,0.4661
837.0,0.4909
838.0,0.4745
839.0,0.4837
840.0,0.4946
841.0,0.4871
842.0,0.4889
843.0,0.4894
844.0,0.4822
845.0,0.499
846.0,0.497
847.0,0.488
848.0,0.4846
849.0,0.4708
850.0,0.4511
851.0,0.4772
852.0,0.4741
853.0,0.4566
854.0,0.394
855.0,0.4332
856.0,0.4733
857.0,0.4841
858.0,0.4804
859.0,0.481
860.0,0.482
861.0,0.4793
862.0,0.4869
863.0,0.4984
864.0,0.4735
865.0,0.4694
866.0,0.422
867.0,0.4404
868.0,0.4793
869.0,0.4694
870.0,0.4828
871.0,0.4762
872.0,0.4745
873.0,0.4736
874.0,0.468
875.0,0.4585
876.0,0.4632
877.0,0.4679
878.0,0.4729
879.0,0.4657
880.0,0.4557
881.0,0.4487
882.0,0.4583
883.0,0.4599
884.0,0.4577
885.0,0.4612
886.0,0.4389
887.0,0.4441
888.0,0.4503
889.0,0.456
890.0,0.4514
891.0,0.4511
892.0,0.4371
893.0,0.4223
894.0,0.4053
895.0,0.3803
896.0,0.3573
897.0,0.3035
898.0,0.333
899.0,0.2493
900.0,0.3431
901.0,0.2613
902.0,0.3121
903.0,0.3134
904.0,0.4023
905.0,0.3873
906.0,0.3616
907.0,0.2884
908.0,0.295
909.0,0.3219
910.0,0.2803
911.0,0.3017
912.0,0.3161
913.0,0.2842
914.0,0.2827
915.0,0.3065
916.0,0.2584
917.0,0.3326
918.0,0.2647
919.0,0.34
920.0,0.3462
921.0,0.3602
922.0,0.3188
923.0,0.3482
924.0,0.3262
925.0,0.3192
926.0,0.3224
927.0,0.3642
928.0,0.2578
929.0,0.2328
930.0,0.1789
931.0,0.17
932.0,0.1182
933.0,0.094
934.0,0.0472
935.0,0.0979
936.0,0.05833
937.0,0.05886
938.0,0.07345
939.0,0.1646
940.0,0.2011
941.0,0.1478
942.0,0.1735
943.0,0.1109
944.0,0.1198
945.0,0.1532
946.0,0.07371
947.0,0.1527
948.0,0.1117
949.0,0.2086
950.0,0.05172
951.0,0.2062
952.0,0.1052
953.0,0.1396
954.0,0.1753
955.0,0.1416
956.0,0.1403
957.0,0.1049
958.0,0.2042
959.0,0.1575
960.0,0.1766
961.0,0.2019
962.0,0.1906
963.0,0.223
964.0,0.2033
965.0,0.2224
966.0,0.2217
967.0,0.2204
968.0,0.3074
969.0,0.3198
970.0,0.2923
971.0,0.3398
972.0,0.324
973.0,0.2768
974.0,0.262
975.0,0.274
976.0,0.2573
977.0,0.2986
978.0,0.2812
979.0,0.2962
980.0,0.2775
981.0,0.338
982.0,0.3212
983.0,0.3073
984.0,0.3505
985.0,0.32
986.0,0.358
987.0,0.3494
988.0,0.3488
989.0,0.3578
990.0,0.3467
991.0,0.3587
992.0,0.3609
993.0,0.3513
994.0,0.361
995.0,0.3607
996.0,0.3589
997.0,0.3596
998.0,0.3578
999.0,0.3565
1000.0,0.3536
1001.0,0.3585
1002.0,0.3471
1003.0,0.3521
1004.0,0.343
1005.0,0.331
1006.0,0.3437
1007.0,0.3511
1008.0,0.3489
1009.0,0.3468
1010.0,0.3451
1011.0,0.3494
1012.0,0.346
1013.0,0.3486
1014.0,0.3462
1015.0,0.3438
1016.0,0.3422
1017.0,0.343
1018.0,0.3419
1019.0,0.3341
1020.0,0.3401
1021.0,0.3397
1022.0,0.3368
1023.0,0.3404
1024.0,0.3353
1025.0,0.3403
1026.0,0.3387
1027.0,0.338
1028.0,0.3372
1029.0,0.3332
1030.0,0.3357
1031.0,0.3342
1032.0,0.3333
1033.0,0.3283
1034.0,0.3283
1035.0,0.3294
1036.0,0.331
1037.0,0.3257
1038.0,0.3271
1039.0,0.3268
1040.0,0.3255
1041.0,0.3268
1042.0,0.3245
1043.0,0.3234
1044.0,0.3245
1045.0,0.3201
1046.0,0.3165
1047.0,0.3193
1048.0,0.321
1049.0,0.3198
1050.0,0.3183
1051.0,0.3178
1052.0,0.3164
1053.0,0.3138
1054.0,0.3144
1055.0,0.3145
1056.0,0.3133
1057.0,0.3123
1058.0,0.3045
1059.0,0.3048
1060.0,0.3042
1061.0,0.3038
1062.0,0.3053
1063.0,0.3022
1064.0,0.3059
1065.0,0.3034
1066.0,0.2976
1067.0,0.3014
1068.0,0.2946
1069.0,0.2857
1070.0,0.2952
1071.0,0.3003
1072.0,0.2965
1073.0,0.2923
1074.0,0.3004
1075.0,0.2838
1076.0,0.3001
1077.0,0.2938
1078.0,0.2879
1079.0,0.2955
1080.0,0.2893
1081.0,0.2793
1082.0,0.2851
1083.0,0.2863
1084.0,0.2782
1085.0,0.2901
1086.0,0.2624
1087.0,0.2725
1088.0,0.2857
1089.0,0.2755
1090.0,0.2685
1091.0,0.2844
1092.0,0.284
1093.0,0.2365
1094.0,0.2593
1095.0,0.2469
1096.0,0.2351
1097.0,0.2775
1098.0,0.2309
1099.0,0.2416
1100.0,0.2227
1101.0,0.2261
1102.0,0.2148
1103.0,0.2119
1104.0,0.2122
1105.0,0.2356
1106.0,0.1732
1107.0,0.2224
1108.0,0.1843
1109.0,0.1855
1110.0,0.2198
1111.0,0.1435
1112.0,0.1844
1113.0,0.1117
1114.0,0.1253
1115.0,0.1036
1116.0,0.0794
1117.0,0.02579
1118.0,0.08744
1119.0,0.04054
1120.0,0.05077
1121.0,0.06905
1122.0,0.02666
1123.0,0.046
1124.0,0.03879
1125.0,0.05131
1126.0,0.01553
1127.0,0.0581
1128.0,0.03216
1129.0,0.03446
1130.0,0.02183
1131.0,0.1167
1132.0,0.09029
1133.0,0.0537
1134.0,0.01191
1135.0,0.004577
1136.0,0.04357
1137.0,0.1134
1138.0,0.07921
1139.0,0.1252
1140.0,0.1019
1141.0,0.07534
1142.0,0.08806
1143.0,0.128
1144.0,0.0414
1145.0,0.05185
1146.0,0.05588
1147.0,0.01728
1148.0,0.1106
1149.0,0.08622
1150.0,0.04497
1151.0,0.07856
1152.0,0.09918
1153.0,0.09856
1154.0,0.05004
1155.0,0.1305
1156.0,0.1161
1157.0,0.1327
1158.0,0.1312
1159.0,0.1432
1160.0,0.1207
1161.0,0.1525
1162.0,0.1529
1163.0,0.2129
1164.0,0.1803
1165.0,0.1679
1166.0,0.1684
1167.0,0.1845
1168.0,0.1861
1169.0,0.1912
1170.0,0.2097
1171.0,0.2043
1172.0,0.2091
1173.0,0.2092
1174.0,0.145
1175.0,0.2053
1176.0,0.228
1177.0,0.2173
1178.0,0.1599
1179.0,0.2299
1180.0,0.2027
1181.0,0.2093
1182.0,0.1409
1183.0,0.2067
1184.0,0.1925
1185.0,0.1847
1186.0,0.2225
1187.0,0.2108
1188.0,0.1428
1189.0,0.1962
1190.0,0.2176
1191.0,0.2046
1192.0,0.2208
1193.0,0.2109
1194.0,0.2179
1195.0,0.2047
1196.0,0.1963
1197.0,0.2187
1198.0,0.1992
1199.0,0.1665
1200.0,0.2082
1201.0,0.1998
1202.0,0.1994
1203.0,0.1973
1204.0,0.1712
1205.0,0.2048
1206.0,0.2278
1207.0,0.1985
1208.0,0.1962
1209.0,0.2005
1210.0,0.2095
1211.0,0.1984
1212.0,0.1946
1213.0,0.2196
1214.0,0.1999
1215.0,0.1959
1216.0,0.219
1217.0,0.2127
1218.0,0.2172
1219.0,0.2142
1220.0,0.2174
1221.0,0.2199
1222.0,0.2139
1223.0,0.2117
1224.0,0.2099
1225.0,0.2185
1226.0,0.2203
1227.0,0.2018
1228.0,0.2217
1229.0,0.2203
1230.0,0.2163
1231.0,0.2234
1232.0,0.222
1233.0,0.2132
1234.0,0.2234
1235.0,0.2218
1236.0,0.2236
1237.0,0.22
1238.0,0.2229
1239.0,0.22
1240.0,0.2209
1241.0,0.2195
1242.0,0.2193
1243.0,0.2176
1244.0,0.219
1245.0,0.22
1246.0,0.2187
1247.0,0.2178
1248.0,0.2175
1249.0,0.2183
1250.0,0.2169
1251.0,0.214
1252.0,0.2142
1253.0,0.2121
1254.0,0.2096
1255.0,0.2139
1256.0,0.2071
1257.0,0.2058
1258.0,0.2103
1259.0,0.2015
1260.0,0.2027
1261.0,0.1898
1262.0,0.1833
1263.0,0.1836
1264.0,0.1677
1265.0,0.1825
1266.0,0.1745
1267.0,0.1784
1268.0,0.168
1269.0,0.09677
1270.0,0.1774
1271.0,0.1894
1272.0,0.1902
1273.0,0.188
1274.0,0.1888
1275.0,0.1918
1276.0,0.194
1277.0,0.1956
1278.0,0.2
1279.0,0.1981
1280.0,0.1957
1281.0,0.187
1282.0,0.1806
1283.0,0.1944
1284.0,0.199
1285.0,0.2004
1286.0,0.2033
1287.0,0.1997
1288.0,0.1998
1289.0,0.1926
1290.0,0.1981
1291.0,0.201
1292.0,0.1872
1293.0,0.1967
1294.0,0.1952
1295.0,0.1938
1296.0,0.1839
1297.0,0.1732
1298.0,0.1881
1299.0,0.1971
1300.0,0.164
1301.0,0.1696
1302.0,0.1876
1303.0,0.1621
1304.0,0.1356
1305.0,0.1835
1306.0,0.1833
1307.0,0.1395
1308.0,0.1629
1309.0,0.1816
1310.0,0.1367
1311.0,0.1555
1312.0,0.1508
1313.0,0.1474
1314.0,0.131
1315.0,0.1286
1316.0,0.1525
1317.0,0.1442
1318.0,0.1578
1319.0,0.12
1320.0,0.117
1321.0,0.1375
1322.0,0.1382
1323.0,0.1013
1324.0,0.1178
1325.0,0.1501
1326.0,0.1271
1327.0,0.1208
1328.0,0.1032
1329.0,0.07504
1330.0,0.09894
1331.0,0.05685
1332.0,0.05965
1333.0,0.08364
1334.0,0.07242
1335.0,0.1008
1336.0,0.07815
1337.0,0.0684
1338.0,0.07397
1339.0,0.07406
1340.0,0.07285
1341.0,0.06924
1342.0,0.07291
1343.0,0.04579
1344.0,0.0277
1345.0,0.04
1346.0,0.01775
1347.0,0.01768
1348.0,0.0008904
1349.0,0.003428
1350.0,0.003742
1351.0,0.0007221
1352.0,0.0001494
1353.0,5.906e-06
1354.0,2.433e-05
1355.0,1.127e-07
1356.0,2.843e-06
1357.0,4.349e-06
1358.0,1.366e-07
1359.0,1.124e-08
1360.0,5.372e-08
1361.0,2.494e-11
1362.0,4.831e-14
1363.0,6.238e-08
1364.0,2.585e-08
1365.0,1.051e-14
1366.0,3.05e-07
1367.0,1.378e-07
1368.0,3.416e-17
1369.0,9.512e-09
1370.0,3.919e-09
1371.0,1.813e-10
1372.0,7.636e-08
1373.0,2.039e-06
1374.0,1.152e-05
1375.0,2.047e-05
1376.0,2.215e-05
1377.0,9.746e-06
1378.0,0.0001024
1379.0,4.09e-06
1380.0,5.181e-06
1381.0,1.224e-07
1382.0,6.533e-08
1383.0,8.517e-10
1384.0,9.966e-09
1385.0,7.634e-08
1386.0,5.111e-08
1387.0,1.045e-05
1388.0,2.129e-07
1389.0,4.461e-05
1390.0,3.801e-05
1391.0,2.453e-05
1392.0,1.52e-06
1393.0,8.933e-06
1394.0,3.313e-06
1395.0,1.992e-08
1396.0,4.053e-11
1397.0,3.296e-06
1398.0,0.0001121
1399.0,7.184e-05
1400.0,1.38e-11
1401.0,7.937e-11
1402.0,0.0002669
1403.0,0.0003171
1404.0,9.417e-05
1405.0,8.308e-09
1406.0,0.0002224
1407.0,2.149e-05
1408.0,0.0001853
1409.0,5.295e-05
1410.0,4.785e-05
1411.0,0.0002821
1412.0,0.0004113
1413.0,0.005277
1414.0,3.861e-05
1415.0,1.723e-05
1416.0,0.01009
1417.0,0.002622
1418.0,0.002875
1419.0,0.0004301
1420.0,0.001747
1421.0,0.001921
1422.0,0.01325
1423.0,0.002463
1424.0,0.004748
1425.0,0.006744
1426.0,0.008213
1427.0,0.01634
1428.0,0.0008163
1429.0,0.01157
1430.0,0.02142
1431.0,0.02396
1432.0,0.0006352
1433.0,0.01466
1434.0,0.007174
1435.0,0.006228
1436.0,0.01345
1437.0,0.01035
1438.0,0.003982
