interpolation:linear
wavelength,value
280.0,7.702999999999999e-22
280.5,2.4930000000000002e-20
281.0,1.329e-19
281.5,5.208e-19
282.0,8.805e-19
282.5,2.179e-18
283.0,6.86e-18
283.5,1.114e-17
284.0,1.809e-16
284.5,5.242e-16
285.0,9.767e-16
285.5,4.755e-15
286.0,1.904e-14
286.5,8.469e-14
287.0,2.411e-13
287.5,9.209e-13
288.0,2.942e-12
288.5,9.083e-12
289.0,2.449e-11
289.5,7.452e-11
290.0,2.077e-10
290.5,4.245e-10
291.0,9.128e-10
291.5,2.623e-09
292.0,5.84e-09
292.5,8.236e-09
293.0,1.777e-08
293.5,4.353e-08
294.0,6.838e-08
294.5,9.054e-08
295.0,1.539e-07
295.5,3.186e-07
296.0,5.908e-07
296.5,8.492e-07
297.0,1.179e-06
297.5,3.314e-06
298.0,5.475e-06
298.5,5.741e-06
299.0,1.325e-05
299.5,2.41e-05
300.0,2.81e-05
300.5,4.348e-05
301.0,8.872e-05
301.5,0.0001607
302.0,0.0001481
302.5,0.0002984
303.0,0.0005594
303.5,0.0007264
304.0,0.0007001
304.5,0.001116
305.0,0.001856
305.5,0.002254
306.0,0.002232
306.5,0.002887
307.0,0.004656
307.5,0.006709
308.0,0.007181
308.5,0.008825
309.0,0.008939
309.5,0.01076
310.0,0.01107
310.5,0.01814
311.0,0.02321
311.5,0.0226
312.0,0.02354
312.5,0.02944
313.0,0.03239
313.5,0.03105
314.0,0.0401
314.5,0.03711
315.0,0.04914
315.5,0.04029
316.0,0.03642
316.5,0.05386
317.0,0.06684
317.5,0.069
318.0,0.05492
318.5,0.07084
319.0,0.0857
319.5,0.06777
320.0,0.08154
320.5,0.106
321.0,0.09774
321.5,0.09406
322.0,0.09666
322.5,0.08427
323.0,0.08598
323.5,0.1079
324.0,0.1265
324.5,0.1272
325.0,0.1087
325.5,0.1426
326.0,0.1751
326.5,0.1776
327.0,0.1763
327.5,0.1693
328.0,0.1484
328.5,0.1591
329.0,0.1935
329.5,0.2207
330.0,0.2219
330.5,0.1756
331.0,0.1782
331.5,0.1828
332.0,0.2001
332.5,0.1991
333.0,0.1979
333.5,0.1775
334.0,0.1817
334.5,0.2119
335.0,0.2005
335.5,0.2344
336.0,0.1623
336.5,0.1894
337.0,0.1547
337.5,0.1922
338.0,0.1894
338.5,0.219
339.0,0.217
339.5,0.2088
340.0,0.2451
340.5,0.2212
341.0,0.216
341.5,0.1985
342.0,0.2374
342.5,0.2223
343.0,0.2444
343.5,0.2302
344.0,0.17
344.5,0.1719
345.0,0.2278
345.5,0.2328
346.0,0.198
346.5,0.2244
347.0,0.2409
347.5,0.1948
348.0,0.2223
348.5,0.2224
349.0,0.2065
349.5,0.2046
350.0,0.2532
350.5,0.2671
351.0,0.2387
351.5,0.2319
352.0,0.2493
352.5,0.1947
353.0,0.2455
353.5,0.2627
354.0,0.2728
354.5,0.2768
355.0,0.2759
355.5,0.2495
356.0,0.2612
356.5,0.2231
357.0,0.1844
357.5,0.2258
358.0,0.179
358.5,0.153
359.0,0.2141
359.5,0.2729
360.0,0.2894
360.5,0.2314
361.0,0.2111
361.5,0.2433
362.0,0.2106
362.5,0.2918
363.0,0.2622
363.5,0.2417
364.0,0.2958
364.5,0.253
365.0,0.2578
365.5,0.3237
366.0,0.3432
366.5,0.3227
367.0,0.3144
367.5,0.3264
368.0,0.2858
368.5,0.2886
369.0,0.3118
369.5,0.3325
370.0,0.3547
370.5,0.2755
371.0,0.2945
371.5,0.3686
372.0,0.2448
372.5,0.2936
373.0,0.2989
373.5,0.1946
374.0,0.2829
374.5,0.2344
375.0,0.228
375.5,0.3405
376.0,0.2824
376.5,0.2927
377.0,0.3101
377.5,0.363
378.0,0.3936
378.5,0.3722
379.0,0.3072
379.5,0.2807
380.0,0.292
380.5,0.3539
381.0,0.3549
381.5,0.2815
382.0,0.2502
382.5,0.2134
383.0,0.1977
383.5,0.1906
384.0,0.2103
384.5,0.3095
385.0,0.3071
385.5,0.2862
386.0,0.2452
386.5,0.3224
387.0,0.268
387.5,0.3011
388.0,0.2782
388.5,0.2751
389.0,0.2971
389.5,0.36
390.0,0.3615
390.5,0.3329
391.0,0.392
391.5,0.4
392.0,0.3371
392.5,0.302
393.0,0.1681
393.5,0.1223
394.0,0.2489
394.5,0.3167
395.0,0.3866
395.5,0.3928
396.0,0.3408
396.5,0.1993
397.0,0.1497
397.5,0.3045
398.0,0.4266
398.5,0.4411
399.0,0.478
399.5,0.4767
400.0,0.495
401.0,0.5006
402.0,0.5288
403.0,0.5029
404.0,0.4955
405.0,0.4958
406.0,0.4883
407.0,0.4809
408.0,0.4999
409.0,0.5355
410.0,0.4683
411.0,0.5078
412.0,0.546
413.0,0.5327
414.0,0.5397
415.0,0.5417
416.0,0.5517
417.0,0.5385
418.0,0.5289
419.0,0.5362
420.0,0.5342
421.0,0.5593
422.0,0.5319
423.0,0.52
424.0,0.5502
425.0,0.5496
426.0,0.536
427.0,0.5263
428.0,0.5129
429.0,0.4864
430.0,0.426
431.0,0.4223
432.0,0.5457
433.0,0.5491
434.0,0.51
435.0,0.5328
436.0,0.601
437.0,0.5935
438.0,0.5408
439.0,0.5591
440.0,0.5773
441.0,0.5987
442.0,0.6424
443.0,0.6256
444.0,0.6397
445.0,0.6259
446.0,0.598
447.0,0.6471
448.0,0.657
449.0,0.6604
450.0,0.6793
451.0,0.7048
452.0,0.6794
453.0,0.6393
454.0,0.6679
455.0,0.6722
456.0,0.6884
457.0,0.7
458.0,0.6759
459.0,0.6727
460.0,0.6744
461.0,0.6901
462.0,0.696
463.0,0.6912
464.0,0.6805
465.0,0.6725
466.0,0.6795
467.0,0.667
468.0,0.675
469.0,0.6786
470.0,0.6569
471.0,0.6563
472.0,0.6915
473.0,0.6826
474.0,0.6832
475.0,0.6887
476.0,0.6675
477.0,0.669
478.0,0.6878
479.0,0.684
480.0,0.6857
481.0,0.699
482.0,0.7033
483.0,0.6954
484.0,0.6816
485.0,0.6498
486.0,0.5684
487.0,0.5961
488.0,0.654
489.0,0.6558
490.0,0.6903
491.0,0.6787
492.0,0.641
493.0,0.6621
494.0,0.6688
495.0,0.6746
496.0,0.6788
497.0,0.6893
498.0,0.657
499.0,0.6652
500.0,0.6456
501.0,0.6334
502.0,0.6238
503.0,0.6484
504.0,0.6298
505.0,0.6541
506.0,0.6752
507.0,0.6426
508.0,0.6233
509.0,0.6413
510.0,0.6384
511.0,0.656
512.0,0.6633
513.0,0.6279
514.0,0.6238
515.0,0.6176
516.0,0.6161
517.0,0.5475
518.0,0.5756
519.0,0.6037
520.0,0.6256
521.0,0.6315
522.0,0.6318
523.0,0.6203
524.0,0.6422
525.0,0.6492
526.0,0.6199
527.0,0.5837
528.0,0.617
529.0,0.6501
530.0,0.6405
531.0,0.6498
532.0,0.6274
533.0,0.6091
534.0,0.6273
535.0,0.6412
536.0,0.6473
537.0,0.622
538.0,0.6332
539.0,0.6278
540.0,0.6018
541.0,0.6051
542.0,0.6238
543.0,0.6177
544.0,0.6279
545.0,0.6261
546.0,0.6283
547.0,0.6285
548.0,0.6212
549.0,0.6233
550.0,0.6307
551.0,0.6232
552.0,0.6275
553.0,0.6162
554.0,0.6309
555.0,0.632
556.0,0.6237
557.0,0.6041
558.0,0.5992
559.0,0.5876
560.0,0.5948
561.0,0.6021
562.0,0.5974
563.0,0.6132
564.0,0.5961
565.0,0.5907
566.0,0.5817
567.0,0.5922
568.0,0.5858
569.0,0.5697
570.0,0.5698
571.0,0.567
572.0,0.5791
573.0,0.585
574.0,0.5828
575.0,0.5714
576.0,0.5663
577.0,0.5726
578.0,0.5647
579.0,0.568
580.0,0.5804
581.0,0.5846
582.0,0.5967
583.0,0.5991
584.0,0.6049
585.0,0.5905
586.0,0.5784
587.0,0.5904
588.0,0.5732
589.0,0.5025
590.0,0.5259
591.0,0.5597
592.0,0.5508
593.0,0.5614
594.0,0.5565
595.0,0.5407
596.0,0.5665
597.0,0.5592
598.0,0.5591
599.0,0.5602
600.0,0.5622
601.0,0.5584
602.0,0.5548
603.0,0.5644
604.0,0.5739
605.0,0.5712
606.0,0.5694
607.0,0.5755
608.0,0.5697
609.0,0.5711
610.0,0.5675
611.0,0.5707
612.0,0.5693
613.0,0.5624
614.0,0.5551
615.0,0.5676
616.0,0.5493
617.0,0.5484
618.0,0.5697
619.0,0.5641
620.0,0.5677
621.0,0.5679
622.0,0.5609
623.0,0.552
624.0,0.5428
625.0,0.5417
626.0,0.5496
627.0,0.5547
628.0,0.5057
629.0,0.5373
630.0,0.5245
631.0,0.5405
632.0,0.5348
633.0,0.5528
634.0,0.5488
635.0,0.5581
636.0,0.5515
637.0,0.5611
638.0,0.5675
639.0,0.5616
640.0,0.5567
641.0,0.5568
642.0,0.5548
643.0,0.5623
644.0,0.561
645.0,0.5616
646.0,0.5471
647.0,0.5372
648.0,0.5376
649.0,0.5269
650.0,0.5338
651.0,0.5577
652.0,0.53
653.0,0.5505
654.0,0.5448
655.0,0.5222
656.0,0.4645
657.0,0.4772
658.0,0.5362
659.0,0.5406
660.0,0.5431
661.0,0.5471
662.0,0.5473
663.0,0.5369
664.0,0.5445
665.0,0.5458
666.0,0.5467
667.0,0.5467
668.0,0.5474
669.0,0.5562
670.0,0.554
671.0,0.5541
672.0,0.5495
673.0,0.558
674.0,0.5561
675.0,0.5513
676.0,0.5552
677.0,0.5499
678.0,0.5516
679.0,0.5429
680.0,0.5473
681.0,0.5438
682.0,0.5431
683.0,0.5421
684.0,0.5394
685.0,0.5442
686.0,0.5408
687.0,0.3072
688.0,0.3834
689.0,0.3856
690.0,0.4127
691.0,0.4439
692.0,0.468
693.0,0.4635
694.0,0.4603
695.0,0.4859
696.0,0.4869
697.0,0.5244
698.0,0.5161
699.0,0.4985
700.0,0.4923
701.0,0.4854
702.0,0.4908
703.0,0.492
704.0,0.5109
705.0,0.5116
706.0,0.5124
707.0,0.5133
708.0,0.5142
709.0,0.517
710.0,0.5159
711.0,0.516
712.0,0.5154
713.0,0.5093
714.0,0.5115
715.0,0.4932
716.0,0.493
717.0,0.4086
718.0,0.3732
719.0,0.3403
720.0,0.3547
721.0,0.4026
722.0,0.4725
723.0,0.4339
724.0,0.3837
725.0,0.3751
726.0,0.3934
727.0,0.4038
728.0,0.3733
729.0,0.3939
730.0,0.4158
731.0,0.3963
732.0,0.431
733.0,0.4628
734.0,0.4758
735.0,0.4649
736.0,0.4641
737.0,0.4659
738.0,0.478
739.0,0.4686
740.0,0.4823
741.0,0.4784
742.0,0.4798
743.0,0.4923
744.0,0.4914
745.0,0.492
746.0,0.4942
747.0,0.4954
748.0,0.4945
749.0,0.4889
750.0,0.4886
751.0,0.4837
752.0,0.4858
753.0,0.4884
754.0,0.4895
755.0,0.4867
756.0,0.4865
757.0,0.4872
758.0,0.481
759.0,0.4682
760.0,0.03953
761.0,0.01635
762.0,0.1866
763.0,0.07093
764.0,0.1249
765.0,0.1864
766.0,0.2518
767.0,0.3432
768.0,0.4181
769.0,0.4321
770.0,0.4526
771.0,0.4589
772.0,0.4607
773.0,0.4642
774.0,0.4621
775.0,0.4587
776.0,0.4644
777.0,0.4583
778.0,0.4555
779.0,0.4559
780.0,0.4534
781.0,0.4539
782.0,0.4568
783.0,0.4489
784.0,0.4511
785.0,0.4476
786.0,0.4523
787.0,0.442
788.0,0.4354
789.0,0.4351
790.0,0.4203
791.0,0.4271
792.0,0.4245
793.0,0.4172
794.0,0.4277
795.0,0.4341
796.0,0.4162
797.0,0.4164
798.0,0.433
799.0,0.4294
800.0,0.4209
801.0,0.4185
802.0,0.4173
803.0,0.4135
804.0,0.4146
805.0,0.4147
806.0,0.4286
807.0,0.4229
808.0,0.4235
809.0,0.4138
810.0,0.4093
811.0,0.4073
812.0,0.3927
813.0,0.383
814.0,0.3277
815.0,0.3263
816.0,0.3026
817.0,0.3089
818.0,0.2952
819.0,0.3379
820.0,0.3154
821.0,0.38
822.0,0.3673
823.0,0.2324
824.0,0.3524
825.0,0.3733
826.0,0.3555
827.0,0.3789
828.0,0.3105
829.0,0.3541
830.0,0.3485
831.0,0.3499
832.0,0.3372
833.0,0.3639
834.0,0.3475
835.0,0.3896
836.0,0.3678
837.0,0.3909
838.0,0.3762
839.0,0.3856
840.0,0.3947
841.0,0.388
842.0,0.3905
843.0,0.3921
844.0,0.3857
845.0,0.4
846.0,0.3986
847.0,0.3917
848.0,0.3885
849.0,0.3774
850.0,0.3617
851.0,0.3821
852.0,0.3798
853.0,0.3663
854.0,0.3157
855.0,0.3476
856.0,0.3795
857.0,0.3886
858.0,0.3854
859.0,0.3861
860.0,0.3871
861.0,0.3849
862.0,0.3911
863.0,0.4003
864.0,0.3803
865.0,0.3771
866.0,0.3391
867.0,0.3539
868.0,0.3851
869.0,0.3771
870.0,0.3879
871.0,0.3826
872.0,0.3813
873.0,0.3806
874.0,0.3761
875.0,0.3684
876.0,0.3722
877.0,0.376
878.0,0.3799
879.0,0.3741
880.0,0.3661
881.0,0.3602
882.0,0.3679
883.0,0.3694
884.0,0.3676
885.0,0.3703
886.0,0.3515
887.0,0.3564
888.0,0.3609
889.0,0.3663
890.0,0.3617
891.0,0.3619
892.0,0.3494
893.0,0.3363
894.0,0.3201
895.0,0.2969
896.0,0.2781
897.0,0.2323
898.0,0.2569
899.0,0.1879
900.0,0.2673
901.0,0.1969
902.0,0.2412
903.0,0.2401
904.0,0.3176
905.0,0.3046
906.0,0.2833
907.0,0.2197
908.0,0.2259
909.0,0.2491
910.0,0.212
911.0,0.2318
912.0,0.2433
913.0,0.2148
914.0,0.2146
915.0,0.2323
916.0,0.1952
917.0,0.256
918.0,0.1996
919.0,0.2633
920.0,0.2716
921.0,0.2825
922.0,0.2465
923.0,0.2735
924.0,0.2513
925.0,0.2462
926.0,0.2481
927.0,0.2837
928.0,0.191
929.0,0.1698
930.0,0.1264
931.0,0.1202
932.0,0.07939
933.0,0.06128
934.0,0.02706
935.0,0.06532
936.0,0.03646
937.0,0.03666
938.0,0.04666
939.0,0.1163
940.0,0.1452
941.0,0.1028
942.0,0.1228
943.0,0.07555
944.0,0.08471
945.0,0.1074
946.0,0.04778
947.0,0.106
948.0,0.07715
949.0,0.1488
950.0,0.03173
951.0,0.1476
952.0,0.07053
953.0,0.09691
954.0,0.1254
955.0,0.09871
956.0,0.1014
957.0,0.07003
958.0,0.1518
959.0,0.1126
960.0,0.1262
961.0,0.148
962.0,0.1395
963.0,0.1664
964.0,0.1508
965.0,0.1659
966.0,0.1649
967.0,0.1635
968.0,0.2404
969.0,0.2484
970.0,0.2259
971.0,0.2679
972.0,0.2543
973.0,0.212
974.0,0.2002
975.0,0.2112
976.0,0.1953
977.0,0.2329
978.0,0.2168
979.0,0.2298
980.0,0.2146
981.0,0.2666
982.0,0.2515
983.0,0.2395
984.0,0.2789
985.0,0.2504
986.0,0.2865
987.0,0.2778
988.0,0.2775
989.0,0.2873
990.0,0.2757
991.0,0.2878
992.0,0.2898
993.0,0.2803
994.0,0.29
995.0,0.2901
996.0,0.2883
997.0,0.289
998.0,0.2874
999.0,0.2865
1000.0,0.2838
1001.0,0.2881
1002.0,0.2773
1003.0,0.2829
1004.0,0.2752
1005.0,0.2661
1006.0,0.276
1007.0,0.2821
1008.0,0.2801
1009.0,0.278
1010.0,0.2765
1011.0,0.2808
1012.0,0.2778
1013.0,0.2803
1014.0,0.2783
1015.0,0.2764
1016.0,0.2751
1017.0,0.2756
1018.0,0.275
1019.0,0.268
1020.0,0.2733
1021.0,0.2732
1022.0,0.2706
1023.0,0.2734
1024.0,0.2688
1025.0,0.2736
1026.0,0.2722
1027.0,0.2716
1028.0,0.2709
1029.0,0.2676
1030.0,0.2699
1031.0,0.2686
1032.0,0.268
1033.0,0.2639
1034.0,0.264
1035.0,0.2648
1036.0,0.266
1037.0,0.2618
1038.0,0.2629
1039.0,0.2627
1040.0,0.2616
1041.0,0.2625
1042.0,0.2607
1043.0,0.2598
1044.0,0.2606
1045.0,0.257
1046.0,0.2541
1047.0,0.2563
1048.0,0.2576
1049.0,0.2566
1050.0,0.2553
1051.0,0.2549
1052.0,0.2537
1053.0,0.2516
1054.0,0.252
1055.0,0.2519
1056.0,0.2508
1057.0,0.2499
1058.0,0.2436
1059.0,0.2437
1060.0,0.2432
1061.0,0.2429
1062.0,0.2439
1063.0,0.2414
1064.0,0.2443
1065.0,0.2421
1066.0,0.2377
1067.0,0.2406
1068.0,0.2351
1069.0,0.2281
1070.0,0.2355
1071.0,0.2402
1072.0,0.2366
1073.0,0.2334
1074.0,0.2405
1075.0,0.2255
1076.0,0.2402
1077.0,0.2342
1078.0,0.229
1079.0,0.2368
1080.0,0.2307
1081.0,0.2218
1082.0,0.2279
1083.0,0.2292
1084.0,0.2206
1085.0,0.2314
1086.0,0.2071
1087.0,0.2166
1088.0,0.2285
1089.0,0.2186
1090.0,0.2123
1091.0,0.227
1092.0,0.227
1093.0,0.1847
1094.0,0.2067
1095.0,0.1931
1096.0,0.1827
1097.0,0.2218
1098.0,0.1788
1099.0,0.1877
1100.0,0.1714
1101.0,0.1746
1102.0,0.1646
1103.0,0.1615
1104.0,0.1619
1105.0,0.1827
1106.0,0.1274
1107.0,0.1712
1108.0,0.1378
1109.0,0.1394
1110.0,0.1684
1111.0,0.1046
1112.0,0.1389
1113.0,0.07891
1114.0,0.0888
1115.0,0.07302
1116.0,0.05313
1117.0,0.01475
1118.0,0.05923
1119.0,0.02515
1120.0,0.03113
1121.0,0.04364
1122.0,0.01498
1123.0,0.02832
1124.0,0.02384
1125.0,0.03216
1126.0,0.008019
1127.0,0.03658
1128.0,0.01824
1129.0,0.01975
1130.0,0.0121
1131.0,0.07917
1132.0,0.06019
1133.0,0.03288
1134.0,0.006067
1135.0,0.002428
1136.0,0.02566
1137.0,0.07574
1138.0,0.05243
1139.0,0.08951
1140.0,0.07043
1141.0,0.04995
1142.0,0.05956
1143.0,0.08946
1144.0,0.02622
1145.0,0.03174
1146.0,0.03418
1147.0,0.008872
1148.0,0.07692
1149.0,0.05822
1150.0,0.02908
1151.0,0.052
1152.0,0.06785
1153.0,0.06917
1154.0,0.03078
1155.0,0.0932
1156.0,0.08162
1157.0,0.09595
1158.0,0.09477
1159.0,0.1049
1160.0,0.08718
1161.0,0.1138
1162.0,0.1137
1163.0,0.165
1164.0,0.1374
1165.0,0.1256
1166.0,0.128
1167.0,0.1413
1168.0,0.142
1169.0,0.1465
1170.0,0.1627
1171.0,0.1584
1172.0,0.1635
1173.0,0.1624
1174.0,0.108
1175.0,0.1606
1176.0,0.1811
1177.0,0.1707
1178.0,0.1222
1179.0,0.1826
1180.0,0.1581
1181.0,0.1634
1182.0,0.106
1183.0,0.1619
1184.0,0.1495
1185.0,0.1421
1186.0,0.1754
1187.0,0.1649
1188.0,0.1067
1189.0,0.1533
1190.0,0.1718
1191.0,0.1589
1192.0,0.1746
1193.0,0.1659
1194.0,0.172
1195.0,0.1598
1196.0,0.1522
1197.0,0.1733
1198.0,0.157
1199.0,0.1276
1200.0,0.1637
1201.0,0.1557
1202.0,0.1565
1203.0,0.1543
1204.0,0.1323
1205.0,0.1619
1206.0,0.1818
1207.0,0.1553
1208.0,0.1547
1209.0,0.1582
1210.0,0.1662
1211.0,0.1561
1212.0,0.1511
1213.0,0.1743
1214.0,0.1559
1215.0,0.1526
1216.0,0.174
1217.0,0.1683
1218.0,0.1725
1219.0,0.1697
1220.0,0.1728
1221.0,0.1752
1222.0,0.1701
1223.0,0.168
1224.0,0.1659
1225.0,0.1739
1226.0,0.1759
1227.0,0.1592
1228.0,0.1775
1229.0,0.176
1230.0,0.1724
1231.0,0.1793
1232.0,0.1782
1233.0,0.1694
1234.0,0.1797
1235.0,0.1782
1236.0,0.1798
1237.0,0.1762
1238.0,0.1792
1239.0,0.1769
1240.0,0.1777
1241.0,0.1762
1242.0,0.1764
1243.0,0.175
1244.0,0.176
1245.0,0.1769
1246.0,0.1759
1247.0,0.175
1248.0,0.1746
1249.0,0.1754
1250.0,0.1742
1251.0,0.1715
1252.0,0.1721
1253.0,0.1698
1254.0,0.1673
1255.0,0.1716
1256.0,0.1651
1257.0,0.1638
1258.0,0.1683
1259.0,0.1595
1260.0,0.1607
1261.0,0.1484
1262.0,0.1422
1263.0,0.1424
1264.0,0.1276
1265.0,0.1415
1266.0,0.1339
1267.0,0.1378
1268.0,0.1282
1269.0,0.06465
1270.0,0.1367
1271.0,0.1483
1272.0,0.1491
1273.0,0.1472
1274.0,0.1482
1275.0,0.1509
1276.0,0.153
1277.0,0.1549
1278.0,0.1592
1279.0,0.1576
1280.0,0.1557
1281.0,0.1492
1282.0,0.1448
1283.0,0.1557
1284.0,0.1593
1285.0,0.1605
1286.0,0.1632
1287.0,0.1596
1288.0,0.1599
1289.0,0.1528
1290.0,0.1586
1291.0,0.1612
1292.0,0.1477
1293.0,0.1572
1294.0,0.1559
1295.0,0.154
1296.0,0.1447
1297.0,0.1352
1298.0,0.1492
1299.0,0.1577
1300.0,0.1275
1301.0,0.1325
1302.0,0.1488
1303.0,0.1264
1304.0,0.1023
1305.0,0.1454
1306.0,0.1449
1307.0,0.1066
1308.0,0.1276
1309.0,0.1429
1310.0,0.1041
1311.0,0.1211
1312.0,0.1169
1313.0,0.1135
1314.0,0.09962
1315.0,0.09706
1316.0,0.1181
1317.0,0.1111
1318.0,0.1231
1319.0,0.08964
1320.0,0.08823
1321.0,0.1051
1322.0,0.1049
1323.0,0.07361
1324.0,0.08816
1325.0,0.1158
1326.0,0.09604
1327.0,0.09067
1328.0,0.07637
1329.0,0.05274
1330.0,0.07102
1331.0,0.03784
1332.0,0.04062
1333.0,0.05752
1334.0,0.05181
1335.0,0.073
1336.0,0.05488
1337.0,0.04754
1338.0,0.05121
1339.0,0.0517
1340.0,0.05177
1341.0,0.04708
1342.0,0.04985
1343.0,0.02794
1344.0,0.01726
1345.0,0.0247
1346.0,0.009238
1347.0,0.008885
1348.0,0.0003124
1349.0,0.00131
1350.0,0.001518
1351.0,0.0002096
1352.0,2.789e-05
1353.0,7.985e-07
1354.0,4.267e-06
1355.0,9.388e-09
1356.0,3.815e-07
1357.0,5.814e-07
1358.0,1.168e-08
1359.0,6.079e-10
1360.0,3.813e-09
1361.0,1.167e-12
1362.0,2.656e-15
1363.0,3.514e-09
1364.0,1.548e-09
1365.0,8.225e-16
1366.0,1.907e-08
1367.0,1.027e-08
1368.0,6.095e-18
1369.0,5.686e-10
1370.0,2.006e-10
1371.0,8.543e-12
1372.0,5.803e-09
1373.0,2.16e-07
1374.0,1.6e-06
1375.0,2.617e-06
1376.0,3.961e-06
1377.0,1.66e-06
1378.0,1.821e-05
1379.0,7.07e-07
1380.0,7.218e-07
1381.0,1.559e-08
1382.0,4.62e-09
1383.0,5.48e-11
1384.0,5.436e-10
1385.0,7.219e-09
1386.0,3.08e-09
1387.0,1.131e-06
1388.0,2.716e-08
1389.0,6.95e-06
1390.0,5.698e-06
1391.0,3.617e-06
1392.0,2.211e-07
1393.0,1.478e-06
1394.0,3.258e-07
1395.0,1.634e-09
1396.0,1.767e-12
1397.0,4.912e-07
1398.0,1.889e-05
1399.0,1.244e-05
1400.0,6.142e-13
1401.0,3.467e-12
1402.0,7.476e-05
1403.0,8.015e-05
1404.0,2.26e-05
1405.0,5.615e-10
1406.0,4.491e-05
1407.0,5.438e-06
1408.0,3.882e-05
1409.0,8.649e-06
1410.0,9.932e-06
1411.0,7.293e-05
1412.0,0.0001201
1413.0,0.002046
1414.0,8.353e-06
1415.0,3.366e-06
1416.0,0.00494
1417.0,0.001077
1418.0,0.001072
1419.0,0.0001541
1420.0,0.0006469
1421.0,0.0007638
1422.0,0.006484
1423.0,0.001169
1424.0,0.002351
1425.0,0.003145
1426.0,0.004225
1427.0,0.009134
1428.0,0.0002745
1429.0,0.006032
1430.0,0.01245
1431.0,0.01423
1432.0,0.0002112
