interpolation:linear
wavelength,value
280.0,2.716e-21
280.5,8.534000000000001e-20
281.0,4.506e-19
281.5,3.441e-19
282.0,1.017e-18
282.5,2.688e-18
283.0,8.727e-18
283.5,1.43e-17
284.0,2.34e-16
284.5,6.763e-16
285.0,1.529e-15
285.5,7.401e-15
286.0,2.958e-14
286.5,1.303e-13
287.0,3.687e-13
287.5,1.394e-12
288.0,3.736e-12
288.5,1.237e-11
289.0,3.504e-11
289.5,1.107e-10
290.0,3.159e-10
290.5,6.564e-10
291.0,1.434e-09
291.5,4.187e-09
292.0,8.975e-09
292.5,1.348e-08
293.0,3.148e-08
293.5,8.603e-08
294.0,1.461e-07
294.5,1.89e-07
295.0,3.47e-07
295.5,9.007e-07
296.0,1.805e-06
296.5,2.633e-06
297.0,3.701e-06
297.5,1.057e-05
298.0,1.767e-05
298.5,1.868e-05
299.0,4.333e-05
299.5,7.914e-05
300.0,9.231e-05
300.5,0.0001427
301.0,0.0002903
301.5,0.0005258
302.0,0.0004866
302.5,0.0009623
303.0,0.001756
303.5,0.002233
304.0,0.002114
304.5,0.003211
305.0,0.004983
305.5,0.005788
306.0,0.005633
306.5,0.007076
307.0,0.01069
307.5,0.01445
308.0,0.01531
308.5,0.01822
309.0,0.01798
309.5,0.02075
310.0,0.02093
310.5,0.03397
311.0,0.04279
311.5,0.04137
312.0,0.04164
312.5,0.05089
313.0,0.05533
313.5,0.05363
314.0,0.0674
314.5,0.06015
315.0,0.07914
315.5,0.06603
316.0,0.05796
316.5,0.08358
317.0,0.1038
317.5,0.1079
318.0,0.08442
318.5,0.1054
319.0,0.1253
319.5,0.1018
320.0,0.123
320.5,0.1547
321.0,0.1383
321.5,0.1327
322.0,0.1408
322.5,0.1226
323.0,0.1224
323.5,0.1508
324.0,0.1762
324.5,0.1787
325.0,0.1542
325.5,0.1988
326.0,0.2432
326.5,0.2439
327.0,0.243
327.5,0.2347
328.0,0.2087
328.5,0.2198
329.0,0.2635
329.5,0.2993
330.0,0.3019
330.5,0.2415
331.0,0.246
331.5,0.2502
332.0,0.2707
332.5,0.2679
333.0,0.2671
333.5,0.2416
334.0,0.2476
334.5,0.286
335.0,0.2689
335.5,0.3141
336.0,0.2174
336.5,0.2546
337.0,0.2089
337.5,0.2598
338.0,0.2539
338.5,0.2931
339.0,0.2902
339.5,0.2793
340.0,0.3282
340.5,0.296
341.0,0.2887
341.5,0.2652
342.0,0.317
342.5,0.2967
343.0,0.3263
343.5,0.3073
344.0,0.2272
344.5,0.2295
345.0,0.3039
345.5,0.3104
346.0,0.2639
346.5,0.2989
347.0,0.3209
347.5,0.2595
348.0,0.296
348.5,0.2959
349.0,0.2746
349.5,0.272
350.0,0.3366
350.5,0.3551
351.0,0.3173
351.5,0.3084
352.0,0.3314
352.5,0.2587
353.0,0.326
353.5,0.3487
354.0,0.362
354.5,0.3672
355.0,0.3661
355.5,0.3309
356.0,0.3463
356.5,0.2957
357.0,0.2444
357.5,0.2993
358.0,0.2372
358.5,0.2028
359.0,0.2837
359.5,0.3616
360.0,0.3834
360.5,0.3065
361.0,0.2795
361.5,0.322
362.0,0.2786
362.5,0.3858
363.0,0.3466
363.5,0.3194
364.0,0.3908
364.5,0.3341
365.0,0.3404
365.5,0.4273
366.0,0.4529
366.5,0.4257
367.0,0.4147
367.5,0.4305
368.0,0.3769
368.5,0.3804
369.0,0.4109
369.5,0.4381
370.0,0.4672
370.5,0.3627
371.0,0.3877
371.5,0.4852
372.0,0.3221
372.5,0.3863
373.0,0.3931
373.5,0.2559
374.0,0.3719
374.5,0.3081
375.0,0.2996
375.5,0.4474
376.0,0.371
376.5,0.3845
377.0,0.4073
377.5,0.4766
378.0,0.5168
378.5,0.4885
379.0,0.4033
379.5,0.3684
380.0,0.3831
380.5,0.4642
381.0,0.4654
381.5,0.3691
382.0,0.3279
382.5,0.2796
383.0,0.259
383.5,0.2495
384.0,0.2753
384.5,0.4051
385.0,0.4018
385.5,0.3744
386.0,0.3207
386.5,0.4215
387.0,0.3503
387.5,0.3936
388.0,0.3635
388.5,0.3594
389.0,0.3881
389.5,0.4702
390.0,0.472
390.5,0.4345
391.0,0.5116
391.5,0.522
392.0,0.4398
392.5,0.3938
393.0,0.2192
393.5,0.1594
394.0,0.3244
394.5,0.4126
395.0,0.5036
395.5,0.5117
396.0,0.4438
396.5,0.2595
397.0,0.1948
397.5,0.3963
398.0,0.5551
398.5,0.5739
399.0,0.6217
399.5,0.6198
400.0,0.6437
401.0,0.6524
402.0,0.6887
403.0,0.6546
404.0,0.6448
405.0,0.645
406.0,0.6349
407.0,0.625
408.0,0.6495
409.0,0.6955
410.0,0.608
411.0,0.6589
412.0,0.7081
413.0,0.6907
414.0,0.6995
415.0,0.7017
416.0,0.7143
417.0,0.697
418.0,0.6844
419.0,0.6936
420.0,0.6908
421.0,0.723
422.0,0.6874
423.0,0.6717
424.0,0.7106
425.0,0.7096
426.0,0.6916
427.0,0.6789
428.0,0.6615
429.0,0.6269
430.0,0.5488
431.0,0.544
432.0,0.7027
433.0,0.7068
434.0,0.6565
435.0,0.6857
436.0,0.7729
437.0,0.7629
438.0,0.6949
439.0,0.7187
440.0,0.7418
441.0,0.7689
442.0,0.8248
443.0,0.8034
444.0,0.8211
445.0,0.8034
446.0,0.7671
447.0,0.8296
448.0,0.8425
449.0,0.8463
450.0,0.8702
451.0,0.9026
452.0,0.8698
453.0,0.8183
454.0,0.8545
455.0,0.8599
456.0,0.8805
457.0,0.8952
458.0,0.8646
459.0,0.8603
460.0,0.8626
461.0,0.8826
462.0,0.8896
463.0,0.8835
464.0,0.8693
465.0,0.8586
466.0,0.8671
467.0,0.8513
468.0,0.8613
469.0,0.8659
470.0,0.8383
471.0,0.8373
472.0,0.8823
473.0,0.8709
474.0,0.872
475.0,0.8793
476.0,0.8528
477.0,0.8551
478.0,0.8789
479.0,0.8737
480.0,0.8756
481.0,0.8921
482.0,0.8971
483.0,0.8865
484.0,0.8685
485.0,0.8276
486.0,0.7237
487.0,0.7586
488.0,0.8323
489.0,0.8348
490.0,0.8784
491.0,0.8634
492.0,0.8154
493.0,0.8421
494.0,0.8506
495.0,0.8579
496.0,0.8632
497.0,0.8766
498.0,0.8356
499.0,0.8462
500.0,0.8215
501.0,0.8062
502.0,0.7946
503.0,0.8267
504.0,0.8048
505.0,0.8344
506.0,0.8613
507.0,0.8196
508.0,0.7944
509.0,0.8169
510.0,0.8128
511.0,0.8347
512.0,0.8439
513.0,0.7988
514.0,0.7934
515.0,0.7855
516.0,0.7836
517.0,0.6963
518.0,0.732
519.0,0.7678
520.0,0.7957
521.0,0.8033
522.0,0.8039
523.0,0.7894
524.0,0.8175
525.0,0.8269
526.0,0.7898
527.0,0.7441
528.0,0.7868
529.0,0.8292
530.0,0.8172
531.0,0.8293
532.0,0.8008
533.0,0.7773
534.0,0.8004
535.0,0.8179
536.0,0.8256
537.0,0.7931
538.0,0.8072
539.0,0.8004
540.0,0.7673
541.0,0.7721
542.0,0.7962
543.0,0.788
544.0,0.8015
545.0,0.799
546.0,0.8023
547.0,0.8022
548.0,0.7927
549.0,0.7951
550.0,0.8046
551.0,0.7949
552.0,0.8004
553.0,0.7861
554.0,0.8048
555.0,0.8064
556.0,0.7959
557.0,0.771
558.0,0.7651
559.0,0.7507
560.0,0.76
561.0,0.7697
562.0,0.7639
563.0,0.7846
564.0,0.7631
565.0,0.7563
566.0,0.7451
567.0,0.759
568.0,0.7518
569.0,0.7329
570.0,0.7329
571.0,0.7287
572.0,0.7456
573.0,0.7534
574.0,0.7509
575.0,0.7366
576.0,0.7299
577.0,0.738
578.0,0.7272
579.0,0.7305
580.0,0.7451
581.0,0.7495
582.0,0.7641
583.0,0.7664
584.0,0.7733
585.0,0.7545
586.0,0.739
587.0,0.7549
588.0,0.7354
589.0,0.6491
590.0,0.679
591.0,0.72
592.0,0.71
593.0,0.7216
594.0,0.7162
595.0,0.6976
596.0,0.7271
597.0,0.7187
598.0,0.7175
599.0,0.7184
600.0,0.7199
601.0,0.7144
602.0,0.7096
603.0,0.7215
604.0,0.7336
605.0,0.7299
606.0,0.7271
607.0,0.7346
608.0,0.7266
609.0,0.7281
610.0,0.7231
611.0,0.727
612.0,0.725
613.0,0.716
614.0,0.7064
615.0,0.7219
616.0,0.6983
617.0,0.697
618.0,0.7239
619.0,0.7166
620.0,0.7211
621.0,0.7217
622.0,0.7131
623.0,0.7021
624.0,0.6902
625.0,0.6886
626.0,0.6988
627.0,0.7062
628.0,0.6541
629.0,0.6876
630.0,0.6716
631.0,0.6885
632.0,0.6806
633.0,0.7021
634.0,0.6959
635.0,0.707
636.0,0.698
637.0,0.7097
638.0,0.7169
639.0,0.7091
640.0,0.7025
641.0,0.7022
642.0,0.6992
643.0,0.7087
644.0,0.7066
645.0,0.7076
646.0,0.6905
647.0,0.6808
648.0,0.6813
649.0,0.668
650.0,0.6732
651.0,0.7027
652.0,0.6714
653.0,0.6935
654.0,0.6859
655.0,0.6594
656.0,0.5851
657.0,0.601
658.0,0.6741
659.0,0.6792
660.0,0.6821
661.0,0.687
662.0,0.688
663.0,0.6745
664.0,0.6831
665.0,0.684
666.0,0.6847
667.0,0.6843
668.0,0.6848
669.0,0.6956
670.0,0.6926
671.0,0.6926
672.0,0.6867
673.0,0.6972
674.0,0.6947
675.0,0.6884
676.0,0.6932
677.0,0.6864
678.0,0.6884
679.0,0.6774
680.0,0.6828
681.0,0.6784
682.0,0.6775
683.0,0.6762
684.0,0.6729
685.0,0.6787
686.0,0.6746
687.0,0.4245
688.0,0.5084
689.0,0.5106
690.0,0.5393
691.0,0.5719
692.0,0.5961
693.0,0.5909
694.0,0.5862
695.0,0.6133
696.0,0.6142
697.0,0.6554
698.0,0.6451
699.0,0.6274
700.0,0.6197
701.0,0.6126
702.0,0.6177
703.0,0.619
704.0,0.6402
705.0,0.6411
706.0,0.6411
707.0,0.6418
708.0,0.6431
709.0,0.645
710.0,0.6445
711.0,0.6439
712.0,0.6424
713.0,0.6355
714.0,0.638
715.0,0.617
716.0,0.6171
717.0,0.5267
718.0,0.4826
719.0,0.4413
720.0,0.4615
721.0,0.5146
722.0,0.5943
723.0,0.5504
724.0,0.4926
725.0,0.4835
726.0,0.5066
727.0,0.5159
728.0,0.4819
729.0,0.503
730.0,0.532
731.0,0.5082
732.0,0.5468
733.0,0.5818
734.0,0.5965
735.0,0.5837
736.0,0.5829
737.0,0.5852
738.0,0.5964
739.0,0.5846
740.0,0.6005
741.0,0.5949
742.0,0.5959
743.0,0.6112
744.0,0.6097
745.0,0.61
746.0,0.6128
747.0,0.6142
748.0,0.6129
749.0,0.6059
750.0,0.6056
751.0,0.5995
752.0,0.6021
753.0,0.6051
754.0,0.6065
755.0,0.6031
756.0,0.6028
757.0,0.6037
758.0,0.5961
759.0,0.5827
760.0,0.07618
761.0,0.03661
762.0,0.2729
763.0,0.1235
764.0,0.1966
765.0,0.2728
766.0,0.3466
767.0,0.4495
768.0,0.5289
769.0,0.5424
770.0,0.5635
771.0,0.5692
772.0,0.5707
773.0,0.5748
774.0,0.5721
775.0,0.5678
776.0,0.5748
777.0,0.5672
778.0,0.5638
779.0,0.5642
780.0,0.5611
781.0,0.5617
782.0,0.5652
783.0,0.5554
784.0,0.5581
785.0,0.5539
786.0,0.5599
787.0,0.5491
788.0,0.5418
789.0,0.5415
790.0,0.5256
791.0,0.5316
792.0,0.5278
793.0,0.5191
794.0,0.5296
795.0,0.5381
796.0,0.5195
797.0,0.5201
798.0,0.5372
799.0,0.5334
800.0,0.5237
801.0,0.5216
802.0,0.5201
803.0,0.5159
804.0,0.5168
805.0,0.5158
806.0,0.5313
807.0,0.5246
808.0,0.5252
809.0,0.5146
810.0,0.5098
811.0,0.5094
812.0,0.4935
813.0,0.4824
814.0,0.42
815.0,0.4176
816.0,0.3881
817.0,0.3957
818.0,0.3799
819.0,0.4285
820.0,0.4021
821.0,0.4755
822.0,0.461
823.0,0.305
824.0,0.4456
825.0,0.4671
826.0,0.4477
827.0,0.4742
828.0,0.3969
829.0,0.4453
830.0,0.439
831.0,0.4406
832.0,0.4262
833.0,0.456
834.0,0.4381
835.0,0.485
836.0,0.4619
837.0,0.4865
838.0,0.4702
839.0,0.4794
840.0,0.4903
841.0,0.4828
842.0,0.4846
843.0,0.4852
844.0,0.478
845.0,0.4947
846.0,0.4927
847.0,0.4838
848.0,0.4804
849.0,0.4667
850.0,0.4472
851.0,0.4731
852.0,0.47
853.0,0.4527
854.0,0.3906
855.0,0.4295
856.0,0.4692
857.0,0.4799
858.0,0.4763
859.0,0.4769
860.0,0.4778
861.0,0.4752
862.0,0.4827
863.0,0.4941
864.0,0.4694
865.0,0.4654
866.0,0.4185
867.0,0.4367
868.0,0.4752
869.0,0.4654
870.0,0.4787
871.0,0.4721
872.0,0.4705
873.0,0.4696
874.0,0.464
875.0,0.4546
876.0,0.4593
877.0,0.4639
878.0,0.4689
879.0,0.4617
880.0,0.4518
881.0,0.4448
882.0,0.4544
883.0,0.456
884.0,0.4538
885.0,0.4573
886.0,0.4351
887.0,0.4403
888.0,0.4464
889.0,0.4521
890.0,0.4475
891.0,0.4472
892.0,0.4333
893.0,0.4186
894.0,0.4016
895.0,0.3766
896.0,0.3538
897.0,0.3003
898.0,0.3297
899.0,0.2466
900.0,0.3398
901.0,0.2585
902.0,0.309
903.0,0.3101
904.0,0.3986
905.0,0.3837
906.0,0.3581
907.0,0.2854
908.0,0.292
909.0,0.3188
910.0,0.2773
911.0,0.2986
912.0,0.3129
913.0,0.2812
914.0,0.2797
915.0,0.3032
916.0,0.2556
917.0,0.3292
918.0,0.2618
919.0,0.3366
920.0,0.3429
921.0,0.3569
922.0,0.3156
923.0,0.345
924.0,0.323
925.0,0.316
926.0,0.3192
927.0,0.3607
928.0,0.2549
929.0,0.23
930.0,0.1766
931.0,0.1678
932.0,0.1165
933.0,0.09249
934.0,0.04623
935.0,0.09642
936.0,0.05731
937.0,0.05781
938.0,0.0722
939.0,0.1625
940.0,0.1986
941.0,0.1457
942.0,0.1712
943.0,0.1093
944.0,0.1183
945.0,0.1511
946.0,0.07251
947.0,0.1506
948.0,0.1101
949.0,0.2059
950.0,0.05077
951.0,0.2036
952.0,0.1036
953.0,0.1376
954.0,0.173
955.0,0.1397
956.0,0.1386
957.0,0.1033
958.0,0.2019
959.0,0.1555
960.0,0.1743
961.0,0.1995
962.0,0.1884
963.0,0.2205
964.0,0.201
965.0,0.2199
966.0,0.2192
967.0,0.2179
968.0,0.3045
969.0,0.3167
970.0,0.2894
971.0,0.3366
972.0,0.3209
973.0,0.274
974.0,0.2593
975.0,0.2713
976.0,0.2546
977.0,0.2957
978.0,0.2784
979.0,0.2933
980.0,0.2748
981.0,0.3349
982.0,0.3182
983.0,0.3043
984.0,0.3474
985.0,0.317
986.0,0.3549
987.0,0.3463
988.0,0.3457
989.0,0.3547
990.0,0.3436
991.0,0.3556
992.0,0.3578
993.0,0.3482
994.0,0.3579
995.0,0.3577
996.0,0.3558
997.0,0.3565
998.0,0.3547
999.0,0.3535
1000.0,0.3506
1001.0,0.3554
1002.0,0.3441
1003.0,0.3491
1004.0,0.3401
1005.0,0.3282
1006.0,0.3407
1007.0,0.3481
1008.0,0.3459
1009.0,0.3438
1010.0,0.3422
1011.0,0.3464
1012.0,0.3431
1013.0,0.3456
1014.0,0.3432
1015.0,0.3409
1016.0,0.3393
1017.0,0.3401
1018.0,0.339
1019.0,0.3312
1020.0,0.3372
1021.0,0.3368
1022.0,0.334
1023.0,0.3375
1024.0,0.3325
1025.0,0.3375
1026.0,0.3359
1027.0,0.3351
1028.0,0.3343
1029.0,0.3303
1030.0,0.3328
1031.0,0.3314
1032.0,0.3305
1033.0,0.3255
1034.0,0.3256
1035.0,0.3266
1036.0,0.3282
1037.0,0.3229
1038.0,0.3243
1039.0,0.3241
1040.0,0.3227
1041.0,0.324
1042.0,0.3217
1043.0,0.3207
1044.0,0.3217
1045.0,0.3173
1046.0,0.3138
1047.0,0.3166
1048.0,0.3183
1049.0,0.3171
1050.0,0.3156
1051.0,0.3151
1052.0,0.3137
1053.0,0.3111
1054.0,0.3117
1055.0,0.3118
1056.0,0.3106
1057.0,0.3096
1058.0,0.3019
1059.0,0.3021
1060.0,0.3016
1061.0,0.3012
1062.0,0.3027
1063.0,0.2996
1064.0,0.3032
1065.0,0.3008
1066.0,0.295
1067.0,0.2987
1068.0,0.2921
1069.0,0.2832
1070.0,0.2926
1071.0,0.2977
1072.0,0.2939
1073.0,0.2897
1074.0,0.2978
1075.0,0.2812
1076.0,0.2975
1077.0,0.2912
1078.0,0.2853
1079.0,0.293
1080.0,0.2868
1081.0,0.2768
1082.0,0.2826
1083.0,0.2838
1084.0,0.2757
1085.0,0.2876
1086.0,0.26
1087.0,0.2701
1088.0,0.2832
1089.0,0.273
1090.0,0.266
1091.0,0.2819
1092.0,0.2815
1093.0,0.2342
1094.0,0.257
1095.0,0.2445
1096.0,0.2328
1097.0,0.275
1098.0,0.2286
1099.0,0.2392
1100.0,0.2205
1101.0,0.2238
1102.0,0.2126
1103.0,0.2096
1104.0,0.21
1105.0,0.2333
1106.0,0.1711
1107.0,0.2202
1108.0,0.1823
1109.0,0.1835
1110.0,0.2176
1111.0,0.1418
1112.0,0.1824
1113.0,0.1102
1114.0,0.1237
1115.0,0.1022
1116.0,0.07819
1117.0,0.02525
1118.0,0.08616
1119.0,0.03982
1120.0,0.04985
1121.0,0.06788
1122.0,0.0261
1123.0,0.04518
1124.0,0.03809
1125.0,0.05042
1126.0,0.01516
1127.0,0.0571
1128.0,0.03149
1129.0,0.03375
1130.0,0.02135
1131.0,0.115
1132.0,0.08892
1133.0,0.05273
1134.0,0.01162
1135.0,0.00447
1136.0,0.04272
1137.0,0.1117
1138.0,0.07799
1139.0,0.1236
1140.0,0.1005
1141.0,0.07418
1142.0,0.08677
1143.0,0.1263
1144.0,0.04069
1145.0,0.05091
1146.0,0.05486
1147.0,0.01686
1148.0,0.1091
1149.0,0.08495
1150.0,0.04423
1151.0,0.07735
1152.0,0.09777
1153.0,0.09725
1154.0,0.04913
1155.0,0.1288
1156.0,0.1146
1157.0,0.131
1158.0,0.1296
1159.0,0.1415
1160.0,0.1192
1161.0,0.1508
1162.0,0.1512
1163.0,0.2108
1164.0,0.1784
1165.0,0.166
1166.0,0.1666
1167.0,0.1826
1168.0,0.1841
1169.0,0.1892
1170.0,0.2076
1171.0,0.2023
1172.0,0.2071
1173.0,0.2072
1174.0,0.1433
1175.0,0.2033
1176.0,0.226
1177.0,0.2153
1178.0,0.1583
1179.0,0.2279
1180.0,0.2008
1181.0,0.2073
1182.0,0.1393
1183.0,0.2047
1184.0,0.1906
1185.0,0.1828
1186.0,0.2205
1187.0,0.2088
1188.0,0.1412
1189.0,0.1943
1190.0,0.2156
1191.0,0.2026
1192.0,0.2188
1193.0,0.209
1194.0,0.2159
1195.0,0.2027
1196.0,0.1944
1197.0,0.2167
1198.0,0.1974
1199.0,0.1648
1200.0,0.2062
1201.0,0.1978
1202.0,0.1975
1203.0,0.1955
1204.0,0.1695
1205.0,0.203
1206.0,0.2258
1207.0,0.1966
1208.0,0.1944
1209.0,0.1986
1210.0,0.2076
1211.0,0.1966
1212.0,0.1927
1213.0,0.2176
1214.0,0.198
1215.0,0.194
1216.0,0.217
1217.0,0.2107
1218.0,0.2152
1219.0,0.2123
1220.0,0.2155
1221.0,0.218
1222.0,0.212
1223.0,0.2098
1224.0,0.208
1225.0,0.2165
1226.0,0.2184
1227.0,0.2
1228.0,0.2198
1229.0,0.2184
1230.0,0.2144
1231.0,0.2215
1232.0,0.2201
1233.0,0.2113
1234.0,0.2215
1235.0,0.22
1236.0,0.2217
1237.0,0.2181
1238.0,0.221
1239.0,0.2181
1240.0,0.219
1241.0,0.2177
1242.0,0.2175
1243.0,0.2157
1244.0,0.2172
1245.0,0.2181
1246.0,0.2169
1247.0,0.216
1248.0,0.2156
1249.0,0.2165
1250.0,0.2151
1251.0,0.2121
1252.0,0.2124
1253.0,0.2102
1254.0,0.2078
1255.0,0.212
1256.0,0.2053
1257.0,0.204
1258.0,0.2085
1259.0,0.1997
1260.0,0.2009
1261.0,0.188
1262.0,0.1816
1263.0,0.1818
1264.0,0.166
1265.0,0.1807
1266.0,0.1728
1267.0,0.1766
1268.0,0.1662
1269.0,0.09532
1270.0,0.1756
1271.0,0.1876
1272.0,0.1884
1273.0,0.1862
1274.0,0.187
1275.0,0.19
1276.0,0.1922
1277.0,0.1938
1278.0,0.1982
1279.0,0.1963
1280.0,0.1939
1281.0,0.1853
1282.0,0.179
1283.0,0.1927
1284.0,0.1972
1285.0,0.1986
1286.0,0.2016
1287.0,0.198
1288.0,0.1981
1289.0,0.1908
1290.0,0.1964
1291.0,0.1993
1292.0,0.1855
1293.0,0.195
1294.0,0.1935
1295.0,0.1921
1296.0,0.1822
1297.0,0.1715
1298.0,0.1864
1299.0,0.1954
1300.0,0.1624
1301.0,0.1679
1302.0,0.1859
1303.0,0.1606
1304.0,0.1341
1305.0,0.1819
1306.0,0.1817
1307.0,0.1381
1308.0,0.1613
1309.0,0.1799
1310.0,0.1352
1311.0,0.154
1312.0,0.1494
1313.0,0.1459
1314.0,0.1296
1315.0,0.1272
1316.0,0.151
1317.0,0.1427
1318.0,0.1563
1319.0,0.1187
1320.0,0.1158
1321.0,0.136
1322.0,0.1368
1323.0,0.1
1324.0,0.1165
1325.0,0.1486
1326.0,0.1257
1327.0,0.1194
1328.0,0.102
1329.0,0.07404
1330.0,0.09769
1331.0,0.05598
1332.0,0.05879
1333.0,0.08247
1334.0,0.07149
1335.0,0.09955
1336.0,0.07711
1337.0,0.06746
1338.0,0.07294
1339.0,0.07306
1340.0,0.07191
1341.0,0.06823
1342.0,0.07187
1343.0,0.04495
1344.0,0.02721
1345.0,0.03929
1346.0,0.01733
1347.0,0.01724
1348.0,0.0008564
1349.0,0.003309
1350.0,0.00362
1351.0,0.00069
1352.0,0.0001406
1353.0,5.482e-06
1354.0,2.281e-05
1355.0,1.025e-07
1356.0,2.637e-06
1357.0,4.035e-06
1358.0,1.244e-07
1359.0,9.992e-09
1360.0,4.849e-08
1361.0,2.148e-11
1362.0,4.097e-14
1363.0,5.576e-08
1364.0,2.314e-08
1365.0,8.716e-15
1366.0,2.743e-07
1367.0,1.248e-07
1368.0,2.772e-17
1369.0,8.508e-09
1370.0,3.47e-09
1371.0,1.588e-10
1372.0,6.917e-08
1373.0,1.875e-06
1374.0,1.071e-05
1375.0,1.899e-05
1376.0,2.078e-05
1377.0,9.125e-06
1378.0,9.62e-05
1379.0,3.83e-06
1380.0,4.815e-06
1381.0,1.132e-07
1382.0,5.9e-08
1383.0,7.642e-10
1384.0,8.875e-09
1385.0,6.979e-08
1386.0,4.582e-08
1387.0,9.633e-06
1388.0,1.97e-07
1389.0,4.167e-05
1390.0,3.547e-05
1391.0,2.287e-05
1392.0,1.414e-06
1393.0,8.355e-06
1394.0,3.039e-06
1395.0,1.81e-08
1396.0,3.513e-11
1397.0,3.07e-06
1398.0,0.0001051
1399.0,6.74e-05
1400.0,1.181e-11
1401.0,6.91e-11
1402.0,0.0002546
1403.0,0.0003014
1404.0,8.938e-05
1405.0,7.484e-09
1406.0,0.0002099
1407.0,2.041e-05
1408.0,0.0001751
1409.0,4.958e-05
1410.0,4.515e-05
1411.0,0.0002684
1412.0,0.000393
1413.0,0.005098
1414.0,3.648e-05
1415.0,1.622e-05
1416.0,0.009825
1417.0,0.002536
1418.0,0.002773
1419.0,0.0004142
1420.0,0.001684
1421.0,0.001855
1422.0,0.0129
1423.0,0.002396
1424.0,0.004624
1425.0,0.006556
1426.0,0.008011
1427.0,0.01599
1428.0,0.000784
1429.0,0.01129
1430.0,0.02099
1431.0,0.0235
1432.0,0.0006098
1433.0,0.01436
1434.0,0.007013
1435.0,0.00605
1436.0,0.01313
1437.0,0.01011
