interpolation:linear
wavelength,value
280.0,1.3480000000000002e-20
280.5,4.002e-19
281.0,2.075e-18
281.5,4.29e-19
282.0,1.543e-18
282.5,4.191e-18
283.0,1.369e-17
283.5,2.247e-17
284.0,3.57e-16
284.5,1.015e-15
285.0,1.895e-15
285.5,1.034e-14
286.0,4.252e-14
286.5,1.939e-13
287.0,5.567e-13
287.5,2.126e-12
288.0,5.755e-12
288.5,2.133e-11
289.0,6.67e-11
289.5,2.316e-10
290.0,7.093e-10
290.5,1.561e-09
291.0,3.644e-09
291.5,1.155e-08
292.0,2.99e-08
292.5,4.743e-08
293.0,1.194e-07
293.5,3.646e-07
294.0,6.761e-07
294.5,9.042e-07
295.0,1.815e-06
295.5,4.847e-06
296.0,9.525e-06
296.5,1.357e-05
297.0,1.865e-05
297.5,5.114e-05
298.0,8.215e-05
298.5,8.392e-05
299.0,0.0001878
299.5,0.0003199
300.0,0.0003574
300.5,0.0005267
301.0,0.0009816
301.5,0.001615
302.0,0.001409
302.5,0.002708
303.0,0.004757
303.5,0.005902
304.0,0.005484
304.5,0.007945
305.0,0.01155
305.5,0.01288
306.0,0.01234
306.5,0.01511
307.0,0.02157
307.5,0.02765
308.0,0.02904
308.5,0.03368
309.0,0.03278
309.5,0.03658
310.0,0.03632
310.5,0.05849
311.0,0.07271
311.5,0.0699
312.0,0.0684
312.5,0.08205
313.0,0.08833
313.5,0.08638
314.0,0.1061
314.5,0.09194
315.0,0.1203
315.5,0.1018
316.0,0.08724
316.5,0.1232
317.0,0.153
317.5,0.16
318.0,0.1234
318.5,0.1499
319.0,0.176
319.5,0.146
320.0,0.1769
320.5,0.2165
321.0,0.1889
321.5,0.1808
322.0,0.1969
322.5,0.1711
323.0,0.168
323.5,0.2038
324.0,0.2373
324.5,0.2423
325.0,0.2109
325.5,0.2681
326.0,0.3267
326.5,0.3247
327.0,0.3245
327.5,0.3146
328.0,0.283
328.5,0.2938
329.0,0.3483
329.5,0.3941
330.0,0.3986
330.5,0.3215
331.0,0.3284
331.5,0.3319
332.0,0.3556
332.5,0.3504
333.0,0.3502
333.5,0.3189
334.0,0.327
334.5,0.3747
335.0,0.3507
335.5,0.4096
336.0,0.2834
336.5,0.3326
337.0,0.2737
337.5,0.3408
338.0,0.3308
338.5,0.3818
339.0,0.3778
339.5,0.3635
340.0,0.4273
340.5,0.3849
341.0,0.3755
341.5,0.3447
342.0,0.4119
342.5,0.3853
343.0,0.4239
343.5,0.3992
344.0,0.295
344.5,0.298
345.0,0.3943
345.5,0.4025
346.0,0.3421
346.5,0.3873
347.0,0.4159
347.5,0.3363
348.0,0.3834
348.5,0.3832
349.0,0.3554
349.5,0.352
350.0,0.4353
350.5,0.4592
351.0,0.4103
351.5,0.3989
352.0,0.4284
352.5,0.3343
353.0,0.421
353.5,0.4502
354.0,0.4674
354.5,0.474
355.0,0.4725
355.5,0.4268
356.0,0.4466
356.5,0.3814
357.0,0.3151
357.5,0.3858
358.0,0.3058
358.5,0.2613
359.0,0.3655
359.5,0.4659
360.0,0.4939
360.5,0.3948
361.0,0.3599
361.5,0.4144
362.0,0.3584
362.5,0.496
363.0,0.4455
363.5,0.4104
364.0,0.502
364.5,0.4291
365.0,0.4371
365.5,0.5486
366.0,0.5813
366.5,0.5462
367.0,0.5319
367.5,0.5521
368.0,0.4832
368.5,0.4876
369.0,0.5266
369.5,0.5614
370.0,0.5985
370.5,0.4645
371.0,0.4964
371.5,0.6211
372.0,0.4123
372.5,0.4944
373.0,0.5029
373.5,0.3272
374.0,0.4755
374.5,0.3939
375.0,0.3829
375.5,0.5717
376.0,0.474
376.5,0.4912
377.0,0.5201
377.5,0.6086
378.0,0.6598
378.5,0.6237
379.0,0.5147
379.5,0.4702
380.0,0.4889
380.5,0.5923
381.0,0.5936
381.5,0.4706
382.0,0.4179
382.5,0.3563
383.0,0.3299
383.5,0.3178
384.0,0.3506
384.5,0.5157
385.0,0.5115
385.5,0.4764
386.0,0.408
386.5,0.536
387.0,0.4455
387.5,0.5004
388.0,0.4621
388.5,0.4568
389.0,0.4931
389.5,0.5973
390.0,0.5995
390.5,0.5518
391.0,0.6496
391.5,0.6626
392.0,0.5582
392.5,0.4998
393.0,0.2781
393.5,0.2022
394.0,0.4114
394.5,0.5232
395.0,0.6384
395.5,0.6486
396.0,0.5624
396.5,0.3288
397.0,0.2468
397.5,0.5019
398.0,0.7029
398.5,0.7266
399.0,0.7869
399.5,0.7844
400.0,0.8145
401.0,0.827
402.0,0.8726
403.0,0.829
404.0,0.8163
405.0,0.8163
406.0,0.8032
407.0,0.7903
408.0,0.8213
409.0,0.8791
410.0,0.7682
411.0,0.8322
412.0,0.8939
413.0,0.8718
414.0,0.8826
415.0,0.8849
416.0,0.9005
417.0,0.8784
418.0,0.8623
419.0,0.8737
420.0,0.8699
421.0,0.9101
422.0,0.8651
423.0,0.8451
424.0,0.8939
425.0,0.8924
426.0,0.8692
427.0,0.853
428.0,0.831
429.0,0.7871
430.0,0.6889
431.0,0.6829
432.0,0.8817
433.0,0.8866
434.0,0.8233
435.0,0.8599
436.0,0.9689
437.0,0.9558
438.0,0.8704
439.0,0.9004
440.0,0.9291
441.0,0.9627
442.0,1.032
443.0,1.006
444.0,1.028
445.0,1.005
446.0,0.9594
447.0,1.037
448.0,1.053
449.0,1.058
450.0,1.087
451.0,1.127
452.0,1.086
453.0,1.022
454.0,1.066
455.0,1.073
456.0,1.098
457.0,1.117
458.0,1.079
459.0,1.073
460.0,1.076
461.0,1.101
462.0,1.109
463.0,1.102
464.0,1.083
465.0,1.07
466.0,1.08
467.0,1.06
468.0,1.073
469.0,1.078
470.0,1.044
471.0,1.043
472.0,1.099
473.0,1.084
474.0,1.086
475.0,1.096
476.0,1.063
477.0,1.066
478.0,1.096
479.0,1.089
480.0,1.091
481.0,1.111
482.0,1.117
483.0,1.103
484.0,1.08
485.0,1.029
486.0,0.8996
487.0,0.9427
488.0,1.034
489.0,1.038
490.0,1.091
491.0,1.073
492.0,1.013
493.0,1.046
494.0,1.056
495.0,1.065
496.0,1.072
497.0,1.089
498.0,1.038
499.0,1.051
500.0,1.021
501.0,1.002
502.0,0.9881
503.0,1.029
504.0,1.003
505.0,1.039
506.0,1.072
507.0,1.02
508.0,0.9881
509.0,1.016
510.0,1.01
511.0,1.037
512.0,1.048
513.0,0.9921
514.0,0.9852
515.0,0.9754
516.0,0.9731
517.0,0.8646
518.0,0.909
519.0,0.9534
520.0,0.9882
521.0,0.9976
522.0,0.9985
523.0,0.9806
524.0,1.016
525.0,1.028
526.0,0.982
527.0,0.9255
528.0,0.979
529.0,1.032
530.0,1.017
531.0,1.032
532.0,0.997
533.0,0.9677
534.0,0.9963
535.0,1.018
536.0,1.027
537.0,0.9866
538.0,1.004
539.0,0.9956
540.0,0.9546
541.0,0.9611
542.0,0.9913
543.0,0.9807
544.0,0.9979
545.0,0.9948
546.0,0.9993
547.0,0.9987
548.0,0.9867
549.0,0.9896
550.0,1.001
551.0,0.9892
552.0,0.996
553.0,0.9782
554.0,1.002
555.0,1.004
556.0,0.9907
557.0,0.96
558.0,0.9529
559.0,0.9352
560.0,0.9469
561.0,0.9593
562.0,0.9525
563.0,0.9786
564.0,0.9521
565.0,0.944
566.0,0.9302
567.0,0.948
568.0,0.9399
569.0,0.9182
570.0,0.9178
571.0,0.9121
572.0,0.9345
573.0,0.9445
574.0,0.9416
575.0,0.9242
576.0,0.9158
577.0,0.9257
578.0,0.9116
579.0,0.9149
580.0,0.9318
581.0,0.9363
582.0,0.9537
583.0,0.9558
584.0,0.9639
585.0,0.9403
586.0,0.9209
587.0,0.9413
588.0,0.9192
589.0,0.816
590.0,0.8532
591.0,0.9019
592.0,0.8911
593.0,0.9036
594.0,0.8976
595.0,0.876
596.0,0.9092
597.0,0.8997
598.0,0.897
599.0,0.8976
600.0,0.8986
601.0,0.891
602.0,0.8849
603.0,0.8995
604.0,0.9143
605.0,0.9095
606.0,0.9056
607.0,0.9145
608.0,0.9042
609.0,0.9057
610.0,0.8991
611.0,0.9037
612.0,0.901
613.0,0.8896
614.0,0.8773
615.0,0.8963
616.0,0.8667
617.0,0.8649
618.0,0.8981
619.0,0.8889
620.0,0.8946
621.0,0.8955
622.0,0.8852
623.0,0.8718
624.0,0.8568
625.0,0.8548
626.0,0.8675
627.0,0.8775
628.0,0.8228
629.0,0.8579
630.0,0.8382
631.0,0.856
632.0,0.8456
633.0,0.8708
634.0,0.862
635.0,0.8752
636.0,0.8634
637.0,0.8774
638.0,0.8856
639.0,0.8755
640.0,0.8669
641.0,0.8662
642.0,0.8622
643.0,0.8737
644.0,0.8708
645.0,0.8723
646.0,0.8523
647.0,0.8431
648.0,0.844
649.0,0.8277
650.0,0.8306
651.0,0.8663
652.0,0.8315
653.0,0.8548
654.0,0.8452
655.0,0.8143
656.0,0.7213
657.0,0.7406
658.0,0.8297
659.0,0.8354
660.0,0.8389
661.0,0.8447
662.0,0.8467
663.0,0.8298
664.0,0.8393
665.0,0.8398
666.0,0.8403
667.0,0.8394
668.0,0.8396
669.0,0.8525
670.0,0.8488
671.0,0.8485
672.0,0.8412
673.0,0.8539
674.0,0.8506
675.0,0.8428
676.0,0.8486
677.0,0.8401
678.0,0.8424
679.0,0.8288
680.0,0.8354
681.0,0.8299
682.0,0.8288
683.0,0.8272
684.0,0.8231
685.0,0.8301
686.0,0.8252
687.0,0.5622
688.0,0.6521
689.0,0.6542
690.0,0.6839
691.0,0.7172
692.0,0.7412
693.0,0.7354
694.0,0.7292
695.0,0.7577
696.0,0.7587
697.0,0.803
698.0,0.7906
699.0,0.7731
700.0,0.7638
701.0,0.7565
702.0,0.7612
703.0,0.7626
704.0,0.7861
705.0,0.7873
706.0,0.7863
707.0,0.7867
708.0,0.7884
709.0,0.789
710.0,0.7893
711.0,0.788
712.0,0.7854
713.0,0.7777
714.0,0.7806
715.0,0.7565
716.0,0.7571
717.0,0.6619
718.0,0.6087
719.0,0.5581
720.0,0.5851
721.0,0.6426
722.0,0.7318
723.0,0.683
724.0,0.6174
725.0,0.6082
726.0,0.6364
727.0,0.6442
728.0,0.607
729.0,0.6278
730.0,0.6643
731.0,0.6362
732.0,0.6785
733.0,0.7164
734.0,0.7328
735.0,0.7179
736.0,0.717
737.0,0.7199
738.0,0.7297
739.0,0.7154
740.0,0.7336
741.0,0.7261
742.0,0.7266
743.0,0.745
744.0,0.7427
745.0,0.7427
746.0,0.7461
747.0,0.7477
748.0,0.7462
749.0,0.7376
750.0,0.7372
751.0,0.7297
752.0,0.7328
753.0,0.7365
754.0,0.7382
755.0,0.734
756.0,0.7337
757.0,0.7347
758.0,0.7256
759.0,0.7116
760.0,0.1311
761.0,0.0712
762.0,0.3775
763.0,0.1958
764.0,0.2881
765.0,0.3775
766.0,0.4574
767.0,0.571
768.0,0.6541
769.0,0.6668
770.0,0.6882
771.0,0.6932
772.0,0.6945
773.0,0.6993
774.0,0.6959
775.0,0.6906
776.0,0.699
777.0,0.6898
778.0,0.6856
779.0,0.6862
780.0,0.6823
781.0,0.683
782.0,0.6872
783.0,0.6753
784.0,0.6785
785.0,0.6735
786.0,0.681
787.0,0.6696
788.0,0.6615
789.0,0.6613
790.0,0.6445
791.0,0.6493
792.0,0.6445
793.0,0.6341
794.0,0.6442
795.0,0.6553
796.0,0.6362
797.0,0.637
798.0,0.6546
799.0,0.6506
800.0,0.6395
801.0,0.6378
802.0,0.6359
803.0,0.6312
804.0,0.632
805.0,0.6297
806.0,0.6469
807.0,0.6392
808.0,0.6397
809.0,0.6281
810.0,0.6232
811.0,0.6245
812.0,0.6073
813.0,0.5951
814.0,0.5259
815.0,0.5226
816.0,0.4867
817.0,0.4953
818.0,0.4773
819.0,0.5316
820.0,0.5015
821.0,0.5834
822.0,0.5672
823.0,0.3901
824.0,0.5516
825.0,0.5734
826.0,0.5525
827.0,0.5821
828.0,0.496
829.0,0.5489
830.0,0.542
831.0,0.5438
832.0,0.5276
833.0,0.5601
834.0,0.541
835.0,0.5927
836.0,0.5684
837.0,0.5943
838.0,0.5762
839.0,0.5852
840.0,0.5979
841.0,0.5896
842.0,0.5906
843.0,0.5899
844.0,0.5819
845.0,0.6013
846.0,0.5986
847.0,0.5874
848.0,0.5839
849.0,0.5673
850.0,0.5435
851.0,0.5756
852.0,0.5715
853.0,0.55
854.0,0.4749
855.0,0.5217
856.0,0.5701
857.0,0.5828
858.0,0.5785
859.0,0.579
860.0,0.58
861.0,0.5768
862.0,0.5859
863.0,0.5997
864.0,0.5697
865.0,0.5647
866.0,0.5078
867.0,0.5299
868.0,0.5766
869.0,0.5647
870.0,0.5808
871.0,0.5728
872.0,0.5708
873.0,0.5697
874.0,0.5629
875.0,0.5515
876.0,0.5572
877.0,0.5629
878.0,0.569
879.0,0.5602
880.0,0.5482
881.0,0.54
882.0,0.5517
883.0,0.5534
884.0,0.5509
885.0,0.5551
886.0,0.5292
887.0,0.5347
888.0,0.5426
889.0,0.5487
890.0,0.5442
891.0,0.5432
892.0,0.5277
893.0,0.5114
894.0,0.4939
895.0,0.4673
896.0,0.4404
897.0,0.3791
898.0,0.4133
899.0,0.3152
900.0,0.4227
901.0,0.3304
902.0,0.3865
903.0,0.3908
904.0,0.4902
905.0,0.4736
906.0,0.4434
907.0,0.3614
908.0,0.3683
909.0,0.3985
910.0,0.3533
911.0,0.376
912.0,0.3929
913.0,0.3586
914.0,0.3554
915.0,0.3852
916.0,0.3263
917.0,0.4132
918.0,0.3346
919.0,0.4205
920.0,0.4243
921.0,0.4412
922.0,0.395
923.0,0.4262
924.0,0.4049
925.0,0.3961
926.0,0.4005
927.0,0.4478
928.0,0.3299
929.0,0.3015
930.0,0.2373
931.0,0.2248
932.0,0.1622
933.0,0.132
934.0,0.07268
935.0,0.135
936.0,0.08445
937.0,0.08561
938.0,0.1052
939.0,0.2178
940.0,0.2618
941.0,0.1978
942.0,0.2289
943.0,0.1507
944.0,0.1586
945.0,0.2039
946.0,0.104
947.0,0.2049
948.0,0.1506
949.0,0.2741
950.0,0.07639
951.0,0.2699
952.0,0.1452
953.0,0.1874
954.0,0.2297
955.0,0.1895
956.0,0.1839
957.0,0.1454
958.0,0.2605
959.0,0.207
960.0,0.2321
961.0,0.2604
962.0,0.2464
963.0,0.284
964.0,0.2601
965.0,0.2829
966.0,0.2829
967.0,0.2818
968.0,0.3775
969.0,0.3944
970.0,0.3622
971.0,0.4145
972.0,0.3965
973.0,0.3453
974.0,0.3278
975.0,0.3402
976.0,0.3231
977.0,0.3676
978.0,0.3492
979.0,0.3658
980.0,0.3439
981.0,0.4121
982.0,0.3941
983.0,0.3783
984.0,0.4246
985.0,0.3926
986.0,0.432
987.0,0.4236
988.0,0.4228
989.0,0.4307
990.0,0.4203
991.0,0.432
992.0,0.4345
993.0,0.4248
994.0,0.4343
995.0,0.4338
996.0,0.4319
997.0,0.4325
998.0,0.4305
999.0,0.4289
1000.0,0.4259
1001.0,0.4312
1002.0,0.4193
1003.0,0.4236
1004.0,0.4132
1005.0,0.3981
1006.0,0.4136
1007.0,0.4224
1008.0,0.4201
1009.0,0.4178
1010.0,0.4161
1011.0,0.4202
1012.0,0.4166
1013.0,0.4192
1014.0,0.4163
1015.0,0.4135
1016.0,0.4117
1017.0,0.4127
1018.0,0.4112
1019.0,0.4024
1020.0,0.409
1021.0,0.4084
1022.0,0.4053
1023.0,0.4095
1024.0,0.4042
1025.0,0.4093
1026.0,0.4075
1027.0,0.4066
1028.0,0.4057
1029.0,0.4009
1030.0,0.4037
1031.0,0.4021
1032.0,0.4009
1033.0,0.3949
1034.0,0.3949
1035.0,0.3961
1036.0,0.3982
1037.0,0.3917
1038.0,0.3934
1039.0,0.3932
1040.0,0.3916
1041.0,0.3932
1042.0,0.3904
1043.0,0.3892
1044.0,0.3905
1045.0,0.3852
1046.0,0.381
1047.0,0.3844
1048.0,0.3865
1049.0,0.3851
1050.0,0.3834
1051.0,0.3828
1052.0,0.3813
1053.0,0.3782
1054.0,0.379
1055.0,0.3793
1056.0,0.3779
1057.0,0.3767
1058.0,0.3675
1059.0,0.3679
1060.0,0.3673
1061.0,0.3669
1062.0,0.3688
1063.0,0.3652
1064.0,0.3695
1065.0,0.3668
1066.0,0.3596
1067.0,0.3642
1068.0,0.3563
1069.0,0.3453
1070.0,0.357
1071.0,0.3625
1072.0,0.3583
1073.0,0.3532
1074.0,0.3623
1075.0,0.3441
1076.0,0.362
1077.0,0.3555
1078.0,0.3488
1079.0,0.3562
1080.0,0.35
1081.0,0.3388
1082.0,0.3443
1083.0,0.3453
1084.0,0.338
1085.0,0.3508
1086.0,0.3201
1087.0,0.3305
1088.0,0.345
1089.0,0.3344
1090.0,0.327
1091.0,0.3438
1092.0,0.343
1093.0,0.2908
1094.0,0.3138
1095.0,0.3029
1096.0,0.2901
1097.0,0.335
1098.0,0.2855
1099.0,0.2978
1100.0,0.2768
1101.0,0.2803
1102.0,0.2677
1103.0,0.2651
1104.0,0.2655
1105.0,0.291
1106.0,0.2226
1107.0,0.2764
1108.0,0.2342
1109.0,0.2347
1110.0,0.274
1111.0,0.1858
1112.0,0.2329
1113.0,0.1481
1114.0,0.1656
1115.0,0.1373
1116.0,0.1095
1117.0,0.04009
1118.0,0.1192
1119.0,0.05902
1120.0,0.07429
1121.0,0.09868
1122.0,0.04141
1123.0,0.06714
1124.0,0.05667
1125.0,0.07396
1126.0,0.02562
1127.0,0.08344
1128.0,0.04977
1129.0,0.05284
1130.0,0.0347
1131.0,0.1586
1132.0,0.1243
1133.0,0.07861
1134.0,0.01997
1135.0,0.00749
1136.0,0.06551
1137.0,0.1557
1138.0,0.1096
1139.0,0.1639
1140.0,0.1368
1141.0,0.1042
1142.0,0.12
1143.0,0.1705
1144.0,0.05938
1145.0,0.07582
1146.0,0.08177
1147.0,0.02862
1148.0,0.1475
1149.0,0.1177
1150.0,0.06388
1151.0,0.1088
1152.0,0.134
1153.0,0.1307
1154.0,0.07346
1155.0,0.1709
1156.0,0.1539
1157.0,0.1727
1158.0,0.1708
1159.0,0.1843
1160.0,0.1575
1161.0,0.194
1162.0,0.195
1163.0,0.2629
1164.0,0.2257
1165.0,0.2131
1166.0,0.2115
1167.0,0.2302
1168.0,0.2328
1169.0,0.2383
1170.0,0.2588
1171.0,0.2524
1172.0,0.2568
1173.0,0.2582
1174.0,0.1851
1175.0,0.2521
1176.0,0.2768
1177.0,0.266
1178.0,0.2003
1179.0,0.279
1180.0,0.2495
1181.0,0.2574
1182.0,0.1783
1183.0,0.2534
1184.0,0.2377
1185.0,0.2296
1186.0,0.2714
1187.0,0.2588
1188.0,0.1814
1189.0,0.2411
1190.0,0.2653
1191.0,0.2523
1192.0,0.2689
1193.0,0.2578
1194.0,0.2656
1195.0,0.2516
1196.0,0.2425
1197.0,0.2656
1198.0,0.2433
1199.0,0.2077
1200.0,0.2546
1201.0,0.2459
1202.0,0.2443
1203.0,0.2422
1204.0,0.2123
1205.0,0.2497
1206.0,0.2754
1207.0,0.2437
1208.0,0.2396
1209.0,0.2445
1210.0,0.2545
1211.0,0.2427
1212.0,0.2402
1213.0,0.2665
1214.0,0.2458
1215.0,0.2412
1216.0,0.2656
1217.0,0.2588
1218.0,0.2635
1219.0,0.2603
1220.0,0.2637
1221.0,0.2663
1222.0,0.2594
1223.0,0.2571
1224.0,0.2557
1225.0,0.2646
1226.0,0.2662
1227.0,0.2461
1228.0,0.2674
1229.0,0.2663
1230.0,0.2618
1231.0,0.2689
1232.0,0.2673
1233.0,0.2586
1234.0,0.2686
1235.0,0.267
1236.0,0.2689
1237.0,0.2653
1238.0,0.268
1239.0,0.2645
1240.0,0.2655
1241.0,0.2644
1242.0,0.2637
1243.0,0.2615
1244.0,0.2634
1245.0,0.2645
1246.0,0.263
1247.0,0.262
1248.0,0.2619
1249.0,0.2626
1250.0,0.2611
1251.0,0.2578
1252.0,0.2578
1253.0,0.2558
1254.0,0.2534
1255.0,0.2575
1256.0,0.2506
1257.0,0.2492
1258.0,0.2537
1259.0,0.2449
1260.0,0.2461
1261.0,0.2328
1262.0,0.2261
1263.0,0.2265
1264.0,0.2097
1265.0,0.2251
1266.0,0.2169
1267.0,0.2205
1268.0,0.2095
1269.0,0.1325
1270.0,0.2198
1271.0,0.232
1272.0,0.2327
1273.0,0.2303
1274.0,0.2309
1275.0,0.2342
1276.0,0.2363
1277.0,0.2378
1278.0,0.2422
1279.0,0.24
1280.0,0.237
1281.0,0.226
1282.0,0.2176
1283.0,0.2344
1284.0,0.24
1285.0,0.2416
1286.0,0.2448
1287.0,0.2412
1288.0,0.2411
1289.0,0.2337
1290.0,0.2389
1291.0,0.2422
1292.0,0.2281
1293.0,0.2376
1294.0,0.236
1295.0,0.235
1296.0,0.2247
1297.0,0.2128
1298.0,0.2285
1299.0,0.2379
1300.0,0.2023
1301.0,0.2083
1302.0,0.2278
1303.0,0.1995
1304.0,0.171
1305.0,0.2231
1306.0,0.2232
1307.0,0.1744
1308.0,0.1997
1309.0,0.2216
1310.0,0.1711
1311.0,0.1917
1312.0,0.1866
1313.0,0.1831
1314.0,0.1642
1315.0,0.1622
1316.0,0.1888
1317.0,0.1789
1318.0,0.1941
1319.0,0.1526
1320.0,0.1477
1321.0,0.1717
1322.0,0.1736
1323.0,0.1313
1324.0,0.1497
1325.0,0.1861
1326.0,0.1602
1327.0,0.1529
1328.0,0.132
1329.0,0.09965
1330.0,0.1295
1331.0,0.07867
1332.0,0.08107
1333.0,0.1127
1334.0,0.09524
1335.0,0.1308
1336.0,0.1037
1337.0,0.09181
1338.0,0.09936
1339.0,0.09886
1340.0,0.09602
1341.0,0.09405
1342.0,0.09876
1343.0,0.06738
1344.0,0.04032
1345.0,0.05813
1346.0,0.02917
1347.0,0.02971
1348.0,0.001987
1349.0,0.007079
1350.0,0.007309
1351.0,0.001827
1352.0,0.0005095
1353.0,2.695e-05
1354.0,9.076e-05
1355.0,7.889e-07
1356.0,1.32e-05
1357.0,2.01e-05
1358.0,9.317e-07
1359.0,1.244e-07
1360.0,4.352e-07
1361.0,5.491e-10
1362.0,1.584e-12
1363.0,6.001e-07
1364.0,2.493e-07
1365.0,5.949e-13
1366.0,2.585e-06
1367.0,1.048e-06
1368.0,5.257e-15
1369.0,9.349e-08
1370.0,4.727e-08
1371.0,2.766e-09
1372.0,5.768e-07
1373.0,1.122e-05
1374.0,5.087e-05
1375.0,9.264e-05
1376.0,8.156e-05
1377.0,3.758e-05
1378.0,0.0003642
1379.0,1.581e-05
1380.0,2.314e-05
1381.0,6.142e-07
1382.0,5.238e-07
1383.0,8.024e-09
1384.0,1.068e-07
1385.0,4.824e-07
1386.0,4.749e-07
1387.0,5.366e-05
1388.0,1.06e-06
1389.0,0.0001771
1390.0,0.0001525
1391.0,0.0001023
1392.0,6.708e-06
1393.0,3.514e-05
1394.0,1.893e-05
1395.0,1.434e-07
1396.0,7.788e-10
1397.0,1.414e-05
1398.0,0.0004104
1399.0,0.0002602
1400.0,3.474e-10
1401.0,1.386e-09
1402.0,0.0007017
1403.0,0.0008873
1404.0,0.0002711
1405.0,7.127e-08
1406.0,0.0007127
1407.0,6.25e-05
1408.0,0.000582
1409.0,0.0001985
1410.0,0.0001573
1411.0,0.0007794
1412.0,0.001045
1413.0,0.0106
1414.0,0.0001239
1415.0,5.991e-05
1416.0,0.01737
1417.0,0.005236
1418.0,0.005963
1419.0,0.0009244
1420.0,0.003647
1421.0,0.003944
1422.0,0.02268
1423.0,0.004386
1424.0,0.008231
1425.0,0.0121
1426.0,0.01378
1427.0,0.02547
1428.0,0.00187
1429.0,0.01898
1430.0,0.03255
1431.0,0.03581
1432.0,0.001472
1433.0,0.02269
1434.0,0.01149
1435.0,0.01133
1436.0,0.02212
1437.0,0.01696
1438.0,0.007088
1439.0,0.03021
1440.0,0.02262
1441.0,0.01709
1442.0,0.01898
1443.0,0.02407
