interpolation:linear
wavelength,value
280.0,4.1319999999999996e-22
280.5,6.156e-21
281.0,2.6280000000000002e-20
281.5,4.994e-19
282.0,3.054e-18
282.5,9.889e-18
283.0,3.675e-17
283.5,6.321e-17
284.0,1.177e-15
284.5,3.524e-15
285.0,1.032e-14
285.5,7.06e-14
286.0,3.122e-13
286.5,1.624e-12
287.0,5.062e-12
287.5,2.12e-11
288.0,7.44e-11
288.5,2.857e-10
289.0,9.266e-10
289.5,3.344e-09
290.0,1.058e-08
290.5,2.395e-08
291.0,5.774e-08
291.5,1.906e-07
292.0,4.449e-07
292.5,6.609e-07
293.0,1.519e-06
293.5,4.049e-06
294.0,6.792e-06
294.5,1.339e-05
295.0,2.428e-05
295.5,5.236e-05
296.0,9.429e-05
296.5,0.0001232
297.0,0.0001576
297.5,0.0003886
298.0,0.0005702
298.5,0.0005429
299.0,0.001134
299.5,0.001712
300.0,0.001787
300.5,0.002451
301.0,0.004061
301.5,0.005975
302.0,0.004908
302.5,0.009028
303.0,0.01501
303.5,0.01801
304.0,0.01638
304.5,0.0225
305.0,0.03044
305.5,0.03248
306.0,0.0306
306.5,0.03643
307.0,0.04907
307.5,0.05957
308.0,0.06199
308.5,0.07006
309.0,0.06649
309.5,0.07147
310.0,0.06973
310.5,0.1113
311.0,0.1363
311.5,0.1302
312.0,0.1234
312.5,0.145
313.0,0.1544
313.5,0.1524
314.0,0.1826
314.5,0.1531
315.0,0.1991
315.5,0.1711
316.0,0.1428
316.5,0.1971
317.0,0.2448
317.5,0.2575
318.0,0.1956
318.5,0.2307
319.0,0.2668
319.5,0.2265
320.0,0.2753
320.5,0.3271
321.0,0.278
321.5,0.2652
322.0,0.297
322.5,0.2576
323.0,0.2483
323.5,0.2957
324.0,0.3432
324.5,0.353
325.0,0.3103
325.5,0.3887
326.0,0.4709
326.5,0.4633
327.0,0.4646
327.5,0.4522
328.0,0.412
328.5,0.4209
329.0,0.4929
329.5,0.5556
330.0,0.5633
330.5,0.4584
331.0,0.4695
331.5,0.4711
332.0,0.4996
332.5,0.4901
333.0,0.4908
333.5,0.4501
334.0,0.462
334.5,0.5249
335.0,0.4888
335.5,0.5707
336.0,0.3947
336.5,0.4641
337.0,0.3831
337.5,0.4774
338.0,0.4603
338.5,0.5309
339.0,0.5252
339.5,0.505
340.0,0.5936
340.5,0.5343
341.0,0.5212
341.5,0.4782
342.0,0.5713
342.5,0.5342
343.0,0.5875
343.5,0.5532
344.0,0.4085
344.5,0.4127
345.0,0.5458
345.5,0.5569
346.0,0.473
346.5,0.5354
347.0,0.5747
347.5,0.4646
348.0,0.5293
348.5,0.5289
349.0,0.4904
349.5,0.4854
350.0,0.6001
350.5,0.6329
351.0,0.5653
351.5,0.5495
352.0,0.5899
352.5,0.4601
353.0,0.5792
353.5,0.6192
354.0,0.6426
354.5,0.6517
355.0,0.6494
355.5,0.5864
356.0,0.6133
356.5,0.5236
357.0,0.4327
357.5,0.5296
358.0,0.4196
358.5,0.3585
359.0,0.5014
359.5,0.6391
360.0,0.6773
360.5,0.5412
361.0,0.4932
361.5,0.5676
362.0,0.4905
362.5,0.6786
363.0,0.6092
363.5,0.5609
364.0,0.6858
364.5,0.5861
365.0,0.5968
365.5,0.7489
366.0,0.7931
366.5,0.745
367.0,0.7254
367.5,0.7526
368.0,0.6585
368.5,0.6643
369.0,0.7172
369.5,0.7643
370.0,0.8146
370.5,0.6321
371.0,0.6753
371.5,0.8447
372.0,0.5606
372.5,0.672
373.0,0.6834
373.5,0.4446
374.0,0.6459
374.5,0.5348
375.0,0.5198
375.5,0.7759
376.0,0.6432
376.5,0.6665
377.0,0.7055
377.5,0.8252
378.0,0.8945
378.5,0.8454
379.0,0.6977
379.5,0.6373
380.0,0.6626
380.5,0.8023
381.0,0.8037
381.5,0.6369
382.0,0.5655
382.5,0.4819
383.0,0.446
383.5,0.4295
384.0,0.4737
384.5,0.6967
385.0,0.6908
385.5,0.6432
386.0,0.5508
386.5,0.7233
387.0,0.601
387.5,0.675
388.0,0.6231
388.5,0.6158
389.0,0.6647
389.5,0.805
390.0,0.8077
390.5,0.7433
391.0,0.8748
391.5,0.8922
392.0,0.7514
392.5,0.6725
393.0,0.3741
393.5,0.2719
394.0,0.5533
394.5,0.7033
395.0,0.8581
395.5,0.8717
396.0,0.7557
396.5,0.4416
397.0,0.3314
397.5,0.6738
398.0,0.9437
398.5,0.9753
399.0,1.056
399.5,1.052
400.0,1.093
401.0,1.111
402.0,1.172
403.0,1.113
404.0,1.096
405.0,1.095
406.0,1.077
407.0,1.059
408.0,1.1
409.0,1.177
410.0,1.028
411.0,1.114
412.0,1.195
413.0,1.166
414.0,1.18
415.0,1.182
416.0,1.202
417.0,1.173
418.0,1.151
419.0,1.166
420.0,1.16
421.0,1.213
422.0,1.153
423.0,1.126
424.0,1.191
425.0,1.188
426.0,1.157
427.0,1.135
428.0,1.105
429.0,1.046
430.0,0.9155
431.0,0.9075
432.0,1.171
433.0,1.177
434.0,1.093
435.0,1.142
436.0,1.286
437.0,1.268
438.0,1.154
439.0,1.194
440.0,1.232
441.0,1.276
442.0,1.368
443.0,1.333
444.0,1.361
445.0,1.332
446.0,1.27
447.0,1.372
448.0,1.394
449.0,1.398
450.0,1.437
451.0,1.49
452.0,1.435
453.0,1.349
454.0,1.408
455.0,1.417
456.0,1.45
457.0,1.474
458.0,1.424
459.0,1.416
460.0,1.42
461.0,1.453
462.0,1.463
463.0,1.453
464.0,1.428
465.0,1.409
466.0,1.422
467.0,1.397
468.0,1.413
469.0,1.42
470.0,1.375
471.0,1.373
472.0,1.447
473.0,1.428
474.0,1.431
475.0,1.444
476.0,1.402
477.0,1.406
478.0,1.445
479.0,1.436
480.0,1.438
481.0,1.463
482.0,1.47
483.0,1.451
484.0,1.421
485.0,1.353
486.0,1.183
487.0,1.239
488.0,1.359
489.0,1.364
490.0,1.434
491.0,1.409
492.0,1.33
493.0,1.374
494.0,1.387
495.0,1.399
496.0,1.408
497.0,1.429
498.0,1.362
499.0,1.38
500.0,1.34
501.0,1.316
502.0,1.299
503.0,1.353
504.0,1.323
505.0,1.367
506.0,1.411
507.0,1.343
508.0,1.3
509.0,1.335
510.0,1.327
511.0,1.362
512.0,1.377
513.0,1.303
514.0,1.293
515.0,1.28
516.0,1.277
517.0,1.135
518.0,1.193
519.0,1.252
520.0,1.297
521.0,1.31
522.0,1.311
523.0,1.288
524.0,1.334
525.0,1.351
526.0,1.291
527.0,1.217
528.0,1.288
529.0,1.358
530.0,1.339
531.0,1.359
532.0,1.312
533.0,1.274
534.0,1.311
535.0,1.339
536.0,1.351
537.0,1.297
538.0,1.32
539.0,1.309
540.0,1.255
541.0,1.265
542.0,1.305
543.0,1.29
544.0,1.313
545.0,1.309
546.0,1.316
547.0,1.314
548.0,1.298
549.0,1.302
550.0,1.317
551.0,1.301
552.0,1.31
553.0,1.287
554.0,1.318
555.0,1.321
556.0,1.304
557.0,1.264
558.0,1.255
559.0,1.232
560.0,1.247
561.0,1.264
562.0,1.255
563.0,1.291
564.0,1.256
565.0,1.246
566.0,1.228
567.0,1.252
568.0,1.242
569.0,1.217
570.0,1.216
571.0,1.207
572.0,1.239
573.0,1.252
574.0,1.249
575.0,1.226
576.0,1.215
577.0,1.228
578.0,1.209
579.0,1.212
580.0,1.232
581.0,1.237
582.0,1.259
583.0,1.26
584.0,1.27
585.0,1.239
586.0,1.213
587.0,1.241
588.0,1.215
589.0,1.085
590.0,1.134
591.0,1.195
592.0,1.183
593.0,1.197
594.0,1.19
595.0,1.164
596.0,1.203
597.0,1.191
598.0,1.186
599.0,1.186
600.0,1.186
601.0,1.175
602.0,1.167
603.0,1.185
604.0,1.205
605.0,1.198
606.0,1.192
607.0,1.203
608.0,1.189
609.0,1.191
610.0,1.182
611.0,1.187
612.0,1.184
613.0,1.168
614.0,1.152
615.0,1.176
616.0,1.137
617.0,1.134
618.0,1.178
619.0,1.166
620.0,1.173
621.0,1.175
622.0,1.162
623.0,1.144
624.0,1.124
625.0,1.122
626.0,1.138
627.0,1.153
628.0,1.095
629.0,1.132
630.0,1.106
631.0,1.125
632.0,1.111
633.0,1.142
634.0,1.129
635.0,1.145
636.0,1.129
637.0,1.147
638.0,1.156
639.0,1.142
640.0,1.131
641.0,1.129
642.0,1.123
643.0,1.138
644.0,1.134
645.0,1.136
646.0,1.112
647.0,1.104
648.0,1.106
649.0,1.084
650.0,1.083
651.0,1.129
652.0,1.089
653.0,1.114
654.0,1.101
655.0,1.063
656.0,0.9397
657.0,0.9648
658.0,1.079
659.0,1.086
660.0,1.09
661.0,1.098
662.0,1.101
663.0,1.079
664.0,1.09
665.0,1.089
666.0,1.09
667.0,1.088
668.0,1.088
669.0,1.104
670.0,1.099
671.0,1.098
672.0,1.089
673.0,1.105
674.0,1.1
675.0,1.09
676.0,1.097
677.0,1.086
678.0,1.089
679.0,1.071
680.0,1.08
681.0,1.073
682.0,1.071
683.0,1.069
684.0,1.064
685.0,1.073
686.0,1.067
687.0,0.7901
688.0,0.8859
689.0,0.8878
690.0,0.918
691.0,0.9515
692.0,0.9747
693.0,0.968
694.0,0.9603
695.0,0.9902
696.0,0.9917
697.0,1.04
698.0,1.024
699.0,1.007
700.0,0.9955
701.0,0.9878
702.0,0.9916
703.0,0.9935
704.0,1.02
705.0,1.022
706.0,1.019
707.0,1.019
708.0,1.022
709.0,1.02
710.0,1.021
711.0,1.019
712.0,1.015
713.0,1.006
714.0,1.009
715.0,0.9803
716.0,0.9817
717.0,0.8816
718.0,0.8155
719.0,0.7505
720.0,0.7881
721.0,0.8509
722.0,0.9527
723.0,0.8978
724.0,0.8212
725.0,0.8123
726.0,0.8477
727.0,0.853
728.0,0.8115
729.0,0.8309
730.0,0.8785
731.0,0.8443
732.0,0.8916
733.0,0.9326
734.0,0.9518
735.0,0.9336
736.0,0.9322
737.0,0.9363
738.0,0.9436
739.0,0.9252
740.0,0.947
741.0,0.9363
742.0,0.9359
743.0,0.9594
744.0,0.9558
745.0,0.9554
746.0,0.9598
747.0,0.9617
748.0,0.9596
749.0,0.9486
750.0,0.948
751.0,0.9383
752.0,0.9423
753.0,0.947
754.0,0.9491
755.0,0.9438
756.0,0.9433
757.0,0.9447
758.0,0.9331
759.0,0.9182
760.0,0.243
761.0,0.1504
762.0,0.5552
763.0,0.3329
764.0,0.4502
765.0,0.5556
766.0,0.6403
767.0,0.7678
768.0,0.8551
769.0,0.8663
770.0,0.8881
771.0,0.892
772.0,0.8928
773.0,0.8988
774.0,0.8942
775.0,0.8872
776.0,0.8979
777.0,0.8861
778.0,0.8807
779.0,0.8815
780.0,0.8764
781.0,0.8773
782.0,0.8827
783.0,0.8672
784.0,0.8713
785.0,0.8651
786.0,0.8749
787.0,0.8628
788.0,0.8535
789.0,0.8537
790.0,0.8356
791.0,0.8384
792.0,0.8316
793.0,0.8187
794.0,0.8278
795.0,0.843
796.0,0.8234
797.0,0.8246
798.0,0.8426
799.0,0.8385
800.0,0.8255
801.0,0.8242
802.0,0.8218
803.0,0.8163
804.0,0.8167
805.0,0.8123
806.0,0.8322
807.0,0.8228
808.0,0.8232
809.0,0.81
810.0,0.8051
811.0,0.809
812.0,0.7903
813.0,0.7768
814.0,0.6988
815.0,0.694
816.0,0.6483
817.0,0.6582
818.0,0.637
819.0,0.6986
820.0,0.6633
821.0,0.757
822.0,0.7384
823.0,0.5319
824.0,0.7231
825.0,0.7448
826.0,0.722
827.0,0.7561
828.0,0.6575
829.0,0.7165
830.0,0.7089
831.0,0.7108
832.0,0.692
833.0,0.7275
834.0,0.7073
835.0,0.7653
836.0,0.7398
837.0,0.767
838.0,0.7462
839.0,0.7547
840.0,0.7704
841.0,0.7609
842.0,0.7604
843.0,0.7578
844.0,0.7485
845.0,0.7721
846.0,0.7684
847.0,0.7534
848.0,0.7497
849.0,0.7284
850.0,0.6977
851.0,0.7398
852.0,0.7341
853.0,0.7058
854.0,0.6101
855.0,0.6693
856.0,0.7319
857.0,0.7475
858.0,0.7423
859.0,0.7425
860.0,0.7436
861.0,0.7396
862.0,0.7511
863.0,0.7688
864.0,0.7303
865.0,0.7239
866.0,0.6509
867.0,0.6792
868.0,0.7391
869.0,0.7237
870.0,0.7443
871.0,0.7342
872.0,0.7315
873.0,0.7301
874.0,0.7214
875.0,0.7068
876.0,0.7142
877.0,0.7214
878.0,0.7293
879.0,0.7181
880.0,0.7027
881.0,0.6926
882.0,0.7077
883.0,0.7095
884.0,0.7064
885.0,0.7118
886.0,0.68
887.0,0.686
888.0,0.6969
889.0,0.7034
890.0,0.6992
891.0,0.6971
892.0,0.6791
893.0,0.6607
894.0,0.6427
895.0,0.6139
896.0,0.5816
897.0,0.509
898.0,0.5499
899.0,0.4299
900.0,0.5574
901.0,0.4501
902.0,0.5129
903.0,0.5228
904.0,0.6378
905.0,0.6189
906.0,0.5817
907.0,0.4864
908.0,0.4942
909.0,0.5286
910.0,0.4794
911.0,0.5039
912.0,0.5238
913.0,0.487
914.0,0.4808
915.0,0.5198
916.0,0.444
917.0,0.5499
918.0,0.4555
919.0,0.5569
920.0,0.5567
921.0,0.5774
922.0,0.5248
923.0,0.5574
924.0,0.5382
925.0,0.5268
926.0,0.5325
927.0,0.5879
928.0,0.4548
929.0,0.4215
930.0,0.3416
931.0,0.3218
932.0,0.2422
933.0,0.2028
934.0,0.1238
935.0,0.2026
936.0,0.1343
937.0,0.1373
938.0,0.1657
939.0,0.3118
940.0,0.3679
941.0,0.2876
942.0,0.3265
943.0,0.2226
944.0,0.2275
945.0,0.2948
946.0,0.1608
947.0,0.2988
948.0,0.2214
949.0,0.3893
950.0,0.1253
951.0,0.3815
952.0,0.2193
953.0,0.2738
954.0,0.3254
955.0,0.2758
956.0,0.2632
957.0,0.221
958.0,0.3581
959.0,0.2954
960.0,0.3307
961.0,0.3629
962.0,0.3445
963.0,0.3899
964.0,0.3597
965.0,0.3875
966.0,0.3894
967.0,0.3884
968.0,0.4963
969.0,0.52
970.0,0.4811
971.0,0.54
972.0,0.5186
973.0,0.4622
974.0,0.4404
975.0,0.4528
976.0,0.4356
977.0,0.4847
978.0,0.465
979.0,0.4835
980.0,0.457
981.0,0.5364
982.0,0.5167
983.0,0.4984
984.0,0.5485
985.0,0.5146
986.0,0.5556
987.0,0.5474
988.0,0.5464
989.0,0.5524
990.0,0.5429
991.0,0.5543
992.0,0.5572
993.0,0.5475
994.0,0.5568
995.0,0.5557
996.0,0.5537
997.0,0.5543
998.0,0.5518
999.0,0.5497
1000.0,0.5464
1001.0,0.5526
1002.0,0.5399
1003.0,0.543
1004.0,0.5303
1005.0,0.51
1006.0,0.5304
1007.0,0.5414
1008.0,0.5389
1009.0,0.5366
1010.0,0.5346
1011.0,0.5386
1012.0,0.5344
1013.0,0.5371
1014.0,0.5333
1015.0,0.5299
1016.0,0.5276
1017.0,0.529
1018.0,0.5267
1019.0,0.5164
1020.0,0.5241
1021.0,0.5232
1022.0,0.5195
1023.0,0.5251
1024.0,0.5192
1025.0,0.5244
1026.0,0.5224
1027.0,0.5211
1028.0,0.5201
1029.0,0.514
1030.0,0.5172
1031.0,0.5153
1032.0,0.5137
1033.0,0.506
1034.0,0.5059
1035.0,0.5075
1036.0,0.5103
1037.0,0.5019
1038.0,0.5042
1039.0,0.504
1040.0,0.5019
1041.0,0.504
1042.0,0.5005
1043.0,0.499
1044.0,0.5008
1045.0,0.4941
1046.0,0.4887
1047.0,0.4931
1048.0,0.4959
1049.0,0.4942
1050.0,0.492
1051.0,0.4914
1052.0,0.4895
1053.0,0.4857
1054.0,0.4869
1055.0,0.4873
1056.0,0.4858
1057.0,0.4844
1058.0,0.4726
1059.0,0.4733
1060.0,0.4726
1061.0,0.4722
1062.0,0.4748
1063.0,0.4702
1064.0,0.4758
1065.0,0.4727
1066.0,0.4631
1067.0,0.4692
1068.0,0.4592
1069.0,0.4448
1070.0,0.4602
1071.0,0.4664
1072.0,0.4617
1073.0,0.4549
1074.0,0.4657
1075.0,0.4451
1076.0,0.4655
1077.0,0.4587
1078.0,0.4506
1079.0,0.4576
1080.0,0.4517
1081.0,0.4385
1082.0,0.4432
1083.0,0.444
1084.0,0.4382
1085.0,0.4524
1086.0,0.4173
1087.0,0.4274
1088.0,0.444
1089.0,0.433
1090.0,0.4253
1091.0,0.4433
1092.0,0.4416
1093.0,0.3825
1094.0,0.405
1095.0,0.3973
1096.0,0.3829
1097.0,0.4312
1098.0,0.3777
1099.0,0.3927
1100.0,0.3688
1101.0,0.3723
1102.0,0.3578
1103.0,0.3559
1104.0,0.3562
1105.0,0.3845
1106.0,0.3082
1107.0,0.3679
1108.0,0.3204
1109.0,0.3194
1110.0,0.3657
1111.0,0.2597
1112.0,0.3162
1113.0,0.2136
1114.0,0.2372
1115.0,0.197
1116.0,0.165
1117.0,0.06957
1118.0,0.1765
1119.0,0.09453
1120.0,0.1191
1121.0,0.1536
1122.0,0.07075
1123.0,0.1074
1124.0,0.09074
1125.0,0.1167
1126.0,0.04679
1127.0,0.1311
1128.0,0.08502
1129.0,0.08912
1130.0,0.06174
1131.0,0.2334
1132.0,0.186
1133.0,0.1259
1134.0,0.0375
1135.0,0.01382
1136.0,0.108
1137.0,0.2315
1138.0,0.165
1139.0,0.2312
1140.0,0.1989
1141.0,0.1568
1142.0,0.1771
1143.0,0.2453
1144.0,0.09352
1145.0,0.1212
1146.0,0.1308
1147.0,0.05255
1148.0,0.2125
1149.0,0.1744
1150.0,0.1003
1151.0,0.1638
1152.0,0.1962
1153.0,0.1871
1154.0,0.119
1155.0,0.2413
1156.0,0.2202
1157.0,0.2429
1158.0,0.2401
1159.0,0.2551
1160.0,0.2228
1161.0,0.2658
1162.0,0.2677
1163.0,0.3471
1164.0,0.3031
1165.0,0.2909
1166.0,0.2855
1167.0,0.3082
1168.0,0.3126
1169.0,0.3182
1170.0,0.3416
1171.0,0.3338
1172.0,0.3374
1173.0,0.3409
1174.0,0.2552
1175.0,0.3313
1176.0,0.3586
1177.0,0.3478
1178.0,0.2702
1179.0,0.3612
1180.0,0.3287
1181.0,0.3385
1182.0,0.2433
1183.0,0.3319
1184.0,0.3143
1185.0,0.306
1186.0,0.3534
1187.0,0.3395
1188.0,0.2483
1189.0,0.317
1190.0,0.3454
1191.0,0.3328
1192.0,0.3496
1193.0,0.3368
1194.0,0.346
1195.0,0.3306
1196.0,0.3207
1197.0,0.3442
1198.0,0.3177
1199.0,0.2782
1200.0,0.3329
1201.0,0.3238
1202.0,0.3203
1203.0,0.3178
1204.0,0.2824
1205.0,0.3254
1206.0,0.355
1207.0,0.3203
1208.0,0.3129
1209.0,0.3187
1210.0,0.3302
1211.0,0.3175
1212.0,0.317
1213.0,0.345
1214.0,0.323
1215.0,0.3177
1216.0,0.3437
1217.0,0.3362
1218.0,0.3411
1219.0,0.3376
1220.0,0.3412
1221.0,0.3438
1222.0,0.3358
1223.0,0.3333
1224.0,0.3323
1225.0,0.3416
1226.0,0.343
1227.0,0.3204
1228.0,0.3439
1229.0,0.343
1230.0,0.3379
1231.0,0.345
1232.0,0.343
1233.0,0.3344
1234.0,0.3441
1235.0,0.3423
1236.0,0.3445
1237.0,0.3409
1238.0,0.3433
1239.0,0.3389
1240.0,0.34
1241.0,0.3392
1242.0,0.3378
1243.0,0.335
1244.0,0.3376
1245.0,0.3389
1246.0,0.3369
1247.0,0.3358
1248.0,0.336
1249.0,0.3367
1250.0,0.3349
1251.0,0.331
1252.0,0.3305
1253.0,0.3289
1254.0,0.3264
1255.0,0.3304
1256.0,0.3232
1257.0,0.3218
1258.0,0.3262
1259.0,0.3175
1260.0,0.3188
1261.0,0.3048
1262.0,0.2977
1263.0,0.2984
1264.0,0.2803
1265.0,0.2964
1266.0,0.2881
1267.0,0.2912
1268.0,0.2793
1269.0,0.1955
1270.0,0.2909
1271.0,0.3033
1272.0,0.3038
1273.0,0.301
1274.0,0.3014
1275.0,0.3051
1276.0,0.3072
1277.0,0.3084
1278.0,0.3127
1279.0,0.31
1280.0,0.306
1281.0,0.2913
1282.0,0.2794
1283.0,0.3012
1284.0,0.3087
1285.0,0.3105
1286.0,0.314
1287.0,0.3104
1288.0,0.31
1289.0,0.3026
1290.0,0.3071
1291.0,0.311
1292.0,0.2967
1293.0,0.3061
1294.0,0.3041
1295.0,0.3038
1296.0,0.293
1297.0,0.2796
1298.0,0.2962
1299.0,0.306
1300.0,0.2673
1301.0,0.2738
1302.0,0.2951
1303.0,0.2629
1304.0,0.232
1305.0,0.2896
1306.0,0.2901
1307.0,0.2343
1308.0,0.262
1309.0,0.2885
1310.0,0.2302
1311.0,0.253
1312.0,0.2474
1313.0,0.2438
1314.0,0.2211
1315.0,0.22
1316.0,0.2503
1317.0,0.238
1318.0,0.2554
1319.0,0.209
1320.0,0.2005
1321.0,0.2303
1322.0,0.2339
1323.0,0.1838
1324.0,0.2049
1325.0,0.2471
1326.0,0.217
1327.0,0.2083
1328.0,0.1821
1329.0,0.1434
1330.0,0.1832
1331.0,0.1189
1332.0,0.1199
1333.0,0.1646
1334.0,0.1361
1335.0,0.183
1336.0,0.1488
1337.0,0.1342
1338.0,0.1448
1339.0,0.1431
1340.0,0.1371
1341.0,0.1386
1342.0,0.1452
1343.0,0.1087
1344.0,0.0649
1345.0,0.09228
1346.0,0.05313
1347.0,0.05524
1348.0,0.005243
1349.0,0.01678
1350.0,0.01607
1351.0,0.005467
1352.0,0.002068
1353.0,0.00016
1354.0,0.0004288
1355.0,7.798e-06
1356.0,8.112e-05
1357.0,0.0001217
1358.0,8.94e-06
1359.0,2.026e-06
1360.0,5.046e-06
1361.0,2.039e-08
1362.0,1.012e-10
1363.0,7.781e-06
1364.0,3.48e-06
1365.0,6.889e-11
1366.0,2.893e-05
1367.0,1.116e-05
1368.0,2.03e-12
1369.0,1.363e-06
1370.0,8.587e-07
1371.0,6.817e-08
1372.0,6.192e-06
1373.0,8.179e-05
1374.0,0.0002872
1375.0,0.0005141
1376.0,0.0003809
1377.0,0.0001871
1378.0,0.001565
1379.0,8.028e-05
1380.0,0.0001349
1381.0,4.331e-06
1382.0,5.975e-06
1383.0,1.179e-07
1384.0,1.689e-06
1385.0,4.34e-06
1386.0,6.27e-06
1387.0,0.0003418
1388.0,7.339e-06
1389.0,0.0008701
1390.0,0.0007439
1391.0,0.0005353
1392.0,3.967e-05
1393.0,0.0001786
1394.0,0.0001406
1395.0,1.509e-06
1396.0,2.49e-08
1397.0,8.001e-05
1398.0,0.001793
1399.0,0.001141
1400.0,1.484e-08
1401.0,3.964e-08
1402.0,0.002228
1403.0,0.002977
1404.0,0.0009356
1405.0,9.097e-07
1406.0,0.002691
1407.0,0.0002301
1408.0,0.002169
1409.0,0.0008931
1410.0,0.0006457
1411.0,0.00259
1412.0,0.003172
1413.0,0.02385
1414.0,0.0004989
1415.0,0.0002656
1416.0,0.03352
1417.0,0.01225
1418.0,0.01401
1419.0,0.00229
1420.0,0.008668
1421.0,0.009566
1422.0,0.04307
1423.0,0.008956
1424.0,0.01628
1425.0,0.02457
1426.0,0.0261
1427.0,0.04378
1428.0,0.005056
1429.0,0.03454
1430.0,0.05447
1431.0,0.05872
1432.0,0.004047
1433.0,0.03895
1434.0,0.02063
1435.0,0.02338
1436.0,0.04066
1437.0,0.03122
1438.0,0.01444
1439.0,0.05331
1440.0,0.04023
1441.0,0.03272
1442.0,0.03577
1443.0,0.04179
1444.0,0.05665
1445.0,0.04677
1446.0,0.02181
1447.0,0.03435
1448.0,0.09816
1449.0,0.08771
1450.0,0.0254
1451.0,0.01087
1452.0,0.05512
1453.0,0.07089
1454.0,0.1133
1455.0,0.05657
1456.0,0.07733
1457.0,0.09867
1458.0,0.1116
1459.0,0.1327
1460.0,0.0717
