interpolation:linear
wavelength,value
280.0,1.148e-21
280.5,3.686e-20
281.0,1.96e-19
281.5,5.177e-19
282.0,9.631e-19
282.5,2.401e-18
283.0,7.573e-18
283.5,1.23e-17
284.0,1.991e-16
284.5,5.756e-16
285.0,1.148e-15
285.5,5.528e-15
286.0,2.208e-14
286.5,9.765e-14
287.0,2.771e-13
287.5,1.054e-12
288.0,3.214e-12
288.5,1.008e-11
289.0,2.747e-11
289.5,8.421e-11
290.0,2.357e-10
290.5,4.832e-10
291.0,1.042e-09
291.5,3.001e-09
292.0,6.161e-09
292.5,8.913e-09
293.0,1.983e-08
293.5,5.053e-08
294.0,8.146e-08
294.5,1.071e-07
295.0,1.862e-07
295.5,4.317e-07
296.0,7.804e-07
296.5,1.13e-06
297.0,1.579e-06
297.5,4.483e-06
298.0,7.477e-06
298.5,7.903e-06
299.0,1.838e-05
299.5,3.389e-05
300.0,3.983e-05
300.5,6.216e-05
301.0,0.0001289
301.5,0.0002383
302.0,0.0002229
302.5,0.0004471
303.0,0.0008323
303.5,0.001075
304.0,0.00103
304.5,0.001616
305.0,0.002628
305.5,0.003145
306.0,0.003097
306.5,0.003966
307.0,0.006256
307.5,0.008818
308.0,0.009405
308.5,0.01143
309.0,0.01145
309.5,0.01358
310.0,0.01387
310.5,0.02265
311.0,0.02881
311.5,0.02798
312.0,0.02879
312.5,0.03571
313.0,0.03912
313.5,0.03765
314.0,0.04815
314.5,0.04398
315.0,0.05811
315.5,0.04794
316.0,0.04288
316.5,0.06284
317.0,0.07801
317.5,0.08074
318.0,0.06387
318.5,0.08141
319.0,0.0979
319.5,0.07817
320.0,0.09418
320.5,0.121
321.0,0.1103
321.5,0.1061
322.0,0.1103
322.5,0.09609
323.0,0.09729
323.5,0.1213
324.0,0.142
324.5,0.1433
325.0,0.1229
325.5,0.1601
326.0,0.1964
326.5,0.1984
327.0,0.1972
327.5,0.1898
328.0,0.1672
328.5,0.1781
329.0,0.2155
329.5,0.2454
330.0,0.247
330.5,0.1962
331.0,0.1995
331.5,0.204
332.0,0.2223
332.5,0.2208
333.0,0.2197
333.5,0.1977
334.0,0.2024
334.5,0.2353
335.0,0.2221
335.5,0.2595
336.0,0.1796
336.5,0.2099
337.0,0.1718
337.5,0.2135
338.0,0.2098
338.5,0.2424
339.0,0.2401
339.5,0.231
340.0,0.2714
340.5,0.2448
341.0,0.2389
341.5,0.2196
342.0,0.2626
342.5,0.2458
343.0,0.2703
343.5,0.2546
344.0,0.1881
344.5,0.1901
345.0,0.2518
345.5,0.2573
346.0,0.2189
346.5,0.248
347.0,0.2662
347.5,0.2153
348.0,0.2457
348.5,0.2457
349.0,0.2281
349.5,0.2259
350.0,0.2796
350.5,0.295
351.0,0.2636
351.5,0.2561
352.0,0.2753
352.5,0.215
353.0,0.271
353.5,0.2899
354.0,0.3011
354.5,0.3055
355.0,0.3045
355.5,0.2753
356.0,0.2882
356.5,0.2461
357.0,0.2034
357.5,0.2491
358.0,0.1975
358.5,0.1688
359.0,0.2362
359.5,0.3011
360.0,0.3193
360.5,0.2553
361.0,0.2329
361.5,0.2683
362.0,0.2322
362.5,0.3216
363.0,0.2891
363.5,0.2664
364.0,0.326
364.5,0.2788
365.0,0.2841
365.5,0.3567
366.0,0.3781
366.5,0.3555
367.0,0.3464
367.5,0.3596
368.0,0.3148
368.5,0.3178
369.0,0.3434
369.5,0.3662
370.0,0.3906
370.5,0.3033
371.0,0.3242
371.5,0.4058
372.0,0.2694
372.5,0.3232
373.0,0.3289
373.5,0.2141
374.0,0.3113
374.5,0.2579
375.0,0.2508
375.5,0.3746
376.0,0.3106
376.5,0.322
377.0,0.3411
377.5,0.3993
378.0,0.4329
378.5,0.4093
379.0,0.3379
379.5,0.3087
380.0,0.3211
380.5,0.3891
381.0,0.3902
381.5,0.3095
382.0,0.275
382.5,0.2346
383.0,0.2173
383.5,0.2094
384.0,0.2311
384.5,0.3401
385.0,0.3374
385.5,0.3144
386.0,0.2694
386.5,0.3541
387.0,0.2943
387.5,0.3307
388.0,0.3055
388.5,0.3021
389.0,0.3262
389.5,0.3953
390.0,0.3969
390.5,0.3654
391.0,0.4303
391.5,0.4391
392.0,0.37
392.5,0.3314
393.0,0.1845
393.5,0.1342
394.0,0.2731
394.5,0.3474
395.0,0.4241
395.5,0.4309
396.0,0.3738
396.5,0.2186
397.0,0.1641
397.5,0.3339
398.0,0.4677
398.5,0.4836
399.0,0.5241
399.5,0.5225
400.0,0.5427
401.0,0.5493
402.0,0.58
403.0,0.5515
404.0,0.5434
405.0,0.5436
406.0,0.5353
407.0,0.5271
408.0,0.5479
409.0,0.5868
410.0,0.5132
411.0,0.5563
412.0,0.598
413.0,0.5834
414.0,0.591
415.0,0.593
416.0,0.6039
417.0,0.5894
418.0,0.5788
419.0,0.5868
420.0,0.5845
421.0,0.6119
422.0,0.5819
423.0,0.5687
424.0,0.6018
425.0,0.6011
426.0,0.586
427.0,0.5753
428.0,0.5607
429.0,0.5316
430.0,0.4655
431.0,0.4614
432.0,0.5962
433.0,0.5998
434.0,0.5572
435.0,0.582
436.0,0.6563
437.0,0.648
438.0,0.5904
439.0,0.6104
440.0,0.6302
441.0,0.6535
442.0,0.7011
443.0,0.6828
444.0,0.6981
445.0,0.6831
446.0,0.6525
447.0,0.7059
448.0,0.7168
449.0,0.7203
450.0,0.7408
451.0,0.7685
452.0,0.7407
453.0,0.697
454.0,0.7281
455.0,0.7327
456.0,0.7503
457.0,0.7629
458.0,0.7367
459.0,0.7332
460.0,0.7351
461.0,0.7522
462.0,0.7584
463.0,0.7532
464.0,0.7413
465.0,0.7325
466.0,0.74
467.0,0.7264
468.0,0.7351
469.0,0.739
470.0,0.7154
471.0,0.7147
472.0,0.753
473.0,0.7433
474.0,0.7441
475.0,0.7501
476.0,0.7273
477.0,0.729
478.0,0.7494
479.0,0.7452
480.0,0.7469
481.0,0.7613
482.0,0.7658
483.0,0.7571
484.0,0.7419
485.0,0.7071
486.0,0.6185
487.0,0.6485
488.0,0.7115
489.0,0.7136
490.0,0.751
491.0,0.7383
492.0,0.6973
493.0,0.7202
494.0,0.7275
495.0,0.7338
496.0,0.7383
497.0,0.7497
498.0,0.7147
499.0,0.7236
500.0,0.7023
501.0,0.6891
502.0,0.6789
503.0,0.7059
504.0,0.6862
505.0,0.7123
506.0,0.7352
507.0,0.6997
508.0,0.6785
509.0,0.698
510.0,0.6946
511.0,0.7137
512.0,0.7216
513.0,0.6831
514.0,0.6786
515.0,0.6718
516.0,0.6701
517.0,0.5956
518.0,0.6261
519.0,0.6567
520.0,0.6805
521.0,0.6869
522.0,0.6874
523.0,0.6749
524.0,0.6987
525.0,0.7065
526.0,0.6748
527.0,0.6355
528.0,0.6718
529.0,0.7079
530.0,0.6976
531.0,0.7077
532.0,0.6834
533.0,0.6634
534.0,0.6831
535.0,0.6982
536.0,0.7049
537.0,0.6772
538.0,0.6893
539.0,0.6835
540.0,0.6552
541.0,0.659
542.0,0.6794
543.0,0.6727
544.0,0.6839
545.0,0.6819
546.0,0.6845
547.0,0.6845
548.0,0.6765
549.0,0.6787
550.0,0.6868
551.0,0.6786
552.0,0.6833
553.0,0.671
554.0,0.687
555.0,0.6883
556.0,0.6792
557.0,0.658
558.0,0.6527
559.0,0.6402
560.0,0.6481
561.0,0.6562
562.0,0.6511
563.0,0.6685
564.0,0.65
565.0,0.6441
566.0,0.6344
567.0,0.646
568.0,0.6393
569.0,0.6223
570.0,0.6224
571.0,0.6191
572.0,0.6327
573.0,0.6393
574.0,0.637
575.0,0.6246
576.0,0.619
577.0,0.6259
578.0,0.617
579.0,0.6203
580.0,0.6335
581.0,0.6377
582.0,0.6507
583.0,0.653
584.0,0.6592
585.0,0.6434
586.0,0.6302
587.0,0.6434
588.0,0.6255
589.0,0.5497
590.0,0.5752
591.0,0.6114
592.0,0.6021
593.0,0.613
594.0,0.6079
595.0,0.5913
596.0,0.6183
597.0,0.6107
598.0,0.6102
599.0,0.6112
600.0,0.6131
601.0,0.6088
602.0,0.6047
603.0,0.6151
604.0,0.6255
605.0,0.6224
606.0,0.6203
607.0,0.6269
608.0,0.6203
609.0,0.6217
610.0,0.6177
611.0,0.6211
612.0,0.6196
613.0,0.612
614.0,0.604
615.0,0.6174
616.0,0.5974
617.0,0.5964
618.0,0.6195
619.0,0.6133
620.0,0.6172
621.0,0.6175
622.0,0.61
623.0,0.6004
624.0,0.5904
625.0,0.5891
626.0,0.5977
627.0,0.6036
628.0,0.5535
629.0,0.5858
630.0,0.5719
631.0,0.5883
632.0,0.5819
633.0,0.601
634.0,0.5963
635.0,0.6062
636.0,0.5988
637.0,0.6091
638.0,0.6157
639.0,0.6093
640.0,0.6038
641.0,0.6038
642.0,0.6015
643.0,0.6096
644.0,0.6081
645.0,0.6088
646.0,0.5934
647.0,0.5836
648.0,0.584
649.0,0.5724
650.0,0.5788
651.0,0.6046
652.0,0.5756
653.0,0.5967
654.0,0.5904
655.0,0.5665
656.0,0.5034
657.0,0.5172
658.0,0.5807
659.0,0.5854
660.0,0.5881
661.0,0.5923
662.0,0.5928
663.0,0.5813
664.0,0.5893
665.0,0.5905
666.0,0.5913
667.0,0.5912
668.0,0.5918
669.0,0.6013
670.0,0.5988
671.0,0.5989
672.0,0.5939
673.0,0.603
674.0,0.6009
675.0,0.5956
676.0,0.5999
677.0,0.5941
678.0,0.5959
679.0,0.5864
680.0,0.5912
681.0,0.5873
682.0,0.5866
683.0,0.5855
684.0,0.5826
685.0,0.5877
686.0,0.5841
687.0,0.3445
688.0,0.4235
689.0,0.4257
690.0,0.4534
691.0,0.4852
692.0,0.5093
693.0,0.5046
694.0,0.5009
695.0,0.527
696.0,0.5279
697.0,0.5667
698.0,0.5578
699.0,0.5401
700.0,0.5334
701.0,0.5264
702.0,0.5318
703.0,0.533
704.0,0.5527
705.0,0.5535
706.0,0.554
707.0,0.5548
708.0,0.5559
709.0,0.5584
710.0,0.5575
711.0,0.5574
712.0,0.5565
713.0,0.5501
714.0,0.5524
715.0,0.5332
716.0,0.5331
717.0,0.4465
718.0,0.4083
719.0,0.3726
720.0,0.3889
721.0,0.4386
722.0,0.5119
723.0,0.4714
724.0,0.4187
725.0,0.4099
726.0,0.4298
727.0,0.4398
728.0,0.4081
729.0,0.429
730.0,0.4532
731.0,0.4323
732.0,0.4683
733.0,0.5012
734.0,0.5148
735.0,0.5033
736.0,0.5025
737.0,0.5045
738.0,0.5163
739.0,0.5061
740.0,0.5205
741.0,0.5161
742.0,0.5173
743.0,0.5307
744.0,0.5297
745.0,0.5302
746.0,0.5326
747.0,0.5339
748.0,0.5328
749.0,0.5267
750.0,0.5265
751.0,0.5212
752.0,0.5235
753.0,0.5261
754.0,0.5273
755.0,0.5243
756.0,0.5242
757.0,0.5249
758.0,0.5183
759.0,0.5052
760.0,0.05002
761.0,0.02182
762.0,0.2137
763.0,0.08653
764.0,0.1469
765.0,0.2135
766.0,0.2819
767.0,0.3774
768.0,0.4539
769.0,0.4677
770.0,0.4885
771.0,0.4946
772.0,0.4963
773.0,0.5
774.0,0.4977
775.0,0.494
776.0,0.5001
777.0,0.4935
778.0,0.4905
779.0,0.4909
780.0,0.4882
781.0,0.4888
782.0,0.4919
783.0,0.4833
784.0,0.4858
785.0,0.482
786.0,0.4871
787.0,0.4767
788.0,0.4698
789.0,0.4695
790.0,0.4543
791.0,0.4609
792.0,0.4579
793.0,0.4502
794.0,0.4607
795.0,0.4677
796.0,0.4496
797.0,0.4499
798.0,0.4667
799.0,0.463
800.0,0.4541
801.0,0.4518
802.0,0.4505
803.0,0.4466
804.0,0.4477
805.0,0.4474
806.0,0.4618
807.0,0.4558
808.0,0.4564
809.0,0.4464
810.0,0.4418
811.0,0.4403
812.0,0.4252
813.0,0.4151
814.0,0.3574
815.0,0.3556
816.0,0.33
817.0,0.3368
818.0,0.3224
819.0,0.3671
820.0,0.3432
821.0,0.4108
822.0,0.3975
823.0,0.2556
824.0,0.3824
825.0,0.4036
826.0,0.3852
827.0,0.4097
828.0,0.3383
829.0,0.3835
830.0,0.3776
831.0,0.3791
832.0,0.3658
833.0,0.3936
834.0,0.3767
835.0,0.4204
836.0,0.3981
837.0,0.4218
838.0,0.4066
839.0,0.4159
840.0,0.4256
841.0,0.4186
842.0,0.421
843.0,0.4222
844.0,0.4155
845.0,0.4307
846.0,0.429
847.0,0.4215
848.0,0.4182
849.0,0.4063
850.0,0.3894
851.0,0.4115
852.0,0.409
853.0,0.3942
854.0,0.3399
855.0,0.3741
856.0,0.4086
857.0,0.4181
858.0,0.4148
859.0,0.4155
860.0,0.4164
861.0,0.4141
862.0,0.4207
863.0,0.4307
864.0,0.4092
865.0,0.4057
866.0,0.3648
867.0,0.3807
868.0,0.4143
869.0,0.4057
870.0,0.4173
871.0,0.4116
872.0,0.4102
873.0,0.4094
874.0,0.4045
875.0,0.3963
876.0,0.4004
877.0,0.4045
878.0,0.4087
879.0,0.4025
880.0,0.3939
881.0,0.3876
882.0,0.3958
883.0,0.3974
884.0,0.3955
885.0,0.3985
886.0,0.3785
887.0,0.3835
888.0,0.3886
889.0,0.3941
890.0,0.3895
891.0,0.3895
892.0,0.3765
893.0,0.3629
894.0,0.3464
895.0,0.3226
896.0,0.3024
897.0,0.2541
898.0,0.2802
899.0,0.2066
900.0,0.2906
901.0,0.2165
902.0,0.263
903.0,0.2626
904.0,0.3438
905.0,0.3301
906.0,0.3074
907.0,0.2407
908.0,0.2471
909.0,0.2715
910.0,0.2329
911.0,0.2532
912.0,0.2657
913.0,0.236
914.0,0.2354
915.0,0.255
916.0,0.2145
917.0,0.2795
918.0,0.2194
919.0,0.2869
920.0,0.2946
921.0,0.3065
922.0,0.2687
923.0,0.2965
924.0,0.2744
925.0,0.2686
926.0,0.2709
927.0,0.3086
928.0,0.2113
929.0,0.1889
930.0,0.1422
931.0,0.1352
932.0,0.09095
933.0,0.07092
934.0,0.03277
935.0,0.075
936.0,0.04282
937.0,0.0431
938.0,0.05449
939.0,0.1309
940.0,0.1622
941.0,0.1163
942.0,0.1381
943.0,0.08612
944.0,0.0953
945.0,0.1212
946.0,0.0554
947.0,0.12
948.0,0.08746
949.0,0.1668
950.0,0.03748
951.0,0.1653
952.0,0.0808
953.0,0.1097
954.0,0.1405
955.0,0.1116
956.0,0.1131
957.0,0.08033
958.0,0.1678
959.0,0.1261
960.0,0.1414
961.0,0.1644
962.0,0.155
963.0,0.1836
964.0,0.1667
965.0,0.1831
966.0,0.1822
967.0,0.1808
968.0,0.261
969.0,0.2704
970.0,0.2463
971.0,0.2901
972.0,0.2758
973.0,0.2319
974.0,0.2192
975.0,0.2305
976.0,0.2143
977.0,0.2531
978.0,0.2366
979.0,0.2502
980.0,0.2339
981.0,0.2887
982.0,0.273
983.0,0.2604
984.0,0.3011
985.0,0.2719
986.0,0.3086
987.0,0.2999
988.0,0.2995
989.0,0.3091
990.0,0.2976
991.0,0.3097
992.0,0.3118
993.0,0.3023
994.0,0.312
995.0,0.3119
996.0,0.3102
997.0,0.3108
998.0,0.3092
999.0,0.3082
1000.0,0.3054
1001.0,0.3099
1002.0,0.2989
1003.0,0.3043
1004.0,0.2962
1005.0,0.2862
1006.0,0.297
1007.0,0.3035
1008.0,0.3014
1009.0,0.2993
1010.0,0.2978
1011.0,0.302
1012.0,0.2989
1013.0,0.3014
1014.0,0.2993
1015.0,0.2972
1016.0,0.2959
1017.0,0.2965
1018.0,0.2957
1019.0,0.2885
1020.0,0.294
1021.0,0.2938
1022.0,0.2911
1023.0,0.2942
1024.0,0.2894
1025.0,0.2943
1026.0,0.2928
1027.0,0.2922
1028.0,0.2915
1029.0,0.2879
1030.0,0.2902
1031.0,0.2889
1032.0,0.2882
1033.0,0.2839
1034.0,0.2839
1035.0,0.2848
1036.0,0.2861
1037.0,0.2815
1038.0,0.2827
1039.0,0.2825
1040.0,0.2814
1041.0,0.2824
1042.0,0.2804
1043.0,0.2795
1044.0,0.2804
1045.0,0.2765
1046.0,0.2734
1047.0,0.2758
1048.0,0.2772
1049.0,0.2762
1050.0,0.2748
1051.0,0.2743
1052.0,0.2731
1053.0,0.2708
1054.0,0.2713
1055.0,0.2713
1056.0,0.2702
1057.0,0.2692
1058.0,0.2625
1059.0,0.2626
1060.0,0.2621
1061.0,0.2617
1062.0,0.2629
1063.0,0.2602
1064.0,0.2634
1065.0,0.2611
1066.0,0.2562
1067.0,0.2594
1068.0,0.2535
1069.0,0.2459
1070.0,0.254
1071.0,0.2588
1072.0,0.2551
1073.0,0.2516
1074.0,0.2591
1075.0,0.2435
1076.0,0.2587
1077.0,0.2526
1078.0,0.2472
1079.0,0.255
1080.0,0.2488
1081.0,0.2395
1082.0,0.2456
1083.0,0.2469
1084.0,0.2384
1085.0,0.2496
1086.0,0.2242
1087.0,0.2339
1088.0,0.2462
1089.0,0.2362
1090.0,0.2296
1091.0,0.2447
1092.0,0.2446
1093.0,0.2007
1094.0,0.223
1095.0,0.2097
1096.0,0.1988
1097.0,0.239
1098.0,0.1948
1099.0,0.2043
1100.0,0.1872
1101.0,0.1904
1102.0,0.18
1103.0,0.177
1104.0,0.1773
1105.0,0.199
1106.0,0.1413
1107.0,0.1869
1108.0,0.152
1109.0,0.1535
1110.0,0.1842
1111.0,0.1164
1112.0,0.1528
1113.0,0.08875
1114.0,0.09979
1115.0,0.08223
1116.0,0.06092
1117.0,0.01785
1118.0,0.06765
1119.0,0.02962
1120.0,0.03683
1121.0,0.0511
1122.0,0.01829
1123.0,0.03346
1124.0,0.02819
1125.0,0.03775
1126.0,0.01009
1127.0,0.04288
1128.0,0.02219
1129.0,0.02394
1130.0,0.01481
1131.0,0.09039
1132.0,0.06915
1133.0,0.03893
1134.0,0.007662
1135.0,0.00302
1136.0,0.0308
1137.0,0.08695
1138.0,0.06038
1139.0,0.1003
1140.0,0.07989
1141.0,0.05749
1142.0,0.06808
1143.0,0.1011
1144.0,0.03066
1145.0,0.03759
1146.0,0.04048
1147.0,0.01118
1148.0,0.08707
1149.0,0.06658
1150.0,0.03372
1151.0,0.05989
1152.0,0.07724
1153.0,0.07804
1154.0,0.03634
1155.0,0.1045
1156.0,0.09204
1157.0,0.1071
1158.0,0.1058
1159.0,0.1166
1160.0,0.09728
1161.0,0.1256
1162.0,0.1257
1163.0,0.1798
1164.0,0.1506
1165.0,0.1385
1166.0,0.1403
1167.0,0.1546
1168.0,0.1555
1169.0,0.1602
1170.0,0.1772
1171.0,0.1725
1172.0,0.1776
1173.0,0.1768
1174.0,0.1192
1175.0,0.1743
1176.0,0.1956
1177.0,0.1851
1178.0,0.1337
1179.0,0.1973
1180.0,0.1718
1181.0,0.1775
1182.0,0.1166
1183.0,0.1757
1184.0,0.1627
1185.0,0.1552
1186.0,0.19
1187.0,0.1791
1188.0,0.1177
1189.0,0.1665
1190.0,0.1859
1191.0,0.173
1192.0,0.1889
1193.0,0.1798
1194.0,0.1861
1195.0,0.1736
1196.0,0.1658
1197.0,0.1874
1198.0,0.17
1199.0,0.1395
1200.0,0.1774
1201.0,0.1693
1202.0,0.1697
1203.0,0.1676
1204.0,0.1442
1205.0,0.1751
1206.0,0.196
1207.0,0.1686
1208.0,0.1675
1209.0,0.1713
1210.0,0.1796
1211.0,0.1691
1212.0,0.1645
1213.0,0.1883
1214.0,0.1695
1215.0,0.1659
1216.0,0.1879
1217.0,0.182
1218.0,0.1863
1219.0,0.1835
1220.0,0.1866
1221.0,0.189
1222.0,0.1837
1223.0,0.1815
1224.0,0.1795
1225.0,0.1877
1226.0,0.1897
1227.0,0.1724
1228.0,0.1912
1229.0,0.1897
1230.0,0.186
1231.0,0.1929
1232.0,0.1917
1233.0,0.1829
1234.0,0.1933
1235.0,0.1917
1236.0,0.1934
1237.0,0.1897
1238.0,0.1927
1239.0,0.1902
1240.0,0.1911
1241.0,0.1896
1242.0,0.1897
1243.0,0.1882
1244.0,0.1893
1245.0,0.1903
1246.0,0.1892
1247.0,0.1883
1248.0,0.1879
1249.0,0.1887
1250.0,0.1874
1251.0,0.1847
1252.0,0.1851
1253.0,0.1829
1254.0,0.1804
1255.0,0.1847
1256.0,0.1781
1257.0,0.1768
1258.0,0.1813
1259.0,0.1725
1260.0,0.1737
1261.0,0.1612
1262.0,0.1549
1263.0,0.1551
1264.0,0.1399
1265.0,0.1542
1266.0,0.1464
1267.0,0.1503
1268.0,0.1404
1269.0,0.07427
1270.0,0.1493
1271.0,0.161
1272.0,0.1618
1273.0,0.1598
1274.0,0.1607
1275.0,0.1636
1276.0,0.1657
1277.0,0.1675
1278.0,0.1718
1279.0,0.1701
1280.0,0.1681
1281.0,0.1609
1282.0,0.1559
1283.0,0.1677
1284.0,0.1715
1285.0,0.1728
1286.0,0.1756
1287.0,0.172
1288.0,0.1723
1289.0,0.1651
1290.0,0.1708
1291.0,0.1735
1292.0,0.1599
1293.0,0.1694
1294.0,0.1681
1295.0,0.1663
1296.0,0.1568
1297.0,0.1469
1298.0,0.1612
1299.0,0.1699
1300.0,0.1387
1301.0,0.1439
1302.0,0.1607
1303.0,0.1374
1304.0,0.1125
1305.0,0.1572
1306.0,0.1567
1307.0,0.1167
1308.0,0.1385
1309.0,0.1549
1310.0,0.1141
1311.0,0.1317
1312.0,0.1273
1313.0,0.1239
1314.0,0.1092
1315.0,0.1067
1316.0,0.1287
1317.0,0.1213
1318.0,0.1338
1319.0,0.0989
1320.0,0.09704
1321.0,0.115
1322.0,0.1151
1323.0,0.082
1324.0,0.09721
1325.0,0.1264
1326.0,0.1055
1327.0,0.09986
1328.0,0.08454
1329.0,0.05946
1330.0,0.07946
1331.0,0.04347
1332.0,0.0463
1333.0,0.06535
1334.0,0.05802
1335.0,0.08144
1336.0,0.0619
1337.0,0.05378
1338.0,0.05803
1339.0,0.05842
1340.0,0.05813
1341.0,0.0537
1342.0,0.05674
1343.0,0.0331
1344.0,0.02029
1345.0,0.02916
1346.0,0.01158
1347.0,0.01128
1348.0,0.0004484
1349.0,0.001829
1350.0,0.00208
1351.0,0.0003221
1352.0,5.015e-05
1353.0,1.586e-06
1354.0,7.779e-06
1355.0,2.146e-08
1356.0,7.581e-07
1357.0,1.159e-06
1358.0,2.653e-08
1359.0,1.494e-09
1360.0,9.061e-09
1361.0,2.349e-12
1362.0,4.357e-15
1363.0,8.804e-09
1364.0,3.793e-09
1365.0,1.043e-15
1366.0,4.725e-08
1367.0,2.423e-08
1368.0,6.341e-18
1369.0,1.39e-09
1370.0,4.927e-10
1371.0,2.006e-11
1372.0,1.361e-08
1373.0,4.642e-07
1374.0,3.158e-06
1375.0,5.344e-06
1376.0,7.173e-06
1377.0,3.052e-06
1378.0,3.328e-05
1379.0,1.29e-06
1380.0,1.42e-06
1381.0,3.133e-08
1382.0,1.105e-08
1383.0,1.319e-10
1384.0,1.351e-09
1385.0,1.594e-08
1386.0,7.62e-09
1387.0,2.438e-06
1388.0,5.463e-08
1389.0,1.325e-05
1390.0,1.104e-05
1391.0,7.016e-06
1392.0,4.275e-07
1393.0,2.745e-06
1394.0,7.196e-07
1395.0,3.751e-09
1396.0,3.929e-12
1397.0,9.436e-07
1398.0,3.521e-05
1399.0,2.294e-05
1400.0,1.201e-12
1401.0,8.03e-12
1402.0,0.0001161
1403.0,0.0001293
1404.0,3.719e-05
1405.0,1.354e-09
1406.0,7.869e-05
1407.0,8.713e-06
1408.0,6.709e-05
1409.0,1.629e-05
1410.0,1.71e-05
1411.0,0.0001166
1412.0,0.0001839
1413.0,0.002851
1414.0,1.417e-05
1415.0,5.908e-06
1416.0,0.006327
1417.0,0.001462
1418.0,0.001513
1419.0,0.0002205
1420.0,0.0009154
1421.0,0.001048
1422.0,0.008312
1423.0,0.001512
1424.0,0.002992
1425.0,0.004093
1426.0,0.005309
1427.0,0.01117
1428.0,0.0004002
1429.0,0.007561
1430.0,0.01501
1431.0,0.01703
1432.0,0.000309
1433.0,0.01013
1434.0,0.004817
