interpolation:linear
wavelength,value
280.0,3.3710000000000004e-20
280.5,9.607e-19
281.0,4.915e-18
281.5,4.321e-19
282.0,1.83e-18
282.5,5.149e-18
283.0,1.711e-17
283.5,2.822e-17
284.0,4.462e-16
284.5,1.261e-15
285.0,2.188e-15
285.5,1.306e-14
286.0,5.516e-14
286.5,2.623e-13
287.0,7.722e-13
287.5,3.03e-12
288.0,9.188e-12
288.5,3.591e-11
289.0,1.196e-10
289.5,4.451e-10
290.0,1.445e-09
290.5,3.344e-09
291.0,8.278e-09
291.5,2.818e-08
292.0,7.758e-08
292.5,1.226e-07
293.0,3.061e-07
293.5,9.218e-07
294.0,1.694e-06
294.5,2.229e-06
295.0,4.395e-06
295.5,1.086e-05
296.0,2.084e-05
296.5,2.897e-05
297.0,3.899e-05
297.5,0.0001036
298.0,0.0001618
298.5,0.0001616
299.0,0.0003537
299.5,0.0005787
300.0,0.0006318
300.5,0.0009078
301.0,0.001621
301.5,0.002553
302.0,0.002173
302.5,0.004119
303.0,0.007107
303.5,0.008719
304.0,0.008042
304.5,0.01143
305.0,0.0162
305.5,0.01778
306.0,0.01693
306.5,0.02051
307.0,0.02868
307.5,0.03604
308.0,0.03772
308.5,0.04334
309.0,0.04188
309.5,0.04613
310.0,0.04552
310.5,0.07307
311.0,0.09036
311.5,0.08666
312.0,0.08387
312.5,0.09986
313.0,0.1071
313.5,0.1051
314.0,0.128
314.5,0.1096
315.0,0.1431
315.5,0.1217
316.0,0.1033
316.5,0.1448
317.0,0.1798
317.5,0.1884
318.0,0.1445
318.5,0.1737
319.0,0.2028
319.5,0.1697
320.0,0.2058
320.5,0.2492
321.0,0.2154
321.5,0.2059
322.0,0.2266
322.5,0.1968
323.0,0.1919
323.5,0.2312
324.0,0.269
324.5,0.2754
325.0,0.2405
325.5,0.3042
326.0,0.3699
326.5,0.3663
327.0,0.3666
327.5,0.3559
328.0,0.3216
328.5,0.332
329.0,0.3918
329.5,0.4428
330.0,0.4482
330.5,0.3626
331.0,0.3708
331.5,0.3738
332.0,0.399
332.5,0.3926
333.0,0.3926
333.5,0.3585
334.0,0.3677
334.5,0.4201
335.0,0.3925
335.5,0.4583
336.0,0.3171
336.5,0.3724
337.0,0.3067
337.5,0.3821
338.0,0.37
338.5,0.4269
339.0,0.4224
339.5,0.4063
340.0,0.4776
340.5,0.4301
341.0,0.4196
341.5,0.3851
342.0,0.4602
342.5,0.4304
343.0,0.4734
343.5,0.4459
344.0,0.3294
344.5,0.3328
345.0,0.4402
345.5,0.4493
346.0,0.3818
346.5,0.4322
347.0,0.4641
347.5,0.3752
348.0,0.4276
348.5,0.4274
349.0,0.3964
349.5,0.3924
350.0,0.4853
350.5,0.5119
351.0,0.4574
351.5,0.4446
352.0,0.4774
352.5,0.3725
353.0,0.4691
353.5,0.5015
354.0,0.5206
354.5,0.528
355.0,0.5262
355.5,0.4753
356.0,0.4973
356.5,0.4246
357.0,0.3509
357.5,0.4295
358.0,0.3404
358.5,0.2909
359.0,0.4069
359.5,0.5186
360.0,0.5497
360.5,0.4393
361.0,0.4005
361.5,0.461
362.0,0.3986
362.5,0.5516
363.0,0.4954
363.5,0.4562
364.0,0.5579
364.5,0.4769
365.0,0.4857
365.5,0.6096
366.0,0.6458
366.5,0.6067
367.0,0.5909
367.5,0.6132
368.0,0.5366
368.5,0.5414
369.0,0.5847
369.5,0.6232
370.0,0.6644
370.5,0.5156
371.0,0.5509
371.5,0.6893
372.0,0.4575
372.5,0.5485
373.0,0.558
373.5,0.363
374.0,0.5275
374.5,0.4369
375.0,0.4247
375.5,0.634
376.0,0.5256
376.5,0.5447
377.0,0.5767
377.5,0.6747
378.0,0.7314
378.5,0.6914
379.0,0.5706
379.5,0.5212
380.0,0.5419
380.5,0.6564
381.0,0.6577
381.5,0.5214
382.0,0.463
382.5,0.3947
383.0,0.3654
383.5,0.3519
384.0,0.3882
384.5,0.571
385.0,0.5663
385.5,0.5273
386.0,0.4517
386.5,0.5933
387.0,0.493
387.5,0.5538
388.0,0.5113
388.5,0.5054
389.0,0.5456
389.5,0.6608
390.0,0.6632
390.5,0.6103
391.0,0.7184
391.5,0.7328
392.0,0.6172
392.5,0.5526
393.0,0.3075
393.5,0.2235
394.0,0.4548
394.5,0.5783
395.0,0.7056
395.5,0.7169
396.0,0.6215
396.5,0.3633
397.0,0.2727
397.5,0.5545
398.0,0.7766
398.5,0.8027
399.0,0.8692
399.5,0.8663
400.0,0.8997
401.0,0.914
402.0,0.9642
403.0,0.9159
404.0,0.9018
405.0,0.9017
406.0,0.887
407.0,0.8726
408.0,0.9067
409.0,0.9705
410.0,0.8479
411.0,0.9184
412.0,0.9863
413.0,0.9619
414.0,0.9736
415.0,0.976
416.0,0.993
417.0,0.9686
418.0,0.9507
419.0,0.9631
420.0,0.9589
421.0,1.003
422.0,0.9534
423.0,0.9312
424.0,0.985
425.0,0.9831
426.0,0.9574
427.0,0.9395
428.0,0.9152
429.0,0.8667
430.0,0.7584
431.0,0.7518
432.0,0.9705
433.0,0.9758
434.0,0.9061
435.0,0.9463
436.0,1.066
437.0,1.051
438.0,0.9574
439.0,0.9905
440.0,1.022
441.0,1.059
442.0,1.135
443.0,1.106
444.0,1.13
445.0,1.106
446.0,1.055
447.0,1.14
448.0,1.158
449.0,1.162
450.0,1.194
451.0,1.239
452.0,1.193
453.0,1.122
454.0,1.171
455.0,1.179
456.0,1.206
457.0,1.226
458.0,1.185
459.0,1.179
460.0,1.182
461.0,1.209
462.0,1.218
463.0,1.21
464.0,1.189
465.0,1.174
466.0,1.185
467.0,1.164
468.0,1.177
469.0,1.183
470.0,1.146
471.0,1.144
472.0,1.206
473.0,1.19
474.0,1.192
475.0,1.203
476.0,1.167
477.0,1.171
478.0,1.203
479.0,1.195
480.0,1.197
481.0,1.219
482.0,1.225
483.0,1.21
484.0,1.185
485.0,1.129
486.0,0.9865
487.0,1.034
488.0,1.134
489.0,1.138
490.0,1.197
491.0,1.176
492.0,1.11
493.0,1.147
494.0,1.158
495.0,1.168
496.0,1.175
497.0,1.193
498.0,1.138
499.0,1.152
500.0,1.119
501.0,1.099
502.0,1.084
503.0,1.128
504.0,1.101
505.0,1.139
506.0,1.176
507.0,1.119
508.0,1.084
509.0,1.114
510.0,1.108
511.0,1.137
512.0,1.149
513.0,1.088
514.0,1.08
515.0,1.069
516.0,1.067
517.0,0.9477
518.0,0.9964
519.0,1.045
520.0,1.083
521.0,1.094
522.0,1.095
523.0,1.075
524.0,1.114
525.0,1.127
526.0,1.077
527.0,1.015
528.0,1.074
529.0,1.132
530.0,1.116
531.0,1.133
532.0,1.094
533.0,1.062
534.0,1.093
535.0,1.117
536.0,1.127
537.0,1.082
538.0,1.101
539.0,1.092
540.0,1.047
541.0,1.054
542.0,1.088
543.0,1.076
544.0,1.095
545.0,1.091
546.0,1.097
547.0,1.096
548.0,1.082
549.0,1.086
550.0,1.099
551.0,1.085
552.0,1.093
553.0,1.073
554.0,1.099
555.0,1.101
556.0,1.087
557.0,1.053
558.0,1.046
559.0,1.026
560.0,1.039
561.0,1.053
562.0,1.046
563.0,1.075
564.0,1.045
565.0,1.037
566.0,1.022
567.0,1.041
568.0,1.033
569.0,1.01
570.0,1.009
571.0,1.003
572.0,1.028
573.0,1.039
574.0,1.036
575.0,1.017
576.0,1.008
577.0,1.019
578.0,1.003
579.0,1.006
580.0,1.024
581.0,1.029
582.0,1.047
583.0,1.049
584.0,1.058
585.0,1.032
586.0,1.011
587.0,1.033
588.0,1.01
589.0,0.8987
590.0,0.9395
591.0,0.992
592.0,0.9807
593.0,0.9936
594.0,0.9874
595.0,0.9643
596.0,0.9993
597.0,0.9892
598.0,0.9858
599.0,0.9863
600.0,0.9869
601.0,0.9783
602.0,0.9716
603.0,0.9874
604.0,1.004
605.0,0.9982
606.0,0.9938
607.0,1.003
608.0,0.9919
609.0,0.9934
610.0,0.986
611.0,0.9909
612.0,0.9879
613.0,0.9753
614.0,0.9617
615.0,0.9824
616.0,0.9498
617.0,0.9477
618.0,0.9841
619.0,0.974
620.0,0.9802
621.0,0.9814
622.0,0.9702
623.0,0.9556
624.0,0.939
625.0,0.9369
626.0,0.9508
627.0,0.9621
628.0,0.9064
629.0,0.9421
630.0,0.9206
631.0,0.9387
632.0,0.927
633.0,0.9541
634.0,0.944
635.0,0.9582
636.0,0.9451
637.0,0.9602
638.0,0.9688
639.0,0.9576
640.0,0.948
641.0,0.9471
642.0,0.9425
643.0,0.9552
644.0,0.9518
645.0,0.9535
646.0,0.9322
647.0,0.9233
648.0,0.9243
649.0,0.9066
650.0,0.9082
651.0,0.947
652.0,0.9107
653.0,0.9344
654.0,0.9237
655.0,0.8908
656.0,0.7884
657.0,0.8096
658.0,0.9064
659.0,0.9125
660.0,0.9162
661.0,0.9225
662.0,0.9249
663.0,0.9064
664.0,0.9164
665.0,0.9166
666.0,0.917
667.0,0.9158
668.0,0.9159
669.0,0.9299
670.0,0.9258
671.0,0.9254
672.0,0.9174
673.0,0.9311
674.0,0.9275
675.0,0.919
676.0,0.9251
677.0,0.9159
678.0,0.9184
679.0,0.9034
680.0,0.9106
681.0,0.9046
682.0,0.9034
683.0,0.9016
684.0,0.8972
685.0,0.9047
686.0,0.8995
687.0,0.6316
688.0,0.7236
689.0,0.7257
690.0,0.7557
691.0,0.7891
692.0,0.813
693.0,0.8068
694.0,0.8001
695.0,0.8291
696.0,0.8302
697.0,0.8758
698.0,0.8623
699.0,0.8451
700.0,0.835
701.0,0.8276
702.0,0.832
703.0,0.8335
704.0,0.8581
705.0,0.8594
706.0,0.8579
707.0,0.8582
708.0,0.8601
709.0,0.8601
710.0,0.8607
711.0,0.8591
712.0,0.8559
713.0,0.8478
714.0,0.8509
715.0,0.8253
716.0,0.8262
717.0,0.7291
718.0,0.6718
719.0,0.6167
720.0,0.6469
721.0,0.7063
722.0,0.7997
723.0,0.7488
724.0,0.6797
725.0,0.6705
726.0,0.701
727.0,0.7081
728.0,0.6694
729.0,0.6899
730.0,0.73
731.0,0.6999
732.0,0.7438
733.0,0.7828
734.0,0.8001
735.0,0.7842
736.0,0.7832
737.0,0.7864
738.0,0.7955
739.0,0.7799
740.0,0.7993
741.0,0.7908
742.0,0.791
743.0,0.8109
744.0,0.8083
745.0,0.8082
746.0,0.8119
747.0,0.8136
748.0,0.8119
749.0,0.8026
750.0,0.802
751.0,0.7939
752.0,0.7973
753.0,0.8013
754.0,0.8031
755.0,0.7986
756.0,0.7982
757.0,0.7993
758.0,0.7895
759.0,0.7752
760.0,0.1627
761.0,0.09263
762.0,0.4311
763.0,0.2356
764.0,0.3362
765.0,0.4312
766.0,0.5131
767.0,0.6313
768.0,0.7159
769.0,0.7281
770.0,0.7497
771.0,0.7544
772.0,0.7555
773.0,0.7607
774.0,0.7569
775.0,0.7511
776.0,0.7602
777.0,0.7502
778.0,0.7456
779.0,0.7462
780.0,0.742
781.0,0.7428
782.0,0.7474
783.0,0.7343
784.0,0.7378
785.0,0.7325
786.0,0.7406
787.0,0.729
788.0,0.7206
789.0,0.7205
790.0,0.7032
791.0,0.7074
792.0,0.702
793.0,0.6909
794.0,0.7007
795.0,0.713
796.0,0.6937
797.0,0.6947
798.0,0.7124
799.0,0.7084
800.0,0.6967
801.0,0.6951
802.0,0.6931
803.0,0.6881
804.0,0.6888
805.0,0.6859
806.0,0.7039
807.0,0.6957
808.0,0.6962
809.0,0.684
810.0,0.6791
811.0,0.6813
812.0,0.6636
813.0,0.6509
814.0,0.5787
815.0,0.575
816.0,0.536
817.0,0.5451
818.0,0.5261
819.0,0.5828
820.0,0.5509
821.0,0.6367
822.0,0.6197
823.0,0.433
824.0,0.6042
825.0,0.626
826.0,0.6044
827.0,0.6355
828.0,0.5454
829.0,0.6003
830.0,0.5931
831.0,0.595
832.0,0.5779
833.0,0.6115
834.0,0.592
835.0,0.6458
836.0,0.621
837.0,0.6474
838.0,0.6285
839.0,0.6373
840.0,0.651
841.0,0.6423
842.0,0.6428
843.0,0.6416
844.0,0.6331
845.0,0.6539
846.0,0.6509
847.0,0.6385
848.0,0.6349
849.0,0.6169
850.0,0.591
851.0,0.6261
852.0,0.6215
853.0,0.5979
854.0,0.5165
855.0,0.5671
856.0,0.6199
857.0,0.6335
858.0,0.6289
859.0,0.6293
860.0,0.6303
861.0,0.6269
862.0,0.6367
863.0,0.6517
864.0,0.6191
865.0,0.6137
866.0,0.5518
867.0,0.5758
868.0,0.6266
869.0,0.6136
870.0,0.6311
871.0,0.6225
872.0,0.6203
873.0,0.619
874.0,0.6116
875.0,0.5993
876.0,0.6055
877.0,0.6116
878.0,0.6183
879.0,0.6088
880.0,0.5957
881.0,0.587
882.0,0.5997
883.0,0.6015
884.0,0.5988
885.0,0.6033
886.0,0.5756
887.0,0.5812
888.0,0.5901
889.0,0.5963
890.0,0.5919
891.0,0.5906
892.0,0.5743
893.0,0.5573
894.0,0.5396
895.0,0.5123
896.0,0.4836
897.0,0.4186
898.0,0.455
899.0,0.35
900.0,0.4639
901.0,0.3667
902.0,0.4251
903.0,0.431
904.0,0.5355
905.0,0.5181
906.0,0.4857
907.0,0.3994
908.0,0.4067
909.0,0.4383
910.0,0.3916
911.0,0.4149
912.0,0.4329
913.0,0.3976
914.0,0.3935
915.0,0.4263
916.0,0.362
917.0,0.455
918.0,0.3713
919.0,0.4622
920.0,0.4648
921.0,0.483
922.0,0.4347
923.0,0.4664
924.0,0.4457
925.0,0.4361
926.0,0.4409
927.0,0.4908
928.0,0.3678
929.0,0.3378
930.0,0.2686
931.0,0.254
932.0,0.1861
933.0,0.1529
934.0,0.08737
935.0,0.1551
936.0,0.09903
937.0,0.1006
938.0,0.1229
939.0,0.2461
940.0,0.2939
941.0,0.2247
942.0,0.2584
943.0,0.1722
944.0,0.1793
945.0,0.2312
946.0,0.1207
947.0,0.233
948.0,0.1716
949.0,0.3089
950.0,0.09047
951.0,0.3037
952.0,0.1671
953.0,0.2132
954.0,0.2585
955.0,0.2153
956.0,0.2075
957.0,0.1677
958.0,0.2901
959.0,0.2335
960.0,0.2617
961.0,0.2914
962.0,0.2759
963.0,0.3161
964.0,0.2902
965.0,0.3147
966.0,0.3152
967.0,0.3141
968.0,0.4139
969.0,0.4329
970.0,0.3985
971.0,0.453
972.0,0.434
973.0,0.381
974.0,0.3621
975.0,0.3746
976.0,0.3574
977.0,0.4034
978.0,0.3846
979.0,0.4018
980.0,0.3784
981.0,0.4503
982.0,0.4317
983.0,0.4151
984.0,0.4627
985.0,0.43
986.0,0.47
987.0,0.4617
988.0,0.4608
989.0,0.4681
990.0,0.458
991.0,0.4696
992.0,0.4722
993.0,0.4625
994.0,0.472
995.0,0.4713
996.0,0.4693
997.0,0.47
998.0,0.4679
999.0,0.466
1000.0,0.4629
1001.0,0.4685
1002.0,0.4564
1003.0,0.4603
1004.0,0.4492
1005.0,0.4325
1006.0,0.4495
1007.0,0.459
1008.0,0.4566
1009.0,0.4543
1010.0,0.4525
1011.0,0.4566
1012.0,0.4528
1013.0,0.4555
1014.0,0.4523
1015.0,0.4493
1016.0,0.4473
1017.0,0.4485
1018.0,0.4467
1019.0,0.4375
1020.0,0.4444
1021.0,0.4437
1022.0,0.4404
1023.0,0.4451
1024.0,0.4396
1025.0,0.4447
1026.0,0.4428
1027.0,0.4418
1028.0,0.4409
1029.0,0.4357
1030.0,0.4386
1031.0,0.4369
1032.0,0.4356
1033.0,0.429
1034.0,0.429
1035.0,0.4304
1036.0,0.4326
1037.0,0.4256
1038.0,0.4275
1039.0,0.4273
1040.0,0.4255
1041.0,0.4273
1042.0,0.4243
1043.0,0.423
1044.0,0.4245
1045.0,0.4187
1046.0,0.4141
1047.0,0.4179
1048.0,0.4202
1049.0,0.4187
1050.0,0.4168
1051.0,0.4162
1052.0,0.4146
1053.0,0.4113
1054.0,0.4122
1055.0,0.4125
1056.0,0.4111
1057.0,0.4099
1058.0,0.3998
1059.0,0.4003
1060.0,0.3997
1061.0,0.3993
1062.0,0.4014
1063.0,0.3975
1064.0,0.4022
1065.0,0.3994
1066.0,0.3914
1067.0,0.3965
1068.0,0.3879
1069.0,0.3759
1070.0,0.3887
1071.0,0.3945
1072.0,0.3901
1073.0,0.3845
1074.0,0.3941
1075.0,0.3752
1076.0,0.3938
1077.0,0.3873
1078.0,0.3801
1079.0,0.3874
1080.0,0.3813
1081.0,0.3695
1082.0,0.3747
1083.0,0.3757
1084.0,0.3687
1085.0,0.3821
1086.0,0.3499
1087.0,0.3603
1088.0,0.3754
1089.0,0.3647
1090.0,0.3572
1091.0,0.3744
1092.0,0.3733
1093.0,0.3189
1094.0,0.3418
1095.0,0.3319
1096.0,0.3185
1097.0,0.3646
1098.0,0.3138
1099.0,0.3269
1100.0,0.305
1101.0,0.3085
1102.0,0.2952
1103.0,0.2928
1104.0,0.2932
1105.0,0.3197
1106.0,0.2486
1107.0,0.3044
1108.0,0.2604
1109.0,0.2604
1110.0,0.302
1111.0,0.2081
1112.0,0.2582
1113.0,0.1677
1114.0,0.1871
1115.0,0.1552
1116.0,0.1259
1117.0,0.04846
1118.0,0.1363
1119.0,0.06937
1120.0,0.08741
1121.0,0.1149
1122.0,0.04987
1123.0,0.07893
1124.0,0.06664
1125.0,0.08652
1126.0,0.0316
1127.0,0.09746
1128.0,0.05991
1129.0,0.06333
1130.0,0.04233
1131.0,0.181
1132.0,0.1427
1133.0,0.09249
1134.0,0.02485
1135.0,0.009247
1136.0,0.07788
1137.0,0.1785
1138.0,0.1261
1139.0,0.1842
1140.0,0.1554
1141.0,0.1199
1142.0,0.1371
1143.0,0.193
1144.0,0.06937
1145.0,0.08915
1146.0,0.09617
1147.0,0.03537
1148.0,0.1671
1149.0,0.1346
1150.0,0.07447
1151.0,0.1252
1152.0,0.1527
1153.0,0.1477
1154.0,0.08668
1155.0,0.1922
1156.0,0.1739
1157.0,0.1939
1158.0,0.1918
1159.0,0.2058
1160.0,0.1771
1161.0,0.2158
1162.0,0.217
1163.0,0.2888
1164.0,0.2493
1165.0,0.2367
1166.0,0.234
1167.0,0.254
1168.0,0.2572
1169.0,0.2627
1170.0,0.2842
1171.0,0.2773
1172.0,0.2815
1173.0,0.2836
1174.0,0.2063
1175.0,0.2764
1176.0,0.3019
1177.0,0.2911
1178.0,0.2215
1179.0,0.3042
1180.0,0.2737
1181.0,0.2823
1182.0,0.198
1183.0,0.2775
1184.0,0.2611
1185.0,0.2529
1186.0,0.2966
1187.0,0.2835
1188.0,0.2017
1189.0,0.2644
1190.0,0.2898
1191.0,0.277
1192.0,0.2937
1193.0,0.2821
1194.0,0.2903
1195.0,0.2758
1196.0,0.2665
1197.0,0.2898
1198.0,0.2661
1199.0,0.2292
1200.0,0.2786
1201.0,0.2697
1202.0,0.2675
1203.0,0.2654
1204.0,0.2337
1205.0,0.2729
1206.0,0.2998
1207.0,0.2672
1208.0,0.2621
1209.0,0.2672
1210.0,0.2777
1211.0,0.2656
1212.0,0.2638
1213.0,0.2906
1214.0,0.2695
1215.0,0.2646
1216.0,0.2896
1217.0,0.2826
1218.0,0.2873
1219.0,0.2841
1220.0,0.2875
1221.0,0.2901
1222.0,0.2829
1223.0,0.2805
1224.0,0.2792
1225.0,0.2883
1226.0,0.2898
1227.0,0.2689
1228.0,0.291
1229.0,0.2899
1230.0,0.2852
1231.0,0.2923
1232.0,0.2906
1233.0,0.2819
1234.0,0.2918
1235.0,0.2902
1236.0,0.2921
1237.0,0.2886
1238.0,0.2911
1239.0,0.2874
1240.0,0.2884
1241.0,0.2874
1242.0,0.2865
1243.0,0.2841
1244.0,0.2863
1245.0,0.2874
1246.0,0.2857
1247.0,0.2847
1248.0,0.2847
1249.0,0.2854
1250.0,0.2838
1251.0,0.2803
1252.0,0.2801
1253.0,0.2783
1254.0,0.2758
1255.0,0.28
1256.0,0.2729
1257.0,0.2716
1258.0,0.276
1259.0,0.2672
1260.0,0.2685
1261.0,0.2549
1262.0,0.2481
1263.0,0.2486
1264.0,0.2314
1265.0,0.247
1266.0,0.2388
1267.0,0.2422
1268.0,0.2309
1269.0,0.1515
1270.0,0.2416
1271.0,0.2539
1272.0,0.2545
1273.0,0.252
1274.0,0.2526
1275.0,0.256
1276.0,0.2581
1277.0,0.2595
1278.0,0.2639
1279.0,0.2615
1280.0,0.2582
1281.0,0.2461
1282.0,0.2366
1283.0,0.255
1284.0,0.2611
1285.0,0.2628
1286.0,0.2661
1287.0,0.2625
1288.0,0.2623
1289.0,0.2549
1290.0,0.2599
1291.0,0.2633
1292.0,0.2492
1293.0,0.2587
1294.0,0.2569
1295.0,0.2561
1296.0,0.2457
1297.0,0.2333
1298.0,0.2493
1299.0,0.2588
1300.0,0.2222
1301.0,0.2284
1302.0,0.2485
1303.0,0.2189
1304.0,0.1896
1305.0,0.2436
1306.0,0.2438
1307.0,0.1927
1308.0,0.2188
1309.0,0.2422
1310.0,0.1891
1311.0,0.2104
1312.0,0.2052
1313.0,0.2017
1314.0,0.1815
1315.0,0.1798
1316.0,0.2076
1317.0,0.197
1318.0,0.2129
1319.0,0.1697
1320.0,0.1637
1321.0,0.1896
1322.0,0.192
1323.0,0.1472
1324.0,0.1665
1325.0,0.2048
1326.0,0.1775
1327.0,0.1697
1328.0,0.1472
1329.0,0.1128
1330.0,0.1457
1331.0,0.09059
1332.0,0.09265
1333.0,0.1283
1334.0,0.1075
1335.0,0.1466
1336.0,0.1173
1337.0,0.1045
1338.0,0.113
1339.0,0.1121
1340.0,0.1084
1341.0,0.1074
1342.0,0.1127
1343.0,0.07948
1344.0,0.04745
1345.0,0.06818
1346.0,0.03594
1347.0,0.0369
1348.0,0.002786
1349.0,0.009578
1350.0,0.009641
1351.0,0.002685
1352.0,0.0008386
1353.0,5.049e-05
1354.0,0.0001567
1355.0,1.768e-06
1356.0,2.499e-05
1357.0,3.789e-05
1358.0,2.066e-06
1359.0,3.344e-07
1360.0,1.033e-06
1361.0,1.973e-09
1362.0,6.841e-12
1363.0,1.5e-06
1364.0,6.337e-07
1365.0,3.201e-12
1366.0,6.131e-06
1367.0,2.419e-06
1368.0,4.385e-14
1369.0,2.407e-07
1370.0,1.319e-07
1371.0,8.567e-09
1372.0,1.332e-06
1373.0,2.265e-05
1374.0,9.377e-05
1375.0,0.0001707
1376.0,0.0001402
1377.0,6.598e-05
1378.0,0.000611
1379.0,2.789e-05
1380.0,4.304e-05
1381.0,1.213e-06
1382.0,1.237e-06
1383.0,2.056e-08
1384.0,2.837e-07
1385.0,1.042e-06
1386.0,1.185e-06
1387.0,0.0001039
1388.0,2.082e-06
1389.0,0.0003114
1390.0,0.0002681
1391.0,0.0001838
1392.0,1.249e-05
1393.0,6.217e-05
1394.0,3.858e-05
1395.0,3.272e-07
1396.0,2.649e-09
1397.0,2.596e-05
1398.0,0.0006941
1399.0,0.0004397
1400.0,1.315e-09
1401.0,4.53e-09
1402.0,0.001051
1403.0,0.001358
1404.0,0.0004193
1405.0,1.744e-07
1406.0,0.001143
1407.0,9.827e-05
1408.0,0.0009282
1409.0,0.0003392
1410.0,0.0002582
1411.0,0.001189
1412.0,0.001541
1413.0,0.01411
1414.0,0.0002018
1415.0,0.0001009
1416.0,0.02183
1417.0,0.007028
1418.0,0.008055
1419.0,0.00127
1420.0,0.004945
1421.0,0.00536
1422.0,0.02838
1423.0,0.00561
1424.0,0.01041
1425.0,0.01548
1426.0,0.01719
1427.0,0.03074
1428.0,0.002647
1429.0,0.02337
1430.0,0.03889
1431.0,0.04249
1432.0,0.002095
1433.0,0.02734
1434.0,0.01406
1435.0,0.01458
1436.0,0.02732
1437.0,0.02093
1438.0,0.009065
1439.0,0.0368
1440.0,0.0276
1441.0,0.02141
1442.0,0.02369
1443.0,0.02917
1444.0,0.04016
1445.0,0.03188
1446.0,0.01447
1447.0,0.02278
1448.0,0.07403
