interpolation:linear
wavelength,value
280.0,9.456e-20
280.5,2.562e-18
281.0,9.900000000000001e-20
281.5,5.016e-19
282.0,2.414e-18
282.5,7.04e-18
283.0,2.388e-17
283.5,3.966e-17
284.0,6.314e-16
284.5,1.786e-15
285.0,4.218e-15
285.5,2.744e-14
286.0,1.196e-13
286.5,6.008e-13
287.0,1.835e-12
287.5,7.505e-12
288.0,2.287e-11
288.5,9.142e-11
289.0,3.095e-10
289.5,1.174e-09
290.0,3.873e-09
290.5,9.092e-09
291.0,2.29e-08
291.5,7.97e-08
292.0,2.028e-07
292.5,3.156e-07
293.0,7.709e-07
293.5,2.245e-06
294.0,4.031e-06
294.5,5.174e-06
295.0,9.88e-06
295.5,2.287e-05
296.0,4.269e-05
296.5,5.772e-05
297.0,7.594e-05
297.5,0.000195
298.0,0.0002961
298.5,0.0002892
299.0,0.0006195
299.5,0.0009755
300.0,0.001042
300.5,0.001464
301.0,0.002518
301.5,0.00383
302.0,0.0032
302.5,0.005982
303.0,0.01015
303.5,0.01232
304.0,0.01129
304.5,0.01578
305.0,0.02187
305.5,0.02368
306.0,0.02242
306.5,0.02694
307.0,0.03699
307.5,0.04571
308.0,0.04771
308.5,0.05437
309.0,0.05214
309.5,0.05677
310.0,0.05571
310.5,0.08918
311.0,0.1098
311.5,0.1051
312.0,0.1007
312.5,0.1191
313.0,0.1273
313.5,0.1253
314.0,0.1514
314.5,0.1283
315.0,0.1673
315.5,0.143
316.0,0.1204
316.5,0.1674
317.0,0.208
317.5,0.2183
318.0,0.1667
318.5,0.1985
319.0,0.2307
319.5,0.1944
320.0,0.2361
320.5,0.2832
321.0,0.2428
321.5,0.2319
322.0,0.2573
322.5,0.2233
323.0,0.2166
323.5,0.2595
324.0,0.3015
324.5,0.3094
325.0,0.2711
325.5,0.3412
326.0,0.4143
326.5,0.409
327.0,0.4096
327.5,0.3982
328.0,0.3612
328.5,0.371
329.0,0.4363
329.5,0.4925
330.0,0.4989
330.5,0.4047
331.0,0.4142
331.5,0.4166
332.0,0.4433
332.5,0.4355
333.0,0.4359
333.5,0.3988
334.0,0.4092
334.5,0.4663
335.0,0.4349
335.5,0.5079
336.0,0.3514
336.5,0.4128
337.0,0.3404
337.5,0.4241
338.0,0.4098
338.5,0.4728
339.0,0.4678
339.5,0.4499
340.0,0.5288
340.5,0.4761
341.0,0.4644
341.5,0.4262
342.0,0.5092
342.5,0.4762
343.0,0.5238
343.5,0.4933
344.0,0.3643
344.5,0.3681
345.0,0.4868
345.5,0.4968
346.0,0.4221
346.5,0.4778
347.0,0.513
347.5,0.4147
348.0,0.4726
348.5,0.4722
349.0,0.4379
349.5,0.4335
350.0,0.5361
350.5,0.5654
351.0,0.5051
351.5,0.491
352.0,0.5271
352.5,0.4112
353.0,0.5178
353.5,0.5535
354.0,0.5746
354.5,0.5826
355.0,0.5807
355.5,0.5244
356.0,0.5486
356.5,0.4684
357.0,0.387
357.5,0.4738
358.0,0.3754
358.5,0.3208
359.0,0.4487
359.5,0.5719
360.0,0.6061
360.5,0.4844
361.0,0.4415
361.5,0.5082
362.0,0.4393
362.5,0.6078
363.0,0.5457
363.5,0.5026
364.0,0.6145
364.5,0.5252
365.0,0.5349
365.5,0.6712
366.0,0.711
366.5,0.6679
367.0,0.6504
367.5,0.6749
368.0,0.5906
368.5,0.5959
369.0,0.6434
369.5,0.6857
370.0,0.7309
370.5,0.5672
371.0,0.606
371.5,0.7581
372.0,0.5032
372.5,0.6032
373.0,0.6135
373.5,0.3992
374.0,0.5799
374.5,0.4802
375.0,0.4668
375.5,0.6969
376.0,0.5777
376.5,0.5987
377.0,0.6338
377.5,0.7414
378.0,0.8037
378.5,0.7596
379.0,0.6269
379.5,0.5727
380.0,0.5954
380.5,0.721
381.0,0.7225
381.5,0.5726
382.0,0.5084
382.5,0.4333
383.0,0.4011
383.5,0.3863
384.0,0.4261
384.5,0.6267
385.0,0.6215
385.5,0.5787
386.0,0.4956
386.5,0.6509
387.0,0.5409
387.5,0.6075
388.0,0.5609
388.5,0.5544
389.0,0.5984
389.5,0.7247
390.0,0.7273
390.5,0.6693
391.0,0.7878
391.5,0.8035
392.0,0.6767
392.5,0.6058
393.0,0.3371
393.5,0.245
394.0,0.4985
394.5,0.6337
395.0,0.7733
395.5,0.7855
396.0,0.681
396.5,0.3981
397.0,0.2987
397.5,0.6075
398.0,0.8507
398.5,0.8793
399.0,0.952
399.5,0.9488
400.0,0.9853
401.0,1.002
402.0,1.056
403.0,1.003
404.0,0.9878
405.0,0.9875
406.0,0.9712
407.0,0.9553
408.0,0.9927
409.0,1.062
410.0,0.9281
411.0,1.005
412.0,1.079
413.0,1.052
414.0,1.065
415.0,1.068
416.0,1.086
417.0,1.059
418.0,1.04
419.0,1.053
420.0,1.048
421.0,1.096
422.0,1.042
423.0,1.018
424.0,1.076
425.0,1.074
426.0,1.046
427.0,1.026
428.0,0.9997
429.0,0.9465
430.0,0.8282
431.0,0.821
432.0,1.06
433.0,1.065
434.0,0.9892
435.0,1.033
436.0,1.164
437.0,1.147
438.0,1.045
439.0,1.081
440.0,1.115
441.0,1.155
442.0,1.239
443.0,1.207
444.0,1.233
445.0,1.206
446.0,1.15
447.0,1.243
448.0,1.263
449.0,1.267
450.0,1.302
451.0,1.35
452.0,1.301
453.0,1.223
454.0,1.276
455.0,1.284
456.0,1.315
457.0,1.336
458.0,1.291
459.0,1.284
460.0,1.288
461.0,1.317
462.0,1.327
463.0,1.318
464.0,1.296
465.0,1.279
466.0,1.291
467.0,1.267
468.0,1.282
469.0,1.289
470.0,1.248
471.0,1.246
472.0,1.313
473.0,1.296
474.0,1.298
475.0,1.31
476.0,1.271
477.0,1.275
478.0,1.311
479.0,1.302
480.0,1.304
481.0,1.328
482.0,1.334
483.0,1.317
484.0,1.29
485.0,1.229
486.0,1.074
487.0,1.125
488.0,1.234
489.0,1.238
490.0,1.302
491.0,1.279
492.0,1.208
493.0,1.248
494.0,1.26
495.0,1.271
496.0,1.278
497.0,1.298
498.0,1.238
499.0,1.254
500.0,1.217
501.0,1.195
502.0,1.179
503.0,1.228
504.0,1.2
505.0,1.241
506.0,1.281
507.0,1.218
508.0,1.18
509.0,1.212
510.0,1.205
511.0,1.237
512.0,1.25
513.0,1.183
514.0,1.175
515.0,1.163
516.0,1.16
517.0,1.031
518.0,1.084
519.0,1.137
520.0,1.178
521.0,1.19
522.0,1.191
523.0,1.17
524.0,1.212
525.0,1.227
526.0,1.172
527.0,1.105
528.0,1.169
529.0,1.233
530.0,1.215
531.0,1.233
532.0,1.191
533.0,1.156
534.0,1.19
535.0,1.216
536.0,1.227
537.0,1.178
538.0,1.199
539.0,1.189
540.0,1.14
541.0,1.148
542.0,1.184
543.0,1.171
544.0,1.192
545.0,1.188
546.0,1.194
547.0,1.193
548.0,1.178
549.0,1.182
550.0,1.196
551.0,1.181
552.0,1.189
553.0,1.168
554.0,1.196
555.0,1.199
556.0,1.183
557.0,1.147
558.0,1.138
559.0,1.118
560.0,1.132
561.0,1.147
562.0,1.139
563.0,1.171
564.0,1.139
565.0,1.13
566.0,1.113
567.0,1.135
568.0,1.126
569.0,1.102
570.0,1.101
571.0,1.094
572.0,1.122
573.0,1.134
574.0,1.131
575.0,1.11
576.0,1.1
577.0,1.112
578.0,1.094
579.0,1.098
580.0,1.117
581.0,1.121
582.0,1.141
583.0,1.143
584.0,1.152
585.0,1.124
586.0,1.101
587.0,1.126
588.0,1.101
589.0,0.9817
590.0,1.026
591.0,1.082
592.0,1.071
593.0,1.084
594.0,1.078
595.0,1.053
596.0,1.09
597.0,1.079
598.0,1.075
599.0,1.075
600.0,1.075
601.0,1.066
602.0,1.058
603.0,1.075
604.0,1.093
605.0,1.087
606.0,1.082
607.0,1.092
608.0,1.08
609.0,1.081
610.0,1.073
611.0,1.078
612.0,1.075
613.0,1.061
614.0,1.046
615.0,1.069
616.0,1.033
617.0,1.031
618.0,1.07
619.0,1.059
620.0,1.066
621.0,1.067
622.0,1.055
623.0,1.04
624.0,1.021
625.0,1.019
626.0,1.034
627.0,1.047
628.0,0.9903
629.0,1.026
630.0,1.003
631.0,1.022
632.0,1.009
633.0,1.038
634.0,1.026
635.0,1.041
636.0,1.027
637.0,1.043
638.0,1.052
639.0,1.04
640.0,1.029
641.0,1.028
642.0,1.023
643.0,1.037
644.0,1.033
645.0,1.035
646.0,1.012
647.0,1.004
648.0,1.005
649.0,0.9856
650.0,0.986
651.0,1.028
652.0,0.99
653.0,1.014
654.0,1.002
655.0,0.9675
656.0,0.8557
657.0,0.8786
658.0,0.9833
659.0,0.9897
660.0,0.9935
661.0,1.0
662.0,1.003
663.0,0.9831
664.0,0.9936
665.0,0.9934
666.0,0.9938
667.0,0.9924
668.0,0.9923
669.0,1.007
670.0,1.003
671.0,1.002
672.0,0.9936
673.0,1.008
674.0,1.004
675.0,0.9951
676.0,1.002
677.0,0.9917
678.0,0.9943
679.0,0.9781
680.0,0.9859
681.0,0.9793
682.0,0.9781
683.0,0.9761
684.0,0.9713
685.0,0.9794
686.0,0.9738
687.0,0.7017
688.0,0.7956
689.0,0.7976
690.0,0.8278
691.0,0.8613
692.0,0.8848
693.0,0.8785
694.0,0.8713
695.0,0.9007
696.0,0.902
697.0,0.9487
698.0,0.9341
699.0,0.9173
700.0,0.9063
701.0,0.8988
702.0,0.903
703.0,0.9046
704.0,0.9303
705.0,0.9317
706.0,0.9296
707.0,0.9298
708.0,0.9319
709.0,0.9312
710.0,0.9322
711.0,0.9302
712.0,0.9265
713.0,0.918
714.0,0.9213
715.0,0.8943
716.0,0.8953
717.0,0.7968
718.0,0.7354
719.0,0.6759
720.0,0.7094
721.0,0.7705
722.0,0.8677
723.0,0.815
724.0,0.7424
725.0,0.7334
726.0,0.7661
727.0,0.7723
728.0,0.7324
729.0,0.7525
730.0,0.796
731.0,0.7639
732.0,0.8094
733.0,0.8494
734.0,0.8676
735.0,0.8507
736.0,0.8495
737.0,0.8531
738.0,0.8614
739.0,0.8445
740.0,0.865
741.0,0.8555
742.0,0.8554
743.0,0.877
744.0,0.8739
745.0,0.8736
746.0,0.8776
747.0,0.8795
748.0,0.8776
749.0,0.8675
750.0,0.867
751.0,0.8582
752.0,0.8618
753.0,0.8661
754.0,0.8681
755.0,0.8632
756.0,0.8627
757.0,0.864
758.0,0.8533
759.0,0.8388
760.0,0.197
761.0,0.1168
762.0,0.4857
763.0,0.2777
764.0,0.3861
765.0,0.486
766.0,0.5694
767.0,0.6919
768.0,0.7778
769.0,0.7896
770.0,0.8113
771.0,0.8156
772.0,0.8166
773.0,0.8221
774.0,0.818
775.0,0.8116
776.0,0.8215
777.0,0.8106
778.0,0.8057
779.0,0.8064
780.0,0.8018
781.0,0.8026
782.0,0.8076
783.0,0.7935
784.0,0.7972
785.0,0.7915
786.0,0.8004
787.0,0.7885
788.0,0.7797
789.0,0.7797
790.0,0.7621
791.0,0.7657
792.0,0.7596
793.0,0.7477
794.0,0.7572
795.0,0.7708
796.0,0.7514
797.0,0.7525
798.0,0.7703
799.0,0.7662
800.0,0.754
801.0,0.7525
802.0,0.7503
803.0,0.7451
804.0,0.7457
805.0,0.7421
806.0,0.7609
807.0,0.7522
808.0,0.7527
809.0,0.7401
810.0,0.7351
811.0,0.7381
812.0,0.7199
813.0,0.7068
814.0,0.6319
815.0,0.6277
816.0,0.5857
817.0,0.5952
818.0,0.5752
819.0,0.6342
820.0,0.6007
821.0,0.6902
822.0,0.6724
823.0,0.4767
824.0,0.657
825.0,0.6788
826.0,0.6566
827.0,0.6891
828.0,0.5951
829.0,0.6519
830.0,0.6445
831.0,0.6464
832.0,0.6286
833.0,0.6631
834.0,0.6432
835.0,0.6989
836.0,0.6738
837.0,0.7006
838.0,0.6809
839.0,0.6895
840.0,0.7041
841.0,0.695
842.0,0.6951
843.0,0.6933
844.0,0.6844
845.0,0.7064
846.0,0.7031
847.0,0.6896
848.0,0.686
849.0,0.6665
850.0,0.6385
851.0,0.6766
852.0,0.6716
853.0,0.6459
854.0,0.5581
855.0,0.6126
856.0,0.6697
857.0,0.6842
858.0,0.6794
859.0,0.6797
860.0,0.6807
861.0,0.677
862.0,0.6876
863.0,0.7038
864.0,0.6686
865.0,0.6627
866.0,0.5959
867.0,0.6218
868.0,0.6766
869.0,0.6626
870.0,0.6814
871.0,0.6722
872.0,0.6698
873.0,0.6684
874.0,0.6605
875.0,0.6471
876.0,0.6539
877.0,0.6604
878.0,0.6677
879.0,0.6574
880.0,0.6433
881.0,0.634
882.0,0.6478
883.0,0.6495
884.0,0.6467
885.0,0.6515
886.0,0.622
887.0,0.6278
888.0,0.6376
889.0,0.6439
890.0,0.6396
891.0,0.638
892.0,0.6209
893.0,0.6033
894.0,0.5854
895.0,0.5574
896.0,0.527
897.0,0.4586
898.0,0.497
899.0,0.3852
900.0,0.5054
901.0,0.4035
902.0,0.464
903.0,0.4717
904.0,0.581
905.0,0.5629
906.0,0.5283
907.0,0.4379
908.0,0.4454
909.0,0.4783
910.0,0.4304
911.0,0.4543
912.0,0.4732
913.0,0.4371
914.0,0.4321
915.0,0.4677
916.0,0.3982
917.0,0.4971
918.0,0.4085
919.0,0.5042
920.0,0.5056
921.0,0.525
922.0,0.4746
923.0,0.5068
924.0,0.4868
925.0,0.4763
926.0,0.4815
927.0,0.534
928.0,0.4062
929.0,0.3747
930.0,0.3006
931.0,0.2838
932.0,0.2106
933.0,0.1746
934.0,0.103
935.0,0.1759
936.0,0.1143
937.0,0.1165
938.0,0.1414
939.0,0.275
940.0,0.3265
941.0,0.2523
942.0,0.2884
943.0,0.1943
944.0,0.2005
945.0,0.2591
946.0,0.1381
947.0,0.2619
948.0,0.1934
949.0,0.3443
950.0,0.1055
951.0,0.338
952.0,0.1898
953.0,0.2397
954.0,0.288
955.0,0.2418
956.0,0.2319
957.0,0.1909
958.0,0.3201
959.0,0.2607
960.0,0.292
961.0,0.3229
962.0,0.3061
963.0,0.3486
964.0,0.3208
965.0,0.3468
966.0,0.348
967.0,0.3469
968.0,0.4504
969.0,0.4716
970.0,0.4351
971.0,0.4917
972.0,0.4716
973.0,0.417
974.0,0.3967
975.0,0.4092
976.0,0.392
977.0,0.4394
978.0,0.4202
979.0,0.4381
980.0,0.4132
981.0,0.4885
982.0,0.4694
983.0,0.4521
984.0,0.5008
985.0,0.4676
986.0,0.5081
987.0,0.4998
988.0,0.4989
989.0,0.5056
990.0,0.4958
991.0,0.5073
992.0,0.51
993.0,0.5003
994.0,0.5097
995.0,0.5088
996.0,0.5068
997.0,0.5075
998.0,0.5052
999.0,0.5032
1000.0,0.5001
1001.0,0.5059
1002.0,0.4936
1003.0,0.4971
1004.0,0.4853
1005.0,0.467
1006.0,0.4855
1007.0,0.4956
1008.0,0.4932
1009.0,0.4909
1010.0,0.489
1011.0,0.4931
1012.0,0.4891
1013.0,0.4918
1014.0,0.4883
1015.0,0.4852
1016.0,0.483
1017.0,0.4843
1018.0,0.4823
1019.0,0.4726
1020.0,0.4798
1021.0,0.4791
1022.0,0.4756
1023.0,0.4807
1024.0,0.475
1025.0,0.4801
1026.0,0.4782
1027.0,0.4771
1028.0,0.4761
1029.0,0.4706
1030.0,0.4736
1031.0,0.4718
1032.0,0.4703
1033.0,0.4632
1034.0,0.4632
1035.0,0.4647
1036.0,0.4672
1037.0,0.4595
1038.0,0.4616
1039.0,0.4614
1040.0,0.4595
1041.0,0.4614
1042.0,0.4582
1043.0,0.4568
1044.0,0.4584
1045.0,0.4522
1046.0,0.4473
1047.0,0.4513
1048.0,0.4539
1049.0,0.4523
1050.0,0.4502
1051.0,0.4497
1052.0,0.4479
1053.0,0.4444
1054.0,0.4454
1055.0,0.4458
1056.0,0.4443
1057.0,0.443
1058.0,0.4322
1059.0,0.4328
1060.0,0.4322
1061.0,0.4317
1062.0,0.4341
1063.0,0.4298
1064.0,0.4349
1065.0,0.432
1066.0,0.4233
1067.0,0.4288
1068.0,0.4196
1069.0,0.4065
1070.0,0.4205
1071.0,0.4265
1072.0,0.422
1073.0,0.4158
1074.0,0.4259
1075.0,0.4063
1076.0,0.4257
1077.0,0.419
1078.0,0.4115
1079.0,0.4186
1080.0,0.4126
1081.0,0.4001
1082.0,0.4052
1083.0,0.406
1084.0,0.3996
1085.0,0.4133
1086.0,0.3798
1087.0,0.3901
1088.0,0.4059
1089.0,0.395
1090.0,0.3875
1091.0,0.405
1092.0,0.4036
1093.0,0.3471
1094.0,0.3699
1095.0,0.3609
1096.0,0.3471
1097.0,0.3942
1098.0,0.3421
1099.0,0.3561
1100.0,0.3333
1101.0,0.3368
1102.0,0.323
1103.0,0.3208
1104.0,0.3211
1105.0,0.3484
1106.0,0.2749
1107.0,0.3326
1108.0,0.287
1109.0,0.2865
1110.0,0.3303
1111.0,0.2309
1112.0,0.2839
1113.0,0.1878
1114.0,0.2091
1115.0,0.1736
1116.0,0.143
1117.0,0.05748
1118.0,0.1539
1119.0,0.08026
1120.0,0.1012
1121.0,0.1318
1122.0,0.05886
1123.0,0.09128
1124.0,0.07709
1125.0,0.09964
1126.0,0.03808
1127.0,0.1121
1128.0,0.0707
1129.0,0.07445
1130.0,0.05059
1131.0,0.204
1132.0,0.1617
1133.0,0.107
1134.0,0.0302
1135.0,0.01118
1136.0,0.0909
1137.0,0.2018
1138.0,0.1432
1139.0,0.2049
1140.0,0.1745
1141.0,0.136
1142.0,0.1547
1143.0,0.2161
1144.0,0.07985
1145.0,0.1031
1146.0,0.1112
1147.0,0.04269
1148.0,0.1871
1149.0,0.152
1150.0,0.08562
1151.0,0.1421
1152.0,0.1718
1153.0,0.1651
1154.0,0.1006
1155.0,0.2139
1156.0,0.1943
1157.0,0.2155
1158.0,0.2131
1159.0,0.2276
1160.0,0.1972
1161.0,0.2379
1162.0,0.2394
1163.0,0.3147
1164.0,0.2732
1165.0,0.2607
1166.0,0.2568
1167.0,0.278
1168.0,0.2818
1169.0,0.2873
1170.0,0.3097
1171.0,0.3023
1172.0,0.3063
1173.0,0.309
1174.0,0.2279
1175.0,0.3007
1176.0,0.3271
1177.0,0.3163
1178.0,0.243
1179.0,0.3296
1180.0,0.2981
1181.0,0.3072
1182.0,0.218
1183.0,0.3016
1184.0,0.2847
1185.0,0.2765
1186.0,0.3219
1187.0,0.3084
1188.0,0.2223
1189.0,0.2877
1190.0,0.3145
1191.0,0.3018
1192.0,0.3185
1193.0,0.3064
1194.0,0.315
1195.0,0.3002
1196.0,0.2905
1197.0,0.314
1198.0,0.289
1199.0,0.2509
1200.0,0.3027
1201.0,0.2937
1202.0,0.291
1203.0,0.2887
1204.0,0.2553
1205.0,0.2962
1206.0,0.3244
1207.0,0.2907
1208.0,0.2846
1209.0,0.2901
1210.0,0.301
1211.0,0.2887
1212.0,0.2874
1213.0,0.3148
1214.0,0.2932
1215.0,0.2882
1216.0,0.3137
1217.0,0.3064
1218.0,0.3112
1219.0,0.3079
1220.0,0.3114
1221.0,0.314
1222.0,0.3064
1223.0,0.3039
1224.0,0.3028
1225.0,0.312
1226.0,0.3135
1227.0,0.2918
1228.0,0.3145
1229.0,0.3135
1230.0,0.3086
1231.0,0.3158
1232.0,0.3139
1233.0,0.3052
1234.0,0.3151
1235.0,0.3134
1236.0,0.3154
1237.0,0.3118
1238.0,0.3143
1239.0,0.3103
1240.0,0.3114
1241.0,0.3104
1242.0,0.3093
1243.0,0.3068
1244.0,0.3091
1245.0,0.3103
1246.0,0.3085
1247.0,0.3074
1248.0,0.3075
1249.0,0.3082
1250.0,0.3065
1251.0,0.3029
1252.0,0.3025
1253.0,0.3008
1254.0,0.2983
1255.0,0.3024
1256.0,0.2952
1257.0,0.2939
1258.0,0.2983
1259.0,0.2896
1260.0,0.2908
1261.0,0.2771
1262.0,0.2702
1263.0,0.2707
1264.0,0.2531
1265.0,0.269
1266.0,0.2607
1267.0,0.264
1268.0,0.2524
1269.0,0.1709
1270.0,0.2635
1271.0,0.2759
1272.0,0.2764
1273.0,0.2738
1274.0,0.2743
1275.0,0.2778
1276.0,0.28
1277.0,0.2812
1278.0,0.2856
1279.0,0.2831
1280.0,0.2794
1281.0,0.2662
1282.0,0.2557
1283.0,0.2755
1284.0,0.2823
1285.0,0.284
1286.0,0.2874
1287.0,0.2838
1288.0,0.2835
1289.0,0.2761
1290.0,0.2809
1291.0,0.2845
1292.0,0.2703
1293.0,0.2797
1294.0,0.2779
1295.0,0.2773
1296.0,0.2667
1297.0,0.2539
1298.0,0.2702
1299.0,0.2798
1300.0,0.2422
1301.0,0.2485
1302.0,0.2692
1303.0,0.2384
1304.0,0.2084
1305.0,0.264
1306.0,0.2644
1307.0,0.2111
1308.0,0.238
1309.0,0.2628
1310.0,0.2073
1311.0,0.2293
1312.0,0.2239
1313.0,0.2204
1314.0,0.199
1315.0,0.1976
1316.0,0.2265
1317.0,0.2151
1318.0,0.2318
1319.0,0.1871
1320.0,0.18
1321.0,0.2076
1322.0,0.2106
1323.0,0.1633
1324.0,0.1835
1325.0,0.2235
1326.0,0.195
1327.0,0.1868
1328.0,0.1626
1329.0,0.1262
1330.0,0.1622
1331.0,0.1029
1332.0,0.1046
1333.0,0.1443
1334.0,0.12
1335.0,0.1627
1336.0,0.1312
1337.0,0.1175
1338.0,0.127
1339.0,0.1257
1340.0,0.121
1341.0,0.1211
1342.0,0.127
1343.0,0.09217
1344.0,0.05498
1345.0,0.07866
1346.0,0.04327
1347.0,0.04471
1348.0,0.003762
1349.0,0.01251
1350.0,0.0123
1351.0,0.00377
1352.0,0.001294
1353.0,8.766e-05
1354.0,0.0002535
1355.0,3.594e-06
1356.0,4.385e-05
1357.0,6.618e-05
1358.0,4.162e-06
1359.0,7.935e-07
1360.0,2.208e-06
1361.0,6.045e-09
1362.0,2.479e-11
1363.0,3.315e-06
1364.0,1.434e-06
1365.0,1.395e-11
1366.0,1.295e-05
1367.0,5.032e-06
1368.0,2.774e-13
1369.0,5.52e-07
1370.0,3.238e-07
1371.0,2.312e-08
1372.0,2.778e-06
1373.0,4.19e-05
1374.0,0.0001603
1375.0,0.0002902
1376.0,0.0002259
1377.0,0.0001085
1378.0,0.0009595
1379.0,4.613e-05
1380.0,7.43e-05
1381.0,2.221e-06
1382.0,2.63e-06
1383.0,4.725e-08
1384.0,6.672e-07
1385.0,2.058e-06
1386.0,2.636e-06
1387.0,0.0001844
1388.0,3.791e-06
1389.0,0.0005098
1390.0,0.0004379
1391.0,0.0003068
1392.0,2.166e-05
1393.0,0.0001029
1394.0,7.179e-05
1395.0,6.782e-07
1396.0,7.747e-09
1397.0,4.441e-05
1398.0,0.001096
1399.0,0.000695
1400.0,4.206e-09
1401.0,1.28e-08
1402.0,0.001503
1403.0,0.001976
1404.0,0.0006153
1405.0,3.838e-07
1406.0,0.001725
1407.0,0.0001471
1408.0,0.001395
1409.0,0.0005403
1410.0,0.0003998
1411.0,0.001724
1412.0,0.002174
1413.0,0.01814
1414.0,0.0003106
1415.0,0.00016
1416.0,0.02676
1417.0,0.009145
1418.0,0.01049
1419.0,0.001682
1420.0,0.006464
1421.0,0.007052
1422.0,0.03462
1423.0,0.006997
1424.0,0.01286
1425.0,0.01928
1426.0,0.02094
1427.0,0.03634
1428.0,0.003602
1429.0,0.02813
1430.0,0.04561
1431.0,0.04951
1432.0,0.002865
1433.0,0.03231
1434.0,0.01685
1435.0,0.01824
1436.0,0.03299
1437.0,0.02528
1438.0,0.0113
1439.0,0.04388
1440.0,0.03298
1441.0,0.02618
1442.0,0.02883
1443.0,0.03461
1444.0,0.04725
1445.0,0.03824
1446.0,0.0176
1447.0,0.02767
1448.0,0.08459
1449.0,0.07469
1450.0,0.02048
1451.0,0.008538
1452.0,0.04614
1453.0,0.05987
1454.0,0.09852
1455.0,0.04804
1456.0,0.06521
1457.0,0.08498
