interpolation:linear
wavelength,value
280.0,1.634e-21
280.5,5.203e-20
281.0,2.759e-19
281.5,4.633e-19
282.0,1.012e-18
282.5,2.564e-18
283.0,8.145e-18
283.5,1.326e-17
284.0,2.147e-16
284.5,6.201e-16
285.0,1.31e-15
285.5,6.281e-15
286.0,2.506e-14
286.5,1.105e-13
287.0,3.127e-13
287.5,1.186e-12
288.0,3.432e-12
288.5,1.098e-11
289.0,3.033e-11
289.5,9.397e-11
290.0,2.647e-10
290.5,5.451e-10
291.0,1.18e-09
291.5,3.412e-09
292.0,6.963e-09
292.5,1.024e-08
293.0,2.327e-08
293.5,6.107e-08
294.0,1.005e-07
294.5,1.31e-07
295.0,2.326e-07
295.5,5.651e-07
296.0,1.071e-06
296.5,1.557e-06
297.0,2.184e-06
297.5,6.236e-06
298.0,1.044e-05
298.5,1.107e-05
299.0,2.578e-05
299.5,4.76e-05
300.0,5.594e-05
300.5,8.726e-05
301.0,0.0001807
301.5,0.0003339
302.0,0.0003127
302.5,0.0006239
303.0,0.001152
303.5,0.001479
304.0,0.00141
304.5,0.002183
305.0,0.003479
305.5,0.004111
306.0,0.004028
306.5,0.005116
307.0,0.00792
307.5,0.01096
308.0,0.01166
308.5,0.01404
309.0,0.01396
309.5,0.01635
310.0,0.01661
310.5,0.02705
311.0,0.03426
311.5,0.0332
312.0,0.03383
312.5,0.04169
313.0,0.04552
313.5,0.04395
314.0,0.05577
314.5,0.05042
315.0,0.0665
315.5,0.05513
316.0,0.04891
316.5,0.07117
317.0,0.08835
317.5,0.09163
318.0,0.07213
318.5,0.09109
319.0,0.109
319.5,0.08771
320.0,0.1058
320.5,0.1347
321.0,0.1217
321.5,0.1169
322.0,0.1227
322.5,0.1068
323.0,0.1075
323.5,0.1334
324.0,0.156
324.5,0.1577
325.0,0.1356
325.5,0.1759
326.0,0.2156
326.5,0.217
327.0,0.2159
327.5,0.2081
328.0,0.1842
328.5,0.1951
329.0,0.2352
329.5,0.2675
330.0,0.2695
330.5,0.2147
331.0,0.2185
331.5,0.2229
332.0,0.2421
332.5,0.2401
333.0,0.2392
333.5,0.2157
334.0,0.2209
334.5,0.2561
335.0,0.2413
335.5,0.2819
336.0,0.1951
336.5,0.2283
337.0,0.187
337.5,0.2325
338.0,0.2279
338.5,0.2633
339.0,0.2607
339.5,0.2509
340.0,0.2948
340.5,0.2659
341.0,0.2594
341.5,0.2383
342.0,0.2849
342.5,0.2667
343.0,0.2933
343.5,0.2763
344.0,0.2042
344.5,0.2063
345.0,0.2732
345.5,0.2792
346.0,0.2374
346.5,0.2689
347.0,0.2887
347.5,0.2335
348.0,0.2664
348.5,0.2664
349.0,0.2472
349.5,0.2449
350.0,0.303
350.5,0.3198
351.0,0.2857
351.5,0.2777
352.0,0.2984
352.5,0.233
353.0,0.2936
353.5,0.3141
354.0,0.3262
354.5,0.3309
355.0,0.3299
355.5,0.2982
356.0,0.3121
356.5,0.2666
357.0,0.2203
357.5,0.2698
358.0,0.2139
358.5,0.1828
359.0,0.2558
359.5,0.326
360.0,0.3457
360.5,0.2764
361.0,0.2521
361.5,0.2905
362.0,0.2514
362.5,0.3481
363.0,0.3128
363.5,0.2883
364.0,0.3527
364.5,0.3016
365.0,0.3073
365.5,0.3858
366.0,0.409
366.5,0.3845
367.0,0.3746
367.5,0.3889
368.0,0.3404
368.5,0.3437
369.0,0.3713
369.5,0.3959
370.0,0.4222
370.5,0.3278
371.0,0.3505
371.5,0.4386
372.0,0.2912
372.5,0.3493
373.0,0.3555
373.5,0.2314
374.0,0.3363
374.5,0.2787
375.0,0.271
375.5,0.4047
376.0,0.3356
376.5,0.3479
377.0,0.3685
377.5,0.4312
378.0,0.4676
378.5,0.4421
379.0,0.3649
379.5,0.3334
380.0,0.3467
380.5,0.4202
381.0,0.4213
381.5,0.3341
382.0,0.2969
382.5,0.2532
383.0,0.2345
383.5,0.226
384.0,0.2494
384.5,0.367
385.0,0.3641
385.5,0.3392
386.0,0.2906
386.5,0.382
387.0,0.3175
387.5,0.3567
388.0,0.3295
388.5,0.3258
389.0,0.3518
389.5,0.4263
390.0,0.428
390.5,0.394
391.0,0.464
391.5,0.4734
392.0,0.3989
392.5,0.3572
393.0,0.1989
393.5,0.1446
394.0,0.2944
394.5,0.3744
395.0,0.457
395.5,0.4644
396.0,0.4028
396.5,0.2356
397.0,0.1769
397.5,0.3598
398.0,0.5039
398.5,0.521
399.0,0.5645
399.5,0.5628
400.0,0.5845
401.0,0.592
402.0,0.625
403.0,0.5942
404.0,0.5854
405.0,0.5856
406.0,0.5766
407.0,0.5677
408.0,0.59
409.0,0.6319
410.0,0.5525
411.0,0.5988
412.0,0.6437
413.0,0.6279
414.0,0.636
415.0,0.6381
416.0,0.6497
417.0,0.634
418.0,0.6226
419.0,0.6311
420.0,0.6286
421.0,0.658
422.0,0.6257
423.0,0.6115
424.0,0.6469
425.0,0.6461
426.0,0.6298
427.0,0.6183
428.0,0.6025
429.0,0.5711
430.0,0.5001
431.0,0.4957
432.0,0.6404
433.0,0.6442
434.0,0.5984
435.0,0.6251
436.0,0.7047
437.0,0.6957
438.0,0.6338
439.0,0.6554
440.0,0.6766
441.0,0.7014
442.0,0.7525
443.0,0.7329
444.0,0.7492
445.0,0.733
446.0,0.7001
447.0,0.7573
448.0,0.769
449.0,0.7726
450.0,0.7945
451.0,0.8242
452.0,0.7943
453.0,0.7474
454.0,0.7806
455.0,0.7855
456.0,0.8044
457.0,0.8179
458.0,0.7899
459.0,0.786
460.0,0.7881
461.0,0.8064
462.0,0.8129
463.0,0.8074
464.0,0.7945
465.0,0.7849
466.0,0.7929
467.0,0.7783
468.0,0.7875
469.0,0.7917
470.0,0.7665
471.0,0.7656
472.0,0.8068
473.0,0.7963
474.0,0.7973
475.0,0.8038
476.0,0.7794
477.0,0.7814
478.0,0.8032
479.0,0.7986
480.0,0.8004
481.0,0.8157
482.0,0.8204
483.0,0.8109
484.0,0.7945
485.0,0.7572
486.0,0.6622
487.0,0.6943
488.0,0.7617
489.0,0.764
490.0,0.8039
491.0,0.7903
492.0,0.7464
493.0,0.7709
494.0,0.7787
495.0,0.7854
496.0,0.7902
497.0,0.8025
498.0,0.7649
499.0,0.7746
500.0,0.7519
501.0,0.7378
502.0,0.727
503.0,0.7561
504.0,0.7355
505.0,0.763
506.0,0.7877
507.0,0.7496
508.0,0.7267
509.0,0.7474
510.0,0.7438
511.0,0.764
512.0,0.7725
513.0,0.7312
514.0,0.7263
515.0,0.7191
516.0,0.7173
517.0,0.6375
518.0,0.6702
519.0,0.7029
520.0,0.7284
521.0,0.7353
522.0,0.7358
523.0,0.7225
524.0,0.7481
525.0,0.7566
526.0,0.7226
527.0,0.6806
528.0,0.7196
529.0,0.7583
530.0,0.7473
531.0,0.7583
532.0,0.7322
533.0,0.7107
534.0,0.7319
535.0,0.748
536.0,0.755
537.0,0.7254
538.0,0.7383
539.0,0.7321
540.0,0.7018
541.0,0.7061
542.0,0.728
543.0,0.7206
544.0,0.7328
545.0,0.7306
546.0,0.7335
547.0,0.7334
548.0,0.7248
549.0,0.7271
550.0,0.7358
551.0,0.7269
552.0,0.732
553.0,0.7188
554.0,0.736
555.0,0.7374
556.0,0.7277
557.0,0.705
558.0,0.6995
559.0,0.6862
560.0,0.6946
561.0,0.7034
562.0,0.698
563.0,0.7168
564.0,0.697
565.0,0.6908
566.0,0.6804
567.0,0.693
568.0,0.686
569.0,0.6683
570.0,0.6683
571.0,0.6647
572.0,0.6796
573.0,0.6867
574.0,0.6843
575.0,0.6712
576.0,0.6651
577.0,0.6725
578.0,0.6628
579.0,0.6661
580.0,0.6799
581.0,0.6842
582.0,0.6979
583.0,0.7002
584.0,0.7066
585.0,0.6896
586.0,0.6755
587.0,0.6898
588.0,0.6712
589.0,0.591
590.0,0.6183
591.0,0.6565
592.0,0.6469
593.0,0.6581
594.0,0.6529
595.0,0.6355
596.0,0.6635
597.0,0.6556
598.0,0.6548
599.0,0.6558
600.0,0.6575
601.0,0.6527
602.0,0.6483
603.0,0.6594
604.0,0.6704
605.0,0.6671
606.0,0.6647
607.0,0.6716
608.0,0.6645
609.0,0.666
610.0,0.6615
611.0,0.6652
612.0,0.6634
613.0,0.6552
614.0,0.6465
615.0,0.6609
616.0,0.6393
617.0,0.6382
618.0,0.6629
619.0,0.6563
620.0,0.6604
621.0,0.6608
622.0,0.6529
623.0,0.6427
624.0,0.6319
625.0,0.6305
626.0,0.6398
627.0,0.6462
628.0,0.5953
629.0,0.6281
630.0,0.6133
631.0,0.63
632.0,0.623
633.0,0.6431
634.0,0.6377
635.0,0.6481
636.0,0.6401
637.0,0.6509
638.0,0.6578
639.0,0.6508
640.0,0.6449
641.0,0.6447
642.0,0.6422
643.0,0.6508
644.0,0.6491
645.0,0.6499
646.0,0.6338
647.0,0.624
648.0,0.6245
649.0,0.6122
650.0,0.6181
651.0,0.6454
652.0,0.6155
653.0,0.637
654.0,0.6302
655.0,0.6052
656.0,0.5374
657.0,0.552
658.0,0.6196
659.0,0.6244
660.0,0.6272
661.0,0.6317
662.0,0.6324
663.0,0.6201
664.0,0.6283
665.0,0.6294
666.0,0.6302
667.0,0.6299
668.0,0.6306
669.0,0.6405
670.0,0.6379
671.0,0.6379
672.0,0.6325
673.0,0.6422
674.0,0.6399
675.0,0.6343
676.0,0.6387
677.0,0.6325
678.0,0.6344
679.0,0.6243
680.0,0.6293
681.0,0.6252
682.0,0.6244
683.0,0.6233
684.0,0.6202
685.0,0.6256
686.0,0.6217
687.0,0.3775
688.0,0.4587
689.0,0.4609
690.0,0.489
691.0,0.5212
692.0,0.5454
693.0,0.5405
694.0,0.5363
695.0,0.5629
696.0,0.5638
697.0,0.6036
698.0,0.5941
699.0,0.5764
700.0,0.5693
701.0,0.5623
702.0,0.5675
703.0,0.5687
704.0,0.5891
705.0,0.5899
706.0,0.5903
707.0,0.591
708.0,0.5922
709.0,0.5944
710.0,0.5937
711.0,0.5934
712.0,0.5922
713.0,0.5857
714.0,0.588
715.0,0.5681
716.0,0.568
717.0,0.4798
718.0,0.4391
719.0,0.4011
720.0,0.4189
721.0,0.4701
722.0,0.5461
723.0,0.5042
724.0,0.4493
725.0,0.4404
726.0,0.4616
727.0,0.4714
728.0,0.4387
729.0,0.4597
730.0,0.4859
731.0,0.4638
732.0,0.5009
733.0,0.5347
734.0,0.5488
735.0,0.5367
736.0,0.536
737.0,0.5381
738.0,0.5496
739.0,0.5388
740.0,0.5538
741.0,0.5489
742.0,0.55
743.0,0.5642
744.0,0.563
745.0,0.5634
746.0,0.566
747.0,0.5673
748.0,0.5661
749.0,0.5597
750.0,0.5594
751.0,0.5538
752.0,0.5562
753.0,0.559
754.0,0.5603
755.0,0.5571
756.0,0.5569
757.0,0.5577
758.0,0.5507
759.0,0.5375
760.0,0.06024
761.0,0.02742
762.0,0.2379
763.0,0.1012
764.0,0.167
765.0,0.2378
766.0,0.3086
767.0,0.4073
768.0,0.4851
769.0,0.4988
770.0,0.5197
771.0,0.5256
772.0,0.5273
773.0,0.5311
774.0,0.5287
775.0,0.5248
776.0,0.5312
777.0,0.5242
778.0,0.521
779.0,0.5214
780.0,0.5186
781.0,0.5191
782.0,0.5224
783.0,0.5133
784.0,0.5159
785.0,0.5119
786.0,0.5174
787.0,0.5068
788.0,0.4998
789.0,0.4994
790.0,0.4839
791.0,0.4903
792.0,0.487
793.0,0.4789
794.0,0.4894
795.0,0.497
796.0,0.4787
797.0,0.4791
798.0,0.4961
799.0,0.4923
800.0,0.4831
801.0,0.4809
802.0,0.4795
803.0,0.4754
804.0,0.4764
805.0,0.4758
806.0,0.4907
807.0,0.4844
808.0,0.485
809.0,0.4748
810.0,0.4701
811.0,0.469
812.0,0.4536
813.0,0.443
814.0,0.3833
815.0,0.3813
816.0,0.3541
817.0,0.3612
818.0,0.3462
819.0,0.3926
820.0,0.3677
821.0,0.4377
822.0,0.4239
823.0,0.276
824.0,0.4087
825.0,0.43
826.0,0.4112
827.0,0.4365
828.0,0.3626
829.0,0.4092
830.0,0.4031
831.0,0.4047
832.0,0.3909
833.0,0.4195
834.0,0.4022
835.0,0.4473
836.0,0.4246
837.0,0.4488
838.0,0.433
839.0,0.4424
840.0,0.4525
841.0,0.4453
842.0,0.4475
843.0,0.4484
844.0,0.4415
845.0,0.4573
846.0,0.4555
847.0,0.4474
848.0,0.4441
849.0,0.4315
850.0,0.4135
851.0,0.4372
852.0,0.4344
853.0,0.4186
854.0,0.361
855.0,0.3972
856.0,0.4338
857.0,0.4439
858.0,0.4404
859.0,0.4411
860.0,0.442
861.0,0.4395
862.0,0.4465
863.0,0.4571
864.0,0.4343
865.0,0.4305
866.0,0.3871
867.0,0.404
868.0,0.4396
869.0,0.4305
870.0,0.4428
871.0,0.4368
872.0,0.4353
873.0,0.4344
874.0,0.4293
875.0,0.4205
876.0,0.4249
877.0,0.4292
878.0,0.4338
879.0,0.4271
880.0,0.418
881.0,0.4114
882.0,0.4202
883.0,0.4218
884.0,0.4198
885.0,0.4229
886.0,0.4021
887.0,0.4071
888.0,0.4126
889.0,0.4182
890.0,0.4136
891.0,0.4135
892.0,0.4001
893.0,0.3861
894.0,0.3694
895.0,0.3451
896.0,0.3237
897.0,0.2732
898.0,0.3007
899.0,0.2231
900.0,0.311
901.0,0.2339
902.0,0.2821
903.0,0.2823
904.0,0.3666
905.0,0.3524
906.0,0.3285
907.0,0.2592
908.0,0.2657
909.0,0.2911
910.0,0.2512
911.0,0.272
912.0,0.2853
913.0,0.2547
914.0,0.2537
915.0,0.2749
916.0,0.2315
917.0,0.3001
918.0,0.2369
919.0,0.3075
920.0,0.3146
921.0,0.3274
922.0,0.2881
923.0,0.3167
924.0,0.2945
925.0,0.2883
926.0,0.2909
927.0,0.3302
928.0,0.2293
929.0,0.2058
930.0,0.1563
931.0,0.1486
932.0,0.1014
933.0,0.07968
934.0,0.03813
935.0,0.08374
936.0,0.04867
937.0,0.04903
938.0,0.06165
939.0,0.1439
940.0,0.1772
941.0,0.1283
942.0,0.1517
943.0,0.09561
944.0,0.1047
945.0,0.1334
946.0,0.06234
947.0,0.1325
948.0,0.09671
949.0,0.1829
950.0,0.04281
951.0,0.1811
952.0,0.09009
953.0,0.1211
954.0,0.1539
955.0,0.1231
956.0,0.1235
957.0,0.08967
958.0,0.1819
959.0,0.1382
960.0,0.1549
961.0,0.1788
962.0,0.1687
963.0,0.1989
964.0,0.1808
965.0,0.1983
966.0,0.1975
967.0,0.1961
968.0,0.2791
969.0,0.2896
970.0,0.2641
971.0,0.3094
972.0,0.2946
973.0,0.2493
974.0,0.2358
975.0,0.2474
976.0,0.231
977.0,0.2708
978.0,0.2539
979.0,0.2681
980.0,0.2508
981.0,0.3079
982.0,0.2917
983.0,0.2786
984.0,0.3203
985.0,0.2906
986.0,0.3279
987.0,0.3192
988.0,0.3188
989.0,0.3281
990.0,0.3168
991.0,0.3288
992.0,0.331
993.0,0.3214
994.0,0.3311
995.0,0.331
996.0,0.3292
997.0,0.3298
998.0,0.3282
999.0,0.327
1000.0,0.3242
1001.0,0.3289
1002.0,0.3177
1003.0,0.3229
1004.0,0.3145
1005.0,0.3037
1006.0,0.3152
1007.0,0.3221
1008.0,0.3199
1009.0,0.3178
1010.0,0.3162
1011.0,0.3205
1012.0,0.3173
1013.0,0.3198
1014.0,0.3176
1015.0,0.3154
1016.0,0.314
1017.0,0.3147
1018.0,0.3137
1019.0,0.3063
1020.0,0.312
1021.0,0.3117
1022.0,0.309
1023.0,0.3122
1024.0,0.3073
1025.0,0.3123
1026.0,0.3107
1027.0,0.31
1028.0,0.3093
1029.0,0.3056
1030.0,0.308
1031.0,0.3066
1032.0,0.3058
1033.0,0.3012
1034.0,0.3012
1035.0,0.3022
1036.0,0.3037
1037.0,0.2988
1038.0,0.3
1039.0,0.2998
1040.0,0.2986
1041.0,0.2997
1042.0,0.2976
1043.0,0.2966
1044.0,0.2976
1045.0,0.2935
1046.0,0.2902
1047.0,0.2928
1048.0,0.2943
1049.0,0.2932
1050.0,0.2918
1051.0,0.2913
1052.0,0.29
1053.0,0.2876
1054.0,0.2881
1055.0,0.2882
1056.0,0.287
1057.0,0.286
1058.0,0.2789
1059.0,0.279
1060.0,0.2786
1061.0,0.2782
1062.0,0.2795
1063.0,0.2766
1064.0,0.2799
1065.0,0.2776
1066.0,0.2724
1067.0,0.2758
1068.0,0.2696
1069.0,0.2614
1070.0,0.2701
1071.0,0.275
1072.0,0.2713
1073.0,0.2675
1074.0,0.2752
1075.0,0.2592
1076.0,0.2748
1077.0,0.2687
1078.0,0.2631
1079.0,0.2708
1080.0,0.2646
1081.0,0.255
1082.0,0.261
1083.0,0.2623
1084.0,0.2539
1085.0,0.2654
1086.0,0.2391
1087.0,0.2489
1088.0,0.2616
1089.0,0.2515
1090.0,0.2448
1091.0,0.2602
1092.0,0.26
1093.0,0.2146
1094.0,0.2371
1095.0,0.2242
1096.0,0.213
1097.0,0.254
1098.0,0.2089
1099.0,0.2188
1100.0,0.201
1101.0,0.2043
1102.0,0.1935
1103.0,0.1905
1104.0,0.1909
1105.0,0.2133
1106.0,0.1536
1107.0,0.2007
1108.0,0.1645
1109.0,0.1659
1110.0,0.198
1111.0,0.1268
1112.0,0.165
1113.0,0.09754
1114.0,0.1096
1115.0,0.09044
1116.0,0.06795
1117.0,0.02079
1118.0,0.07522
1119.0,0.03373
1120.0,0.04208
1121.0,0.05791
1122.0,0.0214
1123.0,0.03819
1124.0,0.03218
1125.0,0.04287
1126.0,0.01208
1127.0,0.04863
1128.0,0.02589
1129.0,0.02786
1130.0,0.01739
1131.0,0.1005
1132.0,0.07722
1133.0,0.04449
1134.0,0.009209
1135.0,0.003589
1136.0,0.03558
1137.0,0.09704
1138.0,0.06756
1139.0,0.1099
1140.0,0.08834
1141.0,0.0643
1142.0,0.07573
1143.0,0.1114
1144.0,0.03471
1145.0,0.04297
1146.0,0.04628
1147.0,0.01341
1148.0,0.09611
1149.0,0.07409
1150.0,0.03797
1151.0,0.06701
1152.0,0.08565
1153.0,0.08594
1154.0,0.04148
1155.0,0.1145
1156.0,0.1013
1157.0,0.1169
1158.0,0.1156
1159.0,0.1269
1160.0,0.1063
1161.0,0.136
1162.0,0.1362
1163.0,0.1927
1164.0,0.1621
1165.0,0.1499
1166.0,0.1512
1167.0,0.1662
1168.0,0.1673
1169.0,0.1723
1170.0,0.1898
1171.0,0.1849
1172.0,0.1898
1173.0,0.1894
1174.0,0.1291
1175.0,0.1864
1176.0,0.2082
1177.0,0.1976
1178.0,0.1439
1179.0,0.21
1180.0,0.1838
1181.0,0.1899
1182.0,0.126
1183.0,0.1878
1184.0,0.1743
1185.0,0.1667
1186.0,0.2026
1187.0,0.1914
1188.0,0.1274
1189.0,0.1781
1190.0,0.1983
1191.0,0.1853
1192.0,0.2013
1193.0,0.1919
1194.0,0.1985
1195.0,0.1857
1196.0,0.1776
1197.0,0.1996
1198.0,0.1814
1199.0,0.15
1200.0,0.1894
1201.0,0.1811
1202.0,0.1812
1203.0,0.1792
1204.0,0.1547
1205.0,0.1867
1206.0,0.2084
1207.0,0.1802
1208.0,0.1787
1209.0,0.1826
1210.0,0.1912
1211.0,0.1805
1212.0,0.1762
1213.0,0.2005
1214.0,0.1813
1215.0,0.1776
1216.0,0.2
1217.0,0.194
1218.0,0.1983
1219.0,0.1955
1220.0,0.1986
1221.0,0.2011
1222.0,0.1955
1223.0,0.1933
1224.0,0.1914
1225.0,0.1997
1226.0,0.2016
1227.0,0.1838
1228.0,0.2031
1229.0,0.2016
1230.0,0.1978
1231.0,0.2048
1232.0,0.2036
1233.0,0.1947
1234.0,0.205
1235.0,0.2035
1236.0,0.2052
1237.0,0.2015
1238.0,0.2045
1239.0,0.2018
1240.0,0.2027
1241.0,0.2013
1242.0,0.2013
1243.0,0.1996
1244.0,0.2009
1245.0,0.2019
1246.0,0.2007
1247.0,0.1998
1248.0,0.1994
1249.0,0.2003
1250.0,0.1989
1251.0,0.1961
1252.0,0.1965
1253.0,0.1943
1254.0,0.1918
1255.0,0.1961
1256.0,0.1894
1257.0,0.1881
1258.0,0.1926
1259.0,0.1838
1260.0,0.185
1261.0,0.1723
1262.0,0.166
1263.0,0.1662
1264.0,0.1507
1265.0,0.1652
1266.0,0.1574
1267.0,0.1613
1268.0,0.1512
1269.0,0.08289
1270.0,0.1602
1271.0,0.172
1272.0,0.1729
1273.0,0.1708
1274.0,0.1717
1275.0,0.1746
1276.0,0.1767
1277.0,0.1784
1278.0,0.1828
1279.0,0.181
1280.0,0.1788
1281.0,0.1711
1282.0,0.1655
1283.0,0.1781
1284.0,0.1822
1285.0,0.1836
1286.0,0.1864
1287.0,0.1828
1288.0,0.183
1289.0,0.1758
1290.0,0.1815
1291.0,0.1843
1292.0,0.1705
1293.0,0.1801
1294.0,0.1787
1295.0,0.177
1296.0,0.1674
1297.0,0.1571
1298.0,0.1717
1299.0,0.1805
1300.0,0.1485
1301.0,0.1539
1302.0,0.1712
1303.0,0.147
1304.0,0.1214
1305.0,0.1674
1306.0,0.1671
1307.0,0.1255
1308.0,0.148
1309.0,0.1653
1310.0,0.1228
1311.0,0.1409
1312.0,0.1365
1313.0,0.133
1314.0,0.1177
1315.0,0.1152
1316.0,0.1379
1317.0,0.1302
1318.0,0.1432
1319.0,0.1071
1320.0,0.1048
1321.0,0.1237
1322.0,0.1241
1323.0,0.08943
1324.0,0.1052
1325.0,0.1356
1326.0,0.1139
1327.0,0.1079
1328.0,0.09175
1329.0,0.06544
1330.0,0.08695
1331.0,0.04856
1332.0,0.05141
1333.0,0.07236
1334.0,0.06355
1335.0,0.08891
1336.0,0.06815
1337.0,0.05938
1338.0,0.06413
1339.0,0.06442
1340.0,0.06379
1341.0,0.05965
1342.0,0.06293
1343.0,0.03786
1344.0,0.02307
1345.0,0.03325
1346.0,0.01384
1347.0,0.01361
1348.0,0.0005966
1349.0,0.002378
1350.0,0.002661
1351.0,0.0004513
1352.0,7.933e-05
1353.0,2.742e-06
1354.0,1.251e-05
1355.0,4.253e-08
1356.0,1.313e-06
1357.0,2.009e-06
1358.0,5.218e-08
1359.0,3.383e-09
1360.0,1.883e-08
1361.0,5.684e-12
1362.0,9.907e-15
1363.0,1.966e-08
1364.0,8.305e-09
1365.0,1.965e-15
1366.0,1.02e-07
1367.0,4.962e-08
1368.0,7.954e-18
1369.0,3.044e-09
1370.0,1.136e-09
1371.0,4.781e-11
1372.0,2.769e-08
1373.0,8.59e-07
1374.0,5.42e-06
1375.0,9.385e-06
1376.0,1.148e-05
1377.0,4.948e-06
1378.0,5.334e-05
1379.0,2.083e-06
1380.0,2.434e-06
1381.0,5.503e-08
1382.0,2.296e-08
1383.0,2.82e-10
1384.0,3.045e-09
1385.0,3.044e-08
1386.0,1.663e-08
1387.0,4.486e-06
1388.0,9.592e-08
1389.0,2.203e-05
1390.0,1.855e-05
1391.0,1.184e-05
1392.0,7.238e-07
1393.0,4.486e-06
1394.0,1.36e-06
1395.0,7.461e-09
1396.0,9.666e-12
1397.0,1.587e-06
1398.0,5.73e-05
1399.0,3.704e-05
1400.0,2.958e-12
1401.0,1.966e-11
1402.0,0.0001643
1403.0,0.0001881
1404.0,5.49e-05
1405.0,2.85e-09
1406.0,0.0001218
1407.0,1.267e-05
1408.0,0.0001028
1409.0,2.673e-05
1410.0,2.627e-05
1411.0,0.0001687
1412.0,0.0002573
1413.0,0.003692
1414.0,2.151e-05
1415.0,9.224e-06
1416.0,0.007686
1417.0,0.001863
1418.0,0.001981
1419.0,0.0002917
1420.0,0.0012
1421.0,0.001347
1422.0,0.0101
1423.0,0.001852
1424.0,0.003623
1425.0,0.005039
1426.0,0.006362
1427.0,0.01309
1428.0,0.0005387
1429.0,0.00903
1430.0,0.0174
1431.0,0.01963
1432.0,0.0004172
1433.0,0.01181
1434.0,0.005684
1435.0,0.004619
1436.0,0.01051
1437.0,0.008113
