interpolation:linear
wavelength,value
280.0,9.301e-22
280.5,2.9990000000000004e-20
281.0,1.597e-19
281.5,5.272e-19
282.0,9.219e-19
282.5,2.286e-18
283.0,7.201e-18
283.5,1.169e-17
284.0,1.895e-16
284.5,5.484e-16
285.0,1.055e-15
285.5,5.108e-15
286.0,2.043e-14
286.5,9.059e-14
287.0,2.575e-13
287.5,9.814e-13
288.0,3.072e-12
288.5,9.55e-12
289.0,2.586e-11
289.5,7.892e-11
290.0,2.204e-10
290.5,4.509e-10
291.0,9.706e-10
291.5,2.791e-09
292.0,5.918e-09
292.5,8.457e-09
293.0,1.853e-08
293.5,4.632e-08
294.0,7.369e-08
294.5,9.728e-08
295.0,1.671e-07
295.5,3.679e-07
296.0,6.677e-07
296.5,9.63e-07
297.0,1.341e-06
297.5,3.79e-06
298.0,6.293e-06
298.5,6.627e-06
299.0,1.536e-05
299.5,2.816e-05
300.0,3.299e-05
300.5,5.131e-05
301.0,0.0001058
301.5,0.0001938
302.0,0.0001802
302.5,0.0003624
303.0,0.0006773
303.5,0.0008772
304.0,0.0008432
304.5,0.001334
305.0,0.002196
305.5,0.002649
306.0,0.002616
306.5,0.003367
307.0,0.005374
307.5,0.007662
308.0,0.008187
308.5,0.01001
309.0,0.01008
309.5,0.01205
310.0,0.01235
310.5,0.0202
311.0,0.02578
311.5,0.02507
312.0,0.02596
312.5,0.03233
313.0,0.03549
313.5,0.0341
314.0,0.04382
314.5,0.04029
315.0,0.0533
315.5,0.04383
316.0,0.03942
316.5,0.05804
317.0,0.07204
317.5,0.07446
318.0,0.05909
318.5,0.07578
319.0,0.09141
319.5,0.07263
320.0,0.08744
320.5,0.1131
321.0,0.1036
321.5,0.09969
322.0,0.103
322.5,0.0898
323.0,0.09128
323.5,0.1142
324.0,0.1338
324.5,0.1348
325.0,0.1154
325.5,0.1508
326.0,0.1851
326.5,0.1873
327.0,0.1861
327.5,0.1789
328.0,0.1573
328.5,0.168
329.0,0.2038
329.5,0.2323
330.0,0.2337
330.5,0.1853
331.0,0.1882
331.5,0.1928
332.0,0.2105
332.5,0.2093
333.0,0.2082
333.5,0.187
334.0,0.1914
334.5,0.2229
335.0,0.2106
335.5,0.2462
336.0,0.1704
336.5,0.1991
337.0,0.1628
337.5,0.2023
338.0,0.199
338.5,0.23
339.0,0.2279
339.5,0.2192
340.0,0.2575
340.5,0.2323
341.0,0.2268
341.5,0.2084
342.0,0.2493
342.5,0.2334
343.0,0.2566
343.5,0.2417
344.0,0.1786
344.5,0.1804
345.0,0.2391
345.5,0.2444
346.0,0.2078
346.5,0.2355
347.0,0.2528
347.5,0.2045
348.0,0.2333
348.5,0.2334
349.0,0.2167
349.5,0.2146
350.0,0.2656
350.5,0.2803
351.0,0.2504
351.5,0.2433
352.0,0.2616
352.5,0.2043
353.0,0.2575
353.5,0.2755
354.0,0.2862
354.5,0.2903
355.0,0.2894
355.5,0.2616
356.0,0.2739
356.5,0.2339
357.0,0.1933
357.5,0.2368
358.0,0.1877
358.5,0.1605
359.0,0.2245
359.5,0.2862
360.0,0.3035
360.5,0.2427
361.0,0.2214
361.5,0.2551
362.0,0.2208
362.5,0.3059
363.0,0.2749
363.5,0.2534
364.0,0.3101
364.5,0.2652
365.0,0.2702
365.5,0.3393
366.0,0.3597
366.5,0.3382
367.0,0.3295
367.5,0.3421
368.0,0.2995
368.5,0.3024
369.0,0.3267
369.5,0.3484
370.0,0.3716
370.5,0.2886
371.0,0.3085
371.5,0.3862
372.0,0.2564
372.5,0.3076
373.0,0.3131
373.5,0.2038
374.0,0.2963
374.5,0.2455
375.0,0.2388
375.5,0.3566
376.0,0.2957
376.5,0.3066
377.0,0.3248
377.5,0.3801
378.0,0.4122
378.5,0.3897
379.0,0.3217
379.5,0.2939
380.0,0.3057
380.5,0.3705
381.0,0.3715
381.5,0.2947
382.0,0.2619
382.5,0.2234
383.0,0.207
383.5,0.1995
384.0,0.2201
384.5,0.324
385.0,0.3214
385.5,0.2995
386.0,0.2567
386.5,0.3373
387.0,0.2804
387.5,0.3151
388.0,0.2911
388.5,0.2879
389.0,0.3109
389.5,0.3767
390.0,0.3782
390.5,0.3483
391.0,0.4101
391.5,0.4185
392.0,0.3526
392.5,0.3159
393.0,0.1759
393.5,0.1279
394.0,0.2604
394.5,0.3312
395.0,0.4043
395.5,0.4108
396.0,0.3564
396.5,0.2085
397.0,0.1565
397.5,0.3184
398.0,0.446
398.5,0.4612
399.0,0.4998
399.5,0.4984
400.0,0.5176
401.0,0.5236
402.0,0.553
403.0,0.5259
404.0,0.5182
405.0,0.5184
406.0,0.5105
407.0,0.5028
408.0,0.5226
409.0,0.5598
410.0,0.4895
411.0,0.5307
412.0,0.5706
413.0,0.5567
414.0,0.564
415.0,0.566
416.0,0.5764
417.0,0.5626
418.0,0.5525
419.0,0.5602
420.0,0.558
421.0,0.5842
422.0,0.5556
423.0,0.543
424.0,0.5746
425.0,0.574
426.0,0.5597
427.0,0.5495
428.0,0.5355
429.0,0.5078
430.0,0.4447
431.0,0.4408
432.0,0.5696
433.0,0.5731
434.0,0.5324
435.0,0.5561
436.0,0.6272
437.0,0.6193
438.0,0.5643
439.0,0.5834
440.0,0.6024
441.0,0.6246
442.0,0.6702
443.0,0.6527
444.0,0.6673
445.0,0.653
446.0,0.6238
447.0,0.675
448.0,0.6853
449.0,0.6888
450.0,0.7084
451.0,0.735
452.0,0.7084
453.0,0.6666
454.0,0.6964
455.0,0.7008
456.0,0.7177
457.0,0.7298
458.0,0.7047
459.0,0.7013
460.0,0.7032
461.0,0.7195
462.0,0.7255
463.0,0.7206
464.0,0.7093
465.0,0.701
466.0,0.7082
467.0,0.6952
468.0,0.7034
469.0,0.7072
470.0,0.6846
471.0,0.6839
472.0,0.7207
473.0,0.7114
474.0,0.7121
475.0,0.7178
476.0,0.6958
477.0,0.6974
478.0,0.717
479.0,0.713
480.0,0.7147
481.0,0.7285
482.0,0.7329
483.0,0.7247
484.0,0.7102
485.0,0.677
486.0,0.5922
487.0,0.6209
488.0,0.6812
489.0,0.6832
490.0,0.719
491.0,0.7069
492.0,0.6677
493.0,0.6896
494.0,0.6966
495.0,0.7026
496.0,0.707
497.0,0.7179
498.0,0.6843
499.0,0.6929
500.0,0.6725
501.0,0.6598
502.0,0.6499
503.0,0.6757
504.0,0.6565
505.0,0.6817
506.0,0.7036
507.0,0.6697
508.0,0.6494
509.0,0.6682
510.0,0.665
511.0,0.6833
512.0,0.6909
513.0,0.6541
514.0,0.6498
515.0,0.6433
516.0,0.6417
517.0,0.5703
518.0,0.5995
519.0,0.6288
520.0,0.6516
521.0,0.6577
522.0,0.6581
523.0,0.6462
524.0,0.669
525.0,0.6763
526.0,0.6459
527.0,0.6083
528.0,0.643
529.0,0.6775
530.0,0.6675
531.0,0.6773
532.0,0.6539
533.0,0.6348
534.0,0.6537
535.0,0.6682
536.0,0.6746
537.0,0.6482
538.0,0.6598
539.0,0.6542
540.0,0.6271
541.0,0.6307
542.0,0.6501
543.0,0.6438
544.0,0.6544
545.0,0.6525
546.0,0.6549
547.0,0.655
548.0,0.6474
549.0,0.6496
550.0,0.6573
551.0,0.6494
552.0,0.6539
553.0,0.6422
554.0,0.6575
555.0,0.6586
556.0,0.65
557.0,0.6296
558.0,0.6246
559.0,0.6126
560.0,0.62
561.0,0.6277
562.0,0.6228
563.0,0.6394
564.0,0.6216
565.0,0.616
566.0,0.6066
567.0,0.6177
568.0,0.6112
569.0,0.5946
570.0,0.5947
571.0,0.5917
572.0,0.6045
573.0,0.6107
574.0,0.6085
575.0,0.5966
576.0,0.5912
577.0,0.5979
578.0,0.5895
579.0,0.5928
580.0,0.6055
581.0,0.6098
582.0,0.6223
583.0,0.6246
584.0,0.6306
585.0,0.6155
586.0,0.6029
587.0,0.6155
588.0,0.598
589.0,0.5248
590.0,0.5492
591.0,0.5842
592.0,0.5751
593.0,0.5858
594.0,0.5808
595.0,0.5647
596.0,0.591
597.0,0.5836
598.0,0.5833
599.0,0.5844
600.0,0.5863
601.0,0.5823
602.0,0.5784
603.0,0.5884
604.0,0.5983
605.0,0.5955
606.0,0.5935
607.0,0.5999
608.0,0.5937
609.0,0.5951
610.0,0.5913
611.0,0.5946
612.0,0.5931
613.0,0.5859
614.0,0.5783
615.0,0.5912
616.0,0.5721
617.0,0.5711
618.0,0.5933
619.0,0.5874
620.0,0.5912
621.0,0.5914
622.0,0.5841
623.0,0.5749
624.0,0.5654
625.0,0.5641
626.0,0.5724
627.0,0.5779
628.0,0.5284
629.0,0.5603
630.0,0.547
631.0,0.5632
632.0,0.5571
633.0,0.5757
634.0,0.5713
635.0,0.5809
636.0,0.5739
637.0,0.5838
638.0,0.5903
639.0,0.5842
640.0,0.5791
641.0,0.5791
642.0,0.5769
643.0,0.5847
644.0,0.5833
645.0,0.584
646.0,0.569
647.0,0.5592
648.0,0.5596
649.0,0.5485
650.0,0.5551
651.0,0.5799
652.0,0.5516
653.0,0.5724
654.0,0.5664
655.0,0.5432
656.0,0.4829
657.0,0.4962
658.0,0.5573
659.0,0.5618
660.0,0.5644
661.0,0.5685
662.0,0.5689
663.0,0.5579
664.0,0.5657
665.0,0.567
666.0,0.5678
667.0,0.5678
668.0,0.5685
669.0,0.5775
670.0,0.5752
671.0,0.5753
672.0,0.5706
673.0,0.5794
674.0,0.5774
675.0,0.5723
676.0,0.5764
677.0,0.5708
678.0,0.5726
679.0,0.5635
680.0,0.5681
681.0,0.5644
682.0,0.5637
683.0,0.5627
684.0,0.5599
685.0,0.5649
686.0,0.5613
687.0,0.3248
688.0,0.4023
689.0,0.4045
690.0,0.4319
691.0,0.4635
692.0,0.4876
693.0,0.483
694.0,0.4795
695.0,0.5054
696.0,0.5063
697.0,0.5445
698.0,0.5358
699.0,0.5182
700.0,0.5118
701.0,0.5048
702.0,0.5102
703.0,0.5114
704.0,0.5307
705.0,0.5315
706.0,0.5321
707.0,0.533
708.0,0.534
709.0,0.5367
710.0,0.5357
711.0,0.5356
712.0,0.5349
713.0,0.5286
714.0,0.5309
715.0,0.5122
716.0,0.512
717.0,0.4266
718.0,0.3898
719.0,0.3556
720.0,0.3708
721.0,0.4196
722.0,0.4912
723.0,0.4517
724.0,0.4002
725.0,0.3915
726.0,0.4106
727.0,0.4209
728.0,0.3897
729.0,0.4105
730.0,0.4335
731.0,0.4134
732.0,0.4486
733.0,0.481
734.0,0.4943
735.0,0.4831
736.0,0.4823
737.0,0.4842
738.0,0.4962
739.0,0.4864
740.0,0.5004
741.0,0.4963
742.0,0.4976
743.0,0.5105
744.0,0.5096
745.0,0.5101
746.0,0.5124
747.0,0.5137
748.0,0.5126
749.0,0.5068
750.0,0.5066
751.0,0.5015
752.0,0.5037
753.0,0.5063
754.0,0.5074
755.0,0.5045
756.0,0.5044
757.0,0.5051
758.0,0.4987
759.0,0.4858
760.0,0.04434
761.0,0.01882
762.0,0.1993
763.0,0.07815
764.0,0.1352
765.0,0.1992
766.0,0.266
767.0,0.3594
768.0,0.4351
769.0,0.449
770.0,0.4696
771.0,0.4758
772.0,0.4776
773.0,0.4811
774.0,0.479
775.0,0.4755
776.0,0.4813
777.0,0.475
778.0,0.4721
779.0,0.4725
780.0,0.4699
781.0,0.4704
782.0,0.4734
783.0,0.4652
784.0,0.4676
785.0,0.4639
786.0,0.4688
787.0,0.4585
788.0,0.4517
789.0,0.4514
790.0,0.4364
791.0,0.4431
792.0,0.4403
793.0,0.4329
794.0,0.4434
795.0,0.45
796.0,0.432
797.0,0.4323
798.0,0.449
799.0,0.4454
800.0,0.4366
801.0,0.4343
802.0,0.4331
803.0,0.4292
804.0,0.4303
805.0,0.4302
806.0,0.4443
807.0,0.4385
808.0,0.4391
809.0,0.4293
810.0,0.4247
811.0,0.423
812.0,0.4081
813.0,0.3982
814.0,0.3418
815.0,0.3401
816.0,0.3156
817.0,0.3221
818.0,0.3081
819.0,0.3518
820.0,0.3286
821.0,0.3946
822.0,0.3816
823.0,0.2433
824.0,0.3666
825.0,0.3876
826.0,0.3696
827.0,0.3935
828.0,0.3236
829.0,0.368
830.0,0.3623
831.0,0.3637
832.0,0.3508
833.0,0.378
834.0,0.3613
835.0,0.4042
836.0,0.3822
837.0,0.4056
838.0,0.3906
839.0,0.4
840.0,0.4093
841.0,0.4025
842.0,0.405
843.0,0.4064
844.0,0.3998
845.0,0.4146
846.0,0.413
847.0,0.4058
848.0,0.4026
849.0,0.3911
850.0,0.3748
851.0,0.3961
852.0,0.3936
853.0,0.3795
854.0,0.3272
855.0,0.3602
856.0,0.3933
857.0,0.4026
858.0,0.3994
859.0,0.4001
860.0,0.401
861.0,0.3987
862.0,0.4051
863.0,0.4147
864.0,0.394
865.0,0.3906
866.0,0.3512
867.0,0.3666
868.0,0.3989
869.0,0.3907
870.0,0.4018
871.0,0.3964
872.0,0.395
873.0,0.3942
874.0,0.3895
875.0,0.3816
876.0,0.3855
877.0,0.3895
878.0,0.3936
879.0,0.3876
880.0,0.3793
881.0,0.3732
882.0,0.3811
883.0,0.3827
884.0,0.3808
885.0,0.3837
886.0,0.3643
887.0,0.3692
888.0,0.374
889.0,0.3795
890.0,0.3749
891.0,0.375
892.0,0.3622
893.0,0.3489
894.0,0.3326
895.0,0.3091
896.0,0.2896
897.0,0.2426
898.0,0.2679
899.0,0.1967
900.0,0.2783
901.0,0.2062
902.0,0.2516
903.0,0.2507
904.0,0.33
905.0,0.3167
906.0,0.2947
907.0,0.2296
908.0,0.2359
909.0,0.2597
910.0,0.2219
911.0,0.2419
912.0,0.2539
913.0,0.2248
914.0,0.2244
915.0,0.243
916.0,0.2043
917.0,0.2671
918.0,0.2089
919.0,0.2745
920.0,0.2825
921.0,0.2939
922.0,0.257
923.0,0.2844
924.0,0.2622
925.0,0.2568
926.0,0.2589
927.0,0.2955
928.0,0.2006
929.0,0.1788
930.0,0.1338
931.0,0.1273
932.0,0.08481
933.0,0.06579
934.0,0.0297
935.0,0.06986
936.0,0.03943
937.0,0.03966
938.0,0.05032
939.0,0.1232
940.0,0.1532
941.0,0.1091
942.0,0.13
943.0,0.08051
944.0,0.0897
945.0,0.1139
946.0,0.05134
947.0,0.1126
948.0,0.08199
949.0,0.1573
950.0,0.0344
951.0,0.156
952.0,0.07535
953.0,0.1029
954.0,0.1325
955.0,0.1048
956.0,0.1069
957.0,0.07485
958.0,0.1594
959.0,0.119
960.0,0.1334
961.0,0.1557
962.0,0.1468
963.0,0.1745
964.0,0.1583
965.0,0.174
966.0,0.1731
967.0,0.1717
968.0,0.2502
969.0,0.2588
970.0,0.2355
971.0,0.2784
972.0,0.2645
973.0,0.2214
974.0,0.2092
975.0,0.2203
976.0,0.2043
977.0,0.2425
978.0,0.2262
979.0,0.2395
980.0,0.2237
981.0,0.2771
982.0,0.2616
983.0,0.2494
984.0,0.2894
985.0,0.2606
986.0,0.297
987.0,0.2882
988.0,0.2879
989.0,0.2976
990.0,0.2861
991.0,0.2982
992.0,0.3002
993.0,0.2907
994.0,0.3004
995.0,0.3004
996.0,0.2987
997.0,0.2993
998.0,0.2978
999.0,0.2968
1000.0,0.294
1001.0,0.2985
1002.0,0.2875
1003.0,0.293
1004.0,0.2851
1005.0,0.2757
1006.0,0.286
1007.0,0.2923
1008.0,0.2902
1009.0,0.2881
1010.0,0.2866
1011.0,0.2908
1012.0,0.2878
1013.0,0.2903
1014.0,0.2883
1015.0,0.2863
1016.0,0.2849
1017.0,0.2855
1018.0,0.2848
1019.0,0.2777
1020.0,0.2831
1021.0,0.2829
1022.0,0.2804
1023.0,0.2833
1024.0,0.2785
1025.0,0.2834
1026.0,0.2819
1027.0,0.2814
1028.0,0.2807
1029.0,0.2773
1030.0,0.2795
1031.0,0.2783
1032.0,0.2776
1033.0,0.2734
1034.0,0.2734
1035.0,0.2743
1036.0,0.2756
1037.0,0.2711
1038.0,0.2723
1039.0,0.2721
1040.0,0.271
1041.0,0.2719
1042.0,0.27
1043.0,0.2691
1044.0,0.27
1045.0,0.2663
1046.0,0.2633
1047.0,0.2656
1048.0,0.2669
1049.0,0.2659
1050.0,0.2646
1051.0,0.2641
1052.0,0.2629
1053.0,0.2607
1054.0,0.2611
1055.0,0.2611
1056.0,0.26
1057.0,0.2591
1058.0,0.2526
1059.0,0.2527
1060.0,0.2522
1061.0,0.2518
1062.0,0.2529
1063.0,0.2503
1064.0,0.2533
1065.0,0.2511
1066.0,0.2465
1067.0,0.2495
1068.0,0.2438
1069.0,0.2365
1070.0,0.2443
1071.0,0.249
1072.0,0.2454
1073.0,0.242
1074.0,0.2493
1075.0,0.234
1076.0,0.249
1077.0,0.243
1078.0,0.2376
1079.0,0.2455
1080.0,0.2393
1081.0,0.2302
1082.0,0.2363
1083.0,0.2376
1084.0,0.229
1085.0,0.24
1086.0,0.2152
1087.0,0.2248
1088.0,0.2369
1089.0,0.227
1090.0,0.2205
1091.0,0.2354
1092.0,0.2353
1093.0,0.1923
1094.0,0.2144
1095.0,0.2009
1096.0,0.1903
1097.0,0.23
1098.0,0.1864
1099.0,0.1955
1100.0,0.1789
1101.0,0.1821
1102.0,0.1719
1103.0,0.1688
1104.0,0.1692
1105.0,0.1904
1106.0,0.134
1107.0,0.1786
1108.0,0.1445
1109.0,0.1461
1110.0,0.1758
1111.0,0.1101
1112.0,0.1454
1113.0,0.08354
1114.0,0.09398
1115.0,0.07736
1116.0,0.05678
1117.0,0.01618
1118.0,0.06319
1119.0,0.02723
1120.0,0.03379
1121.0,0.04713
1122.0,0.01651
1123.0,0.03072
1124.0,0.02587
1125.0,0.03477
1126.0,0.00897
1127.0,0.03953
1128.0,0.02007
1129.0,0.02169
1130.0,0.01335
1131.0,0.08444
1132.0,0.0644
1133.0,0.0357
1134.0,0.006799
1135.0,0.002701
1136.0,0.02805
1137.0,0.081
1138.0,0.05616
1139.0,0.09462
1140.0,0.07488
1141.0,0.05348
1142.0,0.06356
1143.0,0.09492
1144.0,0.02829
1145.0,0.03447
1146.0,0.03712
1147.0,0.009934
1148.0,0.0817
1149.0,0.06215
1150.0,0.03125
1151.0,0.0557
1152.0,0.07227
1153.0,0.07335
1154.0,0.03337
1155.0,0.09853
1156.0,0.08653
1157.0,0.1012
1158.0,0.09997
1159.0,0.1104
1160.0,0.09194
1161.0,0.1194
1162.0,0.1194
1163.0,0.172
1164.0,0.1437
1165.0,0.1317
1166.0,0.1338
1167.0,0.1476
1168.0,0.1483
1169.0,0.153
1170.0,0.1695
1171.0,0.1651
1172.0,0.1702
1173.0,0.1693
1174.0,0.1133
1175.0,0.1671
1176.0,0.188
1177.0,0.1775
1178.0,0.1276
1179.0,0.1896
1180.0,0.1646
1181.0,0.1701
1182.0,0.111
1183.0,0.1684
1184.0,0.1557
1185.0,0.1483
1186.0,0.1823
1187.0,0.1716
1188.0,0.1119
1189.0,0.1595
1190.0,0.1785
1191.0,0.1656
1192.0,0.1814
1193.0,0.1725
1194.0,0.1787
1195.0,0.1663
1196.0,0.1586
1197.0,0.18
1198.0,0.1632
1199.0,0.1332
1200.0,0.1702
1201.0,0.1621
1202.0,0.1628
1203.0,0.1606
1204.0,0.1379
1205.0,0.1681
1206.0,0.1886
1207.0,0.1616
1208.0,0.1607
1209.0,0.1644
1210.0,0.1725
1211.0,0.1623
1212.0,0.1574
1213.0,0.1809
1214.0,0.1624
1215.0,0.1589
1216.0,0.1806
1217.0,0.1748
1218.0,0.1791
1219.0,0.1763
1220.0,0.1794
1221.0,0.1817
1222.0,0.1765
1223.0,0.1744
1224.0,0.1723
1225.0,0.1805
1226.0,0.1825
1227.0,0.1655
1228.0,0.184
1229.0,0.1825
1230.0,0.1788
1231.0,0.1858
1232.0,0.1846
1233.0,0.1758
1234.0,0.1861
1235.0,0.1846
1236.0,0.1862
1237.0,0.1826
1238.0,0.1856
1239.0,0.1832
1240.0,0.184
1241.0,0.1826
1242.0,0.1827
1243.0,0.1812
1244.0,0.1823
1245.0,0.1832
1246.0,0.1822
1247.0,0.1813
1248.0,0.1809
1249.0,0.1817
1250.0,0.1804
1251.0,0.1778
1252.0,0.1783
1253.0,0.176
1254.0,0.1736
1255.0,0.1778
1256.0,0.1713
1257.0,0.17
1258.0,0.1745
1259.0,0.1657
1260.0,0.1668
1261.0,0.1544
1262.0,0.1482
1263.0,0.1484
1264.0,0.1334
1265.0,0.1475
1266.0,0.1398
1267.0,0.1438
1268.0,0.134
1269.0,0.06917
1270.0,0.1427
1271.0,0.1543
1272.0,0.1552
1273.0,0.1532
1274.0,0.1541
1275.0,0.1569
1276.0,0.159
1277.0,0.1608
1278.0,0.1652
1279.0,0.1635
1280.0,0.1616
1281.0,0.1547
1282.0,0.15
1283.0,0.1614
1284.0,0.1651
1285.0,0.1663
1286.0,0.1691
1287.0,0.1655
1288.0,0.1658
1289.0,0.1586
1290.0,0.1644
1291.0,0.1671
1292.0,0.1535
1293.0,0.163
1294.0,0.1617
1295.0,0.1598
1296.0,0.1504
1297.0,0.1407
1298.0,0.1549
1299.0,0.1635
1300.0,0.1328
1301.0,0.1379
1302.0,0.1544
1303.0,0.1316
1304.0,0.1071
1305.0,0.151
1306.0,0.1505
1307.0,0.1114
1308.0,0.1328
1309.0,0.1486
1310.0,0.1088
1311.0,0.1261
1312.0,0.1219
1313.0,0.1184
1314.0,0.1042
1315.0,0.1016
1316.0,0.1231
1317.0,0.1159
1318.0,0.1282
1319.0,0.09402
1320.0,0.09239
1321.0,0.1098
1322.0,0.1097
1323.0,0.07757
1324.0,0.09244
1325.0,0.1208
1326.0,0.1005
1327.0,0.09501
1328.0,0.08023
1329.0,0.0559
1330.0,0.075
1331.0,0.04048
1332.0,0.04329
1333.0,0.06121
1334.0,0.05473
1335.0,0.07699
1336.0,0.05819
1337.0,0.05047
1338.0,0.05441
1339.0,0.05486
1340.0,0.05476
1341.0,0.05019
1342.0,0.05309
1343.0,0.03034
1344.0,0.01867
1345.0,0.02679
1346.0,0.01032
1347.0,0.009986
1348.0,0.0003726
1349.0,0.001542
1350.0,0.001771
1351.0,0.0002585
1352.0,3.715e-05
1353.0,1.114e-06
1354.0,5.716e-06
1355.0,1.393e-08
1356.0,5.322e-07
1357.0,8.123e-07
1358.0,1.73e-08
1359.0,9.174e-10
1360.0,5.744e-09
1361.0,1.537e-12
1362.0,3.158e-15
1363.0,5.386e-09
1364.0,2.35e-09
1365.0,8.808e-16
1366.0,2.925e-08
1367.0,1.545e-08
1368.0,6.148e-18
1369.0,8.622e-10
1370.0,3.014e-10
1371.0,1.239e-11
1372.0,8.708e-09
1373.0,3.127e-07
1374.0,2.226e-06
1375.0,3.704e-06
1376.0,5.289e-06
1377.0,2.232e-06
1378.0,2.445e-05
1379.0,9.47e-07
1380.0,1.003e-06
1381.0,2.185e-08
1382.0,6.987e-09
1383.0,8.271e-11
1384.0,8.276e-10
1385.0,1.056e-08
1386.0,4.71e-09
1387.0,1.642e-06
1388.0,3.809e-08
1389.0,9.519e-06
1390.0,7.868e-06
1391.0,4.994e-06
1392.0,3.045e-07
1393.0,1.997e-06
1394.0,4.779e-07
1395.0,2.431e-09
1396.0,2.46e-12
1397.0,6.744e-07
1398.0,2.561e-05
1399.0,1.678e-05
1400.0,7.932e-13
1401.0,4.954e-12
1402.0,9.267e-05
1403.0,0.0001012
1404.0,2.883e-05
1405.0,8.516e-10
1406.0,5.909e-05
1407.0,6.84e-06
1408.0,5.073e-05
1409.0,1.178e-05
1410.0,1.294e-05
1411.0,9.172e-05
1412.0,0.0001479
1413.0,0.002407
1414.0,1.08e-05
1415.0,4.427e-06
1416.0,0.005574
1417.0,0.00125
1418.0,0.001269
1419.0,0.0001836
1420.0,0.0007666
1421.0,0.000891
1422.0,0.00732
1423.0,0.001325
1424.0,0.002644
1425.0,0.003576
1426.0,0.004722
1427.0,0.01008
1428.0,0.0003299
1429.0,0.006736
1430.0,0.01364
1431.0,0.01553
1432.0,0.0002543
1433.0,0.009173
1434.0,0.004327
