interpolation:linear
wavelength,value
280.0,2.3920000000000003e-20
280.5,6.926e-19
281.0,3.562e-18
281.5,4.162e-19
282.0,1.688e-18
282.5,4.704e-18
283.0,1.557e-17
283.5,2.564e-17
284.0,4.07e-16
284.5,1.153e-15
285.0,1.986e-15
285.5,1.131e-14
286.0,4.706e-14
286.5,2.183e-13
287.0,6.332e-13
287.5,2.534e-12
288.0,7.331e-12
288.5,2.836e-11
289.0,9.275e-11
289.5,3.383e-10
290.0,1.079e-09
290.5,2.459e-09
291.0,5.981e-09
291.5,1.993e-08
292.0,5.484e-08
292.5,8.689e-08
293.0,2.18e-07
293.5,6.615e-07
294.0,1.222e-06
294.5,1.619e-06
295.0,3.218e-06
295.5,8.167e-06
296.0,1.582e-05
296.5,2.219e-05
297.0,3.01e-05
297.5,8.091e-05
298.0,0.0001277
298.5,0.0001286
299.0,0.0002838
299.5,0.0004711
300.0,0.0005186
300.5,0.0007517
301.0,0.001362
301.5,0.002178
302.0,0.001869
302.5,0.00356
303.0,0.006183
303.5,0.007616
304.0,0.007042
304.5,0.01008
305.0,0.0144
305.5,0.0159
306.0,0.01517
306.5,0.01844
307.0,0.02597
307.5,0.03286
308.0,0.03444
308.5,0.03969
309.0,0.03846
309.5,0.04255
310.0,0.04208
310.5,0.06762
311.0,0.08377
311.5,0.08041
312.0,0.07812
312.5,0.09326
313.0,0.1001
313.5,0.09814
314.0,0.1199
314.5,0.1031
315.0,0.1347
315.5,0.1144
316.0,0.0974
316.5,0.1368
317.0,0.17
317.5,0.178
318.0,0.1368
318.5,0.165
319.0,0.193
319.5,0.161
320.0,0.1952
320.5,0.2373
321.0,0.2058
321.5,0.1968
322.0,0.2157
322.5,0.1874
323.0,0.1832
323.5,0.2212
324.0,0.2574
324.5,0.2633
325.0,0.2297
325.5,0.291
326.0,0.3542
326.5,0.3512
327.0,0.3513
327.5,0.3409
328.0,0.3075
328.5,0.3181
329.0,0.376
329.5,0.4251
330.0,0.4301
330.5,0.3477
331.0,0.3554
331.5,0.3585
332.0,0.3832
332.5,0.3772
333.0,0.3772
333.5,0.3441
334.0,0.3529
334.5,0.4036
335.0,0.3773
335.5,0.4406
336.0,0.3049
336.5,0.3579
337.0,0.2947
337.5,0.3671
338.0,0.3558
338.5,0.4105
339.0,0.4062
339.5,0.3908
340.0,0.4593
340.5,0.4137
341.0,0.4036
341.5,0.3704
342.0,0.4426
342.5,0.4141
343.0,0.4554
343.5,0.4289
344.0,0.3169
344.5,0.3202
345.0,0.4235
345.5,0.4323
346.0,0.3674
346.5,0.4159
347.0,0.4466
347.5,0.3611
348.0,0.4116
348.5,0.4113
349.0,0.3815
349.5,0.3777
350.0,0.4672
350.5,0.4928
351.0,0.4403
351.5,0.428
352.0,0.4596
352.5,0.3586
353.0,0.4516
353.5,0.4829
354.0,0.5013
354.5,0.5084
355.0,0.5067
355.5,0.4577
356.0,0.4789
356.5,0.4089
357.0,0.3379
357.5,0.4137
358.0,0.3278
358.5,0.2802
359.0,0.3919
359.5,0.4995
360.0,0.5295
360.5,0.4232
361.0,0.3858
361.5,0.4441
362.0,0.384
362.5,0.5314
363.0,0.4773
363.5,0.4396
364.0,0.5377
364.5,0.4596
365.0,0.4681
365.5,0.5875
366.0,0.6224
366.5,0.5848
367.0,0.5695
367.5,0.591
368.0,0.5172
368.5,0.5219
369.0,0.5637
369.5,0.6008
370.0,0.6405
370.5,0.4971
371.0,0.5312
371.5,0.6646
372.0,0.4411
372.5,0.5289
373.0,0.538
373.5,0.3501
374.0,0.5087
374.5,0.4213
375.0,0.4095
375.5,0.6115
376.0,0.5069
376.5,0.5253
377.0,0.5562
377.5,0.6508
378.0,0.7055
378.5,0.6668
379.0,0.5504
379.5,0.5028
380.0,0.5227
380.5,0.6332
381.0,0.6345
381.5,0.503
382.0,0.4467
382.5,0.3808
383.0,0.3525
383.5,0.3396
384.0,0.3746
384.5,0.551
385.0,0.5464
385.5,0.5089
386.0,0.4359
386.5,0.5726
387.0,0.4758
387.5,0.5344
388.0,0.4935
388.5,0.4878
389.0,0.5266
389.5,0.6378
390.0,0.6402
390.5,0.5892
391.0,0.6935
391.5,0.7074
392.0,0.5959
392.5,0.5335
393.0,0.2968
393.5,0.2158
394.0,0.4391
394.5,0.5583
395.0,0.6813
395.5,0.6921
396.0,0.6001
396.5,0.3508
397.0,0.2633
397.5,0.5355
398.0,0.7499
398.5,0.7752
399.0,0.8394
399.5,0.8367
400.0,0.8689
401.0,0.8825
402.0,0.931
403.0,0.8845
404.0,0.8709
405.0,0.8708
406.0,0.8566
407.0,0.8428
408.0,0.8758
409.0,0.9374
410.0,0.8191
411.0,0.8872
412.0,0.9528
413.0,0.9293
414.0,0.9407
415.0,0.9431
416.0,0.9595
417.0,0.936
418.0,0.9187
419.0,0.9308
420.0,0.9267
421.0,0.9695
422.0,0.9214
423.0,0.9001
424.0,0.952
425.0,0.9503
426.0,0.9255
427.0,0.9082
428.0,0.8847
429.0,0.8379
430.0,0.7333
431.0,0.7269
432.0,0.9384
433.0,0.9435
434.0,0.8762
435.0,0.9151
436.0,1.031
437.0,1.017
438.0,0.9259
439.0,0.9579
440.0,0.9883
441.0,1.024
442.0,1.098
443.0,1.07
444.0,1.093
445.0,1.069
446.0,1.02
447.0,1.103
448.0,1.12
449.0,1.124
450.0,1.156
451.0,1.198
452.0,1.155
453.0,1.086
454.0,1.133
455.0,1.14
456.0,1.167
457.0,1.187
458.0,1.147
459.0,1.141
460.0,1.144
461.0,1.17
462.0,1.179
463.0,1.171
464.0,1.151
465.0,1.136
466.0,1.147
467.0,1.126
468.0,1.139
469.0,1.145
470.0,1.109
471.0,1.107
472.0,1.167
473.0,1.152
474.0,1.154
475.0,1.164
476.0,1.13
477.0,1.133
478.0,1.164
479.0,1.157
480.0,1.159
481.0,1.18
482.0,1.186
483.0,1.171
484.0,1.147
485.0,1.093
486.0,0.9551
487.0,1.001
488.0,1.098
489.0,1.101
490.0,1.159
491.0,1.139
492.0,1.075
493.0,1.11
494.0,1.121
495.0,1.131
496.0,1.138
497.0,1.155
498.0,1.101
499.0,1.116
500.0,1.083
501.0,1.064
502.0,1.049
503.0,1.092
504.0,1.066
505.0,1.103
506.0,1.139
507.0,1.083
508.0,1.049
509.0,1.078
510.0,1.072
511.0,1.101
512.0,1.113
513.0,1.053
514.0,1.046
515.0,1.035
516.0,1.033
517.0,0.9177
518.0,0.9648
519.0,1.012
520.0,1.049
521.0,1.059
522.0,1.06
523.0,1.041
524.0,1.078
525.0,1.091
526.0,1.043
527.0,0.9828
528.0,1.04
529.0,1.096
530.0,1.08
531.0,1.096
532.0,1.059
533.0,1.028
534.0,1.058
535.0,1.081
536.0,1.091
537.0,1.048
538.0,1.066
539.0,1.057
540.0,1.014
541.0,1.021
542.0,1.053
543.0,1.041
544.0,1.06
545.0,1.056
546.0,1.061
547.0,1.061
548.0,1.048
549.0,1.051
550.0,1.063
551.0,1.05
552.0,1.058
553.0,1.039
554.0,1.064
555.0,1.066
556.0,1.052
557.0,1.02
558.0,1.012
559.0,0.9934
560.0,1.006
561.0,1.019
562.0,1.012
563.0,1.04
564.0,1.012
565.0,1.003
566.0,0.9886
567.0,1.008
568.0,0.9992
569.0,0.9767
570.0,0.9763
571.0,0.9701
572.0,0.9942
573.0,1.005
574.0,1.002
575.0,0.9835
576.0,0.9745
577.0,0.985
578.0,0.9698
579.0,0.9731
580.0,0.9908
581.0,0.9953
582.0,1.014
583.0,1.016
584.0,1.024
585.0,0.9989
586.0,0.9783
587.0,1.0
588.0,0.9773
589.0,0.8688
590.0,0.9083
591.0,0.9594
592.0,0.9483
593.0,0.9611
594.0,0.955
595.0,0.9324
596.0,0.9668
597.0,0.9569
598.0,0.9537
599.0,0.9542
600.0,0.955
601.0,0.9468
602.0,0.9403
603.0,0.9556
604.0,0.9713
605.0,0.9662
606.0,0.9619
607.0,0.9712
608.0,0.9602
609.0,0.9617
610.0,0.9546
611.0,0.9594
612.0,0.9565
613.0,0.9443
614.0,0.9312
615.0,0.9513
616.0,0.9198
617.0,0.9178
618.0,0.953
619.0,0.9433
620.0,0.9493
621.0,0.9504
622.0,0.9394
623.0,0.9253
624.0,0.9093
625.0,0.9072
626.0,0.9207
627.0,0.9315
628.0,0.8762
629.0,0.9116
630.0,0.8908
631.0,0.9088
632.0,0.8976
633.0,0.924
634.0,0.9143
635.0,0.9282
636.0,0.9156
637.0,0.9303
638.0,0.9387
639.0,0.928
640.0,0.9187
641.0,0.9179
642.0,0.9135
643.0,0.9258
644.0,0.9225
645.0,0.9241
646.0,0.9033
647.0,0.8943
648.0,0.8953
649.0,0.8781
650.0,0.8802
651.0,0.9179
652.0,0.8821
653.0,0.9056
654.0,0.8953
655.0,0.8632
656.0,0.7642
657.0,0.7847
658.0,0.8787
659.0,0.8847
660.0,0.8882
661.0,0.8944
662.0,0.8967
663.0,0.8788
664.0,0.8886
665.0,0.8888
666.0,0.8893
667.0,0.8882
668.0,0.8884
669.0,0.902
670.0,0.898
671.0,0.8977
672.0,0.8899
673.0,0.9032
674.0,0.8997
675.0,0.8915
676.0,0.8975
677.0,0.8885
678.0,0.8909
679.0,0.8765
680.0,0.8834
681.0,0.8776
682.0,0.8765
683.0,0.8748
684.0,0.8704
685.0,0.8778
686.0,0.8726
687.0,0.6064
688.0,0.6977
689.0,0.6998
690.0,0.7297
691.0,0.7631
692.0,0.787
693.0,0.781
694.0,0.7745
695.0,0.8033
696.0,0.8044
697.0,0.8495
698.0,0.8364
699.0,0.8191
700.0,0.8092
701.0,0.8019
702.0,0.8064
703.0,0.8079
704.0,0.8321
705.0,0.8333
706.0,0.832
707.0,0.8324
708.0,0.8342
709.0,0.8344
710.0,0.8349
711.0,0.8334
712.0,0.8305
713.0,0.8225
714.0,0.8255
715.0,0.8005
716.0,0.8012
717.0,0.7048
718.0,0.649
719.0,0.5955
720.0,0.6245
721.0,0.6833
722.0,0.7751
723.0,0.725
724.0,0.6571
725.0,0.648
726.0,0.6776
727.0,0.685
728.0,0.6468
729.0,0.6675
730.0,0.7063
731.0,0.6768
732.0,0.7202
733.0,0.7588
734.0,0.7758
735.0,0.7603
736.0,0.7593
737.0,0.7624
738.0,0.7717
739.0,0.7566
740.0,0.7755
741.0,0.7674
742.0,0.7677
743.0,0.7871
744.0,0.7846
745.0,0.7845
746.0,0.7881
747.0,0.7898
748.0,0.7881
749.0,0.7791
750.0,0.7786
751.0,0.7707
752.0,0.774
753.0,0.7779
754.0,0.7797
755.0,0.7752
756.0,0.7749
757.0,0.776
758.0,0.7664
759.0,0.7522
760.0,0.151
761.0,0.08457
762.0,0.4116
763.0,0.2209
764.0,0.3186
765.0,0.4117
766.0,0.4929
767.0,0.6095
768.0,0.6936
769.0,0.706
770.0,0.7275
771.0,0.7323
772.0,0.7335
773.0,0.7385
774.0,0.7349
775.0,0.7292
776.0,0.7381
777.0,0.7283
778.0,0.7239
779.0,0.7245
780.0,0.7205
781.0,0.7212
782.0,0.7257
783.0,0.713
784.0,0.7164
785.0,0.7112
786.0,0.7191
787.0,0.7076
788.0,0.6993
789.0,0.6991
790.0,0.682
791.0,0.6864
792.0,0.6812
793.0,0.6703
794.0,0.6802
795.0,0.6921
796.0,0.6729
797.0,0.6738
798.0,0.6915
799.0,0.6875
800.0,0.6761
801.0,0.6744
802.0,0.6724
803.0,0.6676
804.0,0.6682
805.0,0.6656
806.0,0.6833
807.0,0.6753
808.0,0.6758
809.0,0.6638
810.0,0.6589
811.0,0.6608
812.0,0.6432
813.0,0.6307
814.0,0.5596
815.0,0.556
816.0,0.5181
817.0,0.5271
818.0,0.5084
819.0,0.5643
820.0,0.533
821.0,0.6174
822.0,0.6007
823.0,0.4174
824.0,0.5852
825.0,0.607
826.0,0.5856
827.0,0.6162
828.0,0.5275
829.0,0.5817
830.0,0.5746
831.0,0.5765
832.0,0.5597
833.0,0.5929
834.0,0.5736
835.0,0.6266
836.0,0.602
837.0,0.6282
838.0,0.6096
839.0,0.6185
840.0,0.6318
841.0,0.6232
842.0,0.6239
843.0,0.6229
844.0,0.6146
845.0,0.6349
846.0,0.632
847.0,0.62
848.0,0.6165
849.0,0.599
850.0,0.5738
851.0,0.6078
852.0,0.6034
853.0,0.5806
854.0,0.5015
855.0,0.5507
856.0,0.6019
857.0,0.6152
858.0,0.6107
859.0,0.6111
860.0,0.6121
861.0,0.6088
862.0,0.6183
863.0,0.6329
864.0,0.6013
865.0,0.596
866.0,0.5359
867.0,0.5592
868.0,0.6086
869.0,0.5959
870.0,0.6129
871.0,0.6046
872.0,0.6024
873.0,0.6012
874.0,0.594
875.0,0.582
876.0,0.5881
877.0,0.594
878.0,0.6005
879.0,0.5913
880.0,0.5786
881.0,0.57
882.0,0.5824
883.0,0.5841
884.0,0.5815
885.0,0.5859
886.0,0.5588
887.0,0.5644
888.0,0.5729
889.0,0.5791
890.0,0.5747
891.0,0.5735
892.0,0.5575
893.0,0.5407
894.0,0.5231
895.0,0.496
896.0,0.468
897.0,0.4043
898.0,0.4399
899.0,0.3373
900.0,0.449
901.0,0.3535
902.0,0.4112
903.0,0.4164
904.0,0.5191
905.0,0.502
906.0,0.4704
907.0,0.3856
908.0,0.3928
909.0,0.4239
910.0,0.3777
911.0,0.4008
912.0,0.4184
913.0,0.3835
914.0,0.3797
915.0,0.4114
916.0,0.349
917.0,0.4399
918.0,0.3579
919.0,0.4471
920.0,0.4502
921.0,0.4679
922.0,0.4203
923.0,0.4519
924.0,0.431
925.0,0.4216
926.0,0.4263
927.0,0.4753
928.0,0.354
929.0,0.3246
930.0,0.2572
931.0,0.2433
932.0,0.1774
933.0,0.1452
934.0,0.08195
935.0,0.1477
936.0,0.09368
937.0,0.09512
938.0,0.1164
939.0,0.2358
940.0,0.2822
941.0,0.2149
942.0,0.2477
943.0,0.1644
944.0,0.1717
945.0,0.2213
946.0,0.1146
947.0,0.2228
948.0,0.1639
949.0,0.2963
950.0,0.08528
951.0,0.2914
952.0,0.1591
953.0,0.2038
954.0,0.2481
955.0,0.2059
956.0,0.1989
957.0,0.1596
958.0,0.2793
959.0,0.2239
960.0,0.2509
961.0,0.2801
962.0,0.2652
963.0,0.3044
964.0,0.2793
965.0,0.3031
966.0,0.3035
967.0,0.3023
968.0,0.4007
969.0,0.419
970.0,0.3854
971.0,0.4391
972.0,0.4204
973.0,0.3681
974.0,0.3496
975.0,0.3621
976.0,0.3449
977.0,0.3904
978.0,0.3718
979.0,0.3888
980.0,0.3659
981.0,0.4365
982.0,0.4181
983.0,0.4018
984.0,0.4489
985.0,0.4165
986.0,0.4563
987.0,0.4479
988.0,0.4471
989.0,0.4546
990.0,0.4444
991.0,0.456
992.0,0.4586
993.0,0.4489
994.0,0.4584
995.0,0.4577
996.0,0.4558
997.0,0.4564
998.0,0.4543
999.0,0.4526
1000.0,0.4495
1001.0,0.455
1002.0,0.443
1003.0,0.447
1004.0,0.4362
1005.0,0.4201
1006.0,0.4366
1007.0,0.4458
1008.0,0.4434
1009.0,0.4412
1010.0,0.4393
1011.0,0.4435
1012.0,0.4397
1013.0,0.4424
1014.0,0.4393
1015.0,0.4364
1016.0,0.4344
1017.0,0.4356
1018.0,0.4339
1019.0,0.4248
1020.0,0.4316
1021.0,0.431
1022.0,0.4277
1023.0,0.4322
1024.0,0.4268
1025.0,0.4319
1026.0,0.4301
1027.0,0.4291
1028.0,0.4282
1029.0,0.4232
1030.0,0.426
1031.0,0.4243
1032.0,0.4231
1033.0,0.4167
1034.0,0.4167
1035.0,0.418
1036.0,0.4202
1037.0,0.4133
1038.0,0.4152
1039.0,0.4149
1040.0,0.4133
1041.0,0.4149
1042.0,0.412
1043.0,0.4108
1044.0,0.4122
1045.0,0.4066
1046.0,0.4021
1047.0,0.4058
1048.0,0.408
1049.0,0.4066
1050.0,0.4047
1051.0,0.4042
1052.0,0.4025
1053.0,0.3993
1054.0,0.4002
1055.0,0.4005
1056.0,0.3991
1057.0,0.3979
1058.0,0.3881
1059.0,0.3886
1060.0,0.388
1061.0,0.3876
1062.0,0.3896
1063.0,0.3858
1064.0,0.3904
1065.0,0.3876
1066.0,0.3799
1067.0,0.3848
1068.0,0.3765
1069.0,0.3648
1070.0,0.3772
1071.0,0.3829
1072.0,0.3786
1073.0,0.3732
1074.0,0.3826
1075.0,0.364
1076.0,0.3823
1077.0,0.3758
1078.0,0.3688
1079.0,0.3761
1080.0,0.37
1081.0,0.3584
1082.0,0.3637
1083.0,0.3647
1084.0,0.3576
1085.0,0.3708
1086.0,0.3391
1087.0,0.3495
1088.0,0.3644
1089.0,0.3537
1090.0,0.3463
1091.0,0.3634
1092.0,0.3623
1093.0,0.3087
1094.0,0.3317
1095.0,0.3214
1096.0,0.3082
1097.0,0.3539
1098.0,0.3035
1099.0,0.3164
1100.0,0.2948
1101.0,0.2983
1102.0,0.2853
1103.0,0.2828
1104.0,0.2831
1105.0,0.3093
1106.0,0.2391
1107.0,0.2942
1108.0,0.2509
1109.0,0.2511
1110.0,0.2919
1111.0,0.2
1112.0,0.2491
1113.0,0.1606
1114.0,0.1793
1115.0,0.1487
1116.0,0.1199
1117.0,0.04536
1118.0,0.1301
1119.0,0.06557
1120.0,0.08259
1121.0,0.109
1122.0,0.04675
1123.0,0.0746
1124.0,0.06298
1125.0,0.08191
1126.0,0.02938
1127.0,0.09232
1128.0,0.05617
1129.0,0.05947
1130.0,0.0395
1131.0,0.1729
1132.0,0.136
1133.0,0.0874
1134.0,0.02303
1135.0,0.008592
1136.0,0.07333
1137.0,0.1702
1138.0,0.1201
1139.0,0.1768
1140.0,0.1486
1141.0,0.1141
1142.0,0.1308
1143.0,0.1848
1144.0,0.06571
1145.0,0.08426
1146.0,0.09089
1147.0,0.03286
1148.0,0.16
1149.0,0.1285
1150.0,0.07058
1151.0,0.1192
1152.0,0.1459
1153.0,0.1415
1154.0,0.08182
1155.0,0.1845
1156.0,0.1666
1157.0,0.1862
1158.0,0.1842
1159.0,0.198
1160.0,0.17
1161.0,0.2079
1162.0,0.209
1163.0,0.2794
1164.0,0.2408
1165.0,0.2282
1166.0,0.2258
1167.0,0.2454
1168.0,0.2484
1169.0,0.2539
1170.0,0.275
1171.0,0.2683
1172.0,0.2725
1173.0,0.2744
1174.0,0.1986
1175.0,0.2676
1176.0,0.2928
1177.0,0.282
1178.0,0.2139
1179.0,0.2951
1180.0,0.2649
1181.0,0.2733
1182.0,0.1909
1183.0,0.2688
1184.0,0.2526
1185.0,0.2445
1186.0,0.2875
1187.0,0.2746
1188.0,0.1944
1189.0,0.256
1190.0,0.281
1191.0,0.2681
1192.0,0.2847
1193.0,0.2733
1194.0,0.2814
1195.0,0.2671
1196.0,0.2578
1197.0,0.281
1198.0,0.2578
1199.0,0.2214
1200.0,0.27
1201.0,0.2611
1202.0,0.2591
1203.0,0.257
1204.0,0.2259
1205.0,0.2645
1206.0,0.291
1207.0,0.2587
1208.0,0.254
1209.0,0.259
1210.0,0.2693
1211.0,0.2574
1212.0,0.2552
1213.0,0.2819
1214.0,0.2609
1215.0,0.2562
1216.0,0.281
1217.0,0.274
1218.0,0.2787
1219.0,0.2755
1220.0,0.2789
1221.0,0.2815
1222.0,0.2744
1223.0,0.272
1224.0,0.2707
1225.0,0.2797
1226.0,0.2813
1227.0,0.2606
1228.0,0.2825
1229.0,0.2813
1230.0,0.2767
1231.0,0.2839
1232.0,0.2822
1233.0,0.2735
1234.0,0.2834
1235.0,0.2818
1236.0,0.2837
1237.0,0.2801
1238.0,0.2828
1239.0,0.2791
1240.0,0.2802
1241.0,0.2791
1242.0,0.2783
1243.0,0.276
1244.0,0.278
1245.0,0.2792
1246.0,0.2775
1247.0,0.2765
1248.0,0.2764
1249.0,0.2772
1250.0,0.2756
1251.0,0.2722
1252.0,0.2721
1253.0,0.2702
1254.0,0.2677
1255.0,0.2719
1256.0,0.2648
1257.0,0.2635
1258.0,0.2679
1259.0,0.2592
1260.0,0.2604
1261.0,0.2469
1262.0,0.2401
1263.0,0.2406
1264.0,0.2235
1265.0,0.2391
1266.0,0.2309
1267.0,0.2343
1268.0,0.2232
1269.0,0.1446
1270.0,0.2337
1271.0,0.246
1272.0,0.2466
1273.0,0.2442
1274.0,0.2448
1275.0,0.2481
1276.0,0.2503
1277.0,0.2517
1278.0,0.256
1279.0,0.2538
1280.0,0.2505
1281.0,0.2388
1282.0,0.2298
1283.0,0.2475
1284.0,0.2535
1285.0,0.2551
1286.0,0.2584
1287.0,0.2548
1288.0,0.2546
1289.0,0.2473
1290.0,0.2523
1291.0,0.2557
1292.0,0.2416
1293.0,0.2511
1294.0,0.2494
1295.0,0.2485
1296.0,0.2381
1297.0,0.2259
1298.0,0.2418
1299.0,0.2512
1300.0,0.215
1301.0,0.2211
1302.0,0.241
1303.0,0.2119
1304.0,0.1829
1305.0,0.2362
1306.0,0.2364
1307.0,0.1861
1308.0,0.2119
1309.0,0.2347
1310.0,0.1826
1311.0,0.2036
1312.0,0.1984
1313.0,0.195
1314.0,0.1753
1315.0,0.1735
1316.0,0.2008
1317.0,0.1904
1318.0,0.2061
1319.0,0.1635
1320.0,0.1579
1321.0,0.1831
1322.0,0.1853
1323.0,0.1414
1324.0,0.1604
1325.0,0.198
1326.0,0.1712
1327.0,0.1636
1328.0,0.1417
1329.0,0.108
1330.0,0.1398
1331.0,0.08623
1332.0,0.08842
1333.0,0.1226
1334.0,0.103
1335.0,0.1409
1336.0,0.1123
1337.0,0.09984
1338.0,0.108
1339.0,0.1073
1340.0,0.1039
1341.0,0.1025
1342.0,0.1076
1343.0,0.07504
1344.0,0.04483
1345.0,0.0645
1346.0,0.03343
1347.0,0.03423
1348.0,0.002477
1349.0,0.008625
1350.0,0.008761
1351.0,0.00235
1352.0,0.0007063
1353.0,4.064e-05
1354.0,0.0001297
1355.0,1.337e-06
1356.0,2.004e-05
1357.0,3.043e-05
1358.0,1.568e-06
1359.0,2.377e-07
1360.0,7.664e-07
1361.0,1.269e-09
1362.0,4.124e-12
1363.0,1.094e-06
1364.0,4.592e-07
1365.0,1.791e-12
1366.0,4.555e-06
1367.0,1.812e-06
1368.0,2.111e-14
1369.0,1.736e-07
1370.0,9.254e-08
1371.0,5.796e-09
1372.0,9.973e-07
1373.0,1.777e-05
1374.0,7.591e-05
1375.0,0.0001383
1376.0,0.0001162
1377.0,5.429e-05
1378.0,0.0005112
1379.0,2.29e-05
1380.0,3.473e-05
1381.0,9.578e-07
1382.0,9.194e-07
1383.0,1.484e-08
1384.0,2.025e-07
1385.0,7.981e-07
1386.0,8.645e-07
1387.0,8.278e-05
1388.0,1.647e-06
1389.0,0.0002563
1390.0,0.0002207
1391.0,0.0001501
1392.0,1.007e-05
1393.0,5.103e-05
1394.0,3.018e-05
1395.0,2.458e-07
1396.0,1.735e-09
1397.0,2.104e-05
1398.0,0.0005792
1399.0,0.0003669
1400.0,8.305e-10
1401.0,3.008e-09
1402.0,0.0009138
1403.0,0.001172
1404.0,0.0003606
1405.0,1.28e-07
1406.0,0.0009716
1407.0,8.396e-05
1408.0,0.0007902
1409.0,0.000282
1410.0,0.0002175
1411.0,0.001027
1412.0,0.001347
1413.0,0.01278
1414.0,0.0001704
1415.0,8.422e-05
1416.0,0.02016
1417.0,0.006344
1418.0,0.007259
1419.0,0.001138
1420.0,0.004451
1421.0,0.004817
1422.0,0.02626
1423.0,0.005149
1424.0,0.009595
1425.0,0.01421
1426.0,0.01591
1427.0,0.02879
1428.0,0.002347
1429.0,0.02174
1430.0,0.03655
1431.0,0.04003
1432.0,0.001853
1433.0,0.02562
1434.0,0.01311
1435.0,0.01336
1436.0,0.02539
1437.0,0.01945
1438.0,0.008321
1439.0,0.03436
1440.0,0.02575
1441.0,0.0198
1442.0,0.02194
1443.0,0.02729
1444.0,0.0377
1445.0,0.02969
1446.0,0.01341
1447.0,0.02112
1448.0,0.0703
