interpolation:linear
wavelength,value
280.0,3.741e-21
280.5,1.164e-19
281.0,6.127e-19
281.5,4.04e-19
282.0,1.153e-18
282.5,3.022e-18
283.0,9.744e-18
283.5,1.593e-17
284.0,2.574e-16
284.5,7.404e-16
285.0,1.642e-15
285.5,8.079e-15
286.0,3.24e-14
286.5,1.432e-13
287.0,4.055e-13
287.5,1.533e-12
288.0,3.986e-12
288.5,1.347e-11
289.0,3.876e-11
289.5,1.241e-10
290.0,3.573e-10
290.5,7.473e-10
291.0,1.644e-09
291.5,5.033e-09
292.0,1.104e-08
292.5,1.68e-08
293.0,3.995e-08
293.5,1.122e-07
294.0,1.945e-07
294.5,2.521e-07
295.0,4.733e-07
295.5,1.273e-06
296.0,2.55e-06
296.5,3.717e-06
297.0,5.218e-06
297.5,1.484e-05
298.0,2.469e-05
298.5,2.597e-05
299.0,5.993e-05
299.5,0.0001082
300.0,0.0001253
300.5,0.000192
301.0,0.0003842
301.5,0.0006834
302.0,0.0006251
302.5,0.001229
303.0,0.002224
303.5,0.002814
304.0,0.002652
304.5,0.003984
305.0,0.006089
305.5,0.007004
306.0,0.006791
306.5,0.008477
307.0,0.01263
307.5,0.01686
308.0,0.01782
308.5,0.02107
309.0,0.02073
309.5,0.02372
310.0,0.02384
310.5,0.03862
311.0,0.04848
311.5,0.04681
312.0,0.0468
312.5,0.05695
313.0,0.06176
313.5,0.06
314.0,0.07499
314.5,0.06645
315.0,0.08732
315.5,0.0731
316.0,0.06379
316.5,0.09153
317.0,0.1137
317.5,0.1183
318.0,0.09227
318.5,0.1144
319.0,0.1357
319.5,0.1108
320.0,0.1339
320.5,0.1673
321.0,0.1487
321.5,0.1426
322.0,0.1523
322.5,0.1325
323.0,0.1318
323.5,0.1618
324.0,0.1888
324.5,0.1918
325.0,0.1659
325.5,0.2131
326.0,0.2605
326.5,0.2607
327.0,0.2599
327.5,0.2512
328.0,0.2241
328.5,0.2351
329.0,0.2811
329.5,0.319
330.0,0.322
330.5,0.2581
331.0,0.2631
331.5,0.2672
332.0,0.2884
332.5,0.2851
333.0,0.2844
333.5,0.2577
334.0,0.2641
334.5,0.3045
335.0,0.286
335.5,0.3341
336.0,0.2312
336.5,0.2709
337.0,0.2224
337.5,0.2767
338.0,0.27
338.5,0.3117
339.0,0.3085
339.5,0.2969
340.0,0.349
340.5,0.3146
341.0,0.3069
341.5,0.2818
342.0,0.3369
342.5,0.3152
343.0,0.3467
343.5,0.3266
344.0,0.2414
344.5,0.2439
345.0,0.3228
345.5,0.3297
346.0,0.2803
346.5,0.3174
347.0,0.3408
347.5,0.2756
348.0,0.3143
348.5,0.3142
349.0,0.2916
349.5,0.2888
350.0,0.3573
350.5,0.3769
351.0,0.3368
351.5,0.3274
352.0,0.3517
352.5,0.2746
353.0,0.3459
353.5,0.37
354.0,0.3842
354.5,0.3897
355.0,0.3884
355.5,0.351
356.0,0.3674
356.5,0.3137
357.0,0.2593
357.5,0.3175
358.0,0.2516
358.5,0.2151
359.0,0.3009
359.5,0.3835
360.0,0.4066
360.5,0.3251
361.0,0.2964
361.5,0.3415
362.0,0.2954
362.5,0.409
363.0,0.3674
363.5,0.3386
364.0,0.4142
364.5,0.3541
365.0,0.3607
365.5,0.4529
366.0,0.48
366.5,0.4511
367.0,0.4394
367.5,0.4561
368.0,0.3993
368.5,0.403
369.0,0.4353
369.5,0.4641
370.0,0.4949
370.5,0.3842
371.0,0.4107
371.5,0.5139
372.0,0.3411
372.5,0.4091
373.0,0.4163
373.5,0.2709
374.0,0.3938
374.5,0.3262
375.0,0.3172
375.5,0.4737
376.0,0.3927
376.5,0.4071
377.0,0.4311
377.5,0.5045
378.0,0.547
378.5,0.5171
379.0,0.4268
379.5,0.3899
380.0,0.4055
380.5,0.4913
381.0,0.4925
381.5,0.3905
382.0,0.3469
382.5,0.2958
383.0,0.274
383.5,0.264
384.0,0.2912
384.5,0.4285
385.0,0.425
385.5,0.3959
386.0,0.3392
386.5,0.4457
387.0,0.3704
387.5,0.4162
388.0,0.3843
388.5,0.38
389.0,0.4103
389.5,0.4971
390.0,0.499
390.5,0.4593
391.0,0.5408
391.5,0.5518
392.0,0.4648
392.5,0.4163
393.0,0.2317
393.5,0.1685
394.0,0.3429
394.5,0.436
395.0,0.5322
395.5,0.5407
396.0,0.4689
396.5,0.2742
397.0,0.2058
397.5,0.4187
398.0,0.5864
398.5,0.6062
399.0,0.6567
399.5,0.6547
400.0,0.6799
401.0,0.6894
402.0,0.7276
403.0,0.6916
404.0,0.6812
405.0,0.6813
406.0,0.6705
407.0,0.66
408.0,0.686
409.0,0.7344
410.0,0.642
411.0,0.6957
412.0,0.7475
413.0,0.7291
414.0,0.7384
415.0,0.7406
416.0,0.7539
417.0,0.7355
418.0,0.7221
419.0,0.7319
420.0,0.7288
421.0,0.7627
422.0,0.7252
423.0,0.7086
424.0,0.7496
425.0,0.7484
426.0,0.7293
427.0,0.7159
428.0,0.6975
429.0,0.6609
430.0,0.5786
431.0,0.5735
432.0,0.7408
433.0,0.745
434.0,0.6919
435.0,0.7227
436.0,0.8146
437.0,0.8039
438.0,0.7322
439.0,0.7573
440.0,0.7816
441.0,0.8101
442.0,0.869
443.0,0.8465
444.0,0.865
445.0,0.8464
446.0,0.808
447.0,0.8738
448.0,0.8874
449.0,0.8912
450.0,0.9163
451.0,0.9504
452.0,0.9159
453.0,0.8616
454.0,0.8996
455.0,0.9052
456.0,0.9269
457.0,0.9424
458.0,0.9102
459.0,0.9056
460.0,0.9081
461.0,0.9291
462.0,0.9364
463.0,0.93
464.0,0.9149
465.0,0.9035
466.0,0.9124
467.0,0.8958
468.0,0.9063
469.0,0.9111
470.0,0.8821
471.0,0.8811
472.0,0.9284
473.0,0.9164
474.0,0.9176
475.0,0.9254
476.0,0.8976
477.0,0.9
478.0,0.9251
479.0,0.9196
480.0,0.9214
481.0,0.9388
482.0,0.9438
483.0,0.9326
484.0,0.9136
485.0,0.8706
486.0,0.7611
487.0,0.7978
488.0,0.8753
489.0,0.878
490.0,0.9238
491.0,0.9079
492.0,0.8574
493.0,0.8855
494.0,0.8945
495.0,0.9021
496.0,0.9077
497.0,0.9218
498.0,0.8787
499.0,0.8899
500.0,0.8639
501.0,0.8479
502.0,0.8359
503.0,0.8697
504.0,0.8471
505.0,0.8779
506.0,0.9062
507.0,0.8624
508.0,0.8357
509.0,0.8592
510.0,0.8548
511.0,0.8779
512.0,0.8875
513.0,0.84
514.0,0.8343
515.0,0.826
516.0,0.824
517.0,0.7322
518.0,0.7698
519.0,0.8074
520.0,0.8367
521.0,0.8447
522.0,0.8454
523.0,0.8301
524.0,0.8597
525.0,0.8697
526.0,0.8308
527.0,0.7828
528.0,0.8278
529.0,0.8725
530.0,0.8599
531.0,0.8726
532.0,0.8426
533.0,0.8179
534.0,0.8421
535.0,0.8606
536.0,0.8685
537.0,0.8343
538.0,0.8491
539.0,0.842
540.0,0.8072
541.0,0.8124
542.0,0.8378
543.0,0.8291
544.0,0.8433
545.0,0.8408
546.0,0.8443
547.0,0.8441
548.0,0.834
549.0,0.8366
550.0,0.8465
551.0,0.8363
552.0,0.8421
553.0,0.827
554.0,0.8468
555.0,0.8485
556.0,0.8374
557.0,0.8113
558.0,0.8051
559.0,0.79
560.0,0.7998
561.0,0.8101
562.0,0.8041
563.0,0.8259
564.0,0.8033
565.0,0.7963
566.0,0.7845
567.0,0.7993
568.0,0.7918
569.0,0.7724
570.0,0.7722
571.0,0.7678
572.0,0.7858
573.0,0.7941
574.0,0.7915
575.0,0.7765
576.0,0.7695
577.0,0.7779
578.0,0.7664
579.0,0.7698
580.0,0.7849
581.0,0.7893
582.0,0.8045
583.0,0.8067
584.0,0.8139
585.0,0.7941
586.0,0.7778
587.0,0.7946
588.0,0.7745
589.0,0.6846
590.0,0.7161
591.0,0.7587
592.0,0.7486
593.0,0.7604
594.0,0.7548
595.0,0.7356
596.0,0.7659
597.0,0.7573
598.0,0.7557
599.0,0.7566
600.0,0.758
601.0,0.7521
602.0,0.747
603.0,0.7595
604.0,0.7721
605.0,0.7682
606.0,0.7652
607.0,0.7729
608.0,0.7645
609.0,0.7659
610.0,0.7606
611.0,0.7646
612.0,0.7625
613.0,0.753
614.0,0.7428
615.0,0.7591
616.0,0.7342
617.0,0.7328
618.0,0.761
619.0,0.7534
620.0,0.7581
621.0,0.7587
622.0,0.7498
623.0,0.7382
624.0,0.7257
625.0,0.7241
626.0,0.7348
627.0,0.7427
628.0,0.69
629.0,0.7239
630.0,0.7071
631.0,0.7242
632.0,0.7158
633.0,0.7381
634.0,0.7313
635.0,0.7429
636.0,0.7333
637.0,0.7455
638.0,0.7529
639.0,0.7446
640.0,0.7375
641.0,0.7372
642.0,0.734
643.0,0.7439
644.0,0.7416
645.0,0.7428
646.0,0.725
647.0,0.7154
648.0,0.716
649.0,0.7021
650.0,0.7067
651.0,0.7376
652.0,0.7055
653.0,0.7279
654.0,0.7199
655.0,0.6924
656.0,0.6142
657.0,0.6307
658.0,0.7073
659.0,0.7125
660.0,0.7156
661.0,0.7206
662.0,0.7218
663.0,0.7077
664.0,0.7164
665.0,0.7173
666.0,0.7179
667.0,0.7174
668.0,0.7179
669.0,0.7291
670.0,0.726
671.0,0.7259
672.0,0.7197
673.0,0.7306
674.0,0.7279
675.0,0.7214
676.0,0.7264
677.0,0.7192
678.0,0.7213
679.0,0.7097
680.0,0.7154
681.0,0.7107
682.0,0.7098
683.0,0.7085
684.0,0.7049
685.0,0.711
686.0,0.7067
687.0,0.4535
688.0,0.5389
689.0,0.541
690.0,0.57
691.0,0.6028
692.0,0.6271
693.0,0.6217
694.0,0.6166
695.0,0.6441
696.0,0.645
697.0,0.6869
698.0,0.6761
699.0,0.6584
700.0,0.6504
701.0,0.6433
702.0,0.6483
703.0,0.6496
704.0,0.6713
705.0,0.6723
706.0,0.6721
707.0,0.6727
708.0,0.6741
709.0,0.6757
710.0,0.6754
711.0,0.6747
712.0,0.6729
713.0,0.6659
714.0,0.6685
715.0,0.6467
716.0,0.6469
717.0,0.5554
718.0,0.5093
719.0,0.466
720.0,0.4876
721.0,0.5418
722.0,0.6236
723.0,0.5786
724.0,0.519
725.0,0.5099
726.0,0.5341
727.0,0.5431
728.0,0.5084
729.0,0.5295
730.0,0.5601
731.0,0.5353
732.0,0.5748
733.0,0.6105
734.0,0.6256
735.0,0.6123
736.0,0.6115
737.0,0.6139
738.0,0.6248
739.0,0.6125
740.0,0.6289
741.0,0.6229
742.0,0.6238
743.0,0.6397
744.0,0.6381
745.0,0.6383
746.0,0.6412
747.0,0.6427
748.0,0.6414
749.0,0.6341
750.0,0.6337
751.0,0.6273
752.0,0.63
753.0,0.6332
754.0,0.6346
755.0,0.631
756.0,0.6308
757.0,0.6317
758.0,0.6238
759.0,0.6102
760.0,0.08677
761.0,0.04295
762.0,0.2946
763.0,0.1379
764.0,0.2153
765.0,0.2946
766.0,0.3699
767.0,0.4753
768.0,0.5556
769.0,0.5689
770.0,0.5901
771.0,0.5956
772.0,0.5972
773.0,0.6014
774.0,0.5985
775.0,0.594
776.0,0.6013
777.0,0.5934
778.0,0.5898
779.0,0.5903
780.0,0.587
781.0,0.5876
782.0,0.5913
783.0,0.581
784.0,0.5838
785.0,0.5794
786.0,0.5858
787.0,0.5748
788.0,0.5673
789.0,0.567
790.0,0.5509
791.0,0.5567
792.0,0.5527
793.0,0.5437
794.0,0.554
795.0,0.5631
796.0,0.5444
797.0,0.545
798.0,0.5623
799.0,0.5584
800.0,0.5484
801.0,0.5464
802.0,0.5448
803.0,0.5405
804.0,0.5414
805.0,0.5401
806.0,0.5559
807.0,0.5491
808.0,0.5496
809.0,0.5388
810.0,0.534
811.0,0.5339
812.0,0.5177
813.0,0.5064
814.0,0.4424
815.0,0.4398
816.0,0.409
817.0,0.4168
818.0,0.4005
819.0,0.4505
820.0,0.4232
821.0,0.4985
822.0,0.4836
823.0,0.3229
824.0,0.4682
825.0,0.4897
826.0,0.47
827.0,0.4972
828.0,0.418
829.0,0.4673
830.0,0.4609
831.0,0.4626
832.0,0.4477
833.0,0.4781
834.0,0.46
835.0,0.508
836.0,0.4845
837.0,0.5095
838.0,0.4928
839.0,0.502
840.0,0.5132
841.0,0.5056
842.0,0.5072
843.0,0.5075
844.0,0.5002
845.0,0.5175
846.0,0.5153
847.0,0.5059
848.0,0.5025
849.0,0.4882
850.0,0.4678
851.0,0.495
852.0,0.4916
853.0,0.4735
854.0,0.4086
855.0,0.4492
856.0,0.4908
857.0,0.5019
858.0,0.4981
859.0,0.4987
860.0,0.4996
861.0,0.4969
862.0,0.5047
863.0,0.5167
864.0,0.4909
865.0,0.4866
866.0,0.4375
867.0,0.4566
868.0,0.4969
869.0,0.4866
870.0,0.5004
871.0,0.4936
872.0,0.4919
873.0,0.4909
874.0,0.4851
875.0,0.4752
876.0,0.4802
877.0,0.485
878.0,0.4903
879.0,0.4827
880.0,0.4724
881.0,0.4652
882.0,0.4752
883.0,0.4768
884.0,0.4746
885.0,0.4781
886.0,0.4552
887.0,0.4604
888.0,0.4669
889.0,0.4727
890.0,0.4682
891.0,0.4677
892.0,0.4534
893.0,0.4384
894.0,0.4213
895.0,0.3959
896.0,0.3722
897.0,0.317
898.0,0.3474
899.0,0.261
900.0,0.3574
901.0,0.2736
902.0,0.3255
903.0,0.3272
904.0,0.4181
905.0,0.4028
906.0,0.3763
907.0,0.3015
908.0,0.3081
909.0,0.3357
910.0,0.2933
911.0,0.3149
912.0,0.3299
913.0,0.2975
914.0,0.2956
915.0,0.3205
916.0,0.2705
917.0,0.347
918.0,0.2771
919.0,0.3544
920.0,0.3602
921.0,0.3748
922.0,0.3325
923.0,0.3623
924.0,0.3404
925.0,0.333
926.0,0.3364
927.0,0.3792
928.0,0.2706
929.0,0.245
930.0,0.1892
931.0,0.1797
932.0,0.1259
933.0,0.1006
934.0,0.05147
935.0,0.1044
936.0,0.06281
937.0,0.06342
938.0,0.0789
939.0,0.174
940.0,0.2118
941.0,0.1565
942.0,0.1833
943.0,0.1179
944.0,0.1267
945.0,0.1621
946.0,0.07893
947.0,0.1619
948.0,0.1184
949.0,0.2202
950.0,0.05589
951.0,0.2175
952.0,0.1122
953.0,0.148
954.0,0.1849
955.0,0.15
956.0,0.1479
957.0,0.1119
958.0,0.2142
959.0,0.1662
960.0,0.1863
961.0,0.2123
962.0,0.2005
963.0,0.2338
964.0,0.2134
965.0,0.2332
966.0,0.2326
967.0,0.2313
968.0,0.32
969.0,0.3332
970.0,0.3048
971.0,0.3532
972.0,0.337
973.0,0.2891
974.0,0.2738
975.0,0.2859
976.0,0.2691
977.0,0.3109
978.0,0.2934
979.0,0.3087
980.0,0.2894
981.0,0.3513
982.0,0.3343
983.0,0.32
984.0,0.3638
985.0,0.3331
986.0,0.3714
987.0,0.3628
988.0,0.3622
989.0,0.3709
990.0,0.36
991.0,0.3719
992.0,0.3742
993.0,0.3646
994.0,0.3742
995.0,0.3739
996.0,0.3721
997.0,0.3727
998.0,0.3709
999.0,0.3696
1000.0,0.3667
1001.0,0.3716
1002.0,0.3601
1003.0,0.365
1004.0,0.3557
1005.0,0.3431
1006.0,0.3563
1007.0,0.364
1008.0,0.3618
1009.0,0.3596
1010.0,0.3579
1011.0,0.3622
1012.0,0.3588
1013.0,0.3613
1014.0,0.3588
1015.0,0.3564
1016.0,0.3548
1017.0,0.3556
1018.0,0.3544
1019.0,0.3464
1020.0,0.3525
1021.0,0.3521
1022.0,0.3492
1023.0,0.3529
1024.0,0.3478
1025.0,0.3528
1026.0,0.3511
1027.0,0.3504
1028.0,0.3496
1029.0,0.3454
1030.0,0.3479
1031.0,0.3465
1032.0,0.3455
1033.0,0.3403
1034.0,0.3404
1035.0,0.3414
1036.0,0.3431
1037.0,0.3376
1038.0,0.339
1039.0,0.3388
1040.0,0.3374
1041.0,0.3387
1042.0,0.3364
1043.0,0.3353
1044.0,0.3364
1045.0,0.3318
1046.0,0.3281
1047.0,0.3311
1048.0,0.3328
1049.0,0.3316
1050.0,0.33
1051.0,0.3295
1052.0,0.3281
1053.0,0.3255
1054.0,0.3261
1055.0,0.3262
1056.0,0.325
1057.0,0.3239
1058.0,0.3159
1059.0,0.3161
1060.0,0.3156
1061.0,0.3152
1062.0,0.3168
1063.0,0.3136
1064.0,0.3173
1065.0,0.3149
1066.0,0.3088
1067.0,0.3127
1068.0,0.3058
1069.0,0.2964
1070.0,0.3063
1071.0,0.3116
1072.0,0.3076
1073.0,0.3033
1074.0,0.3116
1075.0,0.2946
1076.0,0.3113
1077.0,0.3049
1078.0,0.2989
1079.0,0.3065
1080.0,0.3003
1081.0,0.29
1082.0,0.2958
1083.0,0.297
1084.0,0.289
1085.0,0.3011
1086.0,0.2728
1087.0,0.283
1088.0,0.2964
1089.0,0.2861
1090.0,0.279
1091.0,0.2951
1092.0,0.2946
1093.0,0.2462
1094.0,0.2691
1095.0,0.257
1096.0,0.245
1097.0,0.2878
1098.0,0.2407
1099.0,0.2517
1100.0,0.2324
1101.0,0.2358
1102.0,0.2243
1103.0,0.2214
1104.0,0.2218
1105.0,0.2456
1106.0,0.1819
1107.0,0.2321
1108.0,0.1932
1109.0,0.1943
1110.0,0.2295
1111.0,0.151
1112.0,0.193
1113.0,0.1181
1114.0,0.1324
1115.0,0.1095
1116.0,0.08462
1117.0,0.02816
1118.0,0.093
1119.0,0.0437
1120.0,0.05479
1121.0,0.07418
1122.0,0.02914
1123.0,0.04962
1124.0,0.04185
1125.0,0.0552
1126.0,0.01719
1127.0,0.06246
1128.0,0.03512
1129.0,0.03756
1130.0,0.02395
1131.0,0.124
1132.0,0.09624
1133.0,0.05797
1134.0,0.01322
1135.0,0.005052
1136.0,0.04729
1137.0,0.1208
1138.0,0.08452
1139.0,0.1321
1140.0,0.108
1141.0,0.08037
1142.0,0.09365
1143.0,0.1355
1144.0,0.04449
1145.0,0.05596
1146.0,0.06032
1147.0,0.01914
1148.0,0.1171
1149.0,0.09173
1150.0,0.0482
1151.0,0.08383
1152.0,0.1053
1153.0,0.1042
1154.0,0.05402
1155.0,0.1377
1156.0,0.1228
1157.0,0.1398
1158.0,0.1382
1159.0,0.1505
1160.0,0.1272
1161.0,0.1599
1162.0,0.1604
1163.0,0.2219
1164.0,0.1884
1165.0,0.1759
1166.0,0.1761
1167.0,0.1927
1168.0,0.1944
1169.0,0.1996
1170.0,0.2185
1171.0,0.2129
1172.0,0.2177
1173.0,0.218
1174.0,0.1521
1175.0,0.2137
1176.0,0.2368
1177.0,0.2261
1178.0,0.1671
1179.0,0.2388
1180.0,0.2111
1181.0,0.218
1182.0,0.1475
1183.0,0.2151
1184.0,0.2006
1185.0,0.1927
1186.0,0.2313
1187.0,0.2195
1188.0,0.1497
1189.0,0.2043
1190.0,0.2262
1191.0,0.2132
1192.0,0.2295
1193.0,0.2194
1194.0,0.2265
1195.0,0.2131
1196.0,0.2046
1197.0,0.2271
1198.0,0.2071
1199.0,0.1739
1200.0,0.2165
1201.0,0.208
1202.0,0.2074
1203.0,0.2054
1204.0,0.1785
1205.0,0.2129
1206.0,0.2364
1207.0,0.2066
1208.0,0.204
1209.0,0.2084
1210.0,0.2176
1211.0,0.2064
1212.0,0.2028
1213.0,0.2281
1214.0,0.2082
1215.0,0.204
1216.0,0.2274
1217.0,0.221
1218.0,0.2255
1219.0,0.2225
1220.0,0.2258
1221.0,0.2283
1222.0,0.2221
1223.0,0.2199
1224.0,0.2182
1225.0,0.2268
1226.0,0.2286
1227.0,0.2098
1228.0,0.23
1229.0,0.2286
1230.0,0.2245
1231.0,0.2316
1232.0,0.2302
1233.0,0.2214
1234.0,0.2316
1235.0,0.23
1236.0,0.2318
1237.0,0.2281
1238.0,0.231
1239.0,0.228
1240.0,0.2289
1241.0,0.2276
1242.0,0.2273
1243.0,0.2255
1244.0,0.227
1245.0,0.228
1246.0,0.2267
1247.0,0.2258
1248.0,0.2255
1249.0,0.2263
1250.0,0.2249
1251.0,0.2219
1252.0,0.2221
1253.0,0.22
1254.0,0.2175
1255.0,0.2218
1256.0,0.215
1257.0,0.2137
1258.0,0.2181
1259.0,0.2093
1260.0,0.2105
1261.0,0.1976
1262.0,0.191
1263.0,0.1914
1264.0,0.1753
1265.0,0.1902
1266.0,0.1822
1267.0,0.1859
1268.0,0.1754
1269.0,0.1031
1270.0,0.185
1271.0,0.197
1272.0,0.1978
1273.0,0.1956
1274.0,0.1964
1275.0,0.1994
1276.0,0.2016
1277.0,0.2032
1278.0,0.2076
1279.0,0.2057
1280.0,0.2031
1281.0,0.194
1282.0,0.1873
1283.0,0.2016
1284.0,0.2064
1285.0,0.2078
1286.0,0.2108
1287.0,0.2072
1288.0,0.2072
1289.0,0.2
1290.0,0.2055
1291.0,0.2085
1292.0,0.1945
1293.0,0.2041
1294.0,0.2026
1295.0,0.2012
1296.0,0.1913
1297.0,0.1803
1298.0,0.1954
1299.0,0.2045
1300.0,0.1708
1301.0,0.1765
1302.0,0.1948
1303.0,0.1689
1304.0,0.1419
1305.0,0.1907
1306.0,0.1905
1307.0,0.1457
1308.0,0.1695
1309.0,0.1888
1310.0,0.1428
1311.0,0.162
1312.0,0.1573
1313.0,0.1538
1314.0,0.1369
1315.0,0.1346
1316.0,0.159
1317.0,0.1504
1318.0,0.1643
1319.0,0.1258
1320.0,0.1225
1321.0,0.1436
1322.0,0.1446
1323.0,0.1066
1324.0,0.1235
1325.0,0.1566
1326.0,0.133
1327.0,0.1265
1328.0,0.1083
1329.0,0.07938
1330.0,0.1043
1331.0,0.06064
1332.0,0.06339
1333.0,0.08876
1334.0,0.07643
1335.0,0.1061
1336.0,0.08266
1337.0,0.0725
1338.0,0.07843
1339.0,0.07842
1340.0,0.07694
1341.0,0.07359
1342.0,0.07744
1343.0,0.04947
1344.0,0.02984
1345.0,0.04312
1346.0,0.01962
1347.0,0.01964
1348.0,0.001047
1349.0,0.003972
1350.0,0.004289
1351.0,0.0008721
1352.0,0.0001923
1353.0,8.043e-06
1354.0,3.179e-05
1355.0,1.673e-07
1356.0,3.883e-06
1357.0,5.937e-06
1358.0,2.017e-07
1359.0,1.833e-08
1360.0,8.218e-08
1361.0,4.654e-11
1362.0,9.691e-14
1363.0,9.934e-08
1364.0,4.1e-08
1365.0,2.336e-14
1366.0,4.735e-07
1367.0,2.083e-07
1368.0,8.851e-17
1369.0,1.513e-08
1370.0,6.5e-09
1371.0,3.145e-10
1372.0,1.151e-07
1373.0,2.887e-06
1374.0,1.56e-05
1375.0,2.794e-05
1376.0,2.886e-05
1377.0,1.281e-05
1378.0,0.0001329
1379.0,5.374e-06
1380.0,7.024e-06
1381.0,1.693e-07
1382.0,9.977e-08
1383.0,1.339e-09
1384.0,1.615e-08
1385.0,1.108e-07
1386.0,8.054e-08
1387.0,1.464e-05
1388.0,2.942e-07
1389.0,5.917e-05
1390.0,5.058e-05
1391.0,3.285e-05
1392.0,2.052e-06
1393.0,1.179e-05
1394.0,4.734e-06
1395.0,2.969e-08
1396.0,7.366e-11
1397.0,4.427e-06
1398.0,0.0001465
1399.0,9.357e-05
1400.0,2.648e-11
1401.0,1.416e-10
1402.0,0.0003246
1403.0,0.000391
1404.0,0.0001169
1405.0,1.284e-08
1406.0,0.0002827
1407.0,2.664e-05
1408.0,0.0002344
1409.0,6.95e-05
1410.0,6.093e-05
1411.0,0.0003468
1412.0,0.0004969
1413.0,0.006086
1414.0,4.89e-05
1415.0,2.217e-05
1416.0,0.01126
1417.0,0.003012
1418.0,0.003337
1419.0,0.0005026
1420.0,0.00203
1421.0,0.002219
1422.0,0.01477
1423.0,0.002766
1424.0,0.005301
1425.0,0.007588
1426.0,0.009111
1427.0,0.01787
1428.0,0.0009654
1429.0,0.01279
1430.0,0.02329
1431.0,0.02597
1432.0,0.0007528
1433.0,0.016
1434.0,0.007886
1435.0,0.007028
1436.0,0.01487
1437.0,0.01143
1438.0,0.00447
1439.0,0.02079
1440.0,0.01558
