interpolation:linear
wavelength,value
280.0,2.2410000000000002e-20
280.5,6.506e-19
281.0,3.349e-18
281.5,4.149e-19
282.0,1.665e-18
282.5,4.631e-18
283.0,1.531e-17
283.5,2.521e-17
284.0,4.004e-16
284.5,1.135e-15
285.0,1.974e-15
285.5,1.119e-14
286.0,4.65e-14
286.5,2.153e-13
287.0,6.236e-13
287.5,2.421e-12
288.0,7.08e-12
288.5,2.728e-11
289.0,8.883e-11
289.5,3.224e-10
290.0,1.025e-09
290.5,2.326e-09
291.0,5.634e-09
291.5,1.867e-08
292.0,5.125e-08
292.5,8.124e-08
293.0,2.039e-07
293.5,6.196e-07
294.0,1.145e-06
294.5,1.519e-06
295.0,3.024e-06
295.5,7.716e-06
296.0,1.497e-05
296.5,2.104e-05
297.0,2.858e-05
297.5,7.701e-05
298.0,0.0001218
298.5,0.0001229
299.0,0.0002715
299.5,0.000452
300.0,0.0004984
300.5,0.0007237
301.0,0.001315
301.5,0.00211
302.0,0.001813
302.5,0.003458
303.0,0.006012
303.5,0.007411
304.0,0.006857
304.5,0.009824
305.0,0.01407
305.5,0.01554
306.0,0.01484
306.5,0.01805
307.0,0.02546
307.5,0.03226
308.0,0.03381
308.5,0.039
309.0,0.03781
309.5,0.04187
310.0,0.04142
310.5,0.06658
311.0,0.08251
311.5,0.07921
312.0,0.07702
312.5,0.09199
313.0,0.09879
313.5,0.09681
314.0,0.1183
314.5,0.1018
315.0,0.1331
315.5,0.113
316.0,0.09626
316.5,0.1353
317.0,0.1681
317.5,0.176
318.0,0.1353
318.5,0.1633
319.0,0.1911
319.5,0.1593
320.0,0.1932
320.5,0.2349
321.0,0.2039
321.5,0.195
322.0,0.2136
322.5,0.1856
323.0,0.1815
323.5,0.2193
324.0,0.2552
324.5,0.261
325.0,0.2276
325.5,0.2885
326.0,0.3511
326.5,0.3482
327.0,0.3483
327.5,0.3379
328.0,0.3048
328.5,0.3154
329.0,0.3729
329.5,0.4216
330.0,0.4266
330.5,0.3448
331.0,0.3524
331.5,0.3556
332.0,0.3801
332.5,0.3742
333.0,0.3742
333.5,0.3413
334.0,0.35
334.5,0.4004
335.0,0.3743
335.5,0.4372
336.0,0.3025
336.5,0.3551
337.0,0.2924
337.5,0.3641
338.0,0.353
338.5,0.4073
339.0,0.4031
339.5,0.3877
340.0,0.4558
340.5,0.4105
341.0,0.4004
341.5,0.3675
342.0,0.4392
342.5,0.4109
343.0,0.4519
343.5,0.4256
344.0,0.3145
344.5,0.3177
345.0,0.4203
345.5,0.429
346.0,0.3646
346.5,0.4128
347.0,0.4432
347.5,0.3583
348.0,0.4084
348.5,0.4082
349.0,0.3786
349.5,0.3749
350.0,0.4636
350.5,0.4891
351.0,0.4369
351.5,0.4248
352.0,0.4561
352.5,0.3559
353.0,0.4482
353.5,0.4793
354.0,0.4975
354.5,0.5046
355.0,0.5029
355.5,0.4543
356.0,0.4753
356.5,0.4059
357.0,0.3354
357.5,0.4106
358.0,0.3254
358.5,0.2781
359.0,0.389
359.5,0.4957
360.0,0.5255
360.5,0.42
361.0,0.3829
361.5,0.4408
362.0,0.3812
362.5,0.5275
363.0,0.4738
363.5,0.4364
364.0,0.5337
364.5,0.4562
365.0,0.4646
365.5,0.5832
366.0,0.6178
366.5,0.5805
367.0,0.5653
367.5,0.5867
368.0,0.5135
368.5,0.5181
369.0,0.5595
369.5,0.5964
370.0,0.6358
370.5,0.4935
371.0,0.5273
371.5,0.6597
372.0,0.4379
372.5,0.5251
373.0,0.5341
373.5,0.3475
374.0,0.505
374.5,0.4182
375.0,0.4066
375.5,0.6071
376.0,0.5033
376.5,0.5216
377.0,0.5522
377.5,0.6461
378.0,0.7004
378.5,0.662
379.0,0.5464
379.5,0.4992
380.0,0.519
380.5,0.6286
381.0,0.63
381.5,0.4994
382.0,0.4435
382.5,0.3781
383.0,0.35
383.5,0.3371
384.0,0.3719
384.5,0.5471
385.0,0.5425
385.5,0.5053
386.0,0.4328
386.5,0.5685
387.0,0.4724
387.5,0.5307
388.0,0.49
388.5,0.4844
389.0,0.5229
389.5,0.6333
390.0,0.6356
390.5,0.585
391.0,0.6886
391.5,0.7024
392.0,0.5917
392.5,0.5297
393.0,0.2948
393.5,0.2143
394.0,0.436
394.5,0.5544
395.0,0.6766
395.5,0.6873
396.0,0.5959
396.5,0.3484
397.0,0.2615
397.5,0.5317
398.0,0.7447
398.5,0.7698
399.0,0.8336
399.5,0.8309
400.0,0.8628
401.0,0.8763
402.0,0.9246
403.0,0.8783
404.0,0.8648
405.0,0.8648
406.0,0.8507
407.0,0.837
408.0,0.8698
409.0,0.9309
410.0,0.8134
411.0,0.8811
412.0,0.9463
413.0,0.9229
414.0,0.9342
415.0,0.9366
416.0,0.953
417.0,0.9296
418.0,0.9125
419.0,0.9244
420.0,0.9204
421.0,0.9629
422.0,0.9152
423.0,0.894
424.0,0.9456
425.0,0.9439
426.0,0.9193
427.0,0.9021
428.0,0.8788
429.0,0.8323
430.0,0.7284
431.0,0.722
432.0,0.9321
433.0,0.9372
434.0,0.8703
435.0,0.909
436.0,1.024
437.0,1.01
438.0,0.9198
439.0,0.9515
440.0,0.9818
441.0,1.017
442.0,1.091
443.0,1.063
444.0,1.086
445.0,1.062
446.0,1.014
447.0,1.095
448.0,1.113
449.0,1.117
450.0,1.148
451.0,1.191
452.0,1.147
453.0,1.079
454.0,1.126
455.0,1.133
456.0,1.16
457.0,1.179
458.0,1.139
459.0,1.133
460.0,1.136
461.0,1.162
462.0,1.171
463.0,1.163
464.0,1.144
465.0,1.129
466.0,1.14
467.0,1.119
468.0,1.132
469.0,1.138
470.0,1.102
471.0,1.1
472.0,1.159
473.0,1.144
474.0,1.146
475.0,1.156
476.0,1.122
477.0,1.126
478.0,1.157
479.0,1.149
480.0,1.151
481.0,1.173
482.0,1.178
483.0,1.164
484.0,1.14
485.0,1.086
486.0,0.9489
487.0,0.9943
488.0,1.091
489.0,1.094
490.0,1.151
491.0,1.131
492.0,1.068
493.0,1.103
494.0,1.114
495.0,1.124
496.0,1.131
497.0,1.148
498.0,1.094
499.0,1.108
500.0,1.076
501.0,1.057
502.0,1.042
503.0,1.085
504.0,1.059
505.0,1.096
506.0,1.131
507.0,1.076
508.0,1.042
509.0,1.071
510.0,1.065
511.0,1.094
512.0,1.106
513.0,1.046
514.0,1.039
515.0,1.029
516.0,1.026
517.0,0.9118
518.0,0.9586
519.0,1.005
520.0,1.042
521.0,1.052
522.0,1.053
523.0,1.034
524.0,1.071
525.0,1.084
526.0,1.036
527.0,0.9764
528.0,1.033
529.0,1.089
530.0,1.073
531.0,1.089
532.0,1.052
533.0,1.021
534.0,1.051
535.0,1.074
536.0,1.084
537.0,1.041
538.0,1.059
539.0,1.05
540.0,1.007
541.0,1.014
542.0,1.046
543.0,1.035
544.0,1.053
545.0,1.05
546.0,1.055
547.0,1.054
548.0,1.041
549.0,1.044
550.0,1.057
551.0,1.044
552.0,1.051
553.0,1.032
554.0,1.057
555.0,1.059
556.0,1.045
557.0,1.013
558.0,1.006
559.0,0.9869
560.0,0.9994
561.0,1.012
562.0,1.005
563.0,1.033
564.0,1.005
565.0,0.9966
566.0,0.9822
567.0,1.001
568.0,0.9927
569.0,0.9702
570.0,0.9698
571.0,0.9636
572.0,0.9876
573.0,0.9982
574.0,0.9952
575.0,0.9769
576.0,0.968
577.0,0.9784
578.0,0.9634
579.0,0.9667
580.0,0.9843
581.0,0.9887
582.0,1.007
583.0,1.009
584.0,1.017
585.0,0.9924
586.0,0.972
587.0,0.9936
588.0,0.9709
589.0,0.863
590.0,0.9022
591.0,0.9531
592.0,0.942
593.0,0.9547
594.0,0.9486
595.0,0.9261
596.0,0.9604
597.0,0.9505
598.0,0.9474
599.0,0.948
600.0,0.9488
601.0,0.9406
602.0,0.9341
603.0,0.9494
604.0,0.965
605.0,0.9599
606.0,0.9557
607.0,0.9649
608.0,0.954
609.0,0.9555
610.0,0.9484
611.0,0.9532
612.0,0.9503
613.0,0.9382
614.0,0.9252
615.0,0.9452
616.0,0.9139
617.0,0.9119
618.0,0.9469
619.0,0.9373
620.0,0.9432
621.0,0.9443
622.0,0.9334
623.0,0.9194
624.0,0.9035
625.0,0.9014
626.0,0.9148
627.0,0.9255
628.0,0.8703
629.0,0.9057
630.0,0.885
631.0,0.903
632.0,0.8918
633.0,0.9181
634.0,0.9085
635.0,0.9224
636.0,0.9098
637.0,0.9244
638.0,0.9329
639.0,0.9222
640.0,0.9129
641.0,0.9122
642.0,0.9078
643.0,0.92
644.0,0.9168
645.0,0.9184
646.0,0.8977
647.0,0.8886
648.0,0.8896
649.0,0.8725
650.0,0.8747
651.0,0.9122
652.0,0.8765
653.0,0.9
654.0,0.8898
655.0,0.8578
656.0,0.7594
657.0,0.7798
658.0,0.8732
659.0,0.8792
660.0,0.8828
661.0,0.8889
662.0,0.8911
663.0,0.8733
664.0,0.8831
665.0,0.8834
666.0,0.8839
667.0,0.8828
668.0,0.883
669.0,0.8965
670.0,0.8925
671.0,0.8922
672.0,0.8845
673.0,0.8977
674.0,0.8943
675.0,0.8861
676.0,0.8921
677.0,0.8831
678.0,0.8856
679.0,0.8712
680.0,0.8781
681.0,0.8723
682.0,0.8712
683.0,0.8695
684.0,0.8652
685.0,0.8725
686.0,0.8674
687.0,0.6015
688.0,0.6927
689.0,0.6948
690.0,0.7246
691.0,0.758
692.0,0.782
693.0,0.776
694.0,0.7695
695.0,0.7982
696.0,0.7993
697.0,0.8443
698.0,0.8313
699.0,0.814
700.0,0.8042
701.0,0.7968
702.0,0.8014
703.0,0.8028
704.0,0.827
705.0,0.8282
706.0,0.8269
707.0,0.8273
708.0,0.8292
709.0,0.8294
710.0,0.8298
711.0,0.8284
712.0,0.8255
713.0,0.8175
714.0,0.8205
715.0,0.7956
716.0,0.7963
717.0,0.7
718.0,0.6445
719.0,0.5913
720.0,0.6201
721.0,0.6788
722.0,0.7703
723.0,0.7204
724.0,0.6527
725.0,0.6436
726.0,0.6731
727.0,0.6804
728.0,0.6424
729.0,0.6631
730.0,0.7016
731.0,0.6723
732.0,0.7156
733.0,0.7541
734.0,0.7711
735.0,0.7556
736.0,0.7546
737.0,0.7577
738.0,0.7671
739.0,0.752
740.0,0.7709
741.0,0.7628
742.0,0.7631
743.0,0.7824
744.0,0.78
745.0,0.7799
746.0,0.7835
747.0,0.7851
748.0,0.7835
749.0,0.7745
750.0,0.774
751.0,0.7662
752.0,0.7694
753.0,0.7733
754.0,0.7751
755.0,0.7707
756.0,0.7703
757.0,0.7714
758.0,0.7619
759.0,0.7477
760.0,0.1487
761.0,0.08303
762.0,0.4078
763.0,0.2181
764.0,0.3152
765.0,0.4079
766.0,0.489
767.0,0.6053
768.0,0.6892
769.0,0.7016
770.0,0.7232
771.0,0.728
772.0,0.7292
773.0,0.7342
774.0,0.7306
775.0,0.725
776.0,0.7338
777.0,0.7241
778.0,0.7197
779.0,0.7203
780.0,0.7162
781.0,0.717
782.0,0.7214
783.0,0.7088
784.0,0.7122
785.0,0.707
786.0,0.7149
787.0,0.7034
788.0,0.6951
789.0,0.6949
790.0,0.6779
791.0,0.6823
792.0,0.6771
793.0,0.6663
794.0,0.6763
795.0,0.6881
796.0,0.6688
797.0,0.6698
798.0,0.6874
799.0,0.6834
800.0,0.672
801.0,0.6703
802.0,0.6684
803.0,0.6635
804.0,0.6642
805.0,0.6616
806.0,0.6793
807.0,0.6713
808.0,0.6718
809.0,0.6599
810.0,0.655
811.0,0.6568
812.0,0.6393
813.0,0.6268
814.0,0.5559
815.0,0.5523
816.0,0.5146
817.0,0.5235
818.0,0.505
819.0,0.5607
820.0,0.5295
821.0,0.6137
822.0,0.597
823.0,0.4144
824.0,0.5815
825.0,0.6032
826.0,0.582
827.0,0.6124
828.0,0.524
829.0,0.5781
830.0,0.571
831.0,0.5729
832.0,0.5561
833.0,0.5893
834.0,0.57
835.0,0.6228
836.0,0.5983
837.0,0.6244
838.0,0.6059
839.0,0.6148
840.0,0.628
841.0,0.6195
842.0,0.6202
843.0,0.6193
844.0,0.611
845.0,0.6312
846.0,0.6283
847.0,0.6164
848.0,0.6129
849.0,0.5955
850.0,0.5705
851.0,0.6043
852.0,0.5999
853.0,0.5772
854.0,0.4986
855.0,0.5475
856.0,0.5984
857.0,0.6116
858.0,0.6071
859.0,0.6076
860.0,0.6086
861.0,0.6053
862.0,0.6147
863.0,0.6293
864.0,0.5978
865.0,0.5925
866.0,0.5328
867.0,0.556
868.0,0.605
869.0,0.5925
870.0,0.6093
871.0,0.601
872.0,0.5989
873.0,0.5977
874.0,0.5906
875.0,0.5786
876.0,0.5847
877.0,0.5906
878.0,0.597
879.0,0.5878
880.0,0.5752
881.0,0.5667
882.0,0.579
883.0,0.5807
884.0,0.5781
885.0,0.5825
886.0,0.5555
887.0,0.5611
888.0,0.5696
889.0,0.5757
890.0,0.5713
891.0,0.5701
892.0,0.5542
893.0,0.5375
894.0,0.5199
895.0,0.4928
896.0,0.4649
897.0,0.4015
898.0,0.4369
899.0,0.3349
900.0,0.4461
901.0,0.351
902.0,0.4084
903.0,0.4136
904.0,0.5159
905.0,0.4989
906.0,0.4674
907.0,0.3829
908.0,0.3901
909.0,0.4211
910.0,0.375
911.0,0.3981
912.0,0.4156
913.0,0.3807
914.0,0.377
915.0,0.4085
916.0,0.3465
917.0,0.4369
918.0,0.3553
919.0,0.4442
920.0,0.4473
921.0,0.465
922.0,0.4175
923.0,0.449
924.0,0.4281
925.0,0.4188
926.0,0.4234
927.0,0.4722
928.0,0.3513
929.0,0.322
930.0,0.255
931.0,0.2413
932.0,0.1757
933.0,0.1438
934.0,0.0809
935.0,0.1463
936.0,0.09264
937.0,0.09405
938.0,0.1152
939.0,0.2338
940.0,0.2799
941.0,0.213
942.0,0.2456
943.0,0.1628
944.0,0.1703
945.0,0.2193
946.0,0.1134
947.0,0.2208
948.0,0.1624
949.0,0.2938
950.0,0.08428
951.0,0.289
952.0,0.1575
953.0,0.202
954.0,0.246
955.0,0.2041
956.0,0.1972
957.0,0.158
958.0,0.2772
959.0,0.222
960.0,0.2488
961.0,0.2779
962.0,0.2631
963.0,0.3021
964.0,0.2772
965.0,0.3009
966.0,0.3012
967.0,0.3
968.0,0.3981
969.0,0.4162
970.0,0.3828
971.0,0.4364
972.0,0.4178
973.0,0.3656
974.0,0.3472
975.0,0.3597
976.0,0.3425
977.0,0.3879
978.0,0.3693
979.0,0.3862
980.0,0.3635
981.0,0.4338
982.0,0.4154
983.0,0.3992
984.0,0.4462
985.0,0.4138
986.0,0.4536
987.0,0.4452
988.0,0.4444
989.0,0.4519
990.0,0.4417
991.0,0.4533
992.0,0.4559
993.0,0.4462
994.0,0.4557
995.0,0.4551
996.0,0.4531
997.0,0.4538
998.0,0.4517
999.0,0.45
1000.0,0.4469
1001.0,0.4524
1002.0,0.4404
1003.0,0.4444
1004.0,0.4337
1005.0,0.4176
1006.0,0.434
1007.0,0.4432
1008.0,0.4408
1009.0,0.4386
1010.0,0.4368
1011.0,0.4409
1012.0,0.4372
1013.0,0.4398
1014.0,0.4367
1015.0,0.4339
1016.0,0.4319
1017.0,0.433
1018.0,0.4313
1019.0,0.4223
1020.0,0.4291
1021.0,0.4285
1022.0,0.4252
1023.0,0.4297
1024.0,0.4243
1025.0,0.4294
1026.0,0.4276
1027.0,0.4266
1028.0,0.4257
1029.0,0.4207
1030.0,0.4235
1031.0,0.4218
1032.0,0.4206
1033.0,0.4143
1034.0,0.4143
1035.0,0.4156
1036.0,0.4177
1037.0,0.4109
1038.0,0.4128
1039.0,0.4125
1040.0,0.4109
1041.0,0.4125
1042.0,0.4096
1043.0,0.4084
1044.0,0.4098
1045.0,0.4043
1046.0,0.3998
1047.0,0.4034
1048.0,0.4056
1049.0,0.4042
1050.0,0.4023
1051.0,0.4018
1052.0,0.4002
1053.0,0.397
1054.0,0.3979
1055.0,0.3981
1056.0,0.3968
1057.0,0.3956
1058.0,0.3859
1059.0,0.3863
1060.0,0.3857
1061.0,0.3853
1062.0,0.3873
1063.0,0.3835
1064.0,0.388
1065.0,0.3853
1066.0,0.3777
1067.0,0.3825
1068.0,0.3742
1069.0,0.3626
1070.0,0.375
1071.0,0.3807
1072.0,0.3764
1073.0,0.371
1074.0,0.3804
1075.0,0.3618
1076.0,0.3801
1077.0,0.3735
1078.0,0.3666
1079.0,0.3739
1080.0,0.3678
1081.0,0.3562
1082.0,0.3616
1083.0,0.3626
1084.0,0.3554
1085.0,0.3686
1086.0,0.337
1087.0,0.3474
1088.0,0.3623
1089.0,0.3516
1090.0,0.3441
1091.0,0.3612
1092.0,0.3602
1093.0,0.3067
1094.0,0.3297
1095.0,0.3194
1096.0,0.3062
1097.0,0.3518
1098.0,0.3015
1099.0,0.3144
1100.0,0.2928
1101.0,0.2963
1102.0,0.2833
1103.0,0.2808
1104.0,0.2812
1105.0,0.3073
1106.0,0.2373
1107.0,0.2923
1108.0,0.2491
1109.0,0.2493
1110.0,0.2899
1111.0,0.1984
1112.0,0.2473
1113.0,0.1592
1114.0,0.1777
1115.0,0.1474
1116.0,0.1188
1117.0,0.04476
1118.0,0.1288
1119.0,0.06484
1120.0,0.08166
1121.0,0.1078
1122.0,0.04615
1123.0,0.07376
1124.0,0.06227
1125.0,0.08102
1126.0,0.02895
1127.0,0.09133
1128.0,0.05545
1129.0,0.05872
1130.0,0.03895
1131.0,0.1713
1132.0,0.1347
1133.0,0.08641
1134.0,0.02268
1135.0,0.008467
1136.0,0.07245
1137.0,0.1686
1138.0,0.119
1139.0,0.1754
1140.0,0.1473
1141.0,0.113
1142.0,0.1296
1143.0,0.1832
1144.0,0.065
1145.0,0.08332
1146.0,0.08987
1147.0,0.03238
1148.0,0.1586
1149.0,0.1273
1150.0,0.06982
1151.0,0.118
1152.0,0.1446
1153.0,0.1403
1154.0,0.08088
1155.0,0.183
1156.0,0.1652
1157.0,0.1847
1158.0,0.1827
1159.0,0.1965
1160.0,0.1686
1161.0,0.2063
1162.0,0.2075
1163.0,0.2776
1164.0,0.2391
1165.0,0.2265
1166.0,0.2242
1167.0,0.2437
1168.0,0.2466
1169.0,0.2521
1170.0,0.2732
1171.0,0.2665
1172.0,0.2708
1173.0,0.2726
1174.0,0.1971
1175.0,0.2659
1176.0,0.291
1177.0,0.2802
1178.0,0.2124
1179.0,0.2933
1180.0,0.2632
1181.0,0.2715
1182.0,0.1895
1183.0,0.2671
1184.0,0.251
1185.0,0.2428
1186.0,0.2857
1187.0,0.2728
1188.0,0.1929
1189.0,0.2543
1190.0,0.2792
1191.0,0.2663
1192.0,0.283
1193.0,0.2716
1194.0,0.2796
1195.0,0.2654
1196.0,0.2561
1197.0,0.2793
1198.0,0.2562
1199.0,0.2199
1200.0,0.2683
1201.0,0.2594
1202.0,0.2575
1203.0,0.2554
1204.0,0.2244
1205.0,0.2629
1206.0,0.2893
1207.0,0.257
1208.0,0.2524
1209.0,0.2574
1210.0,0.2677
1211.0,0.2557
1212.0,0.2536
1213.0,0.2802
1214.0,0.2592
1215.0,0.2545
1216.0,0.2793
1217.0,0.2723
1218.0,0.277
1219.0,0.2738
1220.0,0.2773
1221.0,0.2798
1222.0,0.2728
1223.0,0.2704
1224.0,0.269
1225.0,0.278
1226.0,0.2796
1227.0,0.259
1228.0,0.2808
1229.0,0.2797
1230.0,0.2751
1231.0,0.2822
1232.0,0.2806
1233.0,0.2718
1234.0,0.2818
1235.0,0.2801
1236.0,0.2821
1237.0,0.2785
1238.0,0.2811
1239.0,0.2775
1240.0,0.2785
1241.0,0.2774
1242.0,0.2766
1243.0,0.2744
1244.0,0.2764
1245.0,0.2775
1246.0,0.2759
1247.0,0.2749
1248.0,0.2748
1249.0,0.2756
1250.0,0.274
1251.0,0.2706
1252.0,0.2705
1253.0,0.2686
1254.0,0.2661
1255.0,0.2703
1256.0,0.2632
1257.0,0.2619
1258.0,0.2664
1259.0,0.2576
1260.0,0.2588
1261.0,0.2454
1262.0,0.2386
1263.0,0.2391
1264.0,0.222
1265.0,0.2375
1266.0,0.2293
1267.0,0.2328
1268.0,0.2216
1269.0,0.1432
1270.0,0.2322
1271.0,0.2444
1272.0,0.2451
1273.0,0.2426
1274.0,0.2432
1275.0,0.2466
1276.0,0.2487
1277.0,0.2501
1278.0,0.2545
1279.0,0.2522
1280.0,0.249
1281.0,0.2374
1282.0,0.2284
1283.0,0.2461
1284.0,0.252
1285.0,0.2536
1286.0,0.2569
1287.0,0.2533
1288.0,0.2531
1289.0,0.2458
1290.0,0.2508
1291.0,0.2542
1292.0,0.2401
1293.0,0.2496
1294.0,0.2479
1295.0,0.247
1296.0,0.2366
1297.0,0.2245
1298.0,0.2403
1299.0,0.2498
1300.0,0.2136
1301.0,0.2197
1302.0,0.2395
1303.0,0.2105
1304.0,0.1816
1305.0,0.2347
1306.0,0.2349
1307.0,0.1848
1308.0,0.2105
1309.0,0.2333
1310.0,0.1813
1311.0,0.2023
1312.0,0.1971
1313.0,0.1936
1314.0,0.174
1315.0,0.1722
1316.0,0.1994
1317.0,0.1891
1318.0,0.2048
1319.0,0.1623
1320.0,0.1568
1321.0,0.1818
1322.0,0.184
1323.0,0.1403
1324.0,0.1592
1325.0,0.1967
1326.0,0.17
1327.0,0.1624
1328.0,0.1406
1329.0,0.1071
1330.0,0.1387
1331.0,0.08539
1332.0,0.0876
1333.0,0.1215
1334.0,0.1022
1335.0,0.1398
1336.0,0.1114
1337.0,0.09895
1338.0,0.1071
1339.0,0.1064
1340.0,0.103
1341.0,0.1016
1342.0,0.1066
1343.0,0.07418
1344.0,0.04432
1345.0,0.06378
1346.0,0.03295
1347.0,0.03371
1348.0,0.00242
1349.0,0.008446
1350.0,0.008593
1351.0,0.002288
1352.0,0.0006822
1353.0,3.89e-05
1354.0,0.0001249
1355.0,1.264e-06
1356.0,1.917e-05
1357.0,2.911e-05
1358.0,1.484e-06
1359.0,2.219e-07
1360.0,7.216e-07
1361.0,1.161e-09
1362.0,3.724e-12
1363.0,1.027e-06
1364.0,4.303e-07
1365.0,1.593e-12
1366.0,4.29e-06
1367.0,1.709e-06
1368.0,1.821e-14
1369.0,1.625e-07
1370.0,8.616e-08
1371.0,5.357e-09
1372.0,9.408e-07
1373.0,1.692e-05
1374.0,7.275e-05
1375.0,0.0001325
1376.0,0.0001119
1377.0,5.22e-05
1378.0,0.0004931
1379.0,2.201e-05
1380.0,3.326e-05
1381.0,9.134e-07
1382.0,8.66e-07
1383.0,1.389e-08
1384.0,1.892e-07
1385.0,7.564e-07
1386.0,8.112e-07
1387.0,7.906e-05
1388.0,1.571e-06
1389.0,0.0002464
1390.0,0.0002122
1391.0,0.0001441
1392.0,9.643e-06
1393.0,4.904e-05
1394.0,2.872e-05
1395.0,2.321e-07
1396.0,1.594e-09
1397.0,2.016e-05
1398.0,0.0005584
1399.0,0.0003538
1400.0,7.571e-10
1401.0,2.77e-09
1402.0,0.0008884
1403.0,0.001138
1404.0,0.0003499
1405.0,1.202e-07
1406.0,0.0009402
1407.0,8.135e-05
1408.0,0.0007649
1409.0,0.0002717
1410.0,0.0002101
1411.0,0.0009973
1412.0,0.001311
1413.0,0.01253
1414.0,0.0001647
1415.0,8.121e-05
1416.0,0.01984
1417.0,0.006215
1418.0,0.007109
1419.0,0.001113
1420.0,0.004357
1421.0,0.004715
1422.0,0.02585
1423.0,0.005061
1424.0,0.009438
1425.0,0.01397
1426.0,0.01567
1427.0,0.02842
1428.0,0.00229
1429.0,0.02143
1430.0,0.0361
1431.0,0.03956
1432.0,0.001808
1433.0,0.02529
1434.0,0.01292
1435.0,0.01313
1436.0,0.02502
1437.0,0.01917
1438.0,0.00818
1439.0,0.03389
1440.0,0.02539
1441.0,0.01949
1442.0,0.0216
1443.0,0.02693
1444.0,0.03722
1445.0,0.02927
1446.0,0.0132
1447.0,0.0208
1448.0,0.06958
