interpolation:linear
wavelength,value
280.0,1.8809999999999999e-22
280.5,6.217e-21
281.0,3.34e-20
281.5,3.869e-19
282.0,5.987e-19
282.5,1.481e-18
283.0,4.683e-18
283.5,7.629e-18
284.0,1.26e-16
284.5,3.685e-16
285.0,6.057e-16
285.5,3.019e-15
286.0,1.218e-14
286.5,5.493e-14
287.0,1.579e-13
287.5,6.099e-13
288.0,2.156e-12
288.5,6.418e-12
289.0,1.693e-11
289.5,5.08e-11
290.0,1.406e-10
290.5,2.863e-10
291.0,6.142e-10
291.5,1.763e-09
292.0,3.534e-09
292.5,4.958e-09
293.0,1.063e-08
293.5,2.588e-08
294.0,4.049e-08
294.5,5.52e-08
295.0,9.355e-08
295.5,1.547e-07
296.0,2.991e-07
296.5,4.192e-07
297.0,5.681e-07
297.5,1.529e-06
298.0,2.417e-06
298.5,2.436e-06
299.0,5.383e-06
299.5,8.976e-06
300.0,9.889e-06
300.5,1.435e-05
301.0,2.602e-05
301.5,4.148e-05
302.0,3.544e-05
302.5,7.091e-05
303.0,0.0001319
303.5,0.0001711
304.0,0.0001665
304.5,0.0002729
305.0,0.0004744
305.5,0.0005936
306.0,0.0005948
306.5,0.0007852
307.0,0.001328
307.5,0.002009
308.0,0.002167
308.5,0.002729
309.0,0.002916
309.5,0.003778
310.0,0.004017
310.5,0.006691
311.0,0.008794
311.5,0.00866
312.0,0.00956
312.5,0.01242
313.0,0.01393
313.5,0.01311
314.0,0.01772
314.5,0.01741
315.0,0.0233
315.5,0.01854
316.0,0.0176
316.5,0.02714
317.0,0.03365
317.5,0.03431
318.0,0.0281
318.5,0.03829
319.0,0.0476
319.5,0.036
320.0,0.04301
320.5,0.05916
321.0,0.05734
321.5,0.05544
322.0,0.05396
322.5,0.04717
323.0,0.04984
323.5,0.06496
324.0,0.07658
324.5,0.07586
325.0,0.06339
325.5,0.08553
326.0,0.1064
326.5,0.11
327.0,0.1084
327.5,0.1032
328.0,0.08813
328.5,0.09746
329.0,0.1215
329.5,0.1397
330.0,0.1395
330.5,0.1083
331.0,0.1092
331.5,0.1136
332.0,0.127
332.5,0.1275
333.0,0.1261
333.5,0.1113
334.0,0.1137
334.5,0.1349
335.0,0.1289
335.5,0.1513
336.0,0.1047
336.5,0.1212
337.0,0.09827
337.5,0.1218
338.0,0.1217
338.5,0.1415
339.0,0.1403
339.5,0.1349
340.0,0.1576
340.5,0.1425
341.0,0.1397
341.5,0.1286
342.0,0.1539
342.5,0.1442
343.0,0.1584
343.5,0.149
344.0,0.1096
344.5,0.1112
345.0,0.1476
345.5,0.151
346.0,0.1286
346.5,0.1457
347.0,0.1563
347.5,0.1264
348.0,0.1444
348.5,0.1446
349.0,0.1343
349.5,0.1331
350.0,0.1647
350.5,0.1738
351.0,0.1552
351.5,0.1506
352.0,0.1621
352.5,0.1267
353.0,0.1599
353.5,0.1711
354.0,0.1778
354.5,0.1804
355.0,0.1798
355.5,0.1626
356.0,0.1703
356.5,0.1455
357.0,0.1202
357.5,0.1473
358.0,0.1168
358.5,0.09987
359.0,0.1397
359.5,0.178
360.0,0.1888
360.5,0.1511
361.0,0.1379
361.5,0.159
362.0,0.1377
362.5,0.1907
363.0,0.1715
363.5,0.1581
364.0,0.1936
364.5,0.1656
365.0,0.1687
365.5,0.2119
366.0,0.2248
366.5,0.2114
367.0,0.206
367.5,0.214
368.0,0.1874
368.5,0.1892
369.0,0.2045
369.5,0.2182
370.0,0.2328
370.5,0.1808
371.0,0.1934
371.5,0.2421
372.0,0.1608
372.5,0.1929
373.0,0.1964
373.5,0.1279
374.0,0.186
374.5,0.1542
375.0,0.15
375.5,0.224
376.0,0.1858
376.5,0.1927
377.0,0.2042
377.5,0.239
378.0,0.2592
378.5,0.2451
379.0,0.2024
379.5,0.1849
380.0,0.1924
380.5,0.2333
381.0,0.234
381.5,0.1857
382.0,0.1651
382.5,0.1409
383.0,0.1306
383.5,0.1259
384.0,0.139
384.5,0.2046
385.0,0.2031
385.5,0.1893
386.0,0.1623
386.5,0.2134
387.0,0.1774
387.5,0.1994
388.0,0.1842
388.5,0.1823
389.0,0.1969
389.5,0.2387
390.0,0.2397
390.5,0.2208
391.0,0.2601
391.5,0.2655
392.0,0.2237
392.5,0.2005
393.0,0.1117
393.5,0.08125
394.0,0.1654
394.5,0.2105
395.0,0.2571
395.5,0.2613
396.0,0.2267
396.5,0.1327
397.0,0.09965
397.5,0.2028
398.0,0.2841
398.5,0.2939
399.0,0.3186
399.5,0.3178
400.0,0.3301
401.0,0.3325
402.0,0.3515
403.0,0.3345
404.0,0.3297
405.0,0.3301
406.0,0.3253
407.0,0.3207
408.0,0.3334
409.0,0.3573
410.0,0.3127
411.0,0.3392
412.0,0.3651
413.0,0.3563
414.0,0.3612
415.0,0.3628
416.0,0.3698
417.0,0.361
418.0,0.3548
419.0,0.36
420.0,0.3587
421.0,0.3758
422.0,0.3576
423.0,0.3497
424.0,0.3701
425.0,0.3699
426.0,0.3611
427.0,0.3547
428.0,0.3459
429.0,0.3283
430.0,0.2877
431.0,0.2852
432.0,0.3689
433.0,0.3713
434.0,0.345
435.0,0.3605
436.0,0.407
437.0,0.4022
438.0,0.3667
439.0,0.3789
440.0,0.3915
441.0,0.4062
442.0,0.436
443.0,0.4246
444.0,0.4344
445.0,0.4251
446.0,0.4067
447.0,0.4405
448.0,0.447
449.0,0.4498
450.0,0.463
451.0,0.4805
452.0,0.4634
453.0,0.4363
454.0,0.4562
455.0,0.4591
456.0,0.4704
457.0,0.4784
458.0,0.4617
459.0,0.4596
460.0,0.4607
461.0,0.4716
462.0,0.4759
463.0,0.4727
464.0,0.4658
465.0,0.4609
466.0,0.4661
467.0,0.4574
468.0,0.4629
469.0,0.4654
470.0,0.4505
471.0,0.4502
472.0,0.4744
473.0,0.4683
474.0,0.4685
475.0,0.4719
476.0,0.457
477.0,0.4576
478.0,0.4706
479.0,0.4683
480.0,0.4697
481.0,0.4792
482.0,0.4825
483.0,0.4777
484.0,0.4685
485.0,0.447
486.0,0.3914
487.0,0.4108
488.0,0.4507
489.0,0.4519
490.0,0.4759
491.0,0.4681
492.0,0.4422
493.0,0.4568
494.0,0.4616
495.0,0.4656
496.0,0.4685
497.0,0.4757
498.0,0.4534
499.0,0.4588
500.0,0.445
501.0,0.4362
502.0,0.429
503.0,0.4453
504.0,0.4308
505.0,0.4488
506.0,0.4633
507.0,0.441
508.0,0.4283
509.0,0.4411
510.0,0.4395
511.0,0.4519
512.0,0.4572
513.0,0.4329
514.0,0.4302
515.0,0.4259
516.0,0.4248
517.0,0.3776
518.0,0.3969
519.0,0.4163
520.0,0.4313
521.0,0.4353
522.0,0.4353
523.0,0.4273
524.0,0.442
525.0,0.4464
526.0,0.4261
527.0,0.4008
528.0,0.4234
529.0,0.4458
530.0,0.4391
531.0,0.4453
532.0,0.4298
533.0,0.4172
534.0,0.4298
535.0,0.4396
536.0,0.444
537.0,0.4269
538.0,0.4346
539.0,0.4309
540.0,0.413
541.0,0.4147
542.0,0.4272
543.0,0.4235
544.0,0.43
545.0,0.4288
546.0,0.4299
547.0,0.4304
548.0,0.4257
549.0,0.4272
550.0,0.4323
551.0,0.4272
552.0,0.4302
553.0,0.4224
554.0,0.4324
555.0,0.433
556.0,0.4272
557.0,0.4136
558.0,0.41
559.0,0.4018
560.0,0.4065
561.0,0.4112
562.0,0.4076
563.0,0.418
564.0,0.4061
565.0,0.4021
566.0,0.3957
567.0,0.4025
568.0,0.3972
569.0,0.3845
570.0,0.3848
571.0,0.3833
572.0,0.3903
573.0,0.3941
574.0,0.3924
575.0,0.3843
576.0,0.3808
577.0,0.3853
578.0,0.3805
579.0,0.3835
580.0,0.3932
581.0,0.397
582.0,0.4062
583.0,0.4085
584.0,0.413
585.0,0.4034
586.0,0.3952
587.0,0.4028
588.0,0.389
589.0,0.3369
590.0,0.3529
591.0,0.3781
592.0,0.3706
593.0,0.3797
594.0,0.3756
595.0,0.3633
596.0,0.3841
597.0,0.3782
598.0,0.3792
599.0,0.3804
600.0,0.3826
601.0,0.3807
602.0,0.3784
603.0,0.3853
604.0,0.392
605.0,0.3904
606.0,0.3895
607.0,0.3941
608.0,0.3905
609.0,0.3918
610.0,0.3897
611.0,0.3922
612.0,0.3915
613.0,0.3869
614.0,0.3823
615.0,0.3912
616.0,0.3788
617.0,0.3784
618.0,0.3934
619.0,0.3896
620.0,0.3921
621.0,0.3919
622.0,0.3869
623.0,0.3806
624.0,0.3745
625.0,0.3737
626.0,0.379
627.0,0.3817
628.0,0.3381
629.0,0.3662
630.0,0.3571
631.0,0.3715
632.0,0.3682
633.0,0.382
634.0,0.3804
635.0,0.3874
636.0,0.3835
637.0,0.3907
638.0,0.3959
639.0,0.3922
640.0,0.3894
641.0,0.3898
642.0,0.3888
643.0,0.3941
644.0,0.3937
645.0,0.3939
646.0,0.3825
647.0,0.3728
648.0,0.3734
649.0,0.3654
650.0,0.3738
651.0,0.3912
652.0,0.3684
653.0,0.3864
654.0,0.3826
655.0,0.3651
656.0,0.3259
657.0,0.3351
658.0,0.3776
659.0,0.3812
660.0,0.3833
661.0,0.3862
662.0,0.3858
663.0,0.3787
664.0,0.385
665.0,0.3868
666.0,0.3877
667.0,0.388
668.0,0.389
669.0,0.3955
670.0,0.3941
671.0,0.3944
672.0,0.3913
673.0,0.3975
674.0,0.3964
675.0,0.3931
676.0,0.3961
677.0,0.3924
678.0,0.3938
679.0,0.3877
680.0,0.3909
681.0,0.3885
682.0,0.388
683.0,0.3874
684.0,0.3854
685.0,0.389
686.0,0.3864
687.0,0.182
688.0,0.2447
689.0,0.2467
690.0,0.2705
691.0,0.2988
692.0,0.3216
693.0,0.3183
694.0,0.3175
695.0,0.3404
696.0,0.3415
697.0,0.3735
698.0,0.3674
699.0,0.351
700.0,0.3463
701.0,0.3397
702.0,0.3451
703.0,0.3465
704.0,0.3623
705.0,0.3627
706.0,0.3642
707.0,0.3652
708.0,0.3658
709.0,0.3695
710.0,0.3678
711.0,0.3685
712.0,0.3689
713.0,0.3637
714.0,0.3655
715.0,0.3508
716.0,0.3502
717.0,0.2761
718.0,0.2514
719.0,0.2282
720.0,0.2361
721.0,0.2761
722.0,0.3329
723.0,0.3016
724.0,0.2614
725.0,0.254
726.0,0.2666
727.0,0.2774
728.0,0.2521
729.0,0.271
730.0,0.2845
731.0,0.2705
732.0,0.2995
733.0,0.3263
734.0,0.3371
735.0,0.3285
736.0,0.3276
737.0,0.329
738.0,0.3416
739.0,0.3351
740.0,0.346
741.0,0.3439
742.0,0.3457
743.0,0.3549
744.0,0.3548
745.0,0.3556
746.0,0.3572
747.0,0.3582
748.0,0.3575
749.0,0.3535
750.0,0.3534
751.0,0.3499
752.0,0.3515
753.0,0.3534
754.0,0.3542
755.0,0.3521
756.0,0.3521
757.0,0.3526
758.0,0.348
759.0,0.336
760.0,0.01335
761.0,0.004557
762.0,0.09947
763.0,0.028
764.0,0.05842
765.0,0.09924
766.0,0.1498
767.0,0.2238
768.0,0.291
769.0,0.3051
770.0,0.3247
771.0,0.3315
772.0,0.3336
773.0,0.3362
774.0,0.3349
775.0,0.3326
776.0,0.3367
777.0,0.3323
778.0,0.3303
779.0,0.3306
780.0,0.3288
781.0,0.3292
782.0,0.3313
783.0,0.3257
784.0,0.3274
785.0,0.3247
786.0,0.3279
787.0,0.3184
788.0,0.3128
789.0,0.3126
790.0,0.2993
791.0,0.3069
792.0,0.3054
793.0,0.2999
794.0,0.31
795.0,0.3139
796.0,0.2973
797.0,0.297
798.0,0.3127
799.0,0.3094
800.0,0.3024
801.0,0.2998
802.0,0.2988
803.0,0.2956
804.0,0.2969
805.0,0.298
806.0,0.3099
807.0,0.3054
808.0,0.306
809.0,0.2975
810.0,0.2934
811.0,0.2903
812.0,0.277
813.0,0.2695
814.0,0.2244
815.0,0.224
816.0,0.2068
817.0,0.2113
818.0,0.2005
819.0,0.2349
820.0,0.2175
821.0,0.2705
822.0,0.2601
823.0,0.1529
824.0,0.2463
825.0,0.2659
826.0,0.2504
827.0,0.2697
828.0,0.2131
829.0,0.25
830.0,0.2456
831.0,0.2464
832.0,0.2361
833.0,0.2583
834.0,0.2444
835.0,0.2801
836.0,0.2601
837.0,0.281
838.0,0.2682
839.0,0.2773
840.0,0.2844
841.0,0.2786
842.0,0.2819
843.0,0.2846
844.0,0.2791
845.0,0.2905
846.0,0.2898
847.0,0.2852
848.0,0.2822
849.0,0.2742
850.0,0.2628
851.0,0.2769
852.0,0.2756
853.0,0.2663
854.0,0.2291
855.0,0.2529
856.0,0.2759
857.0,0.2829
858.0,0.2804
859.0,0.2812
860.0,0.2821
861.0,0.2804
862.0,0.2851
863.0,0.2918
864.0,0.2773
865.0,0.275
866.0,0.2473
867.0,0.2581
868.0,0.2809
869.0,0.2751
870.0,0.283
871.0,0.2791
872.0,0.2782
873.0,0.2777
874.0,0.2744
875.0,0.2688
876.0,0.2715
877.0,0.2743
878.0,0.2771
879.0,0.2729
880.0,0.267
881.0,0.2624
882.0,0.2678
883.0,0.2693
884.0,0.2678
885.0,0.2698
886.0,0.2549
887.0,0.2594
888.0,0.2623
889.0,0.2671
890.0,0.2625
891.0,0.2633
892.0,0.2526
893.0,0.2418
894.0,0.2269
895.0,0.2065
896.0,0.1926
897.0,0.1567
898.0,0.1751
899.0,0.1236
900.0,0.1851
901.0,0.1295
902.0,0.1647
903.0,0.1617
904.0,0.225
905.0,0.2145
906.0,0.1983
907.0,0.1466
908.0,0.1526
909.0,0.1706
910.0,0.1404
911.0,0.1578
912.0,0.1654
913.0,0.1419
914.0,0.1429
915.0,0.1539
916.0,0.129
917.0,0.1738
918.0,0.1313
919.0,0.1808
920.0,0.1908
921.0,0.1978
922.0,0.169
923.0,0.192
924.0,0.1709
925.0,0.1678
926.0,0.1682
927.0,0.1959
928.0,0.1218
929.0,0.1056
930.0,0.07426
931.0,0.07033
932.0,0.04244
933.0,0.03122
934.0,0.01103
935.0,0.03445
936.0,0.01725
937.0,0.01735
938.0,0.02278
939.0,0.0679
940.0,0.08813
941.0,0.05858
942.0,0.07174
943.0,0.04135
944.0,0.04953
945.0,0.06217
946.0,0.02411
947.0,0.06033
948.0,0.04364
949.0,0.08867
950.0,0.01481
951.0,0.08817
952.0,0.03799
953.0,0.05524
954.0,0.07495
955.0,0.05668
956.0,0.06293
957.0,0.03761
958.0,0.09698
959.0,0.06756
960.0,0.07578
961.0,0.09263
962.0,0.08733
963.0,0.1074
964.0,0.09653
965.0,0.1067
966.0,0.106
967.0,0.1045
968.0,0.1678
969.0,0.1709
970.0,0.1546
971.0,0.1893
972.0,0.1783
973.0,0.1428
974.0,0.1347
975.0,0.1437
976.0,0.1294
977.0,0.1621
978.0,0.1478
979.0,0.1581
980.0,0.147
981.0,0.1885
982.0,0.1756
983.0,0.1662
984.0,0.2002
985.0,0.1747
986.0,0.2074
987.0,0.1993
988.0,0.1993
989.0,0.2093
990.0,0.1979
991.0,0.2094
992.0,0.2111
993.0,0.2023
994.0,0.2115
995.0,0.2119
996.0,0.2103
997.0,0.2109
998.0,0.2097
999.0,0.2091
1000.0,0.2066
1001.0,0.2103
1002.0,0.2002
1003.0,0.2064
1004.0,0.2002
1005.0,0.1944
1006.0,0.2012
1007.0,0.2059
1008.0,0.204
1009.0,0.2021
1010.0,0.2008
1011.0,0.2049
1012.0,0.2024
1013.0,0.2047
1014.0,0.2032
1015.0,0.2018
1016.0,0.2008
1017.0,0.2011
1018.0,0.2009
1019.0,0.195
1020.0,0.1996
1021.0,0.1996
1022.0,0.1974
1023.0,0.1995
1024.0,0.1952
1025.0,0.1999
1026.0,0.1986
1027.0,0.1982
1028.0,0.1977
1029.0,0.1952
1030.0,0.1971
1031.0,0.1961
1032.0,0.1957
1033.0,0.1927
1034.0,0.1928
1035.0,0.1934
1036.0,0.1942
1037.0,0.1911
1038.0,0.1919
1039.0,0.1917
1040.0,0.1908
1041.0,0.1915
1042.0,0.1901
1043.0,0.1894
1044.0,0.19
1045.0,0.1873
1046.0,0.1851
1047.0,0.1867
1048.0,0.1875
1049.0,0.1867
1050.0,0.1857
1051.0,0.1853
1052.0,0.1844
1053.0,0.1827
1054.0,0.1829
1055.0,0.1827
1056.0,0.1818
1057.0,0.181
1058.0,0.1763
1059.0,0.1762
1060.0,0.1758
1061.0,0.1755
1062.0,0.1761
1063.0,0.1742
1064.0,0.1763
1065.0,0.1744
1066.0,0.1715
1067.0,0.1735
1068.0,0.1693
1069.0,0.1644
1070.0,0.1696
1071.0,0.1737
1072.0,0.1706
1073.0,0.1683
1074.0,0.1743
1075.0,0.1615
1076.0,0.174
1077.0,0.1686
1078.0,0.1642
1079.0,0.172
1080.0,0.166
1081.0,0.1586
1082.0,0.1647
1083.0,0.1662
1084.0,0.1574
1085.0,0.1667
1086.0,0.1468
1087.0,0.155
1088.0,0.1654
1089.0,0.1561
1090.0,0.1508
1091.0,0.1638
1092.0,0.164
1093.0,0.1288
1094.0,0.1488
1095.0,0.1346
1096.0,0.1261
1097.0,0.1603
1098.0,0.1225
1099.0,0.1293
1100.0,0.1164
1101.0,0.1193
1102.0,0.1111
1103.0,0.108
1104.0,0.1084
1105.0,0.1254
1106.0,0.08039
1107.0,0.1163
1108.0,0.08932
1109.0,0.09092
1110.0,0.1131
1111.0,0.06455
1112.0,0.09079
1113.0,0.04647
1114.0,0.05232
1115.0,0.04244
1116.0,0.02834
1117.0,0.006106
1118.0,0.03202
1119.0,0.01171
1120.0,0.0141
1121.0,0.02072
1122.0,0.005756
1123.0,0.0129
1124.0,0.01083
1125.0,0.01516
1126.0,0.002654
1127.0,0.01737
1128.0,0.007197
1129.0,0.007901
1130.0,0.00474
1131.0,0.04284
1132.0,0.03154
1133.0,0.01483
1134.0,0.00199
1135.0,0.0008639
1136.0,0.01077
1137.0,0.03999
1138.0,0.02712
1139.0,0.05301
1140.0,0.03939
1141.0,0.02595
1142.0,0.03199
1143.0,0.05112
1144.0,0.01267
1145.0,0.01425
1146.0,0.01532
1147.0,0.002909
1148.0,0.04334
1149.0,0.03122
1150.0,0.0148
1151.0,0.02693
1152.0,0.03721
1153.0,0.03962
1154.0,0.01426
1155.0,0.05515
1156.0,0.047
1157.0,0.05853
1158.0,0.05766
1159.0,0.06488
1160.0,0.05342
1161.0,0.07335
1162.0,0.07286
1163.0,0.1129
1164.0,0.09174
1165.0,0.08138
1166.0,0.08519
1167.0,0.09522
1168.0,0.09516
1169.0,0.09872
1170.0,0.1119
1171.0,0.109
1172.0,0.1141
1173.0,0.1118
1174.0,0.06983
1175.0,0.1121
1176.0,0.1296
1177.0,0.1199
1178.0,0.08239
1179.0,0.1306
1180.0,0.1097
1181.0,0.1135
1182.0,0.06946
1183.0,0.1131
1184.0,0.1029
1185.0,0.09653
1186.0,0.1239
1187.0,0.1149
1188.0,0.06893
1189.0,0.1066
1190.0,0.1218
1191.0,0.1094
1192.0,0.1241
1193.0,0.1168
1194.0,0.1218
1195.0,0.111
1196.0,0.1046
1197.0,0.1235
1198.0,0.1112
1199.0,0.08612
1200.0,0.1153
1201.0,0.108
1202.0,0.1102
1203.0,0.1074
1204.0,0.09055
1205.0,0.115
1206.0,0.1312
1207.0,0.1085
1208.0,0.1094
1209.0,0.1121
1210.0,0.1188
1211.0,0.1101
1212.0,0.1039
1213.0,0.1245
1214.0,0.1082
1215.0,0.1057
1216.0,0.1246
1217.0,0.1197
1218.0,0.1234
1219.0,0.1209
1220.0,0.1238
1221.0,0.126
1222.0,0.1221
1223.0,0.1202
1224.0,0.1176
1225.0,0.1249
1226.0,0.1271
1227.0,0.1127
1228.0,0.1287
1229.0,0.1271
1230.0,0.1241
1231.0,0.1306
1232.0,0.1297
1233.0,0.1213
1234.0,0.1314
1235.0,0.1299
1236.0,0.1314
1237.0,0.128
1238.0,0.131
1239.0,0.1292
1240.0,0.1299
1241.0,0.1283
1242.0,0.1289
1243.0,0.1279
1244.0,0.1285
1245.0,0.1293
1246.0,0.1286
1247.0,0.1278
1248.0,0.1271
1249.0,0.128
1250.0,0.1269
1251.0,0.1246
1252.0,0.1255
1253.0,0.123
1254.0,0.1206
1255.0,0.125
1256.0,0.1187
1257.0,0.1175
1258.0,0.1219
1259.0,0.1133
1260.0,0.1144
1261.0,0.1029
1262.0,0.09722
1263.0,0.09727
1264.0,0.0841
1265.0,0.09674
1266.0,0.08968
1267.0,0.09362
1268.0,0.08506
1269.0,0.03358
1270.0,0.09235
1271.0,0.1032
1272.0,0.1041
1273.0,0.1024
1274.0,0.1035
1275.0,0.1059
1276.0,0.108
1277.0,0.11
1278.0,0.1141
1279.0,0.113
1280.0,0.1117
1281.0,0.1075
1282.0,0.1052
1283.0,0.113
1284.0,0.1154
1285.0,0.1164
1286.0,0.1189
1287.0,0.1154
1288.0,0.1159
1289.0,0.109
1290.0,0.115
1291.0,0.1172
1292.0,0.1044
1293.0,0.1137
1294.0,0.1126
1295.0,0.1101
1296.0,0.1017
1297.0,0.09386
1298.0,0.1063
1299.0,0.1143
1300.0,0.08818
1301.0,0.0923
1302.0,0.1061
1303.0,0.08782
1304.0,0.06739
1305.0,0.1036
1306.0,0.1027
1307.0,0.07161
1308.0,0.08929
1309.0,0.1005
1310.0,0.06951
1311.0,0.0838
1312.0,0.08056
1313.0,0.07703
1314.0,0.06618
1315.0,0.06372
1316.0,0.08099
1317.0,0.07558
1318.0,0.08546
1319.0,0.05788
1320.0,0.05773
1321.0,0.07047
1322.0,0.06945
1323.0,0.04526
1324.0,0.05717
1325.0,0.07875
1326.0,0.06323
1327.0,0.05901
1328.0,0.04838
1329.0,0.03048
1330.0,0.04285
1331.0,0.02002
1332.0,0.02222
1333.0,0.032
1334.0,0.03118
1335.0,0.04439
1336.0,0.03157
1337.0,0.02717
1338.0,0.02895
1339.0,0.02956
1340.0,0.03053
1341.0,0.02558
1342.0,0.02746
1343.0,0.01268
1344.0,0.00817
1345.0,0.01125
1346.0,0.00312
1347.0,0.0028
1348.0,5.774e-05
1349.0,0.000265
1350.0,0.0003253
1351.0,2.797e-05
1352.0,2.248e-06
1353.0,7.14e-08
1354.0,3.685e-07
1355.0,1.458e-09
1356.0,3.465e-08
1357.0,5.222e-08
1358.0,1.727e-09
1359.0,2.038e-10
1360.0,7.548e-10
1361.0,8.189e-13
1362.0,2.239e-15
1363.0,9.919e-10
1364.0,4.114e-10
1365.0,7.818e-16
1366.0,4.328e-09
1367.0,1.811e-09
1368.0,6.037e-18
1369.0,1.517e-10
1370.0,7.406e-11
1371.0,4.186e-12
1372.0,9.879e-10
1373.0,2.25e-08
1374.0,1.336e-07
1375.0,2.152e-07
1376.0,3.376e-07
1377.0,1.417e-07
1378.0,1.415e-06
1379.0,6.212e-08
1380.0,6.102e-08
1381.0,1.468e-09
1382.0,8.559e-10
1383.0,1.266e-11
1384.0,1.635e-10
1385.0,8.779e-10
1386.0,7.404e-10
1387.0,1.049e-07
1388.0,2.499e-09
1389.0,5.362e-07
1390.0,4.256e-07
1391.0,2.835e-07
1392.0,1.88e-08
1393.0,1.225e-07
1394.0,3.434e-08
1395.0,2.374e-10
1396.0,1.066e-12
1397.0,4.067e-08
1398.0,1.387e-06
1399.0,9.342e-07
1400.0,4.557e-13
1401.0,1.892e-12
1402.0,9.714e-06
1403.0,8.752e-06
1404.0,2.223e-06
1405.0,1.078e-10
1406.0,3.583e-06
1407.0,6.588e-07
1408.0,3.227e-06
1409.0,6.244e-07
1410.0,9.068e-07
1411.0,8.269e-06
1412.0,1.633e-05
1413.0,0.0004001
1414.0,8.043e-07
1415.0,2.987e-07
1416.0,0.0015
1417.0,0.0002593
1418.0,0.0001978
1419.0,2.703e-05
1420.0,0.0001187
1421.0,0.0001764
1422.0,0.001949
1423.0,0.0003443
1424.0,0.0007671
1425.0,0.0008988
1426.0,0.001453
1427.0,0.003468
