interpolation:linear
wavelength,value
280.0,2.992e-21
280.5,9.372e-20
281.0,4.944e-19
281.5,3.218e-19
282.0,1.009e-18
282.5,2.693e-18
283.0,8.791e-18
283.5,1.444e-17
284.0,2.37e-16
284.5,6.852e-16
285.0,1.565e-15
285.5,7.609e-15
286.0,3.043e-14
286.5,1.342e-13
287.0,3.797e-13
287.5,1.435e-12
288.0,3.803e-12
288.5,1.268e-11
289.0,3.607e-11
289.5,1.145e-10
290.0,3.275e-10
290.5,6.817e-10
291.0,1.492e-09
291.5,4.367e-09
292.0,9.528e-09
292.5,1.436e-08
293.0,3.373e-08
293.5,9.291e-08
294.0,1.587e-07
294.5,2.054e-07
295.0,3.796e-07
295.5,9.989e-07
296.0,2.002e-06
296.5,2.92e-06
297.0,4.105e-06
297.5,1.171e-05
298.0,1.956e-05
298.5,2.064e-05
299.0,4.782e-05
299.5,8.706e-05
300.0,0.0001013
300.5,0.0001563
301.0,0.0003164
301.5,0.0005702
302.0,0.0005259
302.5,0.001038
303.0,0.00189
303.5,0.0024
304.0,0.002268
304.5,0.003434
305.0,0.005304
305.5,0.006142
306.0,0.005971
306.5,0.007485
307.0,0.01126
307.5,0.01516
308.0,0.01605
308.5,0.01906
309.0,0.01879
309.5,0.02163
310.0,0.0218
310.5,0.03535
311.0,0.04448
311.5,0.04299
312.0,0.04318
312.5,0.0527
313.0,0.05725
313.5,0.05554
314.0,0.06967
314.5,0.06203
315.0,0.08159
315.5,0.06814
316.0,0.05971
316.5,0.08597
317.0,0.1067
317.5,0.111
318.0,0.08678
318.5,0.1081
319.0,0.1285
319.5,0.1045
320.0,0.1263
320.5,0.1585
321.0,0.1414
321.5,0.1357
322.0,0.1443
322.5,0.1256
323.0,0.1253
323.5,0.1541
324.0,0.18
324.5,0.1827
325.0,0.1578
325.5,0.2031
326.0,0.2485
326.5,0.249
327.0,0.2482
327.5,0.2397
328.0,0.2134
328.5,0.2244
329.0,0.2688
329.5,0.3053
330.0,0.308
330.5,0.2465
331.0,0.2512
331.5,0.2554
332.0,0.276
332.5,0.2731
333.0,0.2723
333.5,0.2465
334.0,0.2526
334.5,0.2916
335.0,0.2741
335.5,0.3202
336.0,0.2216
336.5,0.2595
337.0,0.213
337.5,0.2649
338.0,0.2588
338.5,0.2988
339.0,0.2958
339.5,0.2846
340.0,0.3345
340.5,0.3016
341.0,0.2942
341.5,0.2702
342.0,0.323
342.5,0.3023
343.0,0.3325
343.5,0.3132
344.0,0.2315
344.5,0.2339
345.0,0.3096
345.5,0.3162
346.0,0.2688
346.5,0.3045
347.0,0.327
347.5,0.2644
348.0,0.3016
348.5,0.3015
349.0,0.2798
349.5,0.2771
350.0,0.3428
350.5,0.3617
351.0,0.3232
351.5,0.3142
352.0,0.3375
352.5,0.2635
353.0,0.332
353.5,0.3551
354.0,0.3688
354.5,0.374
355.0,0.3729
355.5,0.337
356.0,0.3527
356.5,0.3012
357.0,0.2489
357.5,0.3048
358.0,0.2416
358.5,0.2065
359.0,0.2889
359.5,0.3682
360.0,0.3904
360.5,0.3122
361.0,0.2847
361.5,0.3279
362.0,0.2837
362.5,0.3928
363.0,0.3529
363.5,0.3252
364.0,0.3979
364.5,0.3402
365.0,0.3466
365.5,0.4351
366.0,0.4611
366.5,0.4334
367.0,0.4222
367.5,0.4383
368.0,0.3837
368.5,0.3873
369.0,0.4183
369.5,0.446
370.0,0.4756
370.5,0.3693
371.0,0.3947
371.5,0.4939
372.0,0.3279
372.5,0.3933
373.0,0.4002
373.5,0.2605
374.0,0.3786
374.5,0.3136
375.0,0.3049
375.5,0.4554
376.0,0.3776
376.5,0.3914
377.0,0.4145
377.5,0.4851
378.0,0.5259
378.5,0.4972
379.0,0.4104
379.5,0.3749
380.0,0.3899
380.5,0.4724
381.0,0.4736
381.5,0.3756
382.0,0.3337
382.5,0.2846
383.0,0.2635
383.5,0.2539
384.0,0.2802
384.5,0.4122
385.0,0.4089
385.5,0.3809
386.0,0.3264
386.5,0.4288
387.0,0.3564
387.5,0.4004
388.0,0.3698
388.5,0.3657
389.0,0.3948
389.5,0.4784
390.0,0.4802
390.5,0.4421
391.0,0.5205
391.5,0.531
392.0,0.4474
392.5,0.4006
393.0,0.223
393.5,0.1622
394.0,0.33
394.5,0.4197
395.0,0.5123
395.5,0.5205
396.0,0.4514
396.5,0.264
397.0,0.1982
397.5,0.4031
398.0,0.5646
398.5,0.5837
399.0,0.6323
399.5,0.6304
400.0,0.6547
401.0,0.6636
402.0,0.7005
403.0,0.6658
404.0,0.6558
405.0,0.656
406.0,0.6457
407.0,0.6356
408.0,0.6606
409.0,0.7073
410.0,0.6184
411.0,0.6701
412.0,0.7201
413.0,0.7024
414.0,0.7113
415.0,0.7135
416.0,0.7264
417.0,0.7087
418.0,0.6959
419.0,0.7053
420.0,0.7024
421.0,0.7351
422.0,0.6989
423.0,0.6829
424.0,0.7225
425.0,0.7214
426.0,0.7031
427.0,0.6901
428.0,0.6724
429.0,0.6372
430.0,0.5579
431.0,0.553
432.0,0.7143
433.0,0.7184
434.0,0.6672
435.0,0.697
436.0,0.7856
437.0,0.7754
438.0,0.7063
439.0,0.7304
440.0,0.7539
441.0,0.7815
442.0,0.8383
443.0,0.8165
444.0,0.8345
445.0,0.8165
446.0,0.7795
447.0,0.8431
448.0,0.8562
449.0,0.8599
450.0,0.8842
451.0,0.9172
452.0,0.8838
453.0,0.8315
454.0,0.8682
455.0,0.8737
456.0,0.8946
457.0,0.9096
458.0,0.8785
459.0,0.8741
460.0,0.8764
461.0,0.8967
462.0,0.9039
463.0,0.8977
464.0,0.8831
465.0,0.8723
466.0,0.8809
467.0,0.8648
468.0,0.875
469.0,0.8797
470.0,0.8516
471.0,0.8506
472.0,0.8963
473.0,0.8847
474.0,0.8859
475.0,0.8933
476.0,0.8664
477.0,0.8687
478.0,0.8929
479.0,0.8877
480.0,0.8895
481.0,0.9063
482.0,0.9113
483.0,0.9005
484.0,0.8822
485.0,0.8407
486.0,0.7351
487.0,0.7705
488.0,0.8454
489.0,0.8479
490.0,0.8922
491.0,0.8769
492.0,0.8282
493.0,0.8553
494.0,0.864
495.0,0.8713
496.0,0.8767
497.0,0.8903
498.0,0.8487
499.0,0.8595
500.0,0.8344
501.0,0.8189
502.0,0.8072
503.0,0.8398
504.0,0.8177
505.0,0.8476
506.0,0.875
507.0,0.8326
508.0,0.807
509.0,0.8298
510.0,0.8256
511.0,0.8479
512.0,0.8572
513.0,0.8113
514.0,0.8059
515.0,0.7979
516.0,0.7959
517.0,0.7072
518.0,0.7435
519.0,0.7799
520.0,0.8082
521.0,0.8159
522.0,0.8165
523.0,0.8018
524.0,0.8303
525.0,0.8399
526.0,0.8023
527.0,0.7559
528.0,0.7993
529.0,0.8424
530.0,0.8302
531.0,0.8425
532.0,0.8135
533.0,0.7897
534.0,0.8131
535.0,0.8309
536.0,0.8386
537.0,0.8057
538.0,0.8199
539.0,0.813
540.0,0.7795
541.0,0.7844
542.0,0.8088
543.0,0.8005
544.0,0.8142
545.0,0.8117
546.0,0.8151
547.0,0.8149
548.0,0.8053
549.0,0.8078
550.0,0.8174
551.0,0.8075
552.0,0.8131
553.0,0.7985
554.0,0.8176
555.0,0.8192
556.0,0.8085
557.0,0.7833
558.0,0.7773
559.0,0.7626
560.0,0.7721
561.0,0.782
562.0,0.7762
563.0,0.7972
564.0,0.7753
565.0,0.7685
566.0,0.7571
567.0,0.7713
568.0,0.7639
569.0,0.7449
570.0,0.7448
571.0,0.7406
572.0,0.7578
573.0,0.7658
574.0,0.7632
575.0,0.7488
576.0,0.742
577.0,0.7501
578.0,0.7391
579.0,0.7424
580.0,0.7572
581.0,0.7616
582.0,0.7764
583.0,0.7786
584.0,0.7856
585.0,0.7666
586.0,0.7508
587.0,0.767
588.0,0.7473
589.0,0.6599
590.0,0.6903
591.0,0.7318
592.0,0.7218
593.0,0.7334
594.0,0.7279
595.0,0.7092
596.0,0.7389
597.0,0.7305
598.0,0.7291
599.0,0.73
600.0,0.7315
601.0,0.7259
602.0,0.721
603.0,0.7331
604.0,0.7453
605.0,0.7416
606.0,0.7387
607.0,0.7462
608.0,0.7382
609.0,0.7396
610.0,0.7345
611.0,0.7384
612.0,0.7364
613.0,0.7272
614.0,0.7174
615.0,0.7332
616.0,0.7092
617.0,0.7079
618.0,0.7352
619.0,0.7278
620.0,0.7324
621.0,0.733
622.0,0.7242
623.0,0.7131
624.0,0.701
625.0,0.6994
626.0,0.7097
627.0,0.7173
628.0,0.665
629.0,0.6986
630.0,0.6824
631.0,0.6994
632.0,0.6913
633.0,0.7131
634.0,0.7066
635.0,0.7179
636.0,0.7087
637.0,0.7206
638.0,0.7279
639.0,0.7199
640.0,0.7131
641.0,0.7129
642.0,0.7098
643.0,0.7194
644.0,0.7173
645.0,0.7183
646.0,0.701
647.0,0.6913
648.0,0.6919
649.0,0.6784
650.0,0.6834
651.0,0.7133
652.0,0.6818
653.0,0.7039
654.0,0.6963
655.0,0.6694
656.0,0.594
657.0,0.61
658.0,0.6842
659.0,0.6893
660.0,0.6923
661.0,0.6972
662.0,0.6983
663.0,0.6846
664.0,0.6932
665.0,0.6942
666.0,0.6948
667.0,0.6944
668.0,0.6949
669.0,0.7058
670.0,0.7028
671.0,0.7027
672.0,0.6968
673.0,0.7074
674.0,0.7048
675.0,0.6985
676.0,0.7033
677.0,0.6964
678.0,0.6984
679.0,0.6872
680.0,0.6928
681.0,0.6882
682.0,0.6874
683.0,0.6861
684.0,0.6826
685.0,0.6885
686.0,0.6844
687.0,0.4333
688.0,0.5177
689.0,0.5199
690.0,0.5486
691.0,0.5813
692.0,0.6055
693.0,0.6003
694.0,0.5954
695.0,0.6227
696.0,0.6236
697.0,0.665
698.0,0.6546
699.0,0.6368
700.0,0.629
701.0,0.6219
702.0,0.627
703.0,0.6283
704.0,0.6497
705.0,0.6506
706.0,0.6505
707.0,0.6512
708.0,0.6526
709.0,0.6543
710.0,0.6539
711.0,0.6533
712.0,0.6517
713.0,0.6448
714.0,0.6473
715.0,0.626
716.0,0.6262
717.0,0.5354
718.0,0.4907
719.0,0.4488
720.0,0.4694
721.0,0.5229
722.0,0.6032
723.0,0.559
724.0,0.5006
725.0,0.4915
726.0,0.515
727.0,0.5242
728.0,0.4899
729.0,0.511
730.0,0.5406
731.0,0.5164
732.0,0.5553
733.0,0.5905
734.0,0.6054
735.0,0.5924
736.0,0.5916
737.0,0.5939
738.0,0.605
739.0,0.5931
740.0,0.6091
741.0,0.6034
742.0,0.6044
743.0,0.6199
744.0,0.6183
745.0,0.6186
746.0,0.6214
747.0,0.6228
748.0,0.6216
749.0,0.6145
750.0,0.6141
751.0,0.6079
752.0,0.6106
753.0,0.6137
754.0,0.6151
755.0,0.6116
756.0,0.6113
757.0,0.6122
758.0,0.6045
759.0,0.5911
760.0,0.07933
761.0,0.03848
762.0,0.2795
763.0,0.1278
764.0,0.2023
765.0,0.2794
766.0,0.3536
767.0,0.4574
768.0,0.5371
769.0,0.5505
770.0,0.5716
771.0,0.5772
772.0,0.5788
773.0,0.5829
774.0,0.5802
775.0,0.5758
776.0,0.5828
777.0,0.5752
778.0,0.5717
779.0,0.5722
780.0,0.569
781.0,0.5696
782.0,0.5731
783.0,0.5632
784.0,0.566
785.0,0.5617
786.0,0.5678
787.0,0.5569
788.0,0.5495
789.0,0.5492
790.0,0.5333
791.0,0.5392
792.0,0.5354
793.0,0.5266
794.0,0.537
795.0,0.5457
796.0,0.5271
797.0,0.5277
798.0,0.5449
799.0,0.541
800.0,0.5312
801.0,0.5291
802.0,0.5276
803.0,0.5234
804.0,0.5243
805.0,0.5232
806.0,0.5388
807.0,0.5321
808.0,0.5326
809.0,0.522
810.0,0.5172
811.0,0.5169
812.0,0.5008
813.0,0.4897
814.0,0.4268
815.0,0.4244
816.0,0.3945
817.0,0.4021
818.0,0.3861
819.0,0.4352
820.0,0.4085
821.0,0.4825
822.0,0.4679
823.0,0.3105
824.0,0.4525
825.0,0.474
826.0,0.4545
827.0,0.4812
828.0,0.4033
829.0,0.452
830.0,0.4456
831.0,0.4473
832.0,0.4327
833.0,0.4627
834.0,0.4448
835.0,0.492
836.0,0.4688
837.0,0.4935
838.0,0.4771
839.0,0.4863
840.0,0.4972
841.0,0.4897
842.0,0.4915
843.0,0.492
844.0,0.4847
845.0,0.5017
846.0,0.4996
847.0,0.4905
848.0,0.4871
849.0,0.4733
850.0,0.4535
851.0,0.4798
852.0,0.4766
853.0,0.459
854.0,0.3961
855.0,0.4355
856.0,0.4758
857.0,0.4866
858.0,0.4829
859.0,0.4835
860.0,0.4845
861.0,0.4818
862.0,0.4894
863.0,0.501
864.0,0.476
865.0,0.4718
866.0,0.4243
867.0,0.4428
868.0,0.4818
869.0,0.4718
870.0,0.4853
871.0,0.4787
872.0,0.477
873.0,0.4761
874.0,0.4704
875.0,0.4609
876.0,0.4656
877.0,0.4704
878.0,0.4754
879.0,0.4681
880.0,0.4581
881.0,0.451
882.0,0.4607
883.0,0.4623
884.0,0.4601
885.0,0.4636
886.0,0.4412
887.0,0.4464
888.0,0.4526
889.0,0.4584
890.0,0.4538
891.0,0.4534
892.0,0.4394
893.0,0.4246
894.0,0.4076
895.0,0.3825
896.0,0.3594
897.0,0.3054
898.0,0.3351
899.0,0.2509
900.0,0.3452
901.0,0.2631
902.0,0.314
903.0,0.3153
904.0,0.4045
905.0,0.3895
906.0,0.3636
907.0,0.2903
908.0,0.2969
909.0,0.3239
910.0,0.2821
911.0,0.3036
912.0,0.3181
913.0,0.2861
914.0,0.2845
915.0,0.3085
916.0,0.2601
917.0,0.3347
918.0,0.2665
919.0,0.342
920.0,0.3482
921.0,0.3623
922.0,0.3207
923.0,0.3502
924.0,0.3282
925.0,0.3212
926.0,0.3244
927.0,0.3663
928.0,0.2597
929.0,0.2346
930.0,0.1804
931.0,0.1714
932.0,0.1193
933.0,0.09493
934.0,0.0478
935.0,0.09882
936.0,0.05897
937.0,0.0595
938.0,0.07422
939.0,0.166
940.0,0.2026
941.0,0.149
942.0,0.1749
943.0,0.1119
944.0,0.1208
945.0,0.1544
946.0,0.07444
947.0,0.154
948.0,0.1126
949.0,0.2103
950.0,0.05231
951.0,0.2078
952.0,0.1062
953.0,0.1408
954.0,0.1766
955.0,0.1428
956.0,0.1414
957.0,0.1059
958.0,0.2056
959.0,0.1587
960.0,0.1779
961.0,0.2034
962.0,0.192
963.0,0.2246
964.0,0.2047
965.0,0.2239
966.0,0.2233
967.0,0.222
968.0,0.3092
969.0,0.3217
970.0,0.2941
971.0,0.3417
972.0,0.3258
973.0,0.2786
974.0,0.2637
975.0,0.2757
976.0,0.259
977.0,0.3003
978.0,0.283
979.0,0.298
980.0,0.2792
981.0,0.3399
982.0,0.3231
983.0,0.3091
984.0,0.3524
985.0,0.3219
986.0,0.3599
987.0,0.3513
988.0,0.3507
989.0,0.3597
990.0,0.3486
991.0,0.3606
992.0,0.3628
993.0,0.3532
994.0,0.3629
995.0,0.3626
996.0,0.3608
997.0,0.3614
998.0,0.3596
999.0,0.3584
1000.0,0.3555
1001.0,0.3604
1002.0,0.349
1003.0,0.3539
1004.0,0.3448
1005.0,0.3328
1006.0,0.3455
1007.0,0.3529
1008.0,0.3508
1009.0,0.3486
1010.0,0.347
1011.0,0.3512
1012.0,0.3479
1013.0,0.3504
1014.0,0.348
1015.0,0.3456
1016.0,0.344
1017.0,0.3448
1018.0,0.3437
1019.0,0.3358
1020.0,0.3418
1021.0,0.3415
1022.0,0.3386
1023.0,0.3422
1024.0,0.3371
1025.0,0.3421
1026.0,0.3405
1027.0,0.3397
1028.0,0.339
1029.0,0.3349
1030.0,0.3374
1031.0,0.336
1032.0,0.3351
1033.0,0.33
1034.0,0.3301
1035.0,0.3311
1036.0,0.3327
1037.0,0.3274
1038.0,0.3288
1039.0,0.3286
1040.0,0.3272
1041.0,0.3285
1042.0,0.3262
1043.0,0.3251
1044.0,0.3262
1045.0,0.3218
1046.0,0.3182
1047.0,0.321
1048.0,0.3227
1049.0,0.3215
1050.0,0.32
1051.0,0.3195
1052.0,0.3181
1053.0,0.3155
1054.0,0.3161
1055.0,0.3162
1056.0,0.315
1057.0,0.3139
1058.0,0.3061
1059.0,0.3064
1060.0,0.3059
1061.0,0.3055
1062.0,0.307
1063.0,0.3039
1064.0,0.3075
1065.0,0.3051
1066.0,0.2992
1067.0,0.303
1068.0,0.2962
1069.0,0.2872
1070.0,0.2968
1071.0,0.3019
1072.0,0.298
1073.0,0.2938
1074.0,0.302
1075.0,0.2853
1076.0,0.3017
1077.0,0.2954
1078.0,0.2894
1079.0,0.2971
1080.0,0.2909
1081.0,0.2808
1082.0,0.2866
1083.0,0.2878
1084.0,0.2797
1085.0,0.2917
1086.0,0.2639
1087.0,0.274
1088.0,0.2873
1089.0,0.277
1090.0,0.27
1091.0,0.2859
1092.0,0.2855
1093.0,0.2379
1094.0,0.2607
1095.0,0.2483
1096.0,0.2365
1097.0,0.2789
1098.0,0.2323
1099.0,0.243
1100.0,0.2241
1101.0,0.2275
1102.0,0.2161
1103.0,0.2132
1104.0,0.2136
1105.0,0.2371
1106.0,0.1744
1107.0,0.2238
1108.0,0.1856
1109.0,0.1867
1110.0,0.2212
1111.0,0.1446
1112.0,0.1856
1113.0,0.1126
1114.0,0.1263
1115.0,0.1044
1116.0,0.08014
1117.0,0.02612
1118.0,0.08823
1119.0,0.04099
1120.0,0.05134
1121.0,0.06978
1122.0,0.02701
1123.0,0.04652
1124.0,0.03922
1125.0,0.05186
1126.0,0.01576
1127.0,0.05871
1128.0,0.03258
1129.0,0.03489
1130.0,0.02213
1131.0,0.1177
1132.0,0.09114
1133.0,0.0543
1134.0,0.0121
1135.0,0.004643
1136.0,0.04409
1137.0,0.1144
1138.0,0.07996
1139.0,0.1262
1140.0,0.1028
1141.0,0.07605
1142.0,0.08885
1143.0,0.1291
1144.0,0.04184
1145.0,0.05243
1146.0,0.05651
1147.0,0.01754
1148.0,0.1115
1149.0,0.087
1150.0,0.04542
1151.0,0.07931
1152.0,0.1001
1153.0,0.09937
1154.0,0.0506
1155.0,0.1315
1156.0,0.1171
1157.0,0.1337
1158.0,0.1322
1159.0,0.1443
1160.0,0.1216
1161.0,0.1535
1162.0,0.154
1163.0,0.2142
1164.0,0.1815
1165.0,0.169
1166.0,0.1695
1167.0,0.1857
1168.0,0.1873
1169.0,0.1924
1170.0,0.2109
1171.0,0.2055
1172.0,0.2103
1173.0,0.2105
1174.0,0.146
1175.0,0.2065
1176.0,0.2293
1177.0,0.2186
1178.0,0.161
1179.0,0.2312
1180.0,0.2039
1181.0,0.2106
1182.0,0.1418
1183.0,0.2079
1184.0,0.1937
1185.0,0.1858
1186.0,0.2238
1187.0,0.2121
1188.0,0.1438
1189.0,0.1974
1190.0,0.2188
1191.0,0.2058
1192.0,0.2221
1193.0,0.2121
1194.0,0.2191
1195.0,0.2059
1196.0,0.1975
1197.0,0.2199
1198.0,0.2003
1199.0,0.1675
1200.0,0.2094
1201.0,0.2009
1202.0,0.2005
1203.0,0.1985
1204.0,0.1722
1205.0,0.206
1206.0,0.229
1207.0,0.1996
1208.0,0.1973
1209.0,0.2016
1210.0,0.2106
1211.0,0.1996
1212.0,0.1958
1213.0,0.2208
1214.0,0.2011
1215.0,0.197
1216.0,0.2202
1217.0,0.2139
1218.0,0.2184
1219.0,0.2154
1220.0,0.2186
1221.0,0.2211
1222.0,0.2151
1223.0,0.2129
1224.0,0.2111
1225.0,0.2197
1226.0,0.2215
1227.0,0.2029
1228.0,0.2229
1229.0,0.2215
1230.0,0.2175
1231.0,0.2245
1232.0,0.2232
1233.0,0.2144
1234.0,0.2246
1235.0,0.223
1236.0,0.2248
1237.0,0.2211
1238.0,0.224
1239.0,0.2211
1240.0,0.222
1241.0,0.2207
1242.0,0.2205
1243.0,0.2187
1244.0,0.2202
1245.0,0.2212
1246.0,0.2199
1247.0,0.2189
1248.0,0.2187
1249.0,0.2195
1250.0,0.218
1251.0,0.2151
1252.0,0.2153
1253.0,0.2132
1254.0,0.2108
1255.0,0.215
1256.0,0.2082
1257.0,0.2069
1258.0,0.2114
1259.0,0.2026
1260.0,0.2038
1261.0,0.1909
1262.0,0.1844
1263.0,0.1847
1264.0,0.1688
1265.0,0.1836
1266.0,0.1756
1267.0,0.1794
1268.0,0.169
1269.0,0.09766
1270.0,0.1785
1271.0,0.1905
1272.0,0.1913
1273.0,0.1891
1274.0,0.1899
1275.0,0.1929
1276.0,0.195
1277.0,0.1967
1278.0,0.2011
1279.0,0.1992
1280.0,0.1967
1281.0,0.188
1282.0,0.1816
1283.0,0.1954
1284.0,0.2
1285.0,0.2014
1286.0,0.2044
1287.0,0.2008
1288.0,0.2009
1289.0,0.1936
1290.0,0.1991
1291.0,0.2021
1292.0,0.1882
1293.0,0.1978
1294.0,0.1963
1295.0,0.1949
1296.0,0.185
1297.0,0.1742
1298.0,0.1892
1299.0,0.1982
1300.0,0.1649
1301.0,0.1706
1302.0,0.1886
1303.0,0.1631
1304.0,0.1365
1305.0,0.1845
1306.0,0.1843
1307.0,0.1404
1308.0,0.1638
1309.0,0.1826
1310.0,0.1375
1311.0,0.1564
1312.0,0.1518
1313.0,0.1483
1314.0,0.1318
1315.0,0.1295
1316.0,0.1535
1317.0,0.1451
1318.0,0.1588
1319.0,0.1209
1320.0,0.1178
1321.0,0.1383
1322.0,0.1391
1323.0,0.102
1324.0,0.1187
1325.0,0.151
1326.0,0.1279
1327.0,0.1216
1328.0,0.1039
1329.0,0.07566
1330.0,0.0997
1331.0,0.05738
1332.0,0.06018
1333.0,0.08437
1334.0,0.07299
1335.0,0.1015
1336.0,0.07879
1337.0,0.06898
1338.0,0.0746
1339.0,0.07468
1340.0,0.07343
1341.0,0.06985
1342.0,0.07355
1343.0,0.04631
1344.0,0.028
1345.0,0.04044
1346.0,0.01801
1347.0,0.01795
1348.0,0.0009117
1349.0,0.003503
1350.0,0.003817
1351.0,0.0007423
1352.0,0.000155
1353.0,6.179e-06
1354.0,2.53e-05
1355.0,1.194e-07
1356.0,2.975e-06
1357.0,4.552e-06
1358.0,1.446e-07
1359.0,1.207e-08
1360.0,5.716e-08
1361.0,2.73e-11
1362.0,5.343e-14
1363.0,6.678e-08
1364.0,2.766e-08
1365.0,1.178e-14
1366.0,3.253e-07
1367.0,1.464e-07
1368.0,3.897e-17
1369.0,1.018e-08
1370.0,4.219e-09
1371.0,1.964e-10
1372.0,8.108e-08
1373.0,2.146e-06
1374.0,1.205e-05
1375.0,2.143e-05
1376.0,2.302e-05
1377.0,1.014e-05
1378.0,0.0001064
1379.0,4.256e-06
1380.0,5.417e-06
1381.0,1.283e-07
1382.0,6.95e-08
1383.0,9.097e-10
1384.0,1.069e-08
1385.0,8.061e-08
1386.0,5.463e-08
1387.0,1.098e-05
1388.0,2.232e-07
1389.0,4.65e-05
1390.0,3.963e-05
1391.0,2.561e-05
1392.0,1.588e-06
1393.0,9.303e-06
1394.0,3.491e-06
1395.0,2.112e-08
1396.0,4.421e-11
1397.0,3.441e-06
1398.0,0.0001166
1399.0,7.468e-05
1400.0,1.517e-11
1401.0,8.635e-11
1402.0,0.0002747
1403.0,0.0003269
1404.0,9.719e-05
1405.0,8.854e-09
1406.0,0.0002304
1407.0,2.218e-05
1408.0,0.0001918
1409.0,5.51e-05
1410.0,4.957e-05
1411.0,0.0002907
1412.0,0.0004229
1413.0,0.005389
1414.0,3.997e-05
1415.0,1.788e-05
1416.0,0.01025
1417.0,0.002675
1418.0,0.002938
1419.0,0.00044
1420.0,0.001785
1421.0,0.001962
1422.0,0.01346
1423.0,0.002505
1424.0,0.004825
1425.0,0.006862
1426.0,0.008338
1427.0,0.01655
1428.0,0.0008366
1429.0,0.01174
1430.0,0.02168
1431.0,0.02424
1432.0,0.0006512
1433.0,0.01485
1434.0,0.007274
1435.0,0.006339
1436.0,0.01365
1437.0,0.0105
