interpolation:linear
wavelength,value
280.0,1.27e-22
280.5,4.219e-21
281.0,2.2720000000000003e-20
281.5,4.179e-19
282.0,5.532e-19
282.5,1.355e-18
283.0,4.269e-18
283.5,6.953e-18
284.0,1.149e-16
284.5,3.363e-16
285.0,5.765e-16
285.5,2.827e-15
286.0,1.138e-14
286.5,5.114e-14
287.0,1.469e-13
287.5,5.673e-13
288.0,2.016e-12
288.5,5.923e-12
289.0,1.551e-11
289.5,4.633e-11
290.0,1.28e-10
290.5,2.606e-10
291.0,5.589e-10
291.5,1.605e-09
292.0,3.232e-09
292.5,4.521e-09
293.0,9.663e-09
293.5,2.342e-08
294.0,3.658e-08
294.5,4.898e-08
295.0,8.28e-08
295.5,1.382e-07
296.0,2.648e-07
296.5,3.676e-07
297.0,4.939e-07
297.5,1.31e-06
298.0,2.042e-06
298.5,2.034e-06
299.0,4.437e-06
299.5,7.218e-06
300.0,7.832e-06
300.5,1.117e-05
301.0,1.968e-05
301.5,3.047e-05
302.0,2.564e-05
302.5,5.057e-05
303.0,9.209e-05
303.5,0.000118
304.0,0.0001142
304.5,0.000185
305.0,0.000316
305.5,0.0003911
306.0,0.0003901
306.5,0.0005113
307.0,0.0008514
307.5,0.001267
308.0,0.001363
308.5,0.001703
309.0,0.001974
309.5,0.00262
310.0,0.002817
310.5,0.004718
311.0,0.006257
311.5,0.006185
312.0,0.006965
312.5,0.009165
313.0,0.01036
313.5,0.009679
314.0,0.01329
314.5,0.01333
315.0,0.01791
315.5,0.01411
316.0,0.01362
316.5,0.02131
317.0,0.02642
317.5,0.02682
318.0,0.02219
318.5,0.03081
319.0,0.03869
319.5,0.02879
320.0,0.03431
320.5,0.04814
321.0,0.0475
321.5,0.04601
322.0,0.04392
322.5,0.03843
323.0,0.04112
323.5,0.0546
324.0,0.0645
324.5,0.06351
325.0,0.05239
325.5,0.07141
326.0,0.08977
326.5,0.09348
327.0,0.09184
327.5,0.0871
328.0,0.07363
328.5,0.08242
329.0,0.1037
329.5,0.1196
330.0,0.1192
330.5,0.09179
331.0,0.09232
331.5,0.09658
332.0,0.1088
332.5,0.1097
333.0,0.1082
333.5,0.09497
334.0,0.09683
334.5,0.1157
335.0,0.111
335.5,0.1305
336.0,0.09033
336.5,0.1041
337.0,0.08417
337.5,0.1042
338.0,0.1047
338.5,0.1221
339.0,0.1211
339.5,0.1164
340.0,0.1356
340.5,0.1226
341.0,0.1205
341.5,0.1111
342.0,0.1329
342.5,0.1245
343.0,0.1367
343.5,0.1286
344.0,0.09436
344.5,0.09585
345.0,0.1274
345.5,0.1304
346.0,0.111
346.5,0.1259
347.0,0.1349
347.5,0.1091
348.0,0.1247
348.5,0.1249
349.0,0.116
349.5,0.1149
350.0,0.1423
350.5,0.1501
351.0,0.134
351.5,0.13
352.0,0.1399
352.5,0.1094
353.0,0.1381
353.5,0.1478
354.0,0.1536
354.5,0.1558
355.0,0.1553
355.5,0.1405
356.0,0.1471
356.5,0.1257
357.0,0.1039
357.5,0.1272
358.0,0.1009
358.5,0.08629
359.0,0.1207
359.5,0.1538
360.0,0.1631
360.5,0.1305
361.0,0.1191
361.5,0.1373
362.0,0.1189
362.5,0.1648
363.0,0.1482
363.5,0.1367
364.0,0.1673
364.5,0.1431
365.0,0.1458
365.5,0.1832
366.0,0.1943
366.5,0.1827
367.0,0.1781
367.5,0.1849
368.0,0.162
368.5,0.1636
369.0,0.1768
369.5,0.1886
370.0,0.2012
370.5,0.1563
371.0,0.1672
371.5,0.2093
372.0,0.139
372.5,0.1668
373.0,0.1698
373.5,0.1106
374.0,0.1608
374.5,0.1333
375.0,0.1297
375.5,0.1937
376.0,0.1607
376.5,0.1666
377.0,0.1766
377.5,0.2068
378.0,0.2243
378.5,0.2121
379.0,0.1751
379.5,0.16
380.0,0.1665
380.5,0.2018
381.0,0.2025
381.5,0.1607
382.0,0.1429
382.5,0.122
383.0,0.113
383.5,0.109
384.0,0.1203
384.5,0.1771
385.0,0.1758
385.5,0.1639
386.0,0.1405
386.5,0.1848
387.0,0.1536
387.5,0.1727
388.0,0.1596
388.5,0.1579
389.0,0.1706
389.5,0.2068
390.0,0.2077
390.5,0.1913
391.0,0.2254
391.5,0.23
392.0,0.1939
392.5,0.1738
393.0,0.0968
393.5,0.07043
394.0,0.1434
394.5,0.1825
395.0,0.2229
395.5,0.2265
396.0,0.1966
396.5,0.1151
397.0,0.08643
397.5,0.1759
398.0,0.2464
398.5,0.2549
399.0,0.2764
399.5,0.2757
400.0,0.2864
401.0,0.2881
402.0,0.3046
403.0,0.2899
404.0,0.2858
405.0,0.2862
406.0,0.2821
407.0,0.2781
408.0,0.2892
409.0,0.3099
410.0,0.2713
411.0,0.2944
412.0,0.3169
413.0,0.3093
414.0,0.3136
415.0,0.315
416.0,0.3212
417.0,0.3136
418.0,0.3083
419.0,0.3128
420.0,0.3118
421.0,0.3267
422.0,0.3109
423.0,0.3041
424.0,0.3219
425.0,0.3218
426.0,0.3142
427.0,0.3087
428.0,0.301
429.0,0.2858
430.0,0.2505
431.0,0.2483
432.0,0.3213
433.0,0.3234
434.0,0.3006
435.0,0.3141
436.0,0.3547
437.0,0.3506
438.0,0.3197
439.0,0.3303
440.0,0.3413
441.0,0.3542
442.0,0.3803
443.0,0.3703
444.0,0.379
445.0,0.3709
446.0,0.3549
447.0,0.3845
448.0,0.3902
449.0,0.3928
450.0,0.4043
451.0,0.4197
452.0,0.4048
453.0,0.3812
454.0,0.3987
455.0,0.4013
456.0,0.4112
457.0,0.4182
458.0,0.4036
459.0,0.4017
460.0,0.4027
461.0,0.4122
462.0,0.416
463.0,0.4133
464.0,0.4075
465.0,0.4033
466.0,0.408
467.0,0.4003
468.0,0.4052
469.0,0.4074
470.0,0.3943
471.0,0.3941
472.0,0.4153
473.0,0.41
474.0,0.4101
475.0,0.4129
476.0,0.3997
477.0,0.4002
478.0,0.4116
479.0,0.4096
480.0,0.4109
481.0,0.4193
482.0,0.4224
483.0,0.4183
484.0,0.4103
485.0,0.3916
486.0,0.343
487.0,0.3601
488.0,0.3951
489.0,0.3961
490.0,0.4173
491.0,0.4105
492.0,0.3878
493.0,0.4007
494.0,0.405
495.0,0.4086
496.0,0.4112
497.0,0.4174
498.0,0.3978
499.0,0.4025
500.0,0.3903
501.0,0.3825
502.0,0.3759
503.0,0.39
504.0,0.3768
505.0,0.393
506.0,0.4056
507.0,0.3862
508.0,0.3752
509.0,0.3866
510.0,0.3852
511.0,0.3963
512.0,0.401
513.0,0.3797
514.0,0.3773
515.0,0.3736
516.0,0.3725
517.0,0.3312
518.0,0.3481
519.0,0.3651
520.0,0.3782
521.0,0.3817
522.0,0.3817
523.0,0.3746
524.0,0.3874
525.0,0.391
526.0,0.3732
527.0,0.351
528.0,0.3706
529.0,0.3901
530.0,0.3842
531.0,0.3895
532.0,0.376
533.0,0.365
534.0,0.3761
535.0,0.3847
536.0,0.3886
537.0,0.3737
538.0,0.3805
539.0,0.3772
540.0,0.3615
541.0,0.3628
542.0,0.3737
543.0,0.3705
544.0,0.3761
545.0,0.3751
546.0,0.3759
547.0,0.3765
548.0,0.3724
549.0,0.3738
550.0,0.3782
551.0,0.3738
552.0,0.3764
553.0,0.3695
554.0,0.3783
555.0,0.3788
556.0,0.3737
557.0,0.3617
558.0,0.3585
559.0,0.3512
560.0,0.3552
561.0,0.3593
562.0,0.356
563.0,0.365
564.0,0.3544
565.0,0.3508
566.0,0.3451
567.0,0.351
568.0,0.346
569.0,0.3344
570.0,0.3347
571.0,0.3336
572.0,0.3393
573.0,0.3425
574.0,0.3409
575.0,0.3337
576.0,0.3307
577.0,0.3346
578.0,0.3306
579.0,0.3335
580.0,0.3424
581.0,0.3461
582.0,0.3544
583.0,0.3567
584.0,0.3607
585.0,0.3525
586.0,0.3453
587.0,0.3518
588.0,0.339
589.0,0.2922
590.0,0.3062
591.0,0.329
592.0,0.3219
593.0,0.3304
594.0,0.3266
595.0,0.3153
596.0,0.3346
597.0,0.3292
598.0,0.3304
599.0,0.3316
600.0,0.3338
601.0,0.3324
602.0,0.3303
603.0,0.3365
604.0,0.3424
605.0,0.3411
606.0,0.3404
607.0,0.3446
608.0,0.3416
609.0,0.3428
610.0,0.3412
611.0,0.3434
612.0,0.3429
613.0,0.339
614.0,0.335
615.0,0.343
616.0,0.3322
617.0,0.332
618.0,0.3451
619.0,0.3419
620.0,0.344
621.0,0.3438
622.0,0.3394
623.0,0.3338
624.0,0.3285
625.0,0.3277
626.0,0.3324
627.0,0.3345
628.0,0.2929
629.0,0.3197
630.0,0.3116
631.0,0.3253
632.0,0.3227
633.0,0.3353
634.0,0.3343
635.0,0.3406
636.0,0.3374
637.0,0.3439
638.0,0.3488
639.0,0.3457
640.0,0.3433
641.0,0.3438
642.0,0.3431
643.0,0.3479
644.0,0.3476
645.0,0.3477
646.0,0.3372
647.0,0.3277
648.0,0.3284
649.0,0.3212
650.0,0.3299
651.0,0.3454
652.0,0.3242
653.0,0.3413
654.0,0.338
655.0,0.3219
656.0,0.2878
657.0,0.296
658.0,0.334
659.0,0.3373
660.0,0.3393
661.0,0.342
662.0,0.3414
663.0,0.3352
664.0,0.3411
665.0,0.3429
666.0,0.3438
667.0,0.3442
668.0,0.3452
669.0,0.3511
670.0,0.3499
671.0,0.3503
672.0,0.3475
673.0,0.3532
674.0,0.3522
675.0,0.3493
676.0,0.352
677.0,0.3488
678.0,0.3501
679.0,0.3447
680.0,0.3477
681.0,0.3455
682.0,0.3451
683.0,0.3445
684.0,0.3428
685.0,0.3461
686.0,0.3436
687.0,0.1502
688.0,0.208
689.0,0.2099
690.0,0.2324
691.0,0.2595
692.0,0.2816
693.0,0.2787
694.0,0.2786
695.0,0.3005
696.0,0.3017
697.0,0.3318
698.0,0.3264
699.0,0.3104
700.0,0.3062
701.0,0.2997
702.0,0.3051
703.0,0.3066
704.0,0.3214
705.0,0.3217
706.0,0.3233
707.0,0.3243
708.0,0.3248
709.0,0.3287
710.0,0.3268
711.0,0.3276
712.0,0.3283
713.0,0.3234
714.0,0.3252
715.0,0.3114
716.0,0.3108
717.0,0.2404
718.0,0.2188
719.0,0.1982
720.0,0.2045
721.0,0.2419
722.0,0.2945
723.0,0.2655
724.0,0.2284
725.0,0.2215
726.0,0.2325
727.0,0.2432
728.0,0.2196
729.0,0.2378
730.0,0.2489
731.0,0.2366
732.0,0.2638
733.0,0.2888
734.0,0.2989
735.0,0.291
736.0,0.29
737.0,0.2913
738.0,0.3039
739.0,0.2982
740.0,0.3083
741.0,0.3067
742.0,0.3085
743.0,0.3168
744.0,0.3169
745.0,0.3178
746.0,0.3192
747.0,0.3201
748.0,0.3196
749.0,0.316
750.0,0.3159
751.0,0.3127
752.0,0.3142
753.0,0.3159
754.0,0.3166
755.0,0.3148
756.0,0.3148
757.0,0.3152
758.0,0.3111
759.0,0.2994
760.0,0.009174
761.0,0.003083
762.0,0.07878
763.0,0.01999
764.0,0.04409
765.0,0.07854
766.0,0.1238
767.0,0.1919
768.0,0.2561
769.0,0.2701
770.0,0.2893
771.0,0.2962
772.0,0.2983
773.0,0.3007
774.0,0.2996
775.0,0.2975
776.0,0.3013
777.0,0.2974
778.0,0.2955
779.0,0.2958
780.0,0.2942
781.0,0.2946
782.0,0.2965
783.0,0.2915
784.0,0.2931
785.0,0.2905
786.0,0.2934
787.0,0.2842
788.0,0.2788
789.0,0.2787
790.0,0.266
791.0,0.2736
792.0,0.2725
793.0,0.2675
794.0,0.2774
795.0,0.2806
796.0,0.2645
797.0,0.2641
798.0,0.2794
799.0,0.2762
800.0,0.2697
801.0,0.267
802.0,0.266
803.0,0.263
804.0,0.2643
805.0,0.2657
806.0,0.277
807.0,0.2729
808.0,0.2734
809.0,0.2653
810.0,0.2614
811.0,0.2582
812.0,0.2452
813.0,0.2384
814.0,0.1966
815.0,0.1965
816.0,0.181
817.0,0.1849
818.0,0.175
819.0,0.2067
820.0,0.1909
821.0,0.2403
822.0,0.2307
823.0,0.1319
824.0,0.2173
825.0,0.2364
826.0,0.2216
827.0,0.2397
828.0,0.1867
829.0,0.2215
830.0,0.2175
831.0,0.2181
832.0,0.2085
833.0,0.2292
834.0,0.2162
835.0,0.2499
836.0,0.2305
837.0,0.2507
838.0,0.2385
839.0,0.2473
840.0,0.2538
841.0,0.2484
842.0,0.2518
843.0,0.2547
844.0,0.2496
845.0,0.2602
846.0,0.2596
847.0,0.2556
848.0,0.2527
849.0,0.2455
850.0,0.2353
851.0,0.2477
852.0,0.2467
853.0,0.2386
854.0,0.205
855.0,0.2266
856.0,0.2471
857.0,0.2535
858.0,0.2512
859.0,0.2521
860.0,0.253
861.0,0.2514
862.0,0.2556
863.0,0.2617
864.0,0.2487
865.0,0.2466
866.0,0.2218
867.0,0.2315
868.0,0.2519
869.0,0.2468
870.0,0.2538
871.0,0.2504
872.0,0.2496
873.0,0.2491
874.0,0.2461
875.0,0.2411
876.0,0.2435
877.0,0.2461
878.0,0.2485
879.0,0.2447
880.0,0.2395
881.0,0.2353
882.0,0.24
883.0,0.2415
884.0,0.2401
885.0,0.2419
886.0,0.2281
887.0,0.2325
888.0,0.2349
889.0,0.2395
890.0,0.235
891.0,0.2359
892.0,0.2258
893.0,0.2158
894.0,0.2013
895.0,0.1819
896.0,0.1694
897.0,0.1365
898.0,0.1531
899.0,0.1067
900.0,0.1627
901.0,0.1117
902.0,0.1439
903.0,0.1406
904.0,0.1995
905.0,0.1899
906.0,0.1751
907.0,0.1271
908.0,0.1329
909.0,0.1493
910.0,0.1214
911.0,0.1381
912.0,0.1444
913.0,0.1227
914.0,0.1239
915.0,0.1331
916.0,0.1115
917.0,0.1517
918.0,0.1133
919.0,0.1584
920.0,0.1688
921.0,0.1746
922.0,0.1482
923.0,0.1697
924.0,0.1493
925.0,0.1467
926.0,0.1467
927.0,0.1719
928.0,0.1038
929.0,0.08921
930.0,0.06127
931.0,0.0578
932.0,0.03367
933.0,0.02432
934.0,0.007894
935.0,0.02716
936.0,0.01306
937.0,0.01316
938.0,0.01747
939.0,0.05576
940.0,0.0735
941.0,0.04768
942.0,0.0589
943.0,0.0331
944.0,0.0407
945.0,0.05091
946.0,0.01872
947.0,0.0491
948.0,0.03545
949.0,0.07353
950.0,0.01121
951.0,0.07306
952.0,0.03032
953.0,0.04502
954.0,0.06213
955.0,0.04634
956.0,0.05321
957.0,0.03003
958.0,0.08256
959.0,0.05619
960.0,0.06307
961.0,0.07831
962.0,0.07387
963.0,0.09196
964.0,0.08238
965.0,0.09108
966.0,0.09065
967.0,0.08909
968.0,0.1481
969.0,0.1498
970.0,0.1354
971.0,0.1678
972.0,0.1574
973.0,0.1243
974.0,0.1172
975.0,0.1254
976.0,0.1118
977.0,0.1428
978.0,0.1292
979.0,0.1387
980.0,0.1288
981.0,0.1671
982.0,0.155
983.0,0.1463
984.0,0.1784
985.0,0.154
986.0,0.1855
987.0,0.1778
988.0,0.1778
989.0,0.1876
990.0,0.1766
991.0,0.1877
992.0,0.1893
993.0,0.1808
994.0,0.1897
995.0,0.1902
996.0,0.1886
997.0,0.1892
998.0,0.1881
999.0,0.1876
1000.0,0.1852
1001.0,0.1887
1002.0,0.1789
1003.0,0.1851
1004.0,0.1793
1005.0,0.1745
1006.0,0.1805
1007.0,0.1847
1008.0,0.1829
1009.0,0.181
1010.0,0.1798
1011.0,0.1839
1012.0,0.1814
1013.0,0.1837
1014.0,0.1824
1015.0,0.1811
1016.0,0.1802
1017.0,0.1804
1018.0,0.1803
1019.0,0.1747
1020.0,0.1791
1021.0,0.1792
1022.0,0.1771
1023.0,0.1789
1024.0,0.1748
1025.0,0.1794
1026.0,0.1781
1027.0,0.1778
1028.0,0.1773
1029.0,0.175
1030.0,0.1769
1031.0,0.1759
1032.0,0.1756
1033.0,0.1729
1034.0,0.173
1035.0,0.1735
1036.0,0.1742
1037.0,0.1715
1038.0,0.1722
1039.0,0.1719
1040.0,0.1712
1041.0,0.1717
1042.0,0.1705
1043.0,0.1699
1044.0,0.1703
1045.0,0.1679
1046.0,0.166
1047.0,0.1673
1048.0,0.1681
1049.0,0.1673
1050.0,0.1664
1051.0,0.166
1052.0,0.1651
1053.0,0.1636
1054.0,0.1637
1055.0,0.1635
1056.0,0.1626
1057.0,0.1619
1058.0,0.1576
1059.0,0.1575
1060.0,0.1571
1061.0,0.1568
1062.0,0.1573
1063.0,0.1555
1064.0,0.1575
1065.0,0.1556
1066.0,0.1531
1067.0,0.1549
1068.0,0.151
1069.0,0.1468
1070.0,0.1513
1071.0,0.1552
1072.0,0.1523
1073.0,0.1503
1074.0,0.156
1075.0,0.1439
1076.0,0.1556
1077.0,0.1505
1078.0,0.1464
1079.0,0.1539
1080.0,0.1482
1081.0,0.1411
1082.0,0.1472
1083.0,0.1487
1084.0,0.14
1085.0,0.1488
1086.0,0.1302
1087.0,0.138
1088.0,0.1479
1089.0,0.1389
1090.0,0.1339
1091.0,0.1463
1092.0,0.1466
1093.0,0.1135
1094.0,0.1328
1095.0,0.1186
1096.0,0.1107
1097.0,0.1433
1098.0,0.1072
1099.0,0.1134
1100.0,0.1015
1101.0,0.1044
1102.0,0.09669
1103.0,0.0937
1104.0,0.09417
1105.0,0.1098
1106.0,0.06825
1107.0,0.1015
1108.0,0.07664
1109.0,0.07809
1110.0,0.09827
1111.0,0.05422
1112.0,0.07804
1113.0,0.03837
1114.0,0.04317
1115.0,0.03477
1116.0,0.02247
1117.0,0.004415
1118.0,0.02547
1119.0,0.008789
1120.0,0.01045
1121.0,0.01562
1122.0,0.003986
1123.0,0.009574
1124.0,0.008027
1125.0,0.01142
1126.0,0.001737
1127.0,0.01311
1128.0,0.005052
1129.0,0.00557
1130.0,0.003354
1131.0,0.03409
1132.0,0.02476
1133.0,0.01097
1134.0,0.001302
1135.0,0.0005839
1136.0,0.007737
1137.0,0.03156
1138.0,0.02118
1139.0,0.04369
1140.0,0.03175
1141.0,0.02031
1142.0,0.02536
1143.0,0.04159
1144.0,0.009654
1145.0,0.01051
1146.0,0.01129
1147.0,0.001895
1148.0,0.035
1149.0,0.02473
1150.0,0.01155
1151.0,0.02105
1152.0,0.02975
1153.0,0.03223
1154.0,0.01071
1155.0,0.04546
1156.0,0.03833
1157.0,0.04894
1158.0,0.04818
1159.0,0.05446
1160.0,0.04483
1161.0,0.06272
1162.0,0.06214
1163.0,0.09876
1164.0,0.0795
1165.0,0.06977
1166.0,0.0738
1167.0,0.08284
1168.0,0.0827
1169.0,0.08591
1170.0,0.0981
1171.0,0.09561
1172.0,0.1007
1173.0,0.09801
1174.0,0.0599
1175.0,0.09885
1176.0,0.1154
1177.0,0.1061
1178.0,0.07181
1179.0,0.1163
1180.0,0.09659
1181.0,0.09988
1182.0,0.0598
1183.0,0.09976
1184.0,0.09031
1185.0,0.08424
1186.0,0.1097
1187.0,0.1013
1188.0,0.05898
1189.0,0.09392
1190.0,0.108
1191.0,0.09599
1192.0,0.1102
1193.0,0.1033
1194.0,0.108
1195.0,0.09769
1196.0,0.09174
1197.0,0.1097
1198.0,0.09866
1199.0,0.07501
1200.0,0.102
1201.0,0.09499
1202.0,0.09752
1203.0,0.09466
1204.0,0.0793
1205.0,0.1021
1206.0,0.1172
1207.0,0.09583
1208.0,0.09707
1209.0,0.09943
1210.0,0.1057
1211.0,0.09761
1212.0,0.09111
1213.0,0.1107
1214.0,0.09516
1215.0,0.09296
1216.0,0.111
1217.0,0.1064
1218.0,0.1099
1219.0,0.1074
1220.0,0.1102
1221.0,0.1125
1222.0,0.1089
1223.0,0.107
1224.0,0.1043
1225.0,0.1114
1226.0,0.1136
1227.0,0.09987
1228.0,0.1152
1229.0,0.1136
1230.0,0.1108
1231.0,0.1171
1232.0,0.1163
1233.0,0.1081
1234.0,0.118
1235.0,0.1165
1236.0,0.1179
1237.0,0.1146
1238.0,0.1176
1239.0,0.116
1240.0,0.1167
1241.0,0.115
1242.0,0.1157
1243.0,0.1149
1244.0,0.1153
1245.0,0.116
1246.0,0.1154
1247.0,0.1146
1248.0,0.114
1249.0,0.1148
1250.0,0.1138
1251.0,0.1116
1252.0,0.1126
1253.0,0.11
1254.0,0.1077
1255.0,0.112
1256.0,0.1059
1257.0,0.1047
1258.0,0.109
1259.0,0.1005
1260.0,0.1016
1261.0,0.09039
1262.0,0.0849
1263.0,0.08492
1264.0,0.07234
1265.0,0.08448
1266.0,0.07765
1267.0,0.08154
1268.0,0.07337
1269.0,0.02619
1270.0,0.08024
1271.0,0.09082
1272.0,0.09166
1273.0,0.09007
1274.0,0.09121
1275.0,0.09351
1276.0,0.09552
1277.0,0.09763
1278.0,0.1017
1279.0,0.1006
1280.0,0.0995
1281.0,0.09599
1282.0,0.09423
1283.0,0.1011
1284.0,0.1032
1285.0,0.1042
1286.0,0.1066
1287.0,0.1032
1288.0,0.1037
1289.0,0.09695
1290.0,0.103
1291.0,0.1051
1292.0,0.09255
1293.0,0.1016
1294.0,0.1006
1295.0,0.09797
1296.0,0.08993
1297.0,0.0826
1298.0,0.09451
1299.0,0.1023
1300.0,0.07754
1301.0,0.08135
1302.0,0.09442
1303.0,0.07731
1304.0,0.05816
1305.0,0.09207
1306.0,0.09103
1307.0,0.06225
1308.0,0.07881
1309.0,0.08878
1310.0,0.06024
1311.0,0.07366
1312.0,0.07075
1313.0,0.06718
1314.0,0.05721
1315.0,0.05487
1316.0,0.07096
1317.0,0.06597
1318.0,0.07517
1319.0,0.04953
1320.0,0.04962
1321.0,0.06118
1322.0,0.05998
1323.0,0.03796
1324.0,0.04901
1325.0,0.0687
1326.0,0.0545
1327.0,0.05062
1328.0,0.04103
1329.0,0.02492
1330.0,0.03571
1331.0,0.01582
1332.0,0.01776
1333.0,0.02577
1334.0,0.02596
1335.0,0.03701
1336.0,0.02574
1337.0,0.02215
1338.0,0.02349
1339.0,0.02407
1340.0,0.02516
1341.0,0.02037
1342.0,0.02202
1343.0,0.009447
1344.0,0.00618
1345.0,0.008336
1346.0,0.002058
1347.0,0.001794
1348.0,3.145e-05
1349.0,0.000146
1350.0,0.00018
1351.0,1.411e-05
1352.0,1.338e-06
1353.0,5.476e-08
1354.0,2.299e-07
1355.0,1.38e-09
1356.0,2.659e-08
1357.0,4.022e-08
1358.0,1.623e-09
1359.0,2.02e-10
1360.0,7.329e-10
1361.0,8.161e-13
1362.0,2.232e-15
1363.0,9.817e-10
1364.0,4.056e-10
1365.0,7.794e-16
1366.0,4.258e-09
1367.0,1.746e-09
1368.0,6.018e-18
1369.0,1.495e-10
1370.0,7.352e-11
1371.0,4.166e-12
1372.0,9.48e-10
1373.0,1.966e-08
1374.0,9.919e-08
1375.0,1.712e-07
1376.0,2.034e-07
1377.0,8.863e-08
1378.0,8.565e-07
1379.0,3.835e-08
1380.0,4.481e-08
1381.0,1.139e-09
1382.0,8.289e-10
1383.0,1.237e-11
1384.0,1.618e-10
1385.0,7.936e-10
1386.0,7.285e-10
1387.0,9.1e-08
1388.0,1.929e-09
1389.0,3.595e-07
1390.0,2.962e-07
1391.0,1.985e-07
1392.0,1.316e-08
1393.0,7.734e-08
1394.0,3.077e-08
1395.0,2.228e-10
1396.0,1.062e-12
1397.0,2.786e-08
1398.0,8.651e-07
1399.0,5.676e-07
1400.0,4.542e-13
1401.0,1.885e-12
1402.0,4.879e-06
1403.0,4.321e-06
1404.0,1.091e-06
1405.0,1.046e-10
1406.0,1.908e-06
1407.0,3.387e-07
1408.0,1.676e-06
1409.0,3.964e-07
1410.0,4.811e-07
1411.0,4.078e-06
1412.0,8.189e-06
1413.0,0.0002132
1414.0,4.19e-07
1415.0,1.641e-07
1416.0,0.0009463
1417.0,0.0001532
1418.0,0.0001037
1419.0,1.399e-05
1420.0,6.213e-05
1421.0,0.0001032
1422.0,0.001225
1423.0,0.0002158
