interpolation:linear
wavelength,value
280.0,6.056e-22
280.5,1.9690000000000002e-20
281.0,1.051e-19
281.5,4.974e-19
282.0,8.25e-19
282.5,2.041e-18
283.0,6.429e-18
283.5,1.044e-17
284.0,1.702e-16
284.5,4.939e-16
285.0,8.851e-16
285.5,4.343e-15
286.0,1.743e-14
286.5,7.78e-14
287.0,2.22e-13
287.5,8.501e-13
288.0,2.777e-12
288.5,8.515e-12
289.0,2.286e-11
289.5,6.936e-11
290.0,1.93e-10
290.5,3.94e-10
291.0,8.466e-10
291.5,2.431e-09
292.0,5.591e-09
292.5,7.795e-09
293.0,1.659e-08
293.5,4e-08
294.0,6.22e-08
294.5,8.289e-08
295.0,1.397e-07
295.5,2.647e-07
296.0,5.102e-07
296.5,7.306e-07
297.0,1.011e-06
297.5,2.821e-06
298.0,4.628e-06
298.5,4.824e-06
299.0,1.106e-05
299.5,1.988e-05
300.0,2.3e-05
300.5,3.528e-05
301.0,7.086e-05
301.5,0.0001259
302.0,0.0001147
302.5,0.0002314
303.0,0.0004352
303.5,0.0005667
304.0,0.0005479
304.5,0.0008811
305.0,0.001485
305.5,0.001819
306.0,0.001808
306.5,0.002352
307.0,0.003843
307.5,0.005612
308.0,0.00602
308.5,0.007449
309.0,0.007595
309.5,0.00924
310.0,0.009549
310.5,0.01569
311.0,0.02015
311.5,0.01965
312.0,0.02064
312.5,0.02595
313.0,0.02863
313.5,0.02738
314.0,0.03559
314.5,0.03321
315.0,0.04405
315.5,0.03596
316.0,0.03273
316.5,0.0487
317.0,0.06044
317.5,0.06228
318.0,0.04978
318.5,0.06471
319.0,0.07859
319.5,0.06176
320.0,0.07423
320.5,0.09732
321.0,0.09034
321.5,0.087
322.0,0.08872
322.5,0.07738
323.0,0.07934
323.5,0.1001
324.0,0.1174
324.5,0.1178
325.0,0.1004
325.5,0.1322
326.0,0.1626
326.5,0.1653
327.0,0.1639
327.5,0.1573
328.0,0.1374
328.5,0.1479
329.0,0.1805
329.5,0.2061
330.0,0.207
330.5,0.1634
331.0,0.1657
331.5,0.1703
332.0,0.1869
332.5,0.1863
333.0,0.185
333.5,0.1656
334.0,0.1694
334.5,0.1981
335.0,0.1876
335.5,0.2195
336.0,0.1519
336.5,0.1771
337.0,0.1446
337.5,0.1795
338.0,0.1773
338.5,0.2051
339.0,0.2032
339.5,0.1955
340.0,0.2294
340.5,0.2071
341.0,0.2023
341.5,0.186
342.0,0.2225
342.5,0.2083
343.0,0.229
343.5,0.2157
344.0,0.1593
344.5,0.161
345.0,0.2135
345.5,0.2182
346.0,0.1856
346.5,0.2103
347.0,0.2258
347.5,0.1826
348.0,0.2084
348.5,0.2085
349.0,0.1936
349.5,0.1918
350.0,0.2374
350.5,0.2505
351.0,0.2238
351.5,0.2174
352.0,0.2338
352.5,0.1826
353.0,0.2303
353.5,0.2464
354.0,0.2559
354.5,0.2596
355.0,0.2588
355.5,0.234
356.0,0.245
356.5,0.2093
357.0,0.173
357.5,0.2119
358.0,0.168
358.5,0.1436
359.0,0.2009
359.5,0.2561
360.0,0.2716
360.5,0.2172
361.0,0.1982
361.5,0.2284
362.0,0.1977
362.5,0.2739
363.0,0.2462
363.5,0.2269
364.0,0.2778
364.5,0.2375
365.0,0.242
365.5,0.304
366.0,0.3223
366.5,0.3031
367.0,0.2953
367.5,0.3066
368.0,0.2685
368.5,0.2711
369.0,0.2929
369.5,0.3124
370.0,0.3332
370.5,0.2588
371.0,0.2767
371.5,0.3463
372.0,0.23
372.5,0.2759
373.0,0.2808
373.5,0.1828
374.0,0.2658
374.5,0.2203
375.0,0.2143
375.5,0.32
376.0,0.2654
376.5,0.2751
377.0,0.2915
377.5,0.3412
378.0,0.37
378.5,0.3499
379.0,0.2888
379.5,0.2639
380.0,0.2745
380.5,0.3327
381.0,0.3337
381.5,0.2647
382.0,0.2353
382.5,0.2007
383.0,0.186
383.5,0.1792
384.0,0.1978
384.5,0.2911
385.0,0.2889
385.5,0.2692
386.0,0.2307
386.5,0.3033
387.0,0.2521
387.5,0.2833
388.0,0.2617
388.5,0.2589
389.0,0.2796
389.5,0.3388
390.0,0.3403
390.5,0.3133
391.0,0.369
391.5,0.3765
392.0,0.3173
392.5,0.2843
393.0,0.1583
393.5,0.1151
394.0,0.2344
394.5,0.2982
395.0,0.364
395.5,0.3699
396.0,0.3209
396.5,0.1877
397.0,0.141
397.5,0.2868
398.0,0.4017
398.5,0.4154
399.0,0.4503
399.5,0.449
400.0,0.4663
401.0,0.4714
402.0,0.4979
403.0,0.4736
404.0,0.4667
405.0,0.467
406.0,0.46
407.0,0.4531
408.0,0.471
409.0,0.5045
410.0,0.4413
411.0,0.4785
412.0,0.5146
413.0,0.5021
414.0,0.5087
415.0,0.5106
416.0,0.5202
417.0,0.5077
418.0,0.4987
419.0,0.5057
420.0,0.5038
421.0,0.5275
422.0,0.5018
423.0,0.4905
424.0,0.519
425.0,0.5185
426.0,0.5058
427.0,0.4966
428.0,0.484
429.0,0.4591
430.0,0.4021
431.0,0.3986
432.0,0.5152
433.0,0.5184
434.0,0.4816
435.0,0.5031
436.0,0.5675
437.0,0.5605
438.0,0.5108
439.0,0.528
440.0,0.5452
441.0,0.5655
442.0,0.6068
443.0,0.5909
444.0,0.6043
445.0,0.5913
446.0,0.5651
447.0,0.6115
448.0,0.6209
449.0,0.6242
450.0,0.6421
451.0,0.6662
452.0,0.6422
453.0,0.6044
454.0,0.6315
455.0,0.6355
456.0,0.6509
457.0,0.6619
458.0,0.6391
459.0,0.6361
460.0,0.6377
461.0,0.6526
462.0,0.6581
463.0,0.6537
464.0,0.6436
465.0,0.6362
466.0,0.6429
467.0,0.631
468.0,0.6385
469.0,0.642
470.0,0.6215
471.0,0.6209
472.0,0.6543
473.0,0.6458
474.0,0.6464
475.0,0.6514
476.0,0.6314
477.0,0.6327
478.0,0.6505
479.0,0.647
480.0,0.6486
481.0,0.6613
482.0,0.6654
483.0,0.6581
484.0,0.645
485.0,0.615
486.0,0.5381
487.0,0.5643
488.0,0.6191
489.0,0.6208
490.0,0.6535
491.0,0.6426
492.0,0.6069
493.0,0.6269
494.0,0.6333
495.0,0.6388
496.0,0.6427
497.0,0.6527
498.0,0.6221
499.0,0.6298
500.0,0.6112
501.0,0.5995
502.0,0.5903
503.0,0.6135
504.0,0.5956
505.0,0.6189
506.0,0.6388
507.0,0.608
508.0,0.5898
509.0,0.607
510.0,0.6042
511.0,0.621
512.0,0.628
513.0,0.5945
514.0,0.5906
515.0,0.5848
516.0,0.5833
517.0,0.5184
518.0,0.545
519.0,0.5716
520.0,0.5923
521.0,0.5978
522.0,0.5981
523.0,0.5872
524.0,0.6078
525.0,0.6144
526.0,0.5867
527.0,0.5524
528.0,0.5838
529.0,0.615
530.0,0.606
531.0,0.6147
532.0,0.5935
533.0,0.5761
534.0,0.5934
535.0,0.6066
536.0,0.6125
537.0,0.5886
538.0,0.5991
539.0,0.5941
540.0,0.5694
541.0,0.5725
542.0,0.5901
543.0,0.5844
544.0,0.594
545.0,0.5922
546.0,0.5943
547.0,0.5945
548.0,0.5877
549.0,0.5896
550.0,0.5967
551.0,0.5896
552.0,0.5937
553.0,0.5829
554.0,0.5968
555.0,0.5978
556.0,0.59
557.0,0.5714
558.0,0.5667
559.0,0.5557
560.0,0.5624
561.0,0.5694
562.0,0.5648
563.0,0.5797
564.0,0.5635
565.0,0.5583
566.0,0.5497
567.0,0.5596
568.0,0.5534
569.0,0.5378
570.0,0.538
571.0,0.5354
572.0,0.5466
573.0,0.5521
574.0,0.55
575.0,0.5392
576.0,0.5343
577.0,0.5404
578.0,0.533
579.0,0.5362
580.0,0.5482
581.0,0.5524
582.0,0.564
583.0,0.5664
584.0,0.5719
585.0,0.5584
586.0,0.5469
587.0,0.5582
588.0,0.5415
589.0,0.4739
590.0,0.4961
591.0,0.5285
592.0,0.5197
593.0,0.5301
594.0,0.5253
595.0,0.5102
596.0,0.5351
597.0,0.5281
598.0,0.5282
599.0,0.5293
600.0,0.5314
601.0,0.5279
602.0,0.5245
603.0,0.5336
604.0,0.5427
605.0,0.5402
606.0,0.5385
607.0,0.5444
608.0,0.5389
609.0,0.5403
610.0,0.537
611.0,0.5401
612.0,0.5389
613.0,0.5323
614.0,0.5255
615.0,0.5374
616.0,0.5201
617.0,0.5193
618.0,0.5395
619.0,0.5342
620.0,0.5376
621.0,0.5377
622.0,0.531
623.0,0.5226
624.0,0.514
625.0,0.5129
626.0,0.5203
627.0,0.525
628.0,0.4768
629.0,0.5079
630.0,0.4958
631.0,0.5115
632.0,0.5063
633.0,0.5236
634.0,0.52
635.0,0.5289
636.0,0.5228
637.0,0.532
638.0,0.5381
639.0,0.5326
640.0,0.5281
641.0,0.5283
642.0,0.5264
643.0,0.5336
644.0,0.5324
645.0,0.533
646.0,0.5189
647.0,0.509
648.0,0.5095
649.0,0.4992
650.0,0.5064
651.0,0.5293
652.0,0.5023
653.0,0.5225
654.0,0.5171
655.0,0.4954
656.0,0.4408
657.0,0.4529
658.0,0.5091
659.0,0.5134
660.0,0.5158
661.0,0.5196
662.0,0.5197
663.0,0.5098
664.0,0.5172
665.0,0.5187
666.0,0.5195
667.0,0.5196
668.0,0.5204
669.0,0.5288
670.0,0.5267
671.0,0.5269
672.0,0.5226
673.0,0.5307
674.0,0.5289
675.0,0.5243
676.0,0.5281
677.0,0.5231
678.0,0.5247
679.0,0.5164
680.0,0.5207
681.0,0.5173
682.0,0.5167
683.0,0.5158
684.0,0.5132
685.0,0.5178
686.0,0.5145
687.0,0.285
688.0,0.3592
689.0,0.3614
690.0,0.3881
691.0,0.419
692.0,0.4429
693.0,0.4386
694.0,0.4358
695.0,0.461
696.0,0.4619
697.0,0.4987
698.0,0.4907
699.0,0.4733
700.0,0.4673
701.0,0.4604
702.0,0.4659
703.0,0.4671
704.0,0.4855
705.0,0.4862
706.0,0.4871
707.0,0.488
708.0,0.4889
709.0,0.4919
710.0,0.4907
711.0,0.4908
712.0,0.4904
713.0,0.4845
714.0,0.4866
715.0,0.4689
716.0,0.4686
717.0,0.3857
718.0,0.3521
719.0,0.3208
720.0,0.334
721.0,0.3808
722.0,0.4487
723.0,0.4112
724.0,0.3626
725.0,0.3541
726.0,0.3715
727.0,0.382
728.0,0.3522
729.0,0.3727
730.0,0.3932
731.0,0.3746
732.0,0.4084
733.0,0.4394
734.0,0.4521
735.0,0.4416
736.0,0.4408
737.0,0.4425
738.0,0.4548
739.0,0.4458
740.0,0.4591
741.0,0.4555
742.0,0.457
743.0,0.4689
744.0,0.4682
745.0,0.4688
746.0,0.4709
747.0,0.4721
748.0,0.4712
749.0,0.4658
750.0,0.4656
751.0,0.4609
752.0,0.463
753.0,0.4654
754.0,0.4664
755.0,0.4638
756.0,0.4636
757.0,0.4643
758.0,0.4584
759.0,0.4457
760.0,0.03382
761.0,0.01352
762.0,0.1707
763.0,0.06216
764.0,0.1122
765.0,0.1705
766.0,0.2337
767.0,0.3226
768.0,0.3964
769.0,0.4104
770.0,0.4309
771.0,0.4372
772.0,0.4391
773.0,0.4424
774.0,0.4404
775.0,0.4372
776.0,0.4426
777.0,0.4368
778.0,0.4342
779.0,0.4345
780.0,0.4322
781.0,0.4327
782.0,0.4354
783.0,0.4279
784.0,0.4301
785.0,0.4267
786.0,0.4311
787.0,0.421
788.0,0.4145
789.0,0.4142
790.0,0.3996
791.0,0.4066
792.0,0.4042
793.0,0.3972
794.0,0.4077
795.0,0.4136
796.0,0.3959
797.0,0.396
798.0,0.4125
799.0,0.409
800.0,0.4007
801.0,0.3983
802.0,0.3971
803.0,0.3934
804.0,0.3946
805.0,0.3948
806.0,0.4084
807.0,0.4029
808.0,0.4035
809.0,0.394
810.0,0.3895
811.0,0.3873
812.0,0.3729
813.0,0.3635
814.0,0.3099
815.0,0.3086
816.0,0.286
817.0,0.292
818.0,0.2788
819.0,0.3202
820.0,0.2985
821.0,0.3613
822.0,0.349
823.0,0.2185
824.0,0.3342
825.0,0.3549
826.0,0.3375
827.0,0.3602
828.0,0.2937
829.0,0.3363
830.0,0.3308
831.0,0.3321
832.0,0.3198
833.0,0.3458
834.0,0.3298
835.0,0.3709
836.0,0.3493
837.0,0.3722
838.0,0.3577
839.0,0.3671
840.0,0.3759
841.0,0.3693
842.0,0.372
843.0,0.3738
844.0,0.3675
845.0,0.3814
846.0,0.3801
847.0,0.3736
848.0,0.3704
849.0,0.3598
850.0,0.3449
851.0,0.3642
852.0,0.3621
853.0,0.3492
854.0,0.3009
855.0,0.3315
856.0,0.3619
857.0,0.3706
858.0,0.3676
859.0,0.3683
860.0,0.3692
861.0,0.3671
862.0,0.373
863.0,0.3818
864.0,0.3628
865.0,0.3597
866.0,0.3234
867.0,0.3376
868.0,0.3674
869.0,0.3598
870.0,0.3701
871.0,0.365
872.0,0.3638
873.0,0.3631
874.0,0.3588
875.0,0.3514
876.0,0.355
877.0,0.3587
878.0,0.3624
879.0,0.3569
880.0,0.3493
881.0,0.3436
882.0,0.3508
883.0,0.3524
884.0,0.3506
885.0,0.3532
886.0,0.335
887.0,0.3399
888.0,0.3441
889.0,0.3494
890.0,0.3448
891.0,0.3451
892.0,0.3329
893.0,0.3202
894.0,0.3041
895.0,0.2814
896.0,0.2634
897.0,0.2192
898.0,0.2428
899.0,0.1767
900.0,0.2531
901.0,0.1851
902.0,0.2281
903.0,0.2265
904.0,0.3018
905.0,0.2892
906.0,0.2687
907.0,0.207
908.0,0.2132
909.0,0.2356
910.0,0.1995
911.0,0.219
912.0,0.2299
913.0,0.202
914.0,0.2021
915.0,0.2186
916.0,0.1836
917.0,0.2418
918.0,0.1876
919.0,0.2491
920.0,0.2577
921.0,0.268
922.0,0.2331
923.0,0.2595
924.0,0.2374
925.0,0.2326
926.0,0.2343
927.0,0.2687
928.0,0.1788
929.0,0.1584
930.0,0.117
931.0,0.1113
932.0,0.0726
933.0,0.05566
934.0,0.02384
935.0,0.05963
936.0,0.03278
937.0,0.03296
938.0,0.04213
939.0,0.1077
940.0,0.1351
941.0,0.0948
942.0,0.1137
943.0,0.06931
944.0,0.07841
945.0,0.09928
946.0,0.04334
947.0,0.09776
948.0,0.07106
949.0,0.138
950.0,0.02844
951.0,0.137
952.0,0.06452
953.0,0.08936
954.0,0.1165
955.0,0.0911
956.0,0.09453
957.0,0.06401
958.0,0.1422
959.0,0.1045
960.0,0.1172
961.0,0.1382
962.0,0.1303
963.0,0.1561
964.0,0.1412
965.0,0.1555
966.0,0.1546
967.0,0.1531
968.0,0.228
969.0,0.235
970.0,0.2136
971.0,0.2545
972.0,0.2413
973.0,0.2
974.0,0.1889
975.0,0.1996
976.0,0.1838
977.0,0.2207
978.0,0.2049
979.0,0.2175
980.0,0.2029
981.0,0.2533
982.0,0.2384
983.0,0.2269
984.0,0.2655
985.0,0.2374
986.0,0.273
987.0,0.2643
988.0,0.2641
989.0,0.274
990.0,0.2623
991.0,0.2745
992.0,0.2764
993.0,0.267
994.0,0.2766
995.0,0.2768
996.0,0.275
997.0,0.2757
998.0,0.2742
999.0,0.2733
1000.0,0.2707
1001.0,0.2749
1002.0,0.2642
1003.0,0.2698
1004.0,0.2624
1005.0,0.2539
1006.0,0.2633
1007.0,0.2692
1008.0,0.2671
1009.0,0.2651
1010.0,0.2636
1011.0,0.2679
1012.0,0.265
1013.0,0.2674
1014.0,0.2655
1015.0,0.2637
1016.0,0.2624
1017.0,0.263
1018.0,0.2624
1019.0,0.2556
1020.0,0.2608
1021.0,0.2607
1022.0,0.2582
1023.0,0.2608
1024.0,0.2562
1025.0,0.2611
1026.0,0.2597
1027.0,0.2591
1028.0,0.2585
1029.0,0.2553
1030.0,0.2575
1031.0,0.2563
1032.0,0.2557
1033.0,0.2518
1034.0,0.2519
1035.0,0.2526
1036.0,0.2538
1037.0,0.2497
1038.0,0.2508
1039.0,0.2506
1040.0,0.2495
1041.0,0.2504
1042.0,0.2487
1043.0,0.2478
1044.0,0.2486
1045.0,0.2452
1046.0,0.2424
1047.0,0.2445
1048.0,0.2457
1049.0,0.2447
1050.0,0.2435
1051.0,0.243
1052.0,0.2419
1053.0,0.2398
1054.0,0.2402
1055.0,0.2401
1056.0,0.2391
1057.0,0.2382
1058.0,0.2322
1059.0,0.2322
1060.0,0.2318
1061.0,0.2314
1062.0,0.2324
1063.0,0.2299
1064.0,0.2327
1065.0,0.2306
1066.0,0.2264
1067.0,0.2292
1068.0,0.2239
1069.0,0.2172
1070.0,0.2243
1071.0,0.2288
1072.0,0.2254
1073.0,0.2223
1074.0,0.2293
1075.0,0.2146
1076.0,0.2289
1077.0,0.223
1078.0,0.218
1079.0,0.2258
1080.0,0.2196
1081.0,0.211
1082.0,0.2171
1083.0,0.2185
1084.0,0.2098
1085.0,0.2204
1086.0,0.1968
1087.0,0.206
1088.0,0.2177
1089.0,0.208
1090.0,0.2018
1091.0,0.2162
1092.0,0.2163
1093.0,0.1751
1094.0,0.1968
1095.0,0.183
1096.0,0.173
1097.0,0.2113
1098.0,0.1691
1099.0,0.1776
1100.0,0.1619
1101.0,0.165
1102.0,0.1553
1103.0,0.1522
1104.0,0.1526
1105.0,0.1729
1106.0,0.1191
1107.0,0.1617
1108.0,0.1293
1109.0,0.131
1110.0,0.1588
1111.0,0.09748
1112.0,0.1305
1113.0,0.07308
1114.0,0.08226
1115.0,0.06754
1116.0,0.04856
1117.0,0.013
1118.0,0.05426
1119.0,0.02257
1120.0,0.02785
1121.0,0.0393
1122.0,0.01312
1123.0,0.02536
1124.0,0.02134
1125.0,0.02892
1126.0,0.006879
1127.0,0.03294
1128.0,0.01602
1129.0,0.01738
1130.0,0.01059
1131.0,0.07254
1132.0,0.05492
1133.0,0.0294
1134.0,0.005194
1135.0,0.002101
1136.0,0.02272
1137.0,0.06916
1138.0,0.04776
1139.0,0.08304
1140.0,0.06483
1141.0,0.04552
1142.0,0.05453
1143.0,0.08256
1144.0,0.02365
1145.0,0.02838
1146.0,0.03054
1147.0,0.007602
1148.0,0.07089
1149.0,0.05328
1150.0,0.02639
1151.0,0.04737
1152.0,0.06229
1153.0,0.06388
1154.0,0.02758
1155.0,0.08645
1156.0,0.07543
1157.0,0.08931
1158.0,0.08818
1159.0,0.09784
1160.0,0.08117
1161.0,0.1067
1162.0,0.1066
1163.0,0.156
1164.0,0.1295
1165.0,0.1178
1166.0,0.1205
1167.0,0.1333
1168.0,0.1338
1169.0,0.1382
1170.0,0.154
1171.0,0.1499
1172.0,0.155
1173.0,0.1537
1174.0,0.1012
1175.0,0.1522
1176.0,0.1723
1177.0,0.162
1178.0,0.1152
1179.0,0.1738
1180.0,0.1498
1181.0,0.1548
1182.0,0.09962
1183.0,0.1535
1184.0,0.1414
1185.0,0.1343
1186.0,0.1666
1187.0,0.1563
1188.0,0.1001
1189.0,0.1453
1190.0,0.1632
1191.0,0.1504
1192.0,0.166
1193.0,0.1575
1194.0,0.1634
1195.0,0.1514
1196.0,0.144
1197.0,0.1648
1198.0,0.1492
1199.0,0.1204
1200.0,0.1554
1201.0,0.1475
1202.0,0.1485
1203.0,0.1463
1204.0,0.1251
1205.0,0.1538
1206.0,0.1732
1207.0,0.1472
1208.0,0.1469
1209.0,0.1503
1210.0,0.1581
1211.0,0.1482
1212.0,0.143
1213.0,0.1658
1214.0,0.1477
1215.0,0.1445
1216.0,0.1656
1217.0,0.16
1218.0,0.1641
1219.0,0.1614
1220.0,0.1644
1221.0,0.1668
1222.0,0.1619
1223.0,0.1598
1224.0,0.1576
1225.0,0.1656
1226.0,0.1676
1227.0,0.1513
1228.0,0.1692
1229.0,0.1676
1230.0,0.1642
1231.0,0.171
1232.0,0.1699
1233.0,0.1612
1234.0,0.1715
1235.0,0.17
1236.0,0.1716
1237.0,0.1679
1238.0,0.171
1239.0,0.1688
1240.0,0.1696
1241.0,0.168
1242.0,0.1683
1243.0,0.167
1244.0,0.168
1245.0,0.1688
1246.0,0.1679
1247.0,0.167
1248.0,0.1665
1249.0,0.1674
1250.0,0.1661
1251.0,0.1635
1252.0,0.1641
1253.0,0.1618
1254.0,0.1594
1255.0,0.1637
1256.0,0.1572
1257.0,0.156
1258.0,0.1604
1259.0,0.1516
1260.0,0.1528
1261.0,0.1406
1262.0,0.1345
1263.0,0.1347
1264.0,0.1201
1265.0,0.1339
1266.0,0.1263
1267.0,0.1303
1268.0,0.1208
1269.0,0.05897
1270.0,0.1291
1271.0,0.1406
1272.0,0.1414
1273.0,0.1395
1274.0,0.1405
1275.0,0.1432
1276.0,0.1453
1277.0,0.1472
1278.0,0.1515
1279.0,0.15
1280.0,0.1482
1281.0,0.1421
1282.0,0.1381
1283.0,0.1485
1284.0,0.1518
1285.0,0.153
1286.0,0.1557
1287.0,0.1521
1288.0,0.1524
1289.0,0.1453
1290.0,0.1512
1291.0,0.1537
1292.0,0.1403
1293.0,0.1498
1294.0,0.1485
1295.0,0.1465
1296.0,0.1373
1297.0,0.1281
1298.0,0.1418
1299.0,0.1503
1300.0,0.1207
1301.0,0.1256
1302.0,0.1415
1303.0,0.1198
1304.0,0.09623
1305.0,0.1382
1306.0,0.1377
1307.0,0.1005
1308.0,0.121
1309.0,0.1357
1310.0,0.09812
1311.0,0.1146
1312.0,0.1106
1313.0,0.1072
1314.0,0.09383
1315.0,0.09125
1316.0,0.1117
1317.0,0.105
1318.0,0.1167
1319.0,0.08408
1320.0,0.08293
1321.0,0.09907
1322.0,0.09874
1323.0,0.06859
1324.0,0.08274
1325.0,0.1094
1326.0,0.09033
1327.0,0.08515
1328.0,0.07146
1329.0,0.04875
1330.0,0.066
1331.0,0.03455
1332.0,0.03727
1333.0,0.05289
1334.0,0.04812
1335.0,0.06795
1336.0,0.05071
1337.0,0.04385
1338.0,0.04717
1339.0,0.04772
1340.0,0.04798
1341.0,0.04316
1342.0,0.04577
1343.0,0.02497
1344.0,0.01552
1345.0,0.02213
1346.0,0.007944
1347.0,0.007573
1348.0,0.0002458
1349.0,0.001048
1350.0,0.001228
1351.0,0.0001573
1352.0,1.887e-05
1353.0,5.119e-07
1354.0,2.876e-06
1355.0,5.702e-09
1356.0,2.447e-07
1357.0,3.722e-07
1358.0,7.098e-09
1359.0,3.885e-10
1360.0,2.312e-09
1361.0,9.493e-13
1362.0,2.385e-15
1363.0,2.161e-09
1364.0,9.555e-10
1365.0,7.957e-16
1366.0,1.145e-08
1367.0,6.182e-09
1368.0,6.074e-18
1369.0,3.519e-10
1370.0,1.306e-10
1371.0,6.019e-12
1372.0,3.499e-09
1373.0,1.328e-07
1374.0,1.026e-06
1375.0,1.641e-06
1376.0,2.679e-06
1377.0,1.114e-06
1378.0,1.22e-05
1379.0,4.77e-07
1380.0,4.648e-07
1381.0,9.97e-09
1382.0,2.776e-09
1383.0,3.364e-11
1384.0,3.398e-10
1385.0,4.413e-09
1386.0,1.868e-09
1387.0,6.894e-07
1388.0,1.734e-08
1389.0,4.541e-06
1390.0,3.68e-06
1391.0,2.341e-06
1392.0,1.441e-07
1393.0,9.849e-07
1394.0,1.971e-07
1395.0,9.876e-10
1396.0,1.34e-12
1397.0,3.209e-07
1398.0,1.248e-05
1399.0,8.282e-06
1400.0,5.125e-13
1401.0,2.526e-12
1402.0,5.58e-05
1403.0,5.828e-05
1404.0,1.62e-05
1405.0,3.377e-10
1406.0,3.086e-05
1407.0,3.986e-06
1408.0,2.692e-05
1409.0,5.676e-06
1410.0,6.931e-06
1411.0,5.335e-05
1412.0,9.04e-05
1413.0,0.001636
1414.0,5.89e-06
1415.0,2.323e-06
1416.0,0.004188
1417.0,0.0008802
1418.0,0.0008497
1419.0,0.0001212
1420.0,0.0005123
1421.0,0.0006198
1422.0,0.005492
1423.0,0.0009855
1424.0,0.002005
1425.0,0.002639
1426.0,0.003633
1427.0,0.007987
1428.0,0.0002135
1429.0,0.005187
1430.0,0.01099
1431.0,0.01263
1432.0,0.000164
1433.0,0.007334
