interpolation:linear
wavelength,value
280.0,1.466e-21
280.5,4.6810000000000006e-20
281.0,2.485e-19
281.5,4.843e-19
282.0,1e-18
282.5,2.519e-18
283.0,7.98e-18
283.5,1.298e-17
284.0,2.1e-16
284.5,6.067e-16
285.0,1.26e-15
285.5,6.046e-15
286.0,2.412e-14
286.5,1.064e-13
287.0,3.015e-13
287.5,1.144e-12
288.0,3.367e-12
288.5,1.071e-11
289.0,2.943e-11
289.5,9.085e-11
290.0,2.554e-10
290.5,5.25e-10
291.0,1.135e-09
291.5,3.277e-09
292.0,6.656e-09
292.5,9.743e-09
293.0,2.2e-08
293.5,5.724e-08
294.0,9.364e-08
294.5,1.223e-07
295.0,2.158e-07
295.5,5.202e-07
296.0,9.663e-07
296.5,1.403e-06
297.0,1.967e-06
297.5,5.609e-06
298.0,9.387e-06
298.5,9.943e-06
299.0,2.316e-05
299.5,4.279e-05
300.0,5.031e-05
300.5,7.854e-05
301.0,0.0001629
301.5,0.0003016
302.0,0.0002826
302.5,0.0005648
303.0,0.001046
303.5,0.001345
304.0,0.001284
304.5,0.001996
305.0,0.003201
305.5,0.003797
306.0,0.003726
306.5,0.004744
307.0,0.007386
307.5,0.01028
308.0,0.01094
308.5,0.01321
309.0,0.01316
309.5,0.01547
310.0,0.01574
310.5,0.02566
311.0,0.03254
311.5,0.03156
312.0,0.03225
312.5,0.03981
313.0,0.04351
313.5,0.04198
314.0,0.05339
314.5,0.04841
315.0,0.06388
315.5,0.05289
316.0,0.04703
316.5,0.06858
317.0,0.08514
317.5,0.08825
318.0,0.06957
318.5,0.08809
319.0,0.1056
319.5,0.08476
320.0,0.1022
320.5,0.1304
321.0,0.1182
321.5,0.1136
322.0,0.1188
322.5,0.1035
323.0,0.1044
323.5,0.1297
324.0,0.1517
324.5,0.1533
325.0,0.1317
325.5,0.1711
326.0,0.2097
326.5,0.2113
327.0,0.2102
327.5,0.2025
328.0,0.179
328.5,0.1899
329.0,0.2291
329.5,0.2607
330.0,0.2626
330.5,0.2091
331.0,0.2127
331.5,0.2171
332.0,0.236
332.5,0.2342
333.0,0.2332
333.5,0.2102
334.0,0.2152
334.5,0.2497
335.0,0.2354
335.5,0.2751
336.0,0.1904
336.5,0.2227
337.0,0.1824
337.5,0.2267
338.0,0.2223
338.5,0.2569
339.0,0.2544
339.5,0.2448
340.0,0.2876
340.5,0.2594
341.0,0.2531
341.5,0.2326
342.0,0.2781
342.5,0.2603
343.0,0.2863
343.5,0.2696
344.0,0.1993
344.5,0.2013
345.0,0.2667
345.5,0.2725
346.0,0.2317
346.5,0.2625
347.0,0.2818
347.5,0.2279
348.0,0.26
348.5,0.26
349.0,0.2414
349.5,0.2391
350.0,0.2958
350.5,0.3122
351.0,0.2789
351.5,0.2711
352.0,0.2913
352.5,0.2275
353.0,0.2867
353.5,0.3067
354.0,0.3185
354.5,0.3231
355.0,0.3221
355.5,0.2912
356.0,0.3048
356.5,0.2603
357.0,0.2151
357.5,0.2635
358.0,0.2089
358.5,0.1785
359.0,0.2498
359.5,0.3184
360.0,0.3376
360.5,0.2699
361.0,0.2462
361.5,0.2837
362.0,0.2455
362.5,0.34
363.0,0.3055
363.5,0.2816
364.0,0.3446
364.5,0.2946
365.0,0.3002
365.5,0.3769
366.0,0.3996
366.5,0.3756
367.0,0.3659
367.5,0.3799
368.0,0.3326
368.5,0.3358
369.0,0.3627
369.5,0.3868
370.0,0.4125
370.5,0.3203
371.0,0.3424
371.5,0.4285
372.0,0.2845
372.5,0.3413
373.0,0.3473
373.5,0.2261
374.0,0.3287
374.5,0.2723
375.0,0.2648
375.5,0.3955
376.0,0.3279
376.5,0.34
377.0,0.3601
377.5,0.4215
378.0,0.457
378.5,0.4321
379.0,0.3566
379.5,0.3258
380.0,0.3389
380.5,0.4107
381.0,0.4117
381.5,0.3266
382.0,0.2902
382.5,0.2475
383.0,0.2293
383.5,0.2209
384.0,0.2438
384.5,0.3587
385.0,0.3559
385.5,0.3316
386.0,0.2841
386.5,0.3734
387.0,0.3104
387.5,0.3488
388.0,0.3221
388.5,0.3186
389.0,0.344
389.5,0.4168
390.0,0.4185
390.5,0.3853
391.0,0.4537
391.5,0.4629
392.0,0.39
392.5,0.3493
393.0,0.1945
393.5,0.1414
394.0,0.2879
394.5,0.3662
395.0,0.447
395.5,0.4541
396.0,0.3939
396.5,0.2304
397.0,0.173
397.5,0.3519
398.0,0.4929
398.5,0.5096
399.0,0.5522
399.5,0.5505
400.0,0.5717
401.0,0.5789
402.0,0.6113
403.0,0.5812
404.0,0.5726
405.0,0.5728
406.0,0.564
407.0,0.5553
408.0,0.5772
409.0,0.6181
410.0,0.5405
411.0,0.5858
412.0,0.6297
413.0,0.6143
414.0,0.6223
415.0,0.6243
416.0,0.6357
417.0,0.6204
418.0,0.6092
419.0,0.6176
420.0,0.6152
421.0,0.6439
422.0,0.6123
423.0,0.5984
424.0,0.6331
425.0,0.6323
426.0,0.6165
427.0,0.6052
428.0,0.5897
429.0,0.559
430.0,0.4895
431.0,0.4853
432.0,0.6269
433.0,0.6307
434.0,0.5858
435.0,0.6119
436.0,0.69
437.0,0.6811
438.0,0.6206
439.0,0.6417
440.0,0.6624
441.0,0.6868
442.0,0.7368
443.0,0.7176
444.0,0.7336
445.0,0.7178
446.0,0.6855
447.0,0.7416
448.0,0.7531
449.0,0.7566
450.0,0.7781
451.0,0.8072
452.0,0.778
453.0,0.732
454.0,0.7646
455.0,0.7694
456.0,0.7879
457.0,0.8011
458.0,0.7737
459.0,0.7699
460.0,0.7719
461.0,0.7898
462.0,0.7963
463.0,0.7908
464.0,0.7783
465.0,0.7689
466.0,0.7767
467.0,0.7625
468.0,0.7715
469.0,0.7756
470.0,0.7509
471.0,0.7501
472.0,0.7904
473.0,0.7802
474.0,0.781
475.0,0.7874
476.0,0.7635
477.0,0.7654
478.0,0.7868
479.0,0.7823
480.0,0.7841
481.0,0.7991
482.0,0.8037
483.0,0.7945
484.0,0.7785
485.0,0.7419
486.0,0.6489
487.0,0.6803
488.0,0.7464
489.0,0.7486
490.0,0.7878
491.0,0.7744
492.0,0.7314
493.0,0.7554
494.0,0.7631
495.0,0.7696
496.0,0.7744
497.0,0.7864
498.0,0.7496
499.0,0.7591
500.0,0.7368
501.0,0.723
502.0,0.7123
503.0,0.7408
504.0,0.7205
505.0,0.7475
506.0,0.7717
507.0,0.7344
508.0,0.712
509.0,0.7323
510.0,0.7288
511.0,0.7486
512.0,0.757
513.0,0.7165
514.0,0.7118
515.0,0.7047
516.0,0.7029
517.0,0.6247
518.0,0.6567
519.0,0.6888
520.0,0.7138
521.0,0.7205
522.0,0.721
523.0,0.708
524.0,0.7331
525.0,0.7413
526.0,0.708
527.0,0.6669
528.0,0.705
529.0,0.7429
530.0,0.7321
531.0,0.7429
532.0,0.7173
533.0,0.6963
534.0,0.717
535.0,0.7328
536.0,0.7397
537.0,0.7107
538.0,0.7234
539.0,0.7173
540.0,0.6876
541.0,0.6917
542.0,0.7132
543.0,0.706
544.0,0.7179
545.0,0.7157
546.0,0.7185
547.0,0.7185
548.0,0.7101
549.0,0.7124
550.0,0.7209
551.0,0.7122
552.0,0.7171
553.0,0.7043
554.0,0.7211
555.0,0.7224
556.0,0.7129
557.0,0.6906
558.0,0.6852
559.0,0.6722
560.0,0.6804
561.0,0.689
562.0,0.6837
563.0,0.702
564.0,0.6826
565.0,0.6765
566.0,0.6664
567.0,0.6787
568.0,0.6718
569.0,0.6542
570.0,0.6543
571.0,0.6508
572.0,0.6653
573.0,0.6722
574.0,0.6699
575.0,0.657
576.0,0.651
577.0,0.6583
578.0,0.6488
579.0,0.6521
580.0,0.6657
581.0,0.67
582.0,0.6835
583.0,0.6858
584.0,0.6922
585.0,0.6755
586.0,0.6617
587.0,0.6757
588.0,0.6572
589.0,0.5784
590.0,0.6052
591.0,0.6427
592.0,0.6332
593.0,0.6444
594.0,0.6392
595.0,0.622
596.0,0.6497
597.0,0.6419
598.0,0.6412
599.0,0.6422
600.0,0.6439
601.0,0.6393
602.0,0.635
603.0,0.6459
604.0,0.6567
605.0,0.6535
606.0,0.6511
607.0,0.658
608.0,0.6511
609.0,0.6525
610.0,0.6482
611.0,0.6517
612.0,0.65
613.0,0.642
614.0,0.6336
615.0,0.6476
616.0,0.6265
617.0,0.6254
618.0,0.6497
619.0,0.6432
620.0,0.6473
621.0,0.6476
622.0,0.6398
623.0,0.6298
624.0,0.6192
625.0,0.6179
626.0,0.6269
627.0,0.6332
628.0,0.5825
629.0,0.6152
630.0,0.6007
631.0,0.6173
632.0,0.6104
633.0,0.6303
634.0,0.6251
635.0,0.6353
636.0,0.6275
637.0,0.6382
638.0,0.645
639.0,0.6381
640.0,0.6324
641.0,0.6323
642.0,0.6298
643.0,0.6383
644.0,0.6366
645.0,0.6374
646.0,0.6215
647.0,0.6117
648.0,0.6121
649.0,0.6001
650.0,0.6061
651.0,0.633
652.0,0.6033
653.0,0.6247
654.0,0.618
655.0,0.5934
656.0,0.5271
657.0,0.5414
658.0,0.6077
659.0,0.6125
660.0,0.6153
661.0,0.6197
662.0,0.6203
663.0,0.6083
664.0,0.6164
665.0,0.6176
666.0,0.6183
667.0,0.6181
668.0,0.6188
669.0,0.6285
670.0,0.626
671.0,0.626
672.0,0.6208
673.0,0.6303
674.0,0.6281
675.0,0.6225
676.0,0.6269
677.0,0.6208
678.0,0.6227
679.0,0.6127
680.0,0.6177
681.0,0.6137
682.0,0.6129
683.0,0.6118
684.0,0.6087
685.0,0.6141
686.0,0.6103
687.0,0.3674
688.0,0.4479
689.0,0.4501
690.0,0.4781
691.0,0.5102
692.0,0.5344
693.0,0.5295
694.0,0.5255
695.0,0.5519
696.0,0.5529
697.0,0.5924
698.0,0.583
699.0,0.5653
700.0,0.5583
701.0,0.5513
702.0,0.5566
703.0,0.5578
704.0,0.578
705.0,0.5788
706.0,0.5792
707.0,0.58
708.0,0.5811
709.0,0.5834
710.0,0.5827
711.0,0.5824
712.0,0.5813
713.0,0.5748
714.0,0.5772
715.0,0.5575
716.0,0.5574
717.0,0.4696
718.0,0.4296
719.0,0.3924
720.0,0.4097
721.0,0.4605
722.0,0.5357
723.0,0.4942
724.0,0.44
725.0,0.431
726.0,0.4519
727.0,0.4618
728.0,0.4293
729.0,0.4503
730.0,0.4759
731.0,0.4542
732.0,0.4909
733.0,0.5245
734.0,0.5384
735.0,0.5265
736.0,0.5258
737.0,0.5278
738.0,0.5394
739.0,0.5288
740.0,0.5437
741.0,0.5389
742.0,0.5401
743.0,0.554
744.0,0.5528
745.0,0.5533
746.0,0.5558
747.0,0.5571
748.0,0.556
749.0,0.5497
750.0,0.5494
751.0,0.5438
752.0,0.5462
753.0,0.549
754.0,0.5503
755.0,0.5471
756.0,0.5469
757.0,0.5477
758.0,0.5408
759.0,0.5277
760.0,0.05702
761.0,0.02563
762.0,0.2304
763.0,0.09664
764.0,0.1608
765.0,0.2303
766.0,0.3004
767.0,0.3982
768.0,0.4756
769.0,0.4893
770.0,0.5102
771.0,0.5162
772.0,0.5179
773.0,0.5216
774.0,0.5192
775.0,0.5154
776.0,0.5217
777.0,0.5148
778.0,0.5117
779.0,0.5121
780.0,0.5093
781.0,0.5099
782.0,0.5131
783.0,0.5042
784.0,0.5067
785.0,0.5028
786.0,0.5082
787.0,0.4976
788.0,0.4906
789.0,0.4903
790.0,0.4749
791.0,0.4813
792.0,0.4781
793.0,0.4701
794.0,0.4806
795.0,0.4881
796.0,0.4698
797.0,0.4702
798.0,0.4871
799.0,0.4834
800.0,0.4742
801.0,0.472
802.0,0.4707
803.0,0.4667
804.0,0.4677
805.0,0.4672
806.0,0.4819
807.0,0.4757
808.0,0.4763
809.0,0.4661
810.0,0.4615
811.0,0.4603
812.0,0.445
813.0,0.4345
814.0,0.3754
815.0,0.3734
816.0,0.3468
817.0,0.3537
818.0,0.3389
819.0,0.3848
820.0,0.3602
821.0,0.4295
822.0,0.4159
823.0,0.2697
824.0,0.4007
825.0,0.4219
826.0,0.4032
827.0,0.4283
828.0,0.3552
829.0,0.4013
830.0,0.3953
831.0,0.3969
832.0,0.3833
833.0,0.4116
834.0,0.3944
835.0,0.4391
836.0,0.4166
837.0,0.4405
838.0,0.425
839.0,0.4343
840.0,0.4443
841.0,0.4372
842.0,0.4394
843.0,0.4405
844.0,0.4336
845.0,0.4492
846.0,0.4475
847.0,0.4395
848.0,0.4362
849.0,0.4238
850.0,0.4061
851.0,0.4294
852.0,0.4266
853.0,0.4111
854.0,0.3546
855.0,0.3902
856.0,0.4261
857.0,0.436
858.0,0.4326
859.0,0.4333
860.0,0.4342
861.0,0.4318
862.0,0.4387
863.0,0.449
864.0,0.4266
865.0,0.4229
866.0,0.3803
867.0,0.3969
868.0,0.4319
869.0,0.423
870.0,0.435
871.0,0.4291
872.0,0.4276
873.0,0.4268
874.0,0.4217
875.0,0.4131
876.0,0.4174
877.0,0.4217
878.0,0.4261
879.0,0.4196
880.0,0.4106
881.0,0.4042
882.0,0.4128
883.0,0.4144
884.0,0.4124
885.0,0.4155
886.0,0.3949
887.0,0.3999
888.0,0.4053
889.0,0.4109
890.0,0.4063
891.0,0.4062
892.0,0.3929
893.0,0.379
894.0,0.3624
895.0,0.3382
896.0,0.3172
897.0,0.2674
898.0,0.2945
899.0,0.218
900.0,0.3048
901.0,0.2286
902.0,0.2763
903.0,0.2763
904.0,0.3596
905.0,0.3456
906.0,0.322
907.0,0.2536
908.0,0.26
909.0,0.2851
910.0,0.2456
911.0,0.2662
912.0,0.2793
913.0,0.2489
914.0,0.2481
915.0,0.2688
916.0,0.2263
917.0,0.2938
918.0,0.2316
919.0,0.3012
920.0,0.3085
921.0,0.321
922.0,0.2822
923.0,0.3105
924.0,0.2884
925.0,0.2823
926.0,0.2848
927.0,0.3236
928.0,0.2238
929.0,0.2006
930.0,0.1519
931.0,0.1445
932.0,0.09815
933.0,0.07697
934.0,0.03646
935.0,0.08105
936.0,0.04686
937.0,0.04719
938.0,0.05943
939.0,0.1399
940.0,0.1726
941.0,0.1246
942.0,0.1475
943.0,0.09269
944.0,0.1018
945.0,0.1297
946.0,0.0602
947.0,0.1287
948.0,0.09386
949.0,0.178
950.0,0.04115
951.0,0.1763
952.0,0.08723
953.0,0.1176
954.0,0.1498
955.0,0.1195
956.0,0.1203
957.0,0.08679
958.0,0.1776
959.0,0.1345
960.0,0.1507
961.0,0.1744
962.0,0.1645
963.0,0.1942
964.0,0.1765
965.0,0.1937
966.0,0.1928
967.0,0.1914
968.0,0.2736
969.0,0.2837
970.0,0.2587
971.0,0.3035
972.0,0.2889
973.0,0.244
974.0,0.2307
975.0,0.2423
976.0,0.2259
977.0,0.2654
978.0,0.2486
979.0,0.2627
980.0,0.2457
981.0,0.302
982.0,0.286
983.0,0.273
984.0,0.3145
985.0,0.2849
986.0,0.322
987.0,0.3133
988.0,0.3129
989.0,0.3223
990.0,0.3109
991.0,0.323
992.0,0.3251
993.0,0.3156
994.0,0.3253
995.0,0.3252
996.0,0.3234
997.0,0.324
998.0,0.3224
999.0,0.3213
1000.0,0.3185
1001.0,0.3231
1002.0,0.312
1003.0,0.3172
1004.0,0.3089
1005.0,0.2984
1006.0,0.3096
1007.0,0.3164
1008.0,0.3143
1009.0,0.3122
1010.0,0.3106
1011.0,0.3149
1012.0,0.3117
1013.0,0.3142
1014.0,0.312
1015.0,0.3099
1016.0,0.3084
1017.0,0.3091
1018.0,0.3082
1019.0,0.3008
1020.0,0.3065
1021.0,0.3062
1022.0,0.3035
1023.0,0.3067
1024.0,0.3018
1025.0,0.3068
1026.0,0.3052
1027.0,0.3046
1028.0,0.3039
1029.0,0.3002
1030.0,0.3026
1031.0,0.3012
1032.0,0.3005
1033.0,0.2959
1034.0,0.296
1035.0,0.2969
1036.0,0.2983
1037.0,0.2935
1038.0,0.2948
1039.0,0.2945
1040.0,0.2933
1041.0,0.2944
1042.0,0.2924
1043.0,0.2914
1044.0,0.2924
1045.0,0.2883
1046.0,0.2851
1047.0,0.2876
1048.0,0.2891
1049.0,0.288
1050.0,0.2866
1051.0,0.2861
1052.0,0.2849
1053.0,0.2825
1054.0,0.283
1055.0,0.283
1056.0,0.2819
1057.0,0.2809
1058.0,0.2739
1059.0,0.274
1060.0,0.2735
1061.0,0.2731
1062.0,0.2744
1063.0,0.2716
1064.0,0.2749
1065.0,0.2726
1066.0,0.2674
1067.0,0.2708
1068.0,0.2647
1069.0,0.2567
1070.0,0.2652
1071.0,0.27
1072.0,0.2663
1073.0,0.2626
1074.0,0.2703
1075.0,0.2544
1076.0,0.2699
1077.0,0.2638
1078.0,0.2582
1079.0,0.266
1080.0,0.2598
1081.0,0.2503
1082.0,0.2563
1083.0,0.2576
1084.0,0.2492
1085.0,0.2606
1086.0,0.2345
1087.0,0.2443
1088.0,0.2569
1089.0,0.2468
1090.0,0.2401
1091.0,0.2555
1092.0,0.2553
1093.0,0.2103
1094.0,0.2328
1095.0,0.2197
1096.0,0.2086
1097.0,0.2494
1098.0,0.2046
1099.0,0.2144
1100.0,0.1968
1101.0,0.2
1102.0,0.1894
1103.0,0.1864
1104.0,0.1867
1105.0,0.2089
1106.0,0.1498
1107.0,0.1965
1108.0,0.1606
1109.0,0.1621
1110.0,0.1938
1111.0,0.1236
1112.0,0.1613
1113.0,0.09484
1114.0,0.1066
1115.0,0.08792
1116.0,0.06578
1117.0,0.01987
1118.0,0.07289
1119.0,0.03246
1120.0,0.04045
1121.0,0.0558
1122.0,0.02043
1123.0,0.03672
1124.0,0.03094
1125.0,0.04129
1126.0,0.01145
1127.0,0.04685
1128.0,0.02474
1129.0,0.02664
1130.0,0.01658
1131.0,0.09736
1132.0,0.07474
1133.0,0.04277
1134.0,0.008722
1135.0,0.003411
1136.0,0.0341
1137.0,0.09393
1138.0,0.06535
1139.0,0.107
1140.0,0.08574
1141.0,0.0622
1142.0,0.07338
1143.0,0.1082
1144.0,0.03346
1145.0,0.0413
1146.0,0.04449
1147.0,0.01271
1148.0,0.09334
1149.0,0.07178
1150.0,0.03666
1151.0,0.06481
1152.0,0.08307
1153.0,0.08352
1154.0,0.03989
1155.0,0.1115
1156.0,0.09846
1157.0,0.1139
1158.0,0.1126
1159.0,0.1237
1160.0,0.1035
1161.0,0.1328
1162.0,0.133
1163.0,0.1887
1164.0,0.1586
1165.0,0.1464
1166.0,0.1479
1167.0,0.1627
1168.0,0.1637
1169.0,0.1686
1170.0,0.1859
1171.0,0.1811
1172.0,0.1861
1173.0,0.1856
1174.0,0.1261
1175.0,0.1827
1176.0,0.2044
1177.0,0.1938
1178.0,0.1408
1179.0,0.2061
1180.0,0.1802
1181.0,0.1861
1182.0,0.1231
1183.0,0.1841
1184.0,0.1707
1185.0,0.1632
1186.0,0.1988
1187.0,0.1877
1188.0,0.1244
1189.0,0.1745
1190.0,0.1945
1191.0,0.1815
1192.0,0.1975
1193.0,0.1882
1194.0,0.1947
1195.0,0.182
1196.0,0.174
1197.0,0.1958
1198.0,0.1779
1199.0,0.1468
1200.0,0.1857
1201.0,0.1775
1202.0,0.1777
1203.0,0.1756
1204.0,0.1515
1205.0,0.1831
1206.0,0.2046
1207.0,0.1766
1208.0,0.1752
1209.0,0.1792
1210.0,0.1877
1211.0,0.1771
1212.0,0.1726
1213.0,0.1968
1214.0,0.1777
1215.0,0.174
1216.0,0.1963
1217.0,0.1903
1218.0,0.1947
1219.0,0.1918
1220.0,0.195
1221.0,0.1974
1222.0,0.1919
1223.0,0.1897
1224.0,0.1877
1225.0,0.196
1226.0,0.198
1227.0,0.1803
1228.0,0.1995
1229.0,0.198
1230.0,0.1942
1231.0,0.2012
1232.0,0.2
1233.0,0.1911
1234.0,0.2014
1235.0,0.1999
1236.0,0.2016
1237.0,0.1979
1238.0,0.2009
1239.0,0.1983
1240.0,0.1991
1241.0,0.1977
1242.0,0.1977
1243.0,0.1961
1244.0,0.1974
1245.0,0.1983
1246.0,0.1972
1247.0,0.1963
1248.0,0.1959
1249.0,0.1967
1250.0,0.1954
1251.0,0.1926
1252.0,0.193
1253.0,0.1908
1254.0,0.1884
1255.0,0.1926
1256.0,0.186
1257.0,0.1847
1258.0,0.1891
1259.0,0.1804
1260.0,0.1815
1261.0,0.1689
1262.0,0.1626
1263.0,0.1628
1264.0,0.1474
1265.0,0.1619
1266.0,0.154
1267.0,0.1579
1268.0,0.1479
1269.0,0.08024
1270.0,0.1569
1271.0,0.1687
1272.0,0.1695
1273.0,0.1674
1274.0,0.1683
1275.0,0.1712
1276.0,0.1733
1277.0,0.1751
1278.0,0.1794
1279.0,0.1777
1280.0,0.1756
1281.0,0.168
1282.0,0.1626
1283.0,0.175
1284.0,0.179
1285.0,0.1803
1286.0,0.1831
1287.0,0.1795
1288.0,0.1797
1289.0,0.1725
1290.0,0.1782
1291.0,0.181
1292.0,0.1673
1293.0,0.1768
1294.0,0.1754
1295.0,0.1738
1296.0,0.1642
1297.0,0.154
1298.0,0.1685
1299.0,0.1773
1300.0,0.1455
1301.0,0.1509
1302.0,0.168
1303.0,0.1441
1304.0,0.1187
1305.0,0.1643
1306.0,0.1639
1307.0,0.1228
1308.0,0.1451
1309.0,0.1621
1310.0,0.1202
1311.0,0.1381
1312.0,0.1337
1313.0,0.1303
1314.0,0.1151
1315.0,0.1126
1316.0,0.1351
1317.0,0.1275
1318.0,0.1403
1319.0,0.1046
1320.0,0.1024
1321.0,0.121
1322.0,0.1213
1323.0,0.08715
1324.0,0.1027
1325.0,0.1328
1326.0,0.1113
1327.0,0.1055
1328.0,0.08955
1329.0,0.06361
1330.0,0.08465
1331.0,0.04699
1332.0,0.04984
1333.0,0.07021
1334.0,0.06185
1335.0,0.08662
1336.0,0.06623
1337.0,0.05766
1338.0,0.06226
1339.0,0.06258
1340.0,0.06206
1341.0,0.05782
1342.0,0.06103
1343.0,0.03638
1344.0,0.02221
1345.0,0.03199
1346.0,0.01313
1347.0,0.01288
1348.0,0.0005483
1349.0,0.002201
1350.0,0.002475
1351.0,0.0004086
1352.0,6.931e-05
1353.0,2.332e-06
1354.0,1.087e-05
1355.0,3.469e-08
1356.0,1.116e-06
1357.0,1.707e-06
1358.0,4.266e-08
1359.0,2.642e-09
1360.0,1.513e-08
1361.0,4.279e-12
1362.0,7.484e-15
1363.0,1.545e-08
1364.0,6.563e-09
1365.0,1.539e-15
1366.0,8.11e-08
1367.0,4.007e-08
1368.0,7.131e-18
1369.0,2.405e-09
1370.0,8.818e-10
1371.0,3.658e-11
1372.0,2.241e-08
1373.0,7.159e-07
1374.0,4.621e-06
1375.0,7.949e-06
1376.0,9.988e-06
1377.0,4.289e-06
1378.0,4.642e-05
1379.0,1.808e-06
1380.0,2.076e-06
1381.0,4.656e-08
1382.0,1.846e-08
1383.0,2.244e-10
1384.0,2.384e-09
1385.0,2.511e-08
1386.0,1.316e-08
1387.0,3.747e-06
1388.0,8.117e-08
1389.0,1.896e-05
1390.0,1.592e-05
1391.0,1.015e-05
1392.0,6.192e-07
1393.0,3.88e-06
1394.0,1.126e-06
1395.0,6.079e-09
1396.0,7.286e-12
1397.0,1.361e-06
1398.0,4.965e-05
1399.0,3.217e-05
1400.0,2.208e-12
1401.0,1.489e-11
1402.0,0.0001483
1403.0,0.0001684
1404.0,4.895e-05
1405.0,2.281e-09
1406.0,0.0001071
1407.0,1.134e-05
1408.0,9.068e-05
1409.0,2.311e-05
1410.0,2.314e-05
1411.0,0.0001513
1412.0,0.0002331
1413.0,0.003422
1414.0,1.901e-05
1415.0,8.086e-06
1416.0,0.007257
1417.0,0.001734
1418.0,0.00183
1419.0,0.0002686
1420.0,0.001108
1421.0,0.001251
1422.0,0.009535
1423.0,0.001744
1424.0,0.003423
1425.0,0.004739
1426.0,0.00603
1427.0,0.01249
1428.0,0.0004934
1429.0,0.008569
1430.0,0.01666
1431.0,0.01882
1432.0,0.0003818
1433.0,0.01129
1434.0,0.005413
1435.0,0.004337
