interpolation:linear
wavelength,value
280.0,7.403999999999999e-22
280.5,2.398e-20
281.0,1.279e-19
281.5,5.179e-19
282.0,8.714e-19
282.5,2.156e-18
283.0,6.788e-18
283.5,1.103e-17
284.0,1.791e-16
284.5,5.191e-16
285.0,9.609e-16
285.5,4.684e-15
286.0,1.877e-14
286.5,8.351e-14
287.0,2.378e-13
287.5,9.088e-13
288.0,2.914e-12
288.5,8.987e-12
289.0,2.421e-11
289.5,7.363e-11
290.0,2.052e-10
290.5,4.192e-10
291.0,9.013e-10
291.5,2.59e-09
292.0,5.84e-09
292.5,8.211e-09
293.0,1.765e-08
293.5,4.305e-08
294.0,6.743e-08
294.5,8.932e-08
295.0,1.514e-07
295.5,3.09e-07
296.0,5.762e-07
296.5,8.278e-07
297.0,1.149e-06
297.5,3.225e-06
298.0,5.322e-06
298.5,5.575e-06
299.0,1.285e-05
299.5,2.334e-05
300.0,2.718e-05
300.5,4.2e-05
301.0,8.55e-05
301.5,0.0001544
302.0,0.000142
302.5,0.0002863
303.0,0.000537
303.5,0.0006977
304.0,0.0006727
304.5,0.001074
305.0,0.00179
305.5,0.002177
306.0,0.002158
306.5,0.002793
307.0,0.004515
307.5,0.006519
308.0,0.00698
308.5,0.008588
309.0,0.008709
309.5,0.0105
310.0,0.01081
310.5,0.01772
311.0,0.02269
311.5,0.0221
312.0,0.02305
312.5,0.02885
313.0,0.03175
313.5,0.03043
314.0,0.03934
314.5,0.03645
315.0,0.04828
315.5,0.03956
316.0,0.0358
316.5,0.05299
317.0,0.06577
317.5,0.06788
318.0,0.05406
318.5,0.06982
319.0,0.08451
319.5,0.06677
320.0,0.08032
320.5,0.1046
321.0,0.09651
321.5,0.09288
322.0,0.09534
322.5,0.08313
323.0,0.08487
323.5,0.1066
324.0,0.125
324.5,0.1257
325.0,0.1073
325.5,0.1409
326.0,0.1731
326.5,0.1755
327.0,0.1742
327.5,0.1673
328.0,0.1466
328.5,0.1572
329.0,0.1913
329.5,0.2183
330.0,0.2194
330.5,0.1735
331.0,0.1761
331.5,0.1807
332.0,0.1979
332.5,0.197
333.0,0.1958
333.5,0.1756
334.0,0.1796
334.5,0.2097
335.0,0.1983
335.5,0.2319
336.0,0.1605
336.5,0.1873
337.0,0.153
337.5,0.1901
338.0,0.1874
338.5,0.2167
339.0,0.2147
339.5,0.2066
340.0,0.2425
340.5,0.2189
341.0,0.2137
341.5,0.1965
342.0,0.235
342.5,0.22
343.0,0.2419
343.5,0.2278
344.0,0.1683
344.5,0.1701
345.0,0.2254
345.5,0.2304
346.0,0.196
346.5,0.2221
347.0,0.2384
347.5,0.1928
348.0,0.22
348.5,0.2201
349.0,0.2044
349.5,0.2024
350.0,0.2505
350.5,0.2644
351.0,0.2362
351.5,0.2295
352.0,0.2467
352.5,0.1927
353.0,0.243
353.5,0.26
354.0,0.27
354.5,0.2739
355.0,0.2731
355.5,0.2469
356.0,0.2585
356.5,0.2208
357.0,0.1825
357.5,0.2235
358.0,0.1772
358.5,0.1515
359.0,0.2119
359.5,0.2701
360.0,0.2865
360.5,0.2291
361.0,0.209
361.5,0.2409
362.0,0.2085
362.5,0.2888
363.0,0.2596
363.5,0.2393
364.0,0.2928
364.5,0.2504
365.0,0.2552
365.5,0.3204
366.0,0.3398
366.5,0.3195
367.0,0.3113
367.5,0.3232
368.0,0.283
368.5,0.2857
369.0,0.3087
369.5,0.3292
370.0,0.3512
370.5,0.2727
371.0,0.2916
371.5,0.3649
372.0,0.2423
372.5,0.2907
373.0,0.2959
373.5,0.1926
374.0,0.2801
374.5,0.2321
375.0,0.2257
375.5,0.3371
376.0,0.2796
376.5,0.2898
377.0,0.307
377.5,0.3594
378.0,0.3897
378.5,0.3685
379.0,0.3042
379.5,0.2779
380.0,0.2891
380.5,0.3504
381.0,0.3514
381.5,0.2787
382.0,0.2477
382.5,0.2113
383.0,0.1958
383.5,0.1887
384.0,0.2083
384.5,0.3065
385.0,0.3041
385.5,0.2834
386.0,0.2428
386.5,0.3192
387.0,0.2654
387.5,0.2982
388.0,0.2754
388.5,0.2724
389.0,0.2942
389.5,0.3565
390.0,0.358
390.5,0.3297
391.0,0.3882
391.5,0.3962
392.0,0.3338
392.5,0.299
393.0,0.1665
393.5,0.1211
394.0,0.2465
394.5,0.3136
395.0,0.3829
395.5,0.3891
396.0,0.3375
396.5,0.1974
397.0,0.1482
397.5,0.3016
398.0,0.4225
398.5,0.4369
399.0,0.4735
399.5,0.4721
400.0,0.4903
401.0,0.4958
402.0,0.5237
403.0,0.498
404.0,0.4908
405.0,0.4911
406.0,0.4836
407.0,0.4763
408.0,0.4952
409.0,0.5304
410.0,0.4639
411.0,0.5029
412.0,0.5408
413.0,0.5277
414.0,0.5346
415.0,0.5365
416.0,0.5465
417.0,0.5334
418.0,0.5239
419.0,0.5312
420.0,0.5292
421.0,0.5541
422.0,0.527
423.0,0.5151
424.0,0.5451
425.0,0.5445
426.0,0.531
427.0,0.5214
428.0,0.5082
429.0,0.4819
430.0,0.422
431.0,0.4184
432.0,0.5407
433.0,0.544
434.0,0.5054
435.0,0.5279
436.0,0.5955
437.0,0.588
438.0,0.5359
439.0,0.554
440.0,0.572
441.0,0.5932
442.0,0.6365
443.0,0.6199
444.0,0.6338
445.0,0.6202
446.0,0.5926
447.0,0.6413
448.0,0.6511
449.0,0.6544
450.0,0.6732
451.0,0.6984
452.0,0.6732
453.0,0.6336
454.0,0.6619
455.0,0.6661
456.0,0.6823
457.0,0.6938
458.0,0.6699
459.0,0.6667
460.0,0.6684
461.0,0.684
462.0,0.6897
463.0,0.685
464.0,0.6744
465.0,0.6666
466.0,0.6735
467.0,0.6611
468.0,0.669
469.0,0.6726
470.0,0.6511
471.0,0.6505
472.0,0.6854
473.0,0.6765
474.0,0.6772
475.0,0.6825
476.0,0.6616
477.0,0.663
478.0,0.6817
479.0,0.6779
480.0,0.6796
481.0,0.6928
482.0,0.697
483.0,0.6893
484.0,0.6756
485.0,0.6441
486.0,0.5634
487.0,0.5909
488.0,0.6482
489.0,0.6501
490.0,0.6842
491.0,0.6727
492.0,0.6354
493.0,0.6563
494.0,0.663
495.0,0.6687
496.0,0.6729
497.0,0.6833
498.0,0.6513
499.0,0.6594
500.0,0.6399
501.0,0.6278
502.0,0.6183
503.0,0.6427
504.0,0.6242
505.0,0.6483
506.0,0.6692
507.0,0.6369
508.0,0.6178
509.0,0.6357
510.0,0.6328
511.0,0.6502
512.0,0.6575
513.0,0.6224
514.0,0.6184
515.0,0.6122
516.0,0.6107
517.0,0.5427
518.0,0.5706
519.0,0.5984
520.0,0.6201
521.0,0.6259
522.0,0.6263
523.0,0.6149
524.0,0.6365
525.0,0.6434
526.0,0.6145
527.0,0.5786
528.0,0.6116
529.0,0.6443
530.0,0.6348
531.0,0.6441
532.0,0.6218
533.0,0.6037
534.0,0.6217
535.0,0.6355
536.0,0.6416
537.0,0.6165
538.0,0.6276
539.0,0.6223
540.0,0.5965
541.0,0.5998
542.0,0.6182
543.0,0.6122
544.0,0.6223
545.0,0.6205
546.0,0.6227
547.0,0.6229
548.0,0.6157
549.0,0.6177
550.0,0.6251
551.0,0.6176
552.0,0.6219
553.0,0.6107
554.0,0.6253
555.0,0.6264
556.0,0.6181
557.0,0.5987
558.0,0.5939
559.0,0.5824
560.0,0.5894
561.0,0.5967
562.0,0.592
563.0,0.6077
564.0,0.5908
565.0,0.5853
566.0,0.5764
567.0,0.5869
568.0,0.5805
569.0,0.5644
570.0,0.5646
571.0,0.5618
572.0,0.5737
573.0,0.5796
574.0,0.5774
575.0,0.5661
576.0,0.561
577.0,0.5673
578.0,0.5595
579.0,0.5627
580.0,0.5751
581.0,0.5793
582.0,0.5913
583.0,0.5937
584.0,0.5995
585.0,0.5852
586.0,0.5732
587.0,0.5851
588.0,0.568
589.0,0.4978
590.0,0.521
591.0,0.5546
592.0,0.5457
593.0,0.5562
594.0,0.5513
595.0,0.5357
596.0,0.5613
597.0,0.5541
598.0,0.5541
599.0,0.5551
600.0,0.5571
601.0,0.5534
602.0,0.5498
603.0,0.5593
604.0,0.5688
605.0,0.5661
606.0,0.5643
607.0,0.5704
608.0,0.5646
609.0,0.566
610.0,0.5625
611.0,0.5657
612.0,0.5643
613.0,0.5575
614.0,0.5503
615.0,0.5627
616.0,0.5445
617.0,0.5436
618.0,0.5648
619.0,0.5592
620.0,0.5627
621.0,0.5629
622.0,0.556
623.0,0.5472
624.0,0.5381
625.0,0.5369
626.0,0.5448
627.0,0.5498
628.0,0.501
629.0,0.5325
630.0,0.5198
631.0,0.5358
632.0,0.5301
633.0,0.548
634.0,0.5441
635.0,0.5533
636.0,0.5468
637.0,0.5563
638.0,0.5626
639.0,0.5568
640.0,0.552
641.0,0.5521
642.0,0.5501
643.0,0.5576
644.0,0.5563
645.0,0.5569
646.0,0.5424
647.0,0.5326
648.0,0.533
649.0,0.5223
650.0,0.5293
651.0,0.553
652.0,0.5254
653.0,0.5459
654.0,0.5402
655.0,0.5178
656.0,0.4606
657.0,0.4732
658.0,0.5317
659.0,0.5361
660.0,0.5386
661.0,0.5426
662.0,0.5428
663.0,0.5324
664.0,0.54
665.0,0.5414
666.0,0.5422
667.0,0.5422
668.0,0.543
669.0,0.5517
670.0,0.5495
671.0,0.5496
672.0,0.5451
673.0,0.5535
674.0,0.5517
675.0,0.5468
676.0,0.5508
677.0,0.5455
678.0,0.5472
679.0,0.5385
680.0,0.543
681.0,0.5394
682.0,0.5388
683.0,0.5378
684.0,0.5351
685.0,0.5399
686.0,0.5365
687.0,0.3036
688.0,0.3794
689.0,0.3816
690.0,0.4086
691.0,0.4398
692.0,0.4638
693.0,0.4594
694.0,0.4563
695.0,0.4818
696.0,0.4828
697.0,0.5202
698.0,0.5119
699.0,0.4944
700.0,0.4882
701.0,0.4813
702.0,0.4867
703.0,0.4879
704.0,0.5067
705.0,0.5074
706.0,0.5082
707.0,0.5091
708.0,0.5101
709.0,0.5129
710.0,0.5118
711.0,0.5118
712.0,0.5113
713.0,0.5052
714.0,0.5074
715.0,0.4892
716.0,0.489
717.0,0.4048
718.0,0.3697
719.0,0.3371
720.0,0.3513
721.0,0.399
722.0,0.4686
723.0,0.4301
724.0,0.3802
725.0,0.3716
726.0,0.3898
727.0,0.4002
728.0,0.3698
729.0,0.3904
730.0,0.4121
731.0,0.3928
732.0,0.4272
733.0,0.4589
734.0,0.4719
735.0,0.461
736.0,0.4603
737.0,0.4621
738.0,0.4742
739.0,0.4649
740.0,0.4785
741.0,0.4747
742.0,0.476
743.0,0.4884
744.0,0.4876
745.0,0.4882
746.0,0.4904
747.0,0.4916
748.0,0.4906
749.0,0.4851
750.0,0.4848
751.0,0.48
752.0,0.4821
753.0,0.4846
754.0,0.4857
755.0,0.4829
756.0,0.4828
757.0,0.4834
758.0,0.4773
759.0,0.4645
760.0,0.03856
761.0,0.01586
762.0,0.184
763.0,0.06945
764.0,0.1228
765.0,0.1838
766.0,0.2488
767.0,0.3398
768.0,0.4146
769.0,0.4285
770.0,0.4491
771.0,0.4554
772.0,0.4572
773.0,0.4606
774.0,0.4585
775.0,0.4552
776.0,0.4608
777.0,0.4548
778.0,0.452
779.0,0.4524
780.0,0.4499
781.0,0.4504
782.0,0.4533
783.0,0.4454
784.0,0.4477
785.0,0.4441
786.0,0.4488
787.0,0.4386
788.0,0.432
789.0,0.4317
790.0,0.4169
791.0,0.4238
792.0,0.4211
793.0,0.414
794.0,0.4245
795.0,0.4307
796.0,0.4129
797.0,0.4131
798.0,0.4297
799.0,0.4261
800.0,0.4176
801.0,0.4152
802.0,0.414
803.0,0.4102
804.0,0.4113
805.0,0.4114
806.0,0.4252
807.0,0.4196
808.0,0.4202
809.0,0.4106
810.0,0.4061
811.0,0.404
812.0,0.3894
813.0,0.3798
814.0,0.3248
815.0,0.3233
816.0,0.2998
817.0,0.3061
818.0,0.2925
819.0,0.335
820.0,0.3126
821.0,0.3769
822.0,0.3643
823.0,0.2301
824.0,0.3494
825.0,0.3703
826.0,0.3525
827.0,0.3758
828.0,0.3077
829.0,0.3512
830.0,0.3456
831.0,0.3469
832.0,0.3343
833.0,0.3609
834.0,0.3446
835.0,0.3865
836.0,0.3647
837.0,0.3879
838.0,0.3731
839.0,0.3825
840.0,0.3916
841.0,0.3849
842.0,0.3875
843.0,0.3891
844.0,0.3827
845.0,0.397
846.0,0.3955
847.0,0.3887
848.0,0.3855
849.0,0.3745
850.0,0.3589
851.0,0.3791
852.0,0.3769
853.0,0.3635
854.0,0.3132
855.0,0.345
856.0,0.3766
857.0,0.3856
858.0,0.3825
859.0,0.3832
860.0,0.3841
861.0,0.382
862.0,0.3881
863.0,0.3973
864.0,0.3775
865.0,0.3742
866.0,0.3365
867.0,0.3512
868.0,0.3822
869.0,0.3743
870.0,0.385
871.0,0.3797
872.0,0.3784
873.0,0.3777
874.0,0.3732
875.0,0.3656
876.0,0.3694
877.0,0.3732
878.0,0.3771
879.0,0.3713
880.0,0.3634
881.0,0.3575
882.0,0.3651
883.0,0.3666
884.0,0.3648
885.0,0.3675
886.0,0.3488
887.0,0.3537
888.0,0.3582
889.0,0.3635
890.0,0.3589
891.0,0.3591
892.0,0.3467
893.0,0.3337
894.0,0.3175
895.0,0.2944
896.0,0.2757
897.0,0.2301
898.0,0.2545
899.0,0.186
900.0,0.2649
901.0,0.195
902.0,0.2391
903.0,0.2378
904.0,0.315
905.0,0.3021
906.0,0.2809
907.0,0.2176
908.0,0.2238
909.0,0.2469
910.0,0.21
911.0,0.2297
912.0,0.2411
913.0,0.2127
914.0,0.2126
915.0,0.23
916.0,0.1933
917.0,0.2536
918.0,0.1976
919.0,0.261
920.0,0.2693
921.0,0.2801
922.0,0.2443
923.0,0.2712
924.0,0.2491
925.0,0.2439
926.0,0.2458
927.0,0.2813
928.0,0.189
929.0,0.1679
930.0,0.1248
931.0,0.1187
932.0,0.07826
933.0,0.06035
934.0,0.02652
935.0,0.06438
936.0,0.03584
937.0,0.03604
938.0,0.04591
939.0,0.1149
940.0,0.1436
941.0,0.1015
942.0,0.1213
943.0,0.07451
944.0,0.08367
945.0,0.1061
946.0,0.04704
947.0,0.1047
948.0,0.07614
949.0,0.147
950.0,0.03118
951.0,0.1459
952.0,0.06953
953.0,0.09566
954.0,0.124
955.0,0.09745
956.0,0.1003
957.0,0.06903
958.0,0.1502
959.0,0.1113
960.0,0.1247
961.0,0.1464
962.0,0.138
963.0,0.1647
964.0,0.1492
965.0,0.1642
966.0,0.1632
967.0,0.1618
968.0,0.2384
969.0,0.2462
970.0,0.2239
971.0,0.2657
972.0,0.2522
973.0,0.21
974.0,0.1984
975.0,0.2093
976.0,0.1934
977.0,0.2309
978.0,0.2148
979.0,0.2278
980.0,0.2127
981.0,0.2645
982.0,0.2493
983.0,0.2374
984.0,0.2767
985.0,0.2483
986.0,0.2842
987.0,0.2755
988.0,0.2753
989.0,0.2851
990.0,0.2735
991.0,0.2856
992.0,0.2876
993.0,0.2781
994.0,0.2878
995.0,0.2879
996.0,0.2861
997.0,0.2868
998.0,0.2853
999.0,0.2843
1000.0,0.2816
1001.0,0.286
1002.0,0.2751
1003.0,0.2807
1004.0,0.2731
1005.0,0.2641
1006.0,0.2739
1007.0,0.28
1008.0,0.278
1009.0,0.2759
1010.0,0.2744
1011.0,0.2787
1012.0,0.2757
1013.0,0.2782
1014.0,0.2762
1015.0,0.2743
1016.0,0.273
1017.0,0.2736
1018.0,0.2729
1019.0,0.266
1020.0,0.2713
1021.0,0.2711
1022.0,0.2686
1023.0,0.2714
1024.0,0.2667
1025.0,0.2716
1026.0,0.2701
1027.0,0.2696
1028.0,0.2689
1029.0,0.2656
1030.0,0.2678
1031.0,0.2666
1032.0,0.266
1033.0,0.2619
1034.0,0.262
1035.0,0.2628
1036.0,0.264
1037.0,0.2598
1038.0,0.2609
1039.0,0.2607
1040.0,0.2596
1041.0,0.2605
1042.0,0.2587
1043.0,0.2578
1044.0,0.2586
1045.0,0.2551
1046.0,0.2522
1047.0,0.2544
1048.0,0.2557
1049.0,0.2547
1050.0,0.2534
1051.0,0.2529
1052.0,0.2518
1053.0,0.2496
1054.0,0.25
1055.0,0.25
1056.0,0.2489
1057.0,0.248
1058.0,0.2417
1059.0,0.2418
1060.0,0.2414
1061.0,0.241
1062.0,0.242
1063.0,0.2395
1064.0,0.2424
1065.0,0.2402
1066.0,0.2358
1067.0,0.2387
1068.0,0.2332
1069.0,0.2263
1070.0,0.2337
1071.0,0.2383
1072.0,0.2348
1073.0,0.2316
1074.0,0.2387
1075.0,0.2237
1076.0,0.2383
1077.0,0.2324
1078.0,0.2272
1079.0,0.235
1080.0,0.2289
1081.0,0.22
1082.0,0.2261
1083.0,0.2275
1084.0,0.2188
1085.0,0.2296
1086.0,0.2054
1087.0,0.2148
1088.0,0.2267
1089.0,0.2169
1090.0,0.2106
1091.0,0.2252
1092.0,0.2252
1093.0,0.1832
1094.0,0.2051
1095.0,0.1914
1096.0,0.1811
1097.0,0.2201
1098.0,0.1772
1099.0,0.186
1100.0,0.1698
1101.0,0.173
1102.0,0.1631
1103.0,0.16
1104.0,0.1604
1105.0,0.1811
1106.0,0.1261
1107.0,0.1696
1108.0,0.1364
1109.0,0.138
1110.0,0.1668
1111.0,0.1034
1112.0,0.1375
1113.0,0.07795
1114.0,0.08772
1115.0,0.07211
1116.0,0.05237
1117.0,0.01445
1118.0,0.0584
1119.0,0.02472
1120.0,0.03058
1121.0,0.04292
1122.0,0.01467
1123.0,0.02783
1124.0,0.02342
1125.0,0.03162
1126.0,0.007825
1127.0,0.03598
1128.0,0.01787
1129.0,0.01935
1130.0,0.01184
1131.0,0.07807
1132.0,0.05932
1133.0,0.0323
1134.0,0.005919
1135.0,0.002372
1136.0,0.02517
1137.0,0.07465
1138.0,0.05165
1139.0,0.08844
1140.0,0.0695
1141.0,0.04921
1142.0,0.05873
1143.0,0.08832
1144.0,0.02579
1145.0,0.03118
1146.0,0.03357
1147.0,0.008657
1148.0,0.07592
1149.0,0.0574
1150.0,0.02864
1151.0,0.05123
1152.0,0.06693
1153.0,0.06829
1154.0,0.03024
1155.0,0.09209
1156.0,0.0806
1157.0,0.09486
1158.0,0.09368
1159.0,0.1037
1160.0,0.08619
1161.0,0.1126
1162.0,0.1126
1163.0,0.1635
1164.0,0.1361
1165.0,0.1243
1166.0,0.1267
1167.0,0.14
1168.0,0.1406
1169.0,0.1452
1170.0,0.1613
1171.0,0.157
1172.0,0.1621
1173.0,0.161
1174.0,0.1069
1175.0,0.1592
1176.0,0.1797
1177.0,0.1693
1178.0,0.121
1179.0,0.1812
1180.0,0.1567
1181.0,0.1619
1182.0,0.105
1183.0,0.1605
1184.0,0.1481
1185.0,0.1408
1186.0,0.174
1187.0,0.1635
1188.0,0.1056
1189.0,0.152
1190.0,0.1704
1191.0,0.1575
1192.0,0.1732
1193.0,0.1645
1194.0,0.1706
1195.0,0.1584
1196.0,0.1509
1197.0,0.172
1198.0,0.1558
1199.0,0.1264
1200.0,0.1623
1201.0,0.1544
1202.0,0.1552
1203.0,0.153
1204.0,0.1311
1205.0,0.1605
1206.0,0.1804
1207.0,0.1539
1208.0,0.1534
1209.0,0.1569
1210.0,0.1649
1211.0,0.1548
1212.0,0.1497
1213.0,0.1729
1214.0,0.1546
1215.0,0.1512
1216.0,0.1726
1217.0,0.1669
1218.0,0.1711
1219.0,0.1684
1220.0,0.1714
1221.0,0.1738
1222.0,0.1688
1223.0,0.1667
1224.0,0.1645
1225.0,0.1726
1226.0,0.1746
1227.0,0.1579
1228.0,0.1761
1229.0,0.1746
1230.0,0.1711
1231.0,0.178
1232.0,0.1768
1233.0,0.168
1234.0,0.1784
1235.0,0.1768
1236.0,0.1784
1237.0,0.1748
1238.0,0.1779
1239.0,0.1756
1240.0,0.1764
1241.0,0.1749
1242.0,0.1751
1243.0,0.1737
1244.0,0.1747
1245.0,0.1756
1246.0,0.1746
1247.0,0.1737
1248.0,0.1733
1249.0,0.1741
1250.0,0.1728
1251.0,0.1702
1252.0,0.1708
1253.0,0.1684
1254.0,0.166
1255.0,0.1703
1256.0,0.1638
1257.0,0.1625
1258.0,0.167
1259.0,0.1582
1260.0,0.1594
1261.0,0.1471
1262.0,0.1409
1263.0,0.1411
1264.0,0.1263
1265.0,0.1403
1266.0,0.1326
1267.0,0.1366
1268.0,0.127
1269.0,0.0637
1270.0,0.1355
1271.0,0.147
1272.0,0.1479
1273.0,0.1459
1274.0,0.1469
1275.0,0.1497
1276.0,0.1518
1277.0,0.1536
1278.0,0.1579
1279.0,0.1563
1280.0,0.1545
1281.0,0.148
1282.0,0.1437
1283.0,0.1545
1284.0,0.158
1285.0,0.1593
1286.0,0.162
1287.0,0.1584
1288.0,0.1587
1289.0,0.1516
1290.0,0.1574
1291.0,0.16
1292.0,0.1465
1293.0,0.156
1294.0,0.1547
1295.0,0.1528
1296.0,0.1435
1297.0,0.134
1298.0,0.148
1299.0,0.1565
1300.0,0.1264
1301.0,0.1314
1302.0,0.1476
1303.0,0.1254
1304.0,0.1013
1305.0,0.1442
1306.0,0.1437
1307.0,0.1056
1308.0,0.1265
1309.0,0.1418
1310.0,0.1031
1311.0,0.12
1312.0,0.1159
1313.0,0.1125
1314.0,0.09867
1315.0,0.0961
1316.0,0.117
1317.0,0.1101
1318.0,0.1221
1319.0,0.08872
1320.0,0.08736
1321.0,0.1041
1322.0,0.1039
1323.0,0.07278
1324.0,0.08727
1325.0,0.1148
1326.0,0.0951
1327.0,0.08976
1328.0,0.07556
1329.0,0.05208
1330.0,0.07019
1331.0,0.0373
1332.0,0.04007
1333.0,0.05676
1334.0,0.0512
1335.0,0.07217
1336.0,0.05419
1337.0,0.04693
1338.0,0.05054
1339.0,0.05104
1340.0,0.05114
1341.0,0.04643
1342.0,0.04917
1343.0,0.02744
1344.0,0.01697
1345.0,0.02427
1346.0,0.009019
1347.0,0.008661
1348.0,0.0003007
1349.0,0.001264
1350.0,0.001468
1351.0,0.0002002
1352.0,2.621e-05
1353.0,7.432e-07
1354.0,4.006e-06
1355.0,8.64e-09
1356.0,3.551e-07
1357.0,5.41e-07
1358.0,1.076e-08
1359.0,5.607e-10
1360.0,3.503e-09
1361.0,1.117e-12
1362.0,2.591e-15
1363.0,3.225e-09
1364.0,1.422e-09
1365.0,8.156e-16
1366.0,1.747e-08
1367.0,9.428e-09
1368.0,6.089e-18
1369.0,5.228e-10
1370.0,1.854e-10
1371.0,7.982e-12
1372.0,5.331e-09
1373.0,1.996e-07
1374.0,1.489e-06
1375.0,2.427e-06
1376.0,3.72e-06
1377.0,1.557e-06
1378.0,1.708e-05
1379.0,6.637e-07
1380.0,6.724e-07
1381.0,1.45e-08
1382.0,4.239e-09
1383.0,5.037e-11
1384.0,4.999e-10
1385.0,6.658e-09
1386.0,2.824e-09
1387.0,1.044e-06
1388.0,2.526e-08
1389.0,6.492e-06
1390.0,5.313e-06
1391.0,3.373e-06
1392.0,2.064e-07
1393.0,1.385e-06
1394.0,3.002e-07
1395.0,1.503e-09
1396.0,1.67e-12
1397.0,4.586e-07
1398.0,1.768e-05
1399.0,1.166e-05
1400.0,5.901e-13
1401.0,3.254e-12
1402.0,7.135e-05
1403.0,7.618e-05
1404.0,2.143e-05
1405.0,5.151e-10
1406.0,4.231e-05
1407.0,5.174e-06
1408.0,3.662e-05
1409.0,8.086e-06
1410.0,9.377e-06
1411.0,6.938e-05
1412.0,0.0001148
1413.0,0.001974
1414.0,7.899e-06
1415.0,3.172e-06
1416.0,0.004812
1417.0,0.001043
1418.0,0.001033
1419.0,0.0001483
1420.0,0.0006233
1421.0,0.0007387
1422.0,0.006315
1423.0,0.001138
1424.0,0.002292
1425.0,0.003058
1426.0,0.004125
1427.0,0.008941
1428.0,0.0002637
1429.0,0.005888
1430.0,0.01221
1431.0,0.01396
1432.0,0.0002029
1433.0,0.008174
1434.0,0.003821
