interpolation:linear
wavelength,value
280.0,1.092e-21
280.5,3.511e-20
281.0,1.867e-19
281.5,5.216e-19
282.0,9.54e-19
282.5,2.375e-18
283.0,7.487e-18
283.5,1.216e-17
284.0,1.968e-16
284.5,5.692e-16
285.0,1.126e-15
285.5,5.427e-15
286.0,2.168e-14
286.5,9.594e-14
287.0,2.723e-13
287.5,1.036e-12
288.0,3.181e-12
288.5,9.956e-12
289.0,2.708e-11
289.5,8.293e-11
290.0,2.32e-10
290.5,4.753e-10
291.0,1.024e-09
291.5,2.949e-09
292.0,6.089e-09
292.5,8.784e-09
293.0,1.948e-08
293.5,4.942e-08
294.0,7.943e-08
294.5,1.045e-07
295.0,1.812e-07
295.5,4.157e-07
296.0,7.505e-07
296.5,1.085e-06
297.0,1.515e-06
297.5,4.297e-06
298.0,7.161e-06
298.5,7.563e-06
299.0,1.758e-05
299.5,3.238e-05
300.0,3.804e-05
300.5,5.934e-05
301.0,0.000123
301.5,0.000227
302.0,0.0002122
302.5,0.0004258
303.0,0.0007934
303.5,0.001025
304.0,0.000983
304.5,0.001546
305.0,0.002521
305.5,0.003023
306.0,0.002978
306.5,0.003819
307.0,0.00604
307.5,0.008537
308.0,0.009109
308.5,0.01109
309.0,0.01112
309.5,0.01321
310.0,0.0135
310.5,0.02206
311.0,0.02808
311.5,0.02728
312.0,0.02811
312.5,0.0349
313.0,0.03825
313.5,0.0368
314.0,0.04711
314.5,0.0431
315.0,0.05696
315.5,0.04696
316.0,0.04205
316.5,0.0617
317.0,0.07659
317.5,0.07924
318.0,0.06273
318.5,0.08007
319.0,0.09636
319.5,0.07685
320.0,0.09258
320.5,0.1191
321.0,0.1088
321.5,0.1046
322.0,0.1086
322.5,0.0946
323.0,0.09587
323.5,0.1196
324.0,0.1401
324.5,0.1413
325.0,0.1211
325.5,0.1579
326.0,0.1938
326.5,0.1957
327.0,0.1945
327.5,0.1872
328.0,0.1649
328.5,0.1757
329.0,0.2127
329.5,0.2423
330.0,0.2439
330.5,0.1936
331.0,0.1968
331.5,0.2013
332.0,0.2195
332.5,0.2181
333.0,0.217
333.5,0.1952
334.0,0.1998
334.5,0.2324
335.0,0.2194
335.5,0.2564
336.0,0.1775
336.5,0.2074
337.0,0.1697
337.5,0.2109
338.0,0.2072
338.5,0.2395
339.0,0.2372
339.5,0.2282
340.0,0.2681
340.5,0.2419
341.0,0.2361
341.5,0.217
342.0,0.2594
342.5,0.2429
343.0,0.2671
343.5,0.2515
344.0,0.1859
344.5,0.1878
345.0,0.2488
345.5,0.2543
346.0,0.2163
346.5,0.245
347.0,0.263
347.5,0.2128
348.0,0.2427
348.5,0.2428
349.0,0.2254
349.5,0.2233
350.0,0.2763
350.5,0.2915
351.0,0.2605
351.5,0.2531
352.0,0.2721
352.5,0.2125
353.0,0.2678
353.5,0.2865
354.0,0.2976
354.5,0.3019
355.0,0.301
355.5,0.2721
356.0,0.2848
356.5,0.2433
357.0,0.201
357.5,0.2462
358.0,0.1952
358.5,0.1669
359.0,0.2335
359.5,0.2975
360.0,0.3155
360.5,0.2523
361.0,0.2302
361.5,0.2652
362.0,0.2295
362.5,0.3179
363.0,0.2857
363.5,0.2634
364.0,0.3223
364.5,0.2756
365.0,0.2808
365.5,0.3526
366.0,0.3738
366.5,0.3514
367.0,0.3424
367.5,0.3555
368.0,0.3112
368.5,0.3142
369.0,0.3395
369.5,0.362
370.0,0.3861
370.5,0.2998
371.0,0.3205
371.5,0.4012
372.0,0.2663
372.5,0.3195
373.0,0.3252
373.5,0.2117
374.0,0.3077
374.5,0.255
375.0,0.248
375.5,0.3703
376.0,0.3071
376.5,0.3184
377.0,0.3373
377.5,0.3948
378.0,0.428
378.5,0.4047
379.0,0.3341
379.5,0.3052
380.0,0.3174
380.5,0.3847
381.0,0.3858
381.5,0.306
382.0,0.2719
382.5,0.232
383.0,0.2149
383.5,0.2071
384.0,0.2285
384.5,0.3363
385.0,0.3336
385.5,0.3109
386.0,0.2664
386.5,0.3501
387.0,0.291
387.5,0.327
388.0,0.3021
388.5,0.2987
389.0,0.3226
389.5,0.3909
390.0,0.3925
390.5,0.3614
391.0,0.4256
391.5,0.4342
392.0,0.3659
392.5,0.3277
393.0,0.1825
393.5,0.1327
394.0,0.2701
394.5,0.3436
395.0,0.4194
395.5,0.4262
396.0,0.3697
396.5,0.2162
397.0,0.1623
397.5,0.3303
398.0,0.4626
398.5,0.4784
399.0,0.5184
399.5,0.5169
400.0,0.5368
401.0,0.5432
402.0,0.5737
403.0,0.5455
404.0,0.5374
405.0,0.5377
406.0,0.5295
407.0,0.5214
408.0,0.542
409.0,0.5805
410.0,0.5076
411.0,0.5502
412.0,0.5916
413.0,0.5771
414.0,0.5846
415.0,0.5867
416.0,0.5974
417.0,0.5831
418.0,0.5726
419.0,0.5805
420.0,0.5783
421.0,0.6054
422.0,0.5757
423.0,0.5627
424.0,0.5954
425.0,0.5947
426.0,0.5798
427.0,0.5693
428.0,0.5548
429.0,0.526
430.0,0.4606
431.0,0.4566
432.0,0.59
433.0,0.5935
434.0,0.5513
435.0,0.5759
436.0,0.6495
437.0,0.6412
438.0,0.5843
439.0,0.6041
440.0,0.6237
441.0,0.6467
442.0,0.6938
443.0,0.6757
444.0,0.6909
445.0,0.676
446.0,0.6457
447.0,0.6986
448.0,0.7094
449.0,0.7129
450.0,0.7332
451.0,0.7606
452.0,0.7331
453.0,0.6898
454.0,0.7206
455.0,0.7252
456.0,0.7426
457.0,0.7551
458.0,0.7292
459.0,0.7257
460.0,0.7276
461.0,0.7445
462.0,0.7506
463.0,0.7455
464.0,0.7338
465.0,0.7251
466.0,0.7325
467.0,0.7191
468.0,0.7276
469.0,0.7315
470.0,0.7082
471.0,0.7074
472.0,0.7454
473.0,0.7358
474.0,0.7366
475.0,0.7425
476.0,0.7199
477.0,0.7216
478.0,0.7418
479.0,0.7376
480.0,0.7393
481.0,0.7536
482.0,0.758
483.0,0.7495
484.0,0.7344
485.0,0.7
486.0,0.6123
487.0,0.642
488.0,0.7044
489.0,0.7064
490.0,0.7435
491.0,0.7309
492.0,0.6903
493.0,0.713
494.0,0.7202
495.0,0.7264
496.0,0.7309
497.0,0.7423
498.0,0.7075
499.0,0.7164
500.0,0.6953
501.0,0.6822
502.0,0.6721
503.0,0.6988
504.0,0.6792
505.0,0.7051
506.0,0.7278
507.0,0.6927
508.0,0.6717
509.0,0.6909
510.0,0.6877
511.0,0.7065
512.0,0.7144
513.0,0.6762
514.0,0.6718
515.0,0.6651
516.0,0.6634
517.0,0.5896
518.0,0.6198
519.0,0.6501
520.0,0.6737
521.0,0.68
522.0,0.6805
523.0,0.6681
524.0,0.6917
525.0,0.6994
526.0,0.668
527.0,0.6291
528.0,0.665
529.0,0.7007
530.0,0.6905
531.0,0.7006
532.0,0.6764
533.0,0.6566
534.0,0.6762
535.0,0.6912
536.0,0.6977
537.0,0.6704
538.0,0.6824
539.0,0.6766
540.0,0.6486
541.0,0.6524
542.0,0.6725
543.0,0.6659
544.0,0.677
545.0,0.675
546.0,0.6775
547.0,0.6776
548.0,0.6697
549.0,0.6719
550.0,0.6799
551.0,0.6717
552.0,0.6764
553.0,0.6642
554.0,0.6801
555.0,0.6813
556.0,0.6724
557.0,0.6513
558.0,0.6461
559.0,0.6337
560.0,0.6415
561.0,0.6495
562.0,0.6445
563.0,0.6617
564.0,0.6433
565.0,0.6375
566.0,0.6279
567.0,0.6394
568.0,0.6327
569.0,0.6158
570.0,0.6159
571.0,0.6126
572.0,0.6261
573.0,0.6326
574.0,0.6303
575.0,0.6181
576.0,0.6125
577.0,0.6193
578.0,0.6106
579.0,0.6139
580.0,0.6269
581.0,0.6312
582.0,0.644
583.0,0.6464
584.0,0.6525
585.0,0.6368
586.0,0.6238
587.0,0.6369
588.0,0.619
589.0,0.5438
590.0,0.5691
591.0,0.605
592.0,0.5957
593.0,0.6066
594.0,0.6015
595.0,0.585
596.0,0.6118
597.0,0.6043
598.0,0.6039
599.0,0.6049
600.0,0.6068
601.0,0.6025
602.0,0.5985
603.0,0.6088
604.0,0.6191
605.0,0.6161
606.0,0.614
607.0,0.6205
608.0,0.6141
609.0,0.6155
610.0,0.6115
611.0,0.6149
612.0,0.6134
613.0,0.6058
614.0,0.5979
615.0,0.6113
616.0,0.5914
617.0,0.5904
618.0,0.6134
619.0,0.6073
620.0,0.6111
621.0,0.6114
622.0,0.6039
623.0,0.5944
624.0,0.5845
625.0,0.5832
626.0,0.5918
627.0,0.5975
628.0,0.5476
629.0,0.5798
630.0,0.566
631.0,0.5824
632.0,0.5761
633.0,0.5951
634.0,0.5904
635.0,0.6002
636.0,0.593
637.0,0.6032
638.0,0.6098
639.0,0.6034
640.0,0.598
641.0,0.598
642.0,0.5957
643.0,0.6038
644.0,0.6023
645.0,0.603
646.0,0.5877
647.0,0.5778
648.0,0.5783
649.0,0.5668
650.0,0.5732
651.0,0.5988
652.0,0.57
653.0,0.591
654.0,0.5848
655.0,0.561
656.0,0.4986
657.0,0.5122
658.0,0.5752
659.0,0.5798
660.0,0.5825
661.0,0.5867
662.0,0.5872
663.0,0.5758
664.0,0.5837
665.0,0.585
666.0,0.5858
667.0,0.5857
668.0,0.5864
669.0,0.5957
670.0,0.5933
671.0,0.5934
672.0,0.5884
673.0,0.5975
674.0,0.5954
675.0,0.5902
676.0,0.5943
677.0,0.5886
678.0,0.5904
679.0,0.581
680.0,0.5857
681.0,0.5819
682.0,0.5812
683.0,0.5801
684.0,0.5772
685.0,0.5824
686.0,0.5787
687.0,0.3399
688.0,0.4185
689.0,0.4207
690.0,0.4483
691.0,0.4801
692.0,0.5042
693.0,0.4995
694.0,0.4958
695.0,0.5219
696.0,0.5229
697.0,0.5615
698.0,0.5526
699.0,0.535
700.0,0.5283
701.0,0.5214
702.0,0.5267
703.0,0.5279
704.0,0.5475
705.0,0.5483
706.0,0.5489
707.0,0.5497
708.0,0.5508
709.0,0.5533
710.0,0.5524
711.0,0.5522
712.0,0.5514
713.0,0.5451
714.0,0.5473
715.0,0.5283
716.0,0.5281
717.0,0.4418
718.0,0.4039
719.0,0.3686
720.0,0.3846
721.0,0.4341
722.0,0.507
723.0,0.4668
724.0,0.4143
725.0,0.4055
726.0,0.4252
727.0,0.4354
728.0,0.4038
729.0,0.4246
730.0,0.4486
731.0,0.4278
732.0,0.4636
733.0,0.4965
734.0,0.51
735.0,0.4985
736.0,0.4978
737.0,0.4997
738.0,0.5115
739.0,0.5015
740.0,0.5158
741.0,0.5114
742.0,0.5127
743.0,0.526
744.0,0.525
745.0,0.5255
746.0,0.5278
747.0,0.5291
748.0,0.528
749.0,0.5221
750.0,0.5218
751.0,0.5165
752.0,0.5188
753.0,0.5215
754.0,0.5227
755.0,0.5197
756.0,0.5195
757.0,0.5202
758.0,0.5137
759.0,0.5007
760.0,0.04865
761.0,0.02109
762.0,0.2103
763.0,0.08452
764.0,0.1441
765.0,0.2101
766.0,0.2782
767.0,0.3732
768.0,0.4495
769.0,0.4633
770.0,0.4841
771.0,0.4902
772.0,0.4919
773.0,0.4955
774.0,0.4933
775.0,0.4897
776.0,0.4957
777.0,0.4892
778.0,0.4862
779.0,0.4866
780.0,0.4839
781.0,0.4844
782.0,0.4875
783.0,0.4791
784.0,0.4815
785.0,0.4777
786.0,0.4828
787.0,0.4724
788.0,0.4656
789.0,0.4652
790.0,0.4501
791.0,0.4567
792.0,0.4537
793.0,0.4461
794.0,0.4566
795.0,0.4636
796.0,0.4455
797.0,0.4458
798.0,0.4626
799.0,0.4589
800.0,0.45
801.0,0.4477
802.0,0.4464
803.0,0.4425
804.0,0.4436
805.0,0.4433
806.0,0.4577
807.0,0.4517
808.0,0.4523
809.0,0.4424
810.0,0.4378
811.0,0.4362
812.0,0.4212
813.0,0.4111
814.0,0.3537
815.0,0.3519
816.0,0.3266
817.0,0.3333
818.0,0.319
819.0,0.3635
820.0,0.3398
821.0,0.407
822.0,0.3938
823.0,0.2527
824.0,0.3787
825.0,0.3998
826.0,0.3815
827.0,0.4059
828.0,0.3348
829.0,0.3799
830.0,0.374
831.0,0.3755
832.0,0.3623
833.0,0.3899
834.0,0.3731
835.0,0.4166
836.0,0.3944
837.0,0.418
838.0,0.4028
839.0,0.4122
840.0,0.4218
841.0,0.4148
842.0,0.4172
843.0,0.4185
844.0,0.4119
845.0,0.4269
846.0,0.4253
847.0,0.4178
848.0,0.4145
849.0,0.4027
850.0,0.3859
851.0,0.4079
852.0,0.4054
853.0,0.3908
854.0,0.3369
855.0,0.3708
856.0,0.405
857.0,0.4145
858.0,0.4112
859.0,0.4119
860.0,0.4128
861.0,0.4105
862.0,0.4171
863.0,0.4269
864.0,0.4056
865.0,0.4021
866.0,0.3616
867.0,0.3773
868.0,0.4107
869.0,0.4022
870.0,0.4136
871.0,0.408
872.0,0.4066
873.0,0.4058
874.0,0.401
875.0,0.3928
876.0,0.3969
877.0,0.4009
878.0,0.4052
879.0,0.399
880.0,0.3904
881.0,0.3842
882.0,0.3924
883.0,0.394
884.0,0.392
885.0,0.395
886.0,0.3752
887.0,0.3802
888.0,0.3852
889.0,0.3907
890.0,0.386
891.0,0.3861
892.0,0.3731
893.0,0.3596
894.0,0.3431
895.0,0.3194
896.0,0.2994
897.0,0.2514
898.0,0.2773
899.0,0.2043
900.0,0.2877
901.0,0.2141
902.0,0.2603
903.0,0.2598
904.0,0.3405
905.0,0.327
906.0,0.3044
907.0,0.2381
908.0,0.2445
909.0,0.2687
910.0,0.2303
911.0,0.2505
912.0,0.2629
913.0,0.2333
914.0,0.2328
915.0,0.2522
916.0,0.2121
917.0,0.2766
918.0,0.217
919.0,0.284
920.0,0.2917
921.0,0.3035
922.0,0.2659
923.0,0.2937
924.0,0.2715
925.0,0.2658
926.0,0.2681
927.0,0.3055
928.0,0.2088
929.0,0.1865
930.0,0.1402
931.0,0.1334
932.0,0.08949
933.0,0.0697
934.0,0.03203
935.0,0.07379
936.0,0.04202
937.0,0.04228
938.0,0.0535
939.0,0.1291
940.0,0.1601
941.0,0.1146
942.0,0.1362
943.0,0.08479
944.0,0.09398
945.0,0.1195
946.0,0.05444
947.0,0.1183
948.0,0.08616
949.0,0.1646
950.0,0.03674
951.0,0.1631
952.0,0.07951
953.0,0.1081
954.0,0.1386
955.0,0.1099
956.0,0.1116
957.0,0.07903
958.0,0.1658
959.0,0.1244
960.0,0.1395
961.0,0.1623
962.0,0.1531
963.0,0.1815
964.0,0.1647
965.0,0.181
966.0,0.1801
967.0,0.1787
968.0,0.2585
969.0,0.2676
970.0,0.2438
971.0,0.2873
972.0,0.2732
973.0,0.2294
974.0,0.2168
975.0,0.2281
976.0,0.2119
977.0,0.2506
978.0,0.2341
979.0,0.2477
980.0,0.2315
981.0,0.2859
982.0,0.2703
983.0,0.2578
984.0,0.2983
985.0,0.2692
986.0,0.3059
987.0,0.2972
988.0,0.2968
989.0,0.3064
990.0,0.2949
991.0,0.307
992.0,0.3091
993.0,0.2995
994.0,0.3092
995.0,0.3092
996.0,0.3075
997.0,0.3081
998.0,0.3065
999.0,0.3055
1000.0,0.3027
1001.0,0.3072
1002.0,0.2962
1003.0,0.3016
1004.0,0.2936
1005.0,0.2837
1006.0,0.2944
1007.0,0.3008
1008.0,0.2988
1009.0,0.2967
1010.0,0.2951
1011.0,0.2994
1012.0,0.2963
1013.0,0.2988
1014.0,0.2967
1015.0,0.2947
1016.0,0.2933
1017.0,0.2939
1018.0,0.2931
1019.0,0.2859
1020.0,0.2914
1021.0,0.2912
1022.0,0.2886
1023.0,0.2916
1024.0,0.2868
1025.0,0.2917
1026.0,0.2902
1027.0,0.2896
1028.0,0.2889
1029.0,0.2854
1030.0,0.2877
1031.0,0.2864
1032.0,0.2857
1033.0,0.2814
1034.0,0.2814
1035.0,0.2823
1036.0,0.2837
1037.0,0.2791
1038.0,0.2803
1039.0,0.2801
1040.0,0.2789
1041.0,0.2799
1042.0,0.278
1043.0,0.277
1044.0,0.2779
1045.0,0.2741
1046.0,0.271
1047.0,0.2734
1048.0,0.2748
1049.0,0.2738
1050.0,0.2724
1051.0,0.2719
1052.0,0.2707
1053.0,0.2685
1054.0,0.2689
1055.0,0.2689
1056.0,0.2678
1057.0,0.2668
1058.0,0.2601
1059.0,0.2603
1060.0,0.2598
1061.0,0.2594
1062.0,0.2606
1063.0,0.2579
1064.0,0.261
1065.0,0.2587
1066.0,0.2539
1067.0,0.2571
1068.0,0.2512
1069.0,0.2437
1070.0,0.2517
1071.0,0.2565
1072.0,0.2528
1073.0,0.2493
1074.0,0.2568
1075.0,0.2413
1076.0,0.2564
1077.0,0.2504
1078.0,0.245
1079.0,0.2528
1080.0,0.2466
1081.0,0.2373
1082.0,0.2434
1083.0,0.2447
1084.0,0.2362
1085.0,0.2473
1086.0,0.2221
1087.0,0.2317
1088.0,0.244
1089.0,0.234
1090.0,0.2275
1091.0,0.2426
1092.0,0.2424
1093.0,0.1987
1094.0,0.221
1095.0,0.2076
1096.0,0.1968
1097.0,0.2369
1098.0,0.1928
1099.0,0.2022
1100.0,0.1852
1101.0,0.1884
1102.0,0.1781
1103.0,0.175
1104.0,0.1754
1105.0,0.197
1106.0,0.1396
1107.0,0.185
1108.0,0.1502
1109.0,0.1517
1110.0,0.1822
1111.0,0.1149
1112.0,0.151
1113.0,0.08752
1114.0,0.09842
1115.0,0.08108
1116.0,0.05993
1117.0,0.01745
1118.0,0.06659
1119.0,0.02905
1120.0,0.03611
1121.0,0.05016
1122.0,0.01786
1123.0,0.03281
1124.0,0.02763
1125.0,0.03704
1126.0,0.009818
1127.0,0.04208
1128.0,0.02168
1129.0,0.0234
1130.0,0.01446
1131.0,0.08898
1132.0,0.06803
1133.0,0.03816
1134.0,0.007454
1135.0,0.002943
1136.0,0.03015
1137.0,0.08554
1138.0,0.05938
1139.0,0.09899
1140.0,0.0787
1141.0,0.05654
1142.0,0.06701
1143.0,0.09961
1144.0,0.03009
1145.0,0.03685
1146.0,0.03968
1147.0,0.01088
1148.0,0.0858
1149.0,0.06553
1150.0,0.03314
1151.0,0.05889
1152.0,0.07607
1153.0,0.07694
1154.0,0.03563
1155.0,0.1031
1156.0,0.09074
1157.0,0.1057
1158.0,0.1044
1159.0,0.1151
1160.0,0.09602
1161.0,0.1241
1162.0,0.1242
1163.0,0.1779
1164.0,0.149
1165.0,0.1369
1166.0,0.1388
1167.0,0.1529
1168.0,0.1538
1169.0,0.1585
1170.0,0.1754
1171.0,0.1708
1172.0,0.1758
1173.0,0.1751
1174.0,0.1178
1175.0,0.1726
1176.0,0.1938
1177.0,0.1833
1178.0,0.1323
1179.0,0.1954
1180.0,0.1701
1181.0,0.1758
1182.0,0.1153
1183.0,0.174
1184.0,0.1611
1185.0,0.1536
1186.0,0.1882
1187.0,0.1773
1188.0,0.1163
1189.0,0.1649
1190.0,0.1842
1191.0,0.1712
1192.0,0.1871
1193.0,0.1781
1194.0,0.1844
1195.0,0.1719
1196.0,0.1641
1197.0,0.1856
1198.0,0.1684
1199.0,0.138
1200.0,0.1757
1201.0,0.1676
1202.0,0.1681
1203.0,0.1659
1204.0,0.1427
1205.0,0.1735
1206.0,0.1943
1207.0,0.1669
1208.0,0.1659
1209.0,0.1696
1210.0,0.1779
1211.0,0.1675
1212.0,0.1628
1213.0,0.1866
1214.0,0.1678
1215.0,0.1643
1216.0,0.1862
1217.0,0.1803
1218.0,0.1846
1219.0,0.1818
1220.0,0.1849
1221.0,0.1873
1222.0,0.182
1223.0,0.1798
1224.0,0.1778
1225.0,0.186
1226.0,0.188
1227.0,0.1708
1228.0,0.1895
1229.0,0.188
1230.0,0.1843
1231.0,0.1913
1232.0,0.1901
1233.0,0.1813
1234.0,0.1916
1235.0,0.19
1236.0,0.1917
1237.0,0.188
1238.0,0.191
1239.0,0.1886
1240.0,0.1894
1241.0,0.1879
1242.0,0.188
1243.0,0.1865
1244.0,0.1877
1245.0,0.1886
1246.0,0.1875
1247.0,0.1866
1248.0,0.1862
1249.0,0.1871
1250.0,0.1858
1251.0,0.183
1252.0,0.1835
1253.0,0.1812
1254.0,0.1788
1255.0,0.1831
1256.0,0.1765
1257.0,0.1752
1258.0,0.1797
1259.0,0.1709
1260.0,0.1721
1261.0,0.1596
1262.0,0.1533
1263.0,0.1535
1264.0,0.1384
1265.0,0.1526
1266.0,0.1449
1267.0,0.1488
1268.0,0.1389
1269.0,0.07306
1270.0,0.1477
1271.0,0.1594
1272.0,0.1603
1273.0,0.1582
1274.0,0.1592
1275.0,0.162
1276.0,0.1641
1277.0,0.1659
1278.0,0.1702
1279.0,0.1686
1280.0,0.1666
1281.0,0.1594
1282.0,0.1545
1283.0,0.1662
1284.0,0.17
1285.0,0.1713
1286.0,0.1741
1287.0,0.1705
1288.0,0.1707
1289.0,0.1636
1290.0,0.1693
1291.0,0.172
1292.0,0.1584
1293.0,0.1679
1294.0,0.1666
1295.0,0.1648
1296.0,0.1553
1297.0,0.1454
1298.0,0.1597
1299.0,0.1684
1300.0,0.1373
1301.0,0.1425
1302.0,0.1593
1303.0,0.1361
1304.0,0.1112
1305.0,0.1557
1306.0,0.1553
1307.0,0.1154
1308.0,0.1371
1309.0,0.1534
1310.0,0.1129
1311.0,0.1303
1312.0,0.1261
1313.0,0.1226
1314.0,0.108
1315.0,0.1055
1316.0,0.1274
1317.0,0.12
1318.0,0.1325
1319.0,0.09775
1320.0,0.09594
1321.0,0.1138
1322.0,0.1138
1323.0,0.08095
1324.0,0.09608
1325.0,0.1251
1326.0,0.1044
1327.0,0.09871
1328.0,0.08352
1329.0,0.05861
1330.0,0.0784
1331.0,0.04276
1332.0,0.04559
1333.0,0.06437
1334.0,0.05724
1335.0,0.08039
1336.0,0.06102
1337.0,0.053
1338.0,0.05717
1339.0,0.05758
1340.0,0.05734
1341.0,0.05287
1342.0,0.05588
1343.0,0.03244
1344.0,0.0199
1345.0,0.0286
1346.0,0.01128
1347.0,0.01097
1348.0,0.0004297
1349.0,0.001759
1350.0,0.002005
1351.0,0.0003062
1352.0,4.681e-05
1353.0,1.462e-06
1354.0,7.246e-06
1355.0,1.94e-08
1356.0,6.987e-07
1357.0,1.067e-06
1358.0,2.402e-08
1359.0,1.33e-09
1360.0,8.144e-09
1361.0,2.105e-12
1362.0,3.986e-15
1363.0,7.84e-09
1364.0,3.388e-09
1365.0,9.903e-16
1366.0,4.223e-08
1367.0,2.182e-08
1368.0,6.273e-18
1369.0,1.242e-09
1370.0,4.38e-10
1371.0,1.783e-11
1372.0,1.226e-08
1373.0,4.237e-07
1374.0,2.914e-06
1375.0,4.911e-06
1376.0,6.687e-06
1377.0,2.839e-06
1378.0,3.1e-05
1379.0,1.201e-06
1380.0,1.311e-06
1381.0,2.882e-08
1382.0,9.925e-09
1383.0,1.181e-10
1384.0,1.203e-09
1385.0,1.449e-08
1386.0,6.805e-09
1387.0,2.226e-06
1388.0,5.026e-08
1389.0,1.228e-05
1390.0,1.021e-05
1391.0,6.487e-06
1392.0,3.953e-07
1393.0,2.551e-06
1394.0,6.547e-07
1395.0,3.391e-09
1396.0,3.493e-12
1397.0,8.732e-07
1398.0,3.273e-05
1399.0,2.135e-05
1400.0,1.077e-12
1401.0,7.124e-12
1402.0,0.0001102
1403.0,0.0001222
1404.0,3.508e-05
1405.0,1.214e-09
1406.0,7.369e-05
1407.0,8.24e-06
1408.0,6.292e-05
1409.0,1.512e-05
1410.0,1.604e-05
1411.0,0.0001104
1412.0,0.0001749
1413.0,0.002742
1414.0,1.331e-05
1415.0,5.528e-06
1416.0,0.006145
1417.0,0.00141
1418.0,0.001453
1419.0,0.0002114
1420.0,0.0008789
1421.0,0.001009
1422.0,0.008073
1423.0,0.001466
1424.0,0.002908
1425.0,0.003968
1426.0,0.005167
1427.0,0.01091
1428.0,0.0003828
1429.0,0.007363
1430.0,0.01468
1431.0,0.01667
1432.0,0.0002955
1433.0,0.009903
1434.0,0.0047
1435.0,0.003614
