interpolation:linear
wavelength,value
280.0,4.292e-22
280.5,5.993e-21
281.0,2.5300000000000003e-20
281.5,4.718e-19
282.0,2.865e-18
282.5,9.243e-18
283.0,3.423e-17
283.5,5.88e-17
284.0,1.09e-15
284.5,3.262e-15
285.0,9.546e-15
285.5,6.535e-14
286.0,2.891e-13
286.5,1.505e-12
287.0,4.698e-12
287.5,1.97e-11
288.0,6.92e-11
288.5,2.664e-10
289.0,8.665e-10
289.5,3.137e-09
290.0,9.952e-09
290.5,2.257e-08
291.0,5.456e-08
291.5,1.807e-07
292.0,4.231e-07
292.5,6.3e-07
293.0,1.451e-06
293.5,3.884e-06
294.0,6.533e-06
294.5,1.29e-05
295.0,2.346e-05
295.5,5.071e-05
296.0,9.146e-05
296.5,0.0001196
297.0,0.0001532
297.5,0.0003785
298.0,0.0005562
298.5,0.00053
299.0,0.001108
299.5,0.001676
300.0,0.00175
300.5,0.002403
301.0,0.003987
301.5,0.005874
302.0,0.004828
302.5,0.008885
303.0,0.01478
303.5,0.01774
304.0,0.01615
304.5,0.02219
305.0,0.03005
305.5,0.03209
306.0,0.03023
306.5,0.03601
307.0,0.04853
307.5,0.05896
308.0,0.06137
308.5,0.06937
309.0,0.06587
309.5,0.07084
310.0,0.06912
310.5,0.1103
311.0,0.1352
311.5,0.1291
312.0,0.1225
312.5,0.1439
313.0,0.1532
313.5,0.1512
314.0,0.1813
314.5,0.1521
315.0,0.1978
315.5,0.1699
316.0,0.1418
316.5,0.1958
317.0,0.2433
317.5,0.2559
318.0,0.1943
318.5,0.2294
319.0,0.2653
319.5,0.2251
320.0,0.2736
320.5,0.3252
321.0,0.2766
321.5,0.2638
322.0,0.2953
322.5,0.2561
323.0,0.247
323.5,0.2941
324.0,0.3414
324.5,0.3512
325.0,0.3087
325.5,0.3867
326.0,0.4685
326.5,0.4611
327.0,0.4623
327.5,0.45
328.0,0.4098
328.5,0.4188
329.0,0.4905
329.5,0.553
330.0,0.5606
330.5,0.4561
331.0,0.4672
331.5,0.4688
332.0,0.4973
332.5,0.4878
333.0,0.4886
333.5,0.448
334.0,0.4598
334.5,0.5224
335.0,0.4866
335.5,0.5681
336.0,0.3929
336.5,0.462
337.0,0.3813
337.5,0.4752
338.0,0.4582
338.5,0.5285
339.0,0.5228
339.5,0.5028
340.0,0.5909
340.5,0.5319
341.0,0.5188
341.5,0.4761
342.0,0.5687
342.5,0.5318
343.0,0.5849
343.5,0.5508
344.0,0.4067
344.5,0.4109
345.0,0.5433
345.5,0.5544
346.0,0.4709
346.5,0.533
347.0,0.5722
347.5,0.4625
348.0,0.527
348.5,0.5265
349.0,0.4882
349.5,0.4832
350.0,0.5975
350.5,0.6301
351.0,0.5628
351.5,0.5471
352.0,0.5873
352.5,0.4581
353.0,0.5767
353.5,0.6165
354.0,0.6398
354.5,0.6488
355.0,0.6466
355.5,0.5838
356.0,0.6107
356.5,0.5214
357.0,0.4308
357.5,0.5273
358.0,0.4178
358.5,0.357
359.0,0.4993
359.5,0.6363
360.0,0.6744
360.5,0.5389
361.0,0.4911
361.5,0.5651
362.0,0.4884
362.5,0.6757
363.0,0.6066
363.5,0.5585
364.0,0.6829
364.5,0.5836
365.0,0.5942
365.5,0.7456
366.0,0.7897
366.5,0.7418
367.0,0.7223
367.5,0.7494
368.0,0.6557
368.5,0.6615
369.0,0.7142
369.5,0.7611
370.0,0.8112
370.5,0.6294
371.0,0.6724
371.5,0.8411
372.0,0.5582
372.5,0.6692
373.0,0.6805
373.5,0.4427
374.0,0.6431
374.5,0.5325
375.0,0.5176
375.5,0.7727
376.0,0.6405
376.5,0.6637
377.0,0.7025
377.5,0.8217
378.0,0.8907
378.5,0.8419
379.0,0.6947
379.5,0.6346
380.0,0.6598
380.5,0.7989
381.0,0.8004
381.5,0.6343
382.0,0.5631
382.5,0.4799
383.0,0.4442
383.5,0.4277
384.0,0.4718
384.5,0.6938
385.0,0.6879
385.5,0.6405
386.0,0.5485
386.5,0.7203
387.0,0.5985
387.5,0.6722
388.0,0.6205
388.5,0.6133
389.0,0.662
389.5,0.8017
390.0,0.8044
390.5,0.7402
391.0,0.8712
391.5,0.8885
392.0,0.7483
392.5,0.6698
393.0,0.3726
393.5,0.2708
394.0,0.551
394.5,0.7004
395.0,0.8546
395.5,0.8681
396.0,0.7526
396.5,0.4398
397.0,0.33
397.5,0.6711
398.0,0.9399
398.5,0.9714
399.0,1.051
399.5,1.048
400.0,1.088
401.0,1.107
402.0,1.167
403.0,1.108
404.0,1.091
405.0,1.091
406.0,1.073
407.0,1.055
408.0,1.096
409.0,1.173
410.0,1.024
411.0,1.109
412.0,1.191
413.0,1.161
414.0,1.175
415.0,1.178
416.0,1.198
417.0,1.168
418.0,1.146
419.0,1.161
420.0,1.156
421.0,1.209
422.0,1.148
423.0,1.122
424.0,1.186
425.0,1.184
426.0,1.152
427.0,1.13
428.0,1.101
429.0,1.042
430.0,0.9119
431.0,0.904
432.0,1.167
433.0,1.173
434.0,1.089
435.0,1.137
436.0,1.281
437.0,1.263
438.0,1.149
439.0,1.189
440.0,1.227
441.0,1.271
442.0,1.362
443.0,1.327
444.0,1.356
445.0,1.326
446.0,1.265
447.0,1.367
448.0,1.389
449.0,1.393
450.0,1.431
451.0,1.484
452.0,1.43
453.0,1.344
454.0,1.403
455.0,1.411
456.0,1.444
457.0,1.468
458.0,1.419
459.0,1.411
460.0,1.415
461.0,1.447
462.0,1.458
463.0,1.448
464.0,1.423
465.0,1.404
466.0,1.417
467.0,1.391
468.0,1.408
469.0,1.415
470.0,1.37
471.0,1.368
472.0,1.441
473.0,1.423
474.0,1.426
475.0,1.438
476.0,1.396
477.0,1.401
478.0,1.44
479.0,1.43
480.0,1.432
481.0,1.458
482.0,1.465
483.0,1.446
484.0,1.416
485.0,1.348
486.0,1.178
487.0,1.234
488.0,1.354
489.0,1.358
490.0,1.429
491.0,1.403
492.0,1.325
493.0,1.368
494.0,1.382
495.0,1.394
496.0,1.402
497.0,1.424
498.0,1.357
499.0,1.375
500.0,1.335
501.0,1.311
502.0,1.294
503.0,1.348
504.0,1.318
505.0,1.362
506.0,1.406
507.0,1.337
508.0,1.295
509.0,1.33
510.0,1.322
511.0,1.357
512.0,1.371
513.0,1.298
514.0,1.289
515.0,1.276
516.0,1.273
517.0,1.131
518.0,1.189
519.0,1.247
520.0,1.292
521.0,1.305
522.0,1.306
523.0,1.283
524.0,1.329
525.0,1.346
526.0,1.286
527.0,1.212
528.0,1.283
529.0,1.353
530.0,1.334
531.0,1.354
532.0,1.307
533.0,1.269
534.0,1.306
535.0,1.334
536.0,1.346
537.0,1.293
538.0,1.315
539.0,1.304
540.0,1.251
541.0,1.26
542.0,1.3
543.0,1.285
544.0,1.308
545.0,1.304
546.0,1.311
547.0,1.309
548.0,1.293
549.0,1.297
550.0,1.312
551.0,1.296
552.0,1.305
553.0,1.282
554.0,1.313
555.0,1.316
556.0,1.299
557.0,1.259
558.0,1.25
559.0,1.227
560.0,1.243
561.0,1.259
562.0,1.251
563.0,1.286
564.0,1.251
565.0,1.241
566.0,1.223
567.0,1.247
568.0,1.238
569.0,1.212
570.0,1.211
571.0,1.203
572.0,1.234
573.0,1.248
574.0,1.244
575.0,1.222
576.0,1.21
577.0,1.223
578.0,1.204
579.0,1.207
580.0,1.228
581.0,1.232
582.0,1.254
583.0,1.255
584.0,1.265
585.0,1.234
586.0,1.209
587.0,1.236
588.0,1.211
589.0,1.081
590.0,1.13
591.0,1.191
592.0,1.178
593.0,1.192
594.0,1.185
595.0,1.159
596.0,1.198
597.0,1.187
598.0,1.181
599.0,1.181
600.0,1.181
601.0,1.17
602.0,1.162
603.0,1.181
604.0,1.2
605.0,1.194
606.0,1.188
607.0,1.199
608.0,1.185
609.0,1.186
610.0,1.177
611.0,1.183
612.0,1.179
613.0,1.164
614.0,1.147
615.0,1.172
616.0,1.133
617.0,1.13
618.0,1.173
619.0,1.161
620.0,1.169
621.0,1.17
622.0,1.157
623.0,1.14
624.0,1.12
625.0,1.118
626.0,1.134
627.0,1.148
628.0,1.091
629.0,1.128
630.0,1.102
631.0,1.121
632.0,1.106
633.0,1.137
634.0,1.124
635.0,1.141
636.0,1.125
637.0,1.142
638.0,1.152
639.0,1.138
640.0,1.126
641.0,1.125
642.0,1.119
643.0,1.134
644.0,1.13
645.0,1.132
646.0,1.108
647.0,1.1
648.0,1.101
649.0,1.08
650.0,1.079
651.0,1.125
652.0,1.085
653.0,1.11
654.0,1.097
655.0,1.059
656.0,0.9363
657.0,0.9612
658.0,1.075
659.0,1.082
660.0,1.086
661.0,1.094
662.0,1.097
663.0,1.075
664.0,1.086
665.0,1.085
666.0,1.086
667.0,1.084
668.0,1.084
669.0,1.1
670.0,1.095
671.0,1.094
672.0,1.085
673.0,1.101
674.0,1.097
675.0,1.086
676.0,1.093
677.0,1.082
678.0,1.085
679.0,1.068
680.0,1.076
681.0,1.069
682.0,1.067
683.0,1.065
684.0,1.06
685.0,1.069
686.0,1.063
687.0,0.7865
688.0,0.8822
689.0,0.8841
690.0,0.9143
691.0,0.9478
692.0,0.971
693.0,0.9644
694.0,0.9567
695.0,0.9865
696.0,0.988
697.0,1.036
698.0,1.02
699.0,1.004
700.0,0.9918
701.0,0.9842
702.0,0.988
703.0,0.9898
704.0,1.017
705.0,1.018
706.0,1.015
707.0,1.015
708.0,1.018
709.0,1.016
710.0,1.018
711.0,1.015
712.0,1.011
713.0,1.002
714.0,1.006
715.0,0.9768
716.0,0.9782
717.0,0.8781
718.0,0.8122
719.0,0.7474
720.0,0.7849
721.0,0.8476
722.0,0.9492
723.0,0.8944
724.0,0.8179
725.0,0.8091
726.0,0.8443
727.0,0.8497
728.0,0.8083
729.0,0.8277
730.0,0.8751
731.0,0.841
732.0,0.8882
733.0,0.9292
734.0,0.9483
735.0,0.9302
736.0,0.9288
737.0,0.9329
738.0,0.9402
739.0,0.9219
740.0,0.9437
741.0,0.933
742.0,0.9326
743.0,0.956
744.0,0.9524
745.0,0.952
746.0,0.9564
747.0,0.9583
748.0,0.9563
749.0,0.9453
750.0,0.9447
751.0,0.9351
752.0,0.939
753.0,0.9436
754.0,0.9458
755.0,0.9405
756.0,0.94
757.0,0.9413
758.0,0.9298
759.0,0.915
760.0,0.241
761.0,0.1489
762.0,0.5523
763.0,0.3305
764.0,0.4476
765.0,0.5527
766.0,0.6374
767.0,0.7647
768.0,0.852
769.0,0.8631
770.0,0.885
771.0,0.8888
772.0,0.8897
773.0,0.8956
774.0,0.8911
775.0,0.8841
776.0,0.8948
777.0,0.883
778.0,0.8776
779.0,0.8784
780.0,0.8734
781.0,0.8742
782.0,0.8796
783.0,0.8642
784.0,0.8683
785.0,0.8621
786.0,0.8718
787.0,0.8597
788.0,0.8505
789.0,0.8506
790.0,0.8326
791.0,0.8354
792.0,0.8287
793.0,0.8158
794.0,0.8249
795.0,0.84
796.0,0.8205
797.0,0.8216
798.0,0.8397
799.0,0.8355
800.0,0.8225
801.0,0.8213
802.0,0.8188
803.0,0.8133
804.0,0.8138
805.0,0.8094
806.0,0.8292
807.0,0.8199
808.0,0.8203
809.0,0.8071
810.0,0.8022
811.0,0.8061
812.0,0.7874
813.0,0.7739
814.0,0.696
815.0,0.6913
816.0,0.6457
817.0,0.6556
818.0,0.6345
819.0,0.6959
820.0,0.6607
821.0,0.7542
822.0,0.7357
823.0,0.5297
824.0,0.7204
825.0,0.7421
826.0,0.7193
827.0,0.7533
828.0,0.655
829.0,0.7139
830.0,0.7063
831.0,0.7081
832.0,0.6894
833.0,0.7249
834.0,0.7047
835.0,0.7626
836.0,0.7371
837.0,0.7642
838.0,0.7436
839.0,0.752
840.0,0.7677
841.0,0.7582
842.0,0.7577
843.0,0.7552
844.0,0.7458
845.0,0.7694
846.0,0.7657
847.0,0.7508
848.0,0.7471
849.0,0.7259
850.0,0.6953
851.0,0.7372
852.0,0.7315
853.0,0.7034
854.0,0.608
855.0,0.667
856.0,0.7293
857.0,0.7449
858.0,0.7397
859.0,0.74
860.0,0.741
861.0,0.737
862.0,0.7485
863.0,0.7662
864.0,0.7278
865.0,0.7214
866.0,0.6486
867.0,0.6769
868.0,0.7365
869.0,0.7212
870.0,0.7417
871.0,0.7316
872.0,0.729
873.0,0.7275
874.0,0.7189
875.0,0.7043
876.0,0.7117
877.0,0.7188
878.0,0.7268
879.0,0.7156
880.0,0.7002
881.0,0.6902
882.0,0.7053
883.0,0.7071
884.0,0.704
885.0,0.7093
886.0,0.6776
887.0,0.6836
888.0,0.6945
889.0,0.7009
890.0,0.6967
891.0,0.6947
892.0,0.6767
893.0,0.6583
894.0,0.6403
895.0,0.6116
896.0,0.5793
897.0,0.5069
898.0,0.5477
899.0,0.4281
900.0,0.5553
901.0,0.4481
902.0,0.5108
903.0,0.5207
904.0,0.6355
905.0,0.6166
906.0,0.5795
907.0,0.4844
908.0,0.4922
909.0,0.5265
910.0,0.4774
911.0,0.5018
912.0,0.5217
913.0,0.485
914.0,0.4788
915.0,0.5177
916.0,0.4421
917.0,0.5477
918.0,0.4535
919.0,0.5548
920.0,0.5546
921.0,0.5753
922.0,0.5227
923.0,0.5553
924.0,0.5361
925.0,0.5247
926.0,0.5304
927.0,0.5857
928.0,0.4528
929.0,0.4195
930.0,0.3399
931.0,0.3202
932.0,0.2409
933.0,0.2016
934.0,0.1229
935.0,0.2015
936.0,0.1335
937.0,0.1364
938.0,0.1646
939.0,0.3103
940.0,0.3662
941.0,0.2861
942.0,0.3249
943.0,0.2214
944.0,0.2264
945.0,0.2933
946.0,0.1598
947.0,0.2973
948.0,0.2202
949.0,0.3874
950.0,0.1245
951.0,0.3797
952.0,0.218
953.0,0.2724
954.0,0.3239
955.0,0.2743
956.0,0.2619
957.0,0.2198
958.0,0.3565
959.0,0.2939
960.0,0.3291
961.0,0.3612
962.0,0.3429
963.0,0.3882
964.0,0.3581
965.0,0.3858
966.0,0.3877
967.0,0.3867
968.0,0.4944
969.0,0.518
970.0,0.4792
971.0,0.5381
972.0,0.5167
973.0,0.4604
974.0,0.4386
975.0,0.451
976.0,0.4338
977.0,0.4828
978.0,0.4632
979.0,0.4817
980.0,0.4552
981.0,0.5344
982.0,0.5148
983.0,0.4965
984.0,0.5465
985.0,0.5127
986.0,0.5536
987.0,0.5455
988.0,0.5445
989.0,0.5504
990.0,0.541
991.0,0.5524
992.0,0.5553
993.0,0.5456
994.0,0.5549
995.0,0.5538
996.0,0.5517
997.0,0.5523
998.0,0.5499
999.0,0.5478
1000.0,0.5445
1001.0,0.5506
1002.0,0.538
1003.0,0.5411
1004.0,0.5285
1005.0,0.5082
1006.0,0.5285
1007.0,0.5395
1008.0,0.537
1009.0,0.5347
1010.0,0.5327
1011.0,0.5367
1012.0,0.5325
1013.0,0.5352
1014.0,0.5315
1015.0,0.5281
1016.0,0.5257
1017.0,0.5272
1018.0,0.5249
1019.0,0.5146
1020.0,0.5223
1021.0,0.5214
1022.0,0.5177
1023.0,0.5232
1024.0,0.5174
1025.0,0.5225
1026.0,0.5206
1027.0,0.5193
1028.0,0.5183
1029.0,0.5123
1030.0,0.5154
1031.0,0.5135
1032.0,0.5119
1033.0,0.5042
1034.0,0.5042
1035.0,0.5058
1036.0,0.5085
1037.0,0.5002
1038.0,0.5024
1039.0,0.5022
1040.0,0.5002
1041.0,0.5023
1042.0,0.4988
1043.0,0.4972
1044.0,0.499
1045.0,0.4923
1046.0,0.487
1047.0,0.4914
1048.0,0.4942
1049.0,0.4925
1050.0,0.4903
1051.0,0.4897
1052.0,0.4878
1053.0,0.484
1054.0,0.4852
1055.0,0.4856
1056.0,0.4841
1057.0,0.4827
1058.0,0.471
1059.0,0.4716
1060.0,0.471
1061.0,0.4705
1062.0,0.4731
1063.0,0.4686
1064.0,0.4741
1065.0,0.471
1066.0,0.4614
1067.0,0.4675
1068.0,0.4575
1069.0,0.4432
1070.0,0.4585
1071.0,0.4648
1072.0,0.4601
1073.0,0.4533
1074.0,0.4641
1075.0,0.4435
1076.0,0.4638
1077.0,0.4571
1078.0,0.449
1079.0,0.456
1080.0,0.4501
1081.0,0.4369
1082.0,0.4416
1083.0,0.4424
1084.0,0.4366
1085.0,0.4508
1086.0,0.4158
1087.0,0.4258
1088.0,0.4424
1089.0,0.4314
1090.0,0.4238
1091.0,0.4417
1092.0,0.44
1093.0,0.3811
1094.0,0.4035
1095.0,0.3958
1096.0,0.3814
1097.0,0.4297
1098.0,0.3762
1099.0,0.3912
1100.0,0.3674
1101.0,0.3708
1102.0,0.3563
1103.0,0.3545
1104.0,0.3548
1105.0,0.383
1106.0,0.3069
1107.0,0.3665
1108.0,0.3191
1109.0,0.318
1110.0,0.3643
1111.0,0.2585
1112.0,0.3149
1113.0,0.2125
1114.0,0.236
1115.0,0.196
1116.0,0.1641
1117.0,0.06905
1118.0,0.1756
1119.0,0.09393
1120.0,0.1183
1121.0,0.1527
1122.0,0.07025
1123.0,0.1067
1124.0,0.09017
1125.0,0.116
1126.0,0.04642
1127.0,0.1303
1128.0,0.08441
1129.0,0.0885
1130.0,0.06126
1131.0,0.2322
1132.0,0.185
1133.0,0.1251
1134.0,0.03719
1135.0,0.01371
1136.0,0.1072
1137.0,0.2302
1138.0,0.1641
1139.0,0.2301
1140.0,0.1978
1141.0,0.1559
1142.0,0.1762
1143.0,0.2441
1144.0,0.09294
1145.0,0.1204
1146.0,0.13
1147.0,0.05213
1148.0,0.2114
1149.0,0.1734
1150.0,0.09965
1151.0,0.1629
1152.0,0.1952
1153.0,0.1862
1154.0,0.1182
1155.0,0.2402
1156.0,0.2191
1157.0,0.2418
1158.0,0.239
1159.0,0.254
1160.0,0.2217
1161.0,0.2646
1162.0,0.2666
1163.0,0.3458
1164.0,0.3019
1165.0,0.2896
1166.0,0.2843
1167.0,0.307
1168.0,0.3114
1169.0,0.3169
1170.0,0.3403
1171.0,0.3325
1172.0,0.3361
1173.0,0.3396
1174.0,0.2541
1175.0,0.33
1176.0,0.3573
1177.0,0.3465
1178.0,0.2691
1179.0,0.3599
1180.0,0.3274
1181.0,0.3372
1182.0,0.2423
1183.0,0.3307
1184.0,0.3131
1185.0,0.3048
1186.0,0.3521
1187.0,0.3383
1188.0,0.2472
1189.0,0.3158
1190.0,0.3441
1191.0,0.3316
1192.0,0.3484
1193.0,0.3356
1194.0,0.3447
1195.0,0.3294
1196.0,0.3194
1197.0,0.343
1198.0,0.3165
1199.0,0.277
1200.0,0.3317
1201.0,0.3225
1202.0,0.3191
1203.0,0.3166
1204.0,0.2813
1205.0,0.3242
1206.0,0.3537
1207.0,0.319
1208.0,0.3117
1209.0,0.3175
1210.0,0.329
1211.0,0.3164
1212.0,0.3158
1213.0,0.3437
1214.0,0.3217
1215.0,0.3165
1216.0,0.3425
1217.0,0.335
1218.0,0.3399
1219.0,0.3364
1220.0,0.34
1221.0,0.3426
1222.0,0.3346
1223.0,0.3321
1224.0,0.3311
1225.0,0.3404
1226.0,0.3418
1227.0,0.3192
1228.0,0.3427
1229.0,0.3418
1230.0,0.3367
1231.0,0.3438
1232.0,0.3419
1233.0,0.3332
1234.0,0.3429
1235.0,0.3411
1236.0,0.3433
1237.0,0.3397
1238.0,0.3421
1239.0,0.3377
1240.0,0.3389
1241.0,0.338
1242.0,0.3366
1243.0,0.3338
1244.0,0.3365
1245.0,0.3377
1246.0,0.3357
1247.0,0.3347
1248.0,0.3348
1249.0,0.3355
1250.0,0.3337
1251.0,0.3299
1252.0,0.3294
1253.0,0.3278
1254.0,0.3253
1255.0,0.3293
1256.0,0.322
1257.0,0.3206
1258.0,0.3251
1259.0,0.3163
1260.0,0.3176
1261.0,0.3037
1262.0,0.2966
1263.0,0.2973
1264.0,0.2792
1265.0,0.2953
1266.0,0.287
1267.0,0.29
1268.0,0.2782
1269.0,0.1945
1270.0,0.2898
1271.0,0.3022
1272.0,0.3027
1273.0,0.2999
1274.0,0.3003
1275.0,0.3039
1276.0,0.3061
1277.0,0.3073
1278.0,0.3116
1279.0,0.3089
1280.0,0.3049
1281.0,0.2902
1282.0,0.2785
1283.0,0.3001
1284.0,0.3076
1285.0,0.3094
1286.0,0.3129
1287.0,0.3093
1288.0,0.3089
1289.0,0.3015
1290.0,0.306
1291.0,0.3099
1292.0,0.2956
1293.0,0.305
1294.0,0.3031
1295.0,0.3027
1296.0,0.2919
1297.0,0.2785
1298.0,0.2951
1299.0,0.3049
1300.0,0.2662
1301.0,0.2727
1302.0,0.294
1303.0,0.2619
1304.0,0.2311
1305.0,0.2886
1306.0,0.2891
1307.0,0.2333
1308.0,0.261
1309.0,0.2874
1310.0,0.2293
1311.0,0.252
1312.0,0.2464
1313.0,0.2429
1314.0,0.2202
1315.0,0.219
1316.0,0.2493
1317.0,0.237
1318.0,0.2544
1319.0,0.2081
1320.0,0.1996
1321.0,0.2293
1322.0,0.2329
1323.0,0.183
1324.0,0.2041
1325.0,0.2461
1326.0,0.2161
1327.0,0.2074
1328.0,0.1813
1329.0,0.1427
1330.0,0.1824
1331.0,0.1182
1332.0,0.1192
1333.0,0.1638
1334.0,0.1355
1335.0,0.1822
1336.0,0.1481
1337.0,0.1335
1338.0,0.1441
1339.0,0.1424
1340.0,0.1365
1341.0,0.1379
1342.0,0.1445
1343.0,0.108
1344.0,0.06448
1345.0,0.09171
1346.0,0.05271
1347.0,0.05479
1348.0,0.005176
1349.0,0.01659
1350.0,0.01591
1351.0,0.005389
1352.0,0.002031
1353.0,0.0001564
1354.0,0.0004202
1355.0,7.569e-06
1356.0,7.923e-05
1357.0,0.0001189
1358.0,8.681e-06
1359.0,1.955e-06
1360.0,4.888e-06
1361.0,1.946e-08
1362.0,9.59e-11
1363.0,7.532e-06
1364.0,3.364e-06
1365.0,6.481e-11
1366.0,2.806e-05
1367.0,1.082e-05
1368.0,1.882e-12
1369.0,1.317e-06
1370.0,8.272e-07
1371.0,6.54e-08
1372.0,6.005e-06
1373.0,7.972e-05
1374.0,0.0002809
1375.0,0.000503
1376.0,0.0003733
1377.0,0.0001832
1378.0,0.001536
1379.0,7.858e-05
1380.0,0.0001319
1381.0,4.221e-06
1382.0,5.79e-06
1383.0,1.138e-07
1384.0,1.63e-06
1385.0,4.217e-06
1386.0,6.065e-06
1387.0,0.0003339
1388.0,7.155e-06
1389.0,0.0008525
1390.0,0.0007289
1391.0,0.000524
1392.0,3.875e-05
1393.0,0.0001749
1394.0,0.000137
1395.0,1.463e-06
1396.0,2.381e-08
1397.0,7.822e-05
1398.0,0.001759
1399.0,0.00112
1400.0,1.414e-08
1401.0,3.796e-08
1402.0,0.002194
1403.0,0.00293
1404.0,0.0009207
1405.0,8.8e-07
1406.0,0.002646
1407.0,0.0002262
1408.0,0.002133
1409.0,0.0008761
1410.0,0.0006339
1411.0,0.00255
1412.0,0.003126
1413.0,0.0236
1414.0,0.0004899
1415.0,0.0002605
1416.0,0.03323
1417.0,0.01211
1418.0,0.01385
1419.0,0.002263
1420.0,0.00857
1421.0,0.009453
1422.0,0.04271
1423.0,0.008871
1424.0,0.01613
1425.0,0.02434
1426.0,0.02588
1427.0,0.04346
1428.0,0.004991
1429.0,0.03427
1430.0,0.05409
1431.0,0.05833
1432.0,0.003993
1433.0,0.03867
1434.0,0.02047
1435.0,0.02315
1436.0,0.04033
1437.0,0.03097
1438.0,0.01431
1439.0,0.05291
1440.0,0.03992
1441.0,0.03244
1442.0,0.03547
1443.0,0.04149
1444.0,0.05625
1445.0,0.04641
1446.0,0.02163
1447.0,0.03406
1448.0,0.0976
1449.0,0.08716
1450.0,0.02519
1451.0,0.01077
1452.0,0.05474
1453.0,0.07043
1454.0,0.1127
1455.0,0.05621
1456.0,0.07682
1457.0,0.0981
1458.0,0.111
1459.0,0.132
1460.0,0.07128
1461.0,0.07643
