interpolation:linear
wavelength,value
280.0,1.791e-21
280.5,5.689e-20
281.0,3.015e-19
281.5,4.434e-19
282.0,1.019e-18
282.5,2.597e-18
283.0,8.275e-18
283.5,1.349e-17
284.0,2.185e-16
284.5,6.311e-16
285.0,1.351e-15
285.5,6.483e-15
286.0,2.586e-14
286.5,1.139e-13
287.0,3.225e-13
287.5,1.222e-12
288.0,3.485e-12
288.5,1.122e-11
289.0,3.112e-11
289.5,9.672e-11
290.0,2.73e-10
290.5,5.629e-10
291.0,1.22e-09
291.5,3.533e-09
292.0,7.221e-09
292.5,1.066e-08
293.0,2.435e-08
293.5,6.437e-08
294.0,1.066e-07
294.5,1.386e-07
295.0,2.475e-07
295.5,6.065e-07
296.0,1.171e-06
296.5,1.705e-06
297.0,2.394e-06
297.5,6.839e-06
298.0,1.146e-05
298.5,1.214e-05
299.0,2.827e-05
299.5,5.215e-05
300.0,6.124e-05
300.5,9.542e-05
301.0,0.0001972
301.5,0.0003635
302.0,0.00034
302.5,0.0006774
303.0,0.001248
303.5,0.0016
304.0,0.001523
304.5,0.002349
305.0,0.003727
305.5,0.004389
306.0,0.004295
306.5,0.005443
307.0,0.008388
307.5,0.01156
308.0,0.01228
308.5,0.01476
309.0,0.01465
309.5,0.01711
310.0,0.01736
310.5,0.02825
311.0,0.03574
311.5,0.03462
312.0,0.0352
312.5,0.0433
313.0,0.04724
313.5,0.04565
314.0,0.05782
314.5,0.05214
315.0,0.06874
315.5,0.05706
316.0,0.05051
316.5,0.07337
317.0,0.0911
317.5,0.09452
318.0,0.07432
318.5,0.09364
319.0,0.1119
319.5,0.09023
320.0,0.1089
320.5,0.1382
321.0,0.1247
321.5,0.1197
322.0,0.1259
322.5,0.1097
323.0,0.1102
323.5,0.1365
324.0,0.1596
324.5,0.1615
325.0,0.139
325.5,0.18
326.0,0.2206
326.5,0.2218
327.0,0.2208
327.5,0.2129
328.0,0.1886
328.5,0.1996
329.0,0.2403
329.5,0.2732
330.0,0.2754
330.5,0.2196
331.0,0.2235
331.5,0.2279
332.0,0.2473
332.5,0.2452
333.0,0.2442
333.5,0.2204
334.0,0.2257
334.5,0.2615
335.0,0.2463
335.5,0.2878
336.0,0.1992
336.5,0.2331
337.0,0.191
337.5,0.2375
338.0,0.2326
338.5,0.2687
339.0,0.266
339.5,0.256
340.0,0.3008
340.5,0.2713
341.0,0.2647
341.5,0.2432
342.0,0.2908
342.5,0.2721
343.0,0.2993
343.5,0.2819
344.0,0.2084
344.5,0.2105
345.0,0.2788
345.5,0.2848
346.0,0.2422
346.5,0.2743
347.0,0.2946
347.5,0.2382
348.0,0.2717
348.5,0.2717
349.0,0.2522
349.5,0.2498
350.0,0.3091
350.5,0.3262
351.0,0.2914
351.5,0.2832
352.0,0.3044
352.5,0.2377
353.0,0.2995
353.5,0.3204
354.0,0.3327
354.5,0.3375
355.0,0.3365
355.5,0.3041
356.0,0.3183
356.5,0.2719
357.0,0.2247
357.5,0.2751
358.0,0.2181
358.5,0.1864
359.0,0.2608
359.5,0.3325
360.0,0.3525
360.5,0.2819
361.0,0.2571
361.5,0.2962
362.0,0.2563
362.5,0.3549
363.0,0.319
363.5,0.2939
364.0,0.3597
364.5,0.3075
365.0,0.3133
365.5,0.3934
366.0,0.417
366.5,0.392
367.0,0.3819
367.5,0.3964
368.0,0.3471
368.5,0.3503
369.0,0.3785
369.5,0.4036
370.0,0.4304
370.5,0.3342
371.0,0.3572
371.5,0.4471
372.0,0.2968
372.5,0.356
373.0,0.3623
373.5,0.2358
374.0,0.3428
374.5,0.284
375.0,0.2762
375.5,0.4125
376.0,0.342
376.5,0.3545
377.0,0.3755
377.5,0.4395
378.0,0.4765
378.5,0.4505
379.0,0.3719
379.5,0.3398
380.0,0.3534
380.5,0.4282
381.0,0.4293
381.5,0.3405
382.0,0.3025
382.5,0.258
383.0,0.239
383.5,0.2303
384.0,0.2541
384.5,0.3739
385.0,0.3709
385.5,0.3456
386.0,0.2961
386.5,0.3892
387.0,0.3235
387.5,0.3634
388.0,0.3357
388.5,0.3319
389.0,0.3584
389.5,0.4343
390.0,0.436
390.5,0.4014
391.0,0.4727
391.5,0.4823
392.0,0.4063
392.5,0.3639
393.0,0.2026
393.5,0.1473
394.0,0.2999
394.5,0.3814
395.0,0.4655
395.5,0.473
396.0,0.4102
396.5,0.2399
397.0,0.1801
397.5,0.3664
398.0,0.5132
398.5,0.5307
399.0,0.5749
399.5,0.5732
400.0,0.5953
401.0,0.603
402.0,0.6366
403.0,0.6052
404.0,0.5962
405.0,0.5965
406.0,0.5872
407.0,0.5781
408.0,0.6009
409.0,0.6435
410.0,0.5626
411.0,0.6098
412.0,0.6554
413.0,0.6394
414.0,0.6476
415.0,0.6497
416.0,0.6615
417.0,0.6455
418.0,0.6339
419.0,0.6425
420.0,0.64
421.0,0.6698
422.0,0.6369
423.0,0.6225
424.0,0.6586
425.0,0.6577
426.0,0.6411
427.0,0.6294
428.0,0.6133
429.0,0.5813
430.0,0.509
431.0,0.5045
432.0,0.6518
433.0,0.6557
434.0,0.609
435.0,0.6361
436.0,0.7172
437.0,0.708
438.0,0.645
439.0,0.6669
440.0,0.6885
441.0,0.7138
442.0,0.7657
443.0,0.7458
444.0,0.7623
445.0,0.7459
446.0,0.7123
447.0,0.7705
448.0,0.7824
449.0,0.7861
450.0,0.8083
451.0,0.8385
452.0,0.8081
453.0,0.7603
454.0,0.7941
455.0,0.7991
456.0,0.8183
457.0,0.832
458.0,0.8035
459.0,0.7996
460.0,0.8017
461.0,0.8203
462.0,0.8269
463.0,0.8213
464.0,0.8082
465.0,0.7984
466.0,0.8064
467.0,0.7916
468.0,0.801
469.0,0.8053
470.0,0.7796
471.0,0.7787
472.0,0.8206
473.0,0.81
474.0,0.8109
475.0,0.8176
476.0,0.7928
477.0,0.7948
478.0,0.817
479.0,0.8123
480.0,0.8141
481.0,0.8297
482.0,0.8344
483.0,0.8247
484.0,0.808
485.0,0.7701
486.0,0.6735
487.0,0.706
488.0,0.7746
489.0,0.7769
490.0,0.8175
491.0,0.8036
492.0,0.759
493.0,0.7839
494.0,0.7918
495.0,0.7986
496.0,0.8036
497.0,0.816
498.0,0.7779
499.0,0.7877
500.0,0.7646
501.0,0.7503
502.0,0.7394
503.0,0.769
504.0,0.7482
505.0,0.7761
506.0,0.8011
507.0,0.7624
508.0,0.7391
509.0,0.7601
510.0,0.7564
511.0,0.7769
512.0,0.7855
513.0,0.7436
514.0,0.7386
515.0,0.7313
516.0,0.7294
517.0,0.6482
518.0,0.6815
519.0,0.7148
520.0,0.7407
521.0,0.7477
522.0,0.7483
523.0,0.7347
524.0,0.7608
525.0,0.7694
526.0,0.7349
527.0,0.6922
528.0,0.7319
529.0,0.7713
530.0,0.7601
531.0,0.7713
532.0,0.7447
533.0,0.7229
534.0,0.7444
535.0,0.7608
536.0,0.7679
537.0,0.7378
538.0,0.7509
539.0,0.7446
540.0,0.7138
541.0,0.7181
542.0,0.7404
543.0,0.733
544.0,0.7453
545.0,0.7431
546.0,0.7461
547.0,0.746
548.0,0.7372
549.0,0.7396
550.0,0.7484
551.0,0.7394
552.0,0.7445
553.0,0.7311
554.0,0.7486
555.0,0.75
556.0,0.7402
557.0,0.7171
558.0,0.7115
559.0,0.6979
560.0,0.7065
561.0,0.7155
562.0,0.7101
563.0,0.7292
564.0,0.7091
565.0,0.7027
566.0,0.6922
567.0,0.7051
568.0,0.6981
569.0,0.6801
570.0,0.6801
571.0,0.6764
572.0,0.6917
573.0,0.6989
574.0,0.6965
575.0,0.6831
576.0,0.6769
577.0,0.6844
578.0,0.6746
579.0,0.6779
580.0,0.6918
581.0,0.6961
582.0,0.71
583.0,0.7123
584.0,0.7188
585.0,0.7015
586.0,0.6871
587.0,0.7017
588.0,0.6829
589.0,0.6016
590.0,0.6294
591.0,0.6681
592.0,0.6585
593.0,0.6697
594.0,0.6644
595.0,0.6468
596.0,0.6751
597.0,0.6671
598.0,0.6662
599.0,0.6672
600.0,0.6689
601.0,0.664
602.0,0.6595
603.0,0.6707
604.0,0.682
605.0,0.6786
606.0,0.6761
607.0,0.6831
608.0,0.6759
609.0,0.6773
610.0,0.6728
611.0,0.6765
612.0,0.6747
613.0,0.6663
614.0,0.6575
615.0,0.672
616.0,0.6501
617.0,0.6489
618.0,0.6741
619.0,0.6673
620.0,0.6715
621.0,0.672
622.0,0.6639
623.0,0.6535
624.0,0.6425
625.0,0.6411
626.0,0.6506
627.0,0.6572
628.0,0.606
629.0,0.639
630.0,0.624
631.0,0.6407
632.0,0.6335
633.0,0.6539
634.0,0.6484
635.0,0.6589
636.0,0.6507
637.0,0.6617
638.0,0.6686
639.0,0.6615
640.0,0.6554
641.0,0.6553
642.0,0.6526
643.0,0.6614
644.0,0.6596
645.0,0.6605
646.0,0.6442
647.0,0.6344
648.0,0.6349
649.0,0.6224
650.0,0.6281
651.0,0.6559
652.0,0.6257
653.0,0.6473
654.0,0.6404
655.0,0.6151
656.0,0.5461
657.0,0.561
658.0,0.6295
659.0,0.6344
660.0,0.6373
661.0,0.6418
662.0,0.6426
663.0,0.6301
664.0,0.6383
665.0,0.6394
666.0,0.6402
667.0,0.6399
668.0,0.6405
669.0,0.6506
670.0,0.6479
671.0,0.6479
672.0,0.6425
673.0,0.6523
674.0,0.65
675.0,0.6442
676.0,0.6487
677.0,0.6424
678.0,0.6443
679.0,0.634
680.0,0.6391
681.0,0.635
682.0,0.6342
683.0,0.633
684.0,0.6298
685.0,0.6353
686.0,0.6314
687.0,0.386
688.0,0.4677
689.0,0.4699
690.0,0.4982
691.0,0.5304
692.0,0.5547
693.0,0.5497
694.0,0.5454
695.0,0.5721
696.0,0.573
697.0,0.6131
698.0,0.6035
699.0,0.5857
700.0,0.5785
701.0,0.5715
702.0,0.5767
703.0,0.5779
704.0,0.5984
705.0,0.5993
706.0,0.5996
707.0,0.6003
708.0,0.6015
709.0,0.6037
710.0,0.603
711.0,0.6026
712.0,0.6014
713.0,0.5948
714.0,0.5972
715.0,0.577
716.0,0.577
717.0,0.4883
718.0,0.447
719.0,0.4084
720.0,0.4267
721.0,0.4783
722.0,0.5549
723.0,0.5126
724.0,0.4572
725.0,0.4482
726.0,0.4698
727.0,0.4795
728.0,0.4465
729.0,0.4676
730.0,0.4943
731.0,0.4719
732.0,0.5093
733.0,0.5433
734.0,0.5575
735.0,0.5453
736.0,0.5446
737.0,0.5467
738.0,0.5582
739.0,0.5472
740.0,0.5624
741.0,0.5573
742.0,0.5584
743.0,0.5728
744.0,0.5715
745.0,0.5719
746.0,0.5745
747.0,0.5759
748.0,0.5747
749.0,0.5682
750.0,0.5679
751.0,0.5621
752.0,0.5646
753.0,0.5675
754.0,0.5688
755.0,0.5655
756.0,0.5653
757.0,0.5661
758.0,0.559
759.0,0.5458
760.0,0.06302
761.0,0.02899
762.0,0.2442
763.0,0.1052
764.0,0.1723
765.0,0.2441
766.0,0.3155
767.0,0.415
768.0,0.4931
769.0,0.5068
770.0,0.5277
771.0,0.5336
772.0,0.5352
773.0,0.5391
774.0,0.5366
775.0,0.5326
776.0,0.5392
777.0,0.5321
778.0,0.5288
779.0,0.5293
780.0,0.5263
781.0,0.5269
782.0,0.5302
783.0,0.521
784.0,0.5236
785.0,0.5196
786.0,0.5252
787.0,0.5146
788.0,0.5075
789.0,0.5071
790.0,0.4915
791.0,0.4978
792.0,0.4945
793.0,0.4862
794.0,0.4967
795.0,0.5046
796.0,0.4862
797.0,0.4866
798.0,0.5036
799.0,0.4999
800.0,0.4905
801.0,0.4883
802.0,0.4869
803.0,0.4828
804.0,0.4838
805.0,0.4831
806.0,0.4981
807.0,0.4918
808.0,0.4924
809.0,0.4821
810.0,0.4774
811.0,0.4764
812.0,0.4609
813.0,0.4502
814.0,0.39
815.0,0.3879
816.0,0.3603
817.0,0.3675
818.0,0.3523
819.0,0.3992
820.0,0.374
821.0,0.4446
822.0,0.4307
823.0,0.2813
824.0,0.4154
825.0,0.4368
826.0,0.4178
827.0,0.4434
828.0,0.3689
829.0,0.4158
830.0,0.4097
831.0,0.4112
832.0,0.3973
833.0,0.4262
834.0,0.4088
835.0,0.4542
836.0,0.4314
837.0,0.4557
838.0,0.4398
839.0,0.4491
840.0,0.4594
841.0,0.4522
842.0,0.4543
843.0,0.4552
844.0,0.4482
845.0,0.4642
846.0,0.4623
847.0,0.4541
848.0,0.4508
849.0,0.4379
850.0,0.4196
851.0,0.4437
852.0,0.4409
853.0,0.4248
854.0,0.3664
855.0,0.4031
856.0,0.4403
857.0,0.4505
858.0,0.447
859.0,0.4476
860.0,0.4486
861.0,0.4461
862.0,0.4532
863.0,0.4639
864.0,0.4407
865.0,0.4369
866.0,0.3928
867.0,0.41
868.0,0.4461
869.0,0.4369
870.0,0.4494
871.0,0.4433
872.0,0.4417
873.0,0.4409
874.0,0.4356
875.0,0.4268
876.0,0.4312
877.0,0.4356
878.0,0.4402
879.0,0.4335
880.0,0.4242
881.0,0.4175
882.0,0.4265
883.0,0.4281
884.0,0.426
885.0,0.4292
886.0,0.4081
887.0,0.4132
888.0,0.4188
889.0,0.4244
890.0,0.4198
891.0,0.4197
892.0,0.4062
893.0,0.392
894.0,0.3753
895.0,0.3508
896.0,0.3292
897.0,0.2782
898.0,0.306
899.0,0.2274
900.0,0.3163
901.0,0.2383
902.0,0.287
903.0,0.2874
904.0,0.3724
905.0,0.3581
906.0,0.3339
907.0,0.264
908.0,0.2705
909.0,0.2961
910.0,0.256
911.0,0.2768
912.0,0.2903
913.0,0.2595
914.0,0.2584
915.0,0.2801
916.0,0.2359
917.0,0.3054
918.0,0.2415
919.0,0.3128
920.0,0.3198
921.0,0.3328
922.0,0.2932
923.0,0.3218
924.0,0.2997
925.0,0.2933
926.0,0.2961
927.0,0.3358
928.0,0.2339
929.0,0.2102
930.0,0.1599
931.0,0.1521
932.0,0.1041
933.0,0.08198
934.0,0.03956
935.0,0.08602
936.0,0.05021
937.0,0.05059
938.0,0.06354
939.0,0.1472
940.0,0.1811
941.0,0.1315
942.0,0.1553
943.0,0.09809
944.0,0.1072
945.0,0.1366
946.0,0.06416
947.0,0.1358
948.0,0.09912
949.0,0.1871
950.0,0.04422
951.0,0.1852
952.0,0.09253
953.0,0.1241
954.0,0.1574
955.0,0.1261
956.0,0.1262
957.0,0.09212
958.0,0.1855
959.0,0.1413
960.0,0.1584
961.0,0.1826
962.0,0.1723
963.0,0.2028
964.0,0.1845
965.0,0.2023
966.0,0.2014
967.0,0.2001
968.0,0.2837
969.0,0.2945
970.0,0.2687
971.0,0.3144
972.0,0.2994
973.0,0.2538
974.0,0.2401
975.0,0.2518
976.0,0.2353
977.0,0.2753
978.0,0.2584
979.0,0.2727
980.0,0.2552
981.0,0.3128
982.0,0.2966
983.0,0.2833
984.0,0.3253
985.0,0.2954
986.0,0.3328
987.0,0.3241
988.0,0.3237
989.0,0.333
990.0,0.3217
991.0,0.3337
992.0,0.3359
993.0,0.3263
994.0,0.336
995.0,0.3359
996.0,0.3341
997.0,0.3347
998.0,0.333
999.0,0.3319
1000.0,0.3291
1001.0,0.3337
1002.0,0.3225
1003.0,0.3277
1004.0,0.3191
1005.0,0.3082
1006.0,0.3199
1007.0,0.3268
1008.0,0.3247
1009.0,0.3226
1010.0,0.321
1011.0,0.3252
1012.0,0.322
1013.0,0.3246
1014.0,0.3223
1015.0,0.3201
1016.0,0.3186
1017.0,0.3193
1018.0,0.3184
1019.0,0.3108
1020.0,0.3166
1021.0,0.3163
1022.0,0.3135
1023.0,0.3168
1024.0,0.3119
1025.0,0.3169
1026.0,0.3153
1027.0,0.3146
1028.0,0.3139
1029.0,0.3101
1030.0,0.3125
1031.0,0.3112
1032.0,0.3103
1033.0,0.3056
1034.0,0.3057
1035.0,0.3066
1036.0,0.3081
1037.0,0.3032
1038.0,0.3045
1039.0,0.3043
1040.0,0.303
1041.0,0.3042
1042.0,0.302
1043.0,0.301
1044.0,0.302
1045.0,0.2979
1046.0,0.2945
1047.0,0.2971
1048.0,0.2987
1049.0,0.2976
1050.0,0.2961
1051.0,0.2956
1052.0,0.2944
1053.0,0.2919
1054.0,0.2925
1055.0,0.2925
1056.0,0.2913
1057.0,0.2903
1058.0,0.2831
1059.0,0.2833
1060.0,0.2828
1061.0,0.2824
1062.0,0.2837
1063.0,0.2808
1064.0,0.2842
1065.0,0.2818
1066.0,0.2765
1067.0,0.28
1068.0,0.2737
1069.0,0.2654
1070.0,0.2742
1071.0,0.2791
1072.0,0.2754
1073.0,0.2715
1074.0,0.2793
1075.0,0.2632
1076.0,0.279
1077.0,0.2728
1078.0,0.2671
1079.0,0.2749
1080.0,0.2687
1081.0,0.259
1082.0,0.2649
1083.0,0.2662
1084.0,0.2579
1085.0,0.2694
1086.0,0.2429
1087.0,0.2528
1088.0,0.2656
1089.0,0.2554
1090.0,0.2487
1091.0,0.2642
1092.0,0.2639
1093.0,0.2182
1094.0,0.2408
1095.0,0.2279
1096.0,0.2166
1097.0,0.2579
1098.0,0.2125
1099.0,0.2225
1100.0,0.2045
1101.0,0.2078
1102.0,0.197
1103.0,0.194
1104.0,0.1944
1105.0,0.2169
1106.0,0.1568
1107.0,0.2043
1108.0,0.1677
1109.0,0.1691
1110.0,0.2016
1111.0,0.1295
1112.0,0.1682
1113.0,0.09983
1114.0,0.1121
1115.0,0.09257
1116.0,0.0698
1117.0,0.02157
1118.0,0.07719
1119.0,0.03482
1120.0,0.04347
1121.0,0.05969
1122.0,0.02223
1123.0,0.03944
1124.0,0.03324
1125.0,0.04422
1126.0,0.01262
1127.0,0.05015
1128.0,0.02688
1129.0,0.0289
1130.0,0.01809
1131.0,0.1031
1132.0,0.07933
1133.0,0.04596
1134.0,0.009629
1135.0,0.003743
1136.0,0.03685
1137.0,0.09968
1138.0,0.06944
1139.0,0.1124
1140.0,0.09053
1141.0,0.06608
1142.0,0.07772
1143.0,0.1141
1144.0,0.03578
1145.0,0.04439
1146.0,0.04782
1147.0,0.01401
1148.0,0.09846
1149.0,0.07605
1150.0,0.03909
1151.0,0.06887
1152.0,0.08784
1153.0,0.08799
1154.0,0.04284
1155.0,0.1171
1156.0,0.1037
1157.0,0.1195
1158.0,0.1181
1159.0,0.1295
1160.0,0.1086
1161.0,0.1387
1162.0,0.1389
1163.0,0.196
1164.0,0.1651
1165.0,0.1528
1166.0,0.154
1167.0,0.1692
1168.0,0.1704
1169.0,0.1754
1170.0,0.1931
1171.0,0.188
1172.0,0.193
1173.0,0.1927
1174.0,0.1317
1175.0,0.1895
1176.0,0.2115
1177.0,0.2009
1178.0,0.1465
1179.0,0.2133
1180.0,0.1869
1181.0,0.1931
1182.0,0.1284
1183.0,0.1909
1184.0,0.1773
1185.0,0.1696
1186.0,0.2059
1187.0,0.1946
1188.0,0.1299
1189.0,0.181
1190.0,0.2014
1191.0,0.1884
1192.0,0.2045
1193.0,0.195
1194.0,0.2017
1195.0,0.1888
1196.0,0.1807
1197.0,0.2027
1198.0,0.1843
1199.0,0.1527
1200.0,0.1925
1201.0,0.1842
1202.0,0.1842
1203.0,0.1821
1204.0,0.1574
1205.0,0.1897
1206.0,0.2116
1207.0,0.1832
1208.0,0.1815
1209.0,0.1856
1210.0,0.1942
1211.0,0.1835
1212.0,0.1792
1213.0,0.2036
1214.0,0.1844
1215.0,0.1806
1216.0,0.2031
1217.0,0.197
1218.0,0.2014
1219.0,0.1985
1220.0,0.2017
1221.0,0.2042
1222.0,0.1985
1223.0,0.1963
1224.0,0.1944
1225.0,0.2028
1226.0,0.2047
1227.0,0.1868
1228.0,0.2062
1229.0,0.2047
1230.0,0.2009
1231.0,0.2079
1232.0,0.2066
1233.0,0.1978
1234.0,0.2081
1235.0,0.2065
1236.0,0.2082
1237.0,0.2045
1238.0,0.2075
1239.0,0.2048
1240.0,0.2057
1241.0,0.2043
1242.0,0.2042
1243.0,0.2026
1244.0,0.2039
1245.0,0.2048
1246.0,0.2037
1247.0,0.2028
1248.0,0.2024
1249.0,0.2032
1250.0,0.2019
1251.0,0.199
1252.0,0.1994
1253.0,0.1972
1254.0,0.1947
1255.0,0.199
1256.0,0.1923
1257.0,0.191
1258.0,0.1955
1259.0,0.1867
1260.0,0.1879
1261.0,0.1752
1262.0,0.1688
1263.0,0.1691
1264.0,0.1535
1265.0,0.1681
1266.0,0.1602
1267.0,0.1641
1268.0,0.1539
1269.0,0.08514
1270.0,0.1631
1271.0,0.1749
1272.0,0.1757
1273.0,0.1736
1274.0,0.1745
1275.0,0.1774
1276.0,0.1795
1277.0,0.1813
1278.0,0.1856
1279.0,0.1838
1280.0,0.1816
1281.0,0.1737
1282.0,0.168
1283.0,0.1808
1284.0,0.185
1285.0,0.1863
1286.0,0.1892
1287.0,0.1856
1288.0,0.1858
1289.0,0.1786
1290.0,0.1842
1291.0,0.187
1292.0,0.1733
1293.0,0.1828
1294.0,0.1814
1295.0,0.1798
1296.0,0.1701
1297.0,0.1597
1298.0,0.1744
1299.0,0.1833
1300.0,0.151
1301.0,0.1565
1302.0,0.1739
1303.0,0.1495
1304.0,0.1237
1305.0,0.1701
1306.0,0.1698
1307.0,0.1278
1308.0,0.1504
1309.0,0.168
1310.0,0.1251
1311.0,0.1433
1312.0,0.1388
1313.0,0.1354
1314.0,0.1198
1315.0,0.1174
1316.0,0.1403
1317.0,0.1325
1318.0,0.1456
1319.0,0.1092
1320.0,0.1068
1321.0,0.126
1322.0,0.1264
1323.0,0.09135
1324.0,0.1073
1325.0,0.138
1326.0,0.116
1327.0,0.11
1328.0,0.09362
1329.0,0.067
1330.0,0.0889
1331.0,0.04989
1332.0,0.05274
1333.0,0.07419
1334.0,0.06498
1335.0,0.09084
1336.0,0.06977
1337.0,0.06084
1338.0,0.06573
1339.0,0.06598
1340.0,0.06526
1341.0,0.0612
1342.0,0.06455
1343.0,0.03913
1344.0,0.02381
1345.0,0.03433
1346.0,0.01445
1347.0,0.01425
1348.0,0.0006394
1349.0,0.002534
1350.0,0.002823
1351.0,0.0004897
1352.0,8.86e-05
1353.0,3.132e-06
1354.0,1.404e-05
1355.0,5.032e-08
1356.0,1.501e-06
1357.0,2.297e-06
1358.0,6.16e-08
1359.0,4.154e-09
1360.0,2.255e-08
1361.0,7.25e-12
1362.0,1.271e-14
1363.0,2.399e-08
1364.0,1.009e-08
1365.0,2.489e-15
1366.0,1.233e-07
1367.0,5.919e-08
1368.0,9.088e-18
1369.0,3.701e-09
1370.0,1.404e-09
1371.0,5.986e-11
1372.0,3.299e-08
1373.0,9.979e-07
1374.0,6.179e-06
1375.0,1.075e-05
1376.0,1.286e-05
1377.0,5.564e-06
1378.0,5.977e-05
1379.0,2.341e-06
1380.0,2.775e-06
1381.0,6.316e-08
1382.0,2.75e-08
1383.0,3.407e-10
1384.0,3.732e-09
1385.0,3.567e-08
1386.0,2.018e-08
1387.0,5.199e-06
1388.0,1.101e-07
1389.0,2.491e-05
1390.0,2.102e-05
1391.0,1.344e-05
1392.0,8.228e-07
1393.0,5.055e-06
1394.0,1.587e-06
1395.0,8.836e-09
1396.0,1.228e-11
1397.0,1.801e-06
1398.0,6.443e-05
1399.0,4.158e-05
1400.0,3.807e-12
1401.0,2.486e-11
1402.0,0.0001787
1403.0,0.000206
1404.0,6.031e-05
1405.0,3.425e-09
1406.0,0.0001353
1407.0,1.388e-05
1408.0,0.000114
1409.0,3.012e-05
1410.0,2.915e-05
1411.0,0.0001844
1412.0,0.0002792
1413.0,0.00393
1414.0,2.381e-05
1415.0,1.028e-05
1416.0,0.008057
1417.0,0.001976
1418.0,0.002114
1419.0,0.0003121
1420.0,0.001281
1421.0,0.001432
1422.0,0.01059
1423.0,0.001945
1424.0,0.003796
1425.0,0.0053
1426.0,0.006649
1427.0,0.0136
1428.0,0.0005789
1429.0,0.009426
1430.0,0.01804
1431.0,0.02032
1432.0,0.0004487
1433.0,0.01226
1434.0,0.005918
1435.0,0.004864
1436.0,0.01097
