interpolation:linear
wavelength,value
280.0,6.762999999999999e-22
280.5,1.428e-20
281.0,6.594e-20
281.5,1.437e-18
282.0,9.259e-18
282.5,3.077e-17
283.0,1.167e-16
283.5,2.027e-16
284.0,3.792e-15
284.5,1.128e-14
285.0,3.136e-14
285.5,2.088e-13
286.0,9.123e-13
286.5,4.632e-12
287.0,1.417e-11
287.5,5.787e-11
288.0,1.978e-10
288.5,7.311e-10
289.0,2.28e-09
289.5,7.879e-09
290.0,2.403e-08
290.5,5.268e-08
291.0,1.223e-07
291.5,3.861e-07
292.0,8.666e-07
292.5,1.249e-06
293.0,2.762e-06
293.5,6.993e-06
294.0,1.126e-05
294.5,2.194e-05
295.0,3.858e-05
295.5,8.013e-05
296.0,0.0001415
296.5,0.0001813
297.0,0.0002285
297.5,0.0005513
298.0,0.0007947
298.5,0.0007465
299.0,0.00154
299.5,0.002275
300.0,0.002347
300.5,0.003184
301.0,0.005184
301.5,0.007514
302.0,0.006128
302.5,0.01117
303.0,0.01837
303.5,0.02189
304.0,0.01985
304.5,0.02701
305.0,0.03612
305.5,0.03826
306.0,0.03594
306.5,0.0426
307.0,0.05683
307.5,0.06838
308.0,0.07106
308.5,0.07997
309.0,0.07543
309.5,0.08056
310.0,0.07835
310.5,0.1248
311.0,0.1525
311.5,0.1455
312.0,0.1372
312.5,0.1606
313.0,0.1707
313.5,0.1688
314.0,0.2014
314.5,0.1679
315.0,0.2182
315.5,0.1879
316.0,0.1561
316.5,0.2147
317.0,0.2666
317.5,0.2807
318.0,0.2126
318.5,0.2496
319.0,0.288
319.5,0.2454
320.0,0.2984
320.5,0.3528
321.0,0.2986
321.5,0.2847
322.0,0.3202
322.5,0.2777
323.0,0.2668
323.5,0.3168
324.0,0.3675
324.5,0.3784
325.0,0.3332
325.5,0.4164
326.0,0.5039
326.5,0.495
327.0,0.4965
327.5,0.4837
328.0,0.4415
328.5,0.4499
329.0,0.5258
329.5,0.5923
330.0,0.6007
330.5,0.4895
331.0,0.5017
331.5,0.5027
332.0,0.5323
332.5,0.5217
333.0,0.5227
333.5,0.4799
334.0,0.4926
334.5,0.5589
335.0,0.5201
335.5,0.6071
336.0,0.4199
336.5,0.4939
337.0,0.4078
337.5,0.5083
338.0,0.4896
338.5,0.5646
339.0,0.5584
339.5,0.5369
340.0,0.6311
340.5,0.568
341.0,0.554
341.5,0.5083
342.0,0.6072
342.5,0.5678
343.0,0.6244
343.5,0.5879
344.0,0.4341
344.5,0.4385
345.0,0.5798
345.5,0.5916
346.0,0.5025
346.5,0.5687
347.0,0.6104
347.5,0.4934
348.0,0.5621
348.5,0.5616
349.0,0.5207
349.5,0.5154
350.0,0.6372
350.5,0.6719
351.0,0.6001
351.5,0.5833
352.0,0.6261
352.5,0.4883
353.0,0.6147
353.5,0.6571
354.0,0.682
354.5,0.6915
355.0,0.6891
355.5,0.6222
356.0,0.6507
356.5,0.5555
357.0,0.459
357.5,0.5618
358.0,0.4451
358.5,0.3803
359.0,0.5319
359.5,0.6778
360.0,0.7184
360.5,0.574
361.0,0.5231
361.5,0.6019
362.0,0.5201
362.5,0.7194
363.0,0.6458
363.5,0.5946
364.0,0.7269
364.5,0.6212
365.0,0.6325
365.5,0.7936
366.0,0.8405
366.5,0.7894
367.0,0.7685
367.5,0.7974
368.0,0.6976
368.5,0.7037
369.0,0.7598
369.5,0.8096
370.0,0.8628
370.5,0.6695
371.0,0.7151
371.5,0.8946
372.0,0.5937
372.5,0.7116
373.0,0.7236
373.5,0.4707
374.0,0.6838
374.5,0.5661
375.0,0.5502
375.5,0.8214
376.0,0.6808
376.5,0.7055
377.0,0.7467
377.5,0.8734
378.0,0.9467
378.5,0.8948
379.0,0.7384
379.5,0.6745
380.0,0.7012
380.5,0.849
381.0,0.8505
381.5,0.674
382.0,0.5983
382.5,0.5099
383.0,0.4719
383.5,0.4544
384.0,0.5011
384.5,0.7369
385.0,0.7307
385.5,0.6803
386.0,0.5825
386.5,0.7649
387.0,0.6356
387.5,0.7138
388.0,0.6589
388.5,0.6512
389.0,0.7028
389.5,0.8511
390.0,0.854
390.5,0.7858
391.0,0.9248
391.5,0.9431
392.0,0.7943
392.5,0.7109
393.0,0.3955
393.5,0.2874
394.0,0.5847
394.5,0.7433
395.0,0.9069
395.5,0.9212
396.0,0.7986
396.5,0.4667
397.0,0.3501
397.5,0.712
398.0,0.9971
398.5,1.031
399.0,1.115
399.5,1.112
400.0,1.154
401.0,1.174
402.0,1.238
403.0,1.176
404.0,1.157
405.0,1.157
406.0,1.138
407.0,1.119
408.0,1.162
409.0,1.244
410.0,1.086
411.0,1.176
412.0,1.262
413.0,1.231
414.0,1.245
415.0,1.248
416.0,1.269
417.0,1.238
418.0,1.215
419.0,1.23
420.0,1.224
421.0,1.281
422.0,1.217
423.0,1.188
424.0,1.257
425.0,1.254
426.0,1.22
427.0,1.197
428.0,1.166
429.0,1.104
430.0,0.9656
431.0,0.9572
432.0,1.235
433.0,1.242
434.0,1.153
435.0,1.204
436.0,1.356
437.0,1.336
438.0,1.216
439.0,1.259
440.0,1.298
441.0,1.345
442.0,1.442
443.0,1.405
444.0,1.435
445.0,1.404
446.0,1.338
447.0,1.446
448.0,1.469
449.0,1.474
450.0,1.514
451.0,1.57
452.0,1.512
453.0,1.422
454.0,1.483
455.0,1.493
456.0,1.528
457.0,1.553
458.0,1.5
459.0,1.492
460.0,1.496
461.0,1.531
462.0,1.542
463.0,1.531
464.0,1.505
465.0,1.484
466.0,1.498
467.0,1.471
468.0,1.488
469.0,1.496
470.0,1.448
471.0,1.446
472.0,1.524
473.0,1.504
474.0,1.507
475.0,1.521
476.0,1.477
477.0,1.482
478.0,1.522
479.0,1.512
480.0,1.514
481.0,1.541
482.0,1.548
483.0,1.528
484.0,1.496
485.0,1.425
486.0,1.245
487.0,1.304
488.0,1.431
489.0,1.435
490.0,1.51
491.0,1.483
492.0,1.4
493.0,1.446
494.0,1.46
495.0,1.472
496.0,1.481
497.0,1.504
498.0,1.434
499.0,1.453
500.0,1.411
501.0,1.386
502.0,1.368
503.0,1.425
504.0,1.393
505.0,1.439
506.0,1.486
507.0,1.414
508.0,1.368
509.0,1.406
510.0,1.397
511.0,1.434
512.0,1.449
513.0,1.371
514.0,1.361
515.0,1.348
516.0,1.345
517.0,1.194
518.0,1.256
519.0,1.317
520.0,1.365
521.0,1.378
522.0,1.38
523.0,1.355
524.0,1.405
525.0,1.422
526.0,1.359
527.0,1.281
528.0,1.356
529.0,1.43
530.0,1.409
531.0,1.431
532.0,1.382
533.0,1.341
534.0,1.38
535.0,1.41
536.0,1.423
537.0,1.366
538.0,1.39
539.0,1.378
540.0,1.322
541.0,1.332
542.0,1.374
543.0,1.358
544.0,1.383
545.0,1.378
546.0,1.386
547.0,1.384
548.0,1.367
549.0,1.371
550.0,1.387
551.0,1.37
552.0,1.379
553.0,1.355
554.0,1.388
555.0,1.391
556.0,1.373
557.0,1.33
558.0,1.321
559.0,1.297
560.0,1.314
561.0,1.331
562.0,1.322
563.0,1.359
564.0,1.323
565.0,1.312
566.0,1.293
567.0,1.319
568.0,1.309
569.0,1.282
570.0,1.281
571.0,1.272
572.0,1.306
573.0,1.32
574.0,1.317
575.0,1.293
576.0,1.281
577.0,1.295
578.0,1.274
579.0,1.277
580.0,1.299
581.0,1.303
582.0,1.326
583.0,1.327
584.0,1.338
585.0,1.305
586.0,1.278
587.0,1.307
588.0,1.281
589.0,1.145
590.0,1.196
591.0,1.26
592.0,1.248
593.0,1.261
594.0,1.255
595.0,1.227
596.0,1.267
597.0,1.255
598.0,1.25
599.0,1.25
600.0,1.249
601.0,1.238
602.0,1.229
603.0,1.248
604.0,1.269
605.0,1.262
606.0,1.256
607.0,1.267
608.0,1.252
609.0,1.254
610.0,1.244
611.0,1.25
612.0,1.246
613.0,1.23
614.0,1.212
615.0,1.238
616.0,1.197
617.0,1.194
618.0,1.239
619.0,1.227
620.0,1.234
621.0,1.236
622.0,1.223
623.0,1.205
624.0,1.183
625.0,1.181
626.0,1.198
627.0,1.213
628.0,1.155
629.0,1.192
630.0,1.166
631.0,1.184
632.0,1.169
633.0,1.201
634.0,1.187
635.0,1.205
636.0,1.187
637.0,1.206
638.0,1.216
639.0,1.201
640.0,1.189
641.0,1.187
642.0,1.181
643.0,1.197
644.0,1.192
645.0,1.194
646.0,1.169
647.0,1.161
648.0,1.163
649.0,1.141
650.0,1.139
651.0,1.187
652.0,1.146
653.0,1.171
654.0,1.157
655.0,1.118
656.0,0.9879
657.0,1.014
658.0,1.134
659.0,1.141
660.0,1.146
661.0,1.153
662.0,1.157
663.0,1.134
664.0,1.145
665.0,1.144
666.0,1.144
667.0,1.143
668.0,1.142
669.0,1.159
670.0,1.154
671.0,1.153
672.0,1.143
673.0,1.16
674.0,1.156
675.0,1.145
676.0,1.152
677.0,1.141
678.0,1.143
679.0,1.125
680.0,1.134
681.0,1.126
682.0,1.125
683.0,1.122
684.0,1.117
685.0,1.126
686.0,1.12
687.0,0.8411
688.0,0.9378
689.0,0.9396
690.0,0.9699
691.0,1.003
692.0,1.026
693.0,1.019
694.0,1.011
695.0,1.042
696.0,1.043
697.0,1.092
698.0,1.075
699.0,1.059
700.0,1.047
701.0,1.039
702.0,1.042
703.0,1.044
704.0,1.072
705.0,1.074
706.0,1.07
707.0,1.07
708.0,1.073
709.0,1.071
710.0,1.073
711.0,1.07
712.0,1.065
713.0,1.056
714.0,1.059
715.0,1.03
716.0,1.031
717.0,0.9304
718.0,0.8616
719.0,0.7936
720.0,0.8335
721.0,0.8971
722.0,1.001
723.0,0.9454
724.0,0.8666
725.0,0.8578
726.0,0.8946
727.0,0.8994
728.0,0.8571
729.0,0.876
730.0,0.9259
731.0,0.8905
732.0,0.9387
733.0,0.9803
734.0,1.0
735.0,0.9812
736.0,0.9797
737.0,0.984
738.0,0.9907
739.0,0.9714
740.0,0.994
741.0,0.9826
742.0,0.982
743.0,1.007
744.0,1.003
745.0,1.002
746.0,1.007
747.0,1.009
748.0,1.007
749.0,0.995
750.0,0.9944
751.0,0.9843
752.0,0.9884
753.0,0.9933
754.0,0.9956
755.0,0.99
756.0,0.9894
757.0,0.9909
758.0,0.9787
759.0,0.9637
760.0,0.2708
761.0,0.1713
762.0,0.5955
763.0,0.3657
764.0,0.4878
765.0,0.596
766.0,0.6812
767.0,0.8114
768.0,0.8995
769.0,0.9103
770.0,0.9322
771.0,0.9357
772.0,0.9364
773.0,0.9427
774.0,0.9379
775.0,0.9305
776.0,0.9417
777.0,0.9293
778.0,0.9237
779.0,0.9245
780.0,0.9192
781.0,0.9201
782.0,0.9257
783.0,0.9095
784.0,0.9138
785.0,0.9073
786.0,0.9176
787.0,0.9053
788.0,0.8958
789.0,0.896
790.0,0.8778
791.0,0.88
792.0,0.8729
793.0,0.8594
794.0,0.8682
795.0,0.8843
796.0,0.8647
797.0,0.866
798.0,0.8841
799.0,0.8799
800.0,0.8664
801.0,0.8653
802.0,0.8627
803.0,0.857
804.0,0.8574
805.0,0.8526
806.0,0.873
807.0,0.8633
808.0,0.8636
809.0,0.8501
810.0,0.8451
811.0,0.8496
812.0,0.8307
813.0,0.8169
814.0,0.7372
815.0,0.7322
816.0,0.6844
817.0,0.6944
818.0,0.6726
819.0,0.7356
820.0,0.6993
821.0,0.7953
822.0,0.7763
823.0,0.564
824.0,0.761
825.0,0.7827
826.0,0.7596
827.0,0.7945
828.0,0.6935
829.0,0.7536
830.0,0.7459
831.0,0.7477
832.0,0.7285
833.0,0.7645
834.0,0.7441
835.0,0.8033
836.0,0.7776
837.0,0.805
838.0,0.7837
839.0,0.7921
840.0,0.8084
841.0,0.7986
842.0,0.7978
843.0,0.7948
844.0,0.7852
845.0,0.8097
846.0,0.8058
847.0,0.79
848.0,0.7862
849.0,0.7639
850.0,0.7317
851.0,0.7759
852.0,0.7699
853.0,0.7401
854.0,0.6399
855.0,0.7018
856.0,0.7675
857.0,0.7838
858.0,0.7784
859.0,0.7786
860.0,0.7796
861.0,0.7755
862.0,0.7875
863.0,0.8061
864.0,0.7657
865.0,0.7589
866.0,0.6824
867.0,0.7121
868.0,0.7749
869.0,0.7587
870.0,0.7803
871.0,0.7697
872.0,0.7669
873.0,0.7654
874.0,0.7563
875.0,0.741
876.0,0.7488
877.0,0.7563
878.0,0.7647
879.0,0.7528
880.0,0.7367
881.0,0.7262
882.0,0.7421
883.0,0.7439
884.0,0.7407
885.0,0.7463
886.0,0.7132
887.0,0.7193
888.0,0.7309
889.0,0.7374
890.0,0.7333
891.0,0.731
892.0,0.7125
893.0,0.6936
894.0,0.6755
895.0,0.6464
896.0,0.613
897.0,0.538
898.0,0.5803
899.0,0.4558
900.0,0.5873
901.0,0.477
902.0,0.541
903.0,0.5522
904.0,0.6704
905.0,0.651
906.0,0.6123
907.0,0.5144
908.0,0.5224
909.0,0.5575
910.0,0.5077
911.0,0.5325
912.0,0.553
913.0,0.5159
914.0,0.509
915.0,0.5498
916.0,0.4705
917.0,0.5802
918.0,0.4827
919.0,0.5872
920.0,0.5862
921.0,0.6075
922.0,0.5536
923.0,0.5864
924.0,0.5678
925.0,0.5559
926.0,0.5618
927.0,0.6188
928.0,0.4828
929.0,0.4486
930.0,0.3655
931.0,0.3439
932.0,0.2607
933.0,0.2194
934.0,0.1363
935.0,0.2183
936.0,0.1462
937.0,0.1497
938.0,0.18
939.0,0.3333
940.0,0.3919
941.0,0.3082
942.0,0.3486
943.0,0.2392
944.0,0.2433
945.0,0.3157
946.0,0.1742
947.0,0.3204
948.0,0.2379
949.0,0.4154
950.0,0.1373
951.0,0.4067
952.0,0.2366
953.0,0.2937
954.0,0.3472
955.0,0.2956
956.0,0.2817
957.0,0.2388
958.0,0.3801
959.0,0.3156
960.0,0.3532
961.0,0.3861
962.0,0.3668
963.0,0.4138
964.0,0.3823
965.0,0.411
966.0,0.4135
967.0,0.4125
968.0,0.5227
969.0,0.5478
970.0,0.5076
971.0,0.5678
972.0,0.5456
973.0,0.4883
974.0,0.4656
975.0,0.4779
976.0,0.4607
977.0,0.5107
978.0,0.4909
979.0,0.5097
980.0,0.4822
981.0,0.5639
982.0,0.5438
983.0,0.525
984.0,0.5758
985.0,0.5416
986.0,0.5828
987.0,0.5747
988.0,0.5737
989.0,0.5792
990.0,0.5699
991.0,0.5813
992.0,0.5843
993.0,0.5745
994.0,0.5838
995.0,0.5826
996.0,0.5805
997.0,0.5811
998.0,0.5786
999.0,0.5763
1000.0,0.573
1001.0,0.5793
1002.0,0.5665
1003.0,0.5693
1004.0,0.5562
1005.0,0.5346
1006.0,0.5561
1007.0,0.5676
1008.0,0.5651
1009.0,0.5627
1010.0,0.5607
1011.0,0.5646
1012.0,0.5604
1013.0,0.5631
1014.0,0.5591
1015.0,0.5555
1016.0,0.5531
1017.0,0.5546
1018.0,0.5522
1019.0,0.5416
1020.0,0.5494
1021.0,0.5485
1022.0,0.5446
1023.0,0.5505
1024.0,0.5446
1025.0,0.5497
1026.0,0.5477
1027.0,0.5463
1028.0,0.5453
1029.0,0.539
1030.0,0.5422
1031.0,0.5402
1032.0,0.5385
1033.0,0.5304
1034.0,0.5304
1035.0,0.5321
1036.0,0.535
1037.0,0.5262
1038.0,0.5286
1039.0,0.5284
1040.0,0.5262
1041.0,0.5284
1042.0,0.5248
1043.0,0.5232
1044.0,0.5251
1045.0,0.518
1046.0,0.5124
1047.0,0.5171
1048.0,0.52
1049.0,0.5182
1050.0,0.5159
1051.0,0.5153
1052.0,0.5133
1053.0,0.5094
1054.0,0.5107
1055.0,0.5111
1056.0,0.5095
1057.0,0.5081
1058.0,0.4958
1059.0,0.4965
1060.0,0.4958
1061.0,0.4954
1062.0,0.4982
1063.0,0.4934
1064.0,0.4992
1065.0,0.496
1066.0,0.4859
1067.0,0.4923
1068.0,0.4818
1069.0,0.4667
1070.0,0.4829
1071.0,0.4893
1072.0,0.4845
1073.0,0.4773
1074.0,0.4885
1075.0,0.4674
1076.0,0.4882
1077.0,0.4815
1078.0,0.473
1079.0,0.4799
1080.0,0.4741
1081.0,0.4604
1082.0,0.465
1083.0,0.4657
1084.0,0.4603
1085.0,0.4748
1086.0,0.4388
1087.0,0.4487
1088.0,0.4658
1089.0,0.4547
1090.0,0.4471
1091.0,0.4652
1092.0,0.4633
1093.0,0.4029
1094.0,0.4251
1095.0,0.4181
1096.0,0.4034
1097.0,0.4524
1098.0,0.3981
1099.0,0.4137
1100.0,0.3893
1101.0,0.3927
1102.0,0.3778
1103.0,0.3762
1104.0,0.3764
1105.0,0.4052
1106.0,0.3275
1107.0,0.3883
1108.0,0.3398
1109.0,0.3383
1110.0,0.3861
1111.0,0.2765
1112.0,0.3349
1113.0,0.2286
1114.0,0.2535
1115.0,0.2107
1116.0,0.178
1117.0,0.07689
1118.0,0.1897
1119.0,0.103
1120.0,0.1297
1121.0,0.1664
1122.0,0.07786
1123.0,0.117
1124.0,0.09884
1125.0,0.1268
1126.0,0.05207
1127.0,0.1423
1128.0,0.0936
1129.0,0.09789
1130.0,0.06852
1131.0,0.2504
1132.0,0.2002
1133.0,0.1371
1134.0,0.04199
1135.0,0.01546
1136.0,0.1181
1137.0,0.2488
1138.0,0.1778
1139.0,0.2463
1140.0,0.213
1141.0,0.1689
1142.0,0.1902
1143.0,0.2623
1144.0,0.1016
1145.0,0.1319
1146.0,0.1424
1147.0,0.05854
1148.0,0.2272
1149.0,0.1874
1150.0,0.109
1151.0,0.1766
1152.0,0.2104
1153.0,0.1999
1154.0,0.1299
1155.0,0.2572
1156.0,0.2352
1157.0,0.2589
1158.0,0.2558
1159.0,0.271
1160.0,0.2377
1161.0,0.2819
1162.0,0.2841
1163.0,0.3658
1164.0,0.3204
1165.0,0.3083
1166.0,0.3021
1167.0,0.3256
1168.0,0.3304
1169.0,0.3359
1170.0,0.36
1171.0,0.3519
1172.0,0.3553
1173.0,0.3592
1174.0,0.2711
1175.0,0.3488
1176.0,0.3766
1177.0,0.3659
1178.0,0.2859
1179.0,0.3794
1180.0,0.3462
1181.0,0.3564
1182.0,0.258
1183.0,0.3493
1184.0,0.3313
1185.0,0.3231
1186.0,0.3716
1187.0,0.3574
1188.0,0.2633
1189.0,0.3339
1190.0,0.3631
1191.0,0.3507
1192.0,0.3675
1193.0,0.3543
1194.0,0.3637
1195.0,0.3481
1196.0,0.338
1197.0,0.3615
1198.0,0.3342
1199.0,0.2939
1200.0,0.3502
1201.0,0.341
1202.0,0.3372
1203.0,0.3344
1204.0,0.2981
1205.0,0.3422
1206.0,0.3725
1207.0,0.3372
1208.0,0.3291
1209.0,0.3351
1210.0,0.3469
1211.0,0.3341
1212.0,0.3341
1213.0,0.3623
1214.0,0.34
1215.0,0.3346
1216.0,0.361
1217.0,0.3533
1218.0,0.3582
1219.0,0.3546
1220.0,0.3583
1221.0,0.3609
1222.0,0.3526
1223.0,0.3501
1224.0,0.3492
1225.0,0.3586
1226.0,0.3599
1227.0,0.3368
1228.0,0.3607
1229.0,0.3599
1230.0,0.3546
1231.0,0.3618
1232.0,0.3597
1233.0,0.3511
1234.0,0.3607
1235.0,0.3589
1236.0,0.3611
1237.0,0.3576
1238.0,0.3599
1239.0,0.3553
1240.0,0.3565
1241.0,0.3557
1242.0,0.3541
1243.0,0.3512
1244.0,0.354
1245.0,0.3553
1246.0,0.3532
1247.0,0.3521
1248.0,0.3523
1249.0,0.353
1250.0,0.3511
1251.0,0.3472
1252.0,0.3465
1253.0,0.345
1254.0,0.3425
1255.0,0.3465
1256.0,0.3391
1257.0,0.3378
1258.0,0.3422
1259.0,0.3335
1260.0,0.3348
1261.0,0.3207
1262.0,0.3135
1263.0,0.3143
1264.0,0.2959
1265.0,0.3122
1266.0,0.3038
1267.0,0.3068
1268.0,0.2947
1269.0,0.2098
1270.0,0.3066
1271.0,0.319
1272.0,0.3195
1273.0,0.3167
1274.0,0.317
1275.0,0.3207
1276.0,0.3229
1277.0,0.324
1278.0,0.3282
1279.0,0.3254
1280.0,0.3212
1281.0,0.3056
1282.0,0.2931
1283.0,0.3159
1284.0,0.3238
1285.0,0.3257
1286.0,0.3293
1287.0,0.3257
1288.0,0.3252
1289.0,0.3178
1290.0,0.3221
1291.0,0.3261
1292.0,0.3118
1293.0,0.3211
1294.0,0.3192
1295.0,0.3189
1296.0,0.3081
1297.0,0.2944
1298.0,0.3111
1299.0,0.321
1300.0,0.2817
1301.0,0.2883
1302.0,0.3099
1303.0,0.2769
1304.0,0.2457
1305.0,0.3043
1306.0,0.3049
1307.0,0.2477
1308.0,0.2759
1309.0,0.3032
1310.0,0.2434
1311.0,0.2666
1312.0,0.2609
1313.0,0.2573
1314.0,0.2338
1315.0,0.2329
1316.0,0.2639
1317.0,0.2511
1318.0,0.269
1319.0,0.2217
1320.0,0.2123
1321.0,0.2433
1322.0,0.2474
1323.0,0.1957
1324.0,0.2174
1325.0,0.2606
1326.0,0.2298
1327.0,0.2207
1328.0,0.1934
1329.0,0.1534
1330.0,0.1954
1331.0,0.1283
1332.0,0.1289
1333.0,0.1764
1334.0,0.1456
1335.0,0.1948
1336.0,0.1591
1337.0,0.144
1338.0,0.1552
1339.0,0.1532
1340.0,0.1465
1341.0,0.1488
1342.0,0.1559
1343.0,0.1185
1344.0,0.07084
1345.0,0.1003
1346.0,0.05911
1347.0,0.06163
1348.0,0.006227
1349.0,0.01952
1350.0,0.01844
1351.0,0.006619
1352.0,0.002626
1353.0,0.0002179
1354.0,0.0005619
1355.0,1.16e-05
1356.0,0.0001113
1357.0,0.0001663
1358.0,1.324e-05
1359.0,3.27e-06
1360.0,7.707e-06
1361.0,3.796e-08
1362.0,2.085e-10
1363.0,1.199e-05
1364.0,5.475e-06
1365.0,1.558e-10
1366.0,4.347e-05
1367.0,1.678e-05
1368.0,5.584e-12
1369.0,2.166e-06
1370.0,1.414e-06
1371.0,1.186e-07
1372.0,9.34e-06
1373.0,0.0001152
1374.0,0.0003872
1375.0,0.0006874
1376.0,0.0004984
1377.0,0.0002478
1378.0,0.002008
1379.0,0.0001069
1380.0,0.0001833
1381.0,6.12e-06
1382.0,9.096e-06
1383.0,1.889e-07
1384.0,2.715e-06
1385.0,6.375e-06
1386.0,9.757e-06
1387.0,0.0004675
1388.0,1.033e-05
1389.0,0.001143
1390.0,0.0009742
1391.0,0.0007116
1392.0,5.421e-05
1393.0,0.0002374
1394.0,0.0001981
1395.0,2.278e-06
1396.0,4.526e-08
1397.0,0.0001084
1398.0,0.002302
1399.0,0.00147
1400.0,2.825e-08
1401.0,7.072e-08
1402.0,0.00273
1403.0,0.003674
1404.0,0.001161
1405.0,1.418e-06
1406.0,0.003375
1407.0,0.0002904
1408.0,0.002718
1409.0,0.001153
1410.0,0.0008265
1411.0,0.003194
1412.0,0.003855
1413.0,0.02744
1414.0,0.0006372
1415.0,0.000345
1416.0,0.03769
1417.0,0.01426
1418.0,0.01625
1419.0,0.002686
1420.0,0.01008
1421.0,0.01121
1422.0,0.04822
1423.0,0.01019
1424.0,0.01841
1425.0,0.02787
1426.0,0.02928
1427.0,0.04824
1428.0,0.006026
1429.0,0.03843
1430.0,0.05976
1431.0,0.0642
1432.0,0.004839
1433.0,0.04296
1434.0,0.02294
1435.0,0.02658
1436.0,0.04534
1437.0,0.03487
1438.0,0.01642
1439.0,0.05899
1440.0,0.04462
1441.0,0.03674
1442.0,0.03998
1443.0,0.04609
1444.0,0.06228
1445.0,0.05192
1446.0,0.02436
1447.0,0.03843
1448.0,0.1061
1449.0,0.09542
1450.0,0.02844
1451.0,0.01234
1452.0,0.06049
1453.0,0.07743
1454.0,0.1219
1455.0,0.06163
1456.0,0.08455
1457.0,0.1067
1458.0,0.1196
1459.0,0.1423
1460.0,0.0776
1461.0,0.08366
