interpolation:linear
wavelength,value
280.0,1.925e-20
280.5,5.627e-19
281.0,2.903e-18
281.5,4.144e-19
282.0,1.62e-18
282.5,4.479e-18
283.0,1.477e-17
283.5,2.429e-17
284.0,3.861e-16
284.5,1.096e-15
285.0,1.948e-15
285.5,1.092e-14
286.0,4.525e-14
286.5,2.085e-13
287.0,6.024e-13
287.5,2.313e-12
288.0,6.583e-12
288.5,2.511e-11
289.0,8.087e-11
289.5,2.899e-10
290.0,9.119e-10
290.5,2.052e-09
291.0,4.919e-09
291.5,1.61e-08
292.0,4.373e-08
292.5,6.937e-08
293.0,1.744e-07
293.5,5.309e-07
294.0,9.827e-07
294.5,1.307e-06
295.0,2.61e-06
295.5,6.746e-06
296.0,1.314e-05
296.5,1.854e-05
297.0,2.528e-05
297.5,6.847e-05
298.0,0.0001088
298.5,0.0001102
299.0,0.0002444
299.5,0.0004095
300.0,0.0004533
300.5,0.000661
301.0,0.00121
301.5,0.001955
302.0,0.001687
302.5,0.003225
303.0,0.005624
303.5,0.006945
304.0,0.006434
304.5,0.009247
305.0,0.0133
305.5,0.01473
306.0,0.01408
306.5,0.01716
307.0,0.02429
307.5,0.03087
308.0,0.03237
308.5,0.0374
309.0,0.0363
309.5,0.04028
310.0,0.0399
310.5,0.06416
311.0,0.07958
311.5,0.07643
312.0,0.07445
312.5,0.08903
313.0,0.09568
313.5,0.09371
314.0,0.1147
314.5,0.09889
315.0,0.1293
315.5,0.1096
316.0,0.09359
316.5,0.1317
317.0,0.1636
317.5,0.1712
318.0,0.1318
318.5,0.1594
319.0,0.1866
319.5,0.1554
320.0,0.1884
320.5,0.2295
321.0,0.1995
321.5,0.1908
322.0,0.2087
322.5,0.1813
323.0,0.1775
323.5,0.2147
324.0,0.2499
324.5,0.2555
325.0,0.2227
325.5,0.2825
326.0,0.344
326.5,0.3413
327.0,0.3413
327.5,0.3311
328.0,0.2984
328.5,0.309
329.0,0.3656
329.5,0.4136
330.0,0.4184
330.5,0.3379
331.0,0.3453
331.5,0.3486
332.0,0.3729
332.5,0.3672
333.0,0.3671
333.5,0.3347
334.0,0.3433
334.5,0.3928
335.0,0.3674
335.5,0.4291
336.0,0.2969
336.5,0.3485
337.0,0.2869
337.5,0.3573
338.0,0.3465
338.5,0.3998
339.0,0.3956
339.5,0.3806
340.0,0.4474
340.5,0.403
341.0,0.3931
341.5,0.3608
342.0,0.4312
342.5,0.4034
343.0,0.4437
343.5,0.4179
344.0,0.3088
344.5,0.3119
345.0,0.4127
345.5,0.4213
346.0,0.358
346.5,0.4053
347.0,0.4352
347.5,0.3519
348.0,0.4011
348.5,0.4008
349.0,0.3718
349.5,0.3682
350.0,0.4553
350.5,0.4803
351.0,0.4291
351.5,0.4172
352.0,0.448
352.5,0.3496
353.0,0.4402
353.5,0.4707
354.0,0.4887
354.5,0.4956
355.0,0.494
355.5,0.4462
356.0,0.4669
356.5,0.3987
357.0,0.3294
357.5,0.4033
358.0,0.3196
358.5,0.2731
359.0,0.3821
359.5,0.487
360.0,0.5162
360.5,0.4126
361.0,0.3762
361.5,0.4331
362.0,0.3745
362.5,0.5183
363.0,0.4655
363.5,0.4288
364.0,0.5244
364.5,0.4482
365.0,0.4565
365.5,0.573
366.0,0.6071
366.5,0.5704
367.0,0.5556
367.5,0.5766
368.0,0.5046
368.5,0.5092
369.0,0.5499
369.5,0.5861
370.0,0.6249
370.5,0.485
371.0,0.5182
371.5,0.6484
372.0,0.4304
372.5,0.5161
373.0,0.525
373.5,0.3416
374.0,0.4964
374.5,0.4111
375.0,0.3996
375.5,0.5967
376.0,0.4947
376.5,0.5127
377.0,0.5428
377.5,0.6351
378.0,0.6885
378.5,0.6508
379.0,0.5371
379.5,0.4907
380.0,0.5102
380.5,0.618
381.0,0.6193
381.5,0.4909
382.0,0.436
382.5,0.3717
383.0,0.3441
383.5,0.3315
384.0,0.3657
384.5,0.5379
385.0,0.5334
385.5,0.4968
386.0,0.4255
386.5,0.559
387.0,0.4645
387.5,0.5218
388.0,0.4818
388.5,0.4763
389.0,0.5142
389.5,0.6228
390.0,0.6251
390.5,0.5753
391.0,0.6772
391.5,0.6908
392.0,0.5819
392.5,0.5209
393.0,0.2899
393.5,0.2107
394.0,0.4288
394.5,0.5453
395.0,0.6654
395.5,0.676
396.0,0.5861
396.5,0.3426
397.0,0.2572
397.5,0.523
398.0,0.7325
398.5,0.7571
399.0,0.8199
399.5,0.8172
400.0,0.8487
401.0,0.8619
402.0,0.9093
403.0,0.8639
404.0,0.8506
405.0,0.8506
406.0,0.8368
407.0,0.8233
408.0,0.8556
409.0,0.9158
410.0,0.8002
411.0,0.8668
412.0,0.9309
413.0,0.908
414.0,0.9191
415.0,0.9215
416.0,0.9376
417.0,0.9146
418.0,0.8978
419.0,0.9096
420.0,0.9056
421.0,0.9474
422.0,0.9005
423.0,0.8797
424.0,0.9305
425.0,0.9288
426.0,0.9046
427.0,0.8877
428.0,0.8648
429.0,0.8191
430.0,0.7168
431.0,0.7106
432.0,0.9173
433.0,0.9224
434.0,0.8566
435.0,0.8946
436.0,1.008
437.0,0.9942
438.0,0.9053
439.0,0.9366
440.0,0.9663
441.0,1.001
442.0,1.074
443.0,1.046
444.0,1.069
445.0,1.046
446.0,0.9977
447.0,1.078
448.0,1.095
449.0,1.1
450.0,1.13
451.0,1.172
452.0,1.129
453.0,1.062
454.0,1.109
455.0,1.115
456.0,1.142
457.0,1.161
458.0,1.121
459.0,1.116
460.0,1.119
461.0,1.144
462.0,1.153
463.0,1.145
464.0,1.126
465.0,1.112
466.0,1.122
467.0,1.102
468.0,1.115
469.0,1.121
470.0,1.085
471.0,1.083
472.0,1.142
473.0,1.127
474.0,1.129
475.0,1.139
476.0,1.105
477.0,1.108
478.0,1.139
479.0,1.132
480.0,1.134
481.0,1.155
482.0,1.16
483.0,1.146
484.0,1.122
485.0,1.069
486.0,0.9345
487.0,0.9792
488.0,1.074
489.0,1.078
490.0,1.134
491.0,1.114
492.0,1.052
493.0,1.086
494.0,1.097
495.0,1.107
496.0,1.113
497.0,1.131
498.0,1.078
499.0,1.092
500.0,1.06
501.0,1.041
502.0,1.026
503.0,1.069
504.0,1.043
505.0,1.079
506.0,1.114
507.0,1.06
508.0,1.027
509.0,1.055
510.0,1.049
511.0,1.077
512.0,1.089
513.0,1.03
514.0,1.023
515.0,1.013
516.0,1.011
517.0,0.898
518.0,0.9441
519.0,0.9903
520.0,1.026
521.0,1.036
522.0,1.037
523.0,1.019
524.0,1.055
525.0,1.068
526.0,1.02
527.0,0.9615
528.0,1.017
529.0,1.072
530.0,1.057
531.0,1.073
532.0,1.036
533.0,1.006
534.0,1.035
535.0,1.058
536.0,1.067
537.0,1.025
538.0,1.043
539.0,1.034
540.0,0.9917
541.0,0.9986
542.0,1.03
543.0,1.019
544.0,1.037
545.0,1.034
546.0,1.038
547.0,1.038
548.0,1.025
549.0,1.028
550.0,1.04
551.0,1.028
552.0,1.035
553.0,1.016
554.0,1.041
555.0,1.043
556.0,1.029
557.0,0.9975
558.0,0.9901
559.0,0.9718
560.0,0.984
561.0,0.9969
562.0,0.9899
563.0,1.017
564.0,0.9896
565.0,0.9812
566.0,0.967
567.0,0.9855
568.0,0.9772
569.0,0.955
570.0,0.9546
571.0,0.9486
572.0,0.972
573.0,0.9825
574.0,0.9796
575.0,0.9615
576.0,0.9527
577.0,0.963
578.0,0.9482
579.0,0.9515
580.0,0.9689
581.0,0.9734
582.0,0.9913
583.0,0.9934
584.0,1.002
585.0,0.9771
586.0,0.957
587.0,0.9783
588.0,0.9558
589.0,0.8492
590.0,0.8879
591.0,0.9381
592.0,0.9271
593.0,0.9397
594.0,0.9337
595.0,0.9115
596.0,0.9454
597.0,0.9357
598.0,0.9327
599.0,0.9332
600.0,0.9341
601.0,0.9261
602.0,0.9197
603.0,0.9348
604.0,0.9502
605.0,0.9451
606.0,0.941
607.0,0.9502
608.0,0.9394
609.0,0.9409
610.0,0.934
611.0,0.9387
612.0,0.9359
613.0,0.924
614.0,0.9112
615.0,0.9309
616.0,0.9001
617.0,0.8982
618.0,0.9326
619.0,0.9231
620.0,0.929
621.0,0.93
622.0,0.9193
623.0,0.9055
624.0,0.8898
625.0,0.8878
626.0,0.901
627.0,0.9115
628.0,0.8564
629.0,0.8917
630.0,0.8713
631.0,0.8892
632.0,0.8783
633.0,0.9043
634.0,0.8949
635.0,0.9086
636.0,0.8962
637.0,0.9107
638.0,0.919
639.0,0.9085
640.0,0.8995
641.0,0.8987
642.0,0.8945
643.0,0.9065
644.0,0.9033
645.0,0.9049
646.0,0.8844
647.0,0.8753
648.0,0.8763
649.0,0.8594
650.0,0.8618
651.0,0.8987
652.0,0.8633
653.0,0.8868
654.0,0.8767
655.0,0.8451
656.0,0.7483
657.0,0.7683
658.0,0.8605
659.0,0.8664
660.0,0.8699
661.0,0.876
662.0,0.8781
663.0,0.8606
664.0,0.8703
665.0,0.8706
666.0,0.8711
667.0,0.8701
668.0,0.8703
669.0,0.8836
670.0,0.8797
671.0,0.8794
672.0,0.8719
673.0,0.8849
674.0,0.8815
675.0,0.8734
676.0,0.8793
677.0,0.8705
678.0,0.873
679.0,0.8588
680.0,0.8656
681.0,0.8599
682.0,0.8588
683.0,0.8571
684.0,0.8529
685.0,0.8601
686.0,0.8551
687.0,0.59
688.0,0.6808
689.0,0.6829
690.0,0.7127
691.0,0.7461
692.0,0.77
693.0,0.7641
694.0,0.7577
695.0,0.7864
696.0,0.7874
697.0,0.8323
698.0,0.8194
699.0,0.802
700.0,0.7924
701.0,0.785
702.0,0.7896
703.0,0.7911
704.0,0.815
705.0,0.8163
706.0,0.815
707.0,0.8154
708.0,0.8172
709.0,0.8176
710.0,0.818
711.0,0.8166
712.0,0.8138
713.0,0.8059
714.0,0.8089
715.0,0.7842
716.0,0.7848
717.0,0.6889
718.0,0.634
719.0,0.5816
720.0,0.6099
721.0,0.6682
722.0,0.759
723.0,0.7094
724.0,0.6424
725.0,0.6332
726.0,0.6623
727.0,0.6698
728.0,0.632
729.0,0.6527
730.0,0.6907
731.0,0.6617
732.0,0.7047
733.0,0.743
734.0,0.7599
735.0,0.7446
736.0,0.7436
737.0,0.7466
738.0,0.7561
739.0,0.7413
740.0,0.76
741.0,0.7521
742.0,0.7524
743.0,0.7715
744.0,0.7691
745.0,0.769
746.0,0.7725
747.0,0.7742
748.0,0.7726
749.0,0.7637
750.0,0.7633
751.0,0.7555
752.0,0.7587
753.0,0.7625
754.0,0.7643
755.0,0.76
756.0,0.7596
757.0,0.7607
758.0,0.7513
759.0,0.7372
760.0,0.1435
761.0,0.07947
762.0,0.3989
763.0,0.2115
764.0,0.3072
765.0,0.399
766.0,0.4797
767.0,0.5952
768.0,0.6789
769.0,0.6914
770.0,0.7129
771.0,0.7178
772.0,0.719
773.0,0.724
774.0,0.7204
775.0,0.7149
776.0,0.7236
777.0,0.714
778.0,0.7097
779.0,0.7103
780.0,0.7063
781.0,0.707
782.0,0.7114
783.0,0.699
784.0,0.7023
785.0,0.6972
786.0,0.705
787.0,0.6935
788.0,0.6853
789.0,0.6851
790.0,0.6681
791.0,0.6727
792.0,0.6676
793.0,0.6569
794.0,0.6669
795.0,0.6785
796.0,0.6593
797.0,0.6602
798.0,0.6778
799.0,0.6738
800.0,0.6625
801.0,0.6608
802.0,0.6589
803.0,0.6541
804.0,0.6548
805.0,0.6523
806.0,0.6698
807.0,0.6619
808.0,0.6624
809.0,0.6506
810.0,0.6457
811.0,0.6473
812.0,0.6299
813.0,0.6175
814.0,0.5471
815.0,0.5436
816.0,0.5065
817.0,0.5153
818.0,0.4969
819.0,0.5522
820.0,0.5213
821.0,0.6048
822.0,0.5883
823.0,0.4072
824.0,0.5727
825.0,0.5945
826.0,0.5733
827.0,0.6036
828.0,0.5158
829.0,0.5696
830.0,0.5625
831.0,0.5644
832.0,0.5478
833.0,0.5807
834.0,0.5615
835.0,0.614
836.0,0.5895
837.0,0.6156
838.0,0.5972
839.0,0.6061
840.0,0.6192
841.0,0.6108
842.0,0.6116
843.0,0.6107
844.0,0.6025
845.0,0.6224
846.0,0.6196
847.0,0.6079
848.0,0.6044
849.0,0.5872
850.0,0.5626
851.0,0.5959
852.0,0.5916
853.0,0.5692
854.0,0.4916
855.0,0.5399
856.0,0.5901
857.0,0.6032
858.0,0.5988
859.0,0.5992
860.0,0.6002
861.0,0.5969
862.0,0.6063
863.0,0.6206
864.0,0.5896
865.0,0.5844
866.0,0.5255
867.0,0.5484
868.0,0.5967
869.0,0.5843
870.0,0.601
871.0,0.5928
872.0,0.5907
873.0,0.5895
874.0,0.5825
875.0,0.5707
876.0,0.5766
877.0,0.5825
878.0,0.5888
879.0,0.5798
880.0,0.5673
881.0,0.5589
882.0,0.571
883.0,0.5727
884.0,0.5701
885.0,0.5744
886.0,0.5478
887.0,0.5534
888.0,0.5617
889.0,0.5678
890.0,0.5634
891.0,0.5622
892.0,0.5464
893.0,0.5299
894.0,0.5123
895.0,0.4854
896.0,0.4578
897.0,0.3949
898.0,0.43
899.0,0.3291
900.0,0.4392
901.0,0.3449
902.0,0.402
903.0,0.4069
904.0,0.5084
905.0,0.4915
906.0,0.4604
907.0,0.3766
908.0,0.3837
909.0,0.4145
910.0,0.3687
911.0,0.3916
912.0,0.409
913.0,0.3742
914.0,0.3707
915.0,0.4017
916.0,0.3406
917.0,0.43
918.0,0.3492
919.0,0.4372
920.0,0.4406
921.0,0.458
922.0,0.4109
923.0,0.4423
924.0,0.4213
925.0,0.4122
926.0,0.4167
927.0,0.4651
928.0,0.345
929.0,0.316
930.0,0.2498
931.0,0.2364
932.0,0.1717
933.0,0.1403
934.0,0.07846
935.0,0.143
936.0,0.09022
937.0,0.09155
938.0,0.1122
939.0,0.2291
940.0,0.2746
941.0,0.2086
942.0,0.2407
943.0,0.1593
944.0,0.1668
945.0,0.2148
946.0,0.1106
947.0,0.2161
948.0,0.1589
949.0,0.288
950.0,0.08194
951.0,0.2834
952.0,0.1539
953.0,0.1977
954.0,0.2412
955.0,0.1998
956.0,0.1933
957.0,0.1543
958.0,0.2723
959.0,0.2176
960.0,0.2439
961.0,0.2728
962.0,0.2582
963.0,0.2968
964.0,0.2722
965.0,0.2956
966.0,0.2958
967.0,0.2947
968.0,0.3921
969.0,0.4098
970.0,0.3768
971.0,0.43
972.0,0.4115
973.0,0.3596
974.0,0.3415
975.0,0.354
976.0,0.3368
977.0,0.3819
978.0,0.3634
979.0,0.3802
980.0,0.3577
981.0,0.4274
982.0,0.4092
983.0,0.3931
984.0,0.4399
985.0,0.4076
986.0,0.4473
987.0,0.4389
988.0,0.4381
989.0,0.4457
990.0,0.4354
991.0,0.4471
992.0,0.4496
993.0,0.44
994.0,0.4495
995.0,0.4489
996.0,0.4469
997.0,0.4475
998.0,0.4455
999.0,0.4438
1000.0,0.4408
1001.0,0.4462
1002.0,0.4342
1003.0,0.4383
1004.0,0.4277
1005.0,0.4119
1006.0,0.428
1007.0,0.4371
1008.0,0.4348
1009.0,0.4325
1010.0,0.4307
1011.0,0.4349
1012.0,0.4311
1013.0,0.4338
1014.0,0.4307
1015.0,0.4279
1016.0,0.426
1017.0,0.4271
1018.0,0.4254
1019.0,0.4165
1020.0,0.4232
1021.0,0.4226
1022.0,0.4194
1023.0,0.4238
1024.0,0.4184
1025.0,0.4235
1026.0,0.4217
1027.0,0.4207
1028.0,0.4199
1029.0,0.4149
1030.0,0.4177
1031.0,0.4161
1032.0,0.4148
1033.0,0.4086
1034.0,0.4086
1035.0,0.4099
1036.0,0.412
1037.0,0.4053
1038.0,0.4071
1039.0,0.4069
1040.0,0.4052
1041.0,0.4069
1042.0,0.404
1043.0,0.4028
1044.0,0.4042
1045.0,0.3987
1046.0,0.3943
1047.0,0.3979
1048.0,0.4
1049.0,0.3986
1050.0,0.3968
1051.0,0.3962
1052.0,0.3946
1053.0,0.3915
1054.0,0.3924
1055.0,0.3926
1056.0,0.3913
1057.0,0.3901
1058.0,0.3805
1059.0,0.3809
1060.0,0.3803
1061.0,0.3799
1062.0,0.3819
1063.0,0.3781
1064.0,0.3826
1065.0,0.3799
1066.0,0.3724
1067.0,0.3772
1068.0,0.369
1069.0,0.3576
1070.0,0.3697
1071.0,0.3754
1072.0,0.3711
1073.0,0.3658
1074.0,0.3751
1075.0,0.3566
1076.0,0.3748
1077.0,0.3683
1078.0,0.3614
1079.0,0.3688
1080.0,0.3626
1081.0,0.3511
1082.0,0.3565
1083.0,0.3575
1084.0,0.3503
1085.0,0.3634
1086.0,0.3321
1087.0,0.3424
1088.0,0.3572
1089.0,0.3466
1090.0,0.3391
1091.0,0.3561
1092.0,0.3552
1093.0,0.302
1094.0,0.3251
1095.0,0.3146
1096.0,0.3015
1097.0,0.3469
1098.0,0.2968
1099.0,0.3095
1100.0,0.2881
1101.0,0.2916
1102.0,0.2788
1103.0,0.2762
1104.0,0.2766
1105.0,0.3025
1106.0,0.233
1107.0,0.2876
1108.0,0.2447
1109.0,0.245
1110.0,0.2852
1111.0,0.1947
1112.0,0.243
1113.0,0.156
1114.0,0.1742
1115.0,0.1444
1116.0,0.116
1117.0,0.04337
1118.0,0.126
1119.0,0.06312
1120.0,0.07948
1121.0,0.1051
1122.0,0.04474
1123.0,0.0718
1124.0,0.06061
1125.0,0.07894
1126.0,0.02796
1127.0,0.089
1128.0,0.05376
1129.0,0.05698
1130.0,0.03769
1131.0,0.1675
1132.0,0.1317
1133.0,0.08411
1134.0,0.02187
1135.0,0.008175
1136.0,0.0704
1137.0,0.1648
1138.0,0.1162
1139.0,0.172
1140.0,0.1442
1141.0,0.1104
1142.0,0.1268
1143.0,0.1795
1144.0,0.06333
1145.0,0.0811
1146.0,0.08748
1147.0,0.03126
1148.0,0.1553
1149.0,0.1244
1150.0,0.06806
1151.0,0.1153
1152.0,0.1415
1153.0,0.1375
1154.0,0.07868
1155.0,0.1794
1156.0,0.1619
1157.0,0.1812
1158.0,0.1792
1159.0,0.1929
1160.0,0.1653
1161.0,0.2027
1162.0,0.2038
1163.0,0.2733
1164.0,0.2352
1165.0,0.2226
1166.0,0.2205
1167.0,0.2398
1168.0,0.2426
1169.0,0.2481
1170.0,0.269
1171.0,0.2624
1172.0,0.2667
1173.0,0.2684
1174.0,0.1936
1175.0,0.2619
1176.0,0.2869
1177.0,0.276
1178.0,0.2088
1179.0,0.2891
1180.0,0.2592
1181.0,0.2674
1182.0,0.1862
1183.0,0.2631
1184.0,0.2471
1185.0,0.239
1186.0,0.2815
1187.0,0.2687
1188.0,0.1895
1189.0,0.2505
1190.0,0.2751
1191.0,0.2622
1192.0,0.2789
1193.0,0.2676
1194.0,0.2755
1195.0,0.2613
1196.0,0.2521
1197.0,0.2753
1198.0,0.2524
1199.0,0.2163
1200.0,0.2643
1201.0,0.2554
1202.0,0.2536
1203.0,0.2515
1204.0,0.2209
1205.0,0.259
1206.0,0.2852
1207.0,0.2531
1208.0,0.2486
1209.0,0.2536
1210.0,0.2638
1211.0,0.2519
1212.0,0.2497
1213.0,0.2762
1214.0,0.2553
1215.0,0.2506
1216.0,0.2753
1217.0,0.2683
1218.0,0.2731
1219.0,0.2699
1220.0,0.2733
1221.0,0.2758
1222.0,0.2689
1223.0,0.2665
1224.0,0.2651
1225.0,0.2741
1226.0,0.2757
1227.0,0.2552
1228.0,0.2769
1229.0,0.2757
1230.0,0.2712
1231.0,0.2783
1232.0,0.2767
1233.0,0.2679
1234.0,0.2779
1235.0,0.2763
1236.0,0.2782
1237.0,0.2746
1238.0,0.2773
1239.0,0.2737
1240.0,0.2747
1241.0,0.2736
1242.0,0.2729
1243.0,0.2706
1244.0,0.2726
1245.0,0.2737
1246.0,0.2721
1247.0,0.2711
1248.0,0.271
1249.0,0.2718
1250.0,0.2702
1251.0,0.2669
1252.0,0.2668
1253.0,0.2649
1254.0,0.2624
1255.0,0.2665
1256.0,0.2595
1257.0,0.2582
1258.0,0.2627
1259.0,0.2539
1260.0,0.2551
1261.0,0.2417
1262.0,0.2349
1263.0,0.2354
1264.0,0.2184
1265.0,0.2339
1266.0,0.2257
1267.0,0.2292
1268.0,0.2181
1269.0,0.1401
1270.0,0.2286
1271.0,0.2408
1272.0,0.2415
1273.0,0.239
1274.0,0.2396
1275.0,0.2429
1276.0,0.2451
1277.0,0.2465
1278.0,0.2509
1279.0,0.2487
1280.0,0.2455
1281.0,0.2341
1282.0,0.2253
1283.0,0.2427
1284.0,0.2485
1285.0,0.2501
1286.0,0.2533
1287.0,0.2497
1288.0,0.2496
1289.0,0.2423
1290.0,0.2473
1291.0,0.2507
1292.0,0.2366
1293.0,0.2461
1294.0,0.2444
1295.0,0.2435
1296.0,0.2331
1297.0,0.2211
1298.0,0.2369
1299.0,0.2463
1300.0,0.2103
1301.0,0.2164
1302.0,0.2361
1303.0,0.2073
1304.0,0.1785
1305.0,0.2313
1306.0,0.2315
1307.0,0.1817
1308.0,0.2074
1309.0,0.2299
1310.0,0.1784
1311.0,0.1992
1312.0,0.194
1313.0,0.1906
1314.0,0.1711
1315.0,0.1693
1316.0,0.1963
1317.0,0.1861
1318.0,0.2016
1319.0,0.1595
1320.0,0.1541
1321.0,0.1789
1322.0,0.1809
1323.0,0.1376
1324.0,0.1564
1325.0,0.1936
1326.0,0.1671
1327.0,0.1596
1328.0,0.1381
1329.0,0.1049
1330.0,0.136
1331.0,0.08341
1332.0,0.08568
1333.0,0.119
1334.0,0.1001
1335.0,0.1371
1336.0,0.1091
1337.0,0.09685
1338.0,0.1048
1339.0,0.1042
1340.0,0.101
1341.0,0.09936
1342.0,0.1043
1343.0,0.07217
1344.0,0.04314
1345.0,0.06211
1346.0,0.03182
1347.0,0.03252
1348.0,0.002287
1349.0,0.008032
1350.0,0.008206
1351.0,0.002146
1352.0,0.000628
1353.0,3.504e-05
1354.0,0.000114
1355.0,1.106e-06
1356.0,1.724e-05
1357.0,2.62e-05
1358.0,1.3e-06
1359.0,1.882e-07
1360.0,6.249e-07
1361.0,9.382e-10
1362.0,2.92e-12
1363.0,8.817e-07
1364.0,3.685e-07
1365.0,1.204e-12
1366.0,3.716e-06
1367.0,1.488e-06
1368.0,1.28e-14
1369.0,1.389e-07
1370.0,7.264e-08
1371.0,4.439e-09
1372.0,8.186e-07
1373.0,1.506e-05
1374.0,6.571e-05
1375.0,0.0001197
1376.0,0.0001023
1377.0,4.754e-05
1378.0,0.0004525
1379.0,2.003e-05
1380.0,3e-05
1381.0,8.156e-07
1382.0,7.506e-07
1383.0,1.188e-08
1384.0,1.608e-07
1385.0,6.655e-07
1386.0,6.967e-07
1387.0,7.083e-05
1388.0,1.404e-06
1389.0,0.0002244
1390.0,0.0001932
1391.0,0.0001307
1392.0,8.696e-06
1393.0,4.46e-05
1394.0,2.552e-05
1395.0,2.023e-07
1396.0,1.3e-09
1397.0,1.823e-05
1398.0,0.0005117
1399.0,0.0003242
1400.0,6.067e-10
1401.0,2.275e-09
1402.0,0.0008306
1403.0,0.00106
1404.0,0.0003254
1405.0,1.036e-07
1406.0,0.0008691
1407.0,7.546e-05
1408.0,0.0007078
1409.0,0.0002485
1410.0,0.0001935
1411.0,0.0009297
1412.0,0.001229
1413.0,0.01195
1414.0,0.0001519
1415.0,7.447e-05
1416.0,0.0191
1417.0,0.005919
1418.0,0.006762
1419.0,0.001056
1420.0,0.004142
1421.0,0.004481
1422.0,0.0249
1423.0,0.004858
1424.0,0.009076
1425.0,0.01341
1426.0,0.01511
1427.0,0.02755
1428.0,0.002162
1429.0,0.0207
1430.0,0.03505
1431.0,0.03845
1432.0,0.001705
1433.0,0.02452
1434.0,0.0125
1435.0,0.01259
1436.0,0.02416
1437.0,0.01851
1438.0,0.007852
1439.0,0.0328
1440.0,0.02457
1441.0,0.01877
1442.0,0.02082
1443.0,0.02608
1444.0,0.03611
1445.0,0.02829
1446.0,0.01273
1447.0,0.02006
