interpolation:linear
wavelength,value
280.0,5.752999999999999e-22
280.5,1.1890000000000002e-20
281.0,5.458000000000001e-20
281.5,1.179e-18
282.0,7.578e-18
282.5,2.517e-17
283.0,9.545e-17
283.5,1.657e-16
284.0,3.118e-15
284.5,9.305e-15
285.0,2.626e-14
285.5,1.758e-13
286.0,7.702e-13
286.5,3.929e-12
287.0,1.206e-11
287.5,4.948e-11
288.0,1.701e-10
288.5,6.326e-10
289.0,1.985e-09
289.5,6.908e-09
290.0,2.119e-08
290.5,4.669e-08
291.0,1.091e-07
291.5,3.468e-07
292.0,7.826e-07
292.5,1.133e-06
293.0,2.521e-06
293.5,6.437e-06
294.0,1.043e-05
294.5,2.033e-05
295.0,3.594e-05
295.5,7.507e-05
296.0,0.000133
296.5,0.0001709
297.0,0.0002159
297.5,0.0005226
298.0,0.0007554
298.5,0.000711
299.0,0.001469
299.5,0.002178
300.0,0.002252
300.5,0.003059
301.0,0.004993
301.5,0.007254
302.0,0.005922
302.5,0.01081
303.0,0.01781
303.5,0.02124
304.0,0.01927
304.5,0.02627
305.0,0.03518
305.5,0.03731
306.0,0.03506
306.5,0.04159
307.0,0.05556
307.5,0.06695
308.0,0.06958
308.5,0.07835
309.0,0.07398
309.5,0.07909
310.0,0.07696
310.5,0.1227
311.0,0.1499
311.5,0.143
312.0,0.135
312.5,0.1581
313.0,0.168
313.5,0.1661
314.0,0.1984
314.5,0.1655
315.0,0.2151
315.5,0.1852
316.0,0.1539
316.5,0.2119
317.0,0.2631
317.5,0.277
318.0,0.2099
318.5,0.2466
319.0,0.2846
319.5,0.2424
320.0,0.2947
320.5,0.3487
321.0,0.2953
321.5,0.2816
322.0,0.3165
322.5,0.2745
323.0,0.2639
323.5,0.3134
324.0,0.3636
324.5,0.3744
325.0,0.3296
325.5,0.412
326.0,0.4986
326.5,0.4899
327.0,0.4914
327.5,0.4786
328.0,0.4368
328.5,0.4453
329.0,0.5205
329.5,0.5865
330.0,0.5948
330.5,0.4846
331.0,0.4966
331.5,0.4977
332.0,0.5271
332.5,0.5167
333.0,0.5177
333.5,0.4751
334.0,0.4877
334.5,0.5535
335.0,0.5151
335.5,0.6013
336.0,0.4159
336.5,0.4891
337.0,0.4039
337.5,0.5034
338.0,0.4849
338.5,0.5592
339.0,0.5532
339.5,0.5319
340.0,0.6252
340.5,0.5626
341.0,0.5488
341.5,0.5035
342.0,0.6015
342.5,0.5624
343.0,0.6185
343.5,0.5824
344.0,0.43
344.5,0.4344
345.0,0.5744
345.5,0.5861
346.0,0.4978
346.5,0.5634
347.0,0.6048
347.5,0.4888
348.0,0.5569
348.5,0.5564
349.0,0.5159
349.5,0.5106
350.0,0.6313
350.5,0.6657
351.0,0.5946
351.5,0.578
352.0,0.6204
352.5,0.4839
353.0,0.6091
353.5,0.6511
354.0,0.6757
354.5,0.6852
355.0,0.6828
355.5,0.6165
356.0,0.6448
356.5,0.5505
357.0,0.4548
357.5,0.5567
358.0,0.4411
358.5,0.3768
359.0,0.5271
359.5,0.6717
360.0,0.7119
360.5,0.5688
361.0,0.5183
361.5,0.5964
362.0,0.5154
362.5,0.7129
363.0,0.64
363.5,0.5892
364.0,0.7204
364.5,0.6156
365.0,0.6268
365.5,0.7865
366.0,0.8329
366.5,0.7823
367.0,0.7617
367.5,0.7903
368.0,0.6914
368.5,0.6975
369.0,0.753
369.5,0.8024
370.0,0.8552
370.5,0.6636
371.0,0.7088
371.5,0.8867
372.0,0.5884
372.5,0.7054
373.0,0.7173
373.5,0.4666
374.0,0.6778
374.5,0.5612
375.0,0.5454
375.5,0.8142
376.0,0.6749
376.5,0.6993
377.0,0.7402
377.5,0.8658
378.0,0.9384
378.5,0.8869
379.0,0.7319
379.5,0.6686
380.0,0.6951
380.5,0.8416
381.0,0.8431
381.5,0.6681
382.0,0.5931
382.5,0.5054
383.0,0.4678
383.5,0.4504
384.0,0.4968
384.5,0.7306
385.0,0.7243
385.5,0.6744
386.0,0.5775
386.5,0.7583
387.0,0.6301
387.5,0.7076
388.0,0.6532
388.5,0.6456
389.0,0.6968
389.5,0.8438
390.0,0.8467
390.5,0.779
391.0,0.9168
391.5,0.9351
392.0,0.7875
392.5,0.7048
393.0,0.3921
393.5,0.2849
394.0,0.5798
394.5,0.737
395.0,0.8992
395.5,0.9134
396.0,0.7918
396.5,0.4627
397.0,0.3472
397.5,0.706
398.0,0.9886
398.5,1.022
399.0,1.106
399.5,1.102
400.0,1.145
401.0,1.164
402.0,1.228
403.0,1.166
404.0,1.148
405.0,1.147
406.0,1.128
407.0,1.109
408.0,1.152
409.0,1.233
410.0,1.077
411.0,1.166
412.0,1.252
413.0,1.221
414.0,1.235
415.0,1.238
416.0,1.259
417.0,1.227
418.0,1.205
419.0,1.22
420.0,1.214
421.0,1.27
422.0,1.207
423.0,1.178
424.0,1.246
425.0,1.243
426.0,1.21
427.0,1.187
428.0,1.157
429.0,1.095
430.0,0.9577
431.0,0.9493
432.0,1.225
433.0,1.231
434.0,1.143
435.0,1.194
436.0,1.345
437.0,1.326
438.0,1.207
439.0,1.249
440.0,1.288
441.0,1.334
442.0,1.43
443.0,1.393
444.0,1.423
445.0,1.392
446.0,1.328
447.0,1.434
448.0,1.457
449.0,1.462
450.0,1.502
451.0,1.557
452.0,1.5
453.0,1.41
454.0,1.471
455.0,1.481
456.0,1.515
457.0,1.54
458.0,1.488
459.0,1.48
460.0,1.484
461.0,1.518
462.0,1.529
463.0,1.519
464.0,1.493
465.0,1.473
466.0,1.486
467.0,1.459
468.0,1.476
469.0,1.484
470.0,1.437
471.0,1.435
472.0,1.512
473.0,1.492
474.0,1.495
475.0,1.509
476.0,1.465
477.0,1.47
478.0,1.51
479.0,1.5
480.0,1.502
481.0,1.529
482.0,1.536
483.0,1.516
484.0,1.484
485.0,1.414
486.0,1.235
487.0,1.294
488.0,1.419
489.0,1.424
490.0,1.498
491.0,1.471
492.0,1.389
493.0,1.434
494.0,1.449
495.0,1.461
496.0,1.47
497.0,1.493
498.0,1.423
499.0,1.441
500.0,1.4
501.0,1.375
502.0,1.357
503.0,1.413
504.0,1.382
505.0,1.428
506.0,1.474
507.0,1.402
508.0,1.357
509.0,1.394
510.0,1.386
511.0,1.422
512.0,1.437
513.0,1.36
514.0,1.351
515.0,1.337
516.0,1.334
517.0,1.185
518.0,1.246
519.0,1.307
520.0,1.355
521.0,1.368
522.0,1.369
523.0,1.345
524.0,1.393
525.0,1.411
526.0,1.348
527.0,1.271
528.0,1.345
529.0,1.418
530.0,1.398
531.0,1.419
532.0,1.371
533.0,1.33
534.0,1.369
535.0,1.399
536.0,1.411
537.0,1.355
538.0,1.379
539.0,1.367
540.0,1.311
541.0,1.321
542.0,1.363
543.0,1.348
544.0,1.372
545.0,1.368
546.0,1.374
547.0,1.373
548.0,1.356
549.0,1.36
550.0,1.376
551.0,1.359
552.0,1.369
553.0,1.344
554.0,1.376
555.0,1.38
556.0,1.362
557.0,1.32
558.0,1.31
559.0,1.287
560.0,1.303
561.0,1.321
562.0,1.312
563.0,1.348
564.0,1.312
565.0,1.302
566.0,1.283
567.0,1.308
568.0,1.299
569.0,1.272
570.0,1.271
571.0,1.262
572.0,1.295
573.0,1.31
574.0,1.306
575.0,1.282
576.0,1.271
577.0,1.284
578.0,1.264
579.0,1.267
580.0,1.288
581.0,1.293
582.0,1.315
583.0,1.317
584.0,1.327
585.0,1.294
586.0,1.267
587.0,1.296
588.0,1.27
589.0,1.136
590.0,1.187
591.0,1.25
592.0,1.237
593.0,1.251
594.0,1.244
595.0,1.217
596.0,1.257
597.0,1.245
598.0,1.24
599.0,1.24
600.0,1.239
601.0,1.228
602.0,1.219
603.0,1.238
604.0,1.259
605.0,1.252
606.0,1.246
607.0,1.257
608.0,1.242
609.0,1.244
610.0,1.234
611.0,1.24
612.0,1.236
613.0,1.22
614.0,1.203
615.0,1.228
616.0,1.187
617.0,1.184
618.0,1.23
619.0,1.217
620.0,1.225
621.0,1.226
622.0,1.213
623.0,1.195
624.0,1.174
625.0,1.171
626.0,1.189
627.0,1.204
628.0,1.146
629.0,1.183
630.0,1.156
631.0,1.175
632.0,1.16
633.0,1.192
634.0,1.178
635.0,1.195
636.0,1.178
637.0,1.196
638.0,1.206
639.0,1.192
640.0,1.179
641.0,1.178
642.0,1.172
643.0,1.188
644.0,1.183
645.0,1.185
646.0,1.16
647.0,1.152
648.0,1.154
649.0,1.132
650.0,1.13
651.0,1.177
652.0,1.137
653.0,1.162
654.0,1.148
655.0,1.109
656.0,0.9802
657.0,1.006
658.0,1.125
659.0,1.132
660.0,1.137
661.0,1.145
662.0,1.148
663.0,1.125
664.0,1.136
665.0,1.136
666.0,1.136
667.0,1.134
668.0,1.134
669.0,1.151
670.0,1.145
671.0,1.145
672.0,1.135
673.0,1.151
674.0,1.147
675.0,1.136
676.0,1.144
677.0,1.132
678.0,1.135
679.0,1.116
680.0,1.125
681.0,1.118
682.0,1.116
683.0,1.114
684.0,1.108
685.0,1.118
686.0,1.111
687.0,0.833
688.0,0.9296
689.0,0.9314
690.0,0.9617
691.0,0.9951
692.0,1.018
693.0,1.011
694.0,1.003
695.0,1.033
696.0,1.035
697.0,1.084
698.0,1.067
699.0,1.051
700.0,1.038
701.0,1.031
702.0,1.034
703.0,1.036
704.0,1.064
705.0,1.065
706.0,1.062
707.0,1.062
708.0,1.065
709.0,1.063
710.0,1.064
711.0,1.062
712.0,1.057
713.0,1.048
714.0,1.052
715.0,1.022
716.0,1.023
717.0,0.9226
718.0,0.8543
719.0,0.7867
720.0,0.8263
721.0,0.8898
722.0,0.9937
723.0,0.9379
724.0,0.8594
725.0,0.8506
726.0,0.8872
727.0,0.892
728.0,0.8498
729.0,0.8688
730.0,0.9184
731.0,0.8832
732.0,0.9312
733.0,0.9727
734.0,0.9924
735.0,0.9737
736.0,0.9721
737.0,0.9765
738.0,0.9832
739.0,0.9641
740.0,0.9866
741.0,0.9753
742.0,0.9747
743.0,0.9991
744.0,0.9953
745.0,0.9948
746.0,0.9993
747.0,1.001
748.0,0.9992
749.0,0.9877
750.0,0.987
751.0,0.977
752.0,0.9811
753.0,0.986
754.0,0.9882
755.0,0.9826
756.0,0.9821
757.0,0.9836
758.0,0.9715
759.0,0.9565
760.0,0.2664
761.0,0.1679
762.0,0.5891
763.0,0.3604
764.0,0.4818
765.0,0.5895
766.0,0.6747
767.0,0.8045
768.0,0.8924
769.0,0.9033
770.0,0.9252
771.0,0.9288
772.0,0.9295
773.0,0.9357
774.0,0.9309
775.0,0.9237
776.0,0.9348
777.0,0.9224
778.0,0.9169
779.0,0.9176
780.0,0.9124
781.0,0.9133
782.0,0.9189
783.0,0.9028
784.0,0.907
785.0,0.9006
786.0,0.9108
787.0,0.8986
788.0,0.8891
789.0,0.8893
790.0,0.8711
791.0,0.8734
792.0,0.8663
793.0,0.8529
794.0,0.8618
795.0,0.8778
796.0,0.8582
797.0,0.8594
798.0,0.8775
799.0,0.8733
800.0,0.86
801.0,0.8588
802.0,0.8562
803.0,0.8506
804.0,0.8509
805.0,0.8462
806.0,0.8665
807.0,0.8569
808.0,0.8572
809.0,0.8438
810.0,0.8388
811.0,0.8432
812.0,0.8243
813.0,0.8106
814.0,0.7311
815.0,0.7261
816.0,0.6787
817.0,0.6887
818.0,0.667
819.0,0.7297
820.0,0.6936
821.0,0.7892
822.0,0.7703
823.0,0.5589
824.0,0.755
825.0,0.7767
826.0,0.7536
827.0,0.7884
828.0,0.6878
829.0,0.7477
830.0,0.7401
831.0,0.7419
832.0,0.7227
833.0,0.7586
834.0,0.7382
835.0,0.7973
836.0,0.7716
837.0,0.799
838.0,0.7778
839.0,0.7862
840.0,0.8024
841.0,0.7926
842.0,0.7919
843.0,0.7889
844.0,0.7794
845.0,0.8037
846.0,0.7998
847.0,0.7842
848.0,0.7804
849.0,0.7583
850.0,0.7263
851.0,0.7702
852.0,0.7642
853.0,0.7347
854.0,0.6351
855.0,0.6967
856.0,0.7618
857.0,0.7781
858.0,0.7727
859.0,0.7729
860.0,0.7739
861.0,0.7698
862.0,0.7817
863.0,0.8002
864.0,0.7601
865.0,0.7534
866.0,0.6774
867.0,0.7069
868.0,0.7692
869.0,0.7532
870.0,0.7746
871.0,0.7641
872.0,0.7613
873.0,0.7598
874.0,0.7507
875.0,0.7356
876.0,0.7433
877.0,0.7507
878.0,0.7591
879.0,0.7473
880.0,0.7313
881.0,0.7209
882.0,0.7366
883.0,0.7385
884.0,0.7353
885.0,0.7408
886.0,0.7079
887.0,0.714
888.0,0.7255
889.0,0.732
890.0,0.7279
891.0,0.7256
892.0,0.7072
893.0,0.6884
894.0,0.6703
895.0,0.6412
896.0,0.608
897.0,0.5334
898.0,0.5755
899.0,0.4517
900.0,0.5826
901.0,0.4727
902.0,0.5365
903.0,0.5475
904.0,0.6652
905.0,0.6459
906.0,0.6075
907.0,0.51
908.0,0.5179
909.0,0.5529
910.0,0.5032
911.0,0.5279
912.0,0.5484
913.0,0.5113
914.0,0.5045
915.0,0.5451
916.0,0.4663
917.0,0.5754
918.0,0.4784
919.0,0.5824
920.0,0.5815
921.0,0.6027
922.0,0.5491
923.0,0.5818
924.0,0.5631
925.0,0.5513
926.0,0.5571
927.0,0.6139
928.0,0.4784
929.0,0.4443
930.0,0.3617
931.0,0.3404
932.0,0.2578
933.0,0.2168
934.0,0.1343
935.0,0.2158
936.0,0.1443
937.0,0.1477
938.0,0.1777
939.0,0.3299
940.0,0.3881
941.0,0.3049
942.0,0.3451
943.0,0.2365
944.0,0.2408
945.0,0.3124
946.0,0.172
947.0,0.317
948.0,0.2352
949.0,0.4112
950.0,0.1354
951.0,0.4027
952.0,0.2338
953.0,0.2905
954.0,0.3437
955.0,0.2924
956.0,0.2787
957.0,0.236
958.0,0.3766
959.0,0.3124
960.0,0.3496
961.0,0.3824
962.0,0.3633
963.0,0.41
964.0,0.3787
965.0,0.4073
966.0,0.4097
967.0,0.4086
968.0,0.5185
969.0,0.5433
970.0,0.5034
971.0,0.5634
972.0,0.5413
973.0,0.4841
974.0,0.4616
975.0,0.4739
976.0,0.4567
977.0,0.5066
978.0,0.4868
979.0,0.5055
980.0,0.4782
981.0,0.5595
982.0,0.5395
983.0,0.5208
984.0,0.5715
985.0,0.5373
986.0,0.5785
987.0,0.5703
988.0,0.5693
989.0,0.5749
990.0,0.5656
991.0,0.577
992.0,0.58
993.0,0.5702
994.0,0.5795
995.0,0.5783
996.0,0.5763
997.0,0.5768
998.0,0.5743
999.0,0.5721
1000.0,0.5688
1001.0,0.5751
1002.0,0.5623
1003.0,0.5651
1004.0,0.5521
1005.0,0.5307
1006.0,0.552
1007.0,0.5634
1008.0,0.5609
1009.0,0.5586
1010.0,0.5565
1011.0,0.5605
1012.0,0.5562
1013.0,0.559
1014.0,0.555
1015.0,0.5515
1016.0,0.5491
1017.0,0.5506
1018.0,0.5481
1019.0,0.5376
1020.0,0.5454
1021.0,0.5445
1022.0,0.5407
1023.0,0.5465
1024.0,0.5406
1025.0,0.5457
1026.0,0.5437
1027.0,0.5423
1028.0,0.5413
1029.0,0.535
1030.0,0.5383
1031.0,0.5363
1032.0,0.5346
1033.0,0.5265
1034.0,0.5265
1035.0,0.5282
1036.0,0.531
1037.0,0.5224
1038.0,0.5247
1039.0,0.5245
1040.0,0.5224
1041.0,0.5246
1042.0,0.5209
1043.0,0.5193
1044.0,0.5212
1045.0,0.5142
1046.0,0.5086
1047.0,0.5133
1048.0,0.5162
1049.0,0.5144
1050.0,0.5121
1051.0,0.5115
1052.0,0.5096
1053.0,0.5057
1054.0,0.5069
1055.0,0.5074
1056.0,0.5058
1057.0,0.5044
1058.0,0.4921
1059.0,0.4928
1060.0,0.4922
1061.0,0.4917
1062.0,0.4945
1063.0,0.4897
1064.0,0.4955
1065.0,0.4923
1066.0,0.4823
1067.0,0.4886
1068.0,0.4782
1069.0,0.4632
1070.0,0.4793
1071.0,0.4857
1072.0,0.4809
1073.0,0.4738
1074.0,0.4849
1075.0,0.4639
1076.0,0.4846
1077.0,0.4779
1078.0,0.4695
1079.0,0.4764
1080.0,0.4705
1081.0,0.4569
1082.0,0.4615
1083.0,0.4623
1084.0,0.4568
1085.0,0.4712
1086.0,0.4354
1087.0,0.4454
1088.0,0.4624
1089.0,0.4513
1090.0,0.4436
1091.0,0.4617
1092.0,0.4598
1093.0,0.3997
1094.0,0.4219
1095.0,0.4148
1096.0,0.4002
1097.0,0.449
1098.0,0.3949
1099.0,0.4103
1100.0,0.386
1101.0,0.3895
1102.0,0.3746
1103.0,0.373
1104.0,0.3732
1105.0,0.4019
1106.0,0.3245
1107.0,0.385
1108.0,0.3367
1109.0,0.3353
1110.0,0.3829
1111.0,0.2738
1112.0,0.3319
1113.0,0.2262
1114.0,0.2509
1115.0,0.2085
1116.0,0.1759
1117.0,0.07571
1118.0,0.1876
1119.0,0.1017
1120.0,0.128
1121.0,0.1644
1122.0,0.07672
1123.0,0.1154
1124.0,0.09754
1125.0,0.1252
1126.0,0.05122
1127.0,0.1405
1128.0,0.09222
1129.0,0.09648
1130.0,0.06743
1131.0,0.2477
1132.0,0.1979
1133.0,0.1353
1134.0,0.04127
1135.0,0.01519
1136.0,0.1165
1137.0,0.246
1138.0,0.1758
1139.0,0.2439
1140.0,0.2108
1141.0,0.167
1142.0,0.1881
1143.0,0.2596
1144.0,0.1003
1145.0,0.1302
1146.0,0.1405
1147.0,0.05757
1148.0,0.2249
1149.0,0.1853
1150.0,0.1076
1151.0,0.1745
1152.0,0.2081
1153.0,0.1979
1154.0,0.1281
1155.0,0.2547
1156.0,0.2328
1157.0,0.2563
1158.0,0.2533
1159.0,0.2685
1160.0,0.2353
1161.0,0.2794
1162.0,0.2815
1163.0,0.3628
1164.0,0.3177
1165.0,0.3055
1166.0,0.2995
1167.0,0.3229
1168.0,0.3276
1169.0,0.3331
1170.0,0.357
1171.0,0.349
1172.0,0.3525
1173.0,0.3563
1174.0,0.2686
1175.0,0.346
1176.0,0.3738
1177.0,0.363
1178.0,0.2834
1179.0,0.3765
1180.0,0.3434
1181.0,0.3536
1182.0,0.2557
1183.0,0.3465
1184.0,0.3286
1185.0,0.3204
1186.0,0.3687
1187.0,0.3546
1188.0,0.2609
1189.0,0.3312
1190.0,0.3603
1191.0,0.3478
1192.0,0.3647
1193.0,0.3516
1194.0,0.3609
1195.0,0.3453
1196.0,0.3352
1197.0,0.3588
1198.0,0.3316
1199.0,0.2914
1200.0,0.3475
1201.0,0.3383
1202.0,0.3345
1203.0,0.3318
1204.0,0.2956
1205.0,0.3395
1206.0,0.3698
1207.0,0.3346
1208.0,0.3265
1209.0,0.3325
1210.0,0.3443
1211.0,0.3315
1212.0,0.3314
1213.0,0.3595
1214.0,0.3373
1215.0,0.3319
1216.0,0.3582
1217.0,0.3506
1218.0,0.3555
1219.0,0.3519
1220.0,0.3556
1221.0,0.3582
1222.0,0.35
1223.0,0.3474
1224.0,0.3465
1225.0,0.3559
1226.0,0.3572
1227.0,0.3342
1228.0,0.358
1229.0,0.3572
1230.0,0.352
1231.0,0.3591
1232.0,0.3571
1233.0,0.3484
1234.0,0.3581
1235.0,0.3563
1236.0,0.3585
1237.0,0.3549
1238.0,0.3573
1239.0,0.3527
1240.0,0.3539
1241.0,0.3531
1242.0,0.3515
1243.0,0.3486
1244.0,0.3514
1245.0,0.3527
1246.0,0.3506
1247.0,0.3495
1248.0,0.3497
1249.0,0.3504
1250.0,0.3485
1251.0,0.3446
1252.0,0.344
1253.0,0.3425
1254.0,0.34
1255.0,0.344
1256.0,0.3366
1257.0,0.3352
1258.0,0.3397
1259.0,0.3309
1260.0,0.3322
1261.0,0.3182
1262.0,0.311
1263.0,0.3118
1264.0,0.2935
1265.0,0.3097
1266.0,0.3013
1267.0,0.3043
1268.0,0.2923
1269.0,0.2075
1270.0,0.3041
1271.0,0.3165
1272.0,0.317
1273.0,0.3142
1274.0,0.3145
1275.0,0.3182
1276.0,0.3204
1277.0,0.3215
1278.0,0.3258
1279.0,0.323
1280.0,0.3188
1281.0,0.3034
1282.0,0.2909
1283.0,0.3136
1284.0,0.3214
1285.0,0.3233
1286.0,0.3269
1287.0,0.3233
1288.0,0.3228
1289.0,0.3154
1290.0,0.3198
1291.0,0.3237
1292.0,0.3095
1293.0,0.3187
1294.0,0.3168
1295.0,0.3165
1296.0,0.3057
1297.0,0.292
1298.0,0.3087
1299.0,0.3186
1300.0,0.2794
1301.0,0.286
1302.0,0.3075
1303.0,0.2747
1304.0,0.2435
1305.0,0.302
1306.0,0.3025
1307.0,0.2456
1308.0,0.2737
1309.0,0.3009
1310.0,0.2413
1311.0,0.2644
1312.0,0.2588
1313.0,0.2552
1314.0,0.2318
1315.0,0.2308
1316.0,0.2618
1317.0,0.249
1318.0,0.2668
1319.0,0.2197
1320.0,0.2104
1321.0,0.2413
1322.0,0.2452
1323.0,0.1938
1324.0,0.2154
1325.0,0.2585
1326.0,0.2278
1327.0,0.2187
1328.0,0.1916
1329.0,0.1518
1330.0,0.1935
1331.0,0.1268
1332.0,0.1274
1333.0,0.1746
1334.0,0.1441
1335.0,0.1929
1336.0,0.1575
1337.0,0.1424
1338.0,0.1535
1339.0,0.1516
1340.0,0.145
1341.0,0.1472
1342.0,0.1542
1343.0,0.117
1344.0,0.06988
1345.0,0.09903
1346.0,0.05815
1347.0,0.0606
1348.0,0.006064
1349.0,0.01907
1350.0,0.01805
1351.0,0.006427
1352.0,0.002531
1353.0,0.0002078
1354.0,0.0005391
1355.0,1.092e-05
1356.0,0.000106
1357.0,0.0001585
1358.0,1.246e-05
1359.0,3.039e-06
1360.0,7.222e-06
1361.0,3.451e-08
1362.0,1.866e-10
1363.0,1.123e-05
1364.0,5.108e-06
1365.0,1.375e-10
1366.0,4.085e-05
1367.0,1.576e-05
1368.0,4.784e-12
1369.0,2.018e-06
1370.0,1.31e-06
1371.0,1.09e-07
1372.0,8.769e-06
1373.0,0.0001093
1374.0,0.0003699
1375.0,0.0006575
1376.0,0.0004782
1377.0,0.0002373
1378.0,0.001933
1379.0,0.0001023
1380.0,0.0001749
1381.0,5.803e-06
1382.0,8.529e-06
1383.0,1.757e-07
1384.0,2.525e-06
1385.0,6.01e-06
1386.0,9.118e-06
1387.0,0.0004457
1388.0,9.8e-06
1389.0,0.001096
1390.0,0.0009348
1391.0,0.0006812
1392.0,5.167e-05
1393.0,0.0002272
1394.0,0.000188
1395.0,2.138e-06
1396.0,4.13e-08
1397.0,0.0001034
1398.0,0.002216
1399.0,0.001414
1400.0,2.56e-08
1401.0,6.472e-08
1402.0,0.002646
1403.0,0.003557
1404.0,0.001123
1405.0,1.324e-06
1406.0,0.00326
1407.0,0.0002801
1408.0,0.002626
1409.0,0.001109
1410.0,0.0007957
1411.0,0.003093
1412.0,0.003742
1413.0,0.02686
1414.0,0.0006137
1415.0,0.0003314
1416.0,0.03701
1417.0,0.01393
1418.0,0.01588
1419.0,0.002621
1420.0,0.00985
1421.0,0.01094
1422.0,0.04739
1423.0,0.009991
1424.0,0.01806
1425.0,0.02734
1426.0,0.02877
1427.0,0.04752
1428.0,0.005866
1429.0,0.03781
1430.0,0.05891
1431.0,0.06332
1432.0,0.004708
1433.0,0.04231
1434.0,0.02257
1435.0,0.02606
1436.0,0.04458
1437.0,0.03428
1438.0,0.0161
1439.0,0.05808
1440.0,0.04392
1441.0,0.03609
1442.0,0.03931
1443.0,0.0454
1444.0,0.06138
1445.0,0.05109
1446.0,0.02395
1447.0,0.03777
1448.0,0.1049
1449.0,0.09419
1450.0,0.02795
1451.0,0.0121
1452.0,0.05963
1453.0,0.07638
1454.0,0.1205
1455.0,0.06082
1456.0,0.08339
1457.0,0.1054
1458.0,0.1183
1459.0,0.1408
