interpolation:linear
wavelength,value
280.0,1.054e-20
280.5,3.16e-19
281.0,1.644e-18
281.5,4.533e-19
282.0,1.507e-18
282.5,4.03e-18
283.0,1.307e-17
283.5,2.138e-17
284.0,3.392e-16
284.5,9.658e-16
285.0,1.861e-15
285.5,9.946e-15
286.0,4.068e-14
286.5,1.842e-13
287.0,5.269e-13
287.5,2.006e-12
288.0,5.332e-12
288.5,1.934e-11
289.0,5.921e-11
289.5,2.011e-10
290.0,6.05e-10
290.5,1.312e-09
291.0,3.011e-09
291.5,9.449e-09
292.0,2.286e-08
292.5,3.622e-08
293.0,9.108e-08
293.5,2.782e-07
294.0,5.159e-07
294.5,6.923e-07
295.0,1.393e-06
295.5,3.809e-06
296.0,7.526e-06
296.5,1.079e-05
297.0,1.49e-05
297.5,4.121e-05
298.0,6.671e-05
298.5,6.856e-05
299.0,0.0001544
299.5,0.000266
300.0,0.0002993
300.5,0.0004443
301.0,0.000839
301.5,0.0014
302.0,0.001231
302.5,0.002375
303.0,0.004195
303.5,0.005223
304.0,0.004865
304.5,0.00709
305.0,0.01039
305.5,0.01165
306.0,0.01118
306.5,0.01373
307.0,0.01974
307.5,0.02547
308.0,0.02678
308.5,0.03115
309.0,0.03038
309.5,0.03404
310.0,0.03387
310.5,0.05459
311.0,0.06796
311.5,0.06538
312.0,0.06421
312.5,0.0772
313.0,0.08321
313.5,0.08129
314.0,0.1002
314.5,0.08708
315.0,0.114
315.5,0.09633
316.0,0.08279
316.5,0.1172
317.0,0.1456
317.5,0.1521
318.0,0.1176
318.5,0.1433
319.0,0.1685
319.5,0.1394
320.0,0.1688
320.5,0.2073
321.0,0.1815
321.5,0.1737
322.0,0.1886
322.5,0.1639
323.0,0.1613
323.5,0.196
324.0,0.2283
324.5,0.233
325.0,0.2026
325.5,0.2579
326.0,0.3145
326.5,0.3129
327.0,0.3126
327.5,0.3029
328.0,0.2721
328.5,0.283
329.0,0.3359
329.5,0.3803
330.0,0.3845
330.5,0.3098
331.0,0.3164
331.5,0.32
332.0,0.3432
332.5,0.3384
333.0,0.3381
333.5,0.3076
334.0,0.3155
334.5,0.3618
335.0,0.3388
335.5,0.3958
336.0,0.2739
336.5,0.3213
337.0,0.2643
337.5,0.329
338.0,0.3197
338.5,0.3689
339.0,0.3651
339.5,0.3513
340.0,0.4129
340.5,0.372
341.0,0.3629
341.5,0.3331
342.0,0.3981
342.5,0.3725
343.0,0.4097
343.5,0.3859
344.0,0.2852
344.5,0.2881
345.0,0.3812
345.5,0.3892
346.0,0.3308
346.5,0.3745
347.0,0.4022
347.5,0.3252
348.0,0.3707
348.5,0.3705
349.0,0.3438
349.5,0.3404
350.0,0.421
350.5,0.4442
351.0,0.3968
351.5,0.3858
352.0,0.4143
352.5,0.3233
353.0,0.4073
353.5,0.4355
354.0,0.4522
354.5,0.4586
355.0,0.4571
355.5,0.413
356.0,0.4321
356.5,0.369
357.0,0.3049
357.5,0.3733
358.0,0.2959
358.5,0.2529
359.0,0.3537
359.5,0.4509
360.0,0.478
360.5,0.3821
361.0,0.3483
361.5,0.4011
362.0,0.3469
362.5,0.4801
363.0,0.4313
363.5,0.3973
364.0,0.486
364.5,0.4154
365.0,0.4231
365.5,0.5311
366.0,0.5628
366.5,0.5288
367.0,0.5151
367.5,0.5346
368.0,0.4679
368.5,0.4722
369.0,0.51
369.5,0.5436
370.0,0.5796
370.5,0.4499
371.0,0.4808
371.5,0.6015
372.0,0.3993
372.5,0.4788
373.0,0.4871
373.5,0.317
374.0,0.4607
374.5,0.3815
375.0,0.3709
375.5,0.5539
376.0,0.4592
376.5,0.4759
377.0,0.5039
377.5,0.5896
378.0,0.6392
378.5,0.6043
379.0,0.4987
379.5,0.4556
380.0,0.4738
380.5,0.5739
381.0,0.5752
381.5,0.456
382.0,0.405
382.5,0.3453
383.0,0.3197
383.5,0.308
384.0,0.3398
384.5,0.4998
385.0,0.4957
385.5,0.4617
386.0,0.3955
386.5,0.5196
387.0,0.4318
387.5,0.4851
388.0,0.4479
388.5,0.4428
389.0,0.4781
389.5,0.5791
390.0,0.5813
390.5,0.535
391.0,0.6298
391.5,0.6425
392.0,0.5412
392.5,0.4846
393.0,0.2697
393.5,0.196
394.0,0.399
394.5,0.5073
395.0,0.6191
395.5,0.629
396.0,0.5454
396.5,0.3189
397.0,0.2393
397.5,0.4868
398.0,0.6817
398.5,0.7047
399.0,0.7632
399.5,0.7608
400.0,0.7901
401.0,0.802
402.0,0.8462
403.0,0.804
404.0,0.7918
405.0,0.7918
406.0,0.7791
407.0,0.7666
408.0,0.7967
409.0,0.8528
410.0,0.7453
411.0,0.8074
412.0,0.8673
413.0,0.8459
414.0,0.8564
415.0,0.8588
416.0,0.8739
417.0,0.8525
418.0,0.8369
419.0,0.848
420.0,0.8443
421.0,0.8834
422.0,0.8397
423.0,0.8204
424.0,0.8678
425.0,0.8663
426.0,0.8439
427.0,0.8282
428.0,0.8068
429.0,0.7643
430.0,0.6689
431.0,0.6631
432.0,0.8562
433.0,0.8609
434.0,0.7995
435.0,0.8351
436.0,0.9409
437.0,0.9283
438.0,0.8454
439.0,0.8745
440.0,0.9024
441.0,0.935
442.0,1.003
443.0,0.9769
444.0,0.9981
445.0,0.9766
446.0,0.932
447.0,1.008
448.0,1.023
449.0,1.027
450.0,1.056
451.0,1.095
452.0,1.055
453.0,0.9926
454.0,1.036
455.0,1.043
456.0,1.067
457.0,1.085
458.0,1.048
459.0,1.043
460.0,1.046
461.0,1.07
462.0,1.078
463.0,1.071
464.0,1.053
465.0,1.04
466.0,1.05
467.0,1.03
468.0,1.043
469.0,1.048
470.0,1.015
471.0,1.013
472.0,1.068
473.0,1.054
474.0,1.056
475.0,1.065
476.0,1.033
477.0,1.036
478.0,1.065
479.0,1.058
480.0,1.06
481.0,1.08
482.0,1.085
483.0,1.072
484.0,1.05
485.0,1.0
486.0,0.8745
487.0,0.9164
488.0,1.005
489.0,1.009
490.0,1.061
491.0,1.043
492.0,0.9847
493.0,1.017
494.0,1.027
495.0,1.036
496.0,1.042
497.0,1.058
498.0,1.009
499.0,1.022
500.0,0.9922
501.0,0.9741
502.0,0.9605
503.0,0.9998
504.0,0.975
505.0,1.009
506.0,1.042
507.0,0.9916
508.0,0.9605
509.0,0.9874
510.0,0.982
511.0,1.008
512.0,1.019
513.0,0.9646
514.0,0.9579
515.0,0.9484
516.0,0.9461
517.0,0.8407
518.0,0.8838
519.0,0.927
520.0,0.9608
521.0,0.9699
522.0,0.9708
523.0,0.9534
524.0,0.9876
525.0,0.9993
526.0,0.9547
527.0,0.8997
528.0,0.9516
529.0,1.003
530.0,0.9888
531.0,1.003
532.0,0.969
533.0,0.9406
534.0,0.9684
535.0,0.9895
536.0,0.9985
537.0,0.9591
538.0,0.976
539.0,0.9678
540.0,0.9279
541.0,0.9342
542.0,0.9635
543.0,0.9533
544.0,0.9699
545.0,0.9669
546.0,0.9712
547.0,0.9707
548.0,0.9591
549.0,0.9619
550.0,0.9733
551.0,0.9615
552.0,0.9682
553.0,0.9509
554.0,0.9737
555.0,0.9756
556.0,0.963
557.0,0.9331
558.0,0.9261
559.0,0.9089
560.0,0.9203
561.0,0.9323
562.0,0.9256
563.0,0.951
564.0,0.9252
565.0,0.9173
566.0,0.9039
567.0,0.9211
568.0,0.9131
569.0,0.8918
570.0,0.8915
571.0,0.886
572.0,0.9076
573.0,0.9173
574.0,0.9145
575.0,0.8975
576.0,0.8893
577.0,0.8989
578.0,0.8853
579.0,0.8886
580.0,0.9052
581.0,0.9097
582.0,0.9267
583.0,0.9288
584.0,0.9368
585.0,0.9138
586.0,0.895
587.0,0.9148
588.0,0.893
589.0,0.7922
590.0,0.8284
591.0,0.876
592.0,0.8653
593.0,0.8776
594.0,0.8717
595.0,0.8506
596.0,0.8833
597.0,0.8739
598.0,0.8714
599.0,0.8721
600.0,0.8732
601.0,0.8659
602.0,0.86
603.0,0.8741
604.0,0.8886
605.0,0.8839
606.0,0.8802
607.0,0.8888
608.0,0.8789
609.0,0.8804
610.0,0.874
611.0,0.8785
612.0,0.8759
613.0,0.8648
614.0,0.853
615.0,0.8715
616.0,0.8427
617.0,0.841
618.0,0.8733
619.0,0.8644
620.0,0.8699
621.0,0.8708
622.0,0.8607
623.0,0.8476
624.0,0.833
625.0,0.8312
626.0,0.8435
627.0,0.8531
628.0,0.7988
629.0,0.8336
630.0,0.8145
631.0,0.8322
632.0,0.8221
633.0,0.8468
634.0,0.8383
635.0,0.8513
636.0,0.8399
637.0,0.8536
638.0,0.8616
639.0,0.8519
640.0,0.8435
641.0,0.8429
642.0,0.839
643.0,0.8503
644.0,0.8474
645.0,0.8489
646.0,0.8293
647.0,0.82
648.0,0.8208
649.0,0.805
650.0,0.8082
651.0,0.843
652.0,0.8087
653.0,0.8318
654.0,0.8225
655.0,0.7923
656.0,0.7019
657.0,0.7208
658.0,0.8075
659.0,0.8132
660.0,0.8166
661.0,0.8223
662.0,0.8241
663.0,0.8077
664.0,0.8171
665.0,0.8176
666.0,0.8182
667.0,0.8173
668.0,0.8176
669.0,0.8302
670.0,0.8266
671.0,0.8264
672.0,0.8193
673.0,0.8316
674.0,0.8284
675.0,0.8209
676.0,0.8265
677.0,0.8183
678.0,0.8206
679.0,0.8073
680.0,0.8137
681.0,0.8084
682.0,0.8073
683.0,0.8058
684.0,0.8018
685.0,0.8086
686.0,0.8038
687.0,0.5424
688.0,0.6315
689.0,0.6336
690.0,0.6632
691.0,0.6965
692.0,0.7206
693.0,0.7148
694.0,0.7088
695.0,0.7371
696.0,0.7381
697.0,0.782
698.0,0.7699
699.0,0.7523
700.0,0.7433
701.0,0.736
702.0,0.7407
703.0,0.7421
704.0,0.7653
705.0,0.7665
706.0,0.7656
707.0,0.7661
708.0,0.7678
709.0,0.7686
710.0,0.7687
711.0,0.7675
712.0,0.7651
713.0,0.7575
714.0,0.7603
715.0,0.7367
716.0,0.7372
717.0,0.6425
718.0,0.5906
719.0,0.5413
720.0,0.5673
721.0,0.6243
722.0,0.7122
723.0,0.6641
724.0,0.5996
725.0,0.5904
726.0,0.6178
727.0,0.6259
728.0,0.589
729.0,0.61
730.0,0.6455
731.0,0.6179
732.0,0.6597
733.0,0.6972
734.0,0.7134
735.0,0.6988
736.0,0.6979
737.0,0.7007
738.0,0.7108
739.0,0.6968
740.0,0.7147
741.0,0.7074
742.0,0.708
743.0,0.726
744.0,0.7238
745.0,0.7239
746.0,0.7272
747.0,0.7288
748.0,0.7272
749.0,0.7189
750.0,0.7185
751.0,0.7112
752.0,0.7142
753.0,0.7179
754.0,0.7195
755.0,0.7154
756.0,0.7151
757.0,0.7161
758.0,0.7072
759.0,0.6933
760.0,0.1225
761.0,0.06554
762.0,0.3622
763.0,0.1848
764.0,0.2745
765.0,0.3623
766.0,0.4414
767.0,0.5537
768.0,0.6363
769.0,0.6491
770.0,0.6705
771.0,0.6756
772.0,0.6769
773.0,0.6816
774.0,0.6783
775.0,0.6731
776.0,0.6813
777.0,0.6723
778.0,0.6683
779.0,0.6688
780.0,0.6651
781.0,0.6658
782.0,0.6699
783.0,0.6582
784.0,0.6614
785.0,0.6565
786.0,0.6638
787.0,0.6525
788.0,0.6445
789.0,0.6443
790.0,0.6276
791.0,0.6326
792.0,0.6279
793.0,0.6178
794.0,0.6279
795.0,0.6386
796.0,0.6196
797.0,0.6204
798.0,0.6379
799.0,0.6339
800.0,0.6231
801.0,0.6213
802.0,0.6195
803.0,0.6148
804.0,0.6156
805.0,0.6135
806.0,0.6304
807.0,0.6229
808.0,0.6234
809.0,0.6119
810.0,0.6071
811.0,0.6081
812.0,0.5911
813.0,0.579
814.0,0.5107
815.0,0.5075
816.0,0.4726
817.0,0.4811
818.0,0.4634
819.0,0.5169
820.0,0.4872
821.0,0.568
822.0,0.552
823.0,0.3778
824.0,0.5365
825.0,0.5582
826.0,0.5375
827.0,0.5668
828.0,0.4818
829.0,0.5341
830.0,0.5273
831.0,0.5291
832.0,0.5131
833.0,0.5453
834.0,0.5264
835.0,0.5774
836.0,0.5532
837.0,0.5789
838.0,0.5612
839.0,0.5701
840.0,0.5826
841.0,0.5744
842.0,0.5755
843.0,0.5751
844.0,0.5671
845.0,0.5862
846.0,0.5836
847.0,0.5727
848.0,0.5692
849.0,0.553
850.0,0.5298
851.0,0.561
852.0,0.557
853.0,0.5361
854.0,0.4629
855.0,0.5086
856.0,0.5558
857.0,0.5682
858.0,0.564
859.0,0.5645
860.0,0.5655
861.0,0.5624
862.0,0.5712
863.0,0.5847
864.0,0.5555
865.0,0.5506
866.0,0.4951
867.0,0.5167
868.0,0.5622
869.0,0.5505
870.0,0.5662
871.0,0.5585
872.0,0.5566
873.0,0.5554
874.0,0.5488
875.0,0.5377
876.0,0.5433
877.0,0.5488
878.0,0.5548
879.0,0.5462
880.0,0.5345
881.0,0.5265
882.0,0.5379
883.0,0.5396
884.0,0.5371
885.0,0.5412
886.0,0.5158
887.0,0.5213
888.0,0.5289
889.0,0.535
890.0,0.5305
891.0,0.5296
892.0,0.5143
893.0,0.4982
894.0,0.4808
895.0,0.4544
896.0,0.428
897.0,0.3678
898.0,0.4013
899.0,0.3053
900.0,0.4108
901.0,0.32
902.0,0.3754
903.0,0.3792
904.0,0.4772
905.0,0.4608
906.0,0.4312
907.0,0.3504
908.0,0.3574
909.0,0.3871
910.0,0.3424
911.0,0.3649
912.0,0.3815
913.0,0.3475
914.0,0.3445
915.0,0.3735
916.0,0.3161
917.0,0.4012
918.0,0.3241
919.0,0.4085
920.0,0.4127
921.0,0.4292
922.0,0.3837
923.0,0.4146
924.0,0.3932
925.0,0.3847
926.0,0.3888
927.0,0.4354
928.0,0.3191
929.0,0.2911
930.0,0.2284
931.0,0.2165
932.0,0.1555
933.0,0.1261
934.0,0.06864
935.0,0.1293
936.0,0.08038
937.0,0.08142
938.0,0.1003
939.0,0.2097
940.0,0.2526
941.0,0.1902
942.0,0.2206
943.0,0.1447
944.0,0.1527
945.0,0.1962
946.0,0.0993
947.0,0.197
948.0,0.1446
949.0,0.2642
950.0,0.0725
951.0,0.2603
952.0,0.139
953.0,0.1801
954.0,0.2215
955.0,0.1822
956.0,0.1773
957.0,0.1392
958.0,0.252
959.0,0.1995
960.0,0.2237
961.0,0.2516
962.0,0.2379
963.0,0.2748
964.0,0.2516
965.0,0.2738
966.0,0.2737
967.0,0.2725
968.0,0.3671
969.0,0.3833
970.0,0.3518
971.0,0.4034
972.0,0.3857
973.0,0.3351
974.0,0.3179
975.0,0.3303
976.0,0.3132
977.0,0.3573
978.0,0.3391
979.0,0.3554
980.0,0.334
981.0,0.4011
982.0,0.3832
983.0,0.3678
984.0,0.4136
985.0,0.3818
986.0,0.421
987.0,0.4126
988.0,0.4118
989.0,0.4199
990.0,0.4094
991.0,0.4211
992.0,0.4236
993.0,0.4139
994.0,0.4235
995.0,0.423
996.0,0.421
997.0,0.4217
998.0,0.4197
999.0,0.4182
1000.0,0.4152
1001.0,0.4204
1002.0,0.4086
1003.0,0.413
1004.0,0.4028
1005.0,0.3881
1006.0,0.4032
1007.0,0.4118
1008.0,0.4095
1009.0,0.4073
1010.0,0.4056
1011.0,0.4097
1012.0,0.4061
1013.0,0.4088
1014.0,0.4059
1015.0,0.4032
1016.0,0.4014
1017.0,0.4024
1018.0,0.4009
1019.0,0.3923
1020.0,0.3988
1021.0,0.3982
1022.0,0.3951
1023.0,0.3993
1024.0,0.394
1025.0,0.3991
1026.0,0.3973
1027.0,0.3964
1028.0,0.3956
1029.0,0.3909
1030.0,0.3936
1031.0,0.392
1032.0,0.3909
1033.0,0.385
1034.0,0.385
1035.0,0.3862
1036.0,0.3882
1037.0,0.3819
1038.0,0.3836
1039.0,0.3834
1040.0,0.3818
1041.0,0.3833
1042.0,0.3806
1043.0,0.3794
1044.0,0.3808
1045.0,0.3756
1046.0,0.3714
1047.0,0.3748
1048.0,0.3768
1049.0,0.3755
1050.0,0.3737
1051.0,0.3732
1052.0,0.3717
1053.0,0.3687
1054.0,0.3695
1055.0,0.3697
1056.0,0.3684
1057.0,0.3672
1058.0,0.3582
1059.0,0.3585
1060.0,0.358
1061.0,0.3575
1062.0,0.3594
1063.0,0.3558
1064.0,0.3601
1065.0,0.3574
1066.0,0.3504
1067.0,0.3549
1068.0,0.3471
1069.0,0.3364
1070.0,0.3478
1071.0,0.3533
1072.0,0.3492
1073.0,0.3442
1074.0,0.3531
1075.0,0.3352
1076.0,0.3528
1077.0,0.3464
1078.0,0.3398
1079.0,0.3472
1080.0,0.341
1081.0,0.33
1082.0,0.3355
1083.0,0.3366
1084.0,0.3291
1085.0,0.3418
1086.0,0.3116
1087.0,0.3219
1088.0,0.3362
1089.0,0.3256
1090.0,0.3183
1091.0,0.335
1092.0,0.3342
1093.0,0.2827
1094.0,0.3057
1095.0,0.2946
1096.0,0.2819
1097.0,0.3265
1098.0,0.2774
1099.0,0.2895
1100.0,0.2688
1101.0,0.2722
1102.0,0.2598
1103.0,0.2572
1104.0,0.2575
1105.0,0.2828
1106.0,0.2151
1107.0,0.2683
1108.0,0.2268
1109.0,0.2273
1110.0,0.2659
1111.0,0.1794
1112.0,0.2256
1113.0,0.1426
1114.0,0.1595
1115.0,0.1322
1116.0,0.1049
1117.0,0.0378
1118.0,0.1143
1119.0,0.05614
1120.0,0.07062
1121.0,0.09411
1122.0,0.03907
1123.0,0.06385
1124.0,0.05388
1125.0,0.07044
1126.0,0.02399
1127.0,0.07951
1128.0,0.04698
1129.0,0.04994
1130.0,0.03263
1131.0,0.1522
1132.0,0.1191
1133.0,0.07473
1134.0,0.01865
1135.0,0.007016
1136.0,0.06207
1137.0,0.1493
1138.0,0.105
1139.0,0.158
1140.0,0.1315
1141.0,0.09979
1142.0,0.1151
1143.0,0.164
1144.0,0.05658
1145.0,0.0721
1146.0,0.07775
1147.0,0.02679
1148.0,0.1419
1149.0,0.1129
1150.0,0.06093
1151.0,0.1042
1152.0,0.1287
1153.0,0.1258
1154.0,0.06979
1155.0,0.1648
1156.0,0.1482
1157.0,0.1667
1158.0,0.1649
1159.0,0.1781
1160.0,0.1519
1161.0,0.1877
1162.0,0.1887
1163.0,0.2555
1164.0,0.2189
1165.0,0.2063
1166.0,0.205
1167.0,0.2234
1168.0,0.2258
1169.0,0.2313
1170.0,0.2515
1171.0,0.2452
1172.0,0.2497
1173.0,0.2509
1174.0,0.179
1175.0,0.2452
1176.0,0.2695
1177.0,0.2587
1178.0,0.1943
1179.0,0.2717
1180.0,0.2425
1181.0,0.2503
1182.0,0.1727
1183.0,0.2464
1184.0,0.231
1185.0,0.2229
1186.0,0.2642
1187.0,0.2517
1188.0,0.1756
1189.0,0.2345
1190.0,0.2582
1191.0,0.2452
1192.0,0.2618
1193.0,0.2509
1194.0,0.2586
1195.0,0.2446
1196.0,0.2356
1197.0,0.2586
1198.0,0.2367
1199.0,0.2016
1200.0,0.2477
1201.0,0.239
1202.0,0.2376
1203.0,0.2356
1204.0,0.2061
1205.0,0.243
1206.0,0.2683
1207.0,0.237
1208.0,0.2332
1209.0,0.238
1210.0,0.2478
1211.0,0.2361
1212.0,0.2334
1213.0,0.2596
1214.0,0.239
1215.0,0.2345
1216.0,0.2587
1217.0,0.252
1218.0,0.2566
1219.0,0.2535
1220.0,0.2569
1221.0,0.2594
1222.0,0.2527
1223.0,0.2504
1224.0,0.2489
1225.0,0.2577
1226.0,0.2594
1227.0,0.2395
1228.0,0.2607
1229.0,0.2595
1230.0,0.2551
1231.0,0.2622
1232.0,0.2606
1233.0,0.2518
1234.0,0.2619
1235.0,0.2603
1236.0,0.2622
1237.0,0.2586
1238.0,0.2613
1239.0,0.2579
1240.0,0.2589
1241.0,0.2577
1242.0,0.2571
1243.0,0.255
1244.0,0.2569
1245.0,0.2579
1246.0,0.2564
1247.0,0.2555
1248.0,0.2553
1249.0,0.2561
1250.0,0.2545
1251.0,0.2513
1252.0,0.2513
1253.0,0.2493
1254.0,0.2469
1255.0,0.2511
1256.0,0.2441
1257.0,0.2428
1258.0,0.2473
1259.0,0.2385
1260.0,0.2397
1261.0,0.2264
1262.0,0.2197
1263.0,0.2202
1264.0,0.2034
1265.0,0.2187
1266.0,0.2106
1267.0,0.2142
1268.0,0.2033
1269.0,0.1271
1270.0,0.2135
1271.0,0.2257
1272.0,0.2264
1273.0,0.224
1274.0,0.2247
1275.0,0.2279
1276.0,0.2301
1277.0,0.2316
1278.0,0.2359
1279.0,0.2338
1280.0,0.2308
1281.0,0.2202
1282.0,0.2121
1283.0,0.2285
1284.0,0.234
1285.0,0.2355
1286.0,0.2386
1287.0,0.235
1288.0,0.2349
1289.0,0.2276
1290.0,0.2329
1291.0,0.2361
1292.0,0.222
1293.0,0.2316
1294.0,0.2299
1295.0,0.2289
1296.0,0.2187
1297.0,0.2069
1298.0,0.2225
1299.0,0.2318
1300.0,0.1966
1301.0,0.2026
1302.0,0.2218
1303.0,0.194
1304.0,0.1657
1305.0,0.2173
1306.0,0.2173
1307.0,0.1692
1308.0,0.1942
1309.0,0.2157
1310.0,0.166
1311.0,0.1863
1312.0,0.1813
1313.0,0.1778
1314.0,0.1592
1315.0,0.1572
1316.0,0.1834
1317.0,0.1737
1318.0,0.1887
1319.0,0.1477
1320.0,0.1431
1321.0,0.1666
1322.0,0.1683
1323.0,0.1268
1324.0,0.1449
1325.0,0.1808
1326.0,0.1552
1327.0,0.1481
1328.0,0.1277
1329.0,0.09592
1330.0,0.1249
1331.0,0.07532
1332.0,0.0778
1333.0,0.1083
1334.0,0.09177
1335.0,0.1263
1336.0,0.09984
1337.0,0.08824
1338.0,0.0955
1339.0,0.09509
1340.0,0.09252
1341.0,0.09027
1342.0,0.09482
1343.0,0.06401
1344.0,0.03834
1345.0,0.05532
1346.0,0.02732
1347.0,0.02775
1348.0,0.001788
1349.0,0.006438
1350.0,0.006699
1351.0,0.001618
1352.0,0.000435
1353.0,2.211e-05
1354.0,7.643e-05
1355.0,6.119e-07
1356.0,1.08e-05
1357.0,1.646e-05
1358.0,7.25e-07
1359.0,9.102e-08
1360.0,3.313e-07
1361.0,3.666e-10
1362.0,1e-12
1363.0,4.485e-07
1364.0,1.856e-07
1365.0,3.496e-13
1366.0,1.964e-06
1367.0,8.05e-07
1368.0,2.684e-15
1369.0,6.939e-08
1370.0,3.418e-08
1371.0,1.937e-09
1372.0,4.43e-07
1373.0,8.991e-06
1374.0,4.195e-05
1375.0,7.629e-05
1376.0,6.879e-05
1377.0,3.149e-05
1378.0,0.0003092
1379.0,1.323e-05
1380.0,1.904e-05
1381.0,4.964e-07
1382.0,3.994e-07
1383.0,5.974e-09
1384.0,7.844e-08
1385.0,3.788e-07
1386.0,3.556e-07
1387.0,4.348e-05
1388.0,8.577e-07
1389.0,0.0001482
1390.0,0.0001275
1391.0,8.5e-05
1392.0,5.52e-06
1393.0,2.937e-05
1394.0,1.511e-05
1395.0,1.107e-07
1396.0,5.293e-10
1397.0,1.168e-05
1398.0,0.0003473
1399.0,0.0002204
1400.0,2.281e-10
1401.0,9.538e-10
1402.0,0.0006182
1403.0,0.0007759
1404.0,0.0002363
1405.0,5.379e-08
1406.0,0.0006135
1407.0,5.427e-05
1408.0,0.0005021
1409.0,0.0001675
1410.0,0.0001346
1411.0,0.0006826
1412.0,0.0009245
1413.0,0.009681
1414.0,0.0001063
1415.0,5.087e-05
1416.0,0.01617
1417.0,0.004778
1418.0,0.005423
1419.0,0.0008366
1420.0,0.003314
1421.0,0.003585
1422.0,0.02114
1423.0,0.004063
1424.0,0.00765
1425.0,0.0112
1426.0,0.01287
1427.0,0.02403
1428.0,0.001677
1429.0,0.01778
1430.0,0.03079
1431.0,0.03396
1432.0,0.001318
1433.0,0.02141
1434.0,0.0108
1435.0,0.01047
1436.0,0.02072
1437.0,0.01588
1438.0,0.006566
1439.0,0.0284
1440.0,0.02126
1441.0,0.01593
1442.0,0.0177
1443.0,0.02266
