interpolation:linear
wavelength,value
280.0,6.516e-22
280.5,1.37e-20
281.0,6.32e-20
281.5,1.375e-18
282.0,8.856e-18
282.5,2.943e-17
283.0,1.116e-16
283.5,1.938e-16
284.0,3.632e-15
284.5,1.081e-14
285.0,3.016e-14
285.5,2.011e-13
286.0,8.791e-13
286.5,4.468e-12
287.0,1.368e-11
287.5,5.593e-11
288.0,1.914e-10
288.5,7.084e-10
289.0,2.212e-09
289.5,7.656e-09
290.0,2.338e-08
290.5,5.131e-08
291.0,1.193e-07
291.5,3.771e-07
292.0,8.476e-07
292.5,1.223e-06
293.0,2.707e-06
293.5,6.868e-06
294.0,1.107e-05
294.5,2.158e-05
295.0,3.799e-05
295.5,7.9e-05
296.0,0.0001396
296.5,0.000179
297.0,0.0002257
297.5,0.0005449
298.0,0.000786
298.5,0.0007386
299.0,0.001524
299.5,0.002254
300.0,0.002326
300.5,0.003156
301.0,0.005141
301.5,0.007457
302.0,0.006082
302.5,0.01109
303.0,0.01824
303.5,0.02175
304.0,0.01972
304.5,0.02685
305.0,0.03591
305.5,0.03805
306.0,0.03574
306.5,0.04237
307.0,0.05655
307.5,0.06807
308.0,0.07074
308.5,0.07961
309.0,0.07511
309.5,0.08024
310.0,0.07804
310.5,0.1244
311.0,0.152
311.5,0.1449
312.0,0.1367
312.5,0.1601
313.0,0.1701
313.5,0.1682
314.0,0.2007
314.5,0.1674
315.0,0.2175
315.5,0.1873
316.0,0.1556
316.5,0.214
317.0,0.2659
317.5,0.2799
318.0,0.212
318.5,0.249
319.0,0.2872
319.5,0.2447
320.0,0.2976
320.5,0.3519
321.0,0.2979
321.5,0.2841
322.0,0.3194
322.5,0.277
323.0,0.2662
323.5,0.316
324.0,0.3666
324.5,0.3775
325.0,0.3324
325.5,0.4154
326.0,0.5027
326.5,0.4939
327.0,0.4954
327.5,0.4826
328.0,0.4405
328.5,0.4489
329.0,0.5246
329.5,0.591
330.0,0.5994
330.5,0.4884
331.0,0.5006
331.5,0.5016
332.0,0.5312
332.5,0.5206
333.0,0.5216
333.5,0.4788
334.0,0.4915
334.5,0.5577
335.0,0.519
335.5,0.6058
336.0,0.419
336.5,0.4928
337.0,0.407
337.5,0.5072
338.0,0.4885
338.5,0.5634
339.0,0.5573
339.5,0.5358
340.0,0.6298
340.5,0.5668
341.0,0.5528
341.5,0.5073
342.0,0.606
342.5,0.5666
343.0,0.6231
343.5,0.5867
344.0,0.4332
344.5,0.4376
345.0,0.5787
345.5,0.5904
346.0,0.5015
346.5,0.5675
347.0,0.6092
347.5,0.4924
348.0,0.561
348.5,0.5605
349.0,0.5197
349.5,0.5143
350.0,0.6359
350.5,0.6705
351.0,0.5989
351.5,0.5822
352.0,0.6249
352.5,0.4874
353.0,0.6135
353.5,0.6558
354.0,0.6806
354.5,0.6901
355.0,0.6877
355.5,0.6209
356.0,0.6494
356.5,0.5544
357.0,0.4581
357.5,0.5607
358.0,0.4442
358.5,0.3795
359.0,0.5308
359.5,0.6765
360.0,0.717
360.5,0.5729
361.0,0.522
361.5,0.6007
362.0,0.5191
362.5,0.718
363.0,0.6445
363.5,0.5934
364.0,0.7255
364.5,0.6199
365.0,0.6312
365.5,0.792
366.0,0.8388
366.5,0.7878
367.0,0.767
367.5,0.7958
368.0,0.6963
368.5,0.7024
369.0,0.7583
369.5,0.8081
370.0,0.8612
370.5,0.6682
371.0,0.7138
371.5,0.8928
372.0,0.5925
372.5,0.7103
373.0,0.7222
373.5,0.4698
374.0,0.6825
374.5,0.5651
375.0,0.5492
375.5,0.8198
376.0,0.6795
376.5,0.7041
377.0,0.7453
377.5,0.8717
378.0,0.9449
378.5,0.8931
379.0,0.737
379.5,0.6732
380.0,0.6999
380.5,0.8474
381.0,0.8489
381.5,0.6727
382.0,0.5972
382.5,0.5089
383.0,0.471
383.5,0.4535
384.0,0.5002
384.5,0.7355
385.0,0.7293
385.5,0.679
386.0,0.5814
386.5,0.7635
387.0,0.6344
387.5,0.7124
388.0,0.6577
388.5,0.6499
389.0,0.7015
389.5,0.8495
390.0,0.8524
390.5,0.7843
391.0,0.923
391.5,0.9414
392.0,0.7928
392.5,0.7096
393.0,0.3947
393.5,0.2869
394.0,0.5837
394.5,0.7419
395.0,0.9052
395.5,0.9195
396.0,0.7971
396.5,0.4658
397.0,0.3495
397.5,0.7107
398.0,0.9953
398.5,1.029
399.0,1.113
399.5,1.11
400.0,1.152
401.0,1.172
402.0,1.236
403.0,1.174
404.0,1.155
405.0,1.155
406.0,1.135
407.0,1.117
408.0,1.16
409.0,1.241
410.0,1.084
411.0,1.174
412.0,1.26
413.0,1.229
414.0,1.243
415.0,1.246
416.0,1.267
417.0,1.236
418.0,1.212
419.0,1.228
420.0,1.222
421.0,1.278
422.0,1.215
423.0,1.186
424.0,1.254
425.0,1.252
426.0,1.218
427.0,1.195
428.0,1.164
429.0,1.102
430.0,0.9639
431.0,0.9555
432.0,1.233
433.0,1.239
434.0,1.151
435.0,1.202
436.0,1.353
437.0,1.334
438.0,1.214
439.0,1.257
440.0,1.296
441.0,1.342
442.0,1.439
443.0,1.402
444.0,1.432
445.0,1.401
446.0,1.336
447.0,1.443
448.0,1.467
449.0,1.471
450.0,1.511
451.0,1.567
452.0,1.51
453.0,1.419
454.0,1.481
455.0,1.49
456.0,1.525
457.0,1.55
458.0,1.498
459.0,1.49
460.0,1.494
461.0,1.528
462.0,1.539
463.0,1.528
464.0,1.502
465.0,1.482
466.0,1.495
467.0,1.468
468.0,1.486
469.0,1.493
470.0,1.446
471.0,1.444
472.0,1.521
473.0,1.502
474.0,1.504
475.0,1.518
476.0,1.474
477.0,1.479
478.0,1.519
479.0,1.509
480.0,1.511
481.0,1.539
482.0,1.545
483.0,1.526
484.0,1.494
485.0,1.422
486.0,1.243
487.0,1.302
488.0,1.428
489.0,1.433
490.0,1.507
491.0,1.48
492.0,1.398
493.0,1.443
494.0,1.458
495.0,1.47
496.0,1.479
497.0,1.502
498.0,1.432
499.0,1.45
500.0,1.409
501.0,1.383
502.0,1.365
503.0,1.422
504.0,1.391
505.0,1.437
506.0,1.483
507.0,1.411
508.0,1.366
509.0,1.403
510.0,1.395
511.0,1.431
512.0,1.446
513.0,1.369
514.0,1.359
515.0,1.345
516.0,1.342
517.0,1.192
518.0,1.254
519.0,1.315
520.0,1.363
521.0,1.376
522.0,1.378
523.0,1.353
524.0,1.402
525.0,1.42
526.0,1.356
527.0,1.279
528.0,1.353
529.0,1.427
530.0,1.407
531.0,1.428
532.0,1.379
533.0,1.339
534.0,1.378
535.0,1.408
536.0,1.42
537.0,1.364
538.0,1.387
539.0,1.376
540.0,1.319
541.0,1.329
542.0,1.372
543.0,1.356
544.0,1.381
545.0,1.376
546.0,1.383
547.0,1.382
548.0,1.365
549.0,1.368
550.0,1.385
551.0,1.368
552.0,1.377
553.0,1.353
554.0,1.385
555.0,1.388
556.0,1.37
557.0,1.328
558.0,1.319
559.0,1.295
560.0,1.311
561.0,1.329
562.0,1.32
563.0,1.357
564.0,1.321
565.0,1.31
566.0,1.291
567.0,1.316
568.0,1.307
569.0,1.28
570.0,1.279
571.0,1.27
572.0,1.304
573.0,1.318
574.0,1.314
575.0,1.291
576.0,1.279
577.0,1.292
578.0,1.272
579.0,1.275
580.0,1.296
581.0,1.301
582.0,1.323
583.0,1.325
584.0,1.335
585.0,1.302
586.0,1.275
587.0,1.305
588.0,1.278
589.0,1.143
590.0,1.194
591.0,1.258
592.0,1.245
593.0,1.259
594.0,1.252
595.0,1.225
596.0,1.265
597.0,1.253
598.0,1.248
599.0,1.247
600.0,1.247
601.0,1.235
602.0,1.227
603.0,1.246
604.0,1.267
605.0,1.26
606.0,1.253
607.0,1.265
608.0,1.25
609.0,1.252
610.0,1.242
611.0,1.248
612.0,1.244
613.0,1.228
614.0,1.21
615.0,1.236
616.0,1.195
617.0,1.192
618.0,1.237
619.0,1.224
620.0,1.232
621.0,1.234
622.0,1.22
623.0,1.202
624.0,1.181
625.0,1.179
626.0,1.196
627.0,1.211
628.0,1.153
629.0,1.19
630.0,1.164
631.0,1.182
632.0,1.167
633.0,1.199
634.0,1.185
635.0,1.203
636.0,1.185
637.0,1.204
638.0,1.214
639.0,1.199
640.0,1.187
641.0,1.185
642.0,1.179
643.0,1.195
644.0,1.19
645.0,1.192
646.0,1.167
647.0,1.159
648.0,1.161
649.0,1.139
650.0,1.137
651.0,1.185
652.0,1.144
653.0,1.169
654.0,1.155
655.0,1.116
656.0,0.9862
657.0,1.012
658.0,1.132
659.0,1.139
660.0,1.144
661.0,1.151
662.0,1.155
663.0,1.132
664.0,1.143
665.0,1.142
666.0,1.143
667.0,1.141
668.0,1.14
669.0,1.158
670.0,1.152
671.0,1.152
672.0,1.141
673.0,1.158
674.0,1.154
675.0,1.143
676.0,1.15
677.0,1.139
678.0,1.142
679.0,1.123
680.0,1.132
681.0,1.124
682.0,1.123
683.0,1.121
684.0,1.115
685.0,1.124
686.0,1.118
687.0,0.8393
688.0,0.936
689.0,0.9378
690.0,0.9681
691.0,1.002
692.0,1.024
693.0,1.018
694.0,1.01
695.0,1.04
696.0,1.041
697.0,1.09
698.0,1.073
699.0,1.057
700.0,1.045
701.0,1.037
702.0,1.041
703.0,1.043
704.0,1.07
705.0,1.072
706.0,1.069
707.0,1.069
708.0,1.071
709.0,1.069
710.0,1.071
711.0,1.068
712.0,1.063
713.0,1.054
714.0,1.058
715.0,1.028
716.0,1.03
717.0,0.9287
718.0,0.86
719.0,0.7921
720.0,0.8319
721.0,0.8955
722.0,0.9997
723.0,0.9438
724.0,0.865
725.0,0.8562
726.0,0.893
727.0,0.8978
728.0,0.8555
729.0,0.8744
730.0,0.9243
731.0,0.8889
732.0,0.9371
733.0,0.9787
734.0,0.9984
735.0,0.9795
736.0,0.978
737.0,0.9824
738.0,0.9891
739.0,0.9698
740.0,0.9924
741.0,0.981
742.0,0.9804
743.0,1.005
744.0,1.001
745.0,1.001
746.0,1.005
747.0,1.007
748.0,1.005
749.0,0.9934
750.0,0.9928
751.0,0.9827
752.0,0.9868
753.0,0.9917
754.0,0.994
755.0,0.9884
756.0,0.9878
757.0,0.9893
758.0,0.9771
759.0,0.9622
760.0,0.2698
761.0,0.1706
762.0,0.5941
763.0,0.3645
764.0,0.4865
765.0,0.5946
766.0,0.6798
767.0,0.8099
768.0,0.8979
769.0,0.9087
770.0,0.9307
771.0,0.9342
772.0,0.9349
773.0,0.9412
774.0,0.9363
775.0,0.929
776.0,0.9402
777.0,0.9278
778.0,0.9222
779.0,0.923
780.0,0.9177
781.0,0.9186
782.0,0.9243
783.0,0.9081
784.0,0.9123
785.0,0.9059
786.0,0.9161
787.0,0.9038
788.0,0.8944
789.0,0.8946
790.0,0.8763
791.0,0.8786
792.0,0.8714
793.0,0.858
794.0,0.8668
795.0,0.8829
796.0,0.8633
797.0,0.8645
798.0,0.8826
799.0,0.8784
800.0,0.865
801.0,0.8639
802.0,0.8613
803.0,0.8556
804.0,0.856
805.0,0.8512
806.0,0.8716
807.0,0.8619
808.0,0.8622
809.0,0.8487
810.0,0.8438
811.0,0.8482
812.0,0.8293
813.0,0.8155
814.0,0.7359
815.0,0.7309
816.0,0.6832
817.0,0.6932
818.0,0.6714
819.0,0.7343
820.0,0.698
821.0,0.794
822.0,0.775
823.0,0.5629
824.0,0.7597
825.0,0.7814
826.0,0.7583
827.0,0.7932
828.0,0.6922
829.0,0.7523
830.0,0.7447
831.0,0.7465
832.0,0.7272
833.0,0.7632
834.0,0.7428
835.0,0.802
836.0,0.7763
837.0,0.8037
838.0,0.7824
839.0,0.7908
840.0,0.8071
841.0,0.7973
842.0,0.7965
843.0,0.7935
844.0,0.7839
845.0,0.8084
846.0,0.8045
847.0,0.7887
848.0,0.7849
849.0,0.7627
850.0,0.7305
851.0,0.7747
852.0,0.7687
853.0,0.739
854.0,0.6388
855.0,0.7007
856.0,0.7662
857.0,0.7826
858.0,0.7771
859.0,0.7773
860.0,0.7784
861.0,0.7742
862.0,0.7862
863.0,0.8048
864.0,0.7645
865.0,0.7577
866.0,0.6813
867.0,0.711
868.0,0.7736
869.0,0.7575
870.0,0.7791
871.0,0.7685
872.0,0.7657
873.0,0.7642
874.0,0.7551
875.0,0.7398
876.0,0.7476
877.0,0.755
878.0,0.7634
879.0,0.7516
880.0,0.7355
881.0,0.725
882.0,0.7409
883.0,0.7427
884.0,0.7395
885.0,0.7451
886.0,0.712
887.0,0.7181
888.0,0.7297
889.0,0.7362
890.0,0.7321
891.0,0.7298
892.0,0.7113
893.0,0.6925
894.0,0.6744
895.0,0.6452
896.0,0.6119
897.0,0.537
898.0,0.5793
899.0,0.4549
900.0,0.5863
901.0,0.4761
902.0,0.54
903.0,0.5512
904.0,0.6693
905.0,0.6499
906.0,0.6113
907.0,0.5134
908.0,0.5214
909.0,0.5565
910.0,0.5067
911.0,0.5315
912.0,0.552
913.0,0.5149
914.0,0.508
915.0,0.5488
916.0,0.4696
917.0,0.5792
918.0,0.4817
919.0,0.5862
920.0,0.5851
921.0,0.6065
922.0,0.5526
923.0,0.5854
924.0,0.5668
925.0,0.5549
926.0,0.5608
927.0,0.6178
928.0,0.4819
929.0,0.4477
930.0,0.3646
931.0,0.3431
932.0,0.2601
933.0,0.2188
934.0,0.1359
935.0,0.2177
936.0,0.1458
937.0,0.1493
938.0,0.1795
939.0,0.3325
940.0,0.3911
941.0,0.3075
942.0,0.3479
943.0,0.2386
944.0,0.2428
945.0,0.315
946.0,0.1737
947.0,0.3197
948.0,0.2373
949.0,0.4145
950.0,0.1368
951.0,0.4058
952.0,0.236
953.0,0.293
954.0,0.3464
955.0,0.2949
956.0,0.281
957.0,0.2382
958.0,0.3793
959.0,0.3149
960.0,0.3524
961.0,0.3853
962.0,0.3661
963.0,0.413
964.0,0.3815
965.0,0.4102
966.0,0.4126
967.0,0.4116
968.0,0.5218
969.0,0.5468
970.0,0.5066
971.0,0.5668
972.0,0.5447
973.0,0.4874
974.0,0.4648
975.0,0.477
976.0,0.4598
977.0,0.5098
978.0,0.49
979.0,0.5088
980.0,0.4813
981.0,0.5629
982.0,0.5429
983.0,0.5241
984.0,0.5749
985.0,0.5407
986.0,0.5819
987.0,0.5737
988.0,0.5727
989.0,0.5782
990.0,0.5689
991.0,0.5803
992.0,0.5834
993.0,0.5736
994.0,0.5828
995.0,0.5817
996.0,0.5796
997.0,0.5802
998.0,0.5776
999.0,0.5754
1000.0,0.5721
1001.0,0.5784
1002.0,0.5656
1003.0,0.5683
1004.0,0.5553
1005.0,0.5338
1006.0,0.5552
1007.0,0.5667
1008.0,0.5642
1009.0,0.5618
1010.0,0.5598
1011.0,0.5637
1012.0,0.5595
1013.0,0.5622
1014.0,0.5582
1015.0,0.5547
1016.0,0.5522
1017.0,0.5537
1018.0,0.5513
1019.0,0.5407
1020.0,0.5485
1021.0,0.5476
1022.0,0.5438
1023.0,0.5496
1024.0,0.5437
1025.0,0.5488
1026.0,0.5468
1027.0,0.5455
1028.0,0.5444
1029.0,0.5381
1030.0,0.5413
1031.0,0.5394
1032.0,0.5377
1033.0,0.5296
1034.0,0.5296
1035.0,0.5312
1036.0,0.5341
1037.0,0.5254
1038.0,0.5277
1039.0,0.5275
1040.0,0.5254
1041.0,0.5276
1042.0,0.5239
1043.0,0.5223
1044.0,0.5242
1045.0,0.5172
1046.0,0.5116
1047.0,0.5162
1048.0,0.5192
1049.0,0.5174
1050.0,0.5151
1051.0,0.5145
1052.0,0.5125
1053.0,0.5086
1054.0,0.5098
1055.0,0.5103
1056.0,0.5087
1057.0,0.5073
1058.0,0.495
1059.0,0.4957
1060.0,0.495
1061.0,0.4946
1062.0,0.4973
1063.0,0.4926
1064.0,0.4984
1065.0,0.4952
1066.0,0.4851
1067.0,0.4915
1068.0,0.4811
1069.0,0.466
1070.0,0.4821
1071.0,0.4885
1072.0,0.4837
1073.0,0.4766
1074.0,0.4877
1075.0,0.4666
1076.0,0.4875
1077.0,0.4807
1078.0,0.4723
1079.0,0.4791
1080.0,0.4733
1081.0,0.4597
1082.0,0.4642
1083.0,0.4649
1084.0,0.4595
1085.0,0.474
1086.0,0.4381
1087.0,0.448
1088.0,0.4651
1089.0,0.454
1090.0,0.4463
1091.0,0.4645
1092.0,0.4625
1093.0,0.4022
1094.0,0.4244
1095.0,0.4174
1096.0,0.4027
1097.0,0.4517
1098.0,0.3974
1099.0,0.4129
1100.0,0.3886
1101.0,0.392
1102.0,0.3771
1103.0,0.3755
1104.0,0.3757
1105.0,0.4045
1106.0,0.3268
1107.0,0.3876
1108.0,0.3391
1109.0,0.3377
1110.0,0.3854
1111.0,0.2759
1112.0,0.3342
1113.0,0.2281
1114.0,0.2529
1115.0,0.2102
1116.0,0.1775
1117.0,0.07663
1118.0,0.1893
1119.0,0.1027
1120.0,0.1294
1121.0,0.166
1122.0,0.07761
1123.0,0.1166
1124.0,0.09855
1125.0,0.1265
1126.0,0.05189
1127.0,0.1419
1128.0,0.0933
1129.0,0.09758
1130.0,0.06828
1131.0,0.2498
1132.0,0.1997
1133.0,0.1367
1134.0,0.04183
1135.0,0.0154
1136.0,0.1178
1137.0,0.2482
1138.0,0.1774
1139.0,0.2458
1140.0,0.2125
1141.0,0.1685
1142.0,0.1898
1143.0,0.2617
1144.0,0.1013
1145.0,0.1315
1146.0,0.142
1147.0,0.05832
1148.0,0.2267
1149.0,0.1869
1150.0,0.1087
1151.0,0.1761
1152.0,0.2099
1153.0,0.1995
1154.0,0.1295
1155.0,0.2567
1156.0,0.2347
1157.0,0.2583
1158.0,0.2552
1159.0,0.2704
1160.0,0.2372
1161.0,0.2814
1162.0,0.2835
1163.0,0.3651
1164.0,0.3198
1165.0,0.3077
1166.0,0.3015
1167.0,0.325
1168.0,0.3298
1169.0,0.3353
1170.0,0.3593
1171.0,0.3512
1172.0,0.3547
1173.0,0.3585
1174.0,0.2705
1175.0,0.3482
1176.0,0.376
1177.0,0.3653
1178.0,0.2854
1179.0,0.3787
1180.0,0.3456
1181.0,0.3558
1182.0,0.2575
1183.0,0.3487
1184.0,0.3307
1185.0,0.3225
1186.0,0.3709
1187.0,0.3568
1188.0,0.2628
1189.0,0.3333
1190.0,0.3625
1191.0,0.35
1192.0,0.3669
1193.0,0.3537
1194.0,0.3631
1195.0,0.3475
1196.0,0.3374
1197.0,0.3609
1198.0,0.3336
1199.0,0.2933
1200.0,0.3496
1201.0,0.3404
1202.0,0.3366
1203.0,0.3339
1204.0,0.2975
1205.0,0.3416
1206.0,0.3719
1207.0,0.3367
1208.0,0.3285
1209.0,0.3345
1210.0,0.3463
1211.0,0.3336
1212.0,0.3335
1213.0,0.3617
1214.0,0.3394
1215.0,0.334
1216.0,0.3604
1217.0,0.3527
1218.0,0.3576
1219.0,0.354
1220.0,0.3577
1221.0,0.3603
1222.0,0.3521
1223.0,0.3495
1224.0,0.3486
1225.0,0.358
1226.0,0.3593
1227.0,0.3362
1228.0,0.3601
1229.0,0.3593
1230.0,0.3541
1231.0,0.3612
1232.0,0.3591
1233.0,0.3505
1234.0,0.3601
1235.0,0.3584
1236.0,0.3605
1237.0,0.357
1238.0,0.3593
1239.0,0.3547
1240.0,0.3559
1241.0,0.3551
1242.0,0.3535
1243.0,0.3506
1244.0,0.3534
1245.0,0.3547
1246.0,0.3526
1247.0,0.3515
1248.0,0.3517
1249.0,0.3524
1250.0,0.3505
1251.0,0.3466
1252.0,0.346
1253.0,0.3445
1254.0,0.342
1255.0,0.3459
1256.0,0.3386
1257.0,0.3372
1258.0,0.3416
1259.0,0.3329
1260.0,0.3342
1261.0,0.3201
1262.0,0.313
1263.0,0.3137
1264.0,0.2954
1265.0,0.3116
1266.0,0.3033
1267.0,0.3062
1268.0,0.2942
1269.0,0.2093
1270.0,0.306
1271.0,0.3185
1272.0,0.319
1273.0,0.3161
1274.0,0.3164
1275.0,0.3201
1276.0,0.3223
1277.0,0.3234
1278.0,0.3277
1279.0,0.3249
1280.0,0.3207
1281.0,0.3051
1282.0,0.2926
1283.0,0.3154
1284.0,0.3233
1285.0,0.3252
1286.0,0.3287
1287.0,0.3252
1288.0,0.3247
1289.0,0.3173
1290.0,0.3216
1291.0,0.3256
1292.0,0.3113
1293.0,0.3206
1294.0,0.3187
1295.0,0.3184
1296.0,0.3076
1297.0,0.2939
1298.0,0.3106
1299.0,0.3205
1300.0,0.2812
1301.0,0.2878
1302.0,0.3094
1303.0,0.2764
1304.0,0.2452
1305.0,0.3038
1306.0,0.3044
1307.0,0.2472
1308.0,0.2754
1309.0,0.3027
1310.0,0.2429
1311.0,0.2661
1312.0,0.2604
1313.0,0.2569
1314.0,0.2333
1315.0,0.2324
1316.0,0.2635
1317.0,0.2506
1318.0,0.2685
1319.0,0.2213
1320.0,0.2119
1321.0,0.2429
1322.0,0.2469
1323.0,0.1953
1324.0,0.2169
1325.0,0.2602
1326.0,0.2293
1327.0,0.2203
1328.0,0.193
1329.0,0.1531
1330.0,0.195
1331.0,0.128
1332.0,0.1285
1333.0,0.176
1334.0,0.1452
1335.0,0.1944
1336.0,0.1587
1337.0,0.1436
1338.0,0.1548
1339.0,0.1529
1340.0,0.1462
1341.0,0.1484
1342.0,0.1556
1343.0,0.1182
1344.0,0.07063
1345.0,0.1
1346.0,0.0589
1347.0,0.0614
1348.0,0.006191
1349.0,0.01942
1350.0,0.01835
1351.0,0.006577
1352.0,0.002605
1353.0,0.0002157
1354.0,0.0005568
1355.0,1.145e-05
1356.0,0.0001101
1357.0,0.0001646
1358.0,1.306e-05
1359.0,3.218e-06
1360.0,7.598e-06
1361.0,3.718e-08
1362.0,2.035e-10
1363.0,1.182e-05
1364.0,5.393e-06
1365.0,1.516e-10
1366.0,4.289e-05
1367.0,1.655e-05
1368.0,5.399e-12
1369.0,2.133e-06
1370.0,1.39e-06
1371.0,1.165e-07
1372.0,9.212e-06
1373.0,0.0001139
1374.0,0.0003834
1375.0,0.0006807
1376.0,0.0004939
1377.0,0.0002454
1378.0,0.001992
1379.0,0.0001059
1380.0,0.0001814
1381.0,6.049e-06
1382.0,8.969e-06
1383.0,1.859e-07
1384.0,2.672e-06
1385.0,6.294e-06
1386.0,9.614e-06
1387.0,0.0004627
1388.0,1.021e-05
1389.0,0.001133
1390.0,0.0009655
1391.0,0.0007048
1392.0,5.364e-05
1393.0,0.0002351
1394.0,0.0001958
1395.0,2.247e-06
1396.0,4.436e-08
1397.0,0.0001073
1398.0,0.002283
1399.0,0.001458
1400.0,2.765e-08
1401.0,6.937e-08
1402.0,0.002711
1403.0,0.003648
1404.0,0.001152
1405.0,1.397e-06
1406.0,0.00335
1407.0,0.0002881
1408.0,0.002697
1409.0,0.001143
1410.0,0.0008197
1411.0,0.003172
1412.0,0.00383
1413.0,0.02731
1414.0,0.000632
1415.0,0.000342
1416.0,0.03754
1417.0,0.01419
1418.0,0.01617
1419.0,0.002671
1420.0,0.01003
1421.0,0.01115
1422.0,0.04804
1423.0,0.01015
1424.0,0.01833
1425.0,0.02776
1426.0,0.02917
1427.0,0.04808
1428.0,0.005991
1429.0,0.0383
1430.0,0.05957
1431.0,0.064
1432.0,0.004811
1433.0,0.04282
1434.0,0.02286
1435.0,0.02647
1436.0,0.04517
1437.0,0.03474
1438.0,0.01635
1439.0,0.05879
1440.0,0.04447
1441.0,0.03659
1442.0,0.03984
1443.0,0.04594
1444.0,0.06208
1445.0,0.05173
1446.0,0.02427
1447.0,0.03829
1448.0,0.1058
1449.0,0.09515
1450.0,0.02833
1451.0,0.01228
1452.0,0.0603
1453.0,0.0772
1454.0,0.1216
1455.0,0.06145
1456.0,0.08429
1457.0,0.1064
1458.0,0.1193
1459.0,0.142
1460.0,0.0774
1461.0,0.08342
1462.0,0.117
1463.0,0.04164
