interpolation:linear
wavelength,value
280.0,5.429e-20
280.5,1.512e-18
281.0,7.679e-18
281.5,4.683e-19
282.0,2.087e-18
282.5,5.946e-18
283.0,1.987e-17
283.5,3.282e-17
284.0,5.17e-16
284.5,1.457e-15
285.0,2.929e-15
285.5,1.828e-14
286.0,7.843e-14
286.5,3.83e-13
287.0,1.147e-12
287.5,4.591e-12
288.0,1.349e-11
288.5,5.378e-11
289.0,1.815e-10
289.5,6.863e-10
290.0,2.258e-09
290.5,5.286e-09
291.0,1.327e-08
291.5,4.594e-08
292.0,1.229e-07
292.5,1.93e-07
293.0,4.776e-07
293.5,1.418e-06
294.0,2.581e-06
294.5,3.36e-06
295.0,6.534e-06
295.5,1.563e-05
296.0,2.961e-05
296.5,4.063e-05
297.0,5.409e-05
297.5,0.0001414
298.0,0.0002179
298.5,0.0002153
299.0,0.0004664
299.5,0.0007489
300.0,0.0008089
300.5,0.001149
301.0,0.002014
301.5,0.003117
302.0,0.002628
302.5,0.004948
303.0,0.008468
303.5,0.01034
304.0,0.009502
304.5,0.0134
305.0,0.01877
305.5,0.02047
306.0,0.01944
306.5,0.02345
307.0,0.03249
307.5,0.04049
308.0,0.04232
308.5,0.04843
309.0,0.04664
309.5,0.05107
310.0,0.05026
310.5,0.08057
311.0,0.09942
311.5,0.09525
312.0,0.09175
312.5,0.1089
313.0,0.1166
313.5,0.1145
314.0,0.139
314.5,0.1184
315.0,0.1545
315.5,0.1317
316.0,0.1113
316.5,0.1555
317.0,0.1931
317.5,0.2025
318.0,0.155
318.5,0.1855
319.0,0.216
319.5,0.1814
320.0,0.2201
320.5,0.2653
321.0,0.2284
321.5,0.2182
322.0,0.2411
322.5,0.2093
323.0,0.2036
323.5,0.2446
324.0,0.2844
324.5,0.2915
325.0,0.255
325.5,0.3217
326.0,0.391
326.5,0.3866
327.0,0.387
327.5,0.376
328.0,0.3404
328.5,0.3505
329.0,0.4129
329.5,0.4664
330.0,0.4723
330.5,0.3826
331.0,0.3914
331.5,0.3941
332.0,0.4201
332.5,0.413
333.0,0.4132
333.5,0.3776
334.0,0.3874
334.5,0.442
335.0,0.4126
335.5,0.4819
336.0,0.3334
336.5,0.3916
337.0,0.3227
337.5,0.402
338.0,0.3889
338.5,0.4487
339.0,0.444
339.5,0.427
340.0,0.5019
340.5,0.452
341.0,0.4409
341.5,0.4046
342.0,0.4835
342.5,0.4522
343.0,0.4974
343.5,0.4684
344.0,0.346
344.5,0.3496
345.0,0.4624
345.5,0.4719
346.0,0.4009
346.5,0.4539
347.0,0.4873
347.5,0.394
348.0,0.449
348.5,0.4487
349.0,0.4161
349.5,0.412
350.0,0.5095
350.5,0.5373
351.0,0.4801
351.5,0.4667
352.0,0.5011
352.5,0.3909
353.0,0.4922
353.5,0.5263
354.0,0.5463
354.5,0.554
355.0,0.5521
355.5,0.4987
356.0,0.5217
356.5,0.4454
357.0,0.3681
357.5,0.4506
358.0,0.3571
358.5,0.3051
359.0,0.4268
359.5,0.5439
360.0,0.5766
360.5,0.4608
361.0,0.42
361.5,0.4835
362.0,0.418
362.5,0.5783
363.0,0.5193
363.5,0.4783
364.0,0.5849
364.5,0.4999
365.0,0.5091
365.5,0.6389
366.0,0.6769
366.5,0.6359
367.0,0.6192
367.5,0.6426
368.0,0.5623
368.5,0.5674
369.0,0.6127
369.5,0.653
370.0,0.6961
370.5,0.5402
371.0,0.5772
371.5,0.7221
372.0,0.4792
372.5,0.5746
373.0,0.5844
373.5,0.3802
374.0,0.5525
374.5,0.4575
375.0,0.4447
375.5,0.664
376.0,0.5504
376.5,0.5704
377.0,0.6039
377.5,0.7065
378.0,0.7658
378.5,0.7239
379.0,0.5974
379.5,0.5457
380.0,0.5674
380.5,0.6872
381.0,0.6886
381.5,0.5458
382.0,0.4847
382.5,0.4131
383.0,0.3824
383.5,0.3683
384.0,0.4063
384.5,0.5976
385.0,0.5926
385.5,0.5518
386.0,0.4726
386.5,0.6208
387.0,0.5158
387.5,0.5794
388.0,0.5349
388.5,0.5287
389.0,0.5708
389.5,0.6913
390.0,0.6937
390.5,0.6384
391.0,0.7515
391.5,0.7665
392.0,0.6456
392.5,0.578
393.0,0.3216
393.5,0.2337
394.0,0.4756
394.5,0.6047
395.0,0.7379
395.5,0.7496
396.0,0.6499
396.5,0.3799
397.0,0.2851
397.5,0.5798
398.0,0.8119
398.5,0.8392
399.0,0.9086
399.5,0.9056
400.0,0.9405
401.0,0.9557
402.0,1.008
403.0,0.9576
404.0,0.9428
405.0,0.9426
406.0,0.9271
407.0,0.912
408.0,0.9477
409.0,1.014
410.0,0.8861
411.0,0.9597
412.0,1.031
413.0,1.005
414.0,1.017
415.0,1.02
416.0,1.037
417.0,1.012
418.0,0.993
419.0,1.006
420.0,1.001
421.0,1.048
422.0,0.9957
423.0,0.9725
424.0,1.029
425.0,1.027
426.0,0.9996
427.0,0.9809
428.0,0.9555
429.0,0.9047
430.0,0.7917
431.0,0.7848
432.0,1.013
433.0,1.018
434.0,0.9457
435.0,0.9877
436.0,1.113
437.0,1.097
438.0,0.999
439.0,1.034
440.0,1.066
441.0,1.105
442.0,1.185
443.0,1.154
444.0,1.179
445.0,1.153
446.0,1.1
447.0,1.189
448.0,1.208
449.0,1.212
450.0,1.246
451.0,1.292
452.0,1.245
453.0,1.17
454.0,1.221
455.0,1.229
456.0,1.258
457.0,1.279
458.0,1.236
459.0,1.229
460.0,1.233
461.0,1.261
462.0,1.27
463.0,1.261
464.0,1.24
465.0,1.224
466.0,1.235
467.0,1.213
468.0,1.227
469.0,1.234
470.0,1.194
471.0,1.193
472.0,1.257
473.0,1.241
474.0,1.243
475.0,1.254
476.0,1.217
477.0,1.221
478.0,1.254
479.0,1.246
480.0,1.248
481.0,1.271
482.0,1.277
483.0,1.261
484.0,1.235
485.0,1.176
486.0,1.028
487.0,1.077
488.0,1.182
489.0,1.186
490.0,1.247
491.0,1.225
492.0,1.157
493.0,1.195
494.0,1.207
495.0,1.217
496.0,1.224
497.0,1.243
498.0,1.185
499.0,1.201
500.0,1.166
501.0,1.145
502.0,1.129
503.0,1.176
504.0,1.148
505.0,1.188
506.0,1.226
507.0,1.167
508.0,1.13
509.0,1.161
510.0,1.154
511.0,1.185
512.0,1.197
513.0,1.133
514.0,1.125
515.0,1.114
516.0,1.111
517.0,0.9874
518.0,1.038
519.0,1.089
520.0,1.129
521.0,1.139
522.0,1.141
523.0,1.12
524.0,1.161
525.0,1.175
526.0,1.122
527.0,1.058
528.0,1.119
529.0,1.18
530.0,1.163
531.0,1.181
532.0,1.14
533.0,1.107
534.0,1.139
535.0,1.164
536.0,1.174
537.0,1.128
538.0,1.148
539.0,1.138
540.0,1.091
541.0,1.099
542.0,1.134
543.0,1.121
544.0,1.141
545.0,1.138
546.0,1.143
547.0,1.142
548.0,1.128
549.0,1.132
550.0,1.145
551.0,1.131
552.0,1.139
553.0,1.119
554.0,1.145
555.0,1.148
556.0,1.133
557.0,1.098
558.0,1.09
559.0,1.07
560.0,1.083
561.0,1.098
562.0,1.09
563.0,1.12
564.0,1.09
565.0,1.081
566.0,1.065
567.0,1.086
568.0,1.077
569.0,1.054
570.0,1.053
571.0,1.046
572.0,1.073
573.0,1.084
574.0,1.081
575.0,1.061
576.0,1.052
577.0,1.063
578.0,1.046
579.0,1.05
580.0,1.068
581.0,1.073
582.0,1.092
583.0,1.094
584.0,1.103
585.0,1.076
586.0,1.054
587.0,1.077
588.0,1.054
589.0,0.9383
590.0,0.9808
591.0,1.035
592.0,1.024
593.0,1.037
594.0,1.03
595.0,1.007
596.0,1.042
597.0,1.032
598.0,1.028
599.0,1.029
600.0,1.029
601.0,1.02
602.0,1.013
603.0,1.029
604.0,1.046
605.0,1.041
606.0,1.036
607.0,1.046
608.0,1.034
609.0,1.035
610.0,1.027
611.0,1.033
612.0,1.029
613.0,1.016
614.0,1.002
615.0,1.024
616.0,0.9896
617.0,0.9874
618.0,1.025
619.0,1.015
620.0,1.021
621.0,1.022
622.0,1.011
623.0,0.9957
624.0,0.9783
625.0,0.9761
626.0,0.9906
627.0,1.003
628.0,0.9464
629.0,0.9823
630.0,0.96
631.0,0.9783
632.0,0.966
633.0,0.9939
634.0,0.9831
635.0,0.9979
636.0,0.9841
637.0,0.9997
638.0,1.009
639.0,0.9969
640.0,0.9867
641.0,0.9858
642.0,0.9809
643.0,0.9941
644.0,0.9905
645.0,0.9923
646.0,0.9704
647.0,0.9616
648.0,0.9628
649.0,0.9443
650.0,0.9454
651.0,0.9856
652.0,0.9485
653.0,0.9724
654.0,0.9612
655.0,0.9274
656.0,0.8206
657.0,0.8425
658.0,0.9431
659.0,0.9493
660.0,0.9531
661.0,0.9597
662.0,0.9623
663.0,0.943
664.0,0.9532
665.0,0.9532
666.0,0.9536
667.0,0.9524
668.0,0.9524
669.0,0.9669
670.0,0.9626
671.0,0.9622
672.0,0.9538
673.0,0.968
674.0,0.9642
675.0,0.9553
676.0,0.9617
677.0,0.952
678.0,0.9546
679.0,0.9391
680.0,0.9465
681.0,0.9403
682.0,0.939
683.0,0.9372
684.0,0.9325
685.0,0.9404
686.0,0.9349
687.0,0.665
688.0,0.758
689.0,0.76
690.0,0.79
691.0,0.8236
692.0,0.8472
693.0,0.841
694.0,0.8341
695.0,0.8632
696.0,0.8644
697.0,0.9106
698.0,0.8966
699.0,0.8795
700.0,0.869
701.0,0.8616
702.0,0.8659
703.0,0.8674
704.0,0.8925
705.0,0.8939
706.0,0.8921
707.0,0.8923
708.0,0.8944
709.0,0.894
710.0,0.8948
711.0,0.893
712.0,0.8896
713.0,0.8813
714.0,0.8845
715.0,0.8582
716.0,0.8592
717.0,0.7614
718.0,0.7021
719.0,0.6449
720.0,0.6767
721.0,0.7369
722.0,0.8321
723.0,0.7804
724.0,0.7096
725.0,0.7005
726.0,0.732
727.0,0.7387
728.0,0.6994
729.0,0.7197
730.0,0.7615
731.0,0.7304
732.0,0.7751
733.0,0.8146
734.0,0.8323
735.0,0.8159
736.0,0.8148
737.0,0.8182
738.0,0.8269
739.0,0.8107
740.0,0.8306
741.0,0.8217
742.0,0.8217
743.0,0.8424
744.0,0.8396
745.0,0.8394
746.0,0.8433
747.0,0.845
748.0,0.8432
749.0,0.8336
750.0,0.833
751.0,0.8246
752.0,0.8281
753.0,0.8322
754.0,0.8341
755.0,0.8294
756.0,0.829
757.0,0.8302
758.0,0.8199
759.0,0.8056
760.0,0.1788
761.0,0.1038
762.0,0.457
763.0,0.2554
764.0,0.3598
765.0,0.4573
766.0,0.5399
767.0,0.6602
768.0,0.7454
769.0,0.7574
770.0,0.7791
771.0,0.7836
772.0,0.7847
773.0,0.79
774.0,0.7861
775.0,0.78
776.0,0.7894
777.0,0.779
778.0,0.7743
779.0,0.775
780.0,0.7706
781.0,0.7713
782.0,0.7761
783.0,0.7626
784.0,0.7662
785.0,0.7606
786.0,0.7691
787.0,0.7574
788.0,0.7488
789.0,0.7487
790.0,0.7313
791.0,0.7352
792.0,0.7295
793.0,0.718
794.0,0.7276
795.0,0.7406
796.0,0.7212
797.0,0.7223
798.0,0.7401
799.0,0.736
800.0,0.724
801.0,0.7225
802.0,0.7204
803.0,0.7153
804.0,0.7159
805.0,0.7127
806.0,0.7311
807.0,0.7227
808.0,0.7231
809.0,0.7108
810.0,0.7059
811.0,0.7084
812.0,0.6905
813.0,0.6776
814.0,0.6041
815.0,0.6001
816.0,0.5597
817.0,0.5689
818.0,0.5495
819.0,0.6073
820.0,0.5747
821.0,0.6622
822.0,0.6449
823.0,0.4538
824.0,0.6294
825.0,0.6512
826.0,0.6293
827.0,0.6611
828.0,0.5691
829.0,0.6249
830.0,0.6176
831.0,0.6195
832.0,0.6021
833.0,0.6361
834.0,0.6165
835.0,0.6711
836.0,0.6462
837.0,0.6728
838.0,0.6535
839.0,0.6622
840.0,0.6763
841.0,0.6674
842.0,0.6678
843.0,0.6663
844.0,0.6576
845.0,0.679
846.0,0.6758
847.0,0.6629
848.0,0.6593
849.0,0.6405
850.0,0.6136
851.0,0.6502
852.0,0.6454
853.0,0.6208
854.0,0.5364
855.0,0.5888
856.0,0.6437
857.0,0.6577
858.0,0.653
859.0,0.6533
860.0,0.6544
861.0,0.6508
862.0,0.661
863.0,0.6766
864.0,0.6427
865.0,0.6371
866.0,0.5728
867.0,0.5978
868.0,0.6505
869.0,0.637
870.0,0.6551
871.0,0.6462
872.0,0.6439
873.0,0.6426
874.0,0.6349
875.0,0.6221
876.0,0.6286
877.0,0.6349
878.0,0.6419
879.0,0.632
880.0,0.6184
881.0,0.6094
882.0,0.6227
883.0,0.6244
884.0,0.6216
885.0,0.6263
886.0,0.5977
887.0,0.6035
888.0,0.6127
889.0,0.619
890.0,0.6147
891.0,0.6132
892.0,0.5966
893.0,0.5792
894.0,0.5614
895.0,0.5338
896.0,0.5043
897.0,0.4376
898.0,0.475
899.0,0.3667
900.0,0.4837
901.0,0.3842
902.0,0.4437
903.0,0.4504
904.0,0.5572
905.0,0.5395
906.0,0.506
907.0,0.4178
908.0,0.4251
909.0,0.4573
910.0,0.4101
911.0,0.4337
912.0,0.4521
913.0,0.4164
914.0,0.4119
915.0,0.446
916.0,0.3792
917.0,0.4751
918.0,0.389
919.0,0.4822
920.0,0.4842
921.0,0.503
922.0,0.4537
923.0,0.4857
924.0,0.4653
925.0,0.4553
926.0,0.4603
927.0,0.5114
928.0,0.3861
929.0,0.3553
930.0,0.2838
931.0,0.2681
932.0,0.1977
933.0,0.1632
934.0,0.09472
935.0,0.1649
936.0,0.1062
937.0,0.1081
938.0,0.1317
939.0,0.2598
940.0,0.3094
941.0,0.2378
942.0,0.2726
943.0,0.1827
944.0,0.1893
945.0,0.2444
946.0,0.1289
947.0,0.2467
948.0,0.1819
949.0,0.3258
950.0,0.09752
951.0,0.32
952.0,0.1778
953.0,0.2258
954.0,0.2725
955.0,0.2279
956.0,0.2191
957.0,0.1787
958.0,0.3043
959.0,0.2464
960.0,0.2761
961.0,0.3063
962.0,0.2903
963.0,0.3315
964.0,0.3048
965.0,0.33
966.0,0.3308
967.0,0.3297
968.0,0.4313
969.0,0.4513
970.0,0.416
971.0,0.4715
972.0,0.4519
973.0,0.3981
974.0,0.3786
975.0,0.3911
976.0,0.3739
977.0,0.4205
978.0,0.4016
979.0,0.4191
980.0,0.395
981.0,0.4685
982.0,0.4497
983.0,0.4327
984.0,0.4809
985.0,0.4479
986.0,0.4882
987.0,0.4799
988.0,0.479
989.0,0.486
990.0,0.476
991.0,0.4876
992.0,0.4903
993.0,0.4806
994.0,0.49
995.0,0.4892
996.0,0.4872
997.0,0.4879
998.0,0.4856
999.0,0.4838
1000.0,0.4807
1001.0,0.4864
1002.0,0.4741
1003.0,0.4778
1004.0,0.4664
1005.0,0.4489
1006.0,0.4667
1007.0,0.4765
1008.0,0.4741
1009.0,0.4718
1010.0,0.4699
1011.0,0.474
1012.0,0.4701
1013.0,0.4728
1014.0,0.4695
1015.0,0.4664
1016.0,0.4644
1017.0,0.4656
1018.0,0.4637
1019.0,0.4542
1020.0,0.4613
1021.0,0.4606
1022.0,0.4572
1023.0,0.4621
1024.0,0.4565
1025.0,0.4616
1026.0,0.4597
1027.0,0.4586
1028.0,0.4577
1029.0,0.4523
1030.0,0.4553
1031.0,0.4535
1032.0,0.4522
1033.0,0.4454
1034.0,0.4454
1035.0,0.4467
1036.0,0.4491
1037.0,0.4418
1038.0,0.4438
1039.0,0.4435
1040.0,0.4418
1041.0,0.4436
1042.0,0.4405
1043.0,0.4391
1044.0,0.4407
1045.0,0.4347
1046.0,0.4299
1047.0,0.4338
1048.0,0.4362
1049.0,0.4347
1050.0,0.4327
1051.0,0.4322
1052.0,0.4305
1053.0,0.4271
1054.0,0.4281
1055.0,0.4284
1056.0,0.427
1057.0,0.4257
1058.0,0.4153
1059.0,0.4158
1060.0,0.4152
1061.0,0.4147
1062.0,0.417
1063.0,0.4129
1064.0,0.4178
1065.0,0.4149
1066.0,0.4066
1067.0,0.4119
1068.0,0.403
1069.0,0.3905
1070.0,0.4039
1071.0,0.4098
1072.0,0.4053
1073.0,0.3994
1074.0,0.4093
1075.0,0.39
1076.0,0.409
1077.0,0.4024
1078.0,0.3951
1079.0,0.4023
1080.0,0.3962
1081.0,0.3841
1082.0,0.3892
1083.0,0.3902
1084.0,0.3835
1085.0,0.397
1086.0,0.3642
1087.0,0.3745
1088.0,0.39
1089.0,0.3792
1090.0,0.3716
1091.0,0.389
1092.0,0.3878
1093.0,0.3323
1094.0,0.3552
1095.0,0.3457
1096.0,0.3321
1097.0,0.3787
1098.0,0.3273
1099.0,0.3409
1100.0,0.3184
1101.0,0.322
1102.0,0.3085
1103.0,0.3062
1104.0,0.3065
1105.0,0.3334
1106.0,0.2611
1107.0,0.3178
1108.0,0.2731
1109.0,0.2728
1110.0,0.3155
1111.0,0.2189
1112.0,0.2705
1113.0,0.1773
1114.0,0.1975
1115.0,0.1639
1116.0,0.134
1117.0,0.05268
1118.0,0.1447
1119.0,0.07451
1120.0,0.0939
1121.0,0.1229
1122.0,0.0541
1123.0,0.08476
1124.0,0.07157
1125.0,0.09272
1126.0,0.03463
1127.0,0.1044
1128.0,0.06498
1129.0,0.06857
1130.0,0.04619
1131.0,0.192
1132.0,0.1517
1133.0,0.09935
1134.0,0.02734
1135.0,0.01015
1136.0,0.08402
1137.0,0.1895
1138.0,0.1342
1139.0,0.1941
1140.0,0.1645
1141.0,0.1275
1142.0,0.1454
1143.0,0.204
1144.0,0.07432
1145.0,0.09573
1146.0,0.1033
1147.0,0.03879
1148.0,0.1766
1149.0,0.1429
1150.0,0.07972
1151.0,0.1332
1152.0,0.1618
1153.0,0.156
1154.0,0.09325
1155.0,0.2025
1156.0,0.1836
1157.0,0.2042
1158.0,0.2019
1159.0,0.2162
1160.0,0.1866
1161.0,0.2263
1162.0,0.2277
1163.0,0.3011
1164.0,0.2607
1165.0,0.2481
1166.0,0.2448
1167.0,0.2655
1168.0,0.2689
1169.0,0.2744
1170.0,0.2963
1171.0,0.2892
1172.0,0.2933
1173.0,0.2957
1174.0,0.2165
1175.0,0.288
1176.0,0.3139
1177.0,0.3031
1178.0,0.2318
1179.0,0.3163
1180.0,0.2853
1181.0,0.2942
1182.0,0.2075
1183.0,0.289
1184.0,0.2724
1185.0,0.2641
1186.0,0.3087
1187.0,0.2954
1188.0,0.2115
1189.0,0.2755
1190.0,0.3016
1191.0,0.2888
1192.0,0.3055
1193.0,0.2937
1194.0,0.3021
1195.0,0.2874
1196.0,0.2779
1197.0,0.3013
1198.0,0.277
1199.0,0.2395
1200.0,0.2901
1201.0,0.2812
1202.0,0.2787
1203.0,0.2765
1204.0,0.2439
1205.0,0.284
1206.0,0.3115
1207.0,0.2784
1208.0,0.2728
1209.0,0.2781
1210.0,0.2889
1211.0,0.2766
1212.0,0.275
1213.0,0.3022
1214.0,0.2808
1215.0,0.2759
1216.0,0.3011
1217.0,0.2939
1218.0,0.2987
1219.0,0.2954
1220.0,0.2989
1221.0,0.3015
1222.0,0.2941
1223.0,0.2917
1224.0,0.2905
1225.0,0.2996
1226.0,0.3011
1227.0,0.2798
1228.0,0.3022
1229.0,0.3011
1230.0,0.2964
1231.0,0.3035
1232.0,0.3018
1233.0,0.293
1234.0,0.3029
1235.0,0.3012
1236.0,0.3032
1237.0,0.2997
1238.0,0.3022
1239.0,0.2983
1240.0,0.2994
1241.0,0.2984
1242.0,0.2974
1243.0,0.2949
1244.0,0.2972
1245.0,0.2984
1246.0,0.2966
1247.0,0.2956
1248.0,0.2956
1249.0,0.2963
1250.0,0.2946
1251.0,0.2911
1252.0,0.2908
1253.0,0.2891
1254.0,0.2866
1255.0,0.2907
1256.0,0.2836
1257.0,0.2822
1258.0,0.2867
1259.0,0.2779
1260.0,0.2791
1261.0,0.2655
1262.0,0.2586
1263.0,0.2592
1264.0,0.2417
1265.0,0.2575
1266.0,0.2492
1267.0,0.2526
1268.0,0.2412
1269.0,0.1607
1270.0,0.2521
1271.0,0.2644
1272.0,0.265
1273.0,0.2624
1274.0,0.263
1275.0,0.2664
1276.0,0.2686
1277.0,0.2699
1278.0,0.2742
1279.0,0.2718
1280.0,0.2683
1281.0,0.2557
1282.0,0.2457
1283.0,0.2648
1284.0,0.2712
1285.0,0.2729
1286.0,0.2762
1287.0,0.2726
1288.0,0.2724
1289.0,0.265
1290.0,0.2699
1291.0,0.2734
1292.0,0.2593
1293.0,0.2687
1294.0,0.2669
1295.0,0.2663
1296.0,0.2557
1297.0,0.2431
1298.0,0.2593
1299.0,0.2688
1300.0,0.2317
1301.0,0.238
1302.0,0.2583
1303.0,0.2282
1304.0,0.1985
1305.0,0.2533
1306.0,0.2536
1307.0,0.2014
1308.0,0.2279
1309.0,0.252
1310.0,0.1978
1311.0,0.2194
1312.0,0.2141
1313.0,0.2106
1314.0,0.1899
1315.0,0.1883
1316.0,0.2166
1317.0,0.2056
1318.0,0.2219
1319.0,0.178
1320.0,0.1715
1321.0,0.1982
1322.0,0.2008
1323.0,0.1549
1324.0,0.1746
1325.0,0.2137
1326.0,0.1858
1327.0,0.1778
1328.0,0.1545
1329.0,0.1192
1330.0,0.1536
1331.0,0.09644
1332.0,0.0983
1333.0,0.1359
1334.0,0.1134
1335.0,0.1543
1336.0,0.1239
1337.0,0.1106
1338.0,0.1196
1339.0,0.1186
1340.0,0.1144
1341.0,0.1139
1342.0,0.1194
1343.0,0.08547
1344.0,0.05099
1345.0,0.07313
1346.0,0.03938
1347.0,0.04056
1348.0,0.003229
1349.0,0.01092
1350.0,0.01087
1351.0,0.003174
1352.0,0.001039
1353.0,6.627e-05
1354.0,0.0001986
1355.0,2.508e-06
1356.0,3.296e-05
1357.0,4.987e-05
1358.0,2.917e-06
1359.0,5.122e-07
1360.0,1.503e-06
1361.0,3.428e-09
1362.0,1.29e-11
1363.0,2.22e-06
1364.0,9.481e-07
1365.0,6.619e-12
1366.0,8.875e-06
1367.0,3.472e-06
1368.0,1.091e-13
1369.0,3.624e-07
1370.0,2.054e-07
1371.0,1.398e-08
1372.0,1.914e-06
1373.0,3.068e-05
1374.0,0.0001221
1375.0,0.0002219
1376.0,0.0001773
1377.0,8.427e-05
1378.0,0.0007635
1379.0,3.572e-05
1380.0,5.633e-05
1381.0,1.633e-06
1382.0,1.795e-06
1383.0,3.096e-08
1384.0,4.326e-07
1385.0,1.457e-06
1386.0,1.759e-06
1387.0,0.000138
1388.0,2.796e-06
1389.0,0.0003972
1390.0,0.0003416
1391.0,0.0002366
1392.0,1.638e-05
1393.0,7.966e-05
1394.0,5.243e-05
1395.0,4.684e-07
1396.0,4.497e-09
1397.0,3.382e-05
1398.0,0.0008698
1399.0,0.0005512
1400.0,2.334e-09
1401.0,7.561e-09
1402.0,0.001253
1403.0,0.001634
1404.0,0.0005065
1405.0,2.572e-07
1406.0,0.001401
1407.0,0.0001198
1408.0,0.001135
1409.0,0.0004269
1410.0,0.0003202
1411.0,0.001427
1412.0,0.001826
1413.0,0.01597
1414.0,0.0002495
1415.0,0.0001266
1416.0,0.02412
1417.0,0.007998
1418.0,0.009175
1419.0,0.001458
1420.0,0.005642
1421.0,0.006132
1422.0,0.03129
1423.0,0.006252
1424.0,0.01155
1425.0,0.01724
1426.0,0.01894
1427.0,0.03337
1428.0,0.00308
1429.0,0.0256
1430.0,0.04205
1431.0,0.0458
1432.0,0.002443
1433.0,0.02967
1434.0,0.01536
1435.0,0.01628
1436.0,0.02997
1437.0,0.02296
1438.0,0.0101
1439.0,0.04012
1440.0,0.03012
1441.0,0.02364
1442.0,0.02609
1443.0,0.03173
1444.0,0.04349
1445.0,0.03486
1446.0,0.01593
1447.0,0.02506
1448.0,0.07903
1449.0,0.06941
1450.0,0.01855
1451.0,0.007646
1452.0,0.04254
1453.0,0.05541
