interpolation:linear
wavelength,value
280.0,2.917e-22
280.5,9.588e-21
281.0,5.1390000000000004e-20
281.5,4.066e-19
282.0,6.69e-19
282.5,1.66e-18
283.0,5.25e-18
283.5,8.548e-18
284.0,1.407e-16
284.5,4.105e-16
285.0,6.775e-16
285.5,3.383e-15
286.0,1.364e-14
286.5,6.145e-14
287.0,1.763e-13
287.5,6.799e-13
288.0,2.348e-12
288.5,7.077e-12
289.0,1.88e-11
289.5,5.667e-11
290.0,1.572e-10
290.5,3.203e-10
291.0,6.873e-10
291.5,1.973e-09
292.0,3.986e-09
292.5,5.605e-09
293.0,1.205e-08
293.5,2.943e-08
294.0,4.611e-08
294.5,6.319e-08
295.0,1.072e-07
295.5,1.809e-07
296.0,3.526e-07
296.5,4.987e-07
297.0,6.816e-07
297.5,1.862e-06
298.0,2.986e-06
298.5,3.05e-06
299.0,6.837e-06
299.5,1.174e-05
300.0,1.318e-05
300.5,1.953e-05
301.0,3.681e-05
301.5,6.104e-05
302.0,5.332e-05
302.5,0.0001076
303.0,0.0002026
303.5,0.0002648
304.0,0.0002578
304.5,0.0004233
305.0,0.0007364
305.5,0.0009218
306.0,0.0009239
306.5,0.00122
307.0,0.002064
307.5,0.003123
308.0,0.003369
308.5,0.004246
309.0,0.004323
309.5,0.005458
310.0,0.005736
310.5,0.0095
311.0,0.01237
311.5,0.01213
312.0,0.01312
312.5,0.01681
313.0,0.01874
313.5,0.01775
314.0,0.0236
314.5,0.0227
315.0,0.03027
315.5,0.02435
316.0,0.02271
316.5,0.03451
317.0,0.04281
317.5,0.04384
318.0,0.03555
318.5,0.04749
319.0,0.05848
319.5,0.04494
320.0,0.05382
320.5,0.07257
321.0,0.06909
321.5,0.0667
322.0,0.06619
322.5,0.0578
323.0,0.06032
323.5,0.07744
324.0,0.09109
324.5,0.09076
325.0,0.07657
325.5,0.1023
326.0,0.1264
326.5,0.1298
327.0,0.1282
327.5,0.1225
328.0,0.1056
328.5,0.1155
329.0,0.1427
329.5,0.1635
330.0,0.1637
330.5,0.128
331.0,0.1294
331.5,0.1339
332.0,0.1485
332.5,0.1487
333.0,0.1473
333.5,0.1308
334.0,0.1337
334.5,0.1577
335.0,0.1501
335.5,0.1759
336.0,0.1217
336.5,0.1413
337.0,0.115
337.5,0.1426
338.0,0.1418
338.5,0.1645
339.0,0.163
339.5,0.1568
340.0,0.1836
340.5,0.1658
341.0,0.1623
341.5,0.1494
342.0,0.1787
342.5,0.1674
343.0,0.1839
343.5,0.1731
344.0,0.1276
344.5,0.1292
345.0,0.1714
345.5,0.1753
346.0,0.1492
346.5,0.1691
347.0,0.1815
347.5,0.1468
348.0,0.1676
348.5,0.1678
349.0,0.1558
349.5,0.1543
350.0,0.1911
350.5,0.2016
351.0,0.1801
351.5,0.1748
352.0,0.1881
352.5,0.147
353.0,0.1854
353.5,0.1984
354.0,0.2062
354.5,0.2092
355.0,0.2085
355.5,0.1886
356.0,0.1974
356.5,0.1687
357.0,0.1394
357.5,0.1708
358.0,0.1354
358.5,0.1158
359.0,0.162
359.5,0.2064
360.0,0.2189
360.5,0.1751
361.0,0.1598
361.5,0.1842
362.0,0.1595
362.5,0.221
363.0,0.1987
363.5,0.1832
364.0,0.2243
364.5,0.1918
365.0,0.1955
365.5,0.2455
366.0,0.2603
366.5,0.2449
367.0,0.2386
367.5,0.2478
368.0,0.217
368.5,0.2191
369.0,0.2368
369.5,0.2526
370.0,0.2694
370.5,0.2093
371.0,0.2238
371.5,0.2802
372.0,0.186
372.5,0.2232
373.0,0.2273
373.5,0.148
374.0,0.2152
374.5,0.1784
375.0,0.1735
375.5,0.2591
376.0,0.2149
376.5,0.2228
377.0,0.2361
377.5,0.2765
378.0,0.2998
378.5,0.2835
379.0,0.2341
379.5,0.2139
380.0,0.2225
380.5,0.2697
381.0,0.2705
381.5,0.2147
382.0,0.1908
382.5,0.1629
383.0,0.1509
383.5,0.1455
384.0,0.1606
384.5,0.2364
385.0,0.2346
385.5,0.2186
386.0,0.1874
386.5,0.2464
387.0,0.2048
387.5,0.2302
388.0,0.2127
388.5,0.2104
389.0,0.2273
389.5,0.2755
390.0,0.2767
390.5,0.2548
391.0,0.3002
391.5,0.3063
392.0,0.2582
392.5,0.2313
393.0,0.1288
393.5,0.09371
394.0,0.1908
394.5,0.2428
395.0,0.2964
395.5,0.3013
396.0,0.2614
396.5,0.1529
397.0,0.1149
397.5,0.2338
398.0,0.3274
398.5,0.3387
399.0,0.3671
399.5,0.3662
400.0,0.3803
401.0,0.3837
402.0,0.4054
403.0,0.3857
404.0,0.3802
405.0,0.3806
406.0,0.375
407.0,0.3695
408.0,0.3842
409.0,0.4116
410.0,0.3602
411.0,0.3906
412.0,0.4203
413.0,0.4101
414.0,0.4157
415.0,0.4174
416.0,0.4254
417.0,0.4153
418.0,0.408
419.0,0.4139
420.0,0.4124
421.0,0.4319
422.0,0.4109
423.0,0.4018
424.0,0.4252
425.0,0.425
426.0,0.4147
427.0,0.4073
428.0,0.3971
429.0,0.3768
430.0,0.3301
431.0,0.3272
432.0,0.4231
433.0,0.4259
434.0,0.3957
435.0,0.4134
436.0,0.4665
437.0,0.461
438.0,0.4202
439.0,0.4342
440.0,0.4485
441.0,0.4654
442.0,0.4994
443.0,0.4863
444.0,0.4975
445.0,0.4868
446.0,0.4655
447.0,0.504
448.0,0.5116
449.0,0.5146
450.0,0.5295
451.0,0.5495
452.0,0.5299
453.0,0.4988
454.0,0.5214
455.0,0.5247
456.0,0.5375
457.0,0.5466
458.0,0.5277
459.0,0.5252
460.0,0.5265
461.0,0.5389
462.0,0.5437
463.0,0.54
464.0,0.532
465.0,0.5262
466.0,0.5319
467.0,0.522
468.0,0.5283
469.0,0.5311
470.0,0.5142
471.0,0.5138
472.0,0.5414
473.0,0.5344
474.0,0.5347
475.0,0.5387
476.0,0.5219
477.0,0.5228
478.0,0.5376
479.0,0.5348
480.0,0.5363
481.0,0.547
482.0,0.5506
483.0,0.5449
484.0,0.5343
485.0,0.5096
486.0,0.4461
487.0,0.468
488.0,0.5135
489.0,0.5149
490.0,0.5421
491.0,0.5331
492.0,0.5036
493.0,0.5202
494.0,0.5255
495.0,0.5301
496.0,0.5334
497.0,0.5416
498.0,0.5162
499.0,0.5225
500.0,0.5069
501.0,0.4971
502.0,0.4891
503.0,0.5079
504.0,0.4921
505.0,0.5121
506.0,0.5286
507.0,0.5032
508.0,0.4885
509.0,0.5029
510.0,0.5008
511.0,0.5149
512.0,0.5209
513.0,0.4931
514.0,0.49
515.0,0.4851
516.0,0.4838
517.0,0.4301
518.0,0.4521
519.0,0.4742
520.0,0.4913
521.0,0.4959
522.0,0.496
523.0,0.4869
524.0,0.5038
525.0,0.509
526.0,0.4859
527.0,0.4573
528.0,0.4831
529.0,0.5088
530.0,0.5012
531.0,0.5084
532.0,0.4908
533.0,0.4764
534.0,0.4908
535.0,0.5018
536.0,0.5068
537.0,0.4871
538.0,0.4959
539.0,0.4917
540.0,0.4713
541.0,0.4735
542.0,0.4879
543.0,0.4834
544.0,0.4911
545.0,0.4897
546.0,0.4911
547.0,0.4915
548.0,0.486
549.0,0.4877
550.0,0.4936
551.0,0.4877
552.0,0.4911
553.0,0.4822
554.0,0.4936
555.0,0.4944
556.0,0.4878
557.0,0.4724
558.0,0.4684
559.0,0.4591
560.0,0.4645
561.0,0.4701
562.0,0.4662
563.0,0.4782
564.0,0.4647
565.0,0.4602
566.0,0.453
567.0,0.461
568.0,0.4553
569.0,0.4415
570.0,0.4418
571.0,0.4399
572.0,0.4484
573.0,0.4528
574.0,0.4509
575.0,0.4418
576.0,0.4378
577.0,0.4429
578.0,0.4371
579.0,0.4403
580.0,0.4508
581.0,0.4548
582.0,0.4649
583.0,0.4673
584.0,0.4722
585.0,0.4611
586.0,0.4517
587.0,0.4607
588.0,0.4457
589.0,0.3877
590.0,0.406
591.0,0.434
592.0,0.426
593.0,0.4356
594.0,0.4312
595.0,0.4178
596.0,0.4403
597.0,0.4339
598.0,0.4347
599.0,0.4358
600.0,0.438
601.0,0.4355
602.0,0.4328
603.0,0.4405
604.0,0.4481
605.0,0.4462
606.0,0.445
607.0,0.4501
608.0,0.4458
609.0,0.4471
610.0,0.4446
611.0,0.4473
612.0,0.4464
613.0,0.4411
614.0,0.4357
615.0,0.4457
616.0,0.4315
617.0,0.431
618.0,0.4479
619.0,0.4436
620.0,0.4464
621.0,0.4463
622.0,0.4406
623.0,0.4335
624.0,0.4265
625.0,0.4256
626.0,0.4317
627.0,0.4351
628.0,0.3896
629.0,0.419
630.0,0.4087
631.0,0.4237
632.0,0.4197
633.0,0.4348
634.0,0.4325
635.0,0.4402
636.0,0.4355
637.0,0.4434
638.0,0.449
639.0,0.4447
640.0,0.4412
641.0,0.4415
642.0,0.4402
643.0,0.4463
644.0,0.4455
645.0,0.4459
646.0,0.4334
647.0,0.4236
648.0,0.4241
649.0,0.4153
650.0,0.4234
651.0,0.4428
652.0,0.4183
653.0,0.4373
654.0,0.4329
655.0,0.4137
656.0,0.3688
657.0,0.3791
658.0,0.4268
659.0,0.4306
660.0,0.4329
661.0,0.4361
662.0,0.4359
663.0,0.4277
664.0,0.4345
665.0,0.4361
666.0,0.437
667.0,0.4373
668.0,0.4382
669.0,0.4454
670.0,0.4437
671.0,0.444
672.0,0.4404
673.0,0.4474
674.0,0.446
675.0,0.4422
676.0,0.4455
677.0,0.4413
678.0,0.4428
679.0,0.4359
680.0,0.4395
681.0,0.4367
682.0,0.4362
683.0,0.4354
684.0,0.4332
685.0,0.4373
686.0,0.4343
687.0,0.2193
688.0,0.2869
689.0,0.289
690.0,0.314
691.0,0.3435
692.0,0.3668
693.0,0.3631
694.0,0.3615
695.0,0.3854
696.0,0.3864
697.0,0.4203
698.0,0.4136
699.0,0.3966
700.0,0.3915
701.0,0.3848
702.0,0.3902
703.0,0.3916
704.0,0.4084
705.0,0.4089
706.0,0.4102
707.0,0.4112
708.0,0.4119
709.0,0.4153
710.0,0.4138
711.0,0.4143
712.0,0.4144
713.0,0.4089
714.0,0.4109
715.0,0.395
716.0,0.3945
717.0,0.3167
718.0,0.2886
719.0,0.2624
720.0,0.2723
721.0,0.315
722.0,0.3762
723.0,0.3424
724.0,0.2989
725.0,0.291
726.0,0.3054
727.0,0.3163
728.0,0.2891
729.0,0.3088
730.0,0.3249
731.0,0.3091
732.0,0.34
733.0,0.3686
734.0,0.3801
735.0,0.3708
736.0,0.3699
737.0,0.3715
738.0,0.384
739.0,0.3765
740.0,0.3884
741.0,0.3857
742.0,0.3874
743.0,0.3976
744.0,0.3973
745.0,0.398
746.0,0.3998
747.0,0.4009
748.0,0.4001
749.0,0.3956
750.0,0.3955
751.0,0.3915
752.0,0.3933
753.0,0.3954
754.0,0.3962
755.0,0.394
756.0,0.3939
757.0,0.3944
758.0,0.3894
759.0,0.3771
760.0,0.01959
761.0,0.007037
762.0,0.1247
763.0,0.03906
764.0,0.0768
765.0,0.1245
766.0,0.1803
767.0,0.2604
768.0,0.3304
769.0,0.3445
770.0,0.3645
771.0,0.3711
772.0,0.3731
773.0,0.376
774.0,0.3745
775.0,0.3718
776.0,0.3764
777.0,0.3715
778.0,0.3692
779.0,0.3695
780.0,0.3675
781.0,0.368
782.0,0.3704
783.0,0.364
784.0,0.3659
785.0,0.3629
786.0,0.3666
787.0,0.3569
788.0,0.3509
789.0,0.3506
790.0,0.3368
791.0,0.3442
792.0,0.3424
793.0,0.3363
794.0,0.3467
795.0,0.3513
796.0,0.3342
797.0,0.3341
798.0,0.3501
799.0,0.3467
800.0,0.3392
801.0,0.3366
802.0,0.3356
803.0,0.3322
804.0,0.3334
805.0,0.3342
806.0,0.3468
807.0,0.3419
808.0,0.3425
809.0,0.3336
810.0,0.3294
811.0,0.3265
812.0,0.3129
813.0,0.3046
814.0,0.2561
815.0,0.2553
816.0,0.2362
817.0,0.2413
818.0,0.2295
819.0,0.2667
820.0,0.2476
821.0,0.3044
822.0,0.2933
823.0,0.177
824.0,0.279
825.0,0.2992
826.0,0.2829
827.0,0.3035
828.0,0.243
829.0,0.2822
830.0,0.2774
831.0,0.2784
832.0,0.2673
833.0,0.291
834.0,0.2762
835.0,0.314
836.0,0.2934
837.0,0.3151
838.0,0.3016
839.0,0.3109
840.0,0.3187
841.0,0.3126
842.0,0.3157
843.0,0.318
844.0,0.3123
845.0,0.3246
846.0,0.3236
847.0,0.3183
848.0,0.3153
849.0,0.3063
850.0,0.2936
851.0,0.3096
852.0,0.308
853.0,0.2974
854.0,0.256
855.0,0.2824
856.0,0.3081
857.0,0.3158
858.0,0.3131
859.0,0.3139
860.0,0.3148
861.0,0.3129
862.0,0.318
863.0,0.3256
864.0,0.3093
865.0,0.3067
866.0,0.2758
867.0,0.2879
868.0,0.3133
869.0,0.3068
870.0,0.3156
871.0,0.3113
872.0,0.3103
873.0,0.3097
874.0,0.306
875.0,0.2998
876.0,0.3028
877.0,0.306
878.0,0.3091
879.0,0.3044
880.0,0.2979
881.0,0.2928
882.0,0.2989
883.0,0.3005
884.0,0.2989
885.0,0.3011
886.0,0.2849
887.0,0.2896
888.0,0.293
889.0,0.298
890.0,0.2933
891.0,0.2939
892.0,0.2826
893.0,0.2711
894.0,0.2557
895.0,0.2344
896.0,0.2189
897.0,0.1798
898.0,0.2002
899.0,0.1431
900.0,0.2104
901.0,0.15
902.0,0.1883
903.0,0.1857
904.0,0.2537
905.0,0.2424
906.0,0.2245
907.0,0.169
908.0,0.175
909.0,0.1947
910.0,0.1621
911.0,0.1804
912.0,0.1893
913.0,0.164
914.0,0.1647
915.0,0.1777
916.0,0.1491
917.0,0.199
918.0,0.152
919.0,0.2061
920.0,0.2157
921.0,0.2239
922.0,0.1928
923.0,0.2172
924.0,0.1956
925.0,0.1919
926.0,0.1927
927.0,0.223
928.0,0.1427
929.0,0.1248
930.0,0.08965
931.0,0.08512
932.0,0.05311
933.0,0.03975
934.0,0.01524
935.0,0.04334
936.0,0.02257
937.0,0.02269
938.0,0.02946
939.0,0.08226
940.0,0.1052
941.0,0.07157
942.0,0.08691
943.0,0.05131
944.0,0.05997
945.0,0.07552
946.0,0.03081
947.0,0.07374
948.0,0.05344
949.0,0.1065
950.0,0.01943
951.0,0.1059
952.0,0.04735
953.0,0.06746
954.0,0.09001
955.0,0.06902
956.0,0.07435
957.0,0.04689
958.0,0.1136
959.0,0.08095
960.0,0.09075
961.0,0.1093
962.0,0.103
963.0,0.1253
964.0,0.1129
965.0,0.1246
966.0,0.1238
967.0,0.1223
968.0,0.1902
969.0,0.1947
970.0,0.1765
971.0,0.2137
972.0,0.2018
973.0,0.164
974.0,0.1547
975.0,0.1644
976.0,0.1495
977.0,0.1839
978.0,0.1689
979.0,0.1802
980.0,0.1678
981.0,0.2127
982.0,0.199
983.0,0.1888
984.0,0.2246
985.0,0.1981
986.0,0.232
987.0,0.2236
988.0,0.2235
989.0,0.2335
990.0,0.2219
991.0,0.2338
992.0,0.2356
993.0,0.2264
994.0,0.2359
995.0,0.2362
996.0,0.2345
997.0,0.2352
998.0,0.2339
999.0,0.2332
1000.0,0.2306
1001.0,0.2345
1002.0,0.2242
1003.0,0.2302
1004.0,0.2235
1005.0,0.2167
1006.0,0.2245
1007.0,0.2296
1008.0,0.2277
1009.0,0.2257
1010.0,0.2243
1011.0,0.2285
1012.0,0.2258
1013.0,0.2282
1014.0,0.2266
1015.0,0.225
1016.0,0.2239
1017.0,0.2243
1018.0,0.2239
1019.0,0.2177
1020.0,0.2225
1021.0,0.2225
1022.0,0.2202
1023.0,0.2225
1024.0,0.2181
1025.0,0.2228
1026.0,0.2215
1027.0,0.221
1028.0,0.2205
1029.0,0.2177
1030.0,0.2197
1031.0,0.2186
1032.0,0.2182
1033.0,0.2149
1034.0,0.2149
1035.0,0.2156
1036.0,0.2165
1037.0,0.2131
1038.0,0.214
1039.0,0.2137
1040.0,0.2128
1041.0,0.2136
1042.0,0.212
1043.0,0.2113
1044.0,0.2119
1045.0,0.209
1046.0,0.2066
1047.0,0.2083
1048.0,0.2093
1049.0,0.2085
1050.0,0.2074
1051.0,0.2069
1052.0,0.2059
1053.0,0.2041
1054.0,0.2044
1055.0,0.2042
1056.0,0.2033
1057.0,0.2024
1058.0,0.1972
1059.0,0.1972
1060.0,0.1968
1061.0,0.1964
1062.0,0.1972
1063.0,0.1951
1064.0,0.1975
1065.0,0.1955
1066.0,0.192
1067.0,0.1944
1068.0,0.1897
1069.0,0.1842
1070.0,0.1901
1071.0,0.1943
1072.0,0.1911
1073.0,0.1885
1074.0,0.1949
1075.0,0.1813
1076.0,0.1946
1077.0,0.189
1078.0,0.1843
1079.0,0.1921
1080.0,0.1861
1081.0,0.1781
1082.0,0.1843
1083.0,0.1858
1084.0,0.177
1085.0,0.1868
1086.0,0.1654
1087.0,0.1741
1088.0,0.185
1089.0,0.1755
1090.0,0.1698
1091.0,0.1834
1092.0,0.1836
1093.0,0.146
1094.0,0.1668
1095.0,0.1526
1096.0,0.1435
1097.0,0.1794
1098.0,0.1398
1099.0,0.1473
1100.0,0.1332
1101.0,0.1362
1102.0,0.1274
1103.0,0.1244
1104.0,0.1248
1105.0,0.1431
1106.0,0.09452
1107.0,0.1331
1108.0,0.104
1109.0,0.1057
1110.0,0.1301
1111.0,0.07657
1112.0,0.1054
1113.0,0.05606
1114.0,0.06313
1115.0,0.0515
1116.0,0.03548
1117.0,0.00837
1118.0,0.03993
1119.0,0.01543
1120.0,0.01878
1121.0,0.02714
1122.0,0.008161
1123.0,0.01715
1124.0,0.01441
1125.0,0.01989
1126.0,0.003977
1127.0,0.02274
1128.0,0.01009
1129.0,0.01103
1130.0,0.006632
1131.0,0.05341
1132.0,0.03981
1133.0,0.01979
1134.0,0.002987
1135.0,0.001257
1136.0,0.01477
1137.0,0.05029
1138.0,0.0344
1139.0,0.06393
1140.0,0.04852
1141.0,0.03285
1142.0,0.04001
1143.0,0.06243
1144.0,0.01646
1145.0,0.01906
1146.0,0.0205
1147.0,0.004373
1148.0,0.05326
1149.0,0.03906
1150.0,0.01883
1151.0,0.03413
1152.0,0.04617
1153.0,0.04838
1154.0,0.01879
1155.0,0.06652
1156.0,0.05726
1157.0,0.06973
1158.0,0.06876
1159.0,0.07696
1160.0,0.06349
1161.0,0.0856
1162.0,0.08524
1163.0,0.129
1164.0,0.1057
1165.0,0.09476
1166.0,0.09823
1167.0,0.1093
1168.0,0.1094
1169.0,0.1133
1170.0,0.1275
1171.0,0.1242
1172.0,0.1294
1173.0,0.1274
1174.0,0.08132
1175.0,0.127
1176.0,0.1456
1177.0,0.1356
1178.0,0.09451
1179.0,0.1468
1180.0,0.1246
1181.0,0.1288
1182.0,0.08056
1183.0,0.1282
1184.0,0.1173
1185.0,0.1105
1186.0,0.1398
1187.0,0.1303
1188.0,0.08039
1189.0,0.121
1190.0,0.1373
1191.0,0.1247
1192.0,0.1397
1193.0,0.132
1194.0,0.1373
1195.0,0.126
1196.0,0.1193
1197.0,0.139
1198.0,0.1254
1199.0,0.0988
1200.0,0.1302
1201.0,0.1227
1202.0,0.1244
1203.0,0.1219
1204.0,0.1033
1205.0,0.1295
1206.0,0.1469
1207.0,0.1229
1208.0,0.1234
1209.0,0.1264
1210.0,0.1335
1211.0,0.1243
1212.0,0.1184
1213.0,0.1399
1214.0,0.1229
1215.0,0.1201
1216.0,0.1399
1217.0,0.1348
1218.0,0.1387
1219.0,0.136
1220.0,0.139
1221.0,0.1413
1222.0,0.137
1223.0,0.135
1224.0,0.1326
1225.0,0.1401
1226.0,0.1423
1227.0,0.1271
1228.0,0.1439
1229.0,0.1423
1230.0,0.1391
1231.0,0.1458
1232.0,0.1448
1233.0,0.1362
1234.0,0.1464
1235.0,0.1449
1236.0,0.1464
1237.0,0.1429
1238.0,0.146
1239.0,0.1441
1240.0,0.1448
1241.0,0.1432
1242.0,0.1437
1243.0,0.1426
1244.0,0.1433
1245.0,0.1441
1246.0,0.1433
1247.0,0.1425
1248.0,0.1419
1249.0,0.1428
1250.0,0.1416
1251.0,0.1392
1252.0,0.14
1253.0,0.1375
1254.0,0.1352
1255.0,0.1395
1256.0,0.1331
1257.0,0.1319
1258.0,0.1363
1259.0,0.1276
1260.0,0.1288
1261.0,0.117
1262.0,0.1111
1263.0,0.1112
1264.0,0.09746
1265.0,0.1106
1266.0,0.1033
1267.0,0.1073
1268.0,0.09834
1269.0,0.04259
1270.0,0.106
1271.0,0.1172
1272.0,0.118
1273.0,0.1163
1274.0,0.1173
1275.0,0.1199
1276.0,0.1219
1277.0,0.1239
1278.0,0.1281
1279.0,0.1268
1280.0,0.1254
1281.0,0.1205
1282.0,0.1175
1283.0,0.1263
1284.0,0.129
1285.0,0.1301
1286.0,0.1327
1287.0,0.1292
1288.0,0.1296
1289.0,0.1226
1290.0,0.1286
1291.0,0.1309
1292.0,0.1178
1293.0,0.1272
1294.0,0.1261
1295.0,0.1237
1296.0,0.115
1297.0,0.1066
1298.0,0.1196
1299.0,0.1278
1300.0,0.1003
1301.0,0.1047
1302.0,0.1193
1303.0,0.09972
1304.0,0.078
1305.0,0.1165
1306.0,0.1157
1307.0,0.0823
1308.0,0.1011
1309.0,0.1136
1310.0,0.08009
1311.0,0.09527
1312.0,0.09172
1313.0,0.08822
1314.0,0.07641
1315.0,0.07387
1316.0,0.09239
1317.0,0.08651
1318.0,0.09708
1319.0,0.06751
1320.0,0.06703
1321.0,0.08106
1322.0,0.08027
1323.0,0.05377
1324.0,0.06656
1325.0,0.09016
1326.0,0.07322
1327.0,0.06863
1328.0,0.05685
1329.0,0.03707
1330.0,0.05124
1331.0,0.02514
1332.0,0.02758
1333.0,0.03947
1334.0,0.03731
1335.0,0.05299
1336.0,0.03848
1337.0,0.03314
1338.0,0.03547
1339.0,0.03609
1340.0,0.03685
1341.0,0.03184
1342.0,0.03399
1343.0,0.01685
1344.0,0.01069
1345.0,0.01497
1346.0,0.004637
1347.0,0.004273
1348.0,0.0001057
1349.0,0.0004732
1350.0,0.0005728
1351.0,5.718e-05
1352.0,4.979e-06
1353.0,1.305e-07
1354.0,7.765e-07
1355.0,1.841e-09
1356.0,6.293e-08
1357.0,9.491e-08
1358.0,2.224e-09
1359.0,2.138e-10
1360.0,8.742e-10
1361.0,8.241e-13
1362.0,2.248e-15
1363.0,1.056e-09
1364.0,4.455e-10
1365.0,7.839e-16
1366.0,4.771e-09
1367.0,2.161e-09
1368.0,6.052e-18
1369.0,1.645e-10
1370.0,7.695e-11
1371.0,4.268e-12
1372.0,1.196e-09
1373.0,3.461e-08
1374.0,2.549e-07
1375.0,3.902e-07
1376.0,7.253e-07
1377.0,2.984e-07
1378.0,3.135e-06
1379.0,1.304e-07
1380.0,1.168e-07
1381.0,2.607e-09
1382.0,1.004e-09
1383.0,1.419e-11
1384.0,1.735e-10
1385.0,1.245e-09
1386.0,8.123e-10
1387.0,1.674e-07
1388.0,4.481e-09
1389.0,1.123e-06
1390.0,8.806e-07
1391.0,5.743e-07
1392.0,3.704e-08
1393.0,2.586e-07
1394.0,5.086e-08
1395.0,3.066e-10
1396.0,1.077e-12
1397.0,8.188e-08
1398.0,3.076e-06
1399.0,2.085e-06
1400.0,4.58e-13
1401.0,1.918e-12
1402.0,1.998e-05
1403.0,1.901e-05
1404.0,4.995e-06
1405.0,1.253e-10
1406.0,8.328e-06
1407.0,1.365e-06
1408.0,7.475e-06
1409.0,1.378e-06
1410.0,2.014e-06
1411.0,1.777e-05
1412.0,3.322e-05
1413.0,0.0007297
1414.0,1.77e-06
1415.0,6.586e-07
1416.0,0.00232
1417.0,0.0004325
1418.0,0.0003679
1419.0,5.11e-05
1420.0,0.0002211
1421.0,0.0002981
1422.0,0.003028
1423.0,0.0005372
1424.0,0.001147
1425.0,0.001416
1426.0,0.002135
1427.0,0.004944
1428.0,8.788e-05
1429.0,0.003021
